Data from USB4F104151__55__11-37-17-022.txt Node

Date: Fri Mar 14 11:37:17 EDT 2025
User: louis
Spectrometer: USB4F10415
Trigger mode: 4
Integration Time (sec): 2.000000E-2
Scans to average: 1
Electric dark correction enabled: true
Nonlinearity correction enabled: false
Boxcar width: 0
XAxis mode: Wavelengths
Number of Pixels in Spectrum: 3648
>>>>>Begin Spectral Data<<<<<
178.204	-29.35
178.424	-29.35
178.644	-29.35
178.864	-86.7
179.084	-92.84
179.304	-4.78
179.524	-6.83
179.744	-60.07
179.964	15.7
180.184	-25.26
180.404	11.61
180.624	27.99
180.844	77.14
181.064	-15.02
181.283	7.51
181.503	-21.16
181.723	-6.83
181.943	-4.78
182.163	60.76
182.383	27.99
182.602	58.71
182.822	36.18
183.042	-21.16
183.262	34.13
183.482	23.89
183.701	-15.02
183.921	44.37
184.141	17.75
184.361	27.99
184.58	-19.11
184.8	7.51
185.02	44.37
185.239	66.9
185.459	11.61
185.679	44.37
185.898	36.18
186.118	89.43
186.338	118.1
186.557	36.18
186.777	11.61
186.997	42.32
187.216	-12.97
187.436	120.15
187.655	11.61
187.875	34.13
188.095	62.8
188.314	62.8
188.534	-33.45
188.753	40.28
188.973	1.37
189.192	44.37
189.412	5.46
189.631	-8.87
189.851	56.66
190.07	19.8
190.29	54.61
190.509	-12.97
190.729	58.71
190.948	7.51
191.168	87.38
191.387	56.66
191.607	-33.45
191.826	-23.21
192.045	-21.16
192.265	40.28
192.484	-0.68
192.704	36.18
192.923	27.99
193.142	40.28
193.362	-37.55
193.581	50.52
193.8	32.08
194.02	64.85
194.239	19.8
194.458	97.62
194.678	-41.64
194.897	13.65
195.116	19.8
195.335	38.23
195.555	46.42
195.774	32.08
195.993	-4.78
196.212	3.41
196.432	32.08
196.651	32.08
196.87	15.7
197.089	36.18
197.308	38.23
197.528	32.08
197.747	-2.73
197.966	-27.31
198.185	103.76
198.404	-8.87
198.623	60.76
198.842	38.23
199.062	27.99
199.281	81.24
199.5	3.41
199.719	50.52
199.938	-0.68
200.157	42.32
200.376	-4.78
200.595	34.13
200.814	23.89
201.033	7.51
201.252	54.61
201.471	15.7
201.69	56.66
201.909	34.13
202.128	-29.35
202.347	7.51
202.566	44.37
202.785	-45.74
203.004	42.32
203.223	52.56
203.442	52.56
203.661	-12.97
203.879	52.56
204.098	60.76
204.317	-21.16
204.536	15.7
204.755	13.65
204.974	27.99
205.193	34.13
205.411	101.72
205.63	44.37
205.849	66.9
206.068	-53.93
206.287	52.56
206.505	-8.87
206.724	120.15
206.943	44.37
207.162	13.65
207.381	-12.97
207.599	-15.02
207.818	114
208.037	15.7
208.255	-12.97
208.474	103.76
208.693	68.95
208.911	66.9
209.13	19.8
209.349	54.61
209.567	30.04
209.786	-0.68
210.005	32.08
210.223	60.76
210.442	-10.92
210.661	68.95
210.879	-4.78
211.098	36.18
211.316	91.48
211.535	44.37
211.753	-68.27
211.972	23.89
212.191	42.32
212.409	103.76
212.628	21.85
212.846	-37.55
213.065	48.47
213.283	19.8
213.502	32.08
213.72	48.47
213.938	87.38
214.157	-19.11
214.375	66.9
214.594	44.37
214.812	52.56
215.031	40.28
215.249	27.99
215.467	-15.02
215.686	36.18
215.904	-12.97
216.122	-31.4
216.341	52.56
216.559	36.18
216.778	44.37
216.996	23.89
217.214	50.52
217.432	-4.78
217.651	-47.79
217.869	-17.07
218.087	44.37
218.306	-23.21
218.524	34.13
218.742	73.04
218.96	36.18
219.179	44.37
219.397	40.28
219.615	11.61
219.833	25.94
220.051	-27.31
220.27	75.09
220.488	34.13
220.706	36.18
220.924	15.7
221.142	7.51
221.36	-17.07
221.578	15.7
221.796	21.85
222.015	-2.73
222.233	38.23
222.451	91.48
222.669	36.18
222.887	48.47
223.105	25.94
223.323	30.04
223.541	52.56
223.759	38.23
223.977	3.41
224.195	87.38
224.413	91.48
224.631	9.56
224.849	19.8
225.067	64.85
225.285	3.41
225.503	40.28
225.721	-25.26
225.939	-25.26
226.157	3.41
226.375	27.99
226.592	13.65
226.81	73.04
227.028	17.75
227.246	44.37
227.464	40.28
227.682	-12.97
227.9	25.94
228.117	11.61
228.335	-12.97
228.553	-8.87
228.771	-0.68
228.989	30.04
229.206	75.09
229.424	44.37
229.642	36.18
229.86	38.23
230.077	19.8
230.295	1.37
230.513	-51.88
230.731	-12.97
230.948	44.37
231.166	23.89
231.384	40.28
231.601	85.33
231.819	68.95
232.037	-4.78
232.254	-12.97
232.472	34.13
232.689	62.8
232.907	60.76
233.125	50.52
233.342	42.32
233.56	-4.78
233.777	46.42
233.995	7.51
234.213	56.66
234.43	30.04
234.648	9.56
234.865	89.43
235.083	34.13
235.3	-4.78
235.518	32.08
235.735	27.99
235.953	34.13
236.17	50.52
236.388	48.47
236.605	48.47
236.822	64.85
237.04	66.9
237.257	3.41
237.475	75.09
237.692	11.61
237.909	-29.35
238.127	42.32
238.344	-25.26
238.562	46.42
238.779	-8.87
238.996	-25.26
239.214	-39.59
239.431	11.61
239.648	11.61
239.865	85.33
240.083	3.41
240.3	38.23
240.517	19.8
240.735	36.18
240.952	52.56
241.169	-4.78
241.386	66.9
241.603	7.51
241.821	11.61
242.038	48.47
242.255	-0.68
242.472	-12.97
242.689	52.56
242.907	40.28
243.124	21.85
243.341	5.46
243.558	25.94
243.775	5.46
243.992	19.8
244.209	97.62
244.426	60.76
244.643	56.66
244.86	15.7
245.078	81.24
245.295	9.56
245.512	21.85
245.729	-12.97
245.946	-58.03
246.163	56.66
246.38	34.13
246.597	44.37
246.814	68.95
247.031	79.19
247.248	44.37
247.464	-19.11
247.681	68.95
247.898	3.41
248.115	-17.07
248.332	-17.07
248.549	95.57
248.766	3.41
248.983	17.75
249.2	48.47
249.417	52.56
249.633	83.28
249.85	27.99
250.067	75.09
250.284	40.28
250.501	71
250.717	93.52
250.934	-23.21
251.151	56.66
251.368	36.18
251.585	58.71
251.801	42.32
252.018	71
252.235	60.76
252.451	13.65
252.668	58.71
252.885	52.56
253.102	-17.07
253.318	9.56
253.535	56.66
253.752	5.46
253.968	66.9
254.185	-6.83
254.401	27.99
254.618	111.96
254.835	-27.31
255.051	11.61
255.268	-29.35
255.484	-31.4
255.701	15.7
255.917	-0.68
256.134	48.47
256.351	54.61
256.567	-33.45
256.784	42.32
257	-6.83
257.217	60.76
257.433	-4.78
257.65	19.8
257.866	-0.68
258.082	-29.35
258.299	-2.73
258.515	32.08
258.732	32.08
258.948	15.7
259.165	-15.02
259.381	11.61
259.597	36.18
259.814	-4.78
260.03	-0.68
260.246	54.61
260.463	77.14
260.679	9.56
260.895	15.7
261.112	52.56
261.328	48.47
261.544	44.37
261.761	68.95
261.977	-0.68
262.193	23.89
262.409	62.8
262.626	95.57
262.842	-4.78
263.058	40.28
263.274	-35.5
263.49	25.94
263.707	124.24
263.923	60.76
264.139	3.41
264.355	15.7
264.571	48.47
264.787	66.9
265.004	46.42
265.22	44.37
265.436	83.28
265.652	34.13
265.868	36.18
266.084	44.37
266.3	21.85
266.516	7.51
266.732	19.8
266.948	3.41
267.164	75.09
267.38	68.95
267.596	107.86
267.812	81.24
268.028	79.19
268.244	44.37
268.46	1.37
268.676	1.37
268.892	23.89
269.108	3.41
269.324	11.61
269.54	32.08
269.756	23.89
269.972	79.19
270.188	64.85
270.403	5.46
270.619	64.85
270.835	-53.93
271.051	-4.78
271.267	32.08
271.483	-19.11
271.698	-6.83
271.914	23.89
272.13	-4.78
272.346	-33.45
272.562	-33.45
272.777	52.56
272.993	21.85
273.209	-2.73
273.425	21.85
273.64	-4.78
273.856	25.94
274.072	-21.16
274.287	-21.16
274.503	32.08
274.719	32.08
274.934	62.8
275.15	-21.16
275.366	1.37
275.581	36.18
275.797	7.51
276.012	-62.12
276.228	60.76
276.444	40.28
276.659	9.56
276.875	3.41
277.09	124.24
277.306	27.99
277.521	68.95
277.737	19.8
277.952	52.56
278.168	-41.64
278.383	-25.26
278.599	-45.74
278.814	42.32
279.03	79.19
279.245	25.94
279.461	75.09
279.676	91.48
279.892	36.18
280.107	11.61
280.322	34.13
280.538	44.37
280.753	-12.97
280.969	68.95
281.184	21.85
281.399	30.04
281.615	15.7
281.83	27.99
282.045	-21.16
282.26	62.8
282.476	-17.07
282.691	48.47
282.906	64.85
283.122	34.13
283.337	38.23
283.552	30.04
283.767	19.8
283.983	52.56
284.198	68.95
284.413	116.05
284.628	-29.35
284.843	1.37
285.058	-0.68
285.274	-12.97
285.489	38.23
285.704	11.61
285.919	-19.11
286.134	11.61
286.349	48.47
286.564	64.85
286.779	38.23
286.995	64.85
287.21	-0.68
287.425	9.56
287.64	5.46
287.855	23.89
288.07	-33.45
288.285	40.28
288.5	48.47
288.715	36.18
288.93	62.8
289.145	7.51
289.36	44.37
289.575	89.43
289.79	81.24
290.004	40.28
290.219	64.85
290.434	-21.16
290.649	-2.73
290.864	36.18
291.079	-64.17
291.294	93.52
291.509	83.28
291.724	-35.5
291.938	48.47
292.153	75.09
292.368	46.42
292.583	101.72
292.798	-49.83
293.012	71
293.227	52.56
293.442	-17.07
293.657	27.99
293.871	56.66
294.086	46.42
294.301	50.52
294.516	64.85
294.73	52.56
294.945	60.76
295.16	27.99
295.374	73.04
295.589	42.32
295.804	-37.55
296.018	36.18
296.233	66.9
296.447	79.19
296.662	34.13
296.877	15.7
297.091	-21.16
297.306	17.75
297.52	32.08
297.735	-4.78
297.949	7.51
298.164	116.05
298.378	36.18
298.593	25.94
298.807	-45.74
299.022	-8.87
299.236	3.41
299.451	15.7
299.665	36.18
299.88	3.41
300.094	-4.78
300.309	46.42
300.523	40.28
300.737	56.66
300.952	-0.68
301.166	42.32
301.381	-62.12
301.595	9.56
301.809	-4.78
302.024	36.18
302.238	44.37
302.452	15.7
302.667	38.23
302.881	32.08
303.095	83.28
303.309	23.89
303.524	-12.97
303.738	3.41
303.952	27.99
304.166	58.71
304.381	23.89
304.595	21.85
304.809	52.56
305.023	17.75
305.237	73.04
305.452	15.7
305.666	-10.92
305.88	40.28
306.094	15.7
306.308	-10.92
306.522	83.28
306.736	48.47
306.95	19.8
307.164	-6.83
307.379	1.37
307.593	23.89
307.807	64.85
308.021	52.56
308.235	-2.73
308.449	11.61
308.663	13.65
308.877	44.37
309.091	42.32
309.305	27.99
309.519	-4.78
309.733	21.85
309.947	5.46
310.161	27.99
310.374	21.85
310.588	42.32
310.802	54.61
311.016	44.37
311.23	32.08
311.444	7.51
311.658	-6.83
311.872	19.8
312.085	42.32
312.299	66.9
312.513	56.66
312.727	19.8
312.941	60.76
313.154	58.71
313.368	21.85
313.582	105.81
313.796	-60.07
314.009	17.75
314.223	48.47
314.437	9.56
314.651	-2.73
314.864	40.28
315.078	64.85
315.292	-21.16
315.505	40.28
315.719	17.75
315.933	71
316.146	15.7
316.36	-6.83
316.573	42.32
316.787	109.91
317.001	-0.68
317.214	27.99
317.428	23.89
317.641	73.04
317.855	40.28
318.068	17.75
318.282	93.52
318.495	-4.78
318.709	60.76
318.922	27.99
319.136	81.24
319.349	58.71
319.563	23.89
319.776	25.94
319.99	-17.07
320.203	73.04
320.417	15.7
320.63	-23.21
320.843	17.75
321.057	114
321.27	87.38
321.483	56.66
321.697	3.41
321.91	85.33
322.124	-0.68
322.337	64.85
322.55	64.85
322.763	48.47
322.977	42.32
323.19	71
323.403	17.75
323.617	27.99
323.83	95.57
324.043	5.46
324.256	19.8
324.469	-10.92
324.683	1.37
324.896	36.18
325.109	48.47
325.322	40.28
325.535	89.43
325.748	101.72
325.962	9.56
326.175	44.37
326.388	50.52
326.601	34.13
326.814	13.65
327.027	-21.16
327.24	32.08
327.453	75.09
327.666	52.56
327.879	-17.07
328.092	77.14
328.305	-8.87
328.518	5.46
328.731	27.99
328.944	109.91
329.157	64.85
329.37	-8.87
329.583	36.18
329.796	34.13
330.009	-70.31
330.222	79.19
330.435	15.7
330.648	66.9
330.861	7.51
331.073	66.9
331.286	-4.78
331.499	44.37
331.712	25.94
331.925	48.47
332.138	93.52
332.35	56.66
332.563	27.99
332.776	30.04
332.989	-39.59
333.202	52.56
333.414	-21.16
333.627	7.51
333.84	42.32
334.053	-43.69
334.265	48.47
334.478	68.95
334.691	54.61
334.903	23.89
335.116	5.46
335.329	58.71
335.541	-19.11
335.754	68.95
335.966	3.41
336.179	64.85
336.392	77.14
336.604	27.99
336.817	83.28
337.029	81.24
337.242	-0.68
337.454	46.42
337.667	44.37
337.88	79.19
338.092	34.13
338.305	87.38
338.517	-101.03
338.729	79.19
338.942	56.66
339.154	32.08
339.367	36.18
339.579	87.38
339.792	60.76
340.004	83.28
340.217	9.56
340.429	11.61
340.641	21.85
340.854	40.28
341.066	36.18
341.278	-0.68
341.491	48.47
341.703	19.8
341.915	38.23
342.128	-19.11
342.34	5.46
342.552	-12.97
342.764	1.37
342.977	118.1
343.189	44.37
343.401	13.65
343.613	27.99
343.826	-25.26
344.038	3.41
344.25	17.75
344.462	25.94
344.674	85.33
344.886	11.61
345.099	81.24
345.311	15.7
345.523	34.13
345.735	-12.97
345.947	150.87
346.159	19.8
346.371	52.56
346.583	11.61
346.795	48.47
347.007	-37.55
347.219	73.04
347.431	-8.87
347.643	71
347.855	15.7
348.067	64.85
348.279	15.7
348.491	54.61
348.703	9.56
348.915	60.76
349.127	50.52
349.339	-23.21
349.551	25.94
349.763	68.95
349.975	1.37
350.187	48.47
350.399	103.76
350.61	64.85
350.822	75.09
351.034	87.38
351.246	3.41
351.458	36.18
351.669	11.61
351.881	-0.68
352.093	66.9
352.305	126.29
352.517	101.72
352.728	46.42
352.94	42.32
353.152	34.13
353.363	7.51
353.575	36.18
353.787	122.2
353.999	11.61
354.21	64.85
354.422	85.33
354.633	48.47
354.845	75.09
355.057	48.47
355.268	-21.16
355.48	42.32
355.692	71
355.903	50.52
356.115	3.41
356.326	-25.26
356.538	42.32
356.749	-45.74
356.961	36.18
357.172	56.66
357.384	68.95
357.595	9.56
357.807	-15.02
358.018	62.8
358.23	-17.07
358.441	77.14
358.653	71
358.864	40.28
359.075	19.8
359.287	-4.78
359.498	58.71
359.709	-58.03
359.921	62.8
360.132	9.56
360.344	32.08
360.555	-19.11
360.766	40.28
360.977	34.13
361.189	95.57
361.4	44.37
361.611	23.89
361.823	75.09
362.034	-23.21
362.245	68.95
362.456	60.76
362.667	27.99
362.879	3.41
363.09	60.76
363.301	48.47
363.512	46.42
363.723	25.94
363.935	48.47
364.146	21.85
364.357	40.28
364.568	40.28
364.779	44.37
364.99	54.61
365.201	-19.11
365.412	75.09
365.623	-8.87
365.834	116.05
366.045	9.56
366.256	-12.97
366.467	58.71
366.678	58.71
366.889	-4.78
367.1	54.61
367.311	71
367.522	83.28
367.733	85.33
367.944	36.18
368.155	77.14
368.366	62.8
368.577	56.66
368.788	97.62
368.999	27.99
369.209	97.62
369.42	40.28
369.631	60.76
369.842	52.56
370.053	93.52
370.264	54.61
370.474	81.24
370.685	58.71
370.896	64.85
371.107	128.34
371.317	81.24
371.528	40.28
371.739	99.67
371.95	42.32
372.16	38.23
372.371	5.46
372.582	-23.21
372.792	89.43
373.003	81.24
373.214	21.85
373.424	54.61
373.635	15.7
373.846	93.52
374.056	-37.55
374.267	48.47
374.477	40.28
374.688	52.56
374.898	32.08
375.109	60.76
375.319	91.48
375.53	122.2
375.74	30.04
375.951	11.61
376.161	19.8
376.372	66.9
376.582	21.85
376.793	23.89
377.003	54.61
377.214	-0.68
377.424	44.37
377.635	48.47
377.845	97.62
378.055	77.14
378.266	-8.87
378.476	32.08
378.686	81.24
378.897	36.18
379.107	60.76
379.317	77.14
379.528	27.99
379.738	40.28
379.948	75.09
380.158	83.28
380.369	136.53
380.579	38.23
380.789	38.23
380.999	54.61
381.21	60.76
381.42	75.09
381.63	48.47
381.84	23.89
382.05	75.09
382.261	58.71
382.471	30.04
382.681	25.94
382.891	30.04
383.101	9.56
383.311	34.13
383.521	52.56
383.731	-0.68
383.941	111.96
384.151	30.04
384.361	60.76
384.571	103.76
384.781	109.91
384.991	118.1
385.201	124.24
385.411	13.65
385.621	71
385.831	44.37
386.041	81.24
386.251	52.56
386.461	109.91
386.671	11.61
386.881	-33.45
387.091	77.14
387.301	66.9
387.511	25.94
387.72	93.52
387.93	50.52
388.14	62.8
388.35	5.46
388.56	71
388.769	42.32
388.979	73.04
389.189	66.9
389.399	25.94
389.609	77.14
389.818	89.43
390.028	101.72
390.238	126.29
390.447	11.61
390.657	15.7
390.867	73.04
391.076	99.67
391.286	79.19
391.496	101.72
391.705	-2.73
391.915	-6.83
392.125	93.52
392.334	66.9
392.544	66.9
392.753	21.85
392.963	27.99
393.172	46.42
393.382	81.24
393.591	107.86
393.801	85.33
394.01	120.15
394.22	116.05
394.429	46.42
394.639	81.24
394.848	46.42
395.058	159.06
395.267	42.32
395.477	71
395.686	85.33
395.895	105.81
396.105	19.8
396.314	58.71
396.524	97.62
396.733	48.47
396.942	77.14
397.152	81.24
397.361	109.91
397.57	64.85
397.78	46.42
397.989	73.04
398.198	191.83
398.407	34.13
398.617	103.76
398.826	-8.87
399.035	34.13
399.244	91.48
399.453	118.1
399.663	83.28
399.872	66.9
400.081	128.34
400.29	99.67
400.499	44.37
400.708	116.05
400.917	101.72
401.127	118.1
401.336	167.25
401.545	169.3
401.754	64.85
401.963	128.34
402.172	97.62
402.381	89.43
402.59	77.14
402.799	150.87
403.008	124.24
403.217	36.18
403.426	87.38
403.635	85.33
403.844	126.29
404.053	97.62
404.262	118.1
404.471	130.39
404.68	105.81
404.888	185.68
405.097	140.63
405.306	111.96
405.515	126.29
405.724	75.09
405.933	171.35
406.142	175.44
406.35	77.14
406.559	142.68
406.768	150.87
406.977	150.87
407.185	220.5
407.394	187.73
407.603	150.87
407.812	238.93
408.02	197.97
408.229	144.72
408.438	214.35
408.646	146.77
408.855	165.2
409.064	238.93
409.272	218.45
409.481	240.98
409.69	249.17
409.898	220.5
410.107	234.83
410.315	236.88
410.524	269.65
410.733	261.46
410.941	357.71
411.15	296.27
411.358	314.7
411.567	382.29
411.775	316.75
411.984	337.23
412.192	443.73
412.401	370
412.609	417.1
412.818	382.29
413.026	449.87
413.234	359.76
413.443	402.77
413.651	451.92
413.86	376.14
414.068	544.08
414.276	558.41
414.485	511.31
414.693	501.07
414.901	562.51
415.11	621.9
415.318	509.26
415.526	650.57
415.734	683.34
415.943	656.72
416.151	669
416.359	638.28
416.567	757.07
416.776	664.91
416.984	773.45
417.192	892.23
417.4	795.98
417.608	789.83
417.817	845.13
418.025	867.66
418.233	992.58
418.441	927.05
418.649	945.48
418.857	1092.93
419.065	1058.12
419.273	1072.45
419.481	1066.31
419.689	1185.09
419.897	1350.98
420.105	1197.38
420.313	1236.29
420.521	1348.93
420.729	1436.99
420.937	1443.14
421.145	1477.95
421.353	1467.71
421.561	1576.25
421.769	1527.1
421.977	1678.65
422.185	1680.7
422.393	1785.15
422.601	1830.2
422.809	1895.74
423.017	1834.3
423.224	1963.32
423.432	2110.77
423.64	2030.9
423.848	2213.17
424.056	2166.07
424.263	2407.73
424.471	2334
424.679	2354.48
424.887	2497.84
425.094	2508.08
425.302	2587.95
425.51	2751.79
425.718	2719.02
425.925	2878.76
426.133	2952.49
426.341	3235.11
426.548	3220.77
426.756	3171.62
426.964	3247.4
427.171	3386.66
427.379	3519.78
427.586	3501.34
427.794	3777.82
428.001	3857.69
428.209	4056.34
428.417	4056.34
428.624	4308.24
428.832	4269.33
429.039	4271.38
429.247	4265.24
429.454	4672.78
429.662	5008.65
429.869	4693.26
430.076	5098.76
430.284	4855.05
430.491	5235.97
430.699	5199.11
430.906	5303.56
431.114	5473.54
431.321	5612.8
431.528	5752.06
431.736	6153.46
431.943	6384.88
432.15	6354.16
432.358	6147.32
432.565	6687.98
432.772	6667.5
432.979	7152.87
433.187	7195.88
433.394	7113.96
433.601	7650.53
433.808	7496.93
434.016	7494.88
434.223	7865.57
434.43	8449.24
434.637	8131.8
434.844	8715.47
435.052	8936.65
435.259	8738
435.466	8795.34
435.673	8850.64
435.88	9413.83
436.087	9577.67
436.294	9866.43
436.501	9620.67
436.708	9940.16
436.915	10173.63
437.122	10583.22
437.329	10570.93
437.537	10871.98
437.743	10951.85
437.95	10900.66
438.157	11560.1
438.364	11949.22
438.571	11777.19
438.778	11938.98
438.985	13085.84
439.192	12641.43
439.399	13038.73
439.606	12864.66
439.813	13372.55
440.02	14521.46
440.227	13831.3
440.433	13898.88
440.64	14480.5
440.847	14273.66
441.054	14374.01
441.261	15512.68
441.467	15211.63
441.674	15549.54
441.881	16165.98
442.088	16127.07
442.294	16159.84
442.501	16473.18
442.708	16794.71
442.914	17298.51
443.121	18275.39
443.328	17921.09
443.534	19010.61
443.741	18590.78
443.948	18170.94
444.154	19512.36
444.361	19391.53
444.568	19588.14
444.774	19428.4
444.981	19684.39
445.187	20354.08
445.394	21230.61
445.6	20831.26
445.807	23010.29
446.013	22055.94
446.22	22242.31
446.426	23192.56
446.633	23663.6
446.839	24374.24
447.046	23176.18
447.252	24466.4
447.459	24378.34
447.665	24642.53
447.871	25463.76
448.078	26719.17
448.284	25263.06
448.491	26168.26
448.697	26944.44
448.903	27593.65
449.11	27481.01
449.316	27085.75
449.522	27683.76
449.728	28568.48
449.935	28640.16
450.141	28591.01
450.347	29387.67
450.553	28281.77
450.76	28644.26
450.966	29535.12
451.172	29621.14
451.378	29870.99
451.584	29561.75
451.791	29932.43
451.997	30016.4
452.203	30258.06
452.409	30315.4
452.615	30401.41
452.821	29125.53
453.027	28926.88
453.233	30610.31
453.44	29090.71
453.646	29500.31
453.852	29809.55
454.058	30382.98
454.264	29053.85
454.47	29596.56
454.676	29383.57
454.882	30360.45
455.088	27544.5
455.294	27825.07
455.5	28265.38
455.705	28447.65
455.911	27298.74
456.117	26868.67
456.323	26313.67
456.529	25054.17
456.735	26430.4
456.941	25680.85
457.147	25402.32
457.352	24202.21
457.558	23901.16
457.764	24345.57
457.97	23970.79
458.176	23389.17
458.381	23598.06
458.587	22250.5
458.793	21892.1
458.999	20714.52
459.204	22393.86
459.41	21513.23
459.616	20323.36
459.821	20472.86
460.027	20161.57
460.233	19887.14
460.438	19000.37
460.644	19207.22
460.85	17923.14
461.055	18015.3
461.261	17706.06
461.466	16440.41
461.672	16051.3
461.878	17249.36
462.083	15973.47
462.289	15928.42
462.494	15707.24
462.7	15131.76
462.905	14507.13
463.111	15043.7
463.316	15000.69
463.522	14861.43
463.727	14918.77
463.932	14750.84
464.138	14736.5
464.343	14531.7
464.549	14144.64
464.754	14716.02
464.959	14503.03
465.165	14312.57
465.37	13743.24
465.575	13706.37
465.781	13925.5
465.986	14150.78
466.191	13886.59
466.397	13190.28
466.602	12866.7
466.807	13276.3
467.012	13300.87
467.218	13040.78
467.423	13122.7
467.628	12905.62
467.833	13345.93
468.038	13118.61
468.244	12848.27
468.449	13161.61
468.654	12881.04
468.859	12784.79
469.064	12674.2
469.269	12039.33
469.474	12285.08
469.679	12604.57
469.885	12151.96
470.09	12455.06
470.295	12430.49
470.5	11879.58
470.705	12086.43
470.91	11623.59
471.115	11521.19
471.32	11703.46
471.525	11795.62
471.73	11451.56
471.935	11279.53
472.139	10820.78
472.344	11203.75
472.549	10992.81
472.754	10753.2
472.959	10454.2
473.164	10343.61
473.369	10255.54
473.574	10572.98
473.778	10390.71
473.983	10425.53
474.188	10529.97
474.393	9960.64
474.598	10177.72
474.802	10036.41
475.007	9884.86
475.212	9864.38
475.417	9411.78
475.621	9415.88
475.826	9497.8
476.031	9288.9
476.235	9374.92
476.44	9309.38
476.645	8973.52
476.849	9311.43
477.054	9116.87
477.259	8903.89
477.463	8807.63
477.668	8694.99
477.872	8713.42
478.077	8471.76
478.282	8541.4
478.486	8262.87
478.691	8408.28
478.895	8361.17
479.1	8209.62
479.304	8183
479.509	8029.4
479.713	8047.83
479.918	8035.55
480.122	8033.5
480.326	7982.3
480.531	8027.35
480.735	7814.37
480.94	7699.68
481.144	8013.02
481.348	7675.1
481.553	7791.84
481.757	7658.72
481.961	7601.38
482.166	7773.41
482.37	7709.92
482.574	7584.99
482.778	7609.57
482.983	7914.72
483.187	7783.65
483.391	7689.44
483.595	7775.45
483.8	7472.36
484.004	7613.67
484.208	7634.14
484.412	7515.36
484.616	7613.67
484.821	7445.73
485.025	7556.32
485.229	7660.77
485.433	7619.81
485.637	7519.46
485.841	7630.05
486.045	7619.81
486.249	7621.86
486.453	7601.38
486.657	7367.91
486.861	7914.72
487.065	7531.75
487.269	7410.92
487.473	7548.13
487.677	7640.29
487.881	7797.98
488.085	7611.62
488.289	7853.28
488.493	7738.59
488.697	7730.4
488.901	7744.74
489.105	7697.63
489.309	7607.52
489.512	7671.01
489.716	7613.67
489.92	7765.21
490.124	7630.05
490.328	7890.14
490.531	7722.21
490.735	7857.37
490.939	7980.25
491.143	7802.08
491.346	7742.69
491.55	7972.06
491.754	7879.9
491.958	8013.02
492.161	7916.76
492.365	8119.51
492.569	8000.73
492.772	8060.12
492.976	8039.64
493.18	8166.62
493.383	8191.19
493.587	8412.37
493.79	8379.61
493.994	8293.59
494.197	8520.92
494.401	8445.14
494.605	8586.45
494.808	8482
495.012	8731.86
495.215	8750.29
495.419	8725.71
495.622	8709.33
495.825	8824.01
496.029	8848.59
496.232	9026.76
496.436	8867.02
496.639	9198.79
496.843	9182.41
497.046	9311.43
497.249	9276.62
497.453	9497.8
497.656	9716.93
497.859	9804.99
498.063	9770.18
498.266	9868.48
498.469	9782.46
498.673	9823.42
498.876	9981.12
499.079	10161.34
499.282	10060.99
499.485	10396.85
499.689	10409.14
499.892	10466.49
500.095	10611.89
500.298	10988.72
500.501	10777.78
500.705	11021.49
500.908	11089.07
501.111	11105.45
501.314	11277.48
501.517	11504.81
501.72	11590.82
501.923	11361.45
502.126	11895.97
502.329	12010.65
502.532	12000.41
502.735	12209.31
502.938	12487.83
503.141	12536.98
503.344	12723.35
503.547	12676.24
503.75	12825.75
503.953	13188.24
504.156	12983.44
504.359	13239.44
504.562	13347.98
504.765	13577.35
504.968	13900.93
505.17	13968.51
505.373	13804.67
505.576	14027.9
505.779	14124.16
505.982	14294.14
506.185	14578.81
506.387	14728.31
506.59	14621.81
506.793	14924.91
506.996	15266.92
507.198	15606.89
507.401	15373.42
507.604	15592.55
507.807	15697
508.009	15858.79
508.212	15981.67
508.415	16258.14
508.617	16637.02
508.82	16378.97
509.022	16462.94
509.225	16856.15
509.428	16856.15
509.63	17138.77
509.833	17437.77
510.035	17734.73
510.238	17501.26
510.44	17640.52
510.643	17859.65
510.845	18351.17
511.048	18009.15
511.25	18424.89
511.453	18379.84
511.655	19031.09
511.858	18768.95
512.06	19225.65
512.262	19174.45
512.465	19268.66
512.667	19436.59
512.87	19917.86
513.072	19770.41
513.274	19956.77
513.477	20194.34
513.679	20425.76
513.881	20550.68
514.084	20700.19
514.286	20808.73
514.488	21148.69
514.69	21386.26
514.893	21543.95
515.095	21584.91
515.297	21744.65
515.499	21877.77
515.701	22356.99
515.904	22252.55
516.106	22778.87
516.308	22922.23
516.51	23018.49
516.712	23118.84
516.914	23481.33
517.116	23520.24
517.318	23561.2
517.52	23682.03
517.722	23765.99
517.925	24062.95
518.127	24556.51
518.329	24800.22
518.531	24503.26
518.733	25048.02
518.935	25037.78
519.136	25170.9
519.338	25228.24
519.54	25787.34
519.742	25680.85
519.944	25971.66
520.146	26633.15
520.348	26702.78
520.55	26137.54
520.752	26592.19
520.954	27091.9
521.155	27093.94
521.357	27399.09
521.559	27378.61
521.761	27870.12
521.963	27794.35
522.164	27841.45
522.366	28269.48
522.568	28298.15
522.77	28400.55
522.971	29076.38
523.173	28738.46
523.375	29143.96
523.576	28973.98
523.778	28855.2
523.98	29154.2
524.181	29625.23
524.383	29651.86
524.584	29496.21
524.786	30172.04
524.988	29674.38
525.189	30165.9
525.391	30337.93
525.592	30364.55
525.794	30534.53
525.995	30604.16
526.197	30374.79
526.398	30425.99
526.6	30622.59
526.801	31122.3
527.003	31144.83
527.204	31269.75
527.406	31593.33
527.607	31325.05
527.808	31974.25
528.01	31036.28
528.211	31341.43
528.412	32207.72
528.614	31994.73
528.815	32039.79
529.016	32203.63
529.218	31798.13
529.419	32207.72
529.62	32066.41
529.822	31900.53
530.023	32357.22
530.224	32191.34
530.425	32398.18
530.626	32033.64
530.828	32156.52
531.029	32760.67
531.23	32351.08
531.431	32426.85
531.632	32467.81
531.833	32625.51
532.035	32523.11
532.236	32703.33
532.437	32971.61
532.638	32615.27
532.839	32797.54
533.04	33065.82
533.241	32142.19
533.442	33170.27
533.643	32793.44
533.844	32635.75
534.045	32901.98
534.246	32437.09
534.447	32916.32
534.648	32625.51
534.849	32924.51
535.05	32881.5
535.251	33276.76
535.451	32754.53
535.652	32971.61
535.853	32742.24
536.054	32658.27
536.255	32951.13
536.456	32742.24
536.657	33260.38
536.857	32678.75
537.058	32605.03
537.259	33313.62
537.46	33057.63
537.66	33002.33
537.861	32797.54
538.062	32803.68
538.263	32912.22
538.463	33172.32
538.664	32740.19
538.865	32899.94
539.065	33069.92
539.266	32760.67
539.466	33407.83
539.667	32666.47
539.868	33071.96
540.068	32877.41
540.269	32957.28
540.469	32822.11
540.67	32686.95
540.87	33137.5
541.071	32641.89
541.271	32766.82
541.472	32883.55
541.672	32338.79
541.873	32807.78
542.073	32299.88
542.274	33104.73
542.474	32805.73
542.675	32740.19
542.875	32654.18
543.075	32766.82
543.276	32535.4
543.476	32848.74
543.676	32588.64
543.877	33045.34
544.077	32772.96
544.277	32279.4
544.478	32846.69
544.678	32904.03
544.878	32742.24
545.078	33006.43
545.279	32543.59
545.479	32611.17
545.679	32736.1
545.879	32605.03
546.079	32672.61
546.28	32854.88
546.48	32314.22
546.68	32789.34
546.88	32338.79
547.08	32740.19
547.28	32678.75
547.48	32441.19
547.68	32662.37
547.88	31998.83
548.081	32523.11
548.281	32688.99
548.481	32338.79
548.681	32338.79
548.881	32412.52
549.081	32455.53
549.28	32265.06
549.48	32519.01
549.68	32299.88
549.88	32897.89
550.08	32072.56
550.28	32369.51
550.48	32066.41
550.68	32418.66
550.88	31988.59
551.08	32140.14
551.279	32246.63
551.479	31785.84
551.679	32322.41
551.879	32197.48
552.079	32322.41
552.278	32193.39
552.478	32316.26
552.678	32195.43
552.878	32279.4
553.077	31949.68
553.277	31939.44
553.477	32310.12
553.676	32103.28
553.876	32291.69
554.076	32035.69
554.275	31720.31
554.475	31933.29
554.674	31994.73
554.874	32084.84
555.074	31873.9
555.273	32052.08
555.473	31994.73
555.672	32056.17
555.872	31736.69
556.071	31699.83
556.271	32029.55
556.47	31785.84
556.67	31662.96
556.869	31652.72
557.068	31763.31
557.268	31484.79
557.467	31753.07
557.667	31529.84
557.866	31613.81
558.065	31613.81
558.265	31265.66
558.464	31177.59
558.663	31548.28
558.863	31325.05
559.062	31908.72
559.261	31239.03
559.461	31452.02
559.66	30974.84
559.859	31050.62
560.058	30780.29
560.258	31445.88
560.457	30991.23
560.656	30882.69
560.855	30557.06
561.054	31142.78
561.253	30657.41
561.453	31148.92
561.652	30901.12
561.851	31036.28
562.05	30534.53
562.249	30262.15
562.448	30782.34
562.647	30729.09
562.846	30538.63
563.045	30718.85
563.244	30573.44
563.443	30591.87
563.642	30174.09
563.841	30458.76
564.04	30083.98
564.239	30559.11
564.438	30057.35
564.637	30155.66
564.836	30157.71
565.035	29989.77
565.234	30180.23
565.432	29858.7
565.631	29684.62
565.83	29934.48
566.029	29690.77
566.228	29424.53
566.427	29598.61
566.625	29477.78
566.824	29135.77
567.023	29713.3
567.222	29115.29
567.42	29744.02
567.619	29639.57
567.818	29660.05
568.016	29305.75
568.215	29631.38
568.414	29311.89
568.612	29588.37
568.811	29066.14
569.01	29154.2
569.208	28349.35
569.407	28683.17
569.605	28439.46
569.804	28838.81
570.002	28775.33
570.201	28578.72
570.4	28595.1
570.598	28464.03
570.797	28494.75
570.995	28412.84
571.193	28230.57
571.392	28744.61
571.59	28134.31
571.789	28255.14
571.987	28347.3
572.186	28023.72
572.384	27640.75
572.582	28210.09
572.781	27911.08
572.979	27491.25
573.177	27886.51
573.376	28042.15
573.574	27368.37
573.772	27894.7
573.971	27339.7
574.169	27358.13
574.367	27300.79
574.565	27462.58
574.763	27511.73
574.962	27120.57
575.16	26934.2
575.358	27325.36
575.556	26584
575.754	27538.35
575.952	26784.7
576.151	26985.4
576.349	26497.99
576.547	27095.99
576.745	26710.97
576.943	26571.71
577.141	26592.19
577.339	26737.6
577.537	26309.57
577.735	26196.93
577.933	26282.95
578.131	26385.35
578.329	26348.48
578.527	25877.45
578.725	25965.51
578.923	26528.7
579.121	26102.73
579.319	25957.32
579.516	26061.77
579.714	26180.55
579.912	25791.44
580.11	25803.72
580.308	25590.73
580.506	25424.85
580.704	25318.35
580.901	25578.45
581.099	25582.54
581.297	25306.07
581.495	25166.81
581.692	25447.38
581.89	25158.61
582.088	25480.14
582.285	25172.95
582.483	25103.32
582.681	25369.55
582.878	24691.68
583.076	24941.53
583.274	24959.96
583.471	24509.41
583.669	24732.64
583.866	24259.56
584.064	24882.14
584.262	24226.79
584.459	24636.38
584.657	24257.51
584.854	24458.21
585.052	24189.92
585.249	24210.4
585.447	24493.02
585.644	23716.84
585.841	23929.83
586.039	23905.26
586.236	23651.31
586.434	24081.38
586.631	23817.19
586.828	23854.06
587.026	23813.1
587.223	23587.82
587.42	23530.48
587.618	23366.64
587.815	23133.17
588.012	23026.68
588.21	23385.07
588.407	23448.56
588.604	23200.76
588.801	22877.18
588.999	23133.17
589.196	22684.67
589.393	22879.22
589.59	23030.77
589.787	22770.68
589.984	22498.3
590.182	22381.57
590.379	22631.42
590.576	22313.98
590.773	22404.1
590.97	22502.4
591.167	22701.05
591.364	22101
591.561	22209.54
591.758	22047.75
591.955	21873.67
592.152	21865.48
592.349	22078.47
592.546	22178.82
592.743	21931.01
592.94	21662.73
593.137	21586.96
593.334	21480.46
593.531	21201.94
593.727	21720.07
593.924	21550.09
594.121	21459.98
594.318	21486.61
594.515	21105.68
594.712	21478.41
594.908	21267.47
595.105	21175.31
595.302	21077.01
595.499	21009.43
595.696	20888.6
595.892	20921.37
596.089	21167.12
596.286	21259.28
596.482	20634.65
596.679	20720.67
596.876	20757.53
597.072	20489.24
597.269	20612.12
597.466	20610.07
597.662	20268.06
597.859	20175.91
598.055	20319.26
598.252	20114.47
598.448	20175.91
598.645	19848.23
598.841	19907.62
599.038	20245.54
599.234	20063.27
599.431	19936.29
599.627	19811.37
599.824	20028.45
600.02	19477.55
600.217	19856.42
600.413	19665.96
600.609	19536.94
600.806	19485.74
601.002	19348.53
601.198	19309.61
601.395	19199.02
601.591	19362.86
601.787	18945.08
601.984	19139.63
602.18	19127.35
602.376	19096.63
602.572	18820.15
602.769	18947.12
602.965	18519.1
603.161	18986.04
603.357	18799.67
603.553	18752.57
603.75	18773.05
603.946	18369.6
604.142	18775.09
604.338	18660.41
604.534	18684.98
604.73	18355.26
604.926	18195.52
605.122	18271.29
605.318	18388.03
605.514	18236.48
605.71	18199.62
605.906	17968.2
606.102	18064.45
606.298	18109.51
606.494	17617.99
606.69	17857.6
606.886	17962.05
607.082	17579.08
607.278	17794.12
607.474	17396.81
607.67	17769.54
607.866	17452.11
608.062	17906.76
608.257	17495.11
608.453	17749.06
608.649	17540.17
608.845	17405
609.041	17265.74
609.236	17382.48
609.432	17083.47
609.628	17208.4
609.824	17259.6
610.019	17214.54
610.215	17050.71
610.411	17106
610.606	16991.31
610.802	16997.46
610.998	17214.54
611.193	16827.48
611.389	16960.59
611.584	17179.73
611.78	16624.73
611.976	17108.05
612.171	16766.04
612.367	16968.79
612.562	16915.54
612.758	16575.58
612.953	16673.88
613.149	16737.37
613.344	16327.77
613.539	16958.55
613.735	16311.39
613.93	16544.86
614.126	16428.12
614.321	16567.38
614.517	16526.43
614.712	16471.13
614.907	16368.73
615.103	16411.74
615.298	16174.17
615.493	16649.3
615.688	16288.86
615.884	16348.25
616.079	16020.58
616.274	16127.07
616.47	16213.09
616.665	16202.85
616.86	16090.21
617.055	15985.76
617.25	16219.23
617.445	16036.96
617.641	15690.85
617.836	16229.47
618.031	15754.34
618.226	15914.08
618.421	15666.28
618.616	15795.3
618.811	15486.06
619.006	15873.12
619.201	15567.98
619.396	15629.41
619.591	15092.85
619.786	15551.59
619.981	15115.37
620.176	15258.73
620.371	15232.11
620.566	15275.12
620.761	15029.36
620.956	15240.3
621.151	14898.29
621.346	15111.28
621.541	14771.32
621.735	14992.5
621.93	14709.88
622.125	14695.54
622.32	14417.02
622.515	14642.29
622.709	14421.11
622.904	14158.97
623.099	14314.62
623.294	14359.67
623.488	14011.52
623.683	14181.5
623.878	13978.75
624.072	13837.44
624.267	14007.42
624.462	13667.46
624.656	13747.33
624.851	13511.82
625.046	13753.48
625.24	13368.46
625.435	13694.08
625.629	13223.05
625.824	13550.73
626.018	13178
626.213	13053.07
626.407	13311.11
626.602	13057.17
626.796	12758.16
626.991	12842.13
627.185	12788.88
627.38	12674.2
627.574	12686.48
627.768	12582.04
627.963	12772.5
628.157	12278.94
628.352	12518.55
628.546	12305.56
628.74	12176.54
628.935	12108.96
629.129	11992.22
629.323	12131.48
629.517	11998.37
629.712	12004.51
629.906	11988.13
630.1	11713.7
630.294	11852.96
630.489	11695.27
630.683	11631.78
630.877	11703.46
631.071	11599.01
631.265	11463.85
631.459	11336.87
631.653	11367.59
631.848	11369.64
632.042	11234.47
632.236	11068.59
632.43	11064.49
632.624	11144.36
632.818	10869.94
633.012	10865.84
633.206	10771.63
633.4	10910.89
633.594	10663.09
633.788	10820.78
633.982	10824.88
634.176	10820.78
634.369	10609.84
634.563	10546.36
634.757	10478.77
634.951	10507.44
635.145	10312.89
635.339	10300.6
635.533	10110.14
635.726	10357.94
635.92	9956.54
636.114	10114.24
636.308	10093.76
636.501	10075.32
636.695	10030.27
636.889	9993.4
637.083	9831.62
637.276	9839.81
637.47	9645.25
637.664	9759.94
637.857	9612.48
638.051	9608.39
638.244	9671.87
638.438	9487.56
638.632	9487.56
638.825	9364.68
639.019	9245.9
639.212	9282.76
639.406	9280.71
639.599	9155.79
639.793	9026.76
639.986	8907.98
640.18	8991.95
640.373	9096.39
640.567	8867.02
640.76	8842.45
640.954	8805.58
641.147	8838.35
641.34	8731.86
641.534	8797.39
641.727	8703.18
641.92	8727.76
642.114	8455.38
642.307	8332.5
642.5	8430.8
642.694	8459.48
642.887	8535.25
643.08	8244.44
643.273	8398.04
643.467	8363.22
643.66	8215.77
643.853	8273.11
644.046	8279.25
644.239	8160.47
644.432	7982.3
644.626	7931.1
644.819	8008.92
645.012	7953.63
645.205	8070.36
645.398	7845.09
645.591	7812.32
645.784	7918.81
645.977	7640.29
646.17	7689.44
646.363	7593.19
646.556	7683.3
646.749	7527.65
646.942	7488.74
647.135	7646.43
647.328	7437.54
647.521	7490.79
647.714	7451.88
647.907	7261.41
648.099	7337.19
648.292	7329
648.485	7238.89
648.678	7189.74
648.871	7191.78
649.064	7343.33
649.256	7156.97
649.449	6958.32
649.642	7101.67
649.835	7079.15
650.027	6962.41
650.22	7036.14
650.413	6771.95
650.605	6831.34
650.798	6726.89
650.991	6737.13
651.183	6765.81
651.376	6741.23
651.568	6710.51
651.761	6776.05
651.954	6638.83
652.146	6683.89
652.339	6495.47
652.531	6460.66
652.724	6421.75
652.916	6339.83
653.109	6309.11
653.301	6309.11
653.494	6565.11
653.686	6221.05
653.879	6311.16
654.071	6298.87
654.263	6216.95
654.456	6325.49
654.648	6309.11
654.84	6022.39
655.033	6151.42
655.225	6085.88
655.417	6175.99
655.61	5989.63
655.802	5967.1
655.994	5881.08
656.186	5758.21
656.379	5942.52
656.571	5938.43
656.763	5911.8
656.955	5879.04
657.148	5950.71
657.34	5770.49
657.532	5766.4
657.724	5557.5
657.916	5571.84
658.108	5557.5
658.3	5561.6
658.492	5674.24
658.684	5395.72
658.876	5532.93
659.068	5485.83
659.26	5506.31
659.452	5485.83
659.644	5373.19
659.836	5461.25
660.028	5213.45
660.22	5182.73
660.412	5334.28
660.604	5221.64
660.796	5291.27
660.988	5113.1
661.18	5246.21
661.372	5160.2
661.563	5221.64
661.755	5086.47
661.947	5065.99
662.139	5100.81
662.331	5137.67
662.522	4986.12
662.714	4859.15
662.906	4840.72
663.097	4748.56
663.289	4863.24
663.481	4992.27
663.673	4760.84
663.864	4855.05
664.056	4898.06
664.247	4932.87
664.439	4760.84
664.631	4717.84
664.822	4678.93
665.014	4623.63
665.205	4535.57
665.397	4523.28
665.588	4723.98
665.78	4496.66
665.971	4640.01
666.163	4551.95
666.354	4584.72
666.546	4562.19
666.737	4513.04
666.929	4631.82
667.12	4398.35
667.311	4453.65
667.503	4332.82
667.694	4343.06
667.885	4357.39
668.077	4490.51
668.268	4232.47
668.459	4285.72
668.651	4293.91
668.842	4310.29
669.033	4173.08
669.224	4263.19
669.416	4209.94
669.607	4291.86
669.798	4269.33
669.989	4238.61
670.18	4230.42
670.371	4203.8
670.563	4089.11
670.754	4097.3
670.945	4093.21
671.136	4097.3
671.327	4203.8
671.518	4015.38
671.709	4076.82
671.9	4027.67
672.091	4099.35
672.282	4033.82
672.473	3845.4
672.664	4093.21
672.855	4009.24
673.046	3910.94
673.237	3949.85
673.428	3968.28
673.619	3923.23
673.809	3892.51
674	3869.98
674.191	3902.75
674.382	3804.44
674.573	3796.25
674.764	3831.07
674.954	3839.26
675.145	3847.45
675.336	3812.64
675.527	3716.38
675.717	3718.43
675.908	3579.17
676.099	3734.81
676.289	3734.81
676.48	3575.07
676.671	3683.61
676.861	3706.14
677.052	3681.57
677.243	3560.74
677.433	3532.06
677.624	3689.76
677.814	3681.57
678.005	3624.22
678.195	3722.52
678.386	3628.32
678.576	3579.17
678.767	3542.3
678.957	3620.13
679.148	3687.71
679.338	3581.21
679.529	3603.74
679.719	3525.92
679.909	3517.73
680.1	3425.57
680.29	3507.49
680.481	3536.16
680.671	3540.26
680.861	3409.19
681.052	3484.96
681.242	3554.59
681.432	3603.74
681.622	3433.76
681.813	3296.55
682.003	3523.87
682.193	3378.47
682.383	3474.72
682.573	3357.99
682.764	3370.27
682.954	3403.04
683.144	3386.66
683.334	3423.52
683.524	3261.73
683.714	3353.89
683.904	3337.51
684.094	3360.03
684.284	3400.99
684.474	3210.53
684.664	3304.74
684.854	3231.01
685.044	3251.49
685.234	3239.2
685.424	3241.25
685.614	3269.92
685.804	3190.05
685.994	3190.05
686.184	3198.24
686.374	3169.57
686.564	3216.68
686.753	3292.45
686.943	3015.98
687.133	3138.85
687.323	3048.74
687.513	3097.89
687.702	2991.4
687.892	2956.58
688.082	3093.8
688.272	3028.26
688.461	2987.3
688.651	3112.23
688.841	2919.72
689.03	2991.4
689.22	2874.67
689.41	3063.08
689.599	2817.32
689.789	2876.71
689.979	2905.39
690.168	2929.96
690.358	2919.72
690.547	2825.51
690.737	2745.64
690.926	2819.37
691.116	2827.56
691.305	2893.1
691.495	2712.88
691.684	2757.93
691.874	2876.71
692.063	2653.48
692.252	2745.64
692.442	2624.81
692.631	2686.25
692.82	2706.73
693.01	2585.9
693.199	2657.58
693.388	2667.82
693.578	2669.87
693.767	2676.01
693.956	2616.62
694.146	2573.61
694.335	2508.08
694.524	2530.61
694.713	2587.95
694.902	2528.56
695.092	2635.05
695.281	2458.93
695.47	2493.74
695.659	2514.22
695.848	2489.65
696.037	2479.41
696.226	2372.91
696.415	2489.65
696.604	2354.48
696.793	2420.02
696.982	2448.69
697.171	2393.39
697.36	2393.39
697.549	2391.34
697.738	2276.66
697.927	2243.89
698.116	2434.35
698.305	2325.81
698.494	2381.1
698.683	2377.01
698.872	2252.08
699.061	2319.67
699.25	2278.71
699.438	2211.12
699.627	2254.13
699.816	2411.82
700.005	2313.52
700.193	2264.37
700.382	2350.39
700.571	2133.3
700.76	2307.38
700.948	2331.95
701.137	2309.43
701.326	2329.91
701.514	2151.73
701.703	2309.43
701.892	2260.27
702.08	2254.13
702.269	2243.89
702.457	2137.4
702.646	2254.13
702.834	2245.94
703.023	2133.3
703.212	2176.31
703.4	2137.4
703.589	2170.16
703.777	2250.03
703.965	2157.88
704.154	2278.71
704.342	2108.73
704.531	2127.16
704.719	2184.5
704.907	2194.74
705.096	2229.56
705.284	2094.39
705.472	2125.11
705.661	2145.59
705.849	2139.44
706.037	2161.97
706.226	2104.63
706.414	2147.64
706.602	2037.05
706.79	2170.16
706.979	2176.31
707.167	2127.16
707.355	2133.3
707.543	2131.25
707.731	2080.05
707.919	2116.92
708.107	2190.64
708.296	2225.46
708.484	2229.56
708.672	2166.07
708.86	2178.36
709.048	2219.32
709.236	2133.3
709.424	2172.21
709.612	2309.43
709.8	2227.51
709.988	2194.74
710.176	2198.84
710.364	2114.87
710.551	2182.45
710.739	2104.63
710.927	2174.26
711.115	2149.68
711.303	2143.54
711.491	2112.82
711.679	2190.64
711.866	2067.77
712.054	2164.02
712.242	2110.77
712.43	2282.8
712.617	2131.25
712.805	2194.74
712.993	2186.55
713.181	2118.97
713.368	2141.49
713.556	2129.2
713.744	2241.84
713.931	2323.76
714.119	2168.12
714.306	2166.07
714.494	2262.32
714.682	2118.97
714.869	2094.39
715.057	2116.92
715.244	2088.25
715.432	2204.98
715.619	2311.47
715.807	2215.22
715.994	2186.55
716.182	2102.58
716.369	2297.14
716.556	2190.64
716.744	2182.45
716.931	2260.27
717.119	2274.61
717.306	2131.25
717.493	2223.41
717.681	2272.56
717.868	2293.04
718.055	2180.4
718.242	2243.89
718.43	2196.79
718.617	2258.23
718.804	2075.96
718.991	2301.23
719.179	2278.71
719.366	2239.8
719.553	2346.29
719.74	2207.03
719.927	2237.75
720.114	2188.6
720.301	2200.88
720.488	2245.94
720.676	2225.46
720.863	2313.52
721.05	2233.65
721.237	2334
721.424	2327.86
721.611	2329.91
721.798	2325.81
721.985	2172.21
722.172	2252.08
722.358	2290.99
722.545	2297.14
722.732	2317.62
722.919	2297.14
723.106	2272.56
723.293	2352.43
723.48	2405.68
723.667	2215.22
723.853	2272.56
724.04	2383.15
724.227	2338.1
724.414	2381.1
724.6	2225.46
724.787	2463.02
724.974	2313.52
725.161	2243.89
725.347	2288.95
725.534	2262.32
725.72	2274.61
725.907	2379.06
726.094	2377.01
726.28	2282.8
726.467	2262.32
726.653	2327.86
726.84	2254.13
727.027	2319.67
727.213	2354.48
727.4	2352.43
727.586	2370.87
727.773	2350.39
727.959	2235.7
728.145	2282.8
728.332	2336.05
728.518	2397.49
728.705	2293.04
728.891	2385.2
729.077	2321.71
729.264	2346.29
729.45	2299.19
729.636	2448.69
729.823	2319.67
730.009	2336.05
730.195	2436.4
730.382	2370.87
730.568	2372.91
730.754	2411.82
730.94	2444.59
731.126	2352.43
731.313	2354.48
731.499	2389.3
731.685	2413.87
731.871	2307.38
732.057	2290.99
732.243	2366.77
732.429	2346.29
732.615	2434.35
732.801	2327.86
732.987	2301.23
733.173	2487.6
733.359	2450.74
733.545	2334
733.731	2315.57
733.917	2315.57
734.103	2329.91
734.289	2350.39
734.475	2311.47
734.661	2354.48
734.847	2391.34
735.033	2325.81
735.219	2411.82
735.404	2338.1
735.59	2274.61
735.776	2280.75
735.962	2307.38
736.148	2325.81
736.333	2329.91
736.519	2319.67
736.705	2362.67
736.89	2340.15
737.076	2334
737.262	2166.07
737.447	2266.42
737.633	2374.96
737.819	2309.43
738.004	2186.55
738.19	2338.1
738.375	2243.89
738.561	2385.2
738.747	2266.42
738.932	2284.85
739.118	2299.19
739.303	2387.25
739.489	2211.12
739.674	2198.84
739.859	2215.22
740.045	2223.41
740.23	2338.1
740.416	2114.87
740.601	2239.8
740.786	2157.88
740.972	2280.75
741.157	2202.93
741.342	2215.22
741.528	2131.25
741.713	2262.32
741.898	2256.18
742.084	2157.88
742.269	2200.88
742.454	2037.05
742.639	2149.68
742.824	2213.17
743.01	2030.9
743.195	2295.09
743.38	2129.2
743.565	2170.16
743.75	2241.84
743.935	2098.49
744.12	2065.72
744.305	2166.07
744.49	2039.09
744.675	1991.99
744.86	2006.33
745.045	2053.43
745.23	2086.2
745.415	1981.75
745.6	1948.98
745.785	2020.66
745.97	2024.76
746.155	1922.36
746.34	2102.58
746.525	2075.96
746.71	1889.59
746.895	1953.08
747.079	1963.32
747.264	1998.13
747.449	1928.5
747.634	1885.5
747.819	2051.38
748.003	1914.17
748.188	1830.2
748.373	1854.78
748.557	1881.4
748.742	1856.83
748.927	1842.49
749.111	1785.15
749.296	1809.72
749.481	1760.57
749.665	1848.63
749.85	1742.14
750.034	1801.53
750.219	1754.43
750.404	1672.51
750.588	1764.67
750.773	1707.32
750.957	1746.23
751.141	1682.75
751.326	1715.52
751.51	1830.2
751.695	1748.28
751.879	1586.49
752.064	1563.97
752.248	1641.79
752.432	1670.46
752.617	1676.6
752.801	1611.07
752.985	1658.17
753.17	1611.07
753.354	1592.64
753.538	1504.57
753.722	1508.67
753.907	1475.9
754.091	1514.81
754.275	1504.57
754.459	1527.1
754.643	1490.24
754.828	1520.96
755.012	1473.85
755.196	1445.18
755.38	1408.32
755.564	1385.79
755.748	1469.76
755.932	1436.99
756.116	1412.42
756.3	1436.99
756.484	1330.5
756.668	1441.09
756.852	1404.22
757.036	1318.21
757.22	1375.55
757.404	1344.83
757.588	1307.97
757.772	1324.35
757.956	1398.08
758.14	1324.35
758.323	1307.97
758.507	1307.97
758.691	1242.43
758.875	1281.35
759.059	1289.54
759.242	1291.59
759.426	1305.92
759.61	1236.29
759.794	1236.29
759.977	1221.95
760.161	1312.07
760.345	1279.3
760.528	1219.91
760.712	1187.14
760.895	1197.38
761.079	1221.95
761.263	1127.75
761.446	1201.48
761.63	1113.41
761.813	1109.32
761.997	1107.27
762.18	1172.8
762.364	1264.96
762.547	1025.35
762.731	1129.8
762.914	1142.08
763.098	1189.19
763.281	1056.07
763.464	1109.32
763.648	1080.64
763.831	1037.64
764.015	974.15
764.198	1072.45
764.381	1011.01
764.564	1113.41
764.748	1088.84
764.931	1115.46
765.114	990.53
765.297	1084.74
765.481	1125.7
765.664	933.19
765.847	1035.59
766.03	1060.17
766.213	1072.45
766.397	1058.12
766.58	992.58
766.763	1013.06
766.946	1109.32
767.129	1068.36
767.312	968.01
767.495	957.77
767.678	965.96
767.861	963.91
768.044	1084.74
768.227	1006.92
768.41	1006.92
768.593	1043.78
768.776	986.44
768.959	884.04
769.142	1004.87
769.324	986.44
769.507	879.94
769.69	1041.73
769.873	978.25
770.056	953.67
770.239	970.05
770.421	910.66
770.604	902.47
770.787	857.42
770.97	959.81
771.152	828.74
771.335	877.9
771.518	806.22
771.7	937.29
771.883	904.52
772.066	875.85
772.248	843.08
772.431	902.47
772.613	949.57
772.796	892.23
772.978	824.65
773.161	867.66
773.343	853.32
773.526	832.84
773.708	820.55
773.891	886.09
774.073	877.9
774.256	798.03
774.438	834.89
774.621	806.22
774.803	849.22
774.985	818.5
775.168	767.31
775.35	728.39
775.532	804.17
775.715	677.19
775.897	798.03
776.079	818.5
776.261	740.68
776.444	759.11
776.626	798.03
776.808	707.91
776.99	709.96
777.173	707.91
777.355	681.29
777.537	757.07
777.719	689.48
777.901	728.39
778.083	650.57
778.265	697.67
778.447	730.44
778.629	660.81
778.811	623.95
778.993	656.72
779.175	666.96
779.357	671.05
779.539	623.95
779.721	626
779.903	712.01
780.085	630.09
780.267	681.29
780.449	718.15
780.631	542.03
780.812	605.52
780.994	580.94
781.176	527.69
781.358	591.18
781.54	658.76
781.721	712.01
781.903	601.42
782.085	542.03
782.267	617.8
782.448	527.69
782.63	572.75
782.812	517.45
782.993	478.54
783.175	601.42
783.357	525.65
783.538	548.17
783.72	533.84
783.901	537.93
784.083	480.59
784.264	539.98
784.446	468.3
784.627	519.5
784.809	591.18
784.99	511.31
785.172	529.74
785.353	482.64
785.535	509.26
785.716	515.41
785.897	529.74
786.079	439.63
786.26	464.21
786.441	570.7
786.623	472.4
786.804	501.07
786.985	345.42
787.167	476.49
787.348	458.06
787.529	509.26
787.71	550.22
787.891	425.29
788.073	425.29
788.254	429.39
788.435	480.59
788.616	458.06
788.797	402.77
788.978	408.91
789.159	429.39
789.34	298.32
789.522	486.73
789.703	423.25
789.884	402.77
790.065	421.2
790.246	386.38
790.427	363.86
790.607	300.37
790.788	408.91
790.969	345.42
791.15	404.82
791.331	329.04
791.512	378.19
791.693	361.81
791.874	314.7
792.054	384.34
792.235	341.33
792.416	343.38
792.597	316.75
792.778	427.34
792.958	310.61
793.139	300.37
793.32	392.53
793.5	304.46
793.681	468.3
793.862	320.85
794.042	376.14
794.223	271.7
794.404	306.51
794.584	191.83
794.765	283.99
794.945	410.96
795.126	298.32
795.306	339.28
795.487	308.56
795.667	271.7
795.848	245.07
796.028	212.31
796.209	392.53
796.389	353.62
796.57	372.05
796.75	279.89
796.93	288.08
797.111	353.62
797.291	292.18
797.471	263.51
797.652	314.7
797.832	320.85
798.012	306.51
798.192	335.18
798.373	296.27
798.553	259.41
798.733	259.41
798.913	263.51
799.093	220.5
799.274	245.07
799.454	245.07
799.634	288.08
799.814	275.79
799.994	300.37
800.174	253.27
800.354	240.98
800.534	228.69
800.714	286.03
800.894	261.46
801.074	238.93
801.254	253.27
801.434	224.59
801.614	228.69
801.794	240.98
801.974	681.29
802.154	216.4
802.334	208.21
802.514	232.79
802.693	275.79
802.873	204.11
803.053	324.94
803.233	286.03
803.413	304.46
803.592	210.26
803.772	216.4
803.952	243.03
804.131	206.16
804.311	269.65
804.491	290.13
804.67	245.07
804.85	255.31
805.03	255.31
805.209	230.74
805.389	214.35
805.568	214.35
805.748	245.07
805.928	232.79
806.107	216.4
806.287	355.66
806.466	236.88
806.646	208.21
806.825	165.2
807.004	216.4
807.184	265.55
807.363	253.27
807.543	210.26
807.722	177.49
807.901	185.68
808.081	265.55
808.26	124.24
808.439	136.53
808.619	183.63
808.798	163.15
808.977	212.31
809.156	234.83
809.336	230.74
809.515	218.45
809.694	138.58
809.873	175.44
810.052	183.63
810.231	218.45
810.411	187.73
810.59	222.55
810.769	159.06
810.948	214.35
811.127	200.02
811.306	193.87
811.485	232.79
811.664	159.06
811.843	161.11
812.022	157.01
812.201	224.59
812.38	163.15
812.559	161.11
812.737	134.48
812.916	173.39
813.095	181.59
813.274	150.87
813.453	140.63
813.632	208.21
813.811	183.63
813.989	171.35
814.168	161.11
814.347	138.58
814.526	146.77
814.704	181.59
814.883	154.96
815.062	132.44
815.24	167.25
815.419	114
815.598	114
815.776	154.96
815.955	114
816.133	99.67
816.312	191.83
816.49	159.06
816.669	169.3
816.847	93.52
817.026	154.96
817.204	171.35
817.383	126.29
817.561	183.63
817.74	101.72
817.918	87.38
818.097	165.2
818.275	134.48
818.453	146.77
818.632	126.29
818.81	171.35
818.988	73.04
819.167	165.2
819.345	101.72
819.523	132.44
819.701	120.15
819.879	122.2
820.058	52.56
820.236	134.48
820.414	193.87
820.592	85.33
820.77	234.83
820.948	101.72
821.127	101.72
821.305	138.58
821.483	195.92
821.661	154.96
821.839	142.68
822.017	128.34
822.195	130.39
822.373	126.29
822.551	107.86
822.729	116.05
822.907	97.62
823.085	163.15
823.262	103.76
823.44	130.39
823.618	142.68
823.796	146.77
823.974	150.87
824.152	93.52
824.329	7.51
824.507	146.77
824.685	118.1
824.863	79.19
825.04	3.41
825.218	169.3
825.396	126.29
825.574	157.01
825.751	128.34
825.929	171.35
826.107	128.34
826.284	130.39
826.462	71
826.639	150.87
826.817	140.63
826.994	167.25
827.172	124.24
827.349	120.15
827.527	124.24
827.704	187.73
827.882	118.1
828.059	81.24
828.237	136.53
828.414	183.63
828.591	105.81
828.769	142.68
828.946	122.2
829.124	107.86
829.301	124.24
829.478	109.91
829.655	130.39
829.833	71
830.01	85.33
830.187	157.01
830.364	93.52
830.542	81.24
830.719	126.29
830.896	83.28
831.073	146.77
831.25	99.67
831.427	107.86
831.604	97.62
831.782	54.61
831.959	107.86
832.136	68.95
832.313	17.75
832.49	118.1
832.667	128.34
832.844	44.37
833.021	197.97
833.198	114
833.374	83.28
833.551	60.76
833.728	89.43
833.905	79.19
834.082	75.09
834.259	60.76
834.436	126.29
834.612	68.95
834.789	122.2
834.966	109.91
835.143	52.56
835.319	27.99
835.496	66.9
835.673	81.24
835.85	48.47
836.026	75.09
836.203	46.42
836.38	52.56
836.556	42.32
836.733	163.15
836.909	89.43
837.086	58.71
837.262	85.33
837.439	1.37
837.616	73.04
837.792	19.8
837.968	58.71
838.145	75.09
838.321	79.19
838.498	75.09
838.674	124.24
838.851	87.38
839.027	54.61
839.203	-8.87
839.38	93.52
839.556	40.28
839.732	71
839.909	126.29
840.085	77.14
840.261	60.76
840.437	52.56
840.614	32.08
840.79	93.52
840.966	83.28
841.142	17.75
841.318	64.85
841.494	-37.55
841.671	36.18
841.847	89.43
842.023	11.61
842.199	103.76
842.375	52.56
842.551	5.46
842.727	68.95
842.903	87.38
843.079	44.37
843.255	62.8
843.431	81.24
843.607	40.28
843.783	42.32
843.959	87.38
844.134	9.56
844.31	142.68
844.486	36.18
844.662	54.61
844.838	89.43
845.013	64.85
845.189	99.67
845.365	87.38
845.541	105.81
845.716	111.96
845.892	126.29
846.068	50.52
846.244	73.04
846.419	-0.68
846.595	68.95
846.77	60.76
846.946	109.91
847.122	40.28
847.297	11.61
847.473	111.96
847.648	13.65
847.824	122.2
847.999	48.47
848.175	42.32
848.35	66.9
848.526	44.37
848.701	64.85
848.876	-0.68
849.052	25.94
849.227	99.67
849.403	73.04
849.578	17.75
849.753	64.85
849.929	81.24
850.104	13.65
850.279	7.51
850.454	32.08
850.63	75.09
850.805	11.61
850.98	56.66
851.155	36.18
851.33	44.37
851.505	34.13
851.681	60.76
851.856	-12.97
852.031	-21.16
852.206	54.61
852.381	38.23
852.556	-2.73
852.731	71
852.906	75.09
853.081	25.94
853.256	93.52
853.431	-6.83
853.606	68.95
853.781	56.66
853.956	58.71
854.131	150.87
854.305	36.18
854.48	91.48
854.655	50.52
854.83	62.8
855.005	7.51
855.18	46.42
855.354	114
855.529	-2.73
855.704	60.76
855.879	-6.83
856.053	40.28
856.228	-25.26
856.403	97.62
856.577	66.9
856.752	13.65
856.926	-4.78
857.101	-74.41
857.276	111.96
857.45	7.51
857.625	48.47
857.799	52.56
857.974	36.18
858.148	32.08
858.323	44.37
858.497	75.09
858.672	40.28
858.846	19.8
859.02	91.48
859.195	21.85
859.369	-15.02
859.543	25.94
859.718	-58.03
859.892	-74.41
860.066	52.56
860.241	3.41
860.415	25.94
860.589	46.42
860.763	21.85
860.938	42.32
861.112	25.94
861.286	99.67
861.46	-15.02
861.634	1.37
861.808	60.76
861.982	21.85
862.157	23.89
862.331	-51.88
862.505	44.37
862.679	11.61
862.853	21.85
863.027	52.56
863.201	-4.78
863.375	-19.11
863.549	-19.11
863.722	19.8
863.896	87.38
864.07	23.89
864.244	30.04
864.418	52.56
864.592	5.46
864.766	27.99
864.939	-29.35
865.113	42.32
865.287	60.76
865.461	1.37
865.634	-2.73
865.808	19.8
865.982	7.51
866.156	-2.73
866.329	42.32
866.503	25.94
866.676	1.37
866.85	-15.02
867.024	52.56
867.197	34.13
867.371	83.28
867.544	21.85
867.718	-15.02
867.891	101.72
868.065	-39.59
868.238	-10.92
868.412	17.75
868.585	56.66
868.759	56.66
868.932	25.94
869.105	-33.45
869.279	-0.68
869.452	30.04
869.625	83.28
869.799	11.61
869.972	11.61
870.145	-49.83
870.319	-8.87
870.492	1.37
870.665	50.52
870.838	64.85
871.011	-2.73
871.185	30.04
871.358	85.33
871.531	52.56
871.704	-23.21
871.877	-4.78
872.05	-21.16
872.223	11.61
872.396	73.04
872.569	-12.97
872.742	-6.83
872.915	71
873.088	68.95
873.261	46.42
873.434	-123.56
873.607	23.89
873.78	44.37
873.953	-37.55
874.126	21.85
874.299	23.89
874.471	-27.31
874.644	13.65
874.817	77.14
874.99	64.85
875.163	-25.26
875.335	23.89
875.508	34.13
875.681	62.8
875.853	32.08
876.026	-8.87
876.199	32.08
876.371	-12.97
876.544	1.37
876.717	-4.78
876.889	11.61
877.062	48.47
877.234	-41.64
877.407	-6.83
877.579	66.9
877.752	27.99
877.924	23.89
878.097	64.85
878.269	11.61
878.442	27.99
878.614	-4.78
878.786	-25.26
878.959	15.7
879.131	1.37
879.303	-37.55
879.476	50.52
879.648	60.76
879.82	48.47
879.993	19.8
880.165	44.37
880.337	32.08
880.509	3.41
880.681	11.61
880.854	-25.26
881.026	85.33
881.198	101.72
881.37	-8.87
881.542	44.37
881.714	-41.64
881.886	27.99
882.058	44.37
882.23	-37.55
882.402	62.8
882.574	3.41
882.746	95.57
882.918	68.95
883.09	-55.98
883.262	38.23
883.434	30.04
883.606	1.37
883.778	-62.12
883.95	62.8
884.122	19.8
884.293	64.85
884.465	27.99
884.637	54.61
884.809	-15.02
884.98	85.33
885.152	87.38
885.324	79.19
885.496	-4.78
885.667	-23.21
885.839	-2.73
886.011	27.99
886.182	13.65
886.354	56.66
886.525	44.37
886.697	11.61
886.869	-29.35
887.04	13.65
887.212	52.56
887.383	23.89
887.555	11.61
887.726	-10.92
887.897	-15.02
888.069	58.71
888.24	-55.98
888.412	-31.4
888.583	56.66
888.754	27.99
888.926	9.56
889.097	27.99
889.268	-0.68
889.44	-0.68
889.611	50.52
889.782	21.85
889.953	25.94
890.125	7.51
890.296	-6.83
890.467	11.61
890.638	21.85
890.809	34.13
890.98	-29.35
891.151	3.41
891.323	3.41
891.494	21.85
891.665	17.75
891.836	11.61
892.007	1.37
892.178	-35.5
892.349	46.42
892.52	15.7
892.691	17.75
892.862	-10.92
893.032	-66.22
893.203	75.09
893.374	21.85
893.545	32.08
893.716	58.71
893.887	32.08
894.057	44.37
894.228	-17.07
894.399	-53.93
894.57	21.85
894.74	42.32
894.911	-41.64
895.082	25.94
895.253	-21.16
895.423	58.71
895.594	3.41
895.764	1.37
895.935	-29.35
896.106	42.32
896.276	19.8
896.447	-21.16
896.617	60.76
896.788	3.41
896.958	68.95
897.129	68.95
897.299	-6.83
897.47	32.08
897.64	7.51
897.81	27.99
897.981	9.56
898.151	-47.79
898.322	30.04
898.492	-4.78
898.662	3.41
898.832	-0.68
899.003	19.8
899.173	105.81
899.343	17.75
899.513	19.8
