Data from USB4F104151__24__11-36-35-207.txt Node

Date: Fri Mar 14 11:36:35 EDT 2025
User: louis
Spectrometer: USB4F10415
Trigger mode: 4
Integration Time (sec): 2.000000E-2
Scans to average: 1
Electric dark correction enabled: true
Nonlinearity correction enabled: false
Boxcar width: 0
XAxis mode: Wavelengths
Number of Pixels in Spectrum: 3648
>>>>>Begin Spectral Data<<<<<
178.204	-47.96
178.424	-47.96
178.644	-47.96
178.864	-99.16
179.084	-72.53
179.304	-39.76
179.524	-25.43
179.744	-45.91
179.964	44.2
180.184	29.87
180.404	-25.43
180.624	74.92
180.844	-21.33
181.064	-58.2
181.283	44.2
181.503	-39.76
181.723	62.63
181.943	3.24
182.163	-39.76
182.383	5.29
182.602	40.11
182.822	27.82
183.042	-52.05
183.262	74.92
183.482	76.97
183.701	-19.29
183.921	-35.67
184.141	46.25
184.361	-13.14
184.58	17.58
184.8	44.2
185.02	23.72
185.239	36.01
185.459	-37.72
185.679	19.63
185.898	-50
186.118	29.87
186.338	19.63
186.557	52.39
186.777	-56.15
186.997	-39.76
187.216	-82.77
187.436	105.64
187.655	62.63
187.875	27.82
188.095	-17.24
188.314	40.11
188.534	83.11
188.753	-41.81
188.973	-9.05
189.192	-25.43
189.412	46.25
189.631	-41.81
189.851	23.72
190.07	40.11
190.29	36.01
190.509	111.78
190.729	-23.38
190.948	33.96
191.168	85.16
191.387	5.29
191.607	-11.09
191.826	-50
192.045	36.01
192.265	-27.48
192.484	-25.43
192.704	50.35
192.923	-21.33
193.142	31.91
193.362	-13.14
193.581	42.15
193.8	60.59
194.02	-4.95
194.239	3.24
194.458	7.34
194.678	19.63
194.897	46.25
195.116	-50
195.335	74.92
195.555	-29.52
195.774	33.96
195.993	27.82
196.212	1.19
196.432	-31.57
196.651	-45.91
196.87	9.39
197.089	52.39
197.308	-39.76
197.528	-13.14
197.747	19.63
197.966	-31.57
198.185	113.83
198.404	3.24
198.623	-56.15
198.842	-13.14
199.062	58.54
199.281	17.58
199.5	-70.48
199.719	-103.25
199.938	-43.86
200.157	-70.48
200.376	36.01
200.595	36.01
200.814	48.3
201.033	-37.72
201.252	-9.05
201.471	3.24
201.69	-56.15
201.909	-37.72
202.128	9.39
202.347	50.35
202.566	-66.39
202.785	-41.81
203.004	-45.91
203.223	36.01
203.442	31.91
203.661	7.34
203.879	-29.52
204.098	25.77
204.317	-21.33
204.536	11.43
204.755	-25.43
204.974	-0.85
205.193	-2.9
205.411	5.29
205.63	21.67
205.849	31.91
206.068	54.44
206.287	-15.19
206.505	83.11
206.724	-54.1
206.943	27.82
207.162	62.63
207.381	7.34
207.599	48.3
207.818	27.82
208.037	-19.29
208.255	-37.72
208.474	31.91
208.693	-45.91
208.911	-13.14
209.13	-19.29
209.349	-7
209.567	3.24
209.786	76.97
210.005	-50
210.223	31.91
210.442	11.43
210.661	11.43
210.879	68.78
211.098	5.29
211.316	42.15
211.535	38.06
211.753	-23.38
211.972	25.77
212.191	-39.76
212.409	-7
212.628	21.67
212.846	17.58
213.065	27.82
213.283	38.06
213.502	-31.57
213.72	3.24
213.938	27.82
214.157	-2.9
214.375	-21.33
214.594	40.11
214.812	15.53
215.031	105.64
215.249	-31.57
215.467	-23.38
215.686	-52.05
215.904	13.48
216.122	-17.24
216.341	-13.14
216.559	19.63
216.778	74.92
216.996	15.53
217.214	-31.57
217.432	-68.44
217.651	11.43
217.869	44.2
218.087	15.53
218.306	25.77
218.524	-13.14
218.742	-78.68
218.96	107.69
219.179	-21.33
219.397	-41.81
219.615	56.49
219.833	27.82
220.051	44.2
220.27	50.35
220.488	42.15
220.706	42.15
220.924	-13.14
221.142	-23.38
221.36	-19.29
221.578	17.58
221.796	-43.86
222.015	36.01
222.233	9.39
222.451	95.4
222.669	46.25
222.887	-15.19
223.105	-111.44
223.323	-58.2
223.541	3.24
223.759	-9.05
223.977	-37.72
224.195	11.43
224.413	56.49
224.631	48.3
224.849	17.58
225.067	74.92
225.285	-74.58
225.503	-9.05
225.721	-54.1
225.939	27.82
226.157	33.96
226.375	48.3
226.592	31.91
226.81	17.58
227.028	-123.73
227.246	19.63
227.464	9.39
227.682	-17.24
227.9	25.77
228.117	-45.91
228.335	-2.9
228.553	15.53
228.771	5.29
228.989	66.73
229.206	-21.33
229.424	44.2
229.642	1.19
229.86	33.96
230.077	11.43
230.295	33.96
230.513	64.68
230.731	11.43
230.948	54.44
231.166	-9.05
231.384	107.69
231.601	48.3
231.819	3.24
232.037	-13.14
232.254	-80.72
232.472	-4.95
232.689	-39.76
232.907	23.72
233.125	-4.95
233.342	-88.92
233.56	97.45
233.777	-25.43
233.995	-60.24
234.213	70.83
234.43	-4.95
234.648	15.53
234.865	-11.09
235.083	-0.85
235.3	-33.62
235.518	-13.14
235.735	36.01
235.953	25.77
236.17	-17.24
236.388	9.39
236.605	-7
236.822	95.4
237.04	19.63
237.257	36.01
237.475	-33.62
237.692	15.53
237.909	76.97
238.127	-29.52
238.344	-15.19
238.562	25.77
238.779	31.91
238.996	1.19
239.214	29.87
239.431	-33.62
239.648	36.01
239.865	-23.38
240.083	-21.33
240.3	-2.9
240.517	3.24
240.735	13.48
240.952	33.96
241.169	7.34
241.386	36.01
241.603	7.34
241.821	7.34
242.038	-33.62
242.255	-21.33
242.472	42.15
242.689	17.58
242.907	3.24
243.124	-47.96
243.341	-21.33
243.558	-4.95
243.775	-19.29
243.992	-64.34
244.209	-17.24
244.426	3.24
244.643	21.67
244.86	-0.85
245.078	27.82
245.295	27.82
245.512	50.35
245.729	-21.33
245.946	44.2
246.163	11.43
246.38	27.82
246.597	21.67
246.814	-25.43
247.031	1.19
247.248	44.2
247.464	25.77
247.681	15.53
247.898	-13.14
248.115	-43.86
248.332	-19.29
248.549	25.77
248.766	19.63
248.983	50.35
249.2	11.43
249.417	-29.52
249.633	-37.72
249.85	60.59
250.067	-29.52
250.284	40.11
250.501	66.73
250.717	48.3
250.934	5.29
251.151	15.53
251.368	46.25
251.585	52.39
251.801	-33.62
252.018	93.35
252.235	11.43
252.451	13.48
252.668	-4.95
252.885	46.25
253.102	46.25
253.318	9.39
253.535	-43.86
253.752	-13.14
253.968	25.77
254.185	9.39
254.401	15.53
254.618	40.11
254.835	60.59
255.051	54.44
255.268	31.91
255.484	25.77
255.701	-7
255.917	-21.33
256.134	60.59
256.351	48.3
256.567	-99.16
256.784	17.58
257	-23.38
257.217	23.72
257.433	-25.43
257.65	-23.38
257.866	11.43
258.082	27.82
258.299	-9.05
258.515	79.02
258.732	-56.15
258.948	-17.24
259.165	31.91
259.381	7.34
259.597	50.35
259.814	-17.24
260.03	44.2
260.246	7.34
260.463	11.43
260.679	3.24
260.895	-17.24
261.112	5.29
261.328	1.19
261.544	-41.81
261.761	25.77
261.977	11.43
262.193	44.2
262.409	70.83
262.626	9.39
262.842	-25.43
263.058	15.53
263.274	38.06
263.49	-2.9
263.707	40.11
263.923	76.97
264.139	-23.38
264.355	11.43
264.571	93.35
264.787	-4.95
265.004	-13.14
265.22	11.43
265.436	-9.05
265.652	25.77
265.868	-29.52
266.084	-39.76
266.3	9.39
266.516	17.58
266.732	-50
266.948	-25.43
267.164	7.34
267.38	-25.43
267.596	36.01
267.812	-4.95
268.028	-35.67
268.244	11.43
268.46	-13.14
268.676	25.77
268.892	-11.09
269.108	38.06
269.324	3.24
269.54	-7
269.756	21.67
269.972	1.19
270.188	-56.15
270.403	-41.81
270.619	15.53
270.835	50.35
271.051	40.11
271.267	3.24
271.483	48.3
271.698	48.3
271.914	-31.57
272.13	48.3
272.346	66.73
272.562	15.53
272.777	-7
272.993	3.24
273.209	11.43
273.425	-15.19
273.64	13.48
273.856	9.39
274.072	-33.62
274.287	-47.96
274.503	68.78
274.719	11.43
274.934	-78.68
275.15	-76.63
275.366	-15.19
275.581	50.35
275.797	15.53
276.012	13.48
276.228	5.29
276.444	52.39
276.659	58.54
276.875	-80.72
277.09	48.3
277.306	15.53
277.521	3.24
277.737	-29.52
277.952	-13.14
278.168	56.49
278.383	-54.1
278.599	66.73
278.814	33.96
279.03	-37.72
279.245	60.59
279.461	83.11
279.676	44.2
279.892	11.43
280.107	-13.14
280.322	11.43
280.538	15.53
280.753	62.63
280.969	-4.95
281.184	25.77
281.399	50.35
281.615	15.53
281.83	3.24
282.045	27.82
282.26	-41.81
282.476	58.54
282.691	68.78
282.906	19.63
283.122	60.59
283.337	11.43
283.552	58.54
283.767	29.87
283.983	-7
284.198	15.53
284.413	33.96
284.628	-62.29
284.843	1.19
285.058	38.06
285.274	-41.81
285.489	7.34
285.704	9.39
285.919	-23.38
286.134	-17.24
286.349	50.35
286.564	40.11
286.779	64.68
286.995	17.58
287.21	-64.34
287.425	-19.29
287.64	-68.44
287.855	60.59
288.07	7.34
288.285	58.54
288.5	-13.14
288.715	46.25
288.93	54.44
289.145	-31.57
289.36	-39.76
289.575	56.49
289.79	3.24
290.004	-9.05
290.219	-17.24
290.434	52.39
290.649	7.34
290.864	11.43
291.079	-11.09
291.294	27.82
291.509	54.44
291.724	-39.76
291.938	-13.14
292.153	-13.14
292.368	-43.86
292.583	42.15
292.798	-0.85
293.012	7.34
293.227	-35.67
293.442	13.48
293.657	13.48
293.871	-2.9
294.086	31.91
294.301	15.53
294.516	60.59
294.73	-7
294.945	-19.29
295.16	27.82
295.374	91.31
295.589	-54.1
295.804	-62.29
296.018	72.87
296.233	64.68
296.447	40.11
296.662	1.19
296.877	3.24
297.091	-19.29
297.306	9.39
297.52	58.54
297.735	-7
297.949	1.19
298.164	46.25
298.378	-21.33
298.593	-13.14
298.807	29.87
299.022	36.01
299.236	48.3
299.451	44.2
299.665	44.2
299.88	-45.91
300.094	3.24
300.309	7.34
300.523	-2.9
300.737	81.07
300.952	17.58
301.166	-54.1
301.381	25.77
301.595	-21.33
301.809	5.29
302.024	38.06
302.238	-15.19
302.452	74.92
302.667	21.67
302.881	25.77
303.095	-7
303.309	-76.63
303.524	-25.43
303.738	36.01
303.952	46.25
304.166	-11.09
304.381	-23.38
304.595	23.72
304.809	1.19
305.023	-23.38
305.237	17.58
305.452	19.63
305.666	29.87
305.88	66.73
306.094	29.87
306.308	9.39
306.522	-4.95
306.736	68.78
306.95	21.67
307.164	5.29
307.379	-33.62
307.593	42.15
307.807	-54.1
308.021	1.19
308.235	-31.57
308.449	-27.48
308.663	33.96
308.877	-7
309.091	42.15
309.305	-21.33
309.519	-50
309.733	46.25
309.947	-70.48
310.161	23.72
310.374	-27.48
310.588	-23.38
310.802	-37.72
311.016	19.63
311.23	-0.85
311.444	-33.62
311.658	60.59
311.872	3.24
312.085	-23.38
312.299	36.01
312.513	68.78
312.727	40.11
312.941	-50
313.154	44.2
313.368	11.43
313.582	-13.14
313.796	36.01
314.009	29.87
314.223	-31.57
314.437	-13.14
314.651	38.06
314.864	50.35
315.078	27.82
315.292	-90.96
315.505	-13.14
315.719	68.78
315.933	-2.9
316.146	11.43
316.36	15.53
316.573	33.96
316.787	76.97
317.001	33.96
317.214	-27.48
317.428	42.15
317.641	1.19
317.855	-7
318.068	44.2
318.282	-62.29
318.495	-2.9
318.709	46.25
318.922	-35.67
319.136	74.92
319.349	9.39
319.563	15.53
319.776	13.48
319.99	21.67
320.203	76.97
320.417	-21.33
320.63	76.97
320.843	-33.62
321.057	83.11
321.27	-4.95
321.483	-0.85
321.697	46.25
321.91	58.54
322.124	66.73
322.337	64.68
322.55	-2.9
322.763	25.77
322.977	25.77
323.19	27.82
323.403	3.24
323.617	52.39
323.83	40.11
324.043	-21.33
324.256	68.78
324.469	56.49
324.683	44.2
324.896	33.96
325.109	9.39
325.322	64.68
325.535	7.34
325.748	-45.91
325.962	-45.91
326.175	17.58
326.388	5.29
326.601	-2.9
326.814	17.58
327.027	-0.85
327.24	48.3
327.453	44.2
327.666	60.59
327.879	15.53
328.092	56.49
328.305	64.68
328.518	23.72
328.731	9.39
328.944	-78.68
329.157	-7
329.37	7.34
329.583	19.63
329.796	25.77
330.009	42.15
330.222	3.24
330.435	44.2
330.648	44.2
330.861	-4.95
331.073	7.34
331.286	21.67
331.499	-2.9
331.712	23.72
331.925	-23.38
332.138	11.43
332.35	66.73
332.563	9.39
332.776	9.39
332.989	-62.29
333.202	15.53
333.414	3.24
333.627	-4.95
333.84	52.39
334.053	7.34
334.265	21.67
334.478	-0.85
334.691	81.07
334.903	-17.24
335.116	17.58
335.329	19.63
335.541	93.35
335.754	33.96
335.966	3.24
336.179	-9.05
336.392	-4.95
336.604	29.87
336.817	3.24
337.029	-25.43
337.242	27.82
337.454	-4.95
337.667	11.43
337.88	27.82
338.092	64.68
338.305	46.25
338.517	-17.24
338.729	-13.14
338.942	83.11
339.154	31.91
339.367	13.48
339.579	101.55
339.792	-47.96
340.004	3.24
340.217	-23.38
340.429	48.3
340.641	9.39
340.854	70.83
341.066	-78.68
341.278	17.58
341.491	25.77
341.703	29.87
341.915	1.19
342.128	66.73
342.34	-13.14
342.552	17.58
342.764	13.48
342.977	44.2
343.189	50.35
343.401	5.29
343.613	-27.48
343.826	25.77
344.038	-7
344.25	9.39
344.462	-19.29
344.674	11.43
344.886	-35.67
345.099	-15.19
345.311	31.91
345.523	46.25
345.735	25.77
345.947	-13.14
346.159	36.01
346.371	-4.95
346.583	1.19
346.795	25.77
347.007	52.39
347.219	23.72
347.431	27.82
347.643	48.3
347.855	-11.09
348.067	60.59
348.279	-78.68
348.491	-19.29
348.703	109.74
348.915	19.63
349.127	66.73
349.339	33.96
349.551	11.43
349.763	48.3
349.975	7.34
350.187	58.54
350.399	81.07
350.61	89.26
350.822	1.19
351.034	70.83
351.246	19.63
351.458	13.48
351.669	-41.81
351.881	-25.43
352.093	97.45
352.305	56.49
352.517	27.82
352.728	66.73
352.94	36.01
353.152	17.58
353.363	1.19
353.575	109.74
353.787	-29.52
353.999	-25.43
354.21	-33.62
354.422	50.35
354.633	-13.14
354.845	46.25
355.057	50.35
355.268	13.48
355.48	-15.19
355.692	11.43
355.903	-52.05
356.115	-7
356.326	-72.53
356.538	-11.09
356.749	-35.67
356.961	-4.95
357.172	60.59
357.384	-21.33
357.595	-17.24
357.807	66.73
358.018	5.29
358.23	13.48
358.441	58.54
358.653	70.83
358.864	9.39
359.075	-37.72
359.287	-31.57
359.498	31.91
359.709	-13.14
359.921	44.2
360.132	58.54
360.344	31.91
360.555	68.78
360.766	50.35
360.977	3.24
361.189	58.54
361.4	36.01
361.611	87.21
361.823	17.58
362.034	74.92
362.245	-50
362.456	11.43
362.667	52.39
362.879	-35.67
363.09	9.39
363.301	25.77
363.512	23.72
363.723	13.48
363.935	19.63
364.146	-62.29
364.357	-33.62
364.568	97.45
364.779	-4.95
364.99	76.97
365.201	-7
365.412	1.19
365.623	-45.91
365.834	-29.52
366.045	-50
366.256	-29.52
366.467	13.48
366.678	64.68
366.889	60.59
367.1	-15.19
367.311	46.25
367.522	25.77
367.733	15.53
367.944	87.21
368.155	-9.05
368.366	66.73
368.577	31.91
368.788	81.07
368.999	38.06
369.209	38.06
369.42	13.48
369.631	81.07
369.842	44.2
370.053	42.15
370.264	56.49
370.474	-11.09
370.685	3.24
370.896	-17.24
371.107	79.02
371.317	46.25
371.528	23.72
371.739	76.97
371.95	44.2
372.16	36.01
372.371	-13.14
372.582	64.68
372.792	42.15
373.003	38.06
373.214	44.2
373.424	64.68
373.635	-17.24
373.846	56.49
374.056	-39.76
374.267	31.91
374.477	42.15
374.688	-7
374.898	11.43
375.109	40.11
375.319	38.06
375.53	50.35
375.74	36.01
375.951	17.58
376.161	-9.05
376.372	101.55
376.582	15.53
376.793	25.77
377.003	13.48
377.214	-15.19
377.424	-0.85
377.635	66.73
377.845	-19.29
378.055	62.63
378.266	25.77
378.476	38.06
378.686	31.91
378.897	-45.91
379.107	-2.9
379.317	60.59
379.528	-2.9
379.738	144.55
379.948	23.72
380.158	89.26
380.369	56.49
380.579	40.11
380.789	52.39
380.999	46.25
381.21	-72.53
381.42	52.39
381.63	-31.57
381.84	52.39
382.05	-17.24
382.261	109.74
382.471	42.15
382.681	13.48
382.891	-13.14
383.101	19.63
383.311	3.24
383.521	68.78
383.731	56.49
383.941	-23.38
384.151	9.39
384.361	13.48
384.571	-17.24
384.781	-17.24
384.991	-9.05
385.201	87.21
385.411	101.55
385.621	95.4
385.831	27.82
386.041	44.2
386.251	27.82
386.461	99.5
386.671	5.29
386.881	13.48
387.091	44.2
387.301	19.63
387.511	33.96
387.72	-21.33
387.93	85.16
388.14	52.39
388.35	-9.05
388.56	25.77
388.769	109.74
388.979	-21.33
389.189	68.78
389.399	5.29
389.609	72.87
389.818	-21.33
390.028	113.83
390.238	50.35
390.447	156.84
390.657	79.02
390.867	9.39
391.076	64.68
391.286	54.44
391.496	91.31
391.705	95.4
391.915	66.73
392.125	46.25
392.334	-11.09
392.544	5.29
392.753	70.83
392.963	74.92
393.172	13.48
393.382	33.96
393.591	154.79
393.801	38.06
394.01	33.96
394.22	46.25
394.429	70.83
394.639	13.48
394.848	29.87
395.058	54.44
395.267	91.31
395.477	7.34
395.686	31.91
395.895	60.59
396.105	107.69
396.314	115.88
396.524	33.96
396.733	42.15
396.942	48.3
397.152	187.56
397.361	140.46
397.57	105.64
397.78	36.01
397.989	81.07
398.198	150.7
398.407	50.35
398.617	76.97
398.826	56.49
399.035	38.06
399.244	66.73
399.453	70.83
399.663	124.07
399.872	132.26
400.081	27.82
400.29	66.73
400.499	150.7
400.708	81.07
400.917	33.96
401.127	87.21
401.336	-2.9
401.545	150.7
401.754	93.35
401.963	81.07
402.172	140.46
402.381	60.59
402.59	109.74
402.799	13.48
403.008	173.22
403.217	97.45
403.426	99.5
403.635	124.07
403.844	91.31
404.053	109.74
404.262	113.83
404.471	162.98
404.68	146.6
404.888	58.54
405.097	167.08
405.306	132.26
405.515	111.78
405.724	119.98
405.933	193.7
406.142	101.55
406.35	160.94
406.559	160.94
406.768	99.5
406.977	193.7
407.185	175.27
407.394	205.99
407.603	189.61
407.812	261.29
408.02	150.7
408.229	158.89
408.438	335.01
408.646	162.98
408.855	232.62
409.064	218.28
409.272	236.71
409.481	277.67
409.69	294.05
409.898	267.43
410.107	275.62
410.315	324.77
410.524	304.29
410.733	322.73
410.941	367.78
411.15	382.12
411.358	394.4
411.567	371.88
411.775	380.07
411.984	378.02
412.192	414.88
412.401	373.92
412.609	466.08
412.818	568.48
413.026	515.23
413.234	441.51
413.443	560.29
413.651	595.11
413.86	593.06
414.068	634.02
414.276	636.06
414.485	578.72
414.693	709.79
414.901	697.5
415.11	642.21
415.318	738.46
415.526	580.77
415.734	767.13
415.943	785.57
416.151	898.2
416.359	863.39
416.567	820.38
416.776	871.58
416.984	953.5
417.192	1137.82
417.4	986.27
417.608	1035.42
417.817	1064.09
418.025	1039.51
418.233	1281.18
418.441	1154.2
418.649	1336.47
418.857	1361.05
419.065	1307.8
419.273	1281.18
419.481	1289.37
419.689	1408.15
419.897	1518.74
420.105	1541.27
420.313	1676.43
420.521	1584.27
420.729	1625.23
420.937	1748.11
421.145	1752.21
421.353	1889.42
421.561	2032.78
421.769	1948.81
421.977	2079.88
422.185	2069.64
422.393	2194.57
422.601	2253.96
422.809	2323.59
423.017	2460.81
423.224	2387.08
423.432	2518.15
423.64	2485.38
423.848	2708.61
424.056	2696.32
424.263	2989.18
424.471	2980.99
424.679	2923.65
424.887	3083.39
425.094	3169.4
425.302	3259.51
425.51	3331.19
425.718	3558.52
425.925	3482.74
426.133	3685.49
426.341	3753.07
426.548	4041.84
426.756	4037.74
426.964	4041.84
427.171	4201.58
427.379	4361.32
427.586	4414.57
427.794	4664.42
428.001	4729.95
428.209	5090.4
428.417	4848.74
428.624	5291.1
428.832	5258.33
429.039	5364.82
429.247	5252.19
429.454	5782.61
429.662	6128.72
429.869	5712.98
430.076	6163.53
430.284	6036.56
430.491	6267.98
430.699	6726.72
430.906	6681.67
431.114	6749.25
431.321	6960.19
431.528	7033.92
431.736	7597.11
431.943	7932.98
432.15	7765.04
432.358	7666.74
432.565	8254.51
432.772	8277.04
432.979	8651.81
433.187	8690.73
433.394	8735.78
433.601	9456.67
433.808	9290.78
434.016	9489.43
434.223	9727
434.43	10443.79
434.637	10177.55
434.844	10787.85
435.052	11068.42
435.259	10798.09
435.466	10871.81
435.673	10849.29
435.88	11713.53
436.087	12307.44
436.294	12176.37
436.501	12030.96
436.708	12155.89
436.915	12651.5
437.122	13263.84
437.329	13116.39
437.537	13222.88
437.743	14031.83
437.95	13599.71
438.157	14300.11
438.364	14910.41
438.571	14902.22
438.778	14814.15
438.985	16415.66
439.192	15801.27
439.399	16024.5
439.606	15797.18
439.813	16561.07
440.02	17793.95
440.227	17501.09
440.433	16847.79
440.64	17951.64
440.847	17488.8
441.054	18168.73
441.261	19299.2
441.467	18992.01
441.674	19567.49
441.881	20120.44
442.088	20110.2
442.294	19671.93
442.501	20648.82
442.708	20640.62
442.914	21779.29
443.121	22598.48
443.328	22031.19
443.534	23530.31
443.741	22889.29
443.948	22653.78
444.154	24296.25
444.361	23821.12
444.568	24263.48
444.774	23991.1
444.981	24681.27
445.187	25228.07
445.394	26276.63
445.6	25760.55
445.807	28455.67
446.013	27226.89
446.22	27753.22
446.426	28801.78
446.633	29061.87
446.839	30202.59
447.046	28658.42
447.252	30769.88
447.459	30366.43
447.665	30589.66
447.871	31713.99
448.078	33043.12
448.284	31404.75
448.491	32189.12
448.697	33409.71
448.903	33809.06
449.11	34255.52
449.316	33698.47
449.522	33899.17
449.728	35310.22
449.935	35431.05
450.141	35367.57
450.347	36403.84
450.553	34837.14
450.76	35283.6
450.966	36725.37
451.172	36133.51
451.378	37292.66
451.584	36385.41
451.791	37376.62
451.997	36866.68
452.203	37577.33
452.409	38105.7
452.615	37485.17
452.821	36225.67
453.027	35627.66
453.233	37712.49
453.44	36360.83
453.646	37044.85
453.852	36612.73
454.058	37399.15
454.264	36326.02
454.47	37044.85
454.676	35861.13
454.882	37368.43
455.088	33788.58
455.294	34747.03
455.5	35277.46
455.705	35199.63
455.911	34138.79
456.117	33198.77
456.323	32998.07
456.529	31025.87
456.735	32598.71
456.941	31599.3
457.147	31419.08
457.352	30167.77
457.558	29995.74
457.764	29782.76
457.97	29608.68
458.176	28584.69
458.381	28635.89
458.587	27382.54
458.793	27497.22
458.999	25996.06
459.204	27720.45
459.41	27093.77
459.616	25350.95
459.821	25330.47
460.027	24750.9
460.233	24740.66
460.438	23507.78
460.644	23673.67
460.85	22879.05
461.055	22147.93
461.261	22152.02
461.466	20525.94
461.672	20097.91
461.878	21547.87
462.083	19999.61
462.289	19760
462.494	19368.84
462.7	18477.97
462.905	17931.16
463.111	18465.68
463.316	18654.09
463.522	18355.09
463.727	18264.98
463.932	18332.56
464.138	18201.49
464.343	18377.62
464.549	17683.36
464.754	18219.92
464.959	17884.06
465.165	18025.37
465.37	17079.21
465.575	16829.35
465.781	17697.69
465.986	17644.45
466.191	16864.17
466.397	16567.21
466.602	15729.59
466.807	16462.77
467.012	16403.38
467.218	16311.22
467.423	16040.89
467.628	16217.01
467.833	16831.4
468.038	16223.16
468.244	15739.83
468.449	16264.11
468.654	16014.26
468.859	15643.58
469.064	15506.37
469.269	14937.03
469.474	15041.48
469.679	15313.86
469.885	14988.23
470.09	15203.27
470.295	15115.2
470.5	14699.47
470.705	14879.69
470.91	14273.49
471.115	14142.42
471.32	14599.12
471.525	14412.75
471.73	14128.08
471.935	14037.97
472.139	13652.95
472.344	13644.76
472.549	13784.02
472.754	13501.4
472.959	13208.55
473.164	13016.04
473.369	13016.04
473.574	13274.08
473.778	12878.82
473.983	12899.3
474.188	12878.82
474.393	12389.36
474.598	12524.52
474.802	12237.81
475.007	12139.51
475.212	12123.12
475.417	11478.01
475.621	11852.79
475.826	12024.82
476.031	11494.4
476.235	11222.02
476.44	11600.89
476.645	11326.46
476.849	11271.17
477.054	11187.2
477.259	11262.97
477.463	10783.75
477.668	10877.96
477.872	10882.05
478.077	10470.41
478.282	10355.72
478.486	10355.72
478.691	10245.13
478.895	10247.18
479.1	10103.82
479.304	10077.2
479.509	9751.57
479.713	10238.99
479.918	10019.86
480.122	9813.01
480.326	9919.51
480.531	9892.88
480.735	9643.03
480.94	9554.97
481.144	10048.53
481.348	9554.97
481.553	9708.57
481.757	9346.08
481.961	9462.81
482.166	9501.72
482.37	9430.04
482.574	9569.3
482.778	9503.77
482.983	9792.53
483.187	9452.57
483.391	9526.3
483.595	9266.21
483.8	9296.92
484.004	9370.65
484.208	9393.18
484.412	9143.33
484.616	9341.98
484.821	9514.01
485.025	9131.04
485.229	9253.92
485.433	9399.32
485.637	9446.43
485.841	9311.26
486.045	9362.46
486.249	9466.91
486.453	9282.59
486.657	9264.16
486.861	9411.61
487.065	9163.81
487.269	9290.78
487.473	9108.51
487.677	9456.67
487.881	9403.42
488.085	9219.1
488.289	9505.82
488.493	9276.45
488.697	9460.76
488.901	9382.94
489.105	9587.74
489.309	9487.39
489.512	9577.5
489.716	9604.12
489.92	9421.85
490.124	9546.78
490.328	9636.89
490.531	9471
490.735	9614.36
490.939	9622.55
491.143	9464.86
491.346	9618.46
491.55	9718.81
491.754	9503.77
491.958	9747.48
492.161	9634.84
492.365	9612.31
492.569	9899.03
492.772	9980.95
492.976	9870.36
493.18	9853.97
493.383	10232.85
493.587	10247.18
493.79	10081.3
493.994	10159.12
494.197	10337.29
494.401	10259.47
494.605	10249.23
494.808	10474.51
495.012	10445.84
495.215	10658.82
495.419	10775.56
495.622	10662.92
495.825	10728.45
496.029	10738.69
496.232	11033.6
496.436	10791.94
496.639	11256.83
496.843	11367.42
497.046	11469.82
497.249	11338.75
497.453	11656.18
497.656	11514.87
497.859	11815.93
498.063	11854.84
498.266	12053.49
498.469	11949.04
498.673	12041.2
498.876	12307.44
499.079	12284.91
499.282	12614.63
499.485	12811.24
499.689	12891.11
499.892	13276.13
500.095	13329.38
500.298	13247.46
500.501	13448.16
500.705	13763.54
500.908	13851.61
501.111	14037.97
501.314	13964.25
501.517	14326.74
501.72	14459.85
501.923	14019.54
502.126	14615.5
502.329	14760.91
502.532	14873.54
502.735	15043.53
502.938	15295.43
503.141	15320
503.344	15438.78
503.547	15365.06
503.75	15852.47
503.953	16018.36
504.156	16169.91
504.359	16249.78
504.562	16464.82
504.765	16526.25
504.968	17003.43
505.17	17210.28
505.373	17269.67
505.576	17367.97
505.779	17451.94
505.982	17687.45
506.185	18062.23
506.387	17998.74
506.59	18324.37
506.793	18523.02
506.996	18457.49
507.198	18916.23
507.401	19024.78
507.604	19178.37
507.807	19198.85
508.009	19630.98
508.212	19868.54
508.415	19942.27
508.617	20253.56
508.82	20296.56
509.022	20265.85
509.225	20583.28
509.428	20910.96
509.63	20925.29
509.833	21017.45
510.035	21683.04
510.238	21470.05
510.44	21676.9
510.643	22043.48
510.845	22313.81
511.048	22047.58
511.25	22618.96
511.453	22645.59
511.655	23432.01
511.858	22971.21
512.06	23286.6
512.262	23704.38
512.465	23112.52
512.667	23581.51
512.87	24275.77
513.072	24032.06
513.274	24623.92
513.477	24716.08
513.679	24822.58
513.881	25256.75
514.084	25533.22
514.286	25504.55
514.488	25713.44
514.69	26264.35
514.893	26622.74
515.095	26350.36
515.297	26532.63
515.499	26678.04
515.701	27243.27
515.904	27321.1
516.106	27476.74
516.308	27740.93
516.51	27976.45
516.712	28031.74
516.914	28345.08
517.116	28844.79
517.318	28594.93
517.52	29203.18
517.722	29108.97
517.925	29410.03
518.127	29797.09
518.329	29801.19
518.531	29633.25
518.733	30544.6
518.935	30595.8
519.136	30606.04
519.338	30907.09
519.54	31050.45
519.742	31331.02
519.944	31507.15
520.146	32078.53
520.348	31722.18
520.55	32056
520.752	32051.91
520.954	32643.77
521.155	32262.85
521.357	33032.88
521.559	33143.47
521.761	33868.45
521.963	33471.15
522.164	33299.12
522.366	33850.02
522.568	33827.49
522.77	34167.46
522.971	34714.26
523.173	34239.14
523.375	35017.36
523.576	34994.84
523.778	34951.83
523.98	35330.7
524.181	35603.08
524.383	35572.36
524.584	35869.32
524.786	36123.27
524.988	35480.21
525.189	36356.74
525.391	36545.15
525.592	36795
525.794	36620.92
525.995	36866.68
526.197	36827.77
526.398	36786.81
526.6	37347.95
526.801	37395.06
527.003	37540.46
527.204	37085.81
527.406	37747.31
527.607	37356.14
527.808	38230.63
528.01	37421.68
528.211	37837.42
528.412	38435.42
528.614	38292.07
528.815	38462.05
529.016	38453.86
529.218	37966.44
529.419	38392.42
529.62	38085.22
529.822	38668.89
530.023	38513.25
530.224	38795.87
530.425	38814.3
530.626	38267.49
530.828	38281.83
531.029	39428.69
531.23	38810.2
531.431	38812.25
531.632	38916.7
531.833	39400.02
532.035	38761.05
532.236	39406.16
532.437	39193.17
532.638	38853.21
532.839	39033.43
533.04	39510.61
533.241	38613.6
533.442	39604.81
533.643	39299.67
533.844	39361.11
534.045	39305.81
534.246	38785.63
534.447	39543.38
534.648	39060.05
534.849	39123.54
535.05	38736.48
535.251	39133.78
535.451	39037.53
535.652	39346.77
535.853	39178.84
536.054	39471.7
536.255	39475.79
536.456	38648.41
536.657	39682.64
536.857	39219.8
537.058	39146.07
537.259	39791.18
537.46	39555.66
537.66	39387.73
537.861	39580.24
538.062	39344.72
538.263	39047.77
538.463	38894.17
538.664	38779.48
538.865	39141.97
539.065	39217.75
539.266	39064.15
539.466	39561.81
539.667	39060.05
539.868	39443.02
540.068	39023.19
540.269	39096.92
540.469	39139.93
540.67	39033.43
540.87	39129.69
541.071	38967.9
541.271	39160.41
541.472	38869.59
541.672	38863.45
541.873	39082.58
542.073	38634.08
542.274	39232.08
542.474	38892.12
542.675	38832.73
542.875	39320.15
543.075	39015
543.276	38421.09
543.476	39277.14
543.676	38883.93
543.877	38918.74
544.077	38974.04
544.277	38906.46
544.478	38789.72
544.678	39232.08
544.878	38777.43
545.078	38855.26
545.279	38726.24
545.479	38566.49
545.679	38754.91
545.879	38574.69
546.079	38713.95
546.28	38564.45
546.48	38736.48
546.68	38834.78
546.88	38269.54
547.08	39027.29
547.28	38834.78
547.48	38548.06
547.68	38519.39
547.88	38126.18
548.081	38728.28
548.281	38754.91
548.481	38214.24
548.681	38595.17
548.881	38361.7
549.081	38867.55
549.28	38554.21
549.48	38656.6
549.68	38355.55
549.88	38986.33
550.08	38156.9
550.28	38687.32
550.48	38115.94
550.68	38656.6
550.88	38416.99
551.08	38451.81
551.279	38408.8
551.479	37960.3
551.679	38261.35
551.879	38470.24
552.079	38629.98
552.278	38482.53
552.478	38249.06
552.678	38378.08
552.878	38191.72
553.077	38470.24
553.277	37917.29
553.477	38386.27
553.676	38410.85
553.876	38081.13
554.076	38093.41
554.275	37964.39
554.475	37509.74
554.674	38066.79
554.874	37925.48
555.074	37745.26
555.273	38214.24
555.473	38150.76
555.672	37943.91
555.872	37753.45
556.071	37859.94
556.271	38124.13
556.47	37479.02
556.67	37214.83
556.869	37661.29
557.068	37685.87
557.268	37595.76
557.467	37225.07
557.667	37599.85
557.866	37440.11
558.065	37761.64
558.265	36838.01
558.464	37259.89
558.663	37540.46
558.863	36948.6
559.062	37810.79
559.261	36950.65
559.461	37493.36
559.66	36795
559.859	36969.08
560.058	37081.72
560.258	37290.61
560.457	36493.95
560.656	37177.97
560.855	36766.33
561.054	36989.56
561.253	36602.49
561.453	36420.22
561.652	36852.34
561.851	36385.41
562.05	36600.44
562.249	36326.02
562.448	36526.72
562.647	36395.65
562.846	36342.4
563.045	36119.17
563.244	36113.03
563.443	36504.19
563.642	36024.96
563.841	36057.73
564.04	36121.22
564.239	36500.09
564.438	35979.91
564.637	35816.07
564.836	35918.47
565.035	35347.09
565.234	36008.58
565.432	35803.78
565.631	35682.95
565.83	35426.96
566.029	35236.5
566.228	35709.58
566.427	35482.25
566.625	35318.42
566.824	34949.78
567.023	35611.28
567.222	34726.55
567.42	34955.93
567.619	35076.76
567.818	34986.64
568.016	34542.24
568.215	35342.99
568.414	34572.96
568.612	35050.13
568.811	34593.43
569.01	34931.35
569.208	34290.34
569.407	34837.14
569.605	34441.89
569.804	34796.18
570.002	34132.64
570.201	34583.19
570.4	33987.24
570.598	34261.66
570.797	34218.66
570.995	34038.44
571.193	33696.42
571.392	33739.43
571.59	33833.64
571.789	33753.77
571.987	34028.2
572.186	33471.15
572.384	33376.94
572.582	33485.48
572.781	33553.07
572.979	33311.41
573.177	33346.22
573.376	33452.72
573.574	33288.88
573.772	33245.87
573.971	32879.28
574.169	32543.42
574.367	32467.64
574.565	32883.38
574.763	32826.04
574.962	32586.43
575.16	32271.04
575.358	32961.2
575.556	32135.87
575.754	32432.83
575.952	32363.2
576.151	32551.61
576.349	32043.71
576.547	32180.93
576.745	32287.42
576.943	32289.47
577.141	31976.13
577.339	32125.63
577.537	31820.49
577.735	31759.05
577.933	31333.07
578.131	31744.71
578.329	31359.69
578.527	31314.64
578.725	31414.99
578.923	31457.99
579.121	31142.61
579.319	31208.14
579.516	31498.95
579.714	30995.15
579.912	31089.36
580.11	31118.03
580.308	31029.97
580.506	30882.52
580.704	30307.04
580.901	30964.43
581.099	30833.36
581.297	30466.78
581.495	30264.03
581.692	30628.57
581.89	30517.98
582.088	30597.85
582.285	30135.01
582.483	30231.26
582.681	30395.1
582.878	29962.98
583.076	29311.72
583.274	29926.11
583.471	29584.1
583.669	29967.07
583.866	29565.67
584.064	30094.05
584.262	29061.87
584.459	29928.16
584.657	29094.64
584.854	29276.91
585.052	28984.05
585.249	29287.15
585.447	29205.23
585.644	28936.95
585.841	28859.12
586.039	28959.47
586.236	28586.74
586.434	28570.36
586.631	28467.96
586.828	28750.58
587.026	28795.64
587.223	28218.11
587.42	28283.64
587.618	28547.83
587.815	28123.9
588.012	27777.79
588.21	28056.32
588.407	28455.67
588.604	28025.6
588.801	27777.79
588.999	27755.27
589.196	27427.59
589.393	27996.93
589.59	27423.5
589.787	27312.91
589.984	27372.3
590.182	26864.4
590.379	27556.61
590.576	27089.68
590.773	27380.49
590.97	26845.97
591.167	27245.32
591.364	26678.04
591.561	27009.81
591.758	26639.12
591.955	26753.81
592.152	26782.48
592.349	26284.83
592.546	26645.27
592.743	26331.93
592.94	26458.9
593.137	26432.28
593.334	26215.19
593.531	25803.55
593.727	26276.63
593.924	25830.18
594.121	26116.89
594.318	25991.97
594.515	25484.07
594.712	26086.17
594.908	25398.06
595.105	25617.19
595.302	25281.32
595.499	25635.62
595.696	25336.62
595.892	25381.67
596.089	25281.32
596.286	25004.85
596.482	24970.03
596.679	25105.2
596.876	25131.82
597.072	25025.32
597.269	24548.15
597.466	24632.11
597.662	24726.32
597.859	24679.22
598.055	24748.85
598.252	24507.19
598.448	24521.52
598.645	24423.22
598.841	24326.97
599.038	24140.6
599.234	24259.38
599.431	24134.46
599.627	23544.64
599.824	23960.38
600.02	23481.16
600.217	23860.03
600.413	23792.45
600.609	23524.16
600.806	23255.88
601.002	23571.27
601.198	23362.37
601.395	23110.47
601.591	23305.03
601.787	23468.87
601.984	23079.75
602.18	23292.74
602.376	22821.71
602.572	22920.01
602.769	22928.2
602.965	22668.11
603.161	22834
603.357	22627.15
603.553	22729.55
603.75	22713.17
603.946	22352.73
604.142	22733.65
604.338	22174.55
604.534	22240.09
604.73	22221.66
604.926	22043.48
605.122	22172.5
605.318	21781.34
605.514	21709.66
605.71	21943.13
605.906	21910.36
606.102	21539.68
606.298	21666.66
606.494	21762.91
606.69	21793.63
606.886	21742.43
607.082	21302.12
607.278	21664.61
607.474	21132.14
607.67	21396.32
607.866	20826.99
608.062	21447.52
608.257	21203.82
608.453	21394.28
608.649	21175.14
608.845	20886.38
609.041	21142.38
609.236	21056.36
609.432	20956.01
609.628	20702.06
609.824	20939.63
610.019	20697.97
610.215	20614
610.411	20921.2
610.606	20587.38
610.802	20607.86
610.998	20738.93
611.193	20736.88
611.389	20233.08
611.584	20503.41
611.78	20183.93
611.976	20536.18
612.171	20491.12
612.367	20429.68
612.562	20319.09
612.758	20351.86
612.953	20089.72
613.149	20294.52
613.344	20243.32
613.539	20220.79
613.735	20034.42
613.93	20089.72
614.126	19956.6
614.321	20087.67
614.517	20097.91
614.712	19870.59
614.907	19587.97
615.103	20034.42
615.298	19641.21
615.493	19827.58
615.688	19719.04
615.884	20061.05
616.079	19487.62
616.274	19739.52
616.47	19454.85
616.665	19725.18
616.86	19567.49
617.055	19630.98
617.25	19504
617.445	19938.17
617.641	19123.08
617.836	19547.01
618.031	19170.18
618.226	19336.07
618.421	19067.78
618.616	19135.37
618.811	18994.06
619.006	19123.08
619.201	18600.85
619.396	18690.96
619.591	18650
619.786	19016.58
619.981	18490.26
620.176	18912.14
620.371	18334.61
620.566	18449.3
620.761	18217.88
620.956	18584.46
621.151	18011.03
621.346	18256.79
621.541	18004.89
621.735	18201.49
621.93	17669.02
622.125	17687.45
622.32	17333.15
622.515	17378.21
622.709	17388.45
622.904	17320.87
623.099	17132.45
623.294	17613.73
623.488	16956.33
623.683	17005.48
623.878	16946.09
624.072	17247.14
624.267	16817.07
624.462	16821.16
624.656	16538.54
624.851	16585.65
625.046	16575.41
625.24	16522.16
625.435	16147.38
625.629	16219.06
625.824	16227.25
626.018	15885.24
626.213	15709.11
626.407	16042.93
626.602	15537.09
626.796	15885.24
626.991	15733.69
627.185	15426.5
627.38	15508.41
627.574	15471.55
627.768	15311.81
627.963	15297.47
628.157	14912.46
628.352	15260.61
628.546	14920.65
628.74	15115.2
628.935	14736.33
629.129	14941.13
629.323	14627.79
629.517	14408.65
629.712	14449.61
629.906	14513.1
630.1	14183.38
630.294	14289.87
630.489	14023.64
630.683	14210
630.877	13882.33
631.071	13878.23
631.265	14035.92
631.459	13734.87
631.653	13849.56
631.848	13779.93
632.042	13509.6
632.236	13546.46
632.43	13407.2
632.624	13732.83
632.818	13454.3
633.012	13229.02
633.206	13267.94
633.4	13366.24
633.594	12995.56
633.788	13274.08
633.982	13009.89
634.176	12821.48
634.369	12854.25
634.563	12919.78
634.757	12610.54
634.951	12598.25
635.145	12760.04
635.339	12409.84
635.533	12444.65
635.726	12348.4
635.92	12278.77
636.114	12180.46
636.308	12274.67
636.501	12024.82
636.695	12039.15
636.889	12084.21
637.083	12006.39
637.276	11742.2
637.47	11774.97
637.664	11781.11
637.857	11893.75
638.051	11645.94
638.244	11647.99
638.438	11611.13
638.632	11398.14
638.825	11392
639.019	11361.28
639.212	11252.73
639.406	11334.65
639.599	11258.88
639.793	11133.95
639.986	10679.3
640.18	10945.54
640.373	10867.72
640.567	10896.39
640.76	10763.27
640.954	10714.12
641.147	10568.71
641.34	10566.67
641.534	10630.15
641.727	10468.36
641.92	10527.75
642.114	10249.23
642.307	10343.44
642.5	10370.06
642.694	10261.52
642.887	10042.39
643.08	10396.68
643.273	10296.33
643.467	9937.94
643.66	10097.68
643.853	9919.51
644.046	9903.12
644.239	10032.15
644.432	10060.82
644.626	9538.59
644.819	9747.48
645.012	9645.08
645.205	9696.28
645.398	9509.91
645.591	9669.66
645.784	9530.39
645.977	9219.1
646.17	9358.36
646.363	9147.42
646.556	9215.01
646.749	9311.26
646.942	9139.23
647.135	9157.66
647.328	9069.6
647.521	9145.38
647.714	8899.62
647.907	9045.02
648.099	8834.08
648.292	8885.28
648.485	8985.63
648.678	8858.66
648.871	8692.77
649.064	8682.53
649.256	8547.37
649.449	8662.05
649.642	8551.46
649.835	8387.63
650.027	8301.61
650.22	8416.3
650.413	8412.2
650.605	8145.97
650.798	8162.35
650.991	8219.69
651.183	8211.5
651.376	8102.96
651.568	7973.94
651.761	8039.47
651.954	8010.8
652.146	8047.66
652.339	7941.17
652.531	7687.22
652.724	7857.2
652.916	7775.28
653.109	7785.52
653.301	7705.65
653.494	7928.88
653.686	7609.4
653.879	7693.37
654.071	7674.93
654.263	7523.38
654.456	7556.15
654.648	7400.51
654.84	7244.86
655.033	7406.65
655.225	7212.09
655.417	7263.29
655.61	7302.2
655.802	7312.44
655.994	7222.33
656.186	7169.09
656.379	7087.17
656.571	7246.91
656.763	6974.53
656.955	7087.17
657.148	7033.92
657.34	7097.41
657.532	6904.9
657.724	6847.55
657.916	6874.18
658.108	6874.18
658.3	6839.36
658.492	6779.97
658.684	6777.92
658.876	6814.79
659.068	6650.95
659.26	6526.02
659.452	6470.73
659.644	6513.74
659.836	6452.3
660.028	6618.18
660.22	6382.67
660.412	6368.33
660.604	6292.55
660.796	6401.1
660.988	6169.68
661.18	6284.36
661.372	6190.16
661.563	6224.97
661.755	6138.96
661.947	6038.61
662.139	6151.24
662.331	6155.34
662.522	6040.65
662.714	6098
662.906	5977.17
663.097	5954.64
663.289	6028.37
663.481	5868.63
663.673	5987.41
663.864	5776.47
664.056	5760.08
664.247	5674.07
664.439	5788.75
664.631	5561.43
664.822	5633.11
665.014	5653.59
665.205	5583.96
665.397	5672.02
665.588	5614.68
665.78	5543
665.971	5524.57
666.163	5596.25
666.354	5495.89
666.546	5373.02
666.737	5504.09
666.929	5266.52
667.12	5409.88
667.311	5495.89
667.503	5340.25
667.694	5327.96
667.885	5344.35
668.077	5336.15
668.268	5266.52
668.459	5074.01
668.651	5248.09
668.842	5141.6
669.033	5117.02
669.224	5108.83
669.416	5121.12
669.607	5035.1
669.798	5028.96
669.989	4887.65
670.18	4994.14
670.371	5071.97
670.563	5004.38
670.754	5141.6
670.945	4947.04
671.136	4967.52
671.327	4955.23
671.518	4924.51
671.709	4934.75
671.9	4766.82
672.091	4746.34
672.282	4832.35
672.473	4826.21
672.664	4852.83
672.855	4740.19
673.046	4789.35
673.237	4883.55
673.428	4607.08
673.619	4713.57
673.809	4590.69
674	4562.02
674.191	4648.04
674.382	4406.38
674.573	4549.73
674.764	4488.29
674.954	4633.7
675.145	4414.57
675.336	4375.66
675.527	4418.66
675.717	4508.77
675.908	4594.79
676.099	4418.66
676.289	4392.04
676.48	4377.7
676.671	4359.27
676.861	4562.02
677.052	4381.8
677.243	4379.75
677.433	4314.22
677.624	4342.89
677.814	4381.8
678.005	4181.1
678.195	4394.09
678.386	4310.12
678.576	4308.07
678.767	4156.52
678.957	4303.98
679.148	4115.56
679.338	4406.38
679.529	4125.8
679.719	4181.1
679.909	4164.72
680.1	4072.56
680.29	4166.76
680.481	4111.47
680.671	4025.45
680.861	4078.7
681.052	4142.19
681.242	4125.8
681.432	4179.05
681.622	4105.32
681.813	3957.87
682.003	4000.88
682.193	4035.69
682.383	4070.51
682.573	4109.42
682.764	4181.1
682.954	4017.26
683.144	3996.78
683.334	3943.53
683.524	3878
683.714	3972.21
683.904	3961.97
684.094	3849.33
684.284	3820.66
684.474	3906.67
684.664	3882.1
684.854	3886.19
685.044	3763.31
685.234	3712.11
685.424	3791.98
685.614	3812.46
685.804	3861.62
685.994	3826.8
686.184	3902.58
686.374	3738.74
686.564	3648.63
686.753	3658.87
686.943	3763.31
687.133	3568.76
687.323	3560.56
687.513	3624.05
687.702	3572.85
687.892	3648.63
688.082	3587.19
688.272	3656.82
688.461	3607.67
688.651	3533.94
688.841	3503.22
689.03	3652.72
689.22	3466.36
689.41	3531.89
689.599	3513.46
689.789	3372.15
689.979	3509.37
690.168	3464.31
690.358	3503.22
690.547	3323
690.737	3378.3
690.926	3300.47
691.116	3269.75
691.305	3271.8
691.495	3183.74
691.684	3325.05
691.874	3236.99
692.063	3253.37
692.252	3320.95
692.442	3255.42
692.631	3017.85
692.82	3075.2
693.01	3142.78
693.199	3087.48
693.388	3087.48
693.578	3120.25
693.767	3073.15
693.956	2978.94
694.146	3019.9
694.335	3046.52
694.524	2966.65
694.713	2899.07
694.902	2925.69
695.092	2925.69
695.281	2921.6
695.47	3077.24
695.659	2993.28
695.848	2927.74
696.037	2964.61
696.226	2903.17
696.415	2907.26
696.604	2942.08
696.793	2817.15
696.982	2798.72
697.171	2776.19
697.36	2899.07
697.549	2729.09
697.738	2804.86
697.927	2710.66
698.116	2735.23
698.305	2714.75
698.494	2688.13
698.683	2681.99
698.872	2765.95
699.061	2704.51
699.25	2604.16
699.438	2641.03
699.627	2632.83
699.816	2630.79
700.005	2589.83
700.193	2563.2
700.382	2671.75
700.571	2649.22
700.76	2581.64
700.948	2485.38
701.137	2487.43
701.326	2591.88
701.514	2667.65
701.703	2643.07
701.892	2571.4
702.08	2567.3
702.269	2514.05
702.457	2587.78
702.646	2528.39
702.834	2495.62
703.023	2460.81
703.212	2540.68
703.4	2505.86
703.589	2469
703.777	2571.4
703.965	2552.96
704.154	2444.42
704.342	2372.74
704.531	2497.67
704.719	2442.37
704.907	2378.89
705.096	2460.81
705.284	2403.46
705.472	2452.61
705.661	2432.13
705.849	2395.27
706.037	2395.27
706.226	2464.9
706.414	2643.07
706.602	2434.18
706.79	2407.56
706.979	2440.33
707.167	2421.89
707.355	2452.61
707.543	2405.51
707.731	2485.38
707.919	2446.47
708.107	2301.06
708.296	2460.81
708.484	2333.83
708.672	2440.33
708.86	2421.89
709.048	2489.48
709.236	2366.6
709.424	2391.17
709.612	2501.76
709.8	2376.84
709.988	2378.89
710.176	2495.62
710.364	2415.75
710.551	2505.86
710.739	2444.42
710.927	2307.21
711.115	2372.74
711.303	2469
711.491	2401.41
711.679	2399.37
711.866	2346.12
712.054	2501.76
712.242	2444.42
712.43	2253.96
712.617	2409.61
712.805	2407.56
712.993	2401.41
713.181	2331.78
713.368	2489.48
713.556	2469
713.744	2477.19
713.931	2393.22
714.119	2452.61
714.306	2477.19
714.494	2481.28
714.682	2368.65
714.869	2434.18
715.057	2466.95
715.244	2555.01
715.432	2473.09
715.619	2395.27
715.807	2446.47
715.994	2524.29
716.182	2382.98
716.369	2387.08
716.556	2565.25
716.744	2495.62
716.931	2481.28
717.119	2454.66
717.306	2489.48
717.493	2311.3
717.681	2577.54
717.868	2415.75
718.055	2395.27
718.242	2446.47
718.43	2526.34
718.617	2567.3
718.804	2532.48
718.991	2534.53
719.179	2372.74
719.366	2493.57
719.553	2344.07
719.74	2507.91
719.927	2466.95
720.114	2436.23
720.301	2368.65
720.488	2471.04
720.676	2534.53
720.863	2432.13
721.05	2454.66
721.237	2421.89
721.424	2530.44
721.611	2577.54
721.798	2559.11
721.985	2487.43
722.172	2626.69
722.358	2514.05
722.545	2481.28
722.732	2442.37
722.919	2649.22
723.106	2534.53
723.293	2516.1
723.48	2518.15
723.667	2524.29
723.853	2516.1
724.04	2573.44
724.227	2507.91
724.414	2522.24
724.6	2501.76
724.787	2503.81
724.974	2591.88
725.161	2573.44
725.347	2581.64
725.534	2573.44
725.72	2538.63
725.907	2534.53
726.094	2587.78
726.28	2608.26
726.467	2540.68
726.653	2487.43
726.84	2577.54
727.027	2606.21
727.213	2440.33
727.4	2579.59
727.586	2595.97
727.773	2581.64
727.959	2565.25
728.145	2632.83
728.332	2569.35
728.518	2571.4
728.705	2602.11
728.891	2440.33
729.077	2632.83
729.264	2575.49
729.45	2663.55
729.636	2577.54
729.823	2600.07
730.009	2499.72
730.195	2536.58
730.382	2673.79
730.568	2563.2
730.754	2595.97
730.94	2708.61
731.126	2696.32
731.313	2663.55
731.499	2686.08
731.685	2589.83
731.871	2522.24
732.057	2591.88
732.243	2575.49
732.429	2573.44
732.615	2628.74
732.801	2550.92
732.987	2530.44
733.173	2569.35
733.359	2620.55
733.545	2555.01
733.731	2608.26
733.917	2497.67
734.103	2638.98
734.289	2704.51
734.475	2608.26
734.661	2589.83
734.847	2585.73
735.033	2663.55
735.219	2585.73
735.404	2616.45
735.59	2641.03
735.776	2559.11
735.962	2565.25
736.148	2530.44
736.333	2634.88
736.519	2575.49
736.705	2593.92
736.89	2555.01
737.076	2471.04
737.262	2548.87
737.447	2618.5
737.633	2569.35
737.819	2587.78
738.004	2563.2
738.19	2583.68
738.375	2509.96
738.561	2587.78
738.747	2608.26
738.932	2493.57
739.118	2577.54
739.303	2573.44
739.489	2604.16
739.674	2374.79
739.859	2446.47
740.045	2360.45
740.23	2544.77
740.416	2458.76
740.601	2503.81
740.786	2407.56
740.972	2491.52
741.157	2380.93
741.342	2456.71
741.528	2526.34
741.713	2387.08
741.898	2466.95
742.084	2436.23
742.269	2518.15
742.454	2442.37
742.639	2364.55
742.824	2378.89
743.01	2307.21
743.195	2491.52
743.38	2342.02
743.565	2440.33
743.75	2456.71
743.935	2346.12
744.12	2413.7
744.305	2313.35
744.49	2376.84
744.675	2335.88
744.86	2307.21
745.045	2264.2
745.23	2266.25
745.415	2247.82
745.6	2165.9
745.785	2325.64
745.97	2243.72
746.155	2241.67
746.34	2210.95
746.525	2270.34
746.71	2206.86
746.895	2213
747.079	2239.62
747.264	2194.57
747.449	2149.51
747.634	2264.2
747.819	2147.47
748.003	2137.23
748.188	2098.31
748.373	2145.42
748.557	2073.74
748.742	2153.61
748.927	2086.03
749.111	2051.21
749.296	2026.64
749.481	2065.55
749.665	1936.53
749.85	2036.88
750.034	1977.48
750.219	2006.16
750.404	1965.2
750.588	1993.87
750.773	1985.68
750.957	1922.19
751.141	1903.76
751.326	1842.32
751.51	1813.65
751.695	1971.34
751.879	1862.8
752.064	1909.9
752.248	1789.07
752.432	1830.03
752.617	1782.93
752.801	1801.36
752.985	1776.78
753.17	1840.27
753.354	1801.36
753.538	1774.74
753.722	1698.96
753.907	1651.86
754.091	1711.25
754.275	1803.41
754.459	1653.91
754.643	1658
754.828	1780.88
755.012	1670.29
755.196	1608.85
755.38	1651.86
755.564	1547.41
755.748	1688.72
755.932	1621.14
756.116	1508.5
756.3	1518.74
756.484	1549.46
756.668	1514.64
756.852	1490.07
757.036	1541.27
757.22	1502.36
757.404	1516.69
757.588	1473.68
757.772	1514.64
757.956	1424.53
758.14	1508.5
758.323	1402.01
758.507	1483.92
758.691	1420.44
758.875	1455.25
759.059	1426.58
759.242	1381.53
759.426	1285.27
759.61	1391.77
759.794	1365.14
759.977	1457.3
760.161	1379.48
760.345	1328.28
760.528	1406.1
760.712	1379.48
760.895	1383.57
761.079	1295.51
761.263	1254.55
761.446	1336.47
761.63	1385.62
761.813	1371.29
761.997	1352.85
762.18	1172.63
762.364	1264.79
762.547	1307.8
762.731	1211.54
762.914	1352.85
763.098	1240.22
763.281	1178.78
763.464	1225.88
763.648	1328.28
763.831	1264.79
764.015	1211.54
764.198	1184.92
764.381	1186.97
764.564	1275.03
764.748	1133.72
764.931	1150.11
765.114	1170.58
765.297	1125.53
765.481	1150.11
765.664	1146.01
765.847	1103
766.03	1072.28
766.213	1082.52
766.397	1178.78
766.58	1156.25
766.763	1148.06
766.946	1088.67
767.129	1103
767.312	1100.95
767.495	1080.47
767.678	1107.1
767.861	1111.19
768.044	1068.19
768.227	930.97
768.41	1062.04
768.593	1121.43
768.776	1111.19
768.959	998.56
769.142	1080.47
769.324	1068.19
769.507	1035.42
769.69	953.5
769.873	951.45
770.056	1096.86
770.239	937.12
770.421	1045.66
770.604	941.21
770.787	941.21
770.97	1080.47
771.152	1033.37
771.335	1014.94
771.518	900.25
771.7	1016.99
771.883	990.36
772.066	969.88
772.248	953.5
772.431	1031.32
772.613	892.06
772.796	945.31
772.978	973.98
773.161	928.92
773.343	847.01
773.526	943.26
773.708	910.49
773.891	853.15
774.073	965.79
774.256	910.49
774.438	894.11
774.621	818.33
774.803	941.21
774.985	910.49
775.168	855.2
775.35	814.24
775.532	797.85
775.715	844.96
775.897	765.09
776.079	789.66
776.261	732.32
776.444	853.15
776.626	748.7
776.808	740.51
776.99	771.23
777.173	779.42
777.355	777.37
777.537	750.75
777.719	812.19
777.901	717.98
778.083	740.51
778.265	754.85
778.447	836.77
778.629	699.55
778.811	775.33
778.993	670.88
779.175	769.18
779.357	625.83
779.539	695.46
779.721	617.63
779.903	720.03
780.085	627.87
780.267	597.15
780.449	638.11
780.631	685.22
780.812	717.98
780.994	705.7
781.176	689.31
781.358	627.87
781.54	617.63
781.721	681.12
781.903	627.87
782.085	631.97
782.267	656.54
782.448	556.19
782.63	535.71
782.812	683.17
782.993	619.68
783.175	539.81
783.357	605.35
783.538	638.11
783.72	560.29
783.901	582.82
784.083	613.54
784.264	519.33
784.446	482.47
784.627	464.04
784.809	588.96
784.99	593.06
785.172	550.05
785.353	593.06
785.535	566.43
785.716	519.33
785.897	525.47
786.079	511.14
786.26	476.32
786.441	523.43
786.623	527.52
786.804	416.93
786.985	484.52
787.167	539.81
787.348	511.14
787.529	461.99
787.71	461.99
787.891	435.36
788.073	418.98
788.254	400.55
788.435	511.14
788.616	545.95
788.797	445.6
788.978	429.22
789.159	459.94
789.34	461.99
789.522	324.77
789.703	476.32
789.884	388.26
790.065	390.31
790.246	400.55
790.427	410.79
790.607	476.32
790.788	353.45
790.969	410.79
791.15	363.69
791.331	412.84
791.512	382.12
791.693	339.11
791.874	349.35
792.054	396.45
792.235	373.92
792.416	308.39
792.597	345.25
792.778	390.31
792.958	353.45
793.139	363.69
793.32	332.97
793.5	394.4
793.681	416.93
793.862	320.68
794.042	375.97
794.223	398.5
794.404	330.92
794.584	382.12
794.765	236.71
794.945	296.1
795.126	328.87
795.306	355.49
795.487	328.87
795.667	361.64
795.848	281.77
796.028	345.25
796.209	292.01
796.389	373.92
796.57	316.58
796.75	335.01
796.93	343.21
797.111	314.53
797.291	371.88
797.471	343.21
797.652	249
797.832	240.81
798.012	335.01
798.192	257.19
798.373	296.1
798.553	306.34
798.733	275.62
798.913	203.94
799.093	310.44
799.274	287.91
799.454	300.2
799.634	238.76
799.814	322.73
799.994	322.73
800.174	373.92
800.354	238.76
800.534	228.52
800.714	332.97
800.894	232.62
801.074	216.23
801.254	242.85
801.434	326.82
801.614	232.62
801.794	271.53
801.974	568.48
802.154	244.9
802.334	228.52
802.514	263.33
802.693	228.52
802.873	273.57
803.053	285.86
803.233	238.76
803.413	195.75
803.592	232.62
803.772	214.18
803.952	218.28
804.131	173.22
804.311	173.22
804.491	259.24
804.67	244.9
804.85	259.24
805.03	296.1
805.209	214.18
805.389	187.56
805.568	162.98
805.748	224.42
805.928	216.23
806.107	224.42
806.287	193.7
806.466	205.99
806.646	220.33
806.825	208.04
807.004	181.42
807.184	171.18
807.363	236.71
807.543	173.22
807.722	281.77
807.901	257.19
808.081	273.57
808.26	148.65
808.439	208.04
808.619	214.18
808.798	162.98
808.977	208.04
809.156	232.62
809.336	187.56
809.515	165.03
809.694	218.28
809.873	187.56
810.052	189.61
810.231	238.76
810.411	255.14
810.59	134.31
810.769	183.46
810.948	183.46
811.127	119.98
811.306	154.79
811.485	189.61
811.664	220.33
811.843	189.61
812.022	205.99
812.201	201.9
812.38	210.09
812.559	122.02
812.737	197.8
812.916	160.94
813.095	175.27
813.274	146.6
813.453	177.32
813.632	201.9
813.811	193.7
813.989	60.59
814.168	158.89
814.347	177.32
814.526	162.98
814.704	195.75
814.883	191.66
815.062	177.32
815.24	191.66
815.419	171.18
815.598	169.13
815.776	146.6
815.955	156.84
816.133	142.5
816.312	191.66
816.49	171.18
816.669	160.94
816.847	154.79
817.026	212.14
817.204	126.12
817.383	154.79
817.561	103.59
817.74	91.31
817.918	169.13
818.097	93.35
818.275	23.72
818.453	103.59
818.632	119.98
818.81	126.12
818.988	136.36
819.167	132.26
819.345	205.99
819.523	138.41
819.701	162.98
819.879	99.5
820.058	152.74
820.236	138.41
820.414	68.78
820.592	124.07
820.77	130.22
820.948	85.16
821.127	134.31
821.305	103.59
821.483	107.69
821.661	150.7
821.839	187.56
822.017	97.45
822.195	142.5
822.373	138.41
822.551	105.64
822.729	74.92
822.907	25.77
823.085	105.64
823.262	93.35
823.44	91.31
823.618	95.4
823.796	70.83
823.974	134.31
824.152	74.92
824.329	83.11
824.507	167.08
824.685	48.3
824.863	105.64
825.04	95.4
825.218	167.08
825.396	42.15
825.574	56.49
825.751	140.46
825.929	111.78
826.107	17.58
826.284	103.59
826.462	68.78
826.639	115.88
826.817	48.3
826.994	183.46
827.172	60.59
827.349	101.55
827.527	95.4
827.704	42.15
827.882	85.16
828.059	115.88
828.237	113.83
828.414	76.97
828.591	74.92
828.769	58.54
828.946	44.2
829.124	66.73
829.301	70.83
829.478	74.92
829.655	44.2
829.833	162.98
830.01	95.4
830.187	56.49
830.364	46.25
830.542	107.69
830.719	76.97
830.896	40.11
831.073	103.59
831.25	64.68
831.427	132.26
831.604	103.59
831.782	89.26
831.959	85.16
832.136	50.35
832.313	97.45
832.49	89.26
832.667	76.97
832.844	58.54
833.021	93.35
833.198	-13.14
833.374	101.55
833.551	17.58
833.728	105.64
833.905	54.44
834.082	70.83
834.259	44.2
834.436	79.02
834.612	23.72
834.789	-0.85
834.966	93.35
835.143	36.01
835.319	31.91
835.496	91.31
835.673	23.72
835.85	-13.14
836.026	19.63
836.203	17.58
836.38	27.82
836.556	91.31
836.733	27.82
836.909	109.74
837.086	101.55
837.262	58.54
837.439	9.39
837.616	54.44
837.792	89.26
837.968	21.67
838.145	36.01
838.321	15.53
838.498	19.63
838.674	103.59
838.851	-33.62
839.027	68.78
839.203	36.01
839.38	97.45
839.556	81.07
839.732	64.68
839.909	66.73
840.085	27.82
840.261	58.54
840.437	76.97
840.614	58.54
840.79	36.01
840.966	31.91
841.142	60.59
841.318	76.97
841.494	48.3
841.671	81.07
841.847	60.59
842.023	85.16
842.199	74.92
842.375	122.02
842.551	-62.29
842.727	-15.19
842.903	17.58
843.079	23.72
843.255	48.3
843.431	132.26
843.607	17.58
843.783	15.53
843.959	7.34
844.134	15.53
844.31	117.93
844.486	-4.95
844.662	48.3
844.838	11.43
845.013	29.87
845.189	17.58
845.365	46.25
845.541	-70.48
845.716	-19.29
845.892	38.06
846.068	7.34
846.244	-43.86
846.419	1.19
846.595	74.92
846.77	79.02
846.946	62.63
847.122	48.3
847.297	17.58
847.473	60.59
847.648	33.96
847.824	36.01
847.999	-4.95
848.175	13.48
848.35	-0.85
848.526	130.22
848.701	48.3
848.876	52.39
849.052	9.39
849.227	107.69
849.403	81.07
849.578	66.73
849.753	29.87
849.929	19.63
850.104	23.72
850.279	36.01
850.454	76.97
850.63	-50
850.805	-4.95
850.98	-17.24
851.155	33.96
851.33	44.2
851.505	87.21
851.681	27.82
851.856	-37.72
852.031	23.72
852.206	42.15
852.381	-31.57
852.556	64.68
852.731	109.74
852.906	52.39
853.081	3.24
853.256	-17.24
853.431	25.77
853.606	-64.34
853.781	11.43
853.956	-27.48
854.131	25.77
854.305	-27.48
854.48	33.96
854.655	-7
854.83	-76.63
855.005	-52.05
855.18	27.82
855.354	11.43
855.529	89.26
855.704	-9.05
855.879	56.49
856.053	-52.05
856.228	31.91
856.403	44.2
856.577	40.11
856.752	-33.62
856.926	25.77
857.101	33.96
857.276	42.15
857.45	23.72
857.625	-2.9
857.799	-37.72
857.974	40.11
858.148	-21.33
858.323	-68.44
858.497	-25.43
858.672	-0.85
858.846	-47.96
859.02	-31.57
859.195	40.11
859.369	-64.34
859.543	-84.82
859.718	-43.86
859.892	52.39
860.066	117.93
860.241	31.91
860.415	21.67
860.589	-13.14
860.763	36.01
860.938	5.29
861.112	56.49
861.286	50.35
861.46	9.39
861.634	48.3
861.808	44.2
861.982	5.29
862.157	7.34
862.331	60.59
862.505	-43.86
862.679	-25.43
862.853	-21.33
863.027	-25.43
863.201	50.35
863.375	15.53
863.549	-4.95
863.722	-21.33
863.896	-47.96
864.07	-11.09
864.244	31.91
864.418	3.24
864.592	-4.95
864.766	29.87
864.939	-52.05
865.113	-13.14
865.287	-21.33
865.461	7.34
865.634	-2.9
865.808	-29.52
865.982	-29.52
866.156	33.96
866.329	-7
866.503	7.34
866.676	15.53
866.85	-2.9
867.024	52.39
867.197	23.72
867.371	85.16
867.544	31.91
867.718	-35.67
867.891	-70.48
868.065	33.96
868.238	-7
868.412	91.31
868.585	-11.09
868.759	9.39
868.932	19.63
869.105	9.39
869.279	40.11
869.452	-50
869.625	-0.85
869.799	19.63
869.972	-82.77
870.145	11.43
870.319	-45.91
870.492	-7
870.665	62.63
870.838	58.54
871.011	31.91
871.185	25.77
871.358	-41.81
871.531	-19.29
871.704	3.24
871.877	48.3
872.05	9.39
872.223	-29.52
872.396	21.67
872.569	-19.29
872.742	1.19
872.915	-47.96
873.088	-35.67
873.261	-13.14
873.434	-23.38
873.607	1.19
873.78	58.54
873.953	19.63
874.126	-7
874.299	3.24
874.471	-37.72
874.644	48.3
874.817	-56.15
874.99	11.43
875.163	1.19
875.335	9.39
875.508	-41.81
875.681	-15.19
875.853	42.15
876.026	-54.1
876.199	-23.38
876.371	5.29
876.544	-9.05
876.717	-11.09
876.889	-27.48
877.062	33.96
877.234	-9.05
877.407	40.11
877.579	1.19
877.752	-29.52
877.924	21.67
878.097	-9.05
878.269	-41.81
878.442	-29.52
878.614	13.48
878.786	50.35
878.959	-72.53
879.131	1.19
879.303	50.35
879.476	25.77
879.648	15.53
879.82	42.15
879.993	-4.95
880.165	-0.85
880.337	-4.95
880.509	-13.14
880.681	21.67
880.854	40.11
881.026	-11.09
881.198	40.11
881.37	-15.19
881.542	68.78
881.714	33.96
881.886	-4.95
882.058	31.91
882.23	31.91
882.402	-21.33
882.574	48.3
882.746	-23.38
882.918	7.34
883.09	36.01
883.262	-31.57
883.434	11.43
883.606	-62.29
883.778	-47.96
883.95	29.87
884.122	-78.68
884.293	-52.05
884.465	-25.43
884.637	42.15
884.809	-45.91
884.98	-64.34
885.152	-50
885.324	-25.43
885.496	11.43
885.667	-80.72
885.839	-33.62
886.011	60.59
886.182	1.19
886.354	17.58
886.525	-56.15
886.697	7.34
886.869	-119.64
887.04	-76.63
887.212	7.34
887.383	11.43
887.555	15.53
887.726	54.44
887.897	-31.57
888.069	25.77
888.24	-64.34
888.412	42.15
888.583	-25.43
888.754	-31.57
888.926	-21.33
889.097	-25.43
889.268	-0.85
889.44	19.63
889.611	56.49
889.782	66.73
889.953	-11.09
890.125	33.96
890.296	-52.05
890.467	-35.67
890.638	27.82
890.809	-29.52
890.98	66.73
891.151	-7
891.323	79.02
891.494	-52.05
891.665	-29.52
891.836	-0.85
892.007	48.3
892.178	-7
892.349	11.43
892.52	-0.85
892.691	-35.67
892.862	-23.38
893.032	-29.52
893.203	-19.29
893.374	-64.34
893.545	25.77
893.716	7.34
893.887	66.73
894.057	-47.96
894.228	-27.48
894.399	-11.09
894.57	66.73
894.74	15.53
894.911	19.63
895.082	19.63
895.253	-37.72
895.423	-4.95
895.594	72.87
895.764	-17.24
895.935	17.58
896.106	74.92
896.276	-21.33
896.447	3.24
896.617	17.58
896.788	-54.1
896.958	-39.76
897.129	-15.19
897.299	-31.57
897.47	-0.85
897.64	66.73
897.81	-29.52
897.981	-23.38
898.151	-82.77
898.322	25.77
898.492	-13.14
898.662	-17.24
898.832	33.96
899.003	9.39
899.173	-41.81
899.343	-19.29
899.513	-47.96
