Data from USB4F104151__25__11-36-35-686.txt Node

Date: Fri Mar 14 11:36:35 EDT 2025
User: louis
Spectrometer: USB4F10415
Trigger mode: 4
Integration Time (sec): 2.000000E-2
Scans to average: 1
Electric dark correction enabled: true
Nonlinearity correction enabled: false
Boxcar width: 0
XAxis mode: Wavelengths
Number of Pixels in Spectrum: 3648
>>>>>Begin Spectral Data<<<<<
178.204	-29.87
178.424	-29.87
178.644	-29.87
178.864	-74.92
179.084	-60.59
179.304	-3.24
179.524	-64.68
179.744	-40.11
179.964	-11.43
180.184	37.72
180.404	72.53
180.624	-3.24
180.844	-5.29
181.064	23.38
181.283	-17.58
181.503	-46.25
181.723	58.2
181.943	-74.92
182.163	-9.39
182.383	-27.82
182.602	29.52
182.822	-36.01
183.042	-7.34
183.262	-27.82
183.482	35.67
183.701	35.67
183.921	101.2
184.141	47.96
184.361	21.33
184.58	2.9
184.8	29.52
185.02	-5.29
185.239	-68.78
185.459	-48.3
185.679	11.09
185.898	15.19
186.118	-58.54
186.338	70.48
186.557	7
186.777	21.33
186.997	23.38
187.216	-70.83
187.436	31.57
187.655	78.68
187.875	-1.19
188.095	4.95
188.314	-13.48
188.534	80.72
188.753	86.87
188.973	15.19
189.192	60.24
189.412	107.35
189.631	60.24
189.851	-42.15
190.07	93.01
190.29	-33.96
190.509	70.48
190.729	52.05
190.948	115.54
191.168	35.67
191.387	11.09
191.607	-19.63
191.826	4.95
192.045	72.53
192.265	37.72
192.484	56.15
192.704	-15.53
192.923	-31.91
193.142	7
193.362	82.77
193.581	80.72
193.8	-9.39
194.02	7
194.239	-33.96
194.458	54.1
194.678	29.52
194.897	35.67
195.116	29.52
195.335	23.38
195.555	-5.29
195.774	-25.77
195.993	39.76
196.212	35.67
196.432	4.95
196.651	33.62
196.87	39.76
197.089	31.57
197.308	78.68
197.528	-3.24
197.747	-29.87
197.966	37.72
198.185	72.53
198.404	-29.87
198.623	62.29
198.842	7
199.062	31.57
199.281	35.67
199.5	13.14
199.719	56.15
199.938	-5.29
200.157	31.57
200.376	-17.58
200.595	29.52
200.814	-3.24
201.033	60.24
201.252	84.82
201.471	4.95
201.69	76.63
201.909	47.96
202.128	2.9
202.347	-11.43
202.566	-25.77
202.785	35.67
203.004	54.1
203.223	97.11
203.442	-1.19
203.661	29.52
203.879	-13.48
204.098	21.33
204.317	-5.29
204.536	31.57
204.755	-3.24
204.974	41.81
205.193	31.57
205.411	39.76
205.63	-13.48
205.849	23.38
206.068	82.77
206.287	-36.01
206.505	9.05
206.724	21.33
206.943	37.72
207.162	15.19
207.381	-1.19
207.599	13.14
207.818	56.15
208.037	9.05
208.255	-5.29
208.474	33.62
208.693	21.33
208.911	29.52
209.13	45.91
209.349	-50.35
209.567	-17.58
209.786	56.15
210.005	13.14
210.223	47.96
210.442	15.19
210.661	64.34
210.879	35.67
211.098	-7.34
211.316	13.14
211.535	45.91
211.753	37.72
211.972	88.92
212.191	15.19
212.409	15.19
212.628	41.81
212.846	2.9
213.065	60.24
213.283	41.81
213.502	37.72
213.72	84.82
213.938	2.9
214.157	119.64
214.375	-1.19
214.594	43.86
214.812	64.34
215.031	68.44
215.249	39.76
215.467	45.91
215.686	9.05
215.904	23.38
216.122	23.38
216.341	74.58
216.559	60.24
216.778	97.11
216.996	31.57
217.214	39.76
217.432	4.95
217.651	43.86
217.869	11.09
218.087	-36.01
218.306	27.48
218.524	31.57
218.742	35.67
218.96	-23.72
219.179	60.24
219.397	47.96
219.615	54.1
219.833	13.14
220.051	-19.63
220.27	72.53
220.488	-25.77
220.706	127.83
220.924	-36.01
221.142	31.57
221.36	4.95
221.578	45.91
221.796	21.33
222.015	62.29
222.233	54.1
222.451	93.01
222.669	-72.87
222.887	4.95
223.105	27.48
223.323	-62.63
223.541	-9.39
223.759	66.39
223.977	31.57
224.195	11.09
224.413	2.9
224.631	-1.19
224.849	52.05
225.067	-29.87
225.285	7
225.503	74.58
225.721	31.57
225.939	50
226.157	-15.53
226.375	35.67
226.592	2.9
226.81	50
227.028	97.11
227.246	76.63
227.464	31.57
227.682	-13.48
227.9	62.29
228.117	7
228.335	35.67
228.553	52.05
228.771	47.96
228.989	33.62
229.206	97.11
229.424	25.43
229.642	17.24
229.86	70.48
230.077	60.24
230.295	-56.49
230.513	37.72
230.731	7
230.948	-19.63
231.166	47.96
231.384	19.29
231.601	19.29
231.819	25.43
232.037	31.57
232.254	-38.06
232.472	11.09
232.689	-17.58
232.907	39.76
233.125	47.96
233.342	9.05
233.56	47.96
233.777	-52.39
233.995	76.63
234.213	133.97
234.43	-9.39
234.648	4.95
234.865	-46.25
235.083	31.57
235.3	86.87
235.518	-7.34
235.735	4.95
235.953	68.44
236.17	-15.53
236.388	-13.48
236.605	0.85
236.822	29.52
237.04	52.05
237.257	103.25
237.475	47.96
237.692	-38.06
237.909	56.15
238.127	-3.24
238.344	21.33
238.562	33.62
238.779	-17.58
238.996	4.95
239.214	27.48
239.431	103.25
239.648	-9.39
239.865	33.62
240.083	25.43
240.3	37.72
240.517	2.9
240.735	88.92
240.952	21.33
241.169	27.48
241.386	105.3
241.603	27.48
241.821	52.05
242.038	103.25
242.255	-17.58
242.472	37.72
242.689	56.15
242.907	37.72
243.124	25.43
243.341	35.67
243.558	-29.87
243.775	60.24
243.992	0.85
244.209	13.14
244.426	54.1
244.643	31.57
244.86	-27.82
245.078	-9.39
245.295	107.35
245.512	13.14
245.729	45.91
245.946	68.44
246.163	7
246.38	84.82
246.597	-13.48
246.814	54.1
247.031	23.38
247.248	68.44
247.464	72.53
247.681	62.29
247.898	-33.96
248.115	43.86
248.332	45.91
248.549	62.29
248.766	56.15
248.983	64.34
249.2	7
249.417	-11.43
249.633	39.76
249.85	-25.77
250.067	15.19
250.284	99.16
250.501	68.44
250.717	2.9
250.934	37.72
251.151	-3.24
251.368	35.67
251.585	47.96
251.801	9.05
252.018	-21.67
252.235	43.86
252.451	39.76
252.668	39.76
252.885	68.44
253.102	80.72
253.318	0.85
253.535	70.48
253.752	-5.29
253.968	37.72
254.185	54.1
254.401	125.78
254.618	27.48
254.835	86.87
255.051	97.11
255.268	15.19
255.484	7
255.701	9.05
255.917	43.86
256.134	-13.48
256.351	13.14
256.567	11.09
256.784	41.81
257	-38.06
257.217	7
257.433	29.52
257.65	23.38
257.866	90.96
258.082	-21.67
258.299	-29.87
258.515	64.34
258.732	-48.3
258.948	-3.24
259.165	29.52
259.381	39.76
259.597	19.29
259.814	70.48
260.03	56.15
260.246	15.19
260.463	25.43
260.679	11.09
260.895	41.81
261.112	54.1
261.328	-11.43
261.544	9.05
261.761	56.15
261.977	-15.53
262.193	84.82
262.409	19.29
262.626	-25.77
262.842	68.44
263.058	-1.19
263.274	27.48
263.49	33.62
263.707	45.91
263.923	-19.63
264.139	7
264.355	-21.67
264.571	-1.19
264.787	31.57
265.004	136.02
265.22	-38.06
265.436	43.86
265.652	0.85
265.868	23.38
266.084	2.9
266.3	21.33
266.516	4.95
266.732	58.2
266.948	66.39
267.164	76.63
267.38	7
267.596	52.05
267.812	78.68
268.028	21.33
268.244	7
268.46	-3.24
268.676	90.96
268.892	15.19
269.108	86.87
269.324	33.62
269.54	23.38
269.756	64.34
269.972	-54.44
270.188	17.24
270.403	-3.24
270.619	15.19
270.835	37.72
271.051	72.53
271.267	11.09
271.483	-66.73
271.698	23.38
271.914	25.43
272.13	-50.35
272.346	45.91
272.562	37.72
272.777	54.1
272.993	-85.16
273.209	-74.92
273.425	72.53
273.64	27.48
273.856	-27.82
274.072	31.57
274.287	-31.91
274.503	72.53
274.719	76.63
274.934	31.57
275.15	-19.63
275.366	41.81
275.581	82.77
275.797	23.38
276.012	-17.58
276.228	45.91
276.444	35.67
276.659	76.63
276.875	7
277.09	-5.29
277.306	4.95
277.521	7
277.737	21.33
277.952	41.81
278.168	29.52
278.383	78.68
278.599	56.15
278.814	58.2
279.03	35.67
279.245	45.91
279.461	54.1
279.676	9.05
279.892	7
280.107	-21.67
280.322	25.43
280.538	21.33
280.753	-40.11
280.969	-5.29
281.184	13.14
281.399	35.67
281.615	-31.91
281.83	52.05
282.045	-42.15
282.26	66.39
282.476	-23.72
282.691	60.24
282.906	13.14
283.122	-3.24
283.337	39.76
283.552	35.67
283.767	-7.34
283.983	60.24
284.198	56.15
284.413	-5.29
284.628	37.72
284.843	15.19
285.058	7
285.274	-9.39
285.489	31.57
285.704	43.86
285.919	4.95
286.134	-13.48
286.349	58.2
286.564	39.76
286.779	82.77
286.995	35.67
287.21	21.33
287.425	64.34
287.64	64.34
287.855	45.91
288.07	23.38
288.285	101.2
288.5	97.11
288.715	11.09
288.93	29.52
289.145	62.29
289.36	25.43
289.575	84.82
289.79	101.2
290.004	7
290.219	101.2
290.434	39.76
290.649	37.72
290.864	76.63
291.079	95.06
291.294	0.85
291.509	-13.48
291.724	21.33
291.938	4.95
292.153	37.72
292.368	-21.67
292.583	45.91
292.798	-9.39
293.012	50
293.227	-1.19
293.442	15.19
293.657	56.15
293.871	64.34
294.086	27.48
294.301	60.24
294.516	15.19
294.73	-27.82
294.945	95.06
295.16	-36.01
295.374	43.86
295.589	68.44
295.804	31.57
296.018	9.05
296.233	131.92
296.447	-9.39
296.662	27.48
296.877	27.48
297.091	103.25
297.306	99.16
297.52	-1.19
297.735	17.24
297.949	37.72
298.164	66.39
298.378	39.76
298.593	95.06
298.807	-3.24
299.022	45.91
299.236	68.44
299.451	90.96
299.665	13.14
299.88	-23.72
300.094	52.05
300.309	43.86
300.523	82.77
300.737	33.62
300.952	-13.48
301.166	52.05
301.381	2.9
301.595	7
301.809	13.14
302.024	17.24
302.238	37.72
302.452	117.59
302.667	13.14
302.881	35.67
303.095	-7.34
303.309	-9.39
303.524	37.72
303.738	95.06
303.952	-7.34
304.166	33.62
304.381	13.14
304.595	43.86
304.809	4.95
305.023	43.86
305.237	-21.67
305.452	47.96
305.666	88.92
305.88	27.48
306.094	23.38
306.308	43.86
306.522	33.62
306.736	21.33
306.95	80.72
307.164	-19.63
307.379	31.57
307.593	50
307.807	31.57
308.021	97.11
308.235	13.14
308.449	-17.58
308.663	39.76
308.877	74.58
309.091	35.67
309.305	72.53
309.519	9.05
309.733	150.36
309.947	25.43
310.161	4.95
310.374	52.05
310.588	47.96
310.802	-1.19
311.016	4.95
311.23	23.38
311.444	15.19
311.658	-5.29
311.872	80.72
312.085	-15.53
312.299	78.68
312.513	62.29
312.727	58.2
312.941	-13.48
313.154	39.76
313.368	-1.19
313.582	-1.19
313.796	99.16
314.009	4.95
314.223	105.3
314.437	70.48
314.651	66.39
314.864	90.96
315.078	17.24
315.292	25.43
315.505	7
315.719	41.81
315.933	97.11
316.146	31.57
316.36	80.72
316.573	-7.34
316.787	-19.63
317.001	76.63
317.214	-33.96
317.428	15.19
317.641	78.68
317.855	33.62
318.068	70.48
318.282	31.57
318.495	19.29
318.709	39.76
318.922	56.15
319.136	23.38
319.349	15.19
319.563	4.95
319.776	19.29
319.99	23.38
320.203	35.67
320.417	15.19
320.63	39.76
320.843	101.2
321.057	52.05
321.27	35.67
321.483	43.86
321.697	43.86
321.91	35.67
322.124	62.29
322.337	-38.06
322.55	23.38
322.763	23.38
322.977	-19.63
323.19	31.57
323.403	43.86
323.617	23.38
323.83	129.88
324.043	35.67
324.256	-17.58
324.469	43.86
324.683	117.59
324.896	-27.82
325.109	-13.48
325.322	-33.96
325.535	-7.34
325.748	52.05
325.962	31.57
326.175	84.82
326.388	47.96
326.601	13.14
326.814	23.38
327.027	99.16
327.24	123.73
327.453	23.38
327.666	31.57
327.879	-11.43
328.092	64.34
328.305	62.29
328.518	62.29
328.731	62.29
328.944	39.76
329.157	-17.58
329.37	52.05
329.583	64.34
329.796	-19.63
330.009	15.19
330.222	68.44
330.435	39.76
330.648	39.76
330.861	78.68
331.073	54.1
331.286	47.96
331.499	78.68
331.712	56.15
331.925	43.86
332.138	-1.19
332.35	115.54
332.563	56.15
332.776	80.72
332.989	25.43
333.202	39.76
333.414	-13.48
333.627	76.63
333.84	47.96
334.053	21.33
334.265	54.1
334.478	17.24
334.691	60.24
334.903	41.81
335.116	84.82
335.329	9.05
335.541	97.11
335.754	121.68
335.966	60.24
336.179	58.2
336.392	35.67
336.604	27.48
336.817	76.63
337.029	60.24
337.242	-76.97
337.454	64.34
337.667	7
337.88	88.92
338.092	4.95
338.305	84.82
338.517	23.38
338.729	45.91
338.942	-1.19
339.154	13.14
339.367	90.96
339.579	64.34
339.792	23.38
340.004	35.67
340.217	64.34
340.429	33.62
340.641	15.19
340.854	-1.19
341.066	56.15
341.278	117.59
341.491	62.29
341.703	50
341.915	-11.43
342.128	58.2
342.34	47.96
342.552	93.01
342.764	86.87
342.977	37.72
343.189	70.48
343.401	37.72
343.613	-25.77
343.826	-7.34
344.038	105.3
344.25	35.67
344.462	41.81
344.674	56.15
344.886	45.91
345.099	95.06
345.311	29.52
345.523	47.96
345.735	68.44
345.947	-17.58
346.159	54.1
346.371	82.77
346.583	27.48
346.795	64.34
347.007	74.58
347.219	19.29
347.431	2.9
347.643	113.49
347.855	109.4
348.067	11.09
348.279	-3.24
348.491	64.34
348.703	101.2
348.915	62.29
349.127	52.05
349.339	68.44
349.551	60.24
349.763	60.24
349.975	31.57
350.187	115.54
350.399	95.06
350.61	105.3
350.822	127.83
351.034	35.67
351.246	66.39
351.458	31.57
351.669	95.06
351.881	39.76
352.093	13.14
352.305	105.3
352.517	68.44
352.728	21.33
352.94	-58.54
353.152	56.15
353.363	-19.63
353.575	39.76
353.787	66.39
353.999	41.81
354.21	41.81
354.422	13.14
354.633	33.62
354.845	47.96
355.057	7
355.268	115.54
355.48	78.68
355.692	9.05
355.903	4.95
356.115	58.2
356.326	47.96
356.538	39.76
356.749	109.4
356.961	58.2
357.172	47.96
357.384	4.95
357.595	72.53
357.807	82.77
358.018	11.09
358.23	58.2
358.441	56.15
358.653	76.63
358.864	47.96
359.075	21.33
359.287	93.01
359.498	78.68
359.709	60.24
359.921	29.52
360.132	11.09
360.344	-38.06
360.555	72.53
360.766	-40.11
360.977	-33.96
361.189	72.53
361.4	60.24
361.611	-1.19
361.823	37.72
362.034	-1.19
362.245	54.1
362.456	-3.24
362.667	29.52
362.879	64.34
363.09	56.15
363.301	84.82
363.512	66.39
363.723	17.24
363.935	-23.72
364.146	52.05
364.357	13.14
364.568	21.33
364.779	-9.39
364.99	60.24
365.201	23.38
365.412	31.57
365.623	95.06
365.834	21.33
366.045	58.2
366.256	31.57
366.467	35.67
366.678	43.86
366.889	50
367.1	39.76
367.311	74.58
367.522	35.67
367.733	21.33
367.944	37.72
368.155	19.29
368.366	90.96
368.577	80.72
368.788	72.53
368.999	21.33
369.209	-25.77
369.42	103.25
369.631	84.82
369.842	78.68
370.053	70.48
370.264	45.91
370.474	39.76
370.685	31.57
370.896	0.85
371.107	25.43
371.317	115.54
371.528	74.58
371.739	43.86
371.95	56.15
372.16	37.72
372.371	31.57
372.582	4.95
372.792	88.92
373.003	15.19
373.214	2.9
373.424	95.06
373.635	25.43
373.846	78.68
374.056	86.87
374.267	-31.91
374.477	70.48
374.688	43.86
374.898	27.48
375.109	70.48
375.319	17.24
375.53	47.96
375.74	70.48
375.951	25.43
376.161	52.05
376.372	95.06
376.582	4.95
376.793	23.38
377.003	107.35
377.214	37.72
377.424	54.1
377.635	-9.39
377.845	58.2
378.055	66.39
378.266	-23.72
378.476	-25.77
378.686	31.57
378.897	66.39
379.107	101.2
379.317	74.58
379.528	19.29
379.738	-38.06
379.948	11.09
380.158	138.07
380.369	60.24
380.579	50
380.789	103.25
380.999	119.64
381.21	47.96
381.42	72.53
381.63	47.96
381.84	84.82
382.05	33.62
382.261	7
382.471	62.29
382.681	23.38
382.891	101.2
383.101	50
383.311	-36.01
383.521	17.24
383.731	35.67
383.941	-25.77
384.151	47.96
384.361	88.92
384.571	86.87
384.781	35.67
384.991	54.1
385.201	39.76
385.411	23.38
385.621	88.92
385.831	52.05
386.041	54.1
386.251	37.72
386.461	86.87
386.671	127.83
386.881	74.58
387.091	4.95
387.301	54.1
387.511	72.53
387.72	68.44
387.93	41.81
388.14	93.01
388.35	105.3
388.56	52.05
388.769	78.68
388.979	131.92
389.189	88.92
389.399	78.68
389.609	21.33
389.818	80.72
390.028	64.34
390.238	97.11
390.447	80.72
390.657	68.44
390.867	111.44
391.076	93.01
391.286	35.67
391.496	136.02
391.705	2.9
391.915	111.44
392.125	15.19
392.334	64.34
392.544	56.15
392.753	56.15
392.963	45.91
393.172	119.64
393.382	39.76
393.591	84.82
393.801	101.2
394.01	72.53
394.22	146.26
394.429	54.1
394.639	11.09
394.848	129.88
395.058	41.81
395.267	88.92
395.477	88.92
395.686	125.78
395.895	56.15
396.105	117.59
396.314	90.96
396.524	125.78
396.733	72.53
396.942	181.07
397.152	174.93
397.361	105.3
397.57	47.96
397.78	148.31
397.989	185.17
398.198	72.53
398.407	35.67
398.617	80.72
398.826	111.44
399.035	168.79
399.244	121.68
399.453	152.4
399.663	103.25
399.872	146.26
400.081	133.97
400.29	133.97
400.499	82.77
400.708	133.97
400.917	152.4
401.127	101.2
401.336	64.34
401.545	54.1
401.754	82.77
401.963	144.21
402.172	95.06
402.381	156.5
402.59	121.68
402.799	68.44
403.008	68.44
403.217	97.11
403.426	179.03
403.635	176.98
403.844	115.54
404.053	176.98
404.262	150.36
404.471	195.41
404.68	150.36
404.888	138.07
405.097	144.21
405.306	166.74
405.515	136.02
405.724	133.97
405.933	187.22
406.142	123.73
406.35	195.41
406.559	252.75
406.768	181.07
406.977	250.71
407.185	156.5
407.394	234.32
407.603	187.22
407.812	150.36
408.02	203.6
408.229	256.85
408.438	228.18
408.646	262.99
408.855	314.19
409.064	250.71
409.272	203.6
409.481	326.48
409.69	273.23
409.898	291.66
410.107	297.81
410.315	375.63
410.524	297.81
410.733	285.52
410.941	402.26
411.15	416.59
411.358	359.25
411.567	430.93
411.775	457.55
411.984	385.87
412.192	408.4
412.401	449.36
412.609	463.69
412.818	480.08
413.026	502.61
413.234	553.8
413.443	557.9
413.651	578.38
413.86	590.67
414.068	496.46
414.276	668.49
414.485	639.82
414.693	658.25
414.901	613.2
415.11	748.36
415.318	772.94
415.526	729.93
415.734	768.84
415.943	772.94
416.151	830.28
416.359	906.06
416.567	858.95
416.776	965.45
416.984	985.93
417.192	1059.65
417.4	977.73
417.608	1035.08
417.817	1067.85
418.025	1110.85
418.233	1256.26
418.441	1137.48
418.649	1155.91
418.857	1321.79
419.065	1303.36
419.273	1348.42
419.481	1438.53
419.689	1375.04
419.897	1493.82
420.105	1555.26
420.313	1563.45
420.521	1633.08
420.729	1696.57
420.937	1694.52
421.145	1770.3
421.353	1923.9
421.561	1971
421.769	2009.91
421.977	2118.45
422.185	1981.24
422.393	2239.28
422.601	2306.87
422.809	2480.94
423.017	2396.98
423.224	2517.81
423.432	2583.34
423.64	2442.03
423.848	2730.8
424.056	2743.08
424.263	2906.92
424.471	2999.08
424.679	2943.78
424.887	3162.92
425.094	3228.45
425.302	3330.85
425.51	3394.34
425.718	3425.06
425.925	3560.22
426.133	3570.46
426.341	3828.51
426.548	4004.63
426.756	3975.96
426.964	4064.02
427.171	4254.48
427.379	4403.99
427.586	4512.53
427.794	4584.21
428.001	4754.19
428.209	4958.99
428.417	5051.14
428.624	5280.52
428.832	5268.23
429.039	5315.33
429.247	5344
429.454	5714.69
429.662	6220.53
429.869	5753.6
430.076	6398.71
430.284	6060.79
430.491	6249.21
430.699	6556.4
430.906	6759.15
431.114	6863.6
431.321	6687.47
431.528	7109.35
431.736	7664.35
431.943	7840.48
432.15	7658.21
432.358	7891.68
432.565	8227.54
432.772	8143.58
432.979	8674
433.187	8827.6
433.394	8841.93
433.601	9284.3
433.808	9398.98
434.016	9185.99
434.223	9804.48
434.43	10451.64
434.637	10056.38
434.844	10732.21
435.052	10980.01
435.259	11076.27
435.466	11086.51
435.673	10830.51
435.88	11508.39
436.087	12112.54
436.294	12470.94
436.501	11936.42
436.708	12063.39
436.915	12622.48
437.122	13159.05
437.329	13298.31
437.537	13611.65
437.743	13816.45
437.95	13781.64
438.157	14217.85
438.364	14797.43
438.571	15078
438.778	14770.8
438.985	16384.6
439.192	15766.12
439.399	16173.66
439.606	15909.47
439.813	16798.29
440.02	17601.1
440.227	17189.46
440.433	17443.4
440.64	17867.33
440.847	17994.31
441.054	18240.06
441.261	19368.49
441.467	19282.48
441.674	19472.94
441.881	20361.76
442.088	19884.58
442.294	19939.88
442.501	20560.41
442.708	20832.79
442.914	21817.86
443.121	22581.76
443.328	22024.71
443.534	23652.84
443.741	22897.14
443.948	22559.23
444.154	24371.68
444.361	24087.01
444.568	24285.67
444.774	24199.65
444.981	24537.57
445.187	25344.47
445.394	26339.78
445.6	26118.6
445.807	28410.28
446.013	27468.21
446.22	27888.04
446.426	28740
446.633	29020.57
446.839	30040.46
447.046	28670.37
447.252	30683.52
447.459	30534.02
447.665	30298.5
447.871	31431.03
448.078	33333.59
448.284	31371.64
448.491	32274.79
448.697	33614.16
448.903	34361.67
449.11	34308.43
449.316	33595.73
449.522	34451.78
449.728	35150.14
449.935	35356.99
450.141	35051.84
450.347	35821.87
450.553	35066.17
450.76	35848.5
450.966	36286.76
451.172	36278.57
451.378	37204.25
451.584	36352.3
451.791	36839.72
451.997	37177.63
452.203	37978.39
452.409	37959.95
452.615	38119.7
452.821	36206.89
453.027	36184.37
453.233	37859.6
453.44	36262.19
453.646	36733.22
453.852	36628.77
454.058	37503.26
454.264	36108.59
454.47	36847.91
454.676	36227.37
454.882	37486.87
455.088	34029.9
455.294	34625.86
455.5	35199.29
455.705	35608.89
455.911	33829.2
456.117	33239.39
456.323	33136.99
456.529	31523.19
456.735	32575.84
456.941	31533.43
457.147	31461.75
457.352	30341.51
457.558	29966.73
457.764	30146.95
457.97	29211.03
458.176	28938.65
458.381	28527.01
458.587	27271.61
458.793	27453.87
458.999	25813.45
459.204	27810.22
459.41	26921.4
459.616	25211.35
459.821	25582.03
460.027	25080.28
460.233	24865.24
460.438	23349.75
460.644	23933.42
460.85	22671.87
461.055	22477.31
461.261	22260.23
461.466	20548.12
461.672	19976.74
461.878	21459.47
462.083	20056.61
462.289	19751.46
462.494	19477.04
462.7	18729.53
462.905	17939.01
463.111	18608.7
463.316	18643.51
463.522	18373.18
463.727	18496.06
463.932	18444.86
464.138	18084.42
464.343	18442.81
464.549	17414.73
464.754	17953.35
464.959	17975.88
465.165	18010.69
465.37	17252.94
465.575	16734.81
465.781	17435.21
465.986	17541.71
466.191	16781.91
466.397	16630.36
466.602	15612.52
466.807	16335.45
467.012	16675.41
467.218	16208.48
467.423	15915.62
467.628	16157.28
467.833	16652.89
468.038	16116.32
468.244	15643.24
468.449	16403.04
468.654	15839.84
468.859	15698.53
469.064	15592.04
469.269	15137.39
469.474	15348.33
469.679	15563.37
469.885	15020.66
470.09	15348.33
470.295	15032.94
470.5	14817.91
470.705	14740.08
470.91	14494.33
471.115	14170.75
471.32	14641.78
471.525	14606.97
471.73	14152.32
471.935	14084.73
472.139	13611.65
472.344	13703.81
472.549	13548.17
472.754	13728.39
472.959	13134.48
473.164	12905.1
473.369	12966.54
473.574	13148.81
473.778	13087.37
473.983	12987.02
474.188	12950.16
474.393	12389.02
474.598	12374.68
474.802	12130.97
475.007	12161.69
475.212	12343.96
475.417	11692.71
475.621	11735.71
475.826	11903.65
476.031	11563.68
476.235	11573.92
476.44	11618.98
476.645	11262.63
476.849	11326.12
477.054	11211.43
477.259	11004.59
477.463	11025.07
477.668	10648.24
477.872	10910.38
478.077	10783.41
478.282	10601.14
478.486	10445.49
478.691	10322.62
478.895	10191.55
479.1	10115.77
479.304	10277.56
479.509	9939.65
479.713	10109.63
479.918	9638.59
480.122	9712.32
480.326	9751.23
480.531	9896.64
480.735	9628.35
480.94	9544.39
481.144	9874.11
481.348	9413.32
481.553	9499.33
481.757	9392.84
481.961	9642.69
482.166	9505.48
482.37	9544.39
482.574	9552.58
482.778	9358.02
482.983	9681.6
483.187	9472.71
483.391	9407.17
483.595	9466.56
483.8	9210.57
484.004	9439.94
484.208	9476.8
484.412	9431.75
484.616	9368.26
484.821	9462.47
485.025	9366.21
485.229	9384.65
485.433	9337.54
485.637	9272.01
485.841	9448.13
486.045	9421.51
486.249	9407.17
486.453	9534.15
486.657	9247.43
486.861	9401.03
487.065	9048.78
487.269	9554.63
487.473	8989.39
487.677	9487.04
487.881	9552.58
488.085	9349.83
488.289	9444.04
488.493	9276.1
488.697	9509.57
488.901	9458.37
489.105	9530.05
489.309	9417.41
489.512	9358.02
489.716	9444.04
489.92	9577.16
490.124	9485
490.328	9603.78
490.531	9368.26
490.735	9665.22
490.939	9616.07
491.143	9689.79
491.346	9677.51
491.55	9933.5
491.754	9988.8
491.958	9949.89
492.161	9716.42
492.365	9812.67
492.569	9851.58
492.772	9859.77
492.976	9906.88
493.18	10119.87
493.383	10089.15
493.587	10058.43
493.79	10285.75
493.994	10236.6
494.197	10406.58
494.401	10177.21
494.605	10416.82
494.808	10613.43
495.012	10654.39
495.215	10619.57
495.419	10691.25
495.622	10515.12
495.825	10861.23
496.029	11012.78
496.232	11195.05
496.436	10994.35
496.639	11373.22
496.843	11180.71
497.046	11451.05
497.249	11598.5
497.453	11813.54
497.656	11700.9
497.859	11768.48
498.063	11969.18
498.266	12124.83
498.469	12053.15
498.673	12286.62
498.876	12505.75
499.079	12282.52
499.282	12608.15
499.485	12737.17
499.689	12860.05
499.892	13120.14
500.095	12972.69
500.298	13382.28
500.501	13351.56
500.705	13570.69
500.908	13808.26
501.111	14054.01
501.314	14166.65
501.517	14248.57
501.72	14224
501.923	14205.56
502.126	14748.28
502.329	14998.13
502.532	15075.95
502.735	15186.54
502.938	15278.7
503.141	15227.5
503.344	15434.35
503.547	15295.08
503.75	15848.04
503.953	16089.7
504.156	16288.35
504.359	16364.12
504.562	16331.36
504.765	16816.72
504.968	16841.3
505.17	17056.34
505.373	17121.87
505.576	17349.2
505.779	17668.68
505.982	17564.23
506.185	17918.53
506.387	18037.31
506.59	18295.36
506.793	18721.34
506.996	18637.37
507.198	19073.59
507.401	18770.49
507.604	19157.55
507.807	19419.69
508.009	19616.3
508.212	19720.74
508.415	19933.73
508.617	20075.04
508.82	20498.97
509.022	20052.52
509.225	20759.06
509.428	20593.18
509.63	20982.29
509.833	21230.1
510.035	21410.32
510.238	21537.29
510.44	21754.38
510.643	22022.66
510.845	22123.01
511.048	21932.55
511.25	22493.69
511.453	22557.18
511.655	23247.35
511.858	23185.91
512.06	23138.8
512.262	23544.3
512.465	23415.28
512.667	23689.71
512.87	24588.77
513.072	24015.33
513.274	24715.74
513.477	24779.23
513.679	25233.88
513.881	24855
514.084	25620.94
514.286	25561.55
514.488	25926.09
514.69	26393.03
514.893	26472.9
515.095	26669.5
515.297	26773.95
515.499	26765.76
515.701	27238.84
515.904	27382.2
516.106	27460.02
516.308	27613.62
516.51	28281.25
516.712	28062.12
516.914	28357.03
517.116	28944.8
517.318	28840.35
517.52	29282.71
517.722	29184.41
517.925	29411.73
518.127	29643.15
518.329	29882.77
518.531	29798.8
518.733	30507.4
518.935	30701.95
519.136	30228.87
519.338	31189.37
519.54	30943.61
519.742	31345.02
519.944	31562.1
520.146	31670.64
520.348	31983.98
520.55	32332.14
520.752	32502.12
520.954	32799.07
521.155	32325.99
521.357	32809.31
521.559	33280.35
521.761	33761.62
521.963	33597.78
522.164	33499.48
522.366	34136.4
522.568	34378.06
522.77	34543.94
522.971	34801.99
523.173	34502.98
523.375	34681.16
523.576	34582.85
523.778	35125.57
523.98	35240.25
524.181	35232.06
524.383	35215.68
524.584	35957.04
524.786	35985.71
524.988	35930.42
525.189	35983.66
525.391	36778.28
525.592	36811.04
525.794	36696.36
525.995	37093.66
526.197	36942.11
526.398	37208.35
526.6	36909.35
526.801	37212.45
527.003	37900.56
527.204	37482.78
527.406	37988.63
527.607	37503.26
527.808	37562.65
528.01	37413.15
528.211	37955.86
528.412	38650.12
528.614	38109.46
528.815	38318.35
529.016	38631.69
529.218	38512.91
529.419	38619.4
529.62	38535.43
529.822	38369.55
530.023	38451.47
530.224	38998.27
530.425	38818.05
530.626	38166.8
530.828	38363.4
531.029	39182.59
531.23	38766.85
531.431	38576.39
531.632	38938.88
531.833	38764.81
532.035	38650.12
532.236	38863.11
532.437	39506.17
532.638	38723.85
532.839	39350.52
533.04	39266.56
533.241	38795.53
533.442	39727.35
533.643	39059.71
533.844	39342.33
534.045	39377.15
534.246	38766.85
534.447	39743.73
534.648	39072
534.849	39153.92
535.05	39137.54
535.251	39295.23
535.451	39174.4
535.652	39543.03
535.853	39596.28
536.054	39530.75
536.255	39559.42
536.456	39174.4
536.657	39745.78
536.857	39368.96
537.058	39297.28
537.259	39627
537.46	39665.91
537.66	39293.18
537.861	39428.35
538.062	39348.48
538.263	39213.31
538.463	39399.68
538.664	39012.61
538.865	39366.91
539.065	39631.1
539.266	39072
539.466	39815.41
539.667	38756.61
539.868	39674.1
540.068	38957.31
540.269	39389.44
540.469	39583.99
540.67	38924.55
540.87	39008.51
541.071	39098.62
541.271	39411.96
541.472	39289.09
541.672	39350.52
541.873	38650.12
542.073	38758.66
542.274	39299.33
542.474	38922.5
542.675	38816.01
542.875	39145.73
543.075	38996.23
543.276	38805.77
543.476	39338.24
543.676	38658.31
543.877	39082.24
544.077	38779.14
544.277	38846.72
544.478	38766.85
544.678	39237.89
544.878	38928.64
545.078	38861.06
545.279	38600.97
545.479	38779.14
545.679	39041.28
545.879	38770.95
546.079	38713.61
546.28	39067.91
546.48	38748.42
546.68	39067.91
546.88	38910.21
547.08	39033.09
547.28	38924.55
547.48	38707.46
547.68	39041.28
547.88	38576.39
548.081	38430.99
548.281	38705.41
548.481	38277.39
548.681	38682.89
548.881	38555.91
549.081	38457.61
549.28	38471.95
549.48	39086.34
549.68	38693.13
549.88	38838.53
550.08	38517
550.28	38326.54
550.48	38527.24
550.68	38750.47
550.88	37914.9
551.08	38637.83
551.279	38562.06
551.479	38064.4
551.679	38408.46
551.879	38504.71
552.079	38478.09
552.278	38373.64
552.478	38312.2
552.678	38240.53
552.878	38553.87
553.077	38428.94
553.277	38009.11
553.477	38512.91
553.676	38224.14
553.876	38310.16
554.076	38058.26
554.275	38095.12
554.475	37630.23
554.674	37914.9
554.874	37984.53
555.074	37601.56
555.273	38347.02
555.473	38174.99
555.672	38103.31
555.872	37955.86
556.071	37824.79
556.271	37828.88
556.47	37683.48
556.67	37304.6
556.869	37595.42
557.068	37626.14
557.268	37282.08
557.467	37859.6
557.667	37636.38
557.866	37685.53
558.065	37701.91
558.265	37605.66
558.464	37470.49
558.663	37429.53
558.863	37366.04
559.062	37771.54
559.261	36899.11
559.461	37536.02
559.66	36897.06
559.859	36905.25
560.058	36802.85
560.258	37486.87
560.457	36714.79
560.656	36708.65
560.855	36757.8
561.054	36956.45
561.253	36692.26
561.453	36692.26
561.652	36757.8
561.851	36933.92
562.05	36497.7
562.249	36258.09
562.448	36819.24
562.647	36362.54
562.846	36256.04
563.045	36309.29
563.244	35891.51
563.443	36710.69
563.642	35690.8
563.841	36282.67
564.04	35952.94
564.239	36458.79
564.438	35842.35
564.637	36311.34
564.836	36233.52
565.035	35576.12
565.234	35688.76
565.432	35369.27
565.631	35559.73
565.83	35574.07
566.029	35569.97
566.228	35320.12
566.427	35506.49
566.625	35068.22
566.824	35289.4
567.023	35588.41
567.222	34939.2
567.42	35242.3
567.619	35264.83
567.818	35031.36
568.016	34992.45
568.215	35367.23
568.414	34707.78
568.612	35047.74
568.811	34789.7
569.01	34926.91
569.208	34433.35
569.407	34967.87
569.605	34197.84
569.804	34666.82
570.002	34150.73
570.201	34818.37
570.4	34175.31
570.598	34181.45
570.797	34169.16
570.995	33990.99
571.193	33696.08
571.392	34359.63
571.59	33550.68
571.789	34210.12
571.987	33608.02
572.186	33653.08
572.384	33403.22
572.582	33825.11
572.781	33747.28
572.979	33083.74
573.177	33548.63
573.376	33390.94
573.574	32889.18
573.772	33251.67
573.971	32842.08
574.169	32860.51
574.367	32733.54
574.565	33182.04
574.763	32860.51
574.962	32751.97
575.16	32362.86
575.358	32856.42
575.556	32424.29
575.754	32629.09
575.952	32203.11
576.151	32602.47
576.349	32225.64
576.547	31951.21
576.745	32229.74
576.943	32029.04
577.141	31846.77
577.339	32127.34
577.537	31689.07
577.735	31834.48
577.933	31592.82
578.131	32084.33
578.329	31656.31
578.527	31398.26
578.725	31377.78
578.923	31797.62
579.121	31199.61
579.319	31271.29
579.516	31377.78
579.714	31355.25
579.912	30822.78
580.11	31021.44
580.308	30718.34
580.506	30652.8
580.704	30771.58
580.901	30785.92
581.099	30876.03
581.297	30480.77
581.495	30204.3
581.692	30712.19
581.89	30415.24
582.088	30456.2
582.285	30249.35
582.483	30355.85
582.681	30286.22
582.878	29739.41
583.076	29706.64
583.274	29907.34
583.471	29827.47
583.669	29700.5
583.866	29589.91
584.064	29907.34
584.262	29245.85
584.459	29671.82
584.657	29325.72
584.854	29569.43
585.052	28770.72
585.249	29116.83
585.447	29245.85
585.644	28803.49
585.841	29315.48
586.039	29225.37
586.236	28639.65
586.434	28887.45
586.631	28770.72
586.828	28604.83
587.026	28807.58
587.223	28653.98
587.42	28490.15
587.618	28533.15
587.815	28148.14
588.012	28049.83
588.21	28049.83
588.407	28219.81
588.604	28103.08
588.801	27666.86
588.999	27808.17
589.196	27597.23
589.393	28006.83
589.59	27607.47
589.787	27693.49
589.984	27414.96
590.182	27253.17
590.379	27300.28
590.576	27308.47
590.773	27257.27
590.97	26925.5
591.167	26954.17
591.364	26796.48
591.561	27173.3
591.758	26425.79
591.955	26737.09
592.152	26968.51
592.349	26718.65
592.546	26569.15
592.743	26456.51
592.94	26231.24
593.137	26096.07
593.334	26393.03
593.531	26130.89
593.727	26438.08
593.924	25932.23
594.121	25680.33
594.318	25770.44
594.515	25504.21
594.712	25711.05
594.908	25102.81
595.105	25766.35
595.302	25303.51
595.499	25467.34
595.696	25344.47
595.892	25074.13
596.089	25305.56
596.286	25422.29
596.482	25252.31
596.679	25215.44
596.876	25154.01
597.072	25051.61
597.269	24789.47
597.466	24629.73
597.662	24383.97
597.859	24719.84
598.055	24431.07
598.252	24453.6
598.448	24449.5
598.645	24527.33
598.841	23966.18
599.038	24412.64
599.234	24166.88
599.431	24076.77
599.627	23874.03
599.824	24015.33
600.02	23779.82
600.217	23740.91
600.413	23706.09
600.609	23912.94
600.806	23460.34
601.002	23587.31
601.198	23218.68
601.395	23441.9
601.591	23511.53
601.787	23347.7
601.984	22991.35
602.18	23372.27
602.376	23159.28
602.572	23015.93
602.769	23278.07
602.965	22825.47
603.161	22632.96
603.357	22671.87
603.553	22372.86
603.75	22510.08
603.946	22217.22
604.142	22512.13
604.338	22004.23
604.534	22585.85
604.73	21967.37
604.926	22311.42
605.122	22352.38
605.318	21828.1
605.514	21957.13
605.71	21787.14
605.906	22014.47
606.102	21684.75
606.298	21787.14
606.494	21719.56
606.69	21635.6
606.886	21860.87
607.082	21150.23
607.278	21641.74
607.474	21336.59
607.67	21449.23
607.866	21121.56
608.062	21477.9
608.257	21449.23
608.453	21180.95
608.649	21209.62
608.845	21361.17
609.041	20927
609.236	21174.8
609.432	20935.19
609.628	21000.72
609.824	20853.27
610.019	21127.7
610.215	20707.87
610.411	20623.9
610.606	20535.84
610.802	20916.76
610.998	20836.89
611.193	20881.94
611.389	20685.34
611.584	20455.97
611.78	20632.09
611.976	20566.56
612.171	20488.73
612.367	20259.36
612.562	20210.21
612.758	19984.93
612.953	19986.98
613.149	20484.64
613.344	20021.8
613.539	20453.92
613.735	20263.46
613.93	20249.12
614.126	19778.09
614.321	20113.95
614.517	19941.93
614.712	20038.18
614.907	19984.93
615.103	19890.73
615.298	19847.72
615.493	20107.81
615.688	19599.91
615.884	20171.3
616.079	19505.71
616.274	19980.84
616.47	19388.97
616.665	19532.33
616.86	19474.99
617.055	19694.12
617.25	19194.42
617.445	19524.14
617.641	19130.93
617.836	19399.21
618.031	18807.35
618.226	19311.15
618.421	19063.35
618.616	19192.37
618.811	18827.83
619.006	19100.21
619.201	18747.96
619.396	19102.26
619.591	18457.15
619.786	18827.83
619.981	18655.8
620.176	18893.37
620.371	18471.48
620.566	18438.72
620.761	18324.03
620.956	18367.04
621.151	17898.05
621.346	18014.79
621.541	18047.55
621.735	17965.64
621.93	17846.85
622.125	17830.47
622.32	17592.9
622.515	17795.65
622.709	17420.88
622.904	17588.81
623.099	17304.14
623.294	17449.55
623.488	17048.15
623.683	17252.94
623.878	17091.15
624.072	16863.83
624.267	16915.03
624.462	16857.68
624.656	16624.22
624.851	16476.76
625.046	16538.2
625.24	16503.39
625.435	16267.87
625.629	16095.84
625.824	16106.08
626.018	16097.89
626.213	15798.88
626.407	16073.31
626.602	15696.49
626.796	15790.69
626.991	15682.15
627.185	15374.95
627.38	15399.53
627.574	15284.84
627.768	15172.21
627.963	15245.93
628.157	14942.83
628.352	15051.38
628.546	14932.59
628.74	14924.4
628.935	14748.28
629.129	14590.58
629.323	14590.58
629.517	14473.85
629.712	14402.17
629.906	14363.26
630.1	14185.08
630.294	14228.09
630.489	14232.19
630.683	14219.9
630.877	14099.07
631.071	14158.46
631.265	13965.95
631.459	13939.33
631.653	13718.15
631.848	13669
632.042	13595.27
632.236	13734.53
632.43	13283.98
632.624	13652.61
632.818	13292.17
633.012	13204.11
633.206	13316.75
633.4	13152.91
633.594	12991.12
633.788	12925.58
633.982	13015.69
634.176	13212.3
634.369	12960.4
634.563	12614.29
634.757	12702.36
634.951	12616.34
635.145	12477.08
635.339	12665.49
635.533	12501.65
635.726	12305.05
635.92	12249.75
636.114	12235.42
636.308	12100.25
636.501	12161.69
636.695	12169.88
636.889	11870.88
637.083	11969.18
637.276	11889.31
637.47	11741.86
637.664	11666.08
637.857	11836.06
638.051	11575.97
638.244	11416.23
638.438	11463.33
638.632	11283.11
638.825	11405.99
639.019	11279.02
639.212	11240.11
639.406	11295.4
639.599	11211.43
639.793	11266.73
639.986	10916.53
640.18	11219.63
640.373	10959.53
640.567	10762.93
640.76	11037.36
640.954	10838.7
641.147	10660.53
641.34	10756.79
641.534	10615.48
641.727	10474.17
641.92	10431.16
642.114	10582.71
642.307	10465.97
642.5	10439.35
642.694	10230.46
642.887	10214.07
643.08	10222.27
643.273	10101.44
643.467	10160.83
643.66	10035.9
643.853	9915.07
644.046	9872.06
644.239	9794.24
644.432	9822.91
644.626	9661.12
644.819	9636.55
645.012	9949.89
645.205	9706.18
645.398	9566.92
645.591	9568.96
645.784	9458.37
645.977	9437.89
646.17	9489.09
646.363	9339.59
646.556	9312.97
646.749	9206.47
646.942	9188.04
647.135	9024.2
647.328	9007.82
647.521	9190.09
647.714	8987.34
647.907	8909.52
648.099	8909.52
648.292	9081.55
648.485	8805.07
648.678	8741.58
648.871	8770.26
649.064	8561.36
649.256	8737.49
649.449	8655.57
649.642	8661.71
649.835	8452.82
650.027	8540.88
650.22	8364.76
650.413	8411.86
650.605	8547.03
650.798	8186.58
650.991	8266.46
651.183	8377.05
651.376	8149.72
651.568	8248.02
651.761	8047.32
651.954	8112.86
652.146	8159.96
652.339	7946.97
652.531	7787.23
652.724	7871.2
652.916	7635.68
653.109	7770.85
653.301	7791.33
653.494	7779.04
653.686	7762.65
653.879	7744.22
654.071	7686.88
654.263	7592.67
654.456	7609.06
654.648	7662.3
654.84	7398.12
655.033	7512.8
655.225	7281.38
655.417	7305.96
655.61	7250.66
655.802	7437.03
655.994	7195.37
656.186	7267.05
656.379	7072.49
656.571	7170.79
656.763	6992.62
656.955	7144.17
657.148	6918.89
657.34	7117.54
657.532	6978.28
657.724	6879.98
657.916	6787.82
658.108	6644.46
658.3	6597.36
658.492	6855.4
658.684	6568.69
658.876	6646.51
659.068	6570.74
659.26	6648.56
659.452	6660.85
659.644	6554.35
659.836	6435.57
660.028	6511.35
660.22	6396.66
660.412	6337.27
660.604	6441.72
660.796	6462.19
660.988	6365.94
661.18	6281.97
661.372	6077.18
661.563	6241.01
661.755	6255.35
661.947	6150.9
662.139	6195.96
662.331	6013.69
662.522	6079.22
662.714	6048.51
662.906	6019.83
663.097	5946.11
663.289	5929.72
663.481	5769.98
663.673	5925.63
663.864	5753.6
664.056	5831.42
664.247	5858.04
664.439	5552.9
664.631	5772.03
664.822	5724.93
665.014	5731.07
665.205	5638.91
665.397	5579.52
665.588	5585.66
665.78	5622.53
665.971	5421.83
666.163	5542.66
666.354	5618.43
666.546	5411.59
666.737	5417.73
666.929	5307.14
667.12	5217.03
667.311	5348.1
667.503	5278.47
667.694	5292.8
667.885	5180.17
668.077	5419.78
668.268	5178.12
668.459	5231.37
668.651	5260.04
668.842	5145.35
669.033	5262.09
669.224	4969.23
669.416	5272.32
669.607	5075.72
669.798	5090.06
669.989	5077.77
670.18	5028.62
670.371	4950.79
670.563	4911.88
670.754	4913.93
670.945	4967.18
671.136	4856.59
671.327	4958.99
671.518	4905.74
671.709	4803.34
671.9	4924.17
672.091	4819.72
672.282	4895.5
672.473	4768.52
672.664	4729.61
672.855	4709.13
673.046	4848.4
673.237	4756.24
673.428	4780.81
673.619	4782.86
673.809	4635.41
674	4590.35
674.191	4746
674.382	4668.17
674.573	4623.12
674.764	4729.61
674.954	4627.21
675.145	4576.02
675.336	4588.3
675.527	4487.95
675.717	4475.67
675.908	4490
676.099	4477.71
676.289	4453.14
676.48	4358.93
676.671	4315.92
676.861	4530.96
677.052	4557.58
677.243	4229.91
677.433	4309.78
677.624	4320.02
677.814	4332.31
678.005	4266.77
678.195	4336.4
678.386	4256.53
678.576	4317.97
678.767	4373.27
678.957	4252.44
679.148	4213.53
679.338	4254.48
679.529	4307.73
679.719	4205.33
679.909	4266.77
680.1	4256.53
680.29	4213.53
680.481	4262.68
680.671	4184.85
680.861	4170.52
681.052	4115.22
681.242	4145.94
681.432	4277.01
681.622	3930.91
681.813	4160.28
682.003	4205.33
682.193	4053.78
682.383	4160.28
682.573	4047.64
682.764	4049.69
682.954	4045.59
683.144	4074.26
683.334	4053.78
683.524	3982.1
683.714	3930.91
683.904	4082.46
684.094	3943.19
684.284	3801.88
684.474	3967.77
684.664	3898.14
684.854	3961.62
685.044	3810.08
685.234	3828.51
685.424	3799.84
685.614	3867.42
685.804	3773.21
685.994	3848.99
686.184	3904.28
686.374	3857.18
686.564	3828.51
686.753	3728.16
686.943	3713.82
687.133	3844.89
687.323	3865.37
687.513	3638.05
687.702	3687.2
687.892	3607.33
688.082	3668.77
688.272	3660.57
688.461	3652.38
688.651	3511.07
688.841	3568.41
689.03	3420.96
689.22	3636
689.41	3435.3
689.599	3443.49
689.789	3601.18
689.979	3408.67
690.168	3463.97
690.358	3328.8
690.547	3363.62
690.737	3506.98
690.926	3351.33
691.116	3230.5
691.305	3420.96
691.495	3314.47
691.684	3291.94
691.874	3308.32
692.063	3275.56
692.252	3226.4
692.442	3308.32
692.631	3044.13
692.82	3070.76
693.01	3158.82
693.199	3314.47
693.388	2980.65
693.578	3197.73
693.767	3150.63
693.956	2984.74
694.146	2902.83
694.335	3007.27
694.524	3138.34
694.713	2966.31
694.902	2898.73
695.092	3040.04
695.281	2865.96
695.47	2900.78
695.659	2882.35
695.848	2976.55
696.037	2734.89
696.226	2915.11
696.415	2808.62
696.604	2876.2
696.793	2880.3
696.982	2749.23
697.171	2810.67
697.36	2820.91
697.549	2814.76
697.738	2687.79
697.927	2693.93
698.116	2810.67
698.305	2681.64
698.494	2722.6
698.683	2634.54
698.872	2700.08
699.061	2702.12
699.25	2579.25
699.438	2663.21
699.627	2736.94
699.816	2804.52
700.005	2569.01
700.193	2603.82
700.382	2757.42
700.571	2605.87
700.76	2673.45
700.948	2646.83
701.137	2562.86
701.326	2751.28
701.514	2644.78
701.703	2632.49
701.892	2482.99
702.08	2513.71
702.269	2458.42
702.457	2579.25
702.646	2591.53
702.834	2505.52
703.023	2573.1
703.212	2603.82
703.4	2564.91
703.589	2462.51
703.777	2489.14
703.965	2394.93
704.154	2575.15
704.342	2579.25
704.531	2513.71
704.719	2489.14
704.907	2609.97
705.096	2519.85
705.284	2374.45
705.472	2433.84
705.661	2403.12
705.849	2595.63
706.037	2433.84
706.226	2489.14
706.414	2439.98
706.602	2407.22
706.79	2497.33
706.979	2448.18
707.167	2444.08
707.355	2427.7
707.543	2343.73
707.731	2456.37
707.919	2356.02
708.107	2427.7
708.296	2323.25
708.484	2491.18
708.672	2433.84
708.86	2403.12
709.048	2421.55
709.236	2448.18
709.424	2493.23
709.612	2388.78
709.8	2329.39
709.988	2394.93
710.176	2403.12
710.364	2407.22
710.551	2409.26
710.739	2442.03
710.927	2526
711.115	2505.52
711.303	2511.66
711.491	2439.98
711.679	2331.44
711.866	2458.42
712.054	2468.66
712.242	2407.22
712.43	2480.94
712.617	2448.18
712.805	2384.69
712.993	2448.18
713.181	2323.25
713.368	2448.18
713.556	2546.48
713.744	2427.7
713.931	2509.62
714.119	2448.18
714.306	2399.02
714.494	2399.02
714.682	2366.26
714.869	2448.18
715.057	2374.45
715.244	2345.78
715.432	2472.75
715.619	2446.13
715.807	2474.8
715.994	2530.09
716.182	2425.65
716.369	2495.28
716.556	2521.9
716.744	2439.98
716.931	2474.8
717.119	2554.67
717.306	2442.03
717.493	2341.68
717.681	2515.76
717.868	2566.96
718.055	2544.43
718.242	2591.53
718.43	2513.71
718.617	2532.14
718.804	2505.52
718.991	2497.33
719.179	2497.33
719.366	2505.52
719.553	2552.62
719.74	2501.42
719.927	2601.77
720.114	2538.29
720.301	2517.81
720.488	2353.97
720.676	2480.94
720.863	2634.54
721.05	2595.63
721.237	2552.62
721.424	2503.47
721.611	2591.53
721.798	2468.66
721.985	2560.81
722.172	2460.46
722.358	2505.52
722.545	2558.77
722.732	2554.67
722.919	2495.28
723.106	2605.87
723.293	2595.63
723.48	2636.59
723.667	2702.12
723.853	2468.66
724.04	2601.77
724.227	2569.01
724.414	2485.04
724.6	2540.33
724.787	2538.29
724.974	2628.4
725.161	2573.1
725.347	2636.59
725.534	2519.85
725.72	2587.44
725.907	2718.51
726.094	2634.54
726.28	2622.25
726.467	2609.97
726.653	2554.67
726.84	2607.92
727.027	2663.21
727.213	2538.29
727.4	2685.74
727.586	2577.2
727.773	2616.11
727.959	2657.07
728.145	2650.92
728.332	2677.55
728.518	2712.36
728.705	2706.22
728.891	2620.21
729.077	2702.12
729.264	2698.03
729.45	2534.19
729.636	2765.61
729.823	2585.39
730.009	2726.7
730.195	2667.31
730.382	2661.16
730.568	2587.44
730.754	2587.44
730.94	2626.35
731.126	2665.26
731.313	2679.6
731.499	2579.25
731.685	2593.58
731.871	2544.43
732.057	2575.15
732.243	2673.45
732.429	2575.15
732.615	2587.44
732.801	2743.08
732.987	2734.89
733.173	2644.78
733.359	2544.43
733.545	2573.1
733.731	2593.58
733.917	2634.54
734.103	2681.64
734.289	2738.99
734.475	2659.12
734.661	2620.21
734.847	2618.16
735.033	2601.77
735.219	2663.21
735.404	2579.25
735.59	2620.21
735.776	2523.95
735.962	2685.74
736.148	2698.03
736.333	2550.57
736.519	2675.5
736.705	2573.1
736.89	2603.82
737.076	2597.68
737.262	2695.98
737.447	2663.21
737.633	2538.29
737.819	2558.77
738.004	2640.69
738.19	2556.72
738.375	2569.01
738.561	2595.63
738.747	2509.62
738.932	2560.81
739.118	2652.97
739.303	2618.16
739.489	2456.37
739.674	2519.85
739.859	2427.7
740.045	2632.49
740.23	2612.01
740.416	2534.19
740.601	2548.53
740.786	2505.52
740.972	2489.14
741.157	2472.75
741.342	2396.98
741.528	2528.05
741.713	2519.85
741.898	2552.62
742.084	2474.8
742.269	2460.46
742.454	2472.75
742.639	2556.72
742.824	2399.02
743.01	2401.07
743.195	2433.84
743.38	2546.48
743.565	2356.02
743.75	2446.13
743.935	2317.11
744.12	2331.44
744.305	2317.11
744.49	2370.35
744.675	2460.46
744.86	2319.15
745.045	2288.43
745.23	2325.3
745.415	2339.63
745.6	2331.44
745.785	2437.94
745.97	2306.87
746.155	2310.96
746.34	2448.18
746.525	2296.63
746.71	2333.49
746.895	2157.36
747.079	2206.52
747.264	2134.84
747.449	2267.95
747.634	2186.04
747.819	2227
748.003	2196.28
748.188	2149.17
748.373	2143.03
748.557	2132.79
748.742	2126.64
748.927	1975.1
749.111	2087.73
749.296	2095.93
749.481	2108.21
749.665	2116.41
749.85	2005.81
750.034	1958.71
750.219	2048.82
750.404	1923.9
750.588	2040.63
750.773	1944.38
750.957	1987.38
751.141	1893.18
751.326	1913.66
751.51	1948.47
751.695	2014.01
751.879	1901.37
752.064	1913.66
752.248	1811.26
752.432	1903.42
752.617	1925.94
752.801	1784.63
752.985	1903.42
753.17	1850.17
753.354	1743.67
753.538	1852.22
753.722	1827.64
753.907	1704.76
754.091	1731.39
754.275	1764.15
754.459	1706.81
754.643	1674.04
754.828	1682.24
755.012	1694.52
755.196	1633.08
755.38	1700.67
755.564	1643.32
755.748	1657.66
755.932	1596.22
756.116	1620.8
756.3	1631.04
756.484	1571.65
756.668	1563.45
756.852	1479.49
757.036	1512.25
757.22	1592.13
757.404	1569.6
757.588	1473.34
757.772	1569.6
757.956	1456.96
758.14	1530.69
758.323	1479.49
758.507	1434.43
758.691	1387.33
758.875	1428.29
759.059	1512.25
759.242	1422.14
759.426	1377.09
759.61	1334.08
759.794	1336.13
759.977	1524.54
760.161	1432.38
760.345	1403.71
760.528	1360.7
760.712	1372.99
760.895	1383.23
761.079	1428.29
761.263	1366.85
761.446	1387.33
761.63	1282.88
761.813	1305.41
761.997	1338.18
762.18	1262.4
762.364	1266.5
762.547	1260.35
762.731	1211.2
762.914	1235.78
763.098	1317.7
763.281	1289.03
763.464	1168.2
763.648	1219.39
763.831	1325.89
764.015	1151.81
764.198	1219.39
764.381	1209.15
764.564	1293.12
764.748	1190.72
764.931	1151.81
765.114	1094.47
765.297	1184.58
765.481	1205.06
765.664	1268.55
765.847	1155.91
766.03	1076.04
766.213	1182.53
766.397	1227.59
766.58	1200.96
766.763	1188.68
766.946	1082.18
767.129	1184.58
767.312	1112.9
767.495	1041.22
767.678	1096.52
767.861	1088.32
768.044	1104.71
768.227	1063.75
768.41	1045.32
768.593	1117
768.776	996.17
768.959	1047.37
769.142	1045.32
769.324	1030.98
769.507	1110.85
769.69	1073.99
769.873	1016.65
770.056	996.17
770.239	981.83
770.421	1084.23
770.604	1030.98
770.787	1020.74
770.97	1047.37
771.152	1051.46
771.335	969.54
771.518	940.87
771.7	1006.41
771.883	987.97
772.066	1037.13
772.248	1096.52
772.431	994.12
772.613	1024.84
772.796	908.1
772.978	992.07
773.161	922.44
773.343	891.72
773.526	908.1
773.708	928.58
773.891	914.25
774.073	926.54
774.256	858.95
774.438	904.01
774.621	936.78
774.803	916.3
774.985	883.53
775.168	871.24
775.35	858.95
775.532	854.86
775.715	858.95
775.897	879.43
776.079	871.24
776.261	781.13
776.444	840.52
776.626	832.33
776.808	817.99
776.99	764.75
777.173	774.99
777.355	817.99
777.537	807.75
777.719	781.13
777.901	785.23
778.083	826.18
778.265	768.84
778.447	779.08
778.629	789.32
778.811	684.87
778.993	736.07
779.175	764.75
779.357	744.27
779.539	746.31
779.721	754.51
779.903	758.6
780.085	611.15
780.267	637.77
780.449	645.96
780.631	705.35
780.812	668.49
780.994	723.79
781.176	641.87
781.358	641.87
781.54	668.49
781.721	617.29
781.903	682.83
782.085	619.34
782.267	637.77
782.448	662.35
782.63	752.46
782.812	623.44
782.993	602.96
783.175	662.35
783.357	629.58
783.538	570.19
783.72	680.78
783.901	621.39
784.083	660.3
784.264	631.63
784.446	506.7
784.627	508.75
784.809	480.08
784.99	609.1
785.172	559.95
785.353	562
785.535	490.32
785.716	527.18
785.897	600.91
786.079	590.67
786.26	584.52
786.441	467.79
786.623	523.09
786.804	498.51
786.985	455.5
787.167	562
787.348	545.61
787.529	494.41
787.71	539.47
787.891	408.4
788.073	463.69
788.254	443.21
788.435	531.28
788.616	486.22
788.797	432.97
788.978	480.08
789.159	424.78
789.34	490.32
789.522	596.81
789.703	400.21
789.884	430.93
790.065	445.26
790.246	467.79
790.427	359.25
790.607	465.74
790.788	379.73
790.969	398.16
791.15	400.21
791.331	457.55
791.512	410.45
791.693	353.1
791.874	400.21
792.054	398.16
792.235	531.28
792.416	369.49
792.597	418.64
792.778	475.98
792.958	363.34
793.139	418.64
793.32	338.77
793.5	330.58
793.681	389.97
793.862	363.34
794.042	355.15
794.223	359.25
794.404	324.43
794.584	324.43
794.765	369.49
794.945	389.97
795.126	371.54
795.306	346.96
795.487	314.19
795.667	320.34
795.848	334.67
796.028	306
796.209	385.87
796.389	332.62
796.57	353.1
796.75	435.02
796.93	320.34
797.111	295.76
797.291	338.77
797.471	332.62
797.652	308.05
797.832	344.91
798.012	357.2
798.192	236.37
798.373	242.51
798.553	301.9
798.733	357.2
798.913	293.71
799.093	289.62
799.274	361.3
799.454	281.43
799.634	316.24
799.814	338.77
799.994	363.34
800.174	303.95
800.354	260.95
800.534	330.58
800.714	258.9
800.894	262.99
801.074	238.42
801.254	236.37
801.434	291.66
801.614	291.66
801.794	228.18
801.974	602.96
802.154	281.43
802.334	246.61
802.514	244.56
802.693	191.31
802.873	215.89
803.053	326.48
803.233	285.52
803.413	224.08
803.592	267.09
803.772	258.9
803.952	265.04
804.131	250.71
804.311	232.27
804.491	289.62
804.67	310.1
804.85	205.65
805.03	359.25
805.209	297.81
805.389	215.89
805.568	275.28
805.748	193.36
805.928	217.94
806.107	209.75
806.287	224.08
806.466	306
806.646	222.03
806.825	232.27
807.004	287.57
807.184	228.18
807.363	301.9
807.543	287.57
807.722	238.42
807.901	283.47
808.081	189.27
808.26	187.22
808.439	174.93
808.619	269.14
808.798	203.6
808.977	293.71
809.156	254.8
809.336	244.56
809.515	179.03
809.694	205.65
809.873	236.37
810.052	205.65
810.231	172.88
810.411	211.79
810.59	281.43
810.769	234.32
810.948	191.31
811.127	158.55
811.306	170.83
811.485	156.5
811.664	217.94
811.843	176.98
812.022	123.73
812.201	162.64
812.38	187.22
812.559	131.92
812.737	156.5
812.916	113.49
813.095	162.64
813.274	213.84
813.453	168.79
813.632	123.73
813.811	179.03
813.989	213.84
814.168	152.4
814.347	174.93
814.526	213.84
814.704	119.64
814.883	189.27
815.062	105.3
815.24	154.45
815.419	119.64
815.598	101.2
815.776	136.02
815.955	201.55
816.133	170.83
816.312	172.88
816.49	187.22
816.669	174.93
816.847	156.5
817.026	152.4
817.204	121.68
817.383	127.83
817.561	144.21
817.74	117.59
817.918	244.56
818.097	144.21
818.275	119.64
818.453	275.28
818.632	176.98
818.81	158.55
818.988	162.64
819.167	140.12
819.345	176.98
819.523	203.6
819.701	140.12
819.879	164.69
820.058	181.07
820.236	131.92
820.414	197.46
820.592	107.35
820.77	170.83
820.948	152.4
821.127	211.79
821.305	168.79
821.483	164.69
821.661	144.21
821.839	195.41
822.017	150.36
822.195	168.79
822.373	131.92
822.551	95.06
822.729	174.93
822.907	127.83
823.085	133.97
823.262	109.4
823.44	148.31
823.618	93.01
823.796	123.73
823.974	82.77
824.152	58.2
824.329	168.79
824.507	199.51
824.685	123.73
824.863	80.72
825.04	105.3
825.218	64.34
825.396	111.44
825.574	127.83
825.751	80.72
825.929	146.26
826.107	113.49
826.284	80.72
826.462	129.88
826.639	148.31
826.817	70.48
826.994	146.26
827.172	103.25
827.349	62.29
827.527	86.87
827.704	131.92
827.882	136.02
828.059	109.4
828.237	138.07
828.414	88.92
828.591	47.96
828.769	47.96
828.946	148.31
829.124	144.21
829.301	99.16
829.478	72.53
829.655	78.68
829.833	84.82
830.01	86.87
830.187	35.67
830.364	31.57
830.542	136.02
830.719	113.49
830.896	119.64
831.073	7
831.25	129.88
831.427	144.21
831.604	101.2
831.782	97.11
831.959	99.16
832.136	119.64
832.313	117.59
832.49	88.92
832.667	35.67
832.844	82.77
833.021	140.12
833.198	127.83
833.374	76.63
833.551	121.68
833.728	62.29
833.905	99.16
834.082	90.96
834.259	142.16
834.436	129.88
834.612	64.34
834.789	29.52
834.966	90.96
835.143	84.82
835.319	-3.24
835.496	82.77
835.673	60.24
835.85	84.82
836.026	121.68
836.203	123.73
836.38	47.96
836.556	129.88
836.733	47.96
836.909	90.96
837.086	97.11
837.262	105.3
837.439	80.72
837.616	43.86
837.792	111.44
837.968	64.34
838.145	11.09
838.321	140.12
838.498	93.01
838.674	121.68
838.851	107.35
839.027	144.21
839.203	31.57
839.38	111.44
839.556	39.76
839.732	119.64
839.909	78.68
840.085	25.43
840.261	90.96
840.437	54.1
840.614	136.02
840.79	113.49
840.966	68.44
841.142	111.44
841.318	72.53
841.494	43.86
841.671	109.4
841.847	37.72
842.023	29.52
842.199	21.33
842.375	95.06
842.551	99.16
842.727	105.3
842.903	-9.39
843.079	138.07
843.255	56.15
843.431	37.72
843.607	113.49
843.783	56.15
843.959	80.72
844.134	17.24
844.31	113.49
844.486	47.96
844.662	60.24
844.838	19.29
845.013	60.24
845.189	19.29
845.365	7
845.541	21.33
845.716	86.87
845.892	125.78
846.068	76.63
846.244	11.09
846.419	45.91
846.595	-29.87
846.77	88.92
846.946	117.59
847.122	111.44
847.297	41.81
847.473	2.9
847.648	31.57
847.824	88.92
847.999	37.72
848.175	74.58
848.35	9.05
848.526	86.87
848.701	39.76
848.876	58.2
849.052	31.57
849.227	0.85
849.403	50
849.578	13.14
849.753	86.87
849.929	60.24
850.104	84.82
850.279	68.44
850.454	11.09
850.63	80.72
850.805	21.33
850.98	105.3
851.155	86.87
851.33	105.3
851.505	39.76
851.681	82.77
851.856	33.62
852.031	11.09
852.206	2.9
852.381	25.43
852.556	-42.15
852.731	72.53
852.906	47.96
853.081	33.62
853.256	56.15
853.431	21.33
853.606	2.9
853.781	4.95
853.956	21.33
854.131	39.76
854.305	-21.67
854.48	35.67
854.655	7
854.83	56.15
855.005	-11.43
855.18	80.72
855.354	33.62
855.529	45.91
855.704	-31.91
855.879	80.72
856.053	39.76
856.228	39.76
856.403	-1.19
856.577	-11.43
856.752	68.44
856.926	52.05
857.101	80.72
857.276	84.82
857.45	58.2
857.625	88.92
857.799	50
857.974	7
858.148	33.62
858.323	97.11
858.497	21.33
858.672	13.14
858.846	-7.34
859.02	54.1
859.195	52.05
859.369	52.05
859.543	82.77
859.718	23.38
859.892	72.53
860.066	-38.06
860.241	56.15
860.415	-29.87
860.589	-1.19
860.763	-31.91
860.938	-42.15
861.112	45.91
861.286	47.96
861.46	45.91
861.634	21.33
861.808	103.25
861.982	64.34
862.157	7
862.331	-1.19
862.505	-52.39
862.679	21.33
862.853	74.58
863.027	15.19
863.201	45.91
863.375	90.96
863.549	47.96
863.722	23.38
863.896	15.19
864.07	-38.06
864.244	13.14
864.418	56.15
864.592	64.34
864.766	21.33
864.939	-7.34
865.113	50
865.287	-13.48
865.461	56.15
865.634	-11.43
865.808	29.52
865.982	-50.35
866.156	-62.63
866.329	-13.48
866.503	109.4
866.676	25.43
866.85	68.44
867.024	45.91
867.197	117.59
867.371	-11.43
867.544	62.29
867.718	41.81
867.891	84.82
868.065	-3.24
868.238	35.67
868.412	19.29
868.585	52.05
868.759	39.76
868.932	9.05
869.105	2.9
869.279	70.48
869.452	33.62
869.625	-38.06
869.799	27.48
869.972	-19.63
870.145	13.14
870.319	-9.39
870.492	45.91
870.665	4.95
870.838	-5.29
871.011	-5.29
871.185	56.15
871.358	31.57
871.531	72.53
871.704	-31.91
871.877	-19.63
872.05	-9.39
872.223	-17.58
872.396	70.48
872.569	-3.24
872.742	23.38
872.915	-7.34
873.088	-5.29
873.261	-25.77
873.434	-11.43
873.607	35.67
873.78	4.95
873.953	35.67
874.126	-83.11
874.299	31.57
874.471	-9.39
874.644	2.9
874.817	-13.48
874.99	54.1
875.163	13.14
875.335	43.86
875.508	21.33
875.681	62.29
875.853	7
876.026	23.38
876.199	21.33
876.371	43.86
876.544	35.67
876.717	31.57
876.889	47.96
877.062	121.68
877.234	-72.87
877.407	-1.19
877.579	0.85
877.752	21.33
877.924	82.77
878.097	76.63
878.269	23.38
878.442	47.96
878.614	27.48
878.786	86.87
878.959	13.14
879.131	-3.24
879.303	0.85
879.476	-31.91
879.648	-5.29
879.82	11.09
879.993	66.39
880.165	2.9
880.337	-52.39
880.509	-29.87
880.681	47.96
880.854	-11.43
881.026	37.72
881.198	7
881.37	11.09
881.542	74.58
881.714	-25.77
881.886	-17.58
882.058	4.95
882.23	13.14
882.402	39.76
882.574	-36.01
882.746	-21.67
882.918	64.34
883.09	21.33
883.262	27.48
883.434	-66.73
883.606	15.19
883.778	90.96
883.95	56.15
884.122	52.05
884.293	-13.48
884.465	-23.72
884.637	80.72
884.809	80.72
884.98	-17.58
885.152	-1.19
885.324	31.57
885.496	-25.77
885.667	9.05
885.839	35.67
886.011	11.09
886.182	29.52
886.354	76.63
886.525	-60.59
886.697	29.52
886.869	-13.48
887.04	25.43
887.212	101.2
887.383	90.96
887.555	-46.25
887.726	9.05
887.897	-13.48
888.069	13.14
888.24	-29.87
888.412	-29.87
888.583	-17.58
888.754	-9.39
888.926	-25.77
889.097	-27.82
889.268	-36.01
889.44	-19.63
889.611	-1.19
889.782	9.05
889.953	2.9
890.125	37.72
890.296	84.82
890.467	19.29
890.638	19.29
890.809	-15.53
890.98	-101.55
891.151	37.72
891.323	47.96
891.494	-5.29
891.665	39.76
891.836	7
892.007	-68.78
892.178	17.24
892.349	9.05
892.52	-11.43
892.691	-29.87
892.862	74.58
893.032	7
893.203	9.05
893.374	11.09
893.545	9.05
893.716	25.43
893.887	19.29
894.057	-52.39
894.228	54.1
894.399	-3.24
894.57	39.76
894.74	2.9
894.911	-11.43
895.082	-9.39
895.253	-36.01
895.423	-40.11
895.594	17.24
895.764	-19.63
895.935	-25.77
896.106	-5.29
896.276	56.15
896.447	-13.48
896.617	4.95
896.788	-56.49
896.958	4.95
897.129	37.72
897.299	29.52
897.47	2.9
897.64	21.33
897.81	23.38
897.981	39.76
898.151	70.48
898.322	7
898.492	107.35
898.662	-36.01
898.832	29.52
899.003	54.1
899.173	7
899.343	7
899.513	47.96
