Data from USB4F104151__74__11-37-35-660.txt Node

Date: Fri Mar 14 11:37:35 EDT 2025
User: louis
Spectrometer: USB4F10415
Trigger mode: 4
Integration Time (sec): 2.000000E-2
Scans to average: 1
Electric dark correction enabled: true
Nonlinearity correction enabled: false
Boxcar width: 0
XAxis mode: Wavelengths
Number of Pixels in Spectrum: 3648
>>>>>Begin Spectral Data<<<<<
178.204	-50.86
178.424	-50.86
178.644	-50.86
178.864	-22.19
179.084	14.68
179.304	76.12
179.524	0.34
179.744	-13.99
179.964	43.35
180.184	-20.14
180.404	20.82
180.624	-9.9
180.844	-63.15
181.064	-32.43
181.283	4.44
181.503	-81.58
181.723	76.12
181.943	10.58
182.163	92.5
182.383	-54.95
182.602	4.44
182.822	-18.09
183.042	8.53
183.262	6.49
183.482	80.21
183.701	47.44
183.921	63.83
184.141	39.25
184.361	45.4
184.58	57.68
184.8	22.87
185.02	-24.23
185.239	-48.81
185.459	20.82
185.679	29.01
185.898	41.3
186.118	2.39
186.338	-16.04
186.557	72.02
186.777	41.3
186.997	49.49
187.216	33.11
187.436	43.35
187.655	84.31
187.875	22.87
188.095	53.59
188.314	82.26
188.534	-28.33
188.753	41.3
188.973	45.4
189.192	57.68
189.412	2.39
189.631	33.11
189.851	43.35
190.07	59.73
190.29	24.92
190.509	41.3
190.729	-16.04
190.948	90.45
191.168	104.79
191.387	74.07
191.607	-57
191.826	26.96
192.045	-42.67
192.265	-9.9
192.484	4.44
192.704	29.01
192.923	-13.99
193.142	94.55
193.362	53.59
193.581	22.87
193.8	98.64
194.02	-1.71
194.239	55.64
194.458	24.92
194.678	2.39
194.897	67.92
195.116	-26.28
195.335	78.16
195.555	22.87
195.774	39.25
195.993	88.4
196.212	-16.04
196.432	-1.71
196.651	29.01
196.87	29.01
197.089	86.36
197.308	4.44
197.528	149.84
197.747	69.97
197.966	-18.09
198.185	104.79
198.404	-1.71
198.623	72.02
198.842	84.31
199.062	108.88
199.281	35.16
199.5	37.2
199.719	65.88
199.938	-28.33
200.157	29.01
200.376	110.93
200.595	78.16
200.814	47.44
201.033	2.39
201.252	22.87
201.471	14.68
201.69	31.06
201.909	78.16
202.128	39.25
202.347	72.02
202.566	31.06
202.785	-1.71
203.004	33.11
203.223	43.35
203.442	69.97
203.661	31.06
203.879	-22.19
204.098	29.01
204.317	-50.86
204.536	22.87
204.755	10.58
204.974	72.02
205.193	47.44
205.411	84.31
205.63	57.68
205.849	-28.33
206.068	86.36
206.287	-30.38
206.505	31.06
206.724	57.68
206.943	6.49
207.162	26.96
207.381	59.73
207.599	33.11
207.818	18.77
208.037	16.73
208.255	-26.28
208.474	102.74
208.693	84.31
208.911	26.96
209.13	24.92
209.349	-13.99
209.567	12.63
209.786	59.73
210.005	26.96
210.223	-28.33
210.442	41.3
210.661	29.01
210.879	37.2
211.098	39.25
211.316	-28.33
211.535	65.88
211.753	-16.04
211.972	47.44
212.191	12.63
212.409	-40.62
212.628	47.44
212.846	53.59
213.065	35.16
213.283	35.16
213.502	-11.95
213.72	16.73
213.938	-73.39
214.157	-16.04
214.375	33.11
214.594	-18.09
214.812	-7.85
215.031	63.83
215.249	-22.19
215.467	57.68
215.686	47.44
215.904	24.92
216.122	-16.04
216.341	-9.9
216.559	-22.19
216.778	33.11
216.996	57.68
217.214	-18.09
217.432	43.35
217.651	-13.99
217.869	43.35
218.087	47.44
218.306	10.58
218.524	12.63
218.742	10.58
218.96	22.87
219.179	86.36
219.397	14.68
219.615	72.02
219.833	41.3
220.051	-13.99
220.27	24.92
220.488	86.36
220.706	106.84
220.924	41.3
221.142	37.2
221.36	33.11
221.578	82.26
221.796	24.92
222.015	-1.71
222.233	115.03
222.451	57.68
222.669	10.58
222.887	35.16
223.105	10.58
223.323	61.78
223.541	2.39
223.759	31.06
223.977	-13.99
224.195	51.54
224.413	90.45
224.631	-20.14
224.849	-34.47
225.067	55.64
225.285	-3.75
225.503	76.12
225.721	-30.38
225.939	96.6
226.157	76.12
226.375	31.06
226.592	0.34
226.81	67.92
227.028	74.07
227.246	67.92
227.464	41.3
227.682	45.4
227.9	26.96
228.117	18.77
228.335	-32.43
228.553	-40.62
228.771	33.11
228.989	84.31
229.206	-13.99
229.424	84.31
229.642	-3.75
229.86	43.35
230.077	90.45
230.295	12.63
230.513	57.68
230.731	121.17
230.948	74.07
231.166	-1.71
231.384	26.96
231.601	26.96
231.819	92.5
232.037	26.96
232.254	-3.75
232.472	39.25
232.689	-11.95
232.907	16.73
233.125	-24.23
233.342	63.83
233.56	41.3
233.777	2.39
233.995	-24.23
234.213	33.11
234.43	123.22
234.648	33.11
234.865	76.12
235.083	-44.71
235.3	76.12
235.518	22.87
235.735	49.49
235.953	37.2
236.17	53.59
236.388	37.2
236.605	45.4
236.822	-1.71
237.04	4.44
237.257	74.07
237.475	55.64
237.692	84.31
237.909	94.55
238.127	98.64
238.344	82.26
238.562	6.49
238.779	31.06
238.996	59.73
239.214	12.63
239.431	57.68
239.648	49.49
239.865	135.51
240.083	39.25
240.3	26.96
240.517	-59.05
240.735	59.73
240.952	47.44
241.169	24.92
241.386	41.3
241.603	74.07
241.821	24.92
242.038	22.87
242.255	76.12
242.472	35.16
242.689	90.45
242.907	29.01
243.124	37.2
243.341	59.73
243.558	-57
243.775	24.92
243.992	-22.19
244.209	12.63
244.426	61.78
244.643	18.77
244.86	84.31
245.078	59.73
245.295	-3.75
245.512	45.4
245.729	67.92
245.946	20.82
246.163	-22.19
246.38	14.68
246.597	69.97
246.814	92.5
247.031	-7.85
247.248	90.45
247.464	59.73
247.681	18.77
247.898	80.21
248.115	24.92
248.332	18.77
248.549	80.21
248.766	51.54
248.983	106.84
249.2	29.01
249.417	22.87
249.633	63.83
249.85	84.31
250.067	24.92
250.284	69.97
250.501	76.12
250.717	67.92
250.934	26.96
251.151	45.4
251.368	61.78
251.585	37.2
251.801	80.21
252.018	16.73
252.235	-5.8
252.451	-18.09
252.668	33.11
252.885	31.06
253.102	82.26
253.318	-1.71
253.535	31.06
253.752	26.96
253.968	-18.09
254.185	31.06
254.401	22.87
254.618	24.92
254.835	145.75
255.051	39.25
255.268	92.5
255.484	12.63
255.701	31.06
255.917	76.12
256.134	2.39
256.351	16.73
256.567	49.49
256.784	31.06
257	49.49
257.217	22.87
257.433	67.92
257.65	24.92
257.866	67.92
258.082	53.59
258.299	84.31
258.515	72.02
258.732	67.92
258.948	0.34
259.165	-5.8
259.381	74.07
259.597	100.69
259.814	35.16
260.03	-46.76
260.246	76.12
260.463	98.64
260.679	80.21
260.895	22.87
261.112	-13.99
261.328	59.73
261.544	76.12
261.761	69.97
261.977	84.31
262.193	72.02
262.409	67.92
262.626	84.31
262.842	-7.85
263.058	31.06
263.274	47.44
263.49	65.88
263.707	74.07
263.923	2.39
264.139	24.92
264.355	43.35
264.571	53.59
264.787	57.68
265.004	53.59
265.22	6.49
265.436	55.64
265.652	-28.33
265.868	43.35
266.084	22.87
266.3	33.11
266.516	18.77
266.732	43.35
266.948	-9.9
267.164	61.78
267.38	92.5
267.596	37.2
267.812	96.6
268.028	-9.9
268.244	74.07
268.46	33.11
268.676	-1.71
268.892	125.27
269.108	-5.8
269.324	2.39
269.54	-7.85
269.756	106.84
269.972	26.96
270.188	29.01
270.403	14.68
270.619	4.44
270.835	31.06
271.051	24.92
271.267	74.07
271.483	104.79
271.698	16.73
271.914	26.96
272.13	26.96
272.346	88.4
272.562	35.16
272.777	88.4
272.993	16.73
273.209	41.3
273.425	45.4
273.64	92.5
273.856	67.92
274.072	45.4
274.287	47.44
274.503	137.56
274.719	43.35
274.934	2.39
275.15	67.92
275.366	86.36
275.581	51.54
275.797	65.88
276.012	33.11
276.228	53.59
276.444	29.01
276.659	80.21
276.875	-1.71
277.09	29.01
277.306	78.16
277.521	39.25
277.737	76.12
277.952	45.4
278.168	67.92
278.383	-18.09
278.599	10.58
278.814	74.07
279.03	6.49
279.245	47.44
279.461	74.07
279.676	26.96
279.892	49.49
280.107	16.73
280.322	-13.99
280.538	31.06
280.753	35.16
280.969	78.16
281.184	6.49
281.399	69.97
281.615	26.96
281.83	-7.85
282.045	-3.75
282.26	41.3
282.476	108.88
282.691	92.5
282.906	-26.28
283.122	57.68
283.337	49.49
283.552	76.12
283.767	8.53
283.983	104.79
284.198	35.16
284.413	41.3
284.628	6.49
284.843	20.82
285.058	24.92
285.274	76.12
285.489	35.16
285.704	43.35
285.919	69.97
286.134	24.92
286.349	-22.19
286.564	55.64
286.779	20.82
286.995	82.26
287.21	-28.33
287.425	31.06
287.64	53.59
287.855	47.44
288.07	26.96
288.285	26.96
288.5	61.78
288.715	37.2
288.93	129.36
289.145	8.53
289.36	2.39
289.575	-65.19
289.79	31.06
290.004	-24.23
290.219	67.92
290.434	74.07
290.649	-1.71
290.864	29.01
291.079	2.39
291.294	45.4
291.509	59.73
291.724	-13.99
291.938	49.49
292.153	53.59
292.368	22.87
292.583	18.77
292.798	20.82
293.012	78.16
293.227	22.87
293.442	16.73
293.657	112.98
293.871	63.83
294.086	84.31
294.301	53.59
294.516	-16.04
294.73	12.63
294.945	45.4
295.16	12.63
295.374	69.97
295.589	115.03
295.804	82.26
296.018	37.2
296.233	59.73
296.447	-5.8
296.662	6.49
296.877	74.07
297.091	121.17
297.306	-20.14
297.52	14.68
297.735	110.93
297.949	57.68
298.164	53.59
298.378	53.59
298.593	51.54
298.807	16.73
299.022	39.25
299.236	143.7
299.451	67.92
299.665	31.06
299.88	-26.28
300.094	43.35
300.309	51.54
300.523	59.73
300.737	10.58
300.952	76.12
301.166	47.44
301.381	39.25
301.595	-20.14
301.809	8.53
302.024	-5.8
302.238	-32.43
302.452	39.25
302.667	-5.8
302.881	102.74
303.095	-3.75
303.309	59.73
303.524	76.12
303.738	24.92
303.952	74.07
304.166	20.82
304.381	-7.85
304.595	76.12
304.809	61.78
305.023	63.83
305.237	92.5
305.452	16.73
305.666	-28.33
305.88	59.73
306.094	61.78
306.308	51.54
306.522	76.12
306.736	78.16
306.95	86.36
307.164	4.44
307.379	-1.71
307.593	96.6
307.807	18.77
308.021	-5.8
308.235	24.92
308.449	26.96
308.663	88.4
308.877	119.12
309.091	67.92
309.305	33.11
309.519	-9.9
309.733	80.21
309.947	-42.67
310.161	35.16
310.374	-18.09
310.588	119.12
310.802	-50.86
311.016	43.35
311.23	24.92
311.444	59.73
311.658	47.44
311.872	18.77
312.085	84.31
312.299	41.3
312.513	49.49
312.727	49.49
312.941	35.16
313.154	76.12
313.368	61.78
313.582	35.16
313.796	22.87
314.009	45.4
314.223	39.25
314.437	65.88
314.651	49.49
314.864	57.68
315.078	108.88
315.292	55.64
315.505	-11.95
315.719	10.58
315.933	57.68
316.146	26.96
316.36	-5.8
316.573	67.92
316.787	49.49
317.001	41.3
317.214	24.92
317.428	100.69
317.641	86.36
317.855	35.16
318.068	10.58
318.282	104.79
318.495	102.74
318.709	55.64
318.922	86.36
319.136	76.12
319.349	20.82
319.563	57.68
319.776	41.3
319.99	41.3
320.203	22.87
320.417	35.16
320.63	53.59
320.843	67.92
321.057	61.78
321.27	82.26
321.483	20.82
321.697	67.92
321.91	37.2
322.124	49.49
322.337	18.77
322.55	2.39
322.763	76.12
322.977	61.78
323.19	61.78
323.403	41.3
323.617	43.35
323.83	69.97
324.043	39.25
324.256	65.88
324.469	45.4
324.683	78.16
324.896	125.27
325.109	31.06
325.322	-16.04
325.535	35.16
325.748	115.03
325.962	57.68
326.175	80.21
326.388	86.36
326.601	51.54
326.814	-5.8
327.027	22.87
327.24	92.5
327.453	63.83
327.666	2.39
327.879	33.11
328.092	102.74
328.305	18.77
328.518	26.96
328.731	-5.8
328.944	53.59
329.157	98.64
329.37	80.21
329.583	100.69
329.796	61.78
330.009	100.69
330.222	94.55
330.435	92.5
330.648	4.44
330.861	41.3
331.073	-1.71
331.286	31.06
331.499	88.4
331.712	-28.33
331.925	65.88
332.138	18.77
332.35	49.49
332.563	61.78
332.776	158.03
332.989	-22.19
333.202	0.34
333.414	0.34
333.627	37.2
333.84	47.44
334.053	24.92
334.265	53.59
334.478	-9.9
334.691	12.63
334.903	59.73
335.116	41.3
335.329	49.49
335.541	8.53
335.754	51.54
335.966	65.88
336.179	29.01
336.392	39.25
336.604	-7.85
336.817	41.3
337.029	49.49
337.242	90.45
337.454	24.92
337.667	47.44
337.88	-5.8
338.092	41.3
338.305	86.36
338.517	4.44
338.729	72.02
338.942	16.73
339.154	78.16
339.367	8.53
339.579	6.49
339.792	8.53
340.004	69.97
340.217	18.77
340.429	76.12
340.641	-20.14
340.854	6.49
341.066	69.97
341.278	43.35
341.491	141.65
341.703	100.69
341.915	14.68
342.128	59.73
342.34	59.73
342.552	53.59
342.764	35.16
342.977	123.22
343.189	22.87
343.401	14.68
343.613	59.73
343.826	39.25
344.038	63.83
344.25	63.83
344.462	51.54
344.674	82.26
344.886	96.6
345.099	82.26
345.311	139.6
345.523	53.59
345.735	51.54
345.947	88.4
346.159	14.68
346.371	51.54
346.583	31.06
346.795	53.59
347.007	24.92
347.219	18.77
347.431	-22.19
347.643	80.21
347.855	18.77
348.067	92.5
348.279	51.54
348.491	41.3
348.703	55.64
348.915	61.78
349.127	8.53
349.339	63.83
349.551	53.59
349.763	20.82
349.975	-1.71
350.187	90.45
350.399	39.25
350.61	8.53
350.822	10.58
351.034	78.16
351.246	4.44
351.458	67.92
351.669	65.88
351.881	10.58
352.093	76.12
352.305	125.27
352.517	84.31
352.728	57.68
352.94	72.02
353.152	35.16
353.363	12.63
353.575	26.96
353.787	74.07
353.999	20.82
354.21	108.88
354.422	22.87
354.633	86.36
354.845	-18.09
355.057	31.06
355.268	63.83
355.48	31.06
355.692	4.44
355.903	14.68
356.115	-18.09
356.326	51.54
356.538	39.25
356.749	69.97
356.961	80.21
357.172	2.39
357.384	61.78
357.595	88.4
357.807	61.78
358.018	-1.71
358.23	74.07
358.441	100.69
358.653	33.11
358.864	49.49
359.075	18.77
359.287	61.78
359.498	92.5
359.709	33.11
359.921	65.88
360.132	18.77
360.344	96.6
360.555	67.92
360.766	59.73
360.977	24.92
361.189	82.26
361.4	84.31
361.611	174.42
361.823	43.35
362.034	-7.85
362.245	43.35
362.456	55.64
362.667	6.49
362.879	45.4
363.09	80.21
363.301	22.87
363.512	55.64
363.723	92.5
363.935	96.6
364.146	115.03
364.357	55.64
364.568	112.98
364.779	55.64
364.99	84.31
365.201	39.25
365.412	92.5
365.623	0.34
365.834	43.35
366.045	88.4
366.256	90.45
366.467	10.58
366.678	67.92
366.889	43.35
367.1	106.84
367.311	88.4
367.522	84.31
367.733	39.25
367.944	100.69
368.155	41.3
368.366	63.83
368.577	76.12
368.788	127.32
368.999	90.45
369.209	43.35
369.42	2.39
369.631	86.36
369.842	65.88
370.053	110.93
370.264	16.73
370.474	-5.8
370.685	33.11
370.896	108.88
371.107	2.39
371.317	88.4
371.528	43.35
371.739	55.64
371.95	12.63
372.16	80.21
372.371	63.83
372.582	14.68
372.792	18.77
373.003	155.99
373.214	72.02
373.424	59.73
373.635	98.64
373.846	51.54
374.056	49.49
374.267	65.88
374.477	59.73
374.688	61.78
374.898	82.26
375.109	65.88
375.319	100.69
375.53	65.88
375.74	88.4
375.951	76.12
376.161	63.83
376.372	80.21
376.582	45.4
376.793	35.16
377.003	35.16
377.214	-3.75
377.424	78.16
377.635	106.84
377.845	61.78
378.055	63.83
378.266	63.83
378.476	16.73
378.686	24.92
378.897	96.6
379.107	125.27
379.317	59.73
379.528	47.44
379.738	74.07
379.948	112.98
380.158	67.92
380.369	76.12
380.579	106.84
380.789	16.73
380.999	67.92
381.21	82.26
381.42	160.08
381.63	57.68
381.84	78.16
382.05	61.78
382.261	55.64
382.471	137.56
382.681	74.07
382.891	45.4
383.101	74.07
383.311	43.35
383.521	53.59
383.731	59.73
383.941	47.44
384.151	22.87
384.361	29.01
384.571	98.64
384.781	43.35
384.991	63.83
385.201	35.16
385.411	47.44
385.621	10.58
385.831	61.78
386.041	51.54
386.251	-40.62
386.461	96.6
386.671	51.54
386.881	49.49
387.091	31.06
387.301	88.4
387.511	127.32
387.72	160.08
387.93	78.16
388.14	43.35
388.35	67.92
388.56	125.27
388.769	90.45
388.979	123.22
389.189	45.4
389.399	63.83
389.609	115.03
389.818	115.03
390.028	57.68
390.238	112.98
390.447	115.03
390.657	180.56
390.867	104.79
391.076	55.64
391.286	72.02
391.496	92.5
391.705	51.54
391.915	141.65
392.125	59.73
392.334	110.93
392.544	115.03
392.753	125.27
392.963	67.92
393.172	74.07
393.382	82.26
393.591	82.26
393.801	92.5
394.01	147.8
394.22	125.27
394.429	88.4
394.639	88.4
394.848	141.65
395.058	43.35
395.267	121.17
395.477	131.41
395.686	67.92
395.895	112.98
396.105	141.65
396.314	88.4
396.524	192.85
396.733	96.6
396.942	151.89
397.152	168.27
397.361	117.08
397.57	176.47
397.78	92.5
397.989	100.69
398.198	158.03
398.407	155.99
398.617	41.3
398.826	92.5
399.035	129.36
399.244	96.6
399.453	172.37
399.663	61.78
399.872	125.27
400.081	119.12
400.29	102.74
400.499	104.79
400.708	158.03
400.917	94.55
401.127	184.66
401.336	80.21
401.545	201.04
401.754	174.42
401.963	115.03
402.172	164.18
402.381	174.42
402.59	178.51
402.799	155.99
403.008	153.94
403.217	188.75
403.426	164.18
403.635	78.16
403.844	141.65
404.053	123.22
404.262	115.03
404.471	194.9
404.68	192.85
404.888	190.8
405.097	198.99
405.306	205.14
405.515	188.75
405.724	256.34
405.933	190.8
406.142	217.43
406.35	155.99
406.559	270.67
406.768	170.32
406.977	289.1
407.185	213.33
407.394	325.97
407.603	166.23
407.812	244.05
408.02	192.85
408.229	264.53
408.438	246.1
408.646	262.48
408.855	315.73
409.064	301.39
409.272	278.87
409.481	346.45
409.69	301.39
409.898	364.88
410.107	235.86
410.315	385.36
410.524	391.5
410.733	418.13
410.941	428.37
411.15	391.5
411.358	491.85
411.567	500.05
411.775	463.18
411.984	430.41
412.192	534.86
412.401	512.33
412.609	528.72
412.818	569.68
413.026	606.54
413.234	622.92
413.443	567.63
413.651	649.55
413.86	606.54
414.068	655.69
414.276	717.13
414.485	727.37
414.693	788.81
414.901	735.56
415.11	829.77
415.318	745.8
415.526	860.49
415.734	821.58
415.943	1018.18
416.151	952.65
416.359	1001.8
416.567	1098.05
416.776	1087.81
416.984	1145.16
417.192	1114.44
417.4	1079.62
417.608	1059.14
417.817	1173.83
418.025	1349.95
418.233	1364.29
418.441	1358.14
418.649	1382.72
418.857	1468.73
419.065	1521.98
419.273	1427.78
419.481	1534.27
419.689	1657.15
419.897	1814.84
420.105	1712.44
420.313	1841.47
420.521	1878.33
420.729	1894.71
420.937	1929.53
421.145	2040.12
421.353	2154.8
421.561	2177.33
421.769	2341.17
421.977	2308.4
422.185	2261.3
422.393	2591.02
422.601	2677.04
422.809	2621.74
423.017	2668.84
423.224	2599.21
423.432	2873.64
423.64	2990.38
423.848	3111.21
424.056	3184.93
424.263	3287.33
424.471	3242.28
424.679	3383.59
424.887	3463.46
425.094	3610.91
425.302	3672.35
425.51	3701.02
425.718	3901.72
425.925	3934.49
426.133	4057.37
426.341	4358.42
426.548	4503.82
426.756	4548.88
426.964	4507.92
427.171	4884.75
427.379	5064.97
427.586	5134.6
427.794	5200.13
428.001	5474.56
428.209	5810.43
428.417	5576.96
428.624	5941.5
428.832	6103.29
429.039	5796.09
429.247	6039.8
429.454	6523.12
429.662	6717.68
429.869	6543.6
430.076	7022.83
430.284	6809.84
430.491	6969.58
430.699	7334.12
430.906	7389.41
431.114	7567.59
431.321	7739.62
431.528	7876.83
431.736	8456.4
431.943	8870.09
432.15	8675.54
432.358	8798.42
432.565	9146.57
432.772	9285.83
432.979	9545.92
433.187	9771.2
433.394	9752.77
433.601	10539.19
433.808	10604.72
434.016	10354.87
434.223	10948.78
434.43	11493.54
434.637	11460.77
434.844	12079.26
435.052	12171.42
435.259	12183.71
435.466	12417.18
435.673	12300.44
435.88	13111.44
436.087	13680.77
436.294	13686.92
436.501	13338.76
436.708	13682.82
436.915	13901.95
437.122	14823.54
437.329	14534.78
437.537	15321.2
437.743	15102.06
437.95	15247.47
438.157	16009.31
438.364	16758.87
438.571	16539.74
438.778	16689.24
438.985	17991.75
439.192	17336.4
439.399	18055.23
439.606	17596.49
439.813	18466.88
440.02	19777.58
440.227	19404.85
440.433	19126.32
440.64	19537.96
440.847	19816.49
441.054	20224.03
441.261	21403.66
441.467	21207.06
441.674	21561.36
441.881	22392.83
442.088	22550.53
442.294	22153.22
442.501	22931.45
442.708	23240.69
442.914	24350.69
443.121	25184.21
443.328	24477.66
443.534	26304.45
443.741	25694.16
443.948	25151.45
444.154	27160.5
444.361	27047.86
444.568	27176.89
444.774	27031.48
444.981	27320.24
445.187	28202.92
445.394	29380.5
445.6	29046.68
445.807	31551.35
446.013	30576.51
446.22	31080.32
446.426	32030.57
446.633	32466.79
446.839	33318.74
447.046	32149.35
447.252	34025.29
447.459	33933.14
447.665	33709.91
447.871	35245.88
448.078	36888.35
448.284	34948.93
448.491	36028.21
448.697	37213.98
448.903	37654.29
449.11	38158.1
449.316	37426.97
449.522	38250.25
449.728	38942.47
449.935	39409.4
450.141	39261.95
450.347	40437.48
450.553	38768.39
450.76	39147.26
450.966	40449.77
451.172	40296.17
451.378	41012.96
451.584	40507.12
451.791	41344.73
451.997	41098.98
452.203	41778.9
452.409	42030.8
452.615	41379.55
452.821	40306.41
453.027	40046.32
453.233	42041.04
453.44	40537.83
453.646	40918.76
453.852	40470.25
454.058	41303.78
454.264	40310.51
454.47	40990.44
454.676	40027.89
454.882	41443.04
455.088	38082.32
455.294	38219.53
455.5	38561.54
455.705	39177.98
455.911	37617.43
456.117	37091.1
456.323	36470.57
456.529	34516.81
456.735	36007.73
456.941	35180.35
457.147	34516.81
457.352	33873.74
457.558	33513.3
457.764	33419.1
457.97	33095.52
458.176	31948.65
458.381	31612.79
458.587	30584.71
458.793	30230.41
458.999	28735.39
459.204	30963.58
459.41	30242.7
459.616	28207.01
459.821	28422.05
460.027	28170.15
460.233	27678.64
460.438	25798.6
460.644	26527.68
460.85	25364.43
461.055	24801.24
461.261	24600.54
461.466	22499.33
461.672	22175.75
461.878	23941.1
462.083	22296.58
462.289	21913.61
462.494	21377.04
462.7	20615.19
462.905	20148.26
463.111	20731.93
463.316	20822.04
463.522	20082.72
463.727	20484.12
463.932	20588.57
464.138	20097.06
464.343	20451.36
464.549	19945.51
464.754	20060.2
464.959	20101.15
465.165	20006.95
465.37	19118.13
465.575	18587.71
465.781	19626.03
465.986	19558.44
466.191	18581.56
466.397	18262.08
466.602	17205.33
466.807	18421.82
467.012	18079.81
467.218	18053.19
467.423	17817.67
467.628	18276.41
467.833	18784.31
468.038	17915.97
468.244	17651.78
468.449	18059.33
468.654	17514.57
468.859	17635.4
469.064	17412.17
469.269	16738.39
469.474	16959.57
469.679	17342.54
469.885	16758.87
470.09	16939.09
470.295	16818.26
470.5	16394.33
470.705	16568.41
470.91	16060.51
471.115	15831.14
471.32	16103.52
471.525	16054.37
471.73	15825
471.935	15835.24
472.139	15036.53
472.344	15511.66
472.549	15390.83
472.754	14813.3
472.959	14809.2
473.164	14348.41
473.369	14342.27
473.574	14749.81
473.778	14661.75
473.983	14606.45
474.188	14405.75
474.393	13842.56
474.598	14143.61
474.802	13639.81
475.007	13645.96
475.212	13478.02
475.417	13174.92
475.621	13050
475.826	13254.8
476.031	13011.09
476.235	12845.2
476.44	12900.5
476.645	12456.09
476.849	12695.7
477.054	12443.8
477.259	12157.08
477.463	12306.59
477.668	12028.06
477.872	11966.62
478.077	12048.54
478.282	11647.14
478.486	11421.86
478.691	11626.66
478.895	11464.87
479.1	11217.07
479.304	11237.55
479.509	11108.52
479.713	11141.29
479.918	10877.1
480.122	10733.75
480.326	11010.22
480.531	11118.76
480.735	10879.15
480.94	10758.32
481.144	11065.52
481.348	10653.87
481.553	10604.72
481.757	10514.61
481.961	10621.11
482.166	10981.55
482.37	10485.94
482.574	10451.13
482.778	10303.67
482.983	10709.17
483.187	10610.87
483.391	10602.68
483.595	10416.31
483.8	10332.34
484.004	10608.82
484.208	10504.37
484.412	10268.86
484.616	10340.54
484.821	10336.44
485.025	10492.09
485.229	10838.19
485.433	10367.16
485.637	10430.65
485.841	10576.05
486.045	10617.01
486.249	10485.94
486.453	10404.02
486.657	10576.05
486.861	10557.62
487.065	10258.62
487.269	10352.82
487.473	10211.51
487.677	10424.5
487.881	10442.93
488.085	10426.55
488.289	10358.97
488.493	10524.85
488.697	10422.45
488.901	10487.99
489.105	10625.2
489.309	10578.1
489.512	10639.54
489.716	10469.56
489.92	10668.21
490.124	10408.12
490.328	10797.23
490.531	10666.16
490.735	10789.04
490.939	10727.6
491.143	10569.91
491.346	10864.82
491.55	10975.41
491.754	10868.91
491.958	10827.95
492.161	10913.97
492.365	11004.08
492.569	10959.02
492.772	11059.37
492.976	11012.27
493.18	11104.43
493.383	11249.83
493.587	11204.78
493.79	11325.61
493.994	11329.7
494.197	11561.12
494.401	11608.23
494.605	11546.79
494.808	11772.07
495.012	11845.79
495.215	11817.12
495.419	11917.47
495.622	11849.89
495.825	12040.35
496.029	12204.19
496.232	12302.49
496.436	12224.67
496.639	12451.99
496.843	12431.51
497.046	12789.91
497.249	12990.61
497.453	12798.1
497.656	12986.51
497.859	12998.8
498.063	12943.5
498.266	13648.01
498.469	13547.65
498.673	13486.22
498.876	13719.68
499.079	13852.8
499.282	13908.1
499.485	14153.85
499.689	14356.6
499.892	14418.04
500.095	14418.04
500.298	14882.93
500.501	14700.66
500.705	15044.72
500.908	15171.69
501.111	15493.22
501.314	15476.84
501.517	15671.4
501.72	15939.68
501.923	15870.05
502.126	16132.19
502.329	16328.8
502.532	16271.45
502.735	16552.02
502.938	17033.3
503.141	16896.08
503.344	17315.92
503.547	17352.78
503.75	17754.18
503.953	17649.74
504.156	17717.32
504.359	18083.91
504.562	18044.99
504.765	18868.28
504.968	18616.38
505.17	18927.67
505.373	19060.79
505.576	19605.55
505.779	19494.96
505.982	19494.96
506.185	19931.17
506.387	20129.83
506.59	20164.64
506.793	20490.27
506.996	20404.25
507.198	21071.89
507.401	20854.81
507.604	21047.32
507.807	21647.37
508.009	21530.64
508.212	21643.28
508.415	21946.37
508.617	22353.92
508.82	22669.31
509.022	22413.31
509.225	23037.94
509.428	23189.49
509.63	23324.66
509.833	23474.16
510.035	23998.44
510.238	23676.91
510.44	24182.76
510.643	24582.11
510.845	24739.8
511.048	24569.82
511.25	24987.61
511.453	25145.3
511.655	26056.65
511.858	25503.7
512.06	25907.15
512.262	26154.95
512.465	26210.25
512.667	26406.85
512.87	27056.06
513.072	27086.78
513.274	27463.6
513.477	27539.38
513.679	27645.87
513.881	28024.75
514.084	28473.25
514.286	28499.87
514.488	28528.55
514.69	29274.01
514.893	29284.25
515.095	29251.48
515.297	29769.62
515.499	29779.85
515.701	30162.83
515.904	30386.05
516.106	30513.03
516.308	30668.67
516.51	31111.03
516.712	31000.44
516.914	31281.02
517.116	32104.3
517.318	31983.47
517.52	32061.29
517.722	32204.65
517.925	32595.81
518.127	33038.17
518.329	33562.45
518.531	33136.48
518.733	33859.41
518.935	34088.78
519.136	33902.42
519.338	34488.14
519.54	34277.19
519.742	34512.71
519.944	34627.4
520.146	35733.3
520.348	35600.18
520.55	35870.51
520.752	35876.66
520.954	36839.2
521.155	36202.28
521.357	36544.3
521.559	36896.55
521.761	37056.29
521.963	37496.6
522.164	37488.41
522.366	37539.61
522.568	37834.52
522.77	38029.07
522.971	38768.39
523.173	38864.64
523.375	38903.56
523.576	38881.03
523.778	38817.54
523.98	39180.03
524.181	39378.68
524.383	39575.29
524.584	39915.25
524.786	40093.43
524.988	40126.19
525.189	40269.55
525.391	40277.74
525.592	40638.19
525.794	40722.15
525.995	40783.59
526.197	41006.82
526.398	41047.78
526.6	41369.31
526.801	41656.03
527.003	41529.05
527.204	41993.94
527.406	41891.54
527.607	42055.38
527.808	42383.05
528.01	42024.66
528.211	41924.31
528.412	42723.02
528.614	42933.96
528.815	42806.98
529.016	43153.09
529.218	42761.93
529.419	42874.57
529.62	42960.58
529.822	42790.6
530.023	42749.64
530.224	42833.61
530.425	43146.95
530.626	42888.9
530.828	42825.42
531.029	43941.56
531.23	43101.89
531.431	43120.32
531.632	43443.9
531.833	43988.66
532.035	43488.96
532.236	43601.6
532.437	44005.05
532.638	43695.8
532.839	43734.71
533.04	43597.5
533.241	43417.28
533.442	44342.96
533.643	44258.99
533.844	43931.32
534.045	43959.99
534.246	43421.37
534.447	43929.27
534.648	43660.99
534.849	44113.59
535.05	43511.49
535.251	43880.12
535.451	43824.82
535.652	43978.42
535.853	43777.72
536.054	44056.25
536.255	44089.01
536.456	43634.36
536.657	44668.59
536.857	43591.36
537.058	43552.44
537.259	44527.28
537.46	44318.39
537.66	44111.54
537.861	43990.71
538.062	43691.71
538.263	44017.33
538.463	44013.24
538.664	43779.77
538.865	43853.5
539.065	44254.9
539.266	43476.67
539.466	44027.57
539.667	43634.36
539.868	44379.82
540.068	43781.82
540.269	43775.67
540.469	43810.49
540.67	43318.98
540.87	43800.25
541.071	43849.4
541.271	44066.48
541.472	43583.16
541.672	43470.53
541.873	43456.19
542.073	43302.59
542.274	44029.62
542.474	43964.09
542.675	43523.77
542.875	44056.25
543.075	43540.16
543.276	43265.73
543.476	43955.89
543.676	43546.3
543.877	43517.63
544.077	43669.18
544.277	43355.84
544.478	43386.56
544.678	43753.15
544.878	43728.57
545.078	43798.2
545.279	42983.11
545.479	43708.09
545.679	43847.35
545.879	43732.67
546.079	43454.14
546.28	43851.45
546.48	42903.24
546.68	43777.72
546.88	43570.88
547.08	43224.77
547.28	43245.25
547.48	43105.99
547.68	43388.61
547.88	43200.19
548.081	43458.24
548.281	43404.99
548.481	42972.87
548.681	43325.12
548.881	43347.65
549.081	43544.25
549.28	43314.88
549.48	43298.5
549.68	43318.98
549.88	43695.8
550.08	43042.5
550.28	43245.25
550.48	42886.85
550.68	43374.27
550.88	42917.57
551.08	42960.58
551.279	42921.67
551.479	42553.04
551.679	43235.01
551.879	42940.1
552.079	43448
552.278	42669.77
552.478	42976.97
552.678	43124.42
552.878	43359.94
553.077	43015.88
553.277	42649.29
553.477	43503.29
553.676	42827.46
553.876	43050.69
554.076	43075.27
554.275	43093.7
554.475	42516.17
554.674	42809.03
554.874	42948.29
555.074	42659.53
555.273	42594
555.473	43171.52
555.672	42125.01
555.872	42397.39
556.071	42741.45
556.271	42583.76
556.47	42395.34
556.67	41821.91
556.869	42133.2
557.068	42378.96
557.268	42223.31
557.467	42129.11
557.667	42217.17
557.866	42004.18
558.065	42012.37
558.265	41938.65
558.464	41936.6
558.663	42249.94
558.863	41666.27
559.062	42483.41
559.261	41635.55
559.461	42272.46
559.66	41037.54
559.859	41797.34
560.058	41201.38
560.258	41799.38
560.457	41223.9
560.656	41815.77
560.855	41119.46
561.054	41639.64
561.253	40787.69
561.453	41295.58
561.652	41279.2
561.851	41660.12
562.05	41072.35
562.249	40978.15
562.448	41330.4
562.647	41221.86
562.846	40820.45
563.045	41156.32
563.244	40384.24
563.443	41195.23
563.642	40101.62
563.841	40660.71
564.04	40515.31
564.239	40642.28
564.438	40337.13
564.637	40515.31
564.836	40677.1
565.035	39909.11
565.234	40349.42
565.432	39866.1
565.631	39771.89
565.83	40163.06
566.029	40038.13
566.228	39689.98
566.427	39732.98
566.625	39837.43
566.824	39089.92
567.023	39685.88
567.222	39290.62
567.42	39845.62
567.619	39704.31
567.818	39501.56
568.016	39266.05
568.215	39603.96
568.414	39208.7
568.612	39796.47
568.811	38977.28
569.01	38995.71
569.208	38924.04
569.407	38946.56
569.605	38442.76
569.804	38756.1
570.002	38346.51
570.201	38862.6
570.4	38137.62
570.598	38459.15
570.797	38194.96
570.995	37861.14
571.193	37924.63
571.392	38629.13
571.59	38123.28
571.789	37971.73
571.987	38147.86
572.186	37689.11
572.384	37613.34
572.582	37766.93
572.781	38041.36
572.979	36972.32
573.177	37246.75
573.376	37472.03
573.574	36947.75
573.772	37252.89
573.971	37009.18
574.169	37072.67
574.367	36871.97
574.565	37039.9
574.763	36505.38
574.962	36990.75
575.16	36384.55
575.358	36663.08
575.556	36235.05
575.754	37119.77
575.952	36292.4
576.151	36681.51
576.349	36067.12
576.547	36288.3
576.745	36056.88
576.943	35823.41
577.141	35624.76
577.339	35837.75
577.537	35819.31
577.735	35878.71
577.933	35444.54
578.131	35667.77
578.329	35082.05
578.527	35342.14
578.725	35239.74
578.923	35688.24
579.121	34871.11
579.319	34469.7
579.516	35174.2
579.714	34957.12
579.912	34783.04
580.11	34602.82
580.308	34740.04
580.506	34457.42
580.704	34127.69
580.901	34561.86
581.099	34834.24
581.297	34432.84
581.495	34082.64
581.692	34121.55
581.89	33783.63
582.088	34293.58
582.285	33378.14
582.483	33996.62
582.681	33636.18
582.878	33824.59
583.076	33242.97
583.274	33541.97
583.471	33111.9
583.669	33296.22
583.866	32884.58
584.064	33314.65
584.262	32792.42
584.459	32841.57
584.657	32515.94
584.854	32655.2
585.052	32413.54
585.249	32812.9
585.447	32429.93
585.644	32427.88
585.841	32364.39
586.039	32726.88
586.236	31960.94
586.434	31989.61
586.631	31842.16
586.828	31907.69
587.026	31870.83
587.223	31985.52
587.42	31309.69
587.618	31760.24
587.815	31563.64
588.012	31727.47
588.21	31276.92
588.407	31801.2
588.604	31307.64
588.801	30867.33
588.999	31014.78
589.196	30963.58
589.393	31192.95
589.59	30730.11
589.787	30887.81
589.984	30697.34
590.182	30625.67
590.379	30691.2
590.576	30119.82
590.773	30435.2
590.97	30132.11
591.167	30371.72
591.364	29755.28
591.561	30207.88
591.758	29726.61
591.955	29650.83
592.152	29742.99
592.349	29575.06
592.546	30005.13
592.743	29601.68
592.94	28942.24
593.137	29175.7
593.334	29511.57
593.531	28891.04
593.727	29351.83
593.924	29067.16
594.121	28839.84
594.318	29122.46
594.515	28659.62
594.712	28999.58
594.908	28301.22
595.105	29032.35
595.302	28209.06
595.499	28567.46
595.696	28358.56
595.892	28084.14
596.089	28350.37
596.286	28344.23
596.482	28004.27
596.679	27707.31
596.876	28006.31
597.072	27666.35
597.269	27555.76
597.466	27473.84
597.662	27459.51
597.859	27594.67
598.055	27797.42
598.252	27223.99
598.448	27277.24
598.645	27324.34
598.841	26744.77
599.038	26918.84
599.234	26908.6
599.431	26693.57
599.627	26449.86
599.824	26685.37
600.02	26595.26
600.217	26769.34
600.413	26267.59
600.609	26445.76
600.806	26140.61
601.002	26304.45
601.198	25595.85
601.395	25898.95
601.591	25806.8
601.787	25837.52
601.984	25913.29
602.18	26083.27
602.376	25550.8
602.572	25530.32
602.769	25739.21
602.965	25257.94
603.161	25515.98
603.357	25212.88
603.553	25389.01
603.75	25389.01
603.946	25020.38
604.142	25178.07
604.338	24801.24
604.534	25116.63
604.73	24549.34
604.926	24659.93
605.122	24713.18
605.318	24520.67
605.514	24424.42
605.71	24405.98
605.906	24563.68
606.102	24203.24
606.298	24215.52
606.494	24254.44
606.69	24397.79
606.886	23926.76
607.082	23906.28
607.278	23885.8
607.474	23726.06
607.67	23949.29
607.866	23609.33
608.062	24229.86
608.257	23711.72
608.453	23939.05
608.649	23316.47
608.845	23529.45
609.041	23390.19
609.236	23658.48
609.432	23191.54
609.628	23529.45
609.824	23363.57
610.019	23087.09
610.215	23369.71
610.411	22859.77
610.606	23013.37
610.802	23341.04
610.998	22822.91
611.193	22790.14
611.389	22685.69
611.584	22890.49
611.78	22794.23
611.976	23017.46
612.171	22781.95
612.367	22853.62
612.562	22708.22
612.758	22528
612.953	22388.74
613.149	22548.48
613.344	22458.37
613.539	22720.51
613.735	22263.81
613.93	22515.71
614.126	22224.9
614.321	22630.4
614.517	22239.23
614.712	22368.26
614.907	22329.34
615.103	22339.58
615.298	22251.52
615.493	22210.56
615.688	21866.5
615.884	22257.67
616.079	21915.65
616.274	21899.27
616.47	21786.63
616.665	21907.46
616.86	21792.78
617.055	21803.02
617.25	21534.73
617.445	21946.37
617.641	21477.39
617.836	21770.25
618.031	21116.95
618.226	21424.14
618.421	21403.66
618.616	21757.96
618.811	21086.23
619.006	21356.56
619.201	20955.16
619.396	21039.12
619.591	20768.79
619.786	20807.7
619.981	20490.27
620.176	20875.29
620.371	20336.67
620.566	20568.09
620.761	20420.64
620.956	20602.91
621.151	20234.27
621.346	20277.28
621.541	19945.51
621.735	20072.48
621.93	19656.75
622.125	19957.8
622.32	19572.78
622.515	19687.46
622.709	19556.39
622.904	19593.26
623.099	19234.86
623.294	19312.69
623.488	18899
623.683	18784.31
623.878	18870.33
624.072	19038.26
624.267	18819.13
624.462	18767.93
624.656	18556.99
624.851	18604.09
625.046	18335.81
625.24	18333.76
625.435	17938.5
625.629	18122.82
625.824	17924.16
626.018	18235.46
626.213	17621.06
626.407	17954.88
626.602	17512.52
626.796	17612.87
626.991	17586.25
627.185	17285.2
627.38	17145.94
627.574	17246.29
627.768	17029.2
627.963	16681.05
628.157	16887.89
628.352	16851.03
628.546	16463.96
628.74	16836.69
628.935	16607.32
629.129	16601.18
629.323	16308.32
629.517	16107.62
629.712	16218.21
629.906	16140.38
630.1	15980.64
630.294	16046.18
630.489	15798.37
630.683	15851.62
630.877	15454.31
631.071	15313
631.265	15769.7
631.459	15403.11
631.653	15405.16
631.848	15403.11
632.042	15224.94
632.236	15140.97
632.43	14950.51
632.624	15263.85
632.818	14964.85
633.012	14483.58
633.206	14940.27
633.4	14848.11
633.594	14497.91
633.788	14590.07
633.982	14516.34
634.176	14260.35
634.369	14223.48
634.563	14297.21
634.757	14084.22
634.951	13879.43
635.145	14137.47
635.339	13908.1
635.533	13813.89
635.726	13854.85
635.92	13566.09
636.114	13590.66
636.308	13373.58
636.501	13480.07
636.695	13447.3
636.889	13338.76
637.083	13254.8
637.276	12986.51
637.47	13078.67
637.664	13068.43
637.857	13056.14
638.051	13168.78
638.244	12697.75
638.438	12986.51
638.632	12779.67
638.825	12783.76
639.019	12599.45
639.212	12701.84
639.406	12445.85
639.599	12241.05
639.793	12370.07
639.986	12345.5
640.18	12349.59
640.373	12245.15
640.567	11987.1
640.76	11876.51
640.954	11837.6
641.147	11733.15
641.34	11837.6
641.534	11692.19
641.727	11819.17
641.92	11657.38
642.114	11710.63
642.307	11624.61
642.5	11511.97
642.694	11448.49
642.887	11163.82
643.08	11417.77
643.273	11280.55
643.467	11198.63
643.66	11176.11
643.853	11198.63
644.046	11153.58
644.239	11002.03
644.432	10870.96
644.626	10873.01
644.819	10825.9
645.012	10873.01
645.205	10496.18
645.398	10596.53
645.591	10598.58
645.784	10459.32
645.977	10623.16
646.17	10410.17
646.363	10344.63
646.556	10254.52
646.749	10342.58
646.942	10406.07
647.135	10139.83
647.328	10215.61
647.521	10059.96
647.714	9986.24
647.907	9973.95
648.099	10037.44
648.292	9636.03
648.485	9814.21
648.678	9720
648.871	9726.14
649.064	9660.61
649.256	9498.82
649.449	9556.16
649.642	9509.06
649.835	9330.89
650.027	9279.69
650.22	9304.26
650.413	9357.51
650.605	9357.51
650.798	9193.67
650.991	9107.66
651.183	9230.54
651.376	9076.94
651.568	8937.68
651.761	9173.19
651.954	8855.76
652.146	8894.67
652.339	8771.79
652.531	8956.11
652.724	8749.26
652.916	8628.43
653.109	8775.89
653.301	8669.39
653.494	8644.82
653.686	8599.76
653.879	8591.57
654.071	8452.31
654.263	8292.57
654.456	8372.44
654.648	8227.03
654.84	8141.02
655.033	8026.33
655.225	8224.98
655.417	7989.47
655.61	8186.07
655.802	8130.78
655.994	8104.15
656.186	8030.43
656.379	8104.15
656.571	7848.16
656.763	7917.79
656.955	7727.33
657.148	7790.81
657.34	7645.41
657.532	7645.41
657.724	7624.93
657.916	7747.81
658.108	7637.22
658.3	7586.02
658.492	7321.83
658.684	7381.22
658.876	7463.14
659.068	7381.22
659.26	7127.27
659.452	7157.99
659.644	7299.3
659.836	7182.57
660.028	7340.26
660.22	7090.41
660.412	7026.92
660.604	6983.91
660.796	6904.04
660.988	6918.38
661.18	6932.72
661.372	6906.09
661.563	6996.2
661.755	6779.12
661.947	6783.21
662.139	6904.04
662.331	6621.42
662.522	6666.48
662.714	6727.92
662.906	6629.62
663.097	6738.16
663.289	6623.47
663.481	6789.36
663.673	6504.69
663.864	6502.64
664.056	6426.87
664.247	6330.61
664.439	6387.96
664.631	6420.72
664.822	6220.02
665.014	6347
665.205	6277.37
665.397	6125.82
665.588	6174.97
665.78	6097.14
665.971	6279.41
666.163	6105.34
666.354	6113.53
666.546	5957.88
666.737	5818.62
666.929	5884.16
667.12	6088.95
667.311	5890.3
667.503	5835
667.694	5847.29
667.885	5865.72
668.077	5875.96
668.268	5757.18
668.459	5802.24
668.651	5685.5
668.842	5642.5
669.033	5536
669.224	5605.63
669.416	5634.3
669.607	5579.01
669.798	5521.67
669.989	5531.9
670.18	5589.25
670.371	5454.08
670.563	5433.6
670.754	5419.27
670.945	5417.22
671.136	5329.16
671.327	5343.49
671.518	5415.17
671.709	5392.64
671.9	5361.92
672.091	5363.97
672.282	5116.17
672.473	5333.25
672.664	5396.74
672.855	5181.7
673.046	5220.61
673.237	5234.95
673.428	5245.19
673.619	5067.02
673.809	5163.27
674	5138.69
674.191	5097.74
674.382	5087.5
674.573	4991.24
674.764	5089.54
674.954	5007.62
675.145	5013.77
675.336	4811.02
675.527	4876.55
675.717	4823.31
675.908	4874.51
676.099	4952.33
676.289	4847.88
676.48	4696.33
676.671	4817.16
676.861	4778.25
677.052	4845.84
677.243	4819.21
677.433	4606.22
677.624	4641.04
677.814	4692.24
678.005	4661.52
678.195	4739.34
678.386	4581.65
678.576	4628.75
678.767	4610.32
678.957	4507.92
679.148	4509.97
679.338	4546.83
679.529	4481.3
679.719	4600.08
679.909	4780.3
680.1	4469.01
680.29	4466.96
680.481	4415.76
680.671	4473.11
680.861	4354.32
681.052	4620.56
681.242	4610.32
681.432	4335.89
681.622	4403.47
681.813	4409.62
682.003	4362.51
682.193	4389.14
682.383	4419.86
682.573	4395.28
682.764	4258.07
682.954	4284.69
683.144	4348.18
683.334	4249.88
683.524	4276.5
683.714	4294.93
683.904	4223.25
684.094	4116.76
684.284	4217.11
684.474	4186.39
684.664	4098.33
684.854	4245.78
685.044	4260.12
685.234	3981.59
685.424	4053.27
685.614	3979.54
685.804	3969.3
685.994	4122.9
686.184	4163.86
686.374	4088.09
686.564	3940.63
686.753	3938.59
686.943	4000.02
687.133	3977.5
687.323	3942.68
687.513	3834.14
687.702	3877.15
687.892	3768.6
688.082	3840.28
688.272	3782.94
688.461	3748.12
688.651	3778.84
688.841	3651.87
689.03	3727.64
689.22	3645.73
689.41	3639.58
689.599	3684.64
689.789	3586.33
689.979	3528.99
690.168	3612.96
690.358	3543.33
690.547	3684.64
690.737	3610.91
690.926	3537.18
691.116	3528.99
691.305	3463.46
691.495	3602.72
691.684	3447.07
691.874	3440.93
692.063	3436.83
692.252	3475.74
692.442	3260.71
692.631	3291.43
692.82	3508.51
693.01	3295.52
693.199	3313.95
693.388	3287.33
693.578	3285.28
693.767	3164.45
693.956	3242.28
694.146	3213.6
694.335	3203.36
694.524	3125.54
694.713	3242.28
694.902	3258.66
695.092	3107.11
695.281	3047.72
695.47	3258.66
695.659	3162.41
695.848	2992.42
696.037	3070.25
696.226	2986.28
696.415	3066.15
696.604	3105.06
696.793	3096.87
696.982	3043.62
697.171	3141.93
697.36	3012.9
697.549	3051.81
697.738	2930.98
697.927	2988.33
698.116	2898.22
698.305	2902.31
698.494	3068.2
698.683	2976.04
698.872	2935.08
699.061	2879.79
699.25	2855.21
699.438	2902.31
699.627	2890.03
699.816	3060.01
700.005	2795.82
700.193	2849.07
700.382	2881.83
700.571	2875.69
700.76	2844.97
700.948	2806.06
701.137	2881.83
701.326	2855.21
701.514	2859.31
701.703	2816.3
701.892	2703.66
702.08	2912.55
702.269	2775.34
702.457	2746.67
702.646	2808.11
702.834	2763.05
703.023	2781.48
703.212	2879.79
703.4	2828.59
703.589	2812.2
703.777	2785.58
703.965	2773.29
704.154	2621.74
704.342	2726.19
704.531	2703.66
704.719	2857.26
704.907	2863.4
705.096	2736.43
705.284	2722.09
705.472	2836.78
705.661	2672.94
705.849	2744.62
706.037	2740.52
706.226	2775.34
706.414	2738.48
706.602	2771.24
706.79	2787.63
706.979	2691.37
707.167	2683.18
707.355	2525.49
707.543	2644.27
707.731	2746.67
707.919	2715.95
708.107	2689.32
708.296	2652.46
708.484	2648.36
708.672	2636.08
708.86	2648.36
709.048	2697.52
709.236	2689.32
709.424	2685.23
709.612	2771.24
709.8	2599.21
709.988	2679.08
710.176	2666.8
710.364	2736.43
710.551	2720.04
710.739	2640.17
710.927	2576.69
711.115	2672.94
711.303	2654.51
711.491	2533.68
711.679	2756.91
711.866	2681.13
712.054	2767.15
712.242	2554.16
712.43	2681.13
712.617	2724.14
712.805	2670.89
712.993	2652.46
713.181	2865.45
713.368	2634.03
713.556	2681.13
713.744	2603.31
713.931	2648.36
714.119	2607.41
714.306	2613.55
714.494	2625.84
714.682	2674.99
714.869	2537.77
715.057	2580.78
715.244	2591.02
715.432	2595.12
715.619	2523.44
715.807	2670.89
715.994	2662.7
716.182	2644.27
716.369	2701.61
716.556	2679.08
716.744	2552.11
716.931	2621.74
717.119	2505.01
717.306	2699.56
717.493	2611.5
717.681	2656.56
717.868	2672.94
718.055	2554.16
718.242	2611.5
718.43	2652.46
718.617	2591.02
718.804	2646.32
718.991	2660.65
719.179	2595.12
719.366	2556.21
719.553	2619.69
719.74	2591.02
719.927	2629.93
720.114	2572.59
720.301	2681.13
720.488	2650.41
720.676	2588.97
720.863	2515.25
721.05	2595.12
721.237	2701.61
721.424	2615.6
721.611	2572.59
721.798	2468.14
721.985	2578.73
722.172	2525.49
722.358	2718
722.545	2711.85
722.732	2548.01
722.919	2674.99
723.106	2576.69
723.293	2556.21
723.48	2615.6
723.667	2664.75
723.853	2574.64
724.04	2505.01
724.227	2482.48
724.414	2435.38
724.6	2482.48
724.787	2488.62
724.974	2509.1
725.161	2550.06
725.347	2605.36
725.534	2533.68
725.72	2412.85
725.907	2568.49
726.094	2533.68
726.28	2607.41
726.467	2578.73
726.653	2705.71
726.84	2625.84
727.027	2613.55
727.213	2437.42
727.4	2683.18
727.586	2543.92
727.773	2490.67
727.959	2507.06
728.145	2652.46
728.332	2515.25
728.518	2537.77
728.705	2468.14
728.891	2662.7
729.077	2595.12
729.264	2584.88
729.45	2480.43
729.636	2470.19
729.823	2560.3
730.009	2533.68
730.195	2582.83
730.382	2556.21
730.568	2631.98
730.754	2609.45
730.94	2533.68
731.126	2453.81
731.313	2408.75
731.499	2492.72
731.685	2513.2
731.871	2586.93
732.057	2554.16
732.243	2529.58
732.429	2418.99
732.615	2623.79
732.801	2605.36
732.987	2447.66
733.173	2578.73
733.359	2476.34
733.545	2445.62
733.731	2515.25
733.917	2531.63
734.103	2494.77
734.289	2457.9
734.475	2451.76
734.661	2591.02
734.847	2443.57
735.033	2619.69
735.219	2418.99
735.404	2595.12
735.59	2365.75
735.776	2427.18
735.962	2515.25
736.148	2384.18
736.333	2494.77
736.519	2439.47
736.705	2484.53
736.89	2466.1
737.076	2488.62
737.262	2476.34
737.447	2431.28
737.633	2474.29
737.819	2443.57
738.004	2418.99
738.19	2373.94
738.375	2335.03
738.561	2394.42
738.747	2400.56
738.932	2386.22
739.118	2259.25
739.303	2330.93
739.489	2392.37
739.674	2320.69
739.859	2220.34
740.045	2304.31
740.23	2355.51
740.416	2283.83
740.601	2343.22
740.786	2203.96
740.972	2265.39
741.157	2378.03
741.342	2189.62
741.528	2242.87
741.713	2206
741.898	2275.63
742.084	2328.88
742.269	2175.28
742.454	2289.97
742.639	2177.33
742.824	2249.01
743.01	2210.1
743.195	2138.42
743.38	2160.95
743.565	2210.1
743.75	2154.8
743.935	2183.48
744.12	2271.54
744.305	2169.14
744.49	2163
744.675	2163
744.86	2183.48
745.045	2181.43
745.23	2021.69
745.415	2171.19
745.6	2083.13
745.785	1988.92
745.97	2115.89
746.155	2142.52
746.34	1935.67
746.525	1990.97
746.71	2015.54
746.895	2040.12
747.079	2029.88
747.264	1962.3
747.449	1947.96
747.634	1943.86
747.819	1956.15
748.003	1870.14
748.188	1943.86
748.373	1878.33
748.557	1872.18
748.742	1937.72
748.927	1777.98
749.111	1878.33
749.296	1780.03
749.481	1866.04
749.665	1796.41
749.85	1825.08
750.034	1827.13
750.219	1857.85
750.404	1642.81
750.588	1685.82
750.773	1726.78
750.957	1790.27
751.141	1737.02
751.326	1769.79
751.51	1679.68
751.695	1653.05
751.879	1636.67
752.064	1698.11
752.248	1665.34
752.432	1679.68
752.617	1616.19
752.801	1610.04
752.985	1640.76
753.17	1673.53
753.354	1648.96
753.538	1620.28
753.722	1466.69
753.907	1569.09
754.091	1562.94
754.275	1489.21
754.459	1491.26
754.643	1575.23
754.828	1612.09
755.012	1435.97
755.196	1544.51
755.38	1431.87
755.564	1458.5
755.748	1352
755.932	1478.97
756.116	1384.77
756.3	1485.12
756.484	1388.86
756.668	1460.54
756.852	1395.01
757.036	1329.47
757.22	1313.09
757.404	1376.58
757.588	1315.14
757.772	1425.73
757.956	1378.62
758.14	1331.52
758.323	1231.17
758.507	1237.31
758.691	1329.47
758.875	1321.28
759.059	1237.31
759.242	1323.33
759.426	1306.95
759.61	1270.08
759.794	1308.99
759.977	1296.71
760.161	1278.27
760.345	1128.77
760.528	1186.12
760.712	1288.51
760.895	1257.79
761.079	1218.88
761.263	1179.97
761.446	1182.02
761.63	1239.36
761.813	1132.87
761.997	1028.42
762.18	1153.35
762.364	1075.52
762.547	1106.24
762.731	1087.81
762.914	1173.83
763.098	1200.45
763.281	1114.44
763.464	1102.15
763.648	1100.1
763.831	1096
764.015	1120.58
764.198	1159.49
764.381	1014.09
764.564	1053
764.748	1048.9
764.931	1014.09
765.114	1059.14
765.297	1104.2
765.481	1059.14
765.664	1106.24
765.847	1001.8
766.03	977.22
766.213	1046.85
766.397	1073.48
766.58	1003.85
766.763	1016.13
766.946	1018.18
767.129	987.46
767.312	1096
767.495	1030.47
767.678	1050.95
767.861	989.51
768.044	966.98
768.227	1050.95
768.41	1001.8
768.593	928.07
768.776	975.17
768.959	932.17
769.142	1022.28
769.324	1009.99
769.507	952.65
769.69	979.27
769.873	946.5
770.056	983.37
770.239	934.22
770.421	907.59
770.604	940.36
770.787	948.55
770.97	905.54
771.152	866.63
771.335	1012.04
771.518	887.11
771.7	1022.28
771.883	821.58
772.066	813.38
772.248	852.3
772.431	946.5
772.613	969.03
772.796	932.17
772.978	833.86
773.161	944.45
773.343	799.05
773.526	827.72
773.708	850.25
773.891	837.96
774.073	856.39
774.256	817.48
774.438	899.4
774.621	811.34
774.803	864.58
774.985	719.18
775.168	764.23
775.35	723.27
775.532	725.32
775.715	780.62
775.897	725.32
776.079	747.85
776.261	749.9
776.444	821.58
776.626	799.05
776.808	842.06
776.99	719.18
777.173	739.66
777.355	751.95
777.537	723.27
777.719	764.23
777.901	706.89
778.083	649.55
778.265	692.55
778.447	788.81
778.629	647.5
778.811	749.9
778.993	706.89
779.175	670.03
779.357	753.99
779.539	653.64
779.721	682.31
779.903	651.6
780.085	713.03
780.267	643.4
780.449	588.11
780.631	704.84
780.812	653.64
780.994	596.3
781.176	686.41
781.358	624.97
781.54	608.59
781.721	719.18
781.903	608.59
782.085	547.15
782.267	639.31
782.448	516.43
782.63	590.16
782.812	538.96
782.993	622.92
783.175	565.58
783.357	559.44
783.538	514.38
783.72	498
783.901	551.24
784.083	596.3
784.264	536.91
784.446	590.16
784.627	557.39
784.809	536.91
784.99	555.34
785.172	557.39
785.353	463.18
785.535	491.85
785.716	491.85
785.897	452.94
786.079	600.4
786.26	567.63
786.441	479.57
786.623	551.24
786.804	489.81
786.985	430.41
787.167	471.37
787.348	457.04
787.529	389.46
787.71	434.51
787.891	479.57
788.073	375.12
788.254	491.85
788.435	485.71
788.616	452.94
788.797	485.71
788.978	411.98
789.159	436.56
789.34	409.94
789.522	434.51
789.703	401.74
789.884	387.41
790.065	383.31
790.246	428.37
790.427	444.75
790.607	500.05
790.788	403.79
790.969	385.36
791.15	405.84
791.331	346.45
791.512	334.16
791.693	424.27
791.874	409.94
792.054	391.5
792.235	366.93
792.416	299.34
792.597	371.02
792.778	348.5
792.958	371.02
793.139	389.46
793.32	317.78
793.5	285.01
793.681	418.13
793.862	362.83
794.042	317.78
794.223	397.65
794.404	362.83
794.584	303.44
794.765	368.98
794.945	342.35
795.126	346.45
795.306	403.79
795.487	315.73
795.667	336.21
795.848	356.69
796.028	393.55
796.209	358.74
796.389	368.98
796.57	350.54
796.75	354.64
796.93	328.02
797.111	397.65
797.291	252.24
797.471	362.83
797.652	282.96
797.832	309.58
798.012	291.15
798.192	395.6
798.373	311.63
798.553	264.53
798.733	336.21
798.913	223.57
799.093	303.44
799.274	317.78
799.454	287.06
799.634	305.49
799.814	278.87
799.994	336.21
800.174	225.62
800.354	266.58
800.534	323.92
800.714	297.3
800.894	338.26
801.074	260.43
801.254	297.3
801.434	354.64
801.614	235.86
801.794	270.67
801.974	643.4
802.154	223.57
802.334	256.34
802.514	285.01
802.693	250.19
802.873	254.29
803.053	207.19
803.233	276.82
803.413	198.99
803.592	178.51
803.772	287.06
803.952	264.53
804.131	194.9
804.311	293.2
804.491	231.76
804.67	239.95
804.85	315.73
805.03	237.91
805.209	270.67
805.389	244.05
805.568	223.57
805.748	256.34
805.928	182.61
806.107	256.34
806.287	278.87
806.466	209.23
806.646	285.01
806.825	262.48
807.004	196.95
807.184	225.62
807.363	307.54
807.543	258.39
807.722	248.15
807.901	211.28
808.081	272.72
808.26	151.89
808.439	145.75
808.619	194.9
808.798	221.52
808.977	190.8
809.156	252.24
809.336	252.24
809.515	217.43
809.694	213.33
809.873	166.23
810.052	164.18
810.231	166.23
810.411	155.99
810.59	223.57
810.769	184.66
810.948	178.51
811.127	172.37
811.306	151.89
811.485	186.71
811.664	207.19
811.843	244.05
812.022	207.19
812.201	182.61
812.38	184.66
812.559	188.75
812.737	182.61
812.916	168.27
813.095	139.6
813.274	174.42
813.453	162.13
813.632	231.76
813.811	160.08
813.989	106.84
814.168	160.08
814.347	119.12
814.526	125.27
814.704	131.41
814.883	201.04
815.062	153.94
815.24	274.77
815.419	143.7
815.598	155.99
815.776	141.65
815.955	69.97
816.133	98.64
816.312	127.32
816.49	192.85
816.669	147.8
816.847	151.89
817.026	143.7
817.204	178.51
817.383	166.23
817.561	137.56
817.74	170.32
817.918	166.23
818.097	160.08
818.275	151.89
818.453	110.93
818.632	166.23
818.81	117.08
818.988	166.23
819.167	158.03
819.345	133.46
819.523	147.8
819.701	174.42
819.879	139.6
820.058	170.32
820.236	102.74
820.414	102.74
820.592	141.65
820.77	117.08
820.948	145.75
821.127	98.64
821.305	145.75
821.483	96.6
821.661	190.8
821.839	155.99
822.017	20.82
822.195	110.93
822.373	149.84
822.551	194.9
822.729	127.32
822.907	102.74
823.085	145.75
823.262	92.5
823.44	141.65
823.618	170.32
823.796	80.21
823.974	198.99
824.152	121.17
824.329	135.51
824.507	129.36
824.685	76.12
824.863	90.45
825.04	123.22
825.218	153.94
825.396	149.84
825.574	129.36
825.751	78.16
825.929	63.83
826.107	78.16
826.284	84.31
826.462	100.69
826.639	137.56
826.817	51.54
826.994	145.75
827.172	133.46
827.349	133.46
827.527	190.8
827.704	137.56
827.882	158.03
828.059	121.17
828.237	141.65
828.414	219.47
828.591	69.97
828.769	106.84
828.946	141.65
829.124	158.03
829.301	147.8
829.478	108.88
829.655	104.79
829.833	61.78
830.01	92.5
830.187	104.79
830.364	72.02
830.542	184.66
830.719	106.84
830.896	192.85
831.073	59.73
831.25	174.42
831.427	43.35
831.604	72.02
831.782	92.5
831.959	151.89
832.136	84.31
832.313	2.39
832.49	141.65
832.667	98.64
832.844	65.88
833.021	125.27
833.198	110.93
833.374	131.41
833.551	131.41
833.728	96.6
833.905	155.99
834.082	55.64
834.259	119.12
834.436	67.92
834.612	72.02
834.789	63.83
834.966	51.54
835.143	76.12
835.319	59.73
835.496	153.94
835.673	158.03
835.85	139.6
836.026	24.92
836.203	104.79
836.38	24.92
836.556	59.73
836.733	123.22
836.909	104.79
837.086	35.16
837.262	35.16
837.439	20.82
837.616	98.64
837.792	35.16
837.968	108.88
838.145	39.25
838.321	69.97
838.498	53.59
838.674	90.45
838.851	88.4
839.027	131.41
839.203	67.92
839.38	106.84
839.556	57.68
839.732	88.4
839.909	125.27
840.085	63.83
840.261	57.68
840.437	63.83
840.614	106.84
840.79	12.63
840.966	108.88
841.142	16.73
841.318	26.96
841.494	35.16
841.671	22.87
841.847	76.12
842.023	53.59
842.199	76.12
842.375	57.68
842.551	35.16
842.727	18.77
842.903	69.97
843.079	67.92
843.255	96.6
843.431	100.69
843.607	145.75
843.783	33.11
843.959	31.06
844.134	39.25
844.31	92.5
844.486	57.68
844.662	18.77
844.838	26.96
845.013	98.64
845.189	72.02
845.365	33.11
845.541	49.49
845.716	82.26
845.892	63.83
846.068	57.68
846.244	29.01
846.419	129.36
846.595	10.58
846.77	67.92
846.946	33.11
847.122	63.83
847.297	63.83
847.473	22.87
847.648	-5.8
847.824	33.11
847.999	80.21
848.175	57.68
848.35	88.4
848.526	35.16
848.701	129.36
848.876	35.16
849.052	57.68
849.227	49.49
849.403	78.16
849.578	31.06
849.753	41.3
849.929	33.11
850.104	51.54
850.279	18.77
850.454	96.6
850.63	14.68
850.805	51.54
850.98	100.69
851.155	6.49
851.33	84.31
851.505	33.11
851.681	86.36
851.856	96.6
852.031	67.92
852.206	104.79
852.381	26.96
852.556	49.49
852.731	33.11
852.906	47.44
853.081	18.77
853.256	94.55
853.431	82.26
853.606	74.07
853.781	29.01
853.956	33.11
854.131	125.27
854.305	16.73
854.48	-5.8
854.655	-24.23
854.83	80.21
855.005	18.77
855.18	78.16
855.354	47.44
855.529	-13.99
855.704	59.73
855.879	10.58
856.053	-16.04
856.228	72.02
856.403	51.54
856.577	22.87
856.752	18.77
856.926	88.4
857.101	53.59
857.276	22.87
857.45	20.82
857.625	22.87
857.799	55.64
857.974	47.44
858.148	-67.24
858.323	67.92
858.497	84.31
858.672	18.77
858.846	16.73
859.02	74.07
859.195	6.49
859.369	106.84
859.543	39.25
859.718	67.92
859.892	41.3
860.066	76.12
860.241	41.3
860.415	49.49
860.589	-5.8
860.763	63.83
860.938	67.92
861.112	55.64
861.286	8.53
861.46	14.68
861.634	-5.8
861.808	84.31
861.982	106.84
862.157	6.49
862.331	-50.86
862.505	-40.62
862.679	33.11
862.853	63.83
863.027	-20.14
863.201	74.07
863.375	31.06
863.549	76.12
863.722	51.54
863.896	16.73
864.07	-50.86
864.244	61.78
864.418	-26.28
864.592	100.69
864.766	22.87
864.939	-9.9
865.113	31.06
865.287	41.3
865.461	22.87
865.634	-13.99
865.808	59.73
865.982	59.73
866.156	67.92
866.329	18.77
866.503	29.01
866.676	-3.75
866.85	47.44
867.024	61.78
867.197	49.49
867.371	33.11
867.544	31.06
867.718	-40.62
867.891	92.5
868.065	-3.75
868.238	35.16
868.412	43.35
868.585	-46.76
868.759	-1.71
868.932	82.26
869.105	22.87
869.279	22.87
869.452	63.83
869.625	55.64
869.799	31.06
869.972	-3.75
870.145	2.39
870.319	72.02
870.492	-3.75
870.665	31.06
870.838	16.73
871.011	-16.04
871.185	10.58
871.358	-30.38
871.531	53.59
871.704	-67.24
871.877	86.36
872.05	14.68
872.223	2.39
872.396	-13.99
872.569	51.54
872.742	51.54
872.915	-40.62
873.088	24.92
873.261	0.34
873.434	31.06
873.607	-32.43
873.78	49.49
873.953	59.73
874.126	24.92
874.299	47.44
874.471	86.36
874.644	18.77
874.817	90.45
874.99	47.44
875.163	33.11
875.335	-9.9
875.508	45.4
875.681	29.01
875.853	43.35
876.026	16.73
876.199	63.83
876.371	-5.8
876.544	22.87
876.717	20.82
876.889	35.16
877.062	88.4
877.234	31.06
877.407	6.49
877.579	26.96
877.752	59.73
877.924	39.25
878.097	98.64
878.269	55.64
878.442	49.49
878.614	-24.23
878.786	-9.9
878.959	33.11
879.131	72.02
879.303	0.34
879.476	49.49
879.648	10.58
879.82	22.87
879.993	35.16
880.165	2.39
880.337	-1.71
880.509	12.63
880.681	-57
880.854	20.82
881.026	-11.95
881.198	84.31
881.37	-50.86
881.542	22.87
881.714	-63.15
881.886	35.16
882.058	57.68
882.23	-5.8
882.402	78.16
882.574	80.21
882.746	20.82
882.918	106.84
883.09	16.73
883.262	22.87
883.434	-7.85
883.606	31.06
883.778	94.55
883.95	94.55
884.122	-11.95
884.293	51.54
884.465	-13.99
884.637	90.45
884.809	22.87
884.98	51.54
885.152	67.92
885.324	16.73
885.496	-46.76
885.667	0.34
885.839	-11.95
886.011	65.88
886.182	35.16
886.354	65.88
886.525	43.35
886.697	26.96
886.869	29.01
887.04	8.53
887.212	14.68
887.383	74.07
887.555	-26.28
887.726	39.25
887.897	8.53
888.069	29.01
888.24	4.44
888.412	33.11
888.583	10.58
888.754	51.54
888.926	-7.85
889.097	-11.95
889.268	-16.04
889.44	16.73
889.611	6.49
889.782	59.73
889.953	-48.81
890.125	72.02
890.296	-22.19
890.467	-13.99
890.638	35.16
890.809	41.3
890.98	-9.9
891.151	6.49
891.323	59.73
891.494	26.96
891.665	-11.95
891.836	20.82
892.007	14.68
892.178	-3.75
892.349	43.35
892.52	-7.85
892.691	20.82
892.862	92.5
893.032	-18.09
893.203	43.35
893.374	49.49
893.545	-34.47
893.716	24.92
893.887	59.73
894.057	16.73
894.228	22.87
894.399	-32.43
894.57	29.01
894.74	63.83
894.911	18.77
895.082	45.4
895.253	-32.43
895.423	-7.85
895.594	49.49
895.764	14.68
895.935	-20.14
896.106	-13.99
896.276	29.01
896.447	-13.99
896.617	-11.95
896.788	2.39
896.958	-32.43
897.129	26.96
897.299	12.63
897.47	67.92
897.64	29.01
897.81	-9.9
897.981	-22.19
898.151	-7.85
898.322	39.25
898.492	-42.67
898.662	6.49
898.832	-1.71
899.003	55.64
899.173	18.77
899.343	26.96
899.513	-40.62
