Data from USB4F104151__97__11-38-00-837.txt Node

Date: Fri Mar 14 11:38:00 EDT 2025
User: louis
Spectrometer: USB4F10415
Trigger mode: 4
Integration Time (sec): 2.000000E-2
Scans to average: 1
Electric dark correction enabled: true
Nonlinearity correction enabled: false
Boxcar width: 0
XAxis mode: Wavelengths
Number of Pixels in Spectrum: 3648
>>>>>Begin Spectral Data<<<<<
178.204	-21.16
178.424	-21.16
178.644	-21.16
178.864	-88.75
179.084	-31.4
179.304	-10.92
179.524	-37.55
179.744	-10.92
179.964	99.67
180.184	-12.97
180.404	-12.97
180.624	23.89
180.844	-25.26
181.064	-47.79
181.283	32.08
181.503	3.41
181.723	-0.68
181.943	23.89
182.163	34.13
182.383	73.04
182.602	44.37
182.822	21.84
183.042	15.7
183.262	-39.59
183.482	93.52
183.701	58.71
183.921	54.61
184.141	-25.26
184.361	64.85
184.58	19.8
184.8	60.76
185.02	-45.74
185.239	1.37
185.459	30.04
185.679	48.47
185.898	-45.74
186.118	27.99
186.338	34.13
186.557	25.94
186.777	83.28
186.997	23.89
187.216	89.43
187.436	132.44
187.655	17.75
187.875	50.52
188.095	30.04
188.314	89.43
188.534	64.85
188.753	38.23
188.973	87.38
189.192	109.91
189.412	126.29
189.631	-23.21
189.851	38.23
190.07	32.08
190.29	11.61
190.509	111.96
190.729	-19.11
190.948	40.28
191.168	159.06
191.387	114
191.607	3.41
191.826	42.32
192.045	25.94
192.265	60.76
192.484	62.8
192.704	60.76
192.923	75.09
193.142	48.47
193.362	19.8
193.581	81.24
193.8	107.86
194.02	103.76
194.239	85.33
194.458	79.19
194.678	68.95
194.897	81.24
195.116	11.61
195.335	93.52
195.555	58.71
195.774	23.89
195.993	44.37
196.212	85.33
196.432	-10.92
196.651	-37.55
196.87	64.85
197.089	116.05
197.308	34.13
197.528	66.9
197.747	19.8
197.966	93.52
198.185	50.52
198.404	46.42
198.623	-15.02
198.842	75.09
199.062	15.7
199.281	42.32
199.5	-15.02
199.719	48.47
199.938	15.7
200.157	54.61
200.376	42.32
200.595	85.33
200.814	36.18
201.033	30.04
201.252	71
201.471	44.37
201.69	17.75
201.909	73.04
202.128	23.89
202.347	19.8
202.566	79.19
202.785	30.04
203.004	66.9
203.223	99.67
203.442	42.32
203.661	17.75
203.879	-8.87
204.098	111.96
204.317	3.41
204.536	75.09
204.755	46.42
204.974	27.99
205.193	81.24
205.411	77.14
205.63	40.28
205.849	62.8
206.068	68.95
206.287	66.9
206.505	101.72
206.724	40.28
206.943	60.76
207.162	40.28
207.381	52.56
207.599	56.66
207.818	-21.16
208.037	91.48
208.255	13.65
208.474	114
208.693	32.08
208.911	77.14
209.13	66.9
209.349	114
209.567	44.37
209.786	66.9
210.005	77.14
210.223	38.23
210.442	11.61
210.661	93.52
210.879	-12.97
211.098	34.13
211.316	54.61
211.535	52.56
211.753	36.18
211.972	79.19
212.191	44.37
212.409	58.71
212.628	50.52
212.846	17.75
213.065	25.94
213.283	52.56
213.502	40.28
213.72	101.72
213.938	-29.35
214.157	40.28
214.375	66.9
214.594	1.37
214.812	30.04
215.031	34.13
215.249	46.42
215.467	1.37
215.686	9.56
215.904	83.28
216.122	97.62
216.341	52.56
216.559	13.65
216.778	62.8
216.996	30.04
217.214	11.61
217.432	-8.87
217.651	46.42
217.869	66.9
218.087	32.08
218.306	95.57
218.524	-15.02
218.742	13.65
218.96	56.66
219.179	-37.55
219.397	62.8
219.615	73.04
219.833	126.29
220.051	48.47
220.27	46.42
220.488	15.7
220.706	23.89
220.924	60.76
221.142	77.14
221.36	15.7
221.578	36.18
221.796	-2.73
222.015	36.18
222.233	99.67
222.451	73.04
222.669	99.67
222.887	60.76
223.105	21.84
223.323	60.76
223.541	9.56
223.759	71
223.977	-4.78
224.195	32.08
224.413	105.81
224.631	48.47
224.849	42.32
225.067	17.75
225.285	-41.64
225.503	60.76
225.721	-4.78
225.939	32.08
226.157	46.42
226.375	27.99
226.592	-31.4
226.81	19.8
227.028	15.7
227.246	85.33
227.464	54.61
227.682	-10.92
227.9	27.99
228.117	-62.12
228.335	9.56
228.553	85.33
228.771	114
228.989	71
229.206	83.28
229.424	30.04
229.642	52.56
229.86	124.24
230.077	73.04
230.295	-4.78
230.513	11.61
230.731	73.04
230.948	58.71
231.166	66.9
231.384	19.8
231.601	42.32
231.819	48.47
232.037	79.19
232.254	62.8
232.472	25.94
232.689	107.86
232.907	68.95
233.125	97.62
233.342	30.04
233.56	44.37
233.777	81.24
233.995	73.04
234.213	73.04
234.43	32.08
234.648	73.04
234.865	13.65
235.083	103.76
235.3	79.19
235.518	42.32
235.735	64.85
235.953	44.37
236.17	36.18
236.388	27.99
236.605	36.18
236.822	13.65
237.04	89.43
237.257	109.91
237.475	83.28
237.692	48.47
237.909	21.84
238.127	56.66
238.344	19.8
238.562	154.96
238.779	-10.92
238.996	-2.73
239.214	23.89
239.431	95.57
239.648	40.28
239.865	85.33
240.083	75.09
240.3	32.08
240.517	48.47
240.735	52.56
240.952	38.23
241.169	126.29
241.386	60.76
241.603	66.9
241.821	42.32
242.038	85.33
242.255	68.95
242.472	23.89
242.689	-15.02
242.907	27.99
243.124	56.66
243.341	25.94
243.558	62.8
243.775	46.42
243.992	42.32
244.209	9.56
244.426	19.8
244.643	50.52
244.86	3.41
245.078	71
245.295	87.38
245.512	56.66
245.729	27.99
245.946	103.76
246.163	105.81
246.38	111.96
246.597	50.52
246.814	-31.4
247.031	38.23
247.248	83.28
247.464	40.28
247.681	75.09
247.898	83.28
248.115	21.84
248.332	46.42
248.549	91.48
248.766	42.32
248.983	126.29
249.2	85.33
249.417	-2.73
249.633	46.42
249.85	89.43
250.067	48.47
250.284	68.95
250.501	68.95
250.717	130.39
250.934	34.13
251.151	-19.11
251.368	97.62
251.585	101.72
251.801	81.24
252.018	5.46
252.235	44.37
252.451	97.62
252.668	40.28
252.885	114
253.102	101.72
253.318	40.28
253.535	60.76
253.752	15.7
253.968	101.72
254.185	9.56
254.401	64.85
254.618	50.52
254.835	27.99
255.051	23.89
255.268	87.38
255.484	46.42
255.701	140.63
255.917	124.24
256.134	23.89
256.351	9.56
256.567	-21.16
256.784	3.41
257	-4.78
257.217	-43.69
257.433	-15.02
257.65	-6.83
257.866	13.65
258.082	52.56
258.299	103.76
258.515	42.32
258.732	52.56
258.948	-12.97
259.165	23.89
259.381	-4.78
259.597	105.81
259.814	85.33
260.03	46.42
260.246	23.89
260.463	23.89
260.679	58.71
260.895	58.71
261.112	48.47
261.328	46.42
261.544	73.04
261.761	128.34
261.977	114
262.193	-10.92
262.409	7.51
262.626	23.89
262.842	46.42
263.058	58.71
263.274	15.7
263.49	3.41
263.707	122.2
263.923	85.33
264.139	19.8
264.355	11.61
264.571	95.57
264.787	97.62
265.004	87.38
265.22	7.51
265.436	36.18
265.652	13.65
265.868	111.96
266.084	44.37
266.3	68.95
266.516	17.75
266.732	77.14
266.948	77.14
267.164	32.08
267.38	36.18
267.596	5.46
267.812	109.91
268.028	75.09
268.244	15.7
268.46	79.19
268.676	3.41
268.892	87.38
269.108	73.04
269.324	-8.87
269.54	42.32
269.756	60.76
269.972	13.65
270.188	50.52
270.403	44.37
270.619	21.84
270.835	87.38
271.051	77.14
271.267	32.08
271.483	60.76
271.698	-17.07
271.914	79.19
272.13	34.13
272.346	99.67
272.562	60.76
272.777	36.18
272.993	71
273.209	9.56
273.425	1.37
273.64	64.85
273.856	130.39
274.072	83.28
274.287	17.75
274.503	23.89
274.719	23.89
274.934	101.72
275.15	-33.45
275.366	60.76
275.581	81.24
275.797	-12.97
276.012	64.85
276.228	21.84
276.444	66.9
276.659	83.28
276.875	3.41
277.09	71
277.306	27.99
277.521	40.28
277.737	11.61
277.952	3.41
278.168	93.52
278.383	50.52
278.599	36.18
278.814	40.28
279.03	5.46
279.245	91.48
279.461	130.39
279.676	34.13
279.892	-31.4
280.107	103.76
280.322	36.18
280.538	23.89
280.753	17.75
280.969	71
281.184	46.42
281.399	56.66
281.615	25.94
281.83	-29.35
282.045	32.08
282.26	42.32
282.476	126.29
282.691	60.76
282.906	32.08
283.122	75.09
283.337	-2.73
283.552	73.04
283.767	75.09
283.983	-2.73
284.198	58.71
284.413	-23.21
284.628	-29.35
284.843	-27.31
285.058	126.29
285.274	52.56
285.489	50.52
285.704	126.29
285.919	11.61
286.134	77.14
286.349	50.52
286.564	40.28
286.779	44.37
286.995	-39.59
287.21	44.37
287.425	11.61
287.64	27.99
287.855	23.89
288.07	56.66
288.285	-0.68
288.5	62.8
288.715	17.75
288.93	23.89
289.145	32.08
289.36	73.04
289.575	30.04
289.79	87.38
290.004	71
290.219	25.94
290.434	15.7
290.649	-21.16
290.864	107.86
291.079	85.33
291.294	118.1
291.509	93.52
291.724	89.43
291.938	-31.4
292.153	44.37
292.368	52.56
292.583	60.76
292.798	11.61
293.012	48.47
293.227	11.61
293.442	30.04
293.657	60.76
293.871	62.8
294.086	44.37
294.301	111.96
294.516	42.32
294.73	42.32
294.945	34.13
295.16	44.37
295.374	66.9
295.589	68.95
295.804	36.18
296.018	97.62
296.233	64.85
296.447	42.32
296.662	40.28
296.877	52.56
297.091	97.62
297.306	68.95
297.52	-27.31
297.735	54.61
297.949	60.76
298.164	75.09
298.378	58.71
298.593	75.09
298.807	87.38
299.022	34.13
299.236	23.89
299.451	-0.68
299.665	3.41
299.88	11.61
300.094	-21.16
300.309	54.61
300.523	60.76
300.737	68.95
300.952	48.47
301.166	60.76
301.381	-29.35
301.595	17.75
301.809	79.19
302.024	30.04
302.238	38.23
302.452	81.24
302.667	21.84
302.881	101.72
303.095	77.14
303.309	13.65
303.524	60.76
303.738	36.18
303.952	71
304.166	93.52
304.381	11.61
304.595	73.04
304.809	44.37
305.023	85.33
305.237	68.95
305.452	32.08
305.666	83.28
305.88	54.61
306.094	85.33
306.308	56.66
306.522	105.81
306.736	40.28
306.95	79.19
307.164	13.65
307.379	19.8
307.593	52.56
307.807	56.66
308.021	62.8
308.235	-6.83
308.449	58.71
308.663	42.32
308.877	46.42
309.091	27.99
309.305	105.81
309.519	58.71
309.733	77.14
309.947	27.99
310.161	77.14
310.374	-8.87
310.588	126.29
310.802	38.23
311.016	52.56
311.23	58.71
311.444	1.37
311.658	30.04
311.872	44.37
312.085	15.7
312.299	68.95
312.513	11.61
312.727	48.47
312.941	107.86
313.154	83.28
313.368	13.65
313.582	-12.97
313.796	99.67
314.009	-15.02
314.223	40.28
314.437	-10.92
314.651	77.14
314.864	-37.55
315.078	81.24
315.292	83.28
315.505	-6.83
315.719	46.42
315.933	52.56
316.146	71
316.36	-68.27
316.573	130.39
316.787	85.33
317.001	71
317.214	50.52
317.428	50.52
317.641	25.94
317.855	56.66
318.068	11.61
318.282	-17.07
318.495	34.13
318.709	36.18
318.922	105.81
319.136	134.48
319.349	71
319.563	36.18
319.776	-47.79
319.99	25.94
320.203	25.94
320.417	91.48
320.63	32.08
320.843	91.48
321.057	36.18
321.27	99.67
321.483	56.66
321.697	81.24
321.91	81.24
322.124	46.42
322.337	30.04
322.55	-6.83
322.763	-33.45
322.977	124.24
323.19	42.32
323.403	32.08
323.617	40.28
323.83	42.32
324.043	128.34
324.256	124.24
324.469	73.04
324.683	75.09
324.896	1.37
325.109	75.09
325.322	13.65
325.535	60.76
325.748	27.99
325.962	50.52
326.175	-6.83
326.388	54.61
326.601	32.08
326.814	99.67
327.027	42.32
327.24	32.08
327.453	46.42
327.666	66.9
327.879	27.99
328.092	15.7
328.305	19.8
328.518	58.71
328.731	27.99
328.944	13.65
329.157	73.04
329.37	25.94
329.583	85.33
329.796	103.76
330.009	15.7
330.222	25.94
330.435	91.48
330.648	81.24
330.861	95.57
331.073	50.52
331.286	60.76
331.499	93.52
331.712	64.85
331.925	95.57
332.138	7.51
332.35	150.87
332.563	19.8
332.776	-2.73
332.989	19.8
333.202	30.04
333.414	27.99
333.627	68.95
333.84	99.67
334.053	54.61
334.265	68.95
334.478	11.61
334.691	40.28
334.903	89.43
335.116	-4.78
335.329	32.08
335.541	77.14
335.754	105.81
335.966	107.86
336.179	81.24
336.392	21.84
336.604	52.56
336.817	79.19
337.029	111.96
337.242	46.42
337.454	66.9
337.667	-12.97
337.88	99.67
338.092	118.1
338.305	64.85
338.517	30.04
338.729	11.61
338.942	19.8
339.154	-6.83
339.367	17.75
339.579	99.67
339.792	17.75
340.004	48.47
340.217	93.52
340.429	60.76
340.641	81.24
340.854	79.19
341.066	71
341.278	36.18
341.491	136.53
341.703	19.8
341.915	77.14
342.128	40.28
342.34	66.9
342.552	44.37
342.764	101.72
342.977	19.8
343.189	126.29
343.401	85.33
343.613	-12.97
343.826	25.94
344.038	44.37
344.25	58.71
344.462	36.18
344.674	54.61
344.886	68.95
345.099	34.13
345.311	75.09
345.523	77.14
345.735	32.08
345.947	56.66
346.159	19.8
346.371	89.43
346.583	109.91
346.795	11.61
347.007	58.71
347.219	27.99
347.431	7.51
347.643	91.48
347.855	77.14
348.067	27.99
348.279	25.94
348.491	83.28
348.703	3.41
348.915	50.52
349.127	68.95
349.339	101.72
349.551	66.9
349.763	128.34
349.975	75.09
350.187	30.04
350.399	85.33
350.61	56.66
350.822	11.61
351.034	101.72
351.246	50.52
351.458	52.56
351.669	11.61
351.881	99.67
352.093	68.95
352.305	52.56
352.517	13.65
352.728	105.81
352.94	40.28
353.152	97.62
353.363	27.99
353.575	58.71
353.787	142.68
353.999	99.67
354.21	30.04
354.422	64.85
354.633	68.95
354.845	81.24
355.057	71
355.268	99.67
355.48	64.85
355.692	46.42
355.903	17.75
356.115	79.19
356.326	58.71
356.538	75.09
356.749	91.48
356.961	56.66
357.172	68.95
357.384	81.24
357.595	109.91
357.807	75.09
358.018	25.94
358.23	157.01
358.441	71
358.653	48.47
358.864	32.08
359.075	44.37
359.287	73.04
359.498	73.04
359.709	75.09
359.921	99.67
360.132	42.32
360.344	105.81
360.555	46.42
360.766	7.51
360.977	32.08
361.189	68.95
361.4	40.28
361.611	66.9
361.823	126.29
362.034	64.85
362.245	17.75
362.456	44.37
362.667	75.09
362.879	15.7
363.09	38.23
363.301	111.96
363.512	107.86
363.723	120.15
363.935	40.28
364.146	71
364.357	54.61
364.568	44.37
364.779	17.75
364.99	77.14
365.201	30.04
365.412	79.19
365.623	68.95
365.834	60.76
366.045	66.9
366.256	27.99
366.467	75.09
366.678	89.43
366.889	56.66
367.1	54.61
367.311	66.9
367.522	50.52
367.733	91.48
367.944	87.38
368.155	109.91
368.366	85.33
368.577	83.28
368.788	58.71
368.999	99.67
369.209	21.84
369.42	58.71
369.631	130.39
369.842	107.86
370.053	64.85
370.264	60.76
370.474	75.09
370.685	38.23
370.896	19.8
371.107	11.61
371.317	48.47
371.528	56.66
371.739	64.85
371.95	62.8
372.16	120.15
372.371	40.28
372.582	-4.78
372.792	3.41
373.003	83.28
373.214	38.23
373.424	68.95
373.635	58.71
373.846	114
374.056	40.28
374.267	99.67
374.477	114
374.688	38.23
374.898	120.15
375.109	60.76
375.319	66.9
375.53	66.9
375.74	77.14
375.951	73.04
376.161	81.24
376.372	32.08
376.582	60.76
376.793	19.8
377.003	60.76
377.214	-4.78
377.424	116.05
377.635	130.39
377.845	62.8
378.055	66.9
378.266	5.46
378.476	73.04
378.686	91.48
378.897	101.72
379.107	120.15
379.317	99.67
379.528	7.51
379.738	93.52
379.948	79.19
380.158	105.81
380.369	3.41
380.579	38.23
380.789	13.65
380.999	140.63
381.21	64.85
381.42	81.24
381.63	46.42
381.84	120.15
382.05	75.09
382.261	120.15
382.471	109.91
382.681	62.8
382.891	77.14
383.101	54.61
383.311	9.56
383.521	77.14
383.731	75.09
383.941	101.72
384.151	71
384.361	75.09
384.571	32.08
384.781	60.76
384.991	165.2
385.201	189.78
385.411	34.13
385.621	42.32
385.831	107.86
386.041	64.85
386.251	68.95
386.461	46.42
386.671	97.62
386.881	15.7
387.091	89.43
387.301	91.48
387.511	111.96
387.72	109.91
387.93	32.08
388.14	60.76
388.35	66.9
388.56	97.62
388.769	44.37
388.979	99.67
389.189	83.28
389.399	95.57
389.609	97.62
389.818	68.95
390.028	81.24
390.238	124.24
390.447	89.43
390.657	109.91
390.867	77.14
391.076	87.38
391.286	77.14
391.496	105.81
391.705	87.38
391.915	124.24
392.125	126.29
392.334	101.72
392.544	73.04
392.753	40.28
392.963	105.81
393.172	46.42
393.382	42.32
393.591	95.57
393.801	36.18
394.01	167.25
394.22	75.09
394.429	109.91
394.639	56.66
394.848	146.77
395.058	111.96
395.267	73.04
395.477	140.63
395.686	101.72
395.895	50.52
396.105	73.04
396.314	40.28
396.524	132.44
396.733	87.38
396.942	126.29
397.152	167.25
397.361	179.54
397.57	52.56
397.78	107.86
397.989	116.05
398.198	171.35
398.407	114
398.617	152.91
398.826	97.62
399.035	157.01
399.244	122.2
399.453	87.38
399.663	130.39
399.872	136.53
400.081	105.81
400.29	191.83
400.499	105.81
400.708	161.11
400.917	114
401.127	124.24
401.336	89.43
401.545	122.2
401.754	150.87
401.963	187.73
402.172	183.63
402.381	66.9
402.59	95.57
402.799	191.83
403.008	140.63
403.217	202.07
403.426	165.2
403.635	111.96
403.844	189.78
404.053	163.15
404.262	163.15
404.471	232.79
404.68	109.91
404.888	97.62
405.097	224.59
405.306	154.96
405.515	165.2
405.724	179.54
405.933	247.12
406.142	157.01
406.35	224.59
406.559	159.06
406.768	208.21
406.977	228.69
407.185	185.68
407.394	251.22
407.603	171.35
407.812	165.2
408.02	259.41
408.229	275.79
408.438	243.03
408.646	226.64
408.855	304.46
409.064	240.98
409.272	220.5
409.481	273.75
409.69	298.32
409.898	226.64
410.107	347.47
410.315	290.13
410.524	388.43
410.733	378.19
410.941	359.76
411.15	421.2
411.358	359.76
411.567	363.86
411.775	322.9
411.984	349.52
412.192	431.44
412.401	439.63
412.609	427.34
412.818	425.29
413.026	468.3
413.234	474.45
413.443	486.73
413.651	494.93
413.86	544.08
414.068	644.43
414.276	585.04
414.485	613.71
414.693	634.19
414.901	695.63
415.11	703.82
415.318	634.19
415.526	589.13
415.734	763.21
415.943	765.26
416.151	789.83
416.359	746.83
416.567	703.82
416.776	838.98
416.984	931.14
417.192	916.81
417.4	961.86
417.608	826.7
417.817	951.62
418.025	1045.83
418.233	1092.93
418.441	1076.55
418.649	1127.75
418.857	1252.67
419.065	1187.14
419.273	1246.53
419.481	1181
419.689	1357.12
419.897	1420.61
420.105	1279.3
420.313	1482.05
420.521	1439.04
420.729	1568.06
420.937	1529.15
421.145	1658.17
421.353	1697.08
421.561	1754.43
421.769	1867.06
421.977	1948.98
422.185	1799.48
422.393	1971.51
422.601	2166.07
422.809	2114.87
423.017	2121.01
423.224	2309.43
423.432	2241.84
423.64	2325.81
423.848	2532.65
424.056	2563.37
424.263	2690.35
424.471	2710.83
424.679	2694.44
424.887	2837.8
425.094	2850.09
425.302	2995.5
425.51	3099.94
425.718	3198.24
425.925	3284.26
426.133	3169.57
426.341	3458.34
426.548	3472.67
426.756	3562.78
426.964	3681.57
427.171	3812.64
427.379	3947.8
427.586	4105.49
427.794	4082.97
428.001	4422.93
428.209	4564.24
428.417	4504.85
428.624	4807.95
428.832	4742.41
429.039	4660.49
429.247	4709.65
429.454	5131.53
429.662	5676.29
429.869	5258.5
430.076	5522.69
430.284	5369.09
430.491	5670.14
430.699	5975.29
430.906	5948.67
431.114	5950.71
431.321	6169.85
431.528	6554.87
431.736	6806.77
431.943	7195.88
432.15	6847.72
432.358	7029.99
432.565	7367.91
432.772	7318.76
432.979	7847.13
433.187	7965.92
433.394	7871.71
433.601	8379.61
433.808	8316.12
434.016	8232.15
434.223	8764.62
434.43	9129.16
434.637	9065.67
434.844	9782.46
435.052	9831.62
435.259	9587.91
435.466	9893.05
435.673	9860.29
435.88	10443.96
436.087	10996.91
436.294	11134.12
436.501	10525.88
436.708	10890.42
436.915	11285.67
437.122	11709.6
437.329	11924.64
437.537	11992.22
437.743	12293.27
437.95	12184.73
438.157	12717.2
438.364	13311.11
438.571	13157.52
438.778	13483.14
438.985	14642.29
439.192	14058.62
439.399	14595.19
439.606	14081.15
439.813	15113.33
440.02	15797.35
440.227	15549.54
440.433	15463.53
440.64	16077.92
440.847	15778.92
441.054	16608.34
441.261	17441.87
441.467	17192.01
441.674	17448.01
441.881	17990.72
442.088	18050.11
442.294	17943.62
442.501	18539.58
442.708	18824.25
442.914	19821.61
443.121	20384.8
443.328	19874.85
443.534	21130.26
443.741	20878.36
443.948	20429.85
444.154	21914.63
444.361	21816.33
444.568	22141.96
444.774	21976.07
444.981	22260.74
445.187	22957.05
445.394	23669.74
445.6	23522.29
445.807	25826.25
446.013	24744.92
446.22	25121.75
446.426	26227.65
446.633	26258.37
446.839	27104.18
447.046	26448.83
447.252	27581.36
447.459	27339.7
447.665	27194.29
447.871	28930.97
448.078	29899.66
448.284	28687.26
448.491	29744.02
448.697	30352.26
448.903	31167.35
449.11	31124.35
449.316	30604.16
449.522	31257.46
449.728	32379.75
449.935	32463.72
450.141	32217.96
450.347	33063.77
450.553	31841.14
450.76	32412.52
450.966	33561.43
451.172	33287
451.378	33975.12
451.584	33211.23
451.791	34302.79
451.997	34636.61
452.203	34653
452.409	34448.2
452.615	34155.34
452.821	33459.03
453.027	33055.58
453.233	34851.65
453.44	33260.38
453.646	33842
453.852	33776.47
454.058	34483.02
454.264	33088.35
454.47	34079.57
454.676	33387.35
454.882	34464.58
455.088	31638.39
455.294	31806.32
455.5	32691.04
455.705	32371.56
455.911	31161.21
456.117	30970.75
456.323	30493.57
456.529	28906.4
456.735	30061.45
456.941	29430.68
457.147	28752.8
457.352	27888.56
457.558	27603.89
457.764	27644.85
457.97	27263.93
458.176	26446.79
458.381	26561.47
458.587	25367.51
458.793	25232.34
458.999	24241.12
459.204	25756.62
459.41	25240.53
459.616	23176.18
459.821	23266.29
460.027	23030.77
460.233	22846.46
460.438	21527.56
460.644	22076.42
460.85	21185.55
461.055	20417.57
461.261	20694.04
461.466	19196.98
461.672	18402.36
461.878	19938.34
462.083	18502.72
462.289	18003.01
462.494	18084.93
462.7	17398.86
462.905	16675.93
463.111	17271.89
463.316	17335.37
463.522	17013.84
463.727	16878.68
463.932	17071.18
464.138	16786.52
464.343	16915.54
464.549	16194.65
464.754	16886.87
464.959	16870.48
465.165	16538.71
465.37	15899.75
465.575	15631.46
465.781	16182.37
465.986	16000.1
466.191	15570.02
466.397	15441
466.602	14761.08
466.807	15430.76
467.012	15121.52
467.218	15123.57
467.423	14851.19
467.628	15023.22
467.833	15344.75
468.038	14806.13
468.244	14781.56
468.449	15098.99
468.654	14789.75
468.859	14816.37
469.064	14648.44
469.269	14019.71
469.474	14296.19
469.679	14531.7
469.885	13739.14
470.09	14249.08
470.295	13845.63
470.5	13802.63
470.705	13737.09
470.91	13288.59
471.115	13493.38
471.32	13655.17
471.525	13497.48
471.73	13450.38
471.935	13190.28
472.139	12614.8
472.344	12772.5
472.549	12780.69
472.754	12545.17
472.959	12442.78
473.164	12008.61
473.369	12217.5
473.574	12543.13
473.778	12151.96
473.983	12270.75
474.188	12262.55
474.393	11637.92
474.598	11517.09
474.802	11500.71
475.007	11093.16
475.212	11465.89
475.417	10931.37
475.621	10851.5
475.826	11150.51
476.031	10669.23
476.235	10663.09
476.44	10855.6
476.645	10570.93
476.849	10607.8
477.054	10706.1
477.259	10345.66
477.463	10273.98
477.668	10075.32
477.872	10314.94
478.077	10009.79
478.282	9637.06
478.486	9573.57
478.691	9628.87
478.895	9741.5
479.1	9585.86
479.304	9467.08
479.509	9176.27
479.713	9450.69
479.918	9344.2
480.122	9102.54
480.326	9264.33
480.531	9252.04
480.735	9069.77
480.94	9116.87
481.144	9190.6
481.348	9088.2
481.553	9065.67
481.757	8871.12
481.961	9184.46
482.166	8940.75
482.37	9047.24
482.574	8965.32
482.778	8840.4
482.983	9065.67
483.187	8961.23
483.391	8987.85
483.595	8781.01
483.8	8674.51
484.004	8953.04
484.208	8903.89
484.412	9098.44
484.616	8848.59
484.821	8910.03
485.025	8805.58
485.229	8858.83
485.433	8803.53
485.637	9020.62
485.841	8899.79
486.045	8916.17
486.249	9016.52
486.453	8799.44
486.657	8778.96
486.861	9057.48
487.065	8821.97
487.269	8770.77
487.473	8649.94
487.677	8950.99
487.881	8989.9
488.085	8799.44
488.289	8983.76
488.493	8944.84
488.697	8907.98
488.901	9047.24
489.105	9034.96
489.309	8979.66
489.512	8887.5
489.716	9123.02
489.92	9178.31
490.124	8809.68
490.328	9327.81
490.531	9174.22
490.735	9045.2
490.939	9303.24
491.143	9063.63
491.346	9180.36
491.55	9352.39
491.754	9284.81
491.958	9473.22
492.161	9235.66
492.365	9465.03
492.569	9522.37
492.772	9499.84
492.976	9655.49
493.18	9551.04
493.383	9641.15
493.587	9757.89
493.79	9778.37
493.994	9835.71
494.197	9776.32
494.401	9899.2
494.605	9751.74
494.808	10147
495.012	10005.69
495.215	10030.27
495.419	10104
495.622	10237.11
495.825	10525.88
496.029	10329.27
496.232	10495.16
496.436	10579.12
496.639	10775.73
496.843	10669.23
497.046	10888.37
497.249	11181.23
497.453	11070.64
497.656	11318.44
497.859	11390.12
498.063	11607.2
498.266	11484.33
498.469	11916.45
498.673	11812
498.876	11828.38
499.079	11963.55
499.282	12262.55
499.485	12387.48
499.689	12309.66
499.892	12524.69
500.095	12598.42
500.298	12919.95
500.501	12922
500.705	13255.82
500.908	13448.33
501.111	13413.51
501.314	13495.43
501.517	13522.06
501.72	14132.35
501.923	13882.5
502.126	14130.3
502.329	14402.68
502.532	14580.85
502.735	14765.17
502.938	14687.35
503.141	14951.54
503.344	15168.62
503.547	14910.58
503.75	15676.52
503.953	15832.16
504.156	15557.74
504.359	15969.38
504.562	15803.49
504.765	16352.35
504.968	16450.65
505.17	16579.67
505.373	16577.62
505.576	17159.25
505.779	17146.96
505.982	17271.89
506.185	17392.72
506.387	17525.83
506.59	18136.13
506.793	18132.03
506.996	17929.28
507.198	18727.99
507.401	18480.19
507.604	19115.06
507.807	18891.83
508.009	19153.97
508.212	19323.95
508.415	19792.94
508.617	19745.83
508.82	20169.76
509.022	19909.67
509.225	20059.17
509.428	20325.41
509.63	20833.3
509.833	20737.05
510.035	21212.18
510.238	21271.57
510.44	21296.14
510.643	21486.61
510.845	21910.53
511.048	21488.65
511.25	22307.84
511.453	22440.96
511.655	23157.75
511.858	22660.09
512.06	22924.28
512.262	23335.92
512.465	23258.1
512.667	23614.44
512.87	23821.29
513.072	24095.72
513.274	24726.49
513.477	24835.03
513.679	24998.87
513.881	25410.51
514.084	25179.09
514.286	25215.96
514.488	25680.85
514.69	26078.15
514.893	26137.54
515.095	26463.17
515.297	26796.99
515.499	26454.98
515.701	27046.84
515.904	27112.38
516.106	27524.02
516.308	27616.18
516.51	27911.08
516.712	28036.01
516.914	28259.24
517.116	28648.35
517.318	28984.22
517.52	29213.59
517.722	29154.2
517.925	29737.87
518.127	29934.48
518.329	29918.09
518.531	30002.06
518.733	30534.53
518.935	30663.55
519.136	30923.65
519.338	30993.28
519.54	31206.27
519.742	31484.79
519.944	31476.6
520.146	32093.04
520.348	32406.37
520.55	32330.6
520.752	32387.94
520.954	32858.98
521.155	32711.52
521.357	33160.03
521.559	33690.45
521.761	34237.26
521.963	33575.76
522.164	33764.18
522.366	34231.11
522.568	34132.81
522.77	34470.73
522.971	35277.63
523.173	34603.85
523.375	35453.75
523.576	35324.73
523.778	35674.93
523.98	35398.46
524.181	35668.79
524.383	35705.65
524.584	36197.17
524.786	36383.53
524.988	36250.41
525.189	36635.43
525.391	36780.84
525.592	37165.85
525.794	36948.77
525.995	37020.45
526.197	36879.14
526.398	37239.58
526.6	37458.71
526.801	37241.63
527.003	37749.53
527.204	37649.17
527.406	38320.91
527.607	38331.15
527.808	38537.99
528.01	37915.41
528.211	38275.85
528.412	39154.43
528.614	38923.01
528.815	38736.65
529.016	38998.79
529.218	38478.6
529.419	38935.3
529.62	38853.38
529.822	38994.69
530.023	38863.62
530.224	39138.05
530.425	38906.63
530.626	39123.71
530.828	38933.25
531.029	39707.38
531.23	39160.58
531.431	39031.55
531.632	39160.58
531.833	39840.5
532.035	39430.91
532.236	39346.94
532.437	39688.95
532.638	39633.66
532.839	39787.25
533.04	39932.66
533.241	39637.75
533.442	40659.69
533.643	39867.12
533.844	40041.2
534.045	39924.47
534.246	39219.97
534.447	39963.38
534.648	39361.28
534.849	40327.92
535.05	39756.53
535.251	39838.45
535.451	39527.16
535.652	39920.37
535.853	39813.88
536.054	40104.69
536.255	39949.04
536.456	39781.11
536.657	40219.38
536.857	39502.59
537.058	39865.08
537.259	39895.8
537.46	39918.32
537.66	39860.98
537.861	39740.15
538.062	40000.24
538.263	40407.79
538.463	39699.19
538.664	39656.18
538.865	39820.02
539.065	40389.36
539.266	39437.05
539.466	40266.48
539.667	39404.28
539.868	40180.46
540.068	40102.64
540.269	40090.35
540.469	40184.56
540.67	39607.03
540.87	39578.36
541.071	40071.92
541.271	39797.49
541.472	39748.34
541.672	39629.56
541.873	39889.65
542.073	39017.22
542.274	40082.16
542.474	39113.47
542.675	39203.58
542.875	39977.72
543.075	39897.84
543.276	38914.82
543.476	40243.95
543.676	39623.42
543.877	39899.89
544.077	40053.49
544.277	39615.22
544.478	39432.96
544.678	39691
544.878	39680.76
545.078	39641.85
545.279	39504.63
545.479	39502.59
545.679	39897.84
545.879	39840.5
546.079	39557.88
546.28	39285.5
546.48	39451.39
546.68	39330.56
546.88	39385.85
547.08	39869.17
547.28	39314.17
547.48	39371.52
547.68	39381.76
547.88	38947.59
548.081	39428.86
548.281	39508.73
548.481	39080.71
548.681	39416.57
548.881	39222.01
549.081	39105.28
549.28	39193.34
549.48	39643.9
549.68	39326.46
549.88	39990
550.08	39154.43
550.28	39445.24
550.48	39516.92
550.68	39246.59
550.88	39105.28
551.08	39312.13
551.279	39363.32
551.479	39054.08
551.679	38744.84
551.879	39383.8
552.079	39154.43
552.278	39041.79
552.478	39283.45
552.678	38978.31
552.878	39410.43
553.077	39049.99
553.277	38408.97
553.477	39181.06
553.676	39377.66
553.876	38859.52
554.076	38855.43
554.275	38595.34
554.475	38494.99
554.674	39033.6
554.874	39355.13
555.074	38542.09
555.273	38945.54
555.473	38796.04
555.672	38822.66
555.872	38804.23
556.071	38245.13
556.271	38986.5
556.47	38503.18
556.67	38265.61
556.869	38445.83
557.068	38572.81
557.268	38437.64
557.467	38537.99
557.667	38103.82
557.866	38302.48
558.065	38132.5
558.265	37503.77
558.464	38089.49
558.663	38566.66
558.863	37823.25
559.062	38605.58
559.261	37946.13
559.461	38386.44
559.66	37471
559.859	38167.31
560.058	37745.43
560.258	37561.11
560.457	37886.74
560.656	37915.41
560.855	37530.39
561.054	37630.74
561.253	37462.81
561.453	37747.48
561.652	37565.21
561.851	37608.22
562.05	37100.32
562.249	37002.02
562.448	37696.28
562.647	37466.91
562.846	37661.46
563.045	37155.61
563.244	36772.64
563.443	37276.44
563.642	36795.17
563.841	37231.39
564.04	36739.88
564.239	37116.7
564.438	36592.42
564.637	37149.47
564.836	36803.36
565.035	36498.22
565.234	36856.61
565.432	36496.17
565.631	36500.26
565.83	36576.04
566.029	36496.17
566.228	36528.94
566.427	36244.27
566.625	36074.29
566.824	35906.35
567.023	36322.09
567.222	35623.73
567.42	36268.84
567.619	36117.29
567.818	35926.83
568.016	35699.51
568.215	36408.11
568.414	36014.9
568.612	36473.64
568.811	35638.07
569.01	35590.97
569.208	35463.99
569.407	35806
569.605	34935.62
569.804	35502.9
570.002	34954.05
570.201	35674.93
570.4	35064.64
570.598	35314.49
570.797	35199.8
570.995	35150.65
571.193	34587.46
571.392	35029.82
571.59	34179.92
571.789	34562.89
571.987	34749.25
572.186	34597.7
572.384	34448.2
572.582	34806.59
572.781	34495.3
572.979	34308.94
573.177	34513.73
573.376	34313.03
573.574	33731.41
573.772	34296.65
573.971	33842
574.169	33811.28
574.367	33719.12
574.565	34114.38
574.763	33522.52
574.962	33776.47
575.16	33467.22
575.358	33792.85
575.556	32940.89
575.754	33231.71
575.952	32942.94
576.151	33409.88
576.349	33250.14
576.547	32924.51
576.745	33141.6
576.943	32858.98
577.141	32545.64
577.339	32502.63
577.537	32469.86
577.735	32695.14
577.933	32678.75
578.131	32494.44
578.329	32424.81
578.527	32344.94
578.725	32355.18
578.923	32289.64
579.121	31957.87
579.319	32086.89
579.516	32017.26
579.714	31873.9
579.912	31791.98
580.11	31728.5
580.308	31927.15
580.506	31228.79
580.704	31067
580.901	31669.11
581.099	31859.57
581.297	31372.15
581.495	31456.12
581.692	31277.94
581.89	31021.95
582.088	31138.68
582.285	30659.46
582.483	31095.67
582.681	30980.99
582.878	30927.74
583.076	30524.29
583.274	31062.91
583.471	30376.84
583.669	30231.43
583.866	30356.36
584.064	30716.8
584.262	30014.35
584.459	30274.44
584.657	30069.64
584.854	30090.12
585.052	29877.13
585.249	30239.62
585.447	29739.92
585.644	29645.71
585.841	29664.14
586.039	29797.26
586.236	29293.46
586.434	29426.58
586.631	29463.44
586.828	28916.64
587.026	29492.12
587.223	29352.85
587.42	28922.78
587.618	29156.25
587.815	28601.25
588.012	28916.64
588.21	28746.65
588.407	29256.6
588.604	28560.29
588.801	28564.39
588.999	28304.29
589.196	28341.16
589.393	28001.19
589.59	28337.06
589.787	28087.21
589.984	28113.83
590.182	27966.38
590.379	27921.32
590.576	27806.64
590.773	27900.84
590.97	27732.91
591.167	27919.28
591.364	27169.72
591.561	27913.13
591.758	27331.51
591.955	27339.7
592.152	27650.99
592.349	27270.07
592.546	27390.9
592.743	27411.38
592.94	26622.91
593.137	26817.47
593.334	27085.75
593.531	26614.72
593.727	26846.14
593.924	26919.87
594.121	26504.13
594.318	26596.29
594.515	26305.48
594.712	26321.86
594.908	26045.38
595.105	26244.04
595.302	26041.29
595.499	26317.76
595.696	25916.36
595.892	25781.2
596.089	25918.41
596.286	26237.89
596.482	25672.65
596.679	25568.21
596.876	25938.89
597.072	25621.45
597.269	25492.43
597.466	25039.83
597.662	25271.25
597.859	25285.59
598.055	25263.06
598.252	25078.74
598.448	25109.46
598.645	24587.23
598.841	24677.34
599.038	25023.45
599.234	25041.88
599.431	24472.54
599.627	24581.09
599.824	24409.06
600.02	24099.81
600.217	24151.01
600.413	24294.37
600.609	24214.5
600.806	24230.88
601.002	24380.39
601.198	24085.48
601.395	23800.81
601.591	23647.21
601.787	23645.16
601.984	23702.51
602.18	23978.98
602.376	23579.63
602.572	23385.07
602.769	23485.42
602.965	23227.38
603.161	23577.58
603.357	23274.48
603.553	23239.67
603.75	23106.55
603.946	22854.65
604.142	23133.17
604.338	22461.44
604.534	23094.26
604.73	22965.24
604.926	22770.68
605.122	22840.31
605.318	22457.34
605.514	22461.44
605.71	22379.52
605.906	22283.27
606.102	22125.57
606.298	22367.23
606.494	22295.55
606.69	22600.7
606.886	22369.28
607.082	21820.42
607.278	22014.98
607.474	21517.33
607.67	22049.8
607.866	21363.73
608.062	21853.19
608.257	21597.2
608.453	21840.9
608.649	21617.68
608.845	21400.59
609.041	21539.85
609.236	21801.99
609.432	21459.98
609.628	21605.39
609.824	21341.2
610.019	21212.18
610.215	21359.63
610.411	21378.06
610.606	21144.59
610.802	21398.54
610.998	21322.77
611.193	21234.71
611.389	21285.9
611.584	21246.99
611.78	20689.95
611.976	21238.8
612.171	21001.24
612.367	20857.88
612.562	20861.97
612.758	20341.79
612.953	20997.14
613.149	20761.62
613.344	20196.39
613.539	20947.99
613.735	20532.25
613.93	20626.46
614.126	20661.27
614.321	20644.89
614.517	20495.39
614.712	20618.27
614.907	20153.38
615.103	20608.03
615.298	20288.54
615.493	20343.84
615.688	20155.43
615.884	20290.59
616.079	19919.91
616.274	20438.05
616.47	20231.2
616.665	20067.36
616.86	19983.4
617.055	20046.88
617.25	19821.61
617.445	20143.14
617.641	19530.8
617.836	19981.35
618.031	19817.51
618.226	19813.42
618.421	19592.23
618.616	19792.94
618.811	19295.28
619.006	19811.37
619.201	19457.07
619.396	19385.39
619.591	18920.5
619.786	19303.47
619.981	18963.51
620.176	19115.06
620.371	18924.6
620.566	18971.7
620.761	18537.53
620.956	18850.87
621.151	18373.69
621.346	18807.86
621.541	18283.58
621.735	18424.89
621.93	17955.91
622.125	18222.14
622.32	18003.01
622.515	18101.31
622.709	18052.16
622.904	17681.48
623.099	17656.9
623.294	17871.94
623.488	17663.05
623.683	17560.65
623.878	17417.29
624.072	17269.84
624.267	16958.55
624.462	16915.54
624.656	17011.79
624.851	17022.03
625.046	17001.55
625.24	16727.13
625.435	16626.78
625.629	16686.17
625.824	16559.19
626.018	16424.03
626.213	16100.45
626.407	16483.42
626.602	16000.1
626.796	16157.79
626.991	16094.3
627.185	15893.6
627.38	15785.06
627.574	15658.09
627.768	15637.61
627.963	15658.09
628.157	15422.57
628.352	15324.27
628.546	15168.62
628.74	15049.84
628.935	15156.33
629.129	14926.96
629.323	14998.64
629.517	14840.95
629.712	14777.46
629.906	14642.29
630.1	14632.05
630.294	14658.68
630.489	14447.74
630.683	14396.54
630.877	14283.9
631.071	14222.46
631.265	14400.63
631.459	14066.81
631.653	13859.97
631.848	14173.31
632.042	13882.5
632.236	14091.39
632.43	13763.72
632.624	13763.72
632.818	13741.19
633.012	13505.67
633.206	13264.01
633.4	13536.39
633.594	13053.07
633.788	13376.65
633.982	13339.79
634.176	13175.95
634.369	13345.93
634.563	13071.5
634.757	13044.88
634.951	13091.98
635.145	12844.18
635.339	12760.21
635.533	12688.53
635.726	12870.8
635.92	12502.17
636.114	12526.74
636.308	12590.23
636.501	12313.75
636.695	12549.27
636.889	12309.66
637.083	12156.06
637.276	12022.94
637.47	12149.92
637.664	11965.6
637.857	12190.88
638.051	11947.17
638.244	11695.27
638.438	11807.91
638.632	11623.59
638.825	11537.57
639.019	11639.97
639.212	11619.49
639.406	11549.86
639.599	11379.88
639.793	11369.64
639.986	11189.42
640.18	11287.72
640.373	11263.15
640.567	11033.77
640.76	10917.04
640.954	10964.14
641.147	11037.87
641.34	10943.66
641.534	10765.49
641.727	10648.75
641.92	10845.36
642.114	10738.87
642.307	10642.61
642.5	10673.33
642.694	10482.87
642.887	10462.39
643.08	10364.09
643.273	10450.1
643.467	10110.14
643.66	10310.84
643.853	10034.36
644.046	9999.55
644.239	9999.55
644.432	9983.17
644.626	9970.88
644.819	10013.88
645.012	9891.01
645.205	9573.57
645.398	9790.66
645.591	9864.38
645.784	9481.41
645.977	9346.25
646.17	9708.74
646.363	9516.23
646.556	9415.88
646.749	9290.95
646.942	9356.49
647.135	9141.45
647.328	9346.25
647.521	9026.76
647.714	8930.51
647.907	9090.25
648.099	9204.94
648.292	9090.25
648.485	8930.51
648.678	8858.83
648.871	8965.32
649.064	8785.1
649.256	8840.4
649.449	8701.14
649.642	8744.14
649.835	8588.5
650.027	8690.9
650.22	8645.84
650.413	8619.22
650.605	8371.41
650.798	8398.04
650.991	8248.54
651.183	8471.76
651.376	8201.43
651.568	8232.15
651.761	8303.83
651.954	8187.1
652.146	8092.89
652.339	8045.79
652.531	7847.13
652.724	7859.42
652.916	7898.33
653.109	7767.26
653.301	7763.17
653.494	7795.93
653.686	7539.94
653.879	7779.55
654.071	7804.13
654.263	7691.49
654.456	7544.03
654.648	7494.88
654.84	7384.29
655.033	7466.21
655.225	7548.13
655.417	7249.13
655.61	7296.23
655.802	7279.85
655.994	7183.59
656.186	7269.61
656.379	7175.4
656.571	7396.58
656.763	7154.92
656.955	7120.1
657.148	7017.71
657.34	7161.06
657.532	6937.84
657.724	6937.84
657.916	6864.11
658.108	6802.67
658.3	6724.85
658.492	6589.68
658.684	6810.86
658.876	6708.46
659.068	6774
659.26	6577.39
659.452	6569.2
659.644	6544.63
659.836	6384.88
660.028	6499.57
660.22	6376.69
660.412	6427.89
660.604	6190.33
660.796	6421.75
660.988	6253.81
661.18	6247.67
661.372	6212.85
661.563	6348.02
661.755	6171.9
661.947	6157.56
662.139	6233.33
662.331	5926.14
662.522	5958.91
662.714	6120.7
662.906	6014.2
663.097	5917.95
663.289	5733.63
663.481	5770.49
663.673	5846.27
663.864	5817.6
664.056	5571.84
664.247	5788.92
664.439	5805.31
664.631	5860.6
664.822	5596.42
665.014	5590.27
665.205	5643.52
665.397	5549.31
665.588	5620.99
665.78	5541.12
665.971	5461.25
666.163	5387.52
666.354	5367.04
666.546	5305.6
666.737	5352.71
666.929	5244.17
667.12	5416.19
667.311	5395.71
667.503	5156.1
667.694	5129.48
667.885	5190.92
668.077	5233.93
668.268	4984.07
668.459	5262.6
668.651	5149.96
668.842	5080.33
669.033	5065.99
669.224	5045.51
669.416	5152.01
669.607	4984.07
669.798	4807.95
669.989	5180.68
670.18	5047.56
670.371	4996.36
670.563	4721.93
670.754	4836.62
670.945	4857.1
671.136	4836.62
671.327	4795.66
671.518	4726.03
671.709	4795.66
671.9	4797.71
672.091	4660.49
672.282	4713.74
672.473	4609.3
672.664	4691.21
672.855	4631.82
673.046	4580.62
673.237	4625.68
673.428	4490.51
673.619	4420.88
673.809	4609.3
674	4601.1
674.191	4517.14
674.382	4658.45
674.573	4324.63
674.764	4277.52
674.954	4629.77
675.145	4431.12
675.336	4402.45
675.527	4478.22
675.717	4455.7
675.908	4314.39
676.099	4394.26
676.289	4400.4
676.48	4400.4
676.671	4302.1
676.861	4406.55
677.052	4201.75
677.243	4228.37
677.433	4209.94
677.624	4291.86
677.814	4132.12
678.005	4181.27
678.195	4197.65
678.386	4226.32
678.576	4068.63
678.767	4168.98
678.957	4119.83
679.148	4205.85
679.338	4085.01
679.529	4132.12
679.719	4021.53
679.909	4113.69
680.1	3976.47
680.29	3970.33
680.481	4109.59
680.671	4191.51
680.861	3990.81
681.052	4103.45
681.242	4017.43
681.432	4146.45
681.622	3888.41
681.813	3960.09
682.003	3964.18
682.193	3939.61
682.383	3906.84
682.573	3931.42
682.764	3847.45
682.954	3988.76
683.144	3904.79
683.334	3912.99
683.524	3890.46
683.714	3904.79
683.904	3878.17
684.094	3886.36
684.284	3786.01
684.474	3804.44
684.664	3800.35
684.854	3867.93
685.044	3906.84
685.234	3812.64
685.424	3751.2
685.614	3697.95
685.804	3829.02
685.994	3652.89
686.184	3802.4
686.374	3802.4
686.564	3716.38
686.753	3724.57
686.943	3726.62
687.133	3538.21
687.323	3656.99
687.513	3702.04
687.702	3661.09
687.892	3665.18
688.082	3616.03
688.272	3675.42
688.461	3624.22
688.651	3505.44
688.841	3515.68
689.03	3423.52
689.22	3478.82
689.41	3527.97
689.599	3429.66
689.789	3353.89
689.979	3435.81
690.168	3353.89
690.358	3382.56
690.547	3380.51
690.737	3478.82
690.926	3329.31
691.116	3300.64
691.305	3378.47
691.495	3349.79
691.684	3253.54
691.874	3276.07
692.063	3263.78
692.252	3294.5
692.442	3132.71
692.631	3161.38
692.82	3169.57
693.01	3145
693.199	3149.09
693.388	3038.5
693.578	3177.76
693.767	3112.23
693.956	3071.27
694.146	3147.05
694.335	2958.63
694.524	2997.54
694.713	2983.21
694.902	3054.89
695.092	3052.84
695.281	2907.43
695.47	3079.46
695.659	2956.58
695.848	2870.57
696.037	2903.34
696.226	2866.47
696.415	2833.71
696.604	2884.91
696.793	2790.7
696.982	2837.8
697.171	2798.89
697.36	2827.56
697.549	2811.18
697.738	2757.93
697.927	2768.17
698.116	2772.27
698.305	2743.6
698.494	2688.3
698.683	2753.84
698.872	2790.7
699.061	2704.68
699.25	2686.25
699.438	2837.8
699.627	2764.08
699.816	2626.86
700.005	2628.91
700.193	2669.87
700.382	2682.16
700.571	2663.72
700.76	2637.1
700.948	2643.24
701.137	2678.06
701.326	2557.23
701.514	2561.33
701.703	2540.85
701.892	2594.09
702.08	2710.83
702.269	2678.06
702.457	2512.17
702.646	2608.43
702.834	2620.72
703.023	2491.7
703.212	2602.29
703.4	2694.44
703.589	2417.97
703.777	2475.31
703.965	2518.32
704.154	2516.27
704.342	2460.98
704.531	2534.7
704.719	2442.54
704.907	2499.89
705.096	2518.32
705.284	2362.67
705.472	2477.36
705.661	2628.91
705.849	2481.46
706.037	2460.98
706.226	2329.91
706.414	2372.91
706.602	2491.7
706.79	2557.23
706.979	2446.64
707.167	2432.3
707.355	2440.5
707.543	2467.12
707.731	2463.02
707.919	2358.58
708.107	2374.96
708.296	2327.86
708.484	2364.72
708.672	2430.26
708.86	2442.54
709.048	2407.73
709.236	2344.24
709.424	2309.43
709.612	2409.78
709.8	2440.5
709.988	2346.29
710.176	2342.19
710.364	2370.87
710.551	2284.85
710.739	2323.76
710.927	2475.31
711.115	2460.98
711.303	2321.71
711.491	2243.89
711.679	2342.19
711.866	2356.53
712.054	2407.73
712.242	2370.87
712.43	2469.17
712.617	2274.61
712.805	2481.46
712.993	2284.85
713.181	2299.19
713.368	2360.63
713.556	2399.54
713.744	2448.69
713.931	2323.76
714.119	2338.1
714.306	2460.98
714.494	2368.82
714.682	2401.58
714.869	2196.79
715.057	2368.82
715.244	2350.39
715.432	2415.92
715.619	2354.48
715.807	2241.84
715.994	2317.62
716.182	2350.39
716.369	2395.44
716.556	2288.95
716.744	2293.04
716.931	2360.63
717.119	2417.97
717.306	2258.23
717.493	2247.99
717.681	2389.3
717.868	2256.18
718.055	2379.06
718.242	2315.57
718.43	2512.17
718.617	2325.81
718.804	2463.02
718.991	2346.29
719.179	2223.41
719.366	2370.87
719.553	2475.31
719.74	2350.39
719.927	2342.19
720.114	2362.67
720.301	2338.1
720.488	2235.7
720.676	2254.13
720.863	2409.78
721.05	2460.98
721.237	2313.52
721.424	2270.51
721.611	2307.38
721.798	2207.03
721.985	2393.39
722.172	2301.23
722.358	2346.29
722.545	2354.48
722.732	2340.15
722.919	2311.47
723.106	2268.47
723.293	2342.19
723.48	2338.1
723.667	2174.26
723.853	2303.28
724.04	2305.33
724.227	2282.8
724.414	2350.39
724.6	2260.27
724.787	2393.39
724.974	2354.48
725.161	2379.06
725.347	2327.86
725.534	2317.62
725.72	2352.43
725.907	2358.58
726.094	2381.1
726.28	2268.47
726.467	2270.51
726.653	2272.56
726.84	2315.57
727.027	2393.39
727.213	2239.8
727.4	2395.44
727.586	2297.14
727.773	2288.95
727.959	2247.99
728.145	2524.46
728.332	2293.04
728.518	2436.4
728.705	2315.57
728.891	2186.55
729.077	2379.06
729.264	2309.43
729.45	2284.85
729.636	2247.99
729.823	2262.32
730.009	2346.29
730.195	2243.89
730.382	2340.15
730.568	2211.12
730.754	2329.91
730.94	2299.19
731.126	2301.23
731.313	2401.58
731.499	2321.71
731.685	2334
731.871	2372.91
732.057	2217.27
732.243	2348.34
732.429	2413.87
732.615	2219.32
732.801	2280.75
732.987	2321.71
733.173	2368.82
733.359	2121.01
733.545	2301.23
733.731	2284.85
733.917	2264.37
734.103	2309.43
734.289	2301.23
734.475	2280.75
734.661	2190.64
734.847	2211.12
735.033	2290.99
735.219	2358.58
735.404	2221.36
735.59	2254.13
735.776	2174.26
735.962	2331.95
736.148	2256.18
736.333	2219.32
736.519	2309.43
736.705	2254.13
736.89	2186.55
737.076	2209.08
737.262	2161.97
737.447	2202.93
737.633	2272.56
737.819	2262.32
738.004	2176.31
738.19	2202.93
738.375	2354.48
738.561	2381.1
738.747	2217.27
738.932	2161.97
739.118	2186.55
739.303	2241.84
739.489	2266.42
739.674	2211.12
739.859	2102.58
740.045	2094.39
740.23	2059.57
740.416	2024.76
740.601	2145.59
740.786	2147.64
740.972	2065.72
741.157	2272.56
741.342	2059.57
741.528	2075.96
741.713	2096.44
741.898	2108.73
742.084	2116.92
742.269	2045.24
742.454	2096.44
742.639	2053.43
742.824	2084.15
743.01	2022.71
743.195	2118.96
743.38	1953.08
743.565	1969.46
743.75	1940.79
743.935	2018.61
744.12	2057.53
744.305	2014.52
744.49	2008.37
744.675	1989.94
744.86	1965.37
745.045	1877.3
745.23	1971.51
745.415	1901.88
745.6	2010.42
745.785	1969.46
745.97	1920.31
746.155	1916.22
746.34	1893.69
746.525	1940.79
746.71	1916.22
746.895	1858.87
747.079	1803.58
747.264	1889.59
747.449	1844.54
747.634	1850.68
747.819	1877.3
748.003	1770.81
748.188	1834.3
748.373	1799.48
748.557	1850.68
748.742	1752.38
748.927	1852.73
749.111	1652.03
749.296	1713.47
749.481	1729.85
749.665	1690.94
749.85	1711.42
750.034	1717.56
750.219	1758.52
750.404	1703.23
750.588	1647.93
750.773	1682.75
750.957	1688.89
751.141	1588.54
751.326	1551.68
751.51	1609.02
751.695	1539.39
751.879	1592.64
752.064	1498.43
752.248	1510.72
752.432	1664.32
752.617	1625.4
752.801	1512.77
752.985	1494.33
753.17	1523.01
753.354	1514.81
753.538	1453.38
753.722	1490.24
753.907	1385.79
754.091	1396.03
754.275	1543.49
754.459	1445.18
754.643	1500.48
754.828	1336.64
755.012	1523.01
755.196	1404.22
755.38	1400.13
755.564	1432.9
755.748	1332.54
755.932	1410.37
756.116	1404.22
756.3	1275.2
756.484	1285.44
756.668	1353.02
756.852	1289.54
757.036	1434.94
757.22	1277.25
757.404	1318.21
757.588	1299.78
757.772	1291.59
757.956	1301.83
758.14	1252.67
758.323	1250.63
758.507	1264.96
758.691	1252.67
758.875	1162.56
759.059	1178.95
759.242	1187.14
759.426	1219.91
759.61	1262.91
759.794	1215.81
759.977	1174.85
760.161	1207.62
760.345	1228.1
760.528	1174.85
760.712	1121.6
760.895	1221.95
761.079	1174.85
761.263	1152.32
761.446	1123.65
761.63	1115.46
761.813	1111.36
761.997	1137.99
762.18	1160.52
762.364	1084.74
762.547	1092.93
762.731	1068.36
762.914	1121.6
763.098	1119.56
763.281	1037.64
763.464	1076.55
763.648	1088.84
763.831	1027.4
764.015	1074.5
764.198	1062.21
764.381	1023.3
764.564	980.29
764.748	1039.69
764.931	1033.54
765.114	1092.93
765.297	929.1
765.481	1056.07
765.664	984.39
765.847	1099.08
766.03	1058.12
766.213	1002.82
766.397	963.91
766.58	945.48
766.763	929.1
766.946	916.81
767.129	941.38
767.312	996.68
767.495	1043.78
767.678	970.05
767.861	1047.88
768.044	937.29
768.227	1054.02
768.41	970.05
768.593	965.96
768.776	965.96
768.959	982.34
769.142	953.67
769.324	1027.4
769.507	896.33
769.69	838.98
769.873	916.81
770.056	884.04
770.239	984.39
770.421	953.67
770.604	892.23
770.787	826.7
770.97	904.52
771.152	859.46
771.335	863.56
771.518	855.37
771.7	906.57
771.883	943.43
772.066	828.74
772.248	851.27
772.431	869.7
772.613	855.37
772.796	832.84
772.978	773.45
773.161	736.59
773.343	820.55
773.526	830.79
773.708	793.93
773.891	763.21
774.073	804.17
774.256	736.59
774.438	869.7
774.621	746.83
774.803	820.55
774.985	773.45
775.168	810.31
775.35	722.25
775.532	787.79
775.715	806.22
775.897	736.59
776.079	816.46
776.261	761.16
776.444	761.16
776.626	746.83
776.808	658.76
776.99	683.34
777.173	642.38
777.355	636.24
777.537	660.81
777.719	736.59
777.901	580.94
778.083	617.8
778.265	669
778.447	683.34
778.629	671.05
778.811	640.33
778.993	654.67
779.175	664.91
779.357	628.04
779.539	601.42
779.721	679.24
779.903	630.09
780.085	503.12
780.267	589.13
780.449	613.71
780.631	656.72
780.812	687.43
780.994	597.32
781.176	529.74
781.358	539.98
781.54	558.41
781.721	578.89
781.903	529.74
782.085	597.32
782.267	585.04
782.448	496.97
782.63	582.99
782.812	607.56
782.993	554.32
783.175	585.04
783.357	474.45
783.538	617.8
783.72	587.08
783.901	488.78
784.083	509.26
784.264	539.98
784.446	550.22
784.627	453.97
784.809	519.5
784.99	529.74
785.172	458.06
785.353	480.59
785.535	476.49
785.716	453.97
785.897	472.4
786.079	486.73
786.26	394.58
786.441	439.63
786.623	441.68
786.804	566.6
786.985	441.68
787.167	431.44
787.348	480.59
787.529	529.74
787.71	542.03
787.891	490.83
788.073	370
788.254	394.58
788.435	462.16
788.616	376.14
788.797	468.3
788.978	488.78
789.159	404.82
789.34	370
789.522	404.82
789.703	462.16
789.884	394.58
790.065	380.24
790.246	394.58
790.427	388.43
790.607	404.82
790.788	427.34
790.969	343.38
791.15	417.1
791.331	345.42
791.512	361.81
791.693	359.76
791.874	410.96
792.054	443.73
792.235	443.73
792.416	363.86
792.597	392.53
792.778	331.09
792.958	427.34
793.139	326.99
793.32	294.22
793.5	378.19
793.681	374.1
793.862	331.09
794.042	421.2
794.223	372.05
794.404	410.96
794.584	310.61
794.765	337.23
794.945	355.66
795.126	322.9
795.306	341.33
795.487	341.33
795.667	351.57
795.848	353.62
796.028	343.38
796.209	300.37
796.389	281.94
796.57	341.33
796.75	263.51
796.93	333.14
797.111	281.94
797.291	320.85
797.471	322.9
797.652	310.61
797.832	290.13
798.012	236.88
798.192	257.36
798.373	306.51
798.553	277.84
798.733	286.03
798.913	279.89
799.093	261.46
799.274	271.7
799.454	329.04
799.634	300.37
799.814	263.51
799.994	253.27
800.174	333.14
800.354	302.42
800.534	318.8
800.714	255.31
800.894	243.03
801.074	228.69
801.254	216.4
801.434	353.62
801.614	238.93
801.794	263.51
801.974	580.94
802.154	253.27
802.334	228.69
802.514	259.41
802.693	271.7
802.873	234.83
803.053	208.21
803.233	191.83
803.413	265.55
803.592	216.4
803.772	333.14
803.952	232.79
804.131	249.17
804.311	331.09
804.491	240.98
804.67	214.35
804.85	283.98
805.03	281.94
805.209	294.22
805.389	238.93
805.568	255.31
805.748	206.16
805.928	146.77
806.107	230.74
806.287	197.97
806.466	224.59
806.646	189.78
806.825	224.59
807.004	210.26
807.184	265.55
807.363	161.11
807.543	185.68
807.722	208.21
807.901	234.83
808.081	238.93
808.26	161.11
808.439	171.35
808.619	224.59
808.798	197.97
808.977	138.58
809.156	206.16
809.336	200.02
809.515	206.16
809.694	140.63
809.873	232.79
810.052	116.05
810.231	171.35
810.411	173.39
810.59	200.02
810.769	177.49
810.948	183.63
811.127	132.44
811.306	138.58
811.485	191.83
811.664	163.15
811.843	202.07
812.022	159.06
812.201	228.69
812.38	165.2
812.559	204.11
812.737	218.45
812.916	187.73
813.095	265.55
813.274	193.87
813.453	236.88
813.632	157.01
813.811	214.35
813.989	101.72
814.168	189.78
814.347	144.72
814.526	181.59
814.704	185.68
814.883	216.4
815.062	56.66
815.24	212.31
815.419	75.09
815.598	157.01
815.776	146.77
815.955	214.35
816.133	109.91
816.312	150.87
816.49	101.72
816.669	183.63
816.847	105.81
817.026	179.54
817.204	165.2
817.383	163.15
817.561	175.44
817.74	122.2
817.918	175.44
818.097	195.92
818.275	101.72
818.453	134.48
818.632	202.07
818.81	142.68
818.988	140.63
819.167	124.24
819.345	185.68
819.523	116.05
819.701	167.25
819.879	134.48
820.058	144.72
820.236	165.2
820.414	177.49
820.592	148.82
820.77	68.95
820.948	175.44
821.127	116.05
821.305	200.02
821.483	169.3
821.661	189.78
821.839	101.72
822.017	97.62
822.195	132.44
822.373	120.15
822.551	152.91
822.729	146.77
822.907	124.24
823.085	101.72
823.262	116.05
823.44	83.28
823.618	107.86
823.796	191.83
823.974	138.58
824.152	167.25
824.329	126.29
824.507	75.09
824.685	161.11
824.863	101.72
825.04	93.52
825.218	142.68
825.396	97.62
825.574	118.1
825.751	138.58
825.929	169.3
826.107	81.24
826.284	202.07
826.462	144.72
826.639	91.48
826.817	85.33
826.994	124.24
827.172	93.52
827.349	118.1
827.527	62.8
827.704	165.2
827.882	99.67
828.059	173.39
828.237	73.04
828.414	56.66
828.591	99.67
828.769	122.2
828.946	114
829.124	114
829.301	66.9
829.478	99.67
829.655	118.1
829.833	109.91
830.01	71
830.187	152.91
830.364	75.09
830.542	52.56
830.719	146.77
830.896	62.8
831.073	144.72
831.25	44.37
831.427	68.95
831.604	126.29
831.782	111.96
831.959	89.43
832.136	44.37
832.313	193.87
832.49	60.76
832.667	142.68
832.844	54.61
833.021	99.67
833.198	60.76
833.374	95.57
833.551	167.25
833.728	105.81
833.905	64.85
834.082	64.85
834.259	36.18
834.436	111.96
834.612	66.9
834.789	134.48
834.966	167.25
835.143	99.67
835.319	99.67
835.496	167.25
835.673	206.16
835.85	101.72
836.026	171.35
836.203	77.14
836.38	105.81
836.556	56.66
836.733	54.61
836.909	136.53
837.086	62.8
837.262	89.43
837.439	60.76
837.616	-0.68
837.792	154.96
837.968	95.57
838.145	71
838.321	66.9
838.498	42.32
838.674	42.32
838.851	34.13
839.027	30.04
839.203	66.9
839.38	40.28
839.556	107.86
839.732	101.72
839.909	120.15
840.085	60.76
840.261	81.24
840.437	130.39
840.614	134.48
840.79	42.32
840.966	85.33
841.142	79.19
841.318	52.56
841.494	124.24
841.671	77.14
841.847	85.33
842.023	7.51
842.199	97.62
842.375	21.84
842.551	93.52
842.727	87.38
842.903	17.75
843.079	36.18
843.255	79.19
843.431	3.41
843.607	142.68
843.783	-27.31
843.959	99.67
844.134	40.28
844.31	101.72
844.486	79.19
844.662	38.23
844.838	50.52
845.013	103.76
845.189	111.96
845.365	91.48
845.541	27.99
845.716	105.81
845.892	68.95
846.068	105.81
846.244	46.42
846.419	56.66
846.595	62.8
846.77	-19.11
846.946	54.61
847.122	75.09
847.297	66.9
847.473	89.43
847.648	60.76
847.824	73.04
847.999	42.32
848.175	85.33
848.35	36.18
848.526	79.19
848.701	120.15
848.876	83.28
849.052	64.85
849.227	60.76
849.403	46.42
849.578	128.34
849.753	68.95
849.929	50.52
850.104	68.95
850.279	27.99
850.454	7.51
850.63	97.62
850.805	-12.97
850.98	44.37
851.155	46.42
851.33	132.44
851.505	66.9
851.681	157.01
851.856	150.87
852.031	52.56
852.206	42.32
852.381	32.08
852.556	25.94
852.731	105.81
852.906	75.09
853.081	128.34
853.256	52.56
853.431	50.52
853.606	32.08
853.781	79.19
853.956	52.56
854.131	89.43
854.305	68.95
854.48	54.61
854.655	66.9
854.83	130.39
855.005	138.58
855.18	75.09
855.354	-2.73
855.529	27.99
855.704	44.37
855.879	52.56
856.053	15.7
856.228	64.85
856.403	30.04
856.577	-23.21
856.752	-0.68
856.926	54.61
857.101	58.71
857.276	40.28
857.45	109.91
857.625	19.8
857.799	132.44
857.974	-19.11
858.148	19.8
858.323	23.89
858.497	1.37
858.672	44.37
858.846	9.56
859.02	75.09
859.195	11.61
859.369	56.66
859.543	23.89
859.718	81.24
859.892	19.8
860.066	-4.78
860.241	7.51
860.415	132.44
860.589	60.76
860.763	36.18
860.938	-21.16
861.112	3.41
861.286	-12.97
861.46	11.61
861.634	-4.78
861.808	-8.87
861.982	17.75
862.157	17.75
862.331	17.75
862.505	13.65
862.679	-2.73
862.853	114
863.027	-15.02
863.201	103.76
863.375	19.8
863.549	13.65
863.722	38.23
863.896	15.7
864.07	77.14
864.244	38.23
864.418	34.13
864.592	40.28
864.766	34.13
864.939	79.19
865.113	-10.92
865.287	107.86
865.461	3.41
865.634	81.24
865.808	85.33
865.982	60.76
866.156	-15.02
866.329	83.28
866.503	48.47
866.676	-4.78
866.85	32.08
867.024	-15.02
867.197	66.9
867.371	54.61
867.544	27.99
867.718	30.04
867.891	27.99
868.065	42.32
868.238	38.23
868.412	126.29
868.585	91.48
868.759	109.91
868.932	40.28
869.105	68.95
869.279	64.85
869.452	66.9
869.625	1.37
869.799	95.57
869.972	46.42
870.145	71
870.319	42.32
870.492	44.37
870.665	64.85
870.838	40.28
871.011	21.84
871.185	15.7
871.358	99.67
871.531	52.56
871.704	-4.78
871.877	34.13
872.05	89.43
872.223	134.48
872.396	25.94
872.569	30.04
872.742	52.56
872.915	-12.97
873.088	1.37
873.261	38.23
873.434	56.66
873.607	56.66
873.78	97.62
873.953	46.42
874.126	93.52
874.299	11.61
874.471	38.23
874.644	46.42
874.817	30.04
874.99	27.99
875.163	27.99
875.335	30.04
875.508	46.42
875.681	95.57
875.853	-29.35
876.026	21.84
876.199	27.99
876.371	13.65
876.544	44.37
876.717	7.51
876.889	-29.35
877.062	68.95
877.234	15.7
877.407	50.52
877.579	-78.51
877.752	25.94
877.924	-53.93
878.097	64.85
878.269	44.37
878.442	1.37
878.614	46.42
878.786	46.42
878.959	66.9
879.131	44.37
879.303	3.41
879.476	40.28
879.648	85.33
879.82	77.14
879.993	7.51
880.165	23.89
880.337	1.37
880.509	-12.97
880.681	62.8
880.854	27.99
881.026	19.8
881.198	89.43
881.37	5.46
881.542	-25.26
881.714	40.28
881.886	77.14
882.058	17.75
882.23	132.44
882.402	3.41
882.574	62.8
882.746	3.41
882.918	62.8
883.09	56.66
883.262	52.56
883.434	75.09
883.606	21.84
883.778	-2.73
883.95	107.86
884.122	15.7
884.293	3.41
884.465	-0.68
884.637	77.14
884.809	46.42
884.98	77.14
885.152	-29.35
885.324	66.9
885.496	89.43
885.667	-12.97
885.839	32.08
886.011	3.41
886.182	93.52
886.354	7.51
886.525	36.18
886.697	-0.68
886.869	-8.87
887.04	7.51
887.212	64.85
887.383	58.71
887.555	38.23
887.726	15.7
887.897	1.37
888.069	52.56
888.24	21.84
888.412	1.37
888.583	19.8
888.754	5.46
888.926	95.57
889.097	40.28
889.268	-17.07
889.44	42.32
889.611	-37.55
889.782	27.99
889.953	27.99
890.125	54.61
890.296	9.56
890.467	-4.78
890.638	-4.78
890.809	52.56
890.98	-15.02
891.151	56.66
891.323	52.56
891.494	81.24
891.665	34.13
891.836	52.56
892.007	77.14
892.178	17.75
892.349	3.41
892.52	109.91
892.691	21.84
892.862	40.28
893.032	36.18
893.203	5.46
893.374	75.09
893.545	120.15
893.716	42.32
893.887	64.85
894.057	48.47
894.228	-4.78
894.399	23.89
894.57	-21.16
894.74	-15.02
894.911	44.37
895.082	-33.45
895.253	11.61
895.423	11.61
895.594	40.28
895.764	44.37
895.935	25.94
896.106	-41.64
896.276	-47.79
896.447	9.56
896.617	7.51
896.788	-37.55
896.958	17.75
897.129	1.37
897.299	15.7
897.47	23.89
897.64	62.8
897.81	52.56
897.981	-25.26
898.151	3.41
898.322	38.23
898.492	-6.83
898.662	5.46
898.832	-43.69
899.003	48.47
899.173	42.32
899.343	9.56
899.513	77.14
