Data from USB4F104151__14__11-36-26-406.txt Node

Date: Fri Mar 14 11:36:26 EDT 2025
User: louis
Spectrometer: USB4F10415
Trigger mode: 4
Integration Time (sec): 2.000000E-2
Scans to average: 1
Electric dark correction enabled: true
Nonlinearity correction enabled: false
Boxcar width: 0
XAxis mode: Wavelengths
Number of Pixels in Spectrum: 3648
>>>>>Begin Spectral Data<<<<<
178.204	-42.67
178.424	-42.67
178.644	-42.67
178.864	-40.62
179.084	-40.62
179.304	-20.14
179.524	18.77
179.744	-54.95
179.964	39.25
180.184	92.5
180.404	-26.28
180.624	2.39
180.844	2.39
181.064	-50.86
181.283	37.2
181.503	-20.14
181.723	-20.14
181.943	14.68
182.163	63.83
182.383	33.11
182.602	31.06
182.822	106.84
183.042	20.82
183.262	43.35
183.482	2.39
183.701	-3.75
183.921	0.34
184.141	94.55
184.361	82.26
184.58	65.88
184.8	55.64
185.02	61.78
185.239	26.96
185.459	14.68
185.679	-36.52
185.898	4.44
186.118	-3.75
186.338	47.44
186.557	51.54
186.777	-71.34
186.997	-26.28
187.216	33.11
187.436	26.96
187.655	53.59
187.875	125.27
188.095	35.16
188.314	39.25
188.534	12.63
188.753	-67.24
188.973	8.53
189.192	72.02
189.412	10.58
189.631	39.25
189.851	121.17
190.07	26.96
190.29	33.11
190.509	-1.71
190.729	-20.14
190.948	49.49
191.168	-3.75
191.387	51.54
191.607	59.73
191.826	18.77
192.045	6.49
192.265	-9.9
192.484	26.96
192.704	102.74
192.923	31.06
193.142	37.2
193.362	78.16
193.581	33.11
193.8	-50.86
194.02	-3.75
194.239	51.54
194.458	47.44
194.678	149.84
194.897	53.59
195.116	53.59
195.335	110.93
195.555	49.49
195.774	55.64
195.993	69.97
196.212	26.96
196.432	2.39
196.651	-11.95
196.87	6.49
197.089	55.64
197.308	67.92
197.528	20.82
197.747	-59.05
197.966	88.4
198.185	84.31
198.404	88.4
198.623	82.26
198.842	20.82
199.062	20.82
199.281	-7.85
199.5	104.79
199.719	12.63
199.938	55.64
200.157	37.2
200.376	63.83
200.595	72.02
200.814	53.59
201.033	29.01
201.252	22.87
201.471	-22.19
201.69	8.53
201.909	16.73
202.128	22.87
202.347	67.92
202.566	37.2
202.785	43.35
203.004	74.07
203.223	102.74
203.442	24.92
203.661	141.65
203.879	47.44
204.098	123.22
204.317	86.36
204.536	84.31
204.755	6.49
204.974	-13.99
205.193	18.77
205.411	78.16
205.63	-18.09
205.849	-5.8
206.068	18.77
206.287	14.68
206.505	26.96
206.724	-9.9
206.943	39.25
207.162	45.4
207.381	16.73
207.599	-18.09
207.818	-9.9
208.037	45.4
208.255	39.25
208.474	2.39
208.693	-13.99
208.911	51.54
209.13	18.77
209.349	-9.9
209.567	162.13
209.786	39.25
210.005	-18.09
210.223	29.01
210.442	94.55
210.661	47.44
210.879	-20.14
211.098	29.01
211.316	31.06
211.535	69.97
211.753	-7.85
211.972	14.68
212.191	43.35
212.409	102.74
212.628	74.07
212.846	-40.62
213.065	20.82
213.283	6.49
213.502	8.53
213.72	16.73
213.938	6.49
214.157	51.54
214.375	14.68
214.594	24.92
214.812	45.4
215.031	6.49
215.249	47.44
215.467	88.4
215.686	41.3
215.904	123.22
216.122	55.64
216.341	55.64
216.559	35.16
216.778	61.78
216.996	84.31
217.214	24.92
217.432	18.77
217.651	8.53
217.869	47.44
218.087	4.44
218.306	82.26
218.524	53.59
218.742	43.35
218.96	39.25
219.179	43.35
219.397	-69.29
219.615	88.4
219.833	90.45
220.051	35.16
220.27	22.87
220.488	31.06
220.706	24.92
220.924	41.3
221.142	59.73
221.36	12.63
221.578	67.92
221.796	47.44
222.015	59.73
222.233	59.73
222.451	88.4
222.669	-13.99
222.887	76.12
223.105	98.64
223.323	22.87
223.541	18.77
223.759	31.06
223.977	57.68
224.195	57.68
224.413	53.59
224.631	39.25
224.849	-5.8
225.067	110.93
225.285	29.01
225.503	63.83
225.721	14.68
225.939	80.21
226.157	31.06
226.375	-5.8
226.592	29.01
226.81	-24.23
227.028	78.16
227.246	12.63
227.464	6.49
227.682	31.06
227.9	6.49
228.117	4.44
228.335	55.64
228.553	49.49
228.771	49.49
228.989	63.83
229.206	-7.85
229.424	2.39
229.642	18.77
229.86	22.87
230.077	110.93
230.295	69.97
230.513	96.6
230.731	57.68
230.948	31.06
231.166	14.68
231.384	12.63
231.601	59.73
231.819	51.54
232.037	45.4
232.254	-50.86
232.472	39.25
232.689	-26.28
232.907	72.02
233.125	12.63
233.342	-83.63
233.56	-3.75
233.777	31.06
233.995	-34.47
234.213	125.27
234.43	6.49
234.648	43.35
234.865	20.82
235.083	-11.95
235.3	65.88
235.518	35.16
235.735	78.16
235.953	-42.67
236.17	65.88
236.388	82.26
236.605	51.54
236.822	80.21
237.04	80.21
237.257	102.74
237.475	-30.38
237.692	92.5
237.909	78.16
238.127	18.77
238.344	-3.75
238.562	31.06
238.779	31.06
238.996	-11.95
239.214	4.44
239.431	4.44
239.648	35.16
239.865	149.84
240.083	51.54
240.3	92.5
240.517	22.87
240.735	47.44
240.952	31.06
241.169	61.78
241.386	65.88
241.603	33.11
241.821	6.49
242.038	78.16
242.255	86.36
242.472	31.06
242.689	67.92
242.907	123.22
243.124	78.16
243.341	78.16
243.558	18.77
243.775	6.49
243.992	-16.04
244.209	98.64
244.426	80.21
244.643	69.97
244.86	6.49
245.078	-36.52
245.295	69.97
245.512	8.53
245.729	-65.19
245.946	127.32
246.163	121.17
246.38	51.54
246.597	57.68
246.814	104.79
247.031	121.17
247.248	78.16
247.464	135.51
247.681	33.11
247.898	47.44
248.115	-30.38
248.332	47.44
248.549	41.3
248.766	20.82
248.983	12.63
249.2	4.44
249.417	72.02
249.633	12.63
249.85	104.79
250.067	2.39
250.284	55.64
250.501	29.01
250.717	84.31
250.934	41.3
251.151	80.21
251.368	67.92
251.585	6.49
251.801	84.31
252.018	-1.71
252.235	-30.38
252.451	57.68
252.668	45.4
252.885	82.26
253.102	57.68
253.318	86.36
253.535	26.96
253.752	59.73
253.968	47.44
254.185	-22.19
254.401	29.01
254.618	12.63
254.835	82.26
255.051	133.46
255.268	12.63
255.484	16.73
255.701	26.96
255.917	55.64
256.134	37.2
256.351	18.77
256.567	22.87
256.784	6.49
257	2.39
257.217	67.92
257.433	26.96
257.65	84.31
257.866	26.96
258.082	63.83
258.299	26.96
258.515	92.5
258.732	-1.71
258.948	8.53
259.165	26.96
259.381	22.87
259.597	-3.75
259.814	61.78
260.03	10.58
260.246	59.73
260.463	69.97
260.679	45.4
260.895	35.16
261.112	8.53
261.328	59.73
261.544	18.77
261.761	63.83
261.977	31.06
262.193	61.78
262.409	90.45
262.626	6.49
262.842	14.68
263.058	-42.67
263.274	10.58
263.49	88.4
263.707	24.92
263.923	76.12
264.139	14.68
264.355	41.3
264.571	117.08
264.787	45.4
265.004	57.68
265.22	90.45
265.436	-28.33
265.652	18.77
265.868	49.49
266.084	39.25
266.3	98.64
266.516	14.68
266.732	55.64
266.948	10.58
267.164	53.59
267.38	76.12
267.596	108.88
267.812	106.84
268.028	112.98
268.244	-26.28
268.46	59.73
268.676	61.78
268.892	-18.09
269.108	61.78
269.324	-1.71
269.54	-26.28
269.756	63.83
269.972	100.69
270.188	76.12
270.403	67.92
270.619	-46.76
270.835	55.64
271.051	0.34
271.267	63.83
271.483	43.35
271.698	51.54
271.914	65.88
272.13	67.92
272.346	35.16
272.562	125.27
272.777	51.54
272.993	26.96
273.209	86.36
273.425	55.64
273.64	53.59
273.856	61.78
274.072	59.73
274.287	35.16
274.503	72.02
274.719	-9.9
274.934	14.68
275.15	31.06
275.366	0.34
275.581	-34.47
275.797	29.01
276.012	-44.71
276.228	4.44
276.444	29.01
276.659	74.07
276.875	39.25
277.09	86.36
277.306	76.12
277.521	63.83
277.737	39.25
277.952	41.3
278.168	82.26
278.383	86.36
278.599	84.31
278.814	-9.9
279.03	22.87
279.245	94.55
279.461	-34.47
279.676	112.98
279.892	10.58
280.107	55.64
280.322	33.11
280.538	37.2
280.753	29.01
280.969	82.26
281.184	14.68
281.399	43.35
281.615	41.3
281.83	22.87
282.045	2.39
282.26	92.5
282.476	37.2
282.691	24.92
282.906	39.25
283.122	14.68
283.337	92.5
283.552	63.83
283.767	53.59
283.983	115.03
284.198	31.06
284.413	106.84
284.628	35.16
284.843	55.64
285.058	-5.8
285.274	104.79
285.489	8.53
285.704	63.83
285.919	45.4
286.134	43.35
286.349	-32.43
286.564	41.3
286.779	45.4
286.995	33.11
287.21	47.44
287.425	18.77
287.64	45.4
287.855	24.92
288.07	24.92
288.285	59.73
288.5	88.4
288.715	24.92
288.93	20.82
289.145	29.01
289.36	104.79
289.575	49.49
289.79	18.77
290.004	43.35
290.219	63.83
290.434	29.01
290.649	72.02
290.864	100.69
291.079	6.49
291.294	10.58
291.509	20.82
291.724	47.44
291.938	80.21
292.153	47.44
292.368	4.44
292.583	47.44
292.798	145.75
293.012	86.36
293.227	51.54
293.442	-20.14
293.657	78.16
293.871	90.45
294.086	26.96
294.301	96.6
294.516	35.16
294.73	0.34
294.945	53.59
295.16	108.88
295.374	26.96
295.589	45.4
295.804	12.63
296.018	24.92
296.233	35.16
296.447	47.44
296.662	22.87
296.877	2.39
297.091	104.79
297.306	121.17
297.52	76.12
297.735	8.53
297.949	22.87
298.164	59.73
298.378	12.63
298.593	8.53
298.807	43.35
299.022	22.87
299.236	29.01
299.451	69.97
299.665	88.4
299.88	8.53
300.094	72.02
300.309	37.2
300.523	-3.75
300.737	22.87
300.952	51.54
301.166	80.21
301.381	39.25
301.595	26.96
301.809	-11.95
302.024	-48.81
302.238	65.88
302.452	98.64
302.667	63.83
302.881	72.02
303.095	22.87
303.309	-34.47
303.524	22.87
303.738	8.53
303.952	31.06
304.166	31.06
304.381	-34.47
304.595	59.73
304.809	78.16
305.023	166.23
305.237	53.59
305.452	4.44
305.666	-18.09
305.88	88.4
306.094	67.92
306.308	63.83
306.522	35.16
306.736	72.02
306.95	33.11
307.164	47.44
307.379	47.44
307.593	72.02
307.807	76.12
308.021	49.49
308.235	47.44
308.449	45.4
308.663	-44.71
308.877	84.31
309.091	16.73
309.305	82.26
309.519	80.21
309.733	98.64
309.947	33.11
310.161	166.23
310.374	10.58
310.588	76.12
310.802	10.58
311.016	37.2
311.23	35.16
311.444	-18.09
311.658	69.97
311.872	98.64
312.085	88.4
312.299	92.5
312.513	37.2
312.727	69.97
312.941	102.74
313.154	63.83
313.368	72.02
313.582	104.79
313.796	35.16
314.009	51.54
314.223	24.92
314.437	61.78
314.651	10.58
314.864	20.82
315.078	-38.57
315.292	37.2
315.505	-3.75
315.719	55.64
315.933	26.96
316.146	63.83
316.36	100.69
316.573	67.92
316.787	88.4
317.001	59.73
317.214	39.25
317.428	67.92
317.641	4.44
317.855	18.77
318.068	86.36
318.282	63.83
318.495	6.49
318.709	33.11
318.922	12.63
319.136	84.31
319.349	55.64
319.563	33.11
319.776	94.55
319.99	41.3
320.203	0.34
320.417	31.06
320.63	-9.9
320.843	100.69
321.057	61.78
321.27	74.07
321.483	24.92
321.697	53.59
321.91	125.27
322.124	65.88
322.337	82.26
322.55	12.63
322.763	39.25
322.977	-5.8
323.19	31.06
323.403	55.64
323.617	39.25
323.83	10.58
324.043	-18.09
324.256	67.92
324.469	63.83
324.683	2.39
324.896	12.63
325.109	61.78
325.322	47.44
325.535	90.45
325.748	-42.67
325.962	43.35
326.175	94.55
326.388	22.87
326.601	63.83
326.814	51.54
327.027	37.2
327.24	129.36
327.453	29.01
327.666	125.27
327.879	29.01
328.092	22.87
328.305	72.02
328.518	29.01
328.731	14.68
328.944	37.2
329.157	74.07
329.37	10.58
329.583	110.93
329.796	8.53
330.009	69.97
330.222	35.16
330.435	55.64
330.648	-5.8
330.861	18.77
331.073	94.55
331.286	22.87
331.499	59.73
331.712	12.63
331.925	84.31
332.138	55.64
332.35	108.88
332.563	94.55
332.776	100.69
332.989	63.83
333.202	20.82
333.414	100.69
333.627	65.88
333.84	41.3
334.053	2.39
334.265	96.6
334.478	76.12
334.691	31.06
334.903	39.25
335.116	12.63
335.329	22.87
335.541	55.64
335.754	86.36
335.966	69.97
336.179	145.75
336.392	24.92
336.604	61.78
336.817	82.26
337.029	96.6
337.242	14.68
337.454	12.63
337.667	100.69
337.88	72.02
338.092	53.59
338.305	67.92
338.517	55.64
338.729	39.25
338.942	67.92
339.154	57.68
339.367	29.01
339.579	51.54
339.792	57.68
340.004	0.34
340.217	55.64
340.429	16.73
340.641	33.11
340.854	112.98
341.066	-20.14
341.278	88.4
341.491	24.92
341.703	53.59
341.915	22.87
342.128	14.68
342.34	47.44
342.552	-1.71
342.764	-3.75
342.977	29.01
343.189	33.11
343.401	133.46
343.613	47.44
343.826	49.49
344.038	18.77
344.25	69.97
344.462	6.49
344.674	63.83
344.886	82.26
345.099	8.53
345.311	45.4
345.523	26.96
345.735	-5.8
345.947	41.3
346.159	104.79
346.371	53.59
346.583	47.44
346.795	80.21
347.007	72.02
347.219	-9.9
347.431	43.35
347.643	86.36
347.855	-20.14
348.067	53.59
348.279	63.83
348.491	31.06
348.703	37.2
348.915	67.92
349.127	45.4
349.339	57.68
349.551	4.44
349.763	104.79
349.975	76.12
350.187	49.49
350.399	39.25
350.61	88.4
350.822	29.01
351.034	4.44
351.246	88.4
351.458	100.69
351.669	45.4
351.881	125.27
352.093	76.12
352.305	4.44
352.517	26.96
352.728	67.92
352.94	29.01
353.152	108.88
353.363	39.25
353.575	61.78
353.787	115.03
353.999	72.02
354.21	31.06
354.422	59.73
354.633	6.49
354.845	106.84
355.057	14.68
355.268	88.4
355.48	78.16
355.692	2.39
355.903	69.97
356.115	43.35
356.326	12.63
356.538	39.25
356.749	76.12
356.961	80.21
357.172	61.78
357.384	76.12
357.595	45.4
357.807	106.84
358.018	26.96
358.23	-5.8
358.441	76.12
358.653	55.64
358.864	49.49
359.075	78.16
359.287	78.16
359.498	135.51
359.709	29.01
359.921	108.88
360.132	43.35
360.344	53.59
360.555	166.23
360.766	-7.85
360.977	55.64
361.189	65.88
361.4	51.54
361.611	39.25
361.823	61.78
362.034	29.01
362.245	16.73
362.456	96.6
362.667	-18.09
362.879	43.35
363.09	18.77
363.301	18.77
363.512	41.3
363.723	67.92
363.935	84.31
364.146	80.21
364.357	106.84
364.568	41.3
364.779	100.69
364.99	121.17
365.201	14.68
365.412	80.21
365.623	26.96
365.834	112.98
366.045	26.96
366.256	74.07
366.467	39.25
366.678	-7.85
366.889	125.27
367.1	-20.14
367.311	12.63
367.522	61.78
367.733	72.02
367.944	162.13
368.155	82.26
368.366	61.78
368.577	80.21
368.788	45.4
368.999	129.36
369.209	45.4
369.42	55.64
369.631	67.92
369.842	31.06
370.053	16.73
370.264	98.64
370.474	45.4
370.685	12.63
370.896	69.97
371.107	31.06
371.317	96.6
371.528	47.44
371.739	65.88
371.95	43.35
372.16	18.77
372.371	22.87
372.582	110.93
372.792	57.68
373.003	43.35
373.214	57.68
373.424	47.44
373.635	45.4
373.846	59.73
374.056	86.36
374.267	16.73
374.477	43.35
374.688	63.83
374.898	104.79
375.109	104.79
375.319	86.36
375.53	51.54
375.74	20.82
375.951	67.92
376.161	55.64
376.372	100.69
376.582	49.49
376.793	112.98
377.003	72.02
377.214	47.44
377.424	104.79
377.635	129.36
377.845	115.03
378.055	96.6
378.266	35.16
378.476	84.31
378.686	69.97
378.897	69.97
379.107	51.54
379.317	121.17
379.528	74.07
379.738	14.68
379.948	10.58
380.158	76.12
380.369	29.01
380.579	84.31
380.789	20.82
380.999	47.44
381.21	84.31
381.42	102.74
381.63	-7.85
381.84	96.6
382.05	76.12
382.261	84.31
382.471	59.73
382.681	98.64
382.891	117.08
383.101	123.22
383.311	18.77
383.521	18.77
383.731	-9.9
383.941	186.71
384.151	82.26
384.361	41.3
384.571	61.78
384.781	80.21
384.991	125.27
385.201	143.7
385.411	53.59
385.621	65.88
385.831	31.06
386.041	16.73
386.251	55.64
386.461	65.88
386.671	88.4
386.881	39.25
387.091	55.64
387.301	74.07
387.511	76.12
387.72	158.03
387.93	37.2
388.14	37.2
388.35	100.69
388.56	72.02
388.769	39.25
388.979	33.11
389.189	6.49
389.399	2.39
389.609	108.88
389.818	80.21
390.028	100.69
390.238	39.25
390.447	41.3
390.657	65.88
390.867	51.54
391.076	20.82
391.286	112.98
391.496	78.16
391.705	61.78
391.915	76.12
392.125	90.45
392.334	29.01
392.544	14.68
392.753	55.64
392.963	51.54
393.172	98.64
393.382	39.25
393.591	119.12
393.801	84.31
394.01	98.64
394.22	104.79
394.429	117.08
394.639	12.63
394.848	141.65
395.058	141.65
395.267	69.97
395.477	92.5
395.686	164.18
395.895	117.08
396.105	123.22
396.314	145.75
396.524	115.03
396.733	-11.95
396.942	100.69
397.152	137.56
397.361	141.65
397.57	72.02
397.78	139.6
397.989	59.73
398.198	155.99
398.407	125.27
398.617	176.47
398.826	57.68
399.035	35.16
399.244	145.75
399.453	94.55
399.663	82.26
399.872	135.51
400.081	92.5
400.29	100.69
400.499	137.56
400.708	98.64
400.917	135.51
401.127	108.88
401.336	63.83
401.545	170.32
401.754	139.6
401.963	174.42
402.172	178.51
402.381	127.32
402.59	153.94
402.799	186.71
403.008	84.31
403.217	119.12
403.426	182.61
403.635	100.69
403.844	137.56
404.053	94.55
404.262	88.4
404.471	184.66
404.68	205.14
404.888	158.03
405.097	112.98
405.306	160.08
405.515	190.8
405.724	182.61
405.933	170.32
406.142	174.42
406.35	186.71
406.559	186.71
406.768	188.75
406.977	153.94
407.185	211.28
407.394	186.71
407.603	188.75
407.812	256.34
408.02	282.96
408.229	170.32
408.438	287.06
408.646	321.87
408.855	309.58
409.064	211.28
409.272	297.3
409.481	274.77
409.69	315.73
409.898	285.01
410.107	340.3
410.315	354.64
410.524	383.31
410.733	389.46
410.941	366.93
411.15	354.64
411.358	379.22
411.567	428.37
411.775	409.94
411.984	450.89
412.192	428.37
412.401	459.09
412.609	373.07
412.818	452.94
413.026	428.37
413.234	518.48
413.443	498
413.651	522.57
413.86	524.62
414.068	536.91
414.276	641.36
414.485	608.59
414.693	594.25
414.901	764.23
415.11	629.07
415.318	657.74
415.526	805.19
415.734	758.09
415.943	733.51
416.151	862.54
416.359	809.29
416.567	870.73
416.776	887.11
416.984	913.74
417.192	1009.99
417.4	1042.76
417.608	1009.99
417.817	1022.28
418.025	1057.09
418.233	1075.52
418.441	1169.73
418.649	1227.07
418.857	1345.86
419.065	1319.23
419.273	1268.03
419.481	1268.03
419.689	1403.2
419.897	1440.06
420.105	1536.32
420.313	1501.5
420.521	1636.67
420.729	1562.94
420.937	1636.67
421.145	1698.11
421.353	1849.66
421.561	1878.33
421.769	1900.86
421.977	1970.49
422.185	1937.72
422.393	2124.08
422.601	2210.1
422.809	2189.62
423.017	2242.87
423.224	2277.68
423.432	2390.32
423.64	2476.34
423.848	2679.08
424.056	2584.88
424.263	2789.67
424.471	2769.2
424.679	2685.23
424.887	3006.76
425.094	3021.1
425.302	3023.14
425.51	3246.37
425.718	3240.23
425.925	3234.08
426.133	3389.73
426.341	3549.47
426.548	3791.13
426.756	3838.23
426.964	3801.37
427.171	3918.11
427.379	4262.16
427.586	4186.39
427.794	4428.05
428.001	4665.61
428.209	4583.7
428.417	4675.85
428.624	4886.79
428.832	5052.68
429.039	5054.73
429.247	5060.87
429.454	5427.46
429.662	5806.33
429.869	5273.86
430.076	5869.82
430.284	5738.75
430.491	5904.64
430.699	6160.63
430.906	6127.86
431.114	6306.04
431.321	6551.79
431.528	6617.33
431.736	7067.88
431.943	7403.75
432.15	7055.59
432.358	7155.94
432.565	7506.15
432.772	7850.21
432.979	8024.28
433.187	8190.17
433.394	8204.5
433.601	8892.62
433.808	8880.33
434.016	8831.18
434.223	9128.14
434.43	9861.31
434.637	9347.27
434.844	10080.44
435.052	10197.18
435.259	10238.14
435.466	10250.42
435.673	10266.81
435.88	10985.65
436.087	11516.07
436.294	11364.52
436.501	11329.7
436.708	11540.65
436.915	11784.35
437.122	12249.24
437.329	12148.89
437.537	12519.57
437.743	13101.2
437.95	12773.52
438.157	13498.5
438.364	13783.17
438.571	13895.81
438.778	13924.48
438.985	15177.84
439.192	14581.88
439.399	14862.45
439.606	14708.85
439.813	15663.21
440.02	16451.67
440.227	16363.61
440.433	16033.89
440.64	16797.78
440.847	16437.34
441.054	17115.22
441.261	18094.15
441.467	17752.13
441.674	18268.22
441.881	18800.69
442.088	18933.81
442.294	18591.8
442.501	19068.98
442.708	19595.31
442.914	20258.85
443.121	21233.68
443.328	20467.74
443.534	22142.98
443.741	21555.21
443.948	20992.02
444.154	22685.69
444.361	22464.51
444.568	22642.68
444.774	22687.74
444.981	23056.37
445.187	23615.47
445.394	24684.51
445.6	24248.29
445.807	26820.54
446.013	25581.52
446.22	26154.95
446.426	26988.47
446.633	27199.41
446.839	27742.13
447.046	26888.12
447.252	28600.22
447.459	28377
447.665	28411.81
447.871	29865.87
448.078	30799.74
448.284	29642.64
448.491	29781.9
448.697	31117.18
448.903	32108.4
449.11	32020.33
449.316	31231.86
449.522	31967.09
449.728	32722.79
449.935	33343.32
450.141	32927.58
450.347	33974.09
450.553	32696.16
450.76	33367.9
450.966	34062.16
451.172	33763.15
451.378	34780.99
451.584	34103.12
451.791	34711.36
451.997	34844.48
452.203	35276.6
452.409	35321.66
452.615	34891.58
452.821	33881.94
453.027	33359.7
453.233	35004.22
453.44	33935.18
453.646	34348.87
453.852	34514.76
454.058	35084.09
454.264	34023.25
454.47	34256.71
454.676	33560.41
454.882	34860.87
455.088	31891.31
455.294	32522.09
455.5	32708.45
455.705	33079.13
455.911	31858.54
456.117	30922.62
456.323	30582.66
456.529	29364.12
456.735	30324.61
456.941	29280.15
457.147	28880.8
457.352	28168.1
457.558	28110.76
457.764	27889.58
457.97	27310
458.176	26681.28
458.381	26841.02
458.587	25485.26
458.793	25280.47
458.999	24311.78
459.204	25835.47
459.41	25278.42
459.616	23463.92
459.821	23310.32
460.027	23568.37
460.233	23066.61
460.438	21893.13
460.644	22159.36
460.85	20959.25
461.055	20627.48
461.261	20776.98
461.466	19413.04
461.672	18745.4
461.878	19920.93
462.083	18841.65
462.289	18223.17
462.494	18083.91
462.7	17295.44
462.905	16967.76
463.111	17473.61
463.316	17471.56
463.522	16914.52
463.727	17070.16
463.932	17201.23
464.138	17014.87
464.343	16961.62
464.549	16490.59
464.754	17066.06
464.959	16947.28
465.165	16746.58
465.37	15945.83
465.575	15331.44
465.781	16410.71
465.986	16238.69
466.191	15724.65
466.397	15345.77
466.602	14858.35
466.807	15151.21
467.012	15095.92
467.218	15069.3
467.423	15005.81
467.628	15104.11
467.833	15833.19
468.038	15313
468.244	14643.32
468.449	15095.92
468.654	14686.33
468.859	14526.58
469.064	14442.62
469.269	13863.04
469.474	14049.41
469.679	14526.58
469.885	14006.4
470.09	14299.26
470.295	14043.26
470.5	13846.66
470.705	14016.64
470.91	13523.08
471.115	13252.75
471.32	13541.51
471.525	13334.67
471.73	13172.88
471.935	12974.22
472.139	12703.89
472.344	12943.5
472.549	12750.99
472.754	12419.22
472.959	12109.98
473.164	12060.83
473.369	11923.62
473.574	12310.68
473.778	12212.38
473.983	12030.11
474.188	12038.3
474.393	11466.92
474.598	11563.17
474.802	11436.2
475.007	11516.07
475.212	11311.27
475.417	10950.83
475.621	11018.41
475.826	10885.3
476.031	10965.17
476.235	10563.76
476.44	10873.01
476.645	10449.08
476.849	10524.85
477.054	10334.39
477.259	10211.51
477.463	10264.76
477.668	10074.3
477.872	10094.78
478.077	9889.98
478.282	9703.62
478.486	9853.12
478.691	9775.3
478.895	9621.7
479.1	9468.1
479.304	9595.07
479.509	9289.93
479.713	9461.96
479.918	9144.52
480.122	8800.46
480.326	9093.32
480.531	9189.58
480.735	9142.47
480.94	8915.15
481.144	9189.58
481.348	8952.01
481.553	8927.44
481.757	8653.01
481.961	8898.77
482.166	9093.32
482.37	8884.43
482.574	8888.53
482.778	8767.7
482.983	8997.07
483.187	8708.3
483.391	8962.25
483.595	8874.19
483.8	8786.13
484.004	8859.85
484.208	8810.7
484.412	8857.81
484.616	8638.67
484.821	8763.6
485.025	8597.71
485.229	8845.52
485.433	8714.45
485.637	8661.2
485.841	8771.79
486.045	8669.39
486.249	8753.36
486.453	8620.24
486.657	8698.06
486.861	8870.09
487.065	8591.57
487.269	8595.67
487.473	8564.95
487.677	8878.29
487.881	8866
488.085	8646.87
488.289	8716.5
488.493	8644.82
488.697	8921.29
488.901	8927.44
489.105	8915.15
489.309	8972.49
489.512	8829.13
489.716	8859.85
489.92	8788.18
490.124	8771.79
490.328	9023.69
490.531	8839.37
490.735	8902.86
490.939	9130.19
491.143	9019.6
491.346	9093.32
491.55	9271.5
491.754	9109.71
491.958	9015.5
492.161	9189.58
492.365	9248.97
492.569	9187.53
492.772	9134.28
492.976	9306.31
493.18	9214.15
493.383	9484.48
493.587	9404.61
493.79	9681.09
493.994	9517.25
494.197	9552.07
494.401	9681.09
494.605	9871.55
494.808	9812.16
495.012	9846.98
495.215	9873.6
495.419	9973.95
495.622	10006.72
495.825	10072.25
496.029	10150.07
496.232	10492.09
496.436	10373.3
496.639	10535.09
496.843	10301.62
497.046	10737.84
497.249	10784.94
497.453	10600.63
497.656	10979.5
497.859	11012.27
498.063	11034.8
498.266	11290.79
498.469	11262.12
498.673	11350.18
498.876	11440.29
499.079	11767.97
499.282	11673.76
499.485	12007.58
499.689	11874.46
499.892	12310.68
500.095	12042.4
500.298	12617.88
500.501	12365.98
500.705	12886.16
500.908	12820.63
501.111	12925.07
501.314	13183.12
501.517	13340.81
501.72	13465.74
501.923	13162.64
502.126	13592.71
502.329	13949.06
502.532	14135.42
502.735	14012.54
502.938	14192.76
503.141	14301.31
503.344	14700.66
503.547	14569.59
503.75	14758
503.953	14944.37
504.156	15186.03
504.359	15214.7
504.562	15229.04
504.765	15827.04
504.968	15853.67
505.17	15745.13
505.373	15888.48
505.576	16324.7
505.779	16466.01
505.982	16724.05
506.185	16730.2
506.387	16879.7
506.59	17045.59
506.793	17207.37
506.996	17242.19
507.198	17786.95
507.401	17459.27
507.604	17879.11
507.807	18147.39
508.009	18042.95
508.212	18331.71
508.415	18577.47
508.617	18841.65
508.82	18708.54
509.022	19028.02
509.225	19482.67
509.428	19517.48
509.63	19605.55
509.833	19775.53
510.035	20303.9
510.238	20189.22
510.44	20420.64
510.643	20776.98
510.845	20897.81
511.048	20766.74
511.25	21188.63
511.453	21127.19
511.655	21897.22
511.858	21698.57
512.06	21880.84
512.262	21999.62
512.465	21860.36
512.667	22417.41
512.87	22771.71
513.072	22548.48
513.274	23150.58
513.477	22870.01
513.679	23363.57
513.881	23388.14
514.084	23650.28
514.286	23783.4
514.488	23984.1
514.69	24549.34
514.893	24459.23
515.095	24860.63
515.297	25044.95
515.499	24737.76
515.701	25128.92
515.904	25722.83
516.106	25403.35
516.308	25974.73
516.51	26668.99
516.712	25987.02
516.914	26210.25
517.116	26838.97
517.318	26826.68
517.52	26812.35
517.722	26785.72
517.925	27692.97
518.127	27979.69
518.329	27928.49
518.531	27928.49
518.733	28366.76
518.935	28499.87
519.136	28403.62
519.338	29044.63
519.54	28977.05
519.742	29261.72
519.944	29136.79
520.146	29945.74
520.348	29826.96
520.55	30134.15
520.752	29869.97
520.954	30881.66
521.155	30531.46
521.357	30977.92
521.559	30963.58
521.761	31262.58
521.963	31256.44
522.164	31459.19
522.366	31735.67
522.568	31842.16
522.77	32315.24
522.971	32550.76
523.173	32145.26
523.375	32751.46
523.576	32544.61
523.778	32866.14
523.98	32941.92
524.181	33374.04
524.383	33365.85
524.584	33906.51
524.786	33501.01
524.988	33482.58
525.189	33847.12
525.391	34156.36
525.592	34160.46
525.794	34443.08
525.995	34465.61
526.197	34236.23
526.398	34414.41
526.6	34803.52
526.801	34455.37
527.003	35084.09
527.204	35127.1
527.406	35295.03
527.607	35319.61
527.808	35594.04
528.01	34694.98
528.211	35100.48
528.412	36153.13
528.614	35665.72
528.815	35565.37
529.016	36290.35
529.218	35520.31
529.419	35929.91
529.62	35557.17
529.822	35743.54
530.023	35686.2
530.224	36001.58
530.425	36106.03
530.626	36185.9
530.828	36237.1
531.029	36820.77
531.23	36327.21
531.431	36124.46
531.632	36157.23
531.833	36544.3
532.035	36443.95
532.236	36536.1
532.437	36749.09
532.638	36458.28
532.839	36839.2
533.04	36859.68
533.241	36501.29
533.442	37365.53
533.643	36863.78
533.844	36687.65
534.045	36798.24
534.246	36445.99
534.447	36964.13
534.648	36855.59
534.849	36841.25
535.05	36826.92
535.251	36726.56
535.451	36441.9
535.652	36998.94
535.853	36859.68
536.054	36998.94
536.255	36851.49
536.456	36548.39
536.657	37261.08
536.857	36523.82
537.058	36740.9
537.259	36929.31
537.46	36767.52
537.66	36749.09
537.861	36826.92
538.062	36462.38
538.263	37009.18
538.463	36519.72
538.664	36519.72
538.865	36806.44
539.065	37115.68
539.266	36642.6
539.466	37103.39
539.667	36144.94
539.868	37019.42
540.068	36863.78
540.269	36511.53
540.469	36933.41
540.67	36417.32
540.87	36747.04
541.071	36638.5
541.271	36697.89
541.472	36466.47
541.672	36413.23
541.873	36458.28
542.073	36398.89
542.274	36794.15
542.474	36456.23
542.675	36372.27
542.875	36927.27
543.075	36509.48
543.276	36067.12
543.476	36863.78
543.676	36597.54
543.877	36597.54
544.077	36407.08
544.277	36620.07
544.478	36329.26
544.678	36431.66
544.878	36325.16
545.078	36415.27
545.279	36278.06
545.479	36196.14
545.679	36323.12
545.879	36087.6
546.079	36509.48
546.28	36245.29
546.48	36065.07
546.68	36542.25
546.88	36146.99
547.08	36695.85
547.28	36216.62
547.48	35970.86
547.68	35831.6
547.88	35749.68
548.081	35913.52
548.281	36259.63
548.481	35862.32
548.681	36319.02
548.881	36155.18
549.081	36642.6
549.28	36017.97
549.48	36280.11
549.68	36327.21
549.88	36411.18
550.08	35931.95
550.28	36060.98
550.48	36093.74
550.68	36146.99
550.88	35860.27
551.08	35796.79
551.279	36431.66
551.479	35884.85
551.679	35987.25
551.879	35712.82
552.079	36046.64
552.278	35520.31
552.478	35510.07
552.678	35786.55
552.878	36171.57
553.077	35600.18
553.277	35153.72
553.477	36366.12
553.676	35110.72
553.876	36159.28
554.076	35729.2
554.275	35530.55
554.475	35108.67
554.674	35591.99
554.874	35544.89
555.074	35254.08
555.273	35465.02
555.473	35675.96
555.672	35485.5
555.872	35041.09
556.071	35428.15
556.271	35610.42
556.47	35315.51
556.67	35073.85
556.869	35409.72
557.068	35315.51
557.268	35290.94
557.467	35137.34
557.667	35196.73
557.866	34953.02
558.065	34928.45
558.265	34877.25
558.464	34930.5
558.663	35403.58
558.863	34709.32
559.062	35299.13
559.261	34453.32
559.461	35112.77
559.66	34316.11
559.859	34604.87
560.058	34275.15
560.258	34432.84
560.457	34056.01
560.656	34484.04
560.855	34334.54
561.054	34420.55
561.253	33877.84
561.453	34471.75
561.652	34398.02
561.851	34316.11
562.05	34285.39
562.249	33972.05
562.448	34293.58
562.647	33812.31
562.846	34043.73
563.045	34096.97
563.244	34043.73
563.443	34230.09
563.642	33769.3
563.841	33943.38
564.04	33533.78
564.239	33918.8
564.438	33341.27
564.637	33761.11
564.836	33394.52
565.035	33234.78
565.234	33376.09
565.432	33077.08
565.631	33650.52
565.83	33371.99
566.029	33402.71
566.228	33140.57
566.427	33535.83
566.625	33261.4
566.824	32712.55
567.023	32978.78
567.222	32419.69
567.42	33187.67
567.619	32843.62
567.818	32819.04
568.016	32604
568.215	32841.57
568.414	32567.14
568.612	32507.75
568.811	32640.87
569.01	32456.55
569.208	32124.78
569.407	32573.28
569.605	31874.93
569.804	32188.27
570.002	31866.74
570.201	32376.68
570.4	32014.19
570.598	31694.71
570.797	31776.62
570.995	31958.89
571.193	31274.87
571.392	32026.48
571.59	31620.98
571.789	31539.06
571.987	31565.68
572.186	31541.11
572.384	31123.32
572.582	31586.16
572.781	31463.29
572.979	30740.35
573.177	31205.24
573.376	31246.2
573.574	30736.26
573.772	31190.91
573.971	31139.71
574.169	30433.16
574.367	30621.57
574.565	30822.27
574.763	30373.77
574.962	30359.43
575.16	30529.41
575.358	30474.12
575.556	30009.23
575.754	30877.57
575.952	30119.82
576.151	30271.37
576.349	29857.68
576.547	29810.57
576.745	30023.56
576.943	29978.51
577.141	29829.01
577.339	30023.56
577.537	29742.99
577.735	29939.6
577.933	29208.47
578.131	29714.32
578.329	29419.41
578.527	29321.11
578.725	29282.2
578.923	29585.3
579.121	29276.05
579.319	29153.18
579.516	29329.3
579.714	29249.43
579.912	28798.88
580.11	29167.51
580.308	29106.07
580.506	29091.74
580.704	28477.35
580.901	28700.58
581.099	28739.49
581.297	28202.92
581.495	28469.15
581.692	28669.86
581.89	28243.88
582.088	28315.56
582.285	28055.47
582.483	28557.22
582.681	27953.07
582.878	28000.17
583.076	27778.99
583.274	28202.92
583.471	27588.53
583.669	27629.49
583.866	27459.51
584.064	27793.33
584.262	27373.49
584.459	27762.61
584.657	27572.14
584.854	27428.79
585.052	26871.74
585.249	27178.93
585.447	27318.2
585.644	26890.17
585.841	26828.73
586.039	27144.12
586.236	26828.73
586.434	26806.2
586.631	26877.88
586.828	26546.11
587.026	26722.24
587.223	26662.85
587.42	26505.15
587.618	26847.16
587.815	26275.78
588.012	26388.42
588.21	26173.38
588.407	26548.16
588.604	25911.24
588.801	26040.26
588.999	25808.84
589.196	25712.59
589.393	25663.44
589.59	25839.56
589.787	25784.27
589.984	25602
590.182	25599.95
590.379	25294.8
590.576	25151.45
590.773	25405.39
590.97	25169.88
591.167	25194.45
591.364	25026.52
591.561	25077.72
591.758	24805.34
591.955	25030.62
592.152	24989.66
592.349	24864.73
592.546	24686.56
592.743	24791
592.94	24176.61
593.137	24512.48
593.334	24381.41
593.531	24141.8
593.727	24504.29
593.924	24489.95
594.121	24008.68
594.318	24225.76
594.515	23734.25
594.712	24135.65
594.908	23687.15
595.105	24006.63
595.302	23412.72
595.499	23734.25
595.696	23666.67
595.892	23400.43
596.089	23556.08
596.286	23355.38
596.482	23523.31
596.679	23244.79
596.876	23269.36
597.072	23044.09
597.269	23138.29
597.466	23031.8
597.662	22951.93
597.859	23222.26
598.055	23277.55
598.252	22779.9
598.448	22759.42
598.645	22448.13
598.841	22583.29
599.038	22304.77
599.234	22448.13
599.431	22179.84
599.627	22210.56
599.824	22388.74
600.02	21889.03
600.217	22126.6
600.413	22028.29
600.609	22077.44
600.806	21536.78
601.002	22093.83
601.198	21938.18
601.395	21673.99
601.591	21800.97
601.787	21686.28
601.984	21368.85
602.18	21534.73
602.376	21274.64
602.572	21288.98
602.769	21350.42
602.965	21225.49
603.161	21389.33
603.357	21198.87
603.553	21129.23
603.75	21088.28
603.946	20604.95
604.142	21166.1
604.338	20914.2
604.534	20867.09
604.73	20494.36
604.926	20367.39
605.122	20772.89
605.318	20674.59
605.514	20510.75
605.71	20443.17
605.906	20420.64
606.102	20494.36
606.298	20312.1
606.494	20283.42
606.69	20076.58
606.886	20260.9
607.082	19714.09
607.278	20070.44
607.474	19810.34
607.67	20015.14
607.866	19601.45
608.062	20199.46
608.257	19972.13
608.453	19470.38
608.649	19820.58
608.845	19640.36
609.041	19439.66
609.236	19570.73
609.432	19699.75
609.628	19480.62
609.824	19505.2
610.019	19501.1
610.215	19245.1
610.411	19617.83
610.606	19048.5
610.802	19394.61
610.998	19107.89
611.193	19421.23
611.389	19294.25
611.584	19161.14
611.78	18964.53
611.976	19003.44
612.171	18952.24
612.367	18915.38
612.562	19109.94
612.758	18640.95
612.953	18763.83
613.149	19066.93
613.344	18716.73
613.539	19083.31
613.735	18698.3
613.93	18806.84
614.126	18702.39
614.321	19019.83
614.517	18542.65
614.712	18436.16
614.907	18419.77
615.103	18556.99
615.298	18096.19
615.493	18671.67
615.688	18374.72
615.884	18417.72
616.079	18198.59
616.274	18260.03
616.47	18341.95
616.665	18341.95
616.86	18321.47
617.055	18122.82
617.25	18212.93
617.445	18337.85
617.641	17793.09
617.836	17875.01
618.031	17911.88
618.226	18100.29
618.421	17877.06
618.616	17881.16
618.811	17344.59
619.006	17944.64
619.201	17428.56
619.396	17471.56
619.591	17410.12
619.786	17365.07
619.981	17053.78
620.176	17594.44
620.371	17221.71
620.566	17107.02
620.761	17121.36
620.956	17258.57
621.151	16971.86
621.346	16867.41
621.541	16543.83
621.735	16887.89
621.93	16691.29
622.125	16615.51
622.32	16255.07
622.515	16556.12
622.709	16496.73
622.904	16019.55
623.099	16097.38
623.294	16083.04
623.488	16040.03
623.683	15976.55
623.878	15657.06
624.072	15890.53
624.267	15687.78
624.462	15671.4
624.656	15480.94
624.851	15583.34
625.046	15415.4
625.24	15270
625.435	15212.65
625.629	15085.68
625.824	14991.47
626.018	14915.7
626.213	15001.71
626.407	14882.93
626.602	14762.1
626.796	14739.57
626.991	14633.08
627.185	14622.84
627.38	14325.88
627.574	14043.26
627.768	14188.67
627.963	14260.35
628.157	14010.5
628.352	13977.73
628.546	13959.3
628.74	13942.91
628.935	13678.72
629.129	13699.2
629.323	13633.67
629.517	13713.54
629.712	13258.89
629.906	13582.47
630.1	13338.76
630.294	13502.6
630.489	13385.87
630.683	13293.71
630.877	12867.73
631.071	12951.7
631.265	12828.82
631.459	13045.9
631.653	13164.68
631.848	12837.01
632.042	12566.68
632.236	12767.38
632.43	12628.12
632.624	12818.58
632.818	12267.67
633.012	12271.77
633.206	12374.17
633.4	12228.76
633.594	12179.61
633.788	12355.74
633.982	12261.53
634.176	11796.64
634.369	11966.62
634.563	11694.24
634.757	11909.28
634.951	11907.23
635.145	11716.77
635.339	11767.97
635.533	11335.85
635.726	11399.34
635.92	11528.36
636.114	11405.48
636.308	11321.51
636.501	11393.19
636.695	11333.8
636.889	11315.37
637.083	11339.94
637.276	11077.8
637.47	11081.9
637.664	11090.09
637.857	10920.11
638.051	10838.19
638.244	10842.29
638.438	10774.7
638.632	10743.99
638.825	10670.26
639.019	10457.27
639.212	10422.45
639.406	10463.41
639.599	10496.18
639.793	10561.72
639.986	10236.09
640.18	10145.98
640.373	10334.39
640.567	10037.44
640.76	10197.18
640.954	9939.13
641.147	9838.78
641.34	9797.82
641.534	9779.39
641.727	9797.82
641.92	9652.42
642.114	9640.13
642.307	9760.96
642.5	9609.41
642.694	9517.25
642.887	9629.89
643.08	9646.27
643.273	9668.8
643.467	9578.69
643.66	9222.34
643.853	9328.84
644.046	9101.51
644.239	9441.48
644.432	9277.64
644.626	9040.08
644.819	9076.94
645.012	9058.51
645.205	9027.79
645.398	8894.67
645.591	8937.68
645.784	8771.79
645.977	8638.67
646.17	8884.43
646.363	8757.46
646.556	8640.72
646.749	8540.37
646.942	8870.09
647.135	8560.85
647.328	8714.45
647.521	8304.85
647.714	8083.67
647.907	8294.61
648.099	8245.46
648.292	8354.01
648.485	8220.89
648.678	8343.77
648.871	8014.04
649.064	8112.35
649.256	8202.46
649.449	8038.62
649.642	7995.61
649.835	7882.97
650.027	7778.53
650.22	7756
650.413	7786.72
650.605	7792.86
650.798	7637.22
650.991	7643.36
651.183	7657.7
651.376	7559.39
651.568	7592.16
651.761	7493.86
651.954	7483.62
652.146	7375.08
652.339	7348.45
652.531	7557.35
652.724	7340.26
652.916	7264.49
653.109	7211.24
653.301	7125.22
653.494	7067.88
653.686	7131.37
653.879	7260.39
654.071	7090.41
654.263	7022.83
654.456	7057.64
654.648	7071.98
654.84	6865.13
655.033	6824.17
655.225	6781.17
655.417	6697.2
655.61	6902
655.802	6744.3
655.994	6668.53
656.186	6844.65
656.379	6537.46
656.571	6684.91
656.763	6711.53
656.955	6453.49
657.148	6496.5
657.34	6605.04
657.532	6183.16
657.724	6312.18
657.916	6547.7
658.108	6400.24
658.3	6355.19
658.492	6459.63
658.684	6279.41
658.876	6144.25
659.068	6269.17
659.26	6177.02
659.452	6193.4
659.644	6107.38
659.836	6111.48
660.028	6011.13
660.22	6031.61
660.412	5964.03
660.604	5986.55
660.796	5935.35
660.988	6013.18
661.18	5966.07
661.372	5900.54
661.563	5898.49
661.755	5878.01
661.947	5822.72
662.139	5701.89
662.331	5585.15
662.522	5449.99
662.714	5593.34
662.906	5474.56
663.097	5687.55
663.289	5421.31
663.481	5458.18
663.673	5435.65
663.864	5472.51
664.056	5376.26
664.247	5368.07
664.439	5474.56
664.631	5409.03
664.822	5218.57
665.014	5476.61
665.205	5310.72
665.397	5386.5
665.588	5218.57
665.78	5239.05
665.971	5056.78
666.163	5241.09
666.354	5210.37
666.546	5171.46
666.737	5069.06
666.929	4999.43
667.12	5048.58
667.311	5081.35
667.503	4983.05
667.694	4956.43
667.885	5015.82
668.077	4913.42
668.268	4876.55
668.459	4854.03
668.651	4753.68
668.842	4770.06
669.033	4827.4
669.224	4682
669.416	4772.11
669.607	4659.47
669.798	4696.33
669.989	4839.69
670.18	4614.41
670.371	4688.14
670.563	4731.15
670.754	4696.33
670.945	4622.61
671.136	4548.88
671.327	4643.09
671.518	4475.15
671.709	4610.32
671.9	4686.09
672.091	4444.43
672.282	4714.77
672.473	4528.4
672.664	4475.15
672.855	4342.04
673.046	4493.58
673.237	4421.91
673.428	4409.62
673.619	4405.52
673.809	4376.85
674	4323.6
674.191	4385.04
674.382	4395.28
674.573	4317.46
674.764	4241.68
674.954	4219.16
675.145	4272.4
675.336	4266.26
675.527	4305.17
675.717	4274.45
675.908	4290.84
676.099	4225.3
676.289	4210.97
676.48	4251.92
676.671	4079.9
676.861	4114.71
677.052	4022.55
677.243	3950.87
677.433	4077.85
677.624	4083.99
677.814	4137.24
678.005	3954.97
678.195	4047.13
678.386	3920.15
678.576	4057.37
678.767	3911.96
678.957	3959.06
679.148	4030.74
679.338	3944.73
679.529	3909.91
679.719	4071.7
679.909	3954.97
680.1	4073.75
680.29	3932.44
680.481	3926.3
680.671	4049.18
680.861	3914.01
681.052	3868.95
681.242	3809.56
681.432	3930.39
681.622	3997.98
681.813	3754.27
682.003	3789.08
682.193	3801.37
682.383	3934.49
682.573	3791.13
682.764	3805.47
682.954	3733.79
683.144	3840.28
683.334	3840.28
683.524	3866.91
683.714	3676.45
683.904	3723.55
684.094	3754.27
684.284	3772.7
684.474	3762.46
684.664	3692.83
684.854	3602.72
685.044	3725.6
685.234	3641.63
685.424	3504.42
685.614	3555.62
685.804	3617.05
685.994	3514.66
686.184	3639.58
686.374	3672.35
686.564	3578.14
686.753	3574.05
686.943	3602.72
687.133	3395.87
687.323	3395.87
687.513	3377.44
687.702	3510.56
687.892	3445.02
688.082	3539.23
688.272	3418.4
688.461	3395.87
688.651	3422.5
688.841	3260.71
689.03	3299.62
689.22	3318.05
689.41	3373.35
689.599	3379.49
689.789	3356.96
689.979	3275.04
690.168	3152.17
690.358	3164.45
690.547	3223.84
690.737	3148.07
690.926	3133.73
691.116	3045.67
691.305	3246.37
691.495	3184.93
691.684	3035.43
691.874	3033.38
692.063	3060.01
692.252	3133.73
692.442	3131.69
692.631	2912.55
692.82	3076.39
693.01	2853.16
693.199	2914.6
693.388	2918.7
693.578	3012.9
693.767	2951.46
693.956	2881.83
694.146	2902.31
694.335	2791.72
694.524	2787.63
694.713	2857.26
694.902	2832.68
695.092	2775.34
695.281	2908.46
695.47	2730.28
695.659	2801.96
695.848	2681.13
696.037	2828.59
696.226	2820.39
696.415	2836.78
696.604	2767.15
696.793	2701.61
696.982	2640.17
697.171	2844.97
697.36	2642.22
697.549	2740.52
697.738	2631.98
697.927	2650.41
698.116	2505.01
698.305	2535.73
698.494	2496.82
698.683	2478.38
698.872	2586.93
699.061	2558.25
699.25	2464.05
699.438	2445.62
699.627	2488.62
699.816	2576.69
700.005	2582.83
700.193	2418.99
700.382	2406.7
700.571	2472.24
700.76	2484.53
700.948	2539.82
701.137	2488.62
701.326	2500.91
701.514	2480.43
701.703	2429.23
701.892	2386.22
702.08	2494.77
702.269	2449.71
702.457	2326.83
702.646	2423.09
702.834	2408.75
703.023	2388.27
703.212	2488.62
703.4	2349.36
703.589	2404.66
703.777	2427.18
703.965	2232.63
704.154	2320.69
704.342	2472.24
704.531	2341.17
704.719	2275.63
704.907	2410.8
705.096	2357.55
705.284	2373.94
705.472	2294.07
705.661	2320.69
705.849	2353.46
706.037	2404.66
706.226	2421.04
706.414	2251.06
706.602	2373.94
706.79	2294.07
706.979	2271.54
707.167	2332.98
707.355	2267.44
707.543	2300.21
707.731	2451.76
707.919	2294.07
708.107	2273.59
708.296	2365.75
708.484	2187.57
708.672	2382.13
708.86	2371.89
709.048	2359.6
709.236	2390.32
709.424	2324.79
709.612	2353.46
709.8	2265.39
709.988	2351.41
710.176	2316.59
710.364	2384.18
710.551	2337.07
710.739	2361.65
710.927	2294.07
711.115	2378.03
711.303	2304.31
711.491	2287.92
711.679	2330.93
711.866	2328.88
712.054	2312.5
712.242	2386.22
712.43	2298.16
712.617	2337.07
712.805	2253.11
712.993	2380.08
713.181	2279.73
713.368	2328.88
713.556	2283.83
713.744	2255.15
713.931	2345.27
714.119	2263.35
714.306	2312.5
714.494	2382.13
714.682	2371.89
714.869	2332.98
715.057	2476.34
715.244	2339.12
715.432	2357.55
715.619	2273.59
715.807	2322.74
715.994	2294.07
716.182	2263.35
716.369	2349.36
716.556	2273.59
716.744	2349.36
716.931	2328.88
717.119	2347.31
717.306	2480.43
717.493	2332.98
717.681	2367.79
717.868	2390.32
718.055	2445.62
718.242	2396.46
718.43	2464.05
718.617	2371.89
718.804	2427.18
718.991	2414.9
719.179	2289.97
719.366	2406.7
719.553	2445.62
719.74	2390.32
719.927	2388.27
720.114	2384.18
720.301	2158.9
720.488	2439.47
720.676	2398.51
720.863	2486.58
721.05	2472.24
721.237	2414.9
721.424	2511.15
721.611	2402.61
721.798	2320.69
721.985	2355.51
722.172	2312.5
722.358	2554.16
722.545	2472.24
722.732	2492.72
722.919	2494.77
723.106	2478.38
723.293	2523.44
723.48	2408.75
723.667	2476.34
723.853	2427.18
724.04	2412.85
724.227	2318.64
724.414	2353.46
724.6	2640.17
724.787	2537.77
724.974	2502.96
725.161	2494.77
725.347	2371.89
725.534	2464.05
725.72	2519.34
725.907	2404.66
726.094	2521.39
726.28	2429.23
726.467	2525.49
726.653	2523.44
726.84	2537.77
727.027	2464.05
727.213	2629.93
727.4	2488.62
727.586	2537.77
727.773	2388.27
727.959	2451.76
728.145	2455.86
728.332	2523.44
728.518	2566.45
728.705	2574.64
728.891	2527.53
729.077	2529.58
729.264	2591.02
729.45	2570.54
729.636	2677.04
729.823	2539.82
730.009	2550.06
730.195	2656.56
730.382	2644.27
730.568	2441.52
730.754	2462
730.94	2519.34
731.126	2586.93
731.313	2451.76
731.499	2601.26
731.685	2601.26
731.871	2519.34
732.057	2642.22
732.243	2562.35
732.429	2566.45
732.615	2568.49
732.801	2443.57
732.987	2554.16
733.173	2552.11
733.359	2537.77
733.545	2507.06
733.731	2500.91
733.917	2511.15
734.103	2578.73
734.289	2595.12
734.475	2552.11
734.661	2709.8
734.847	2545.97
735.033	2591.02
735.219	2496.82
735.404	2580.78
735.59	2505.01
735.776	2484.53
735.962	2552.11
736.148	2627.89
736.333	2527.53
736.519	2539.82
736.705	2509.1
736.89	2482.48
737.076	2484.53
737.262	2638.13
737.447	2552.11
737.633	2535.73
737.819	2599.21
738.004	2558.25
738.19	2533.68
738.375	2529.58
738.561	2527.53
738.747	2382.13
738.932	2558.25
739.118	2537.77
739.303	2496.82
739.489	2545.97
739.674	2478.38
739.859	2320.69
740.045	2498.86
740.23	2453.81
740.416	2394.42
740.601	2421.04
740.786	2398.51
740.972	2328.88
741.157	2375.99
741.342	2400.56
741.528	2494.77
741.713	2398.51
741.898	2279.73
742.084	2388.27
742.269	2480.43
742.454	2355.51
742.639	2314.55
742.824	2421.04
743.01	2337.07
743.195	2337.07
743.38	2324.79
743.565	2289.97
743.75	2373.94
743.935	2249.01
744.12	2328.88
744.305	2277.68
744.49	2210.1
744.675	2271.54
744.86	2283.83
745.045	2206
745.23	2361.65
745.415	2201.91
745.6	2292.02
745.785	2173.24
745.97	2253.11
746.155	2193.72
746.34	2173.24
746.525	2126.13
746.71	2173.24
746.895	2253.11
747.079	2201.91
747.264	2113.85
747.449	2148.66
747.634	2099.51
747.819	2087.22
748.003	2087.22
748.188	2072.89
748.373	2029.88
748.557	2085.17
748.742	2095.41
748.927	2150.71
749.111	2060.6
749.296	2060.6
749.481	2001.21
749.665	2017.59
749.85	1859.9
750.034	2027.83
750.219	1990.97
750.404	1907
750.588	1874.23
750.773	1923.38
750.957	1915.19
751.141	1886.52
751.326	1878.33
751.51	1857.85
751.695	1816.89
751.879	1827.13
752.064	1798.46
752.248	1839.42
752.432	1929.53
752.617	1794.36
752.801	1685.82
752.985	1759.55
753.17	1792.31
753.354	1835.32
753.538	1739.07
753.722	1722.68
753.907	1651
754.091	1579.33
754.275	1685.82
754.459	1689.92
754.643	1648.96
754.828	1694.01
755.012	1620.28
755.196	1642.81
755.38	1583.42
755.564	1593.66
755.748	1526.08
755.932	1530.17
756.116	1558.85
756.3	1581.37
756.484	1651
756.668	1587.52
756.852	1489.21
757.036	1501.5
757.22	1507.65
757.404	1399.1
757.588	1562.94
757.772	1497.41
757.956	1517.89
758.14	1419.58
758.323	1442.11
758.507	1470.78
758.691	1454.4
758.875	1409.34
759.059	1352
759.242	1446.21
759.426	1388.86
759.61	1405.25
759.794	1337.66
759.977	1528.13
760.161	1401.15
760.345	1335.62
760.528	1358.14
760.712	1272.13
760.895	1290.56
761.079	1395.01
761.263	1323.33
761.446	1288.51
761.63	1237.31
761.813	1317.19
761.997	1255.75
762.18	1161.54
762.364	1374.53
762.547	1134.92
762.731	1249.6
762.914	1147.2
763.098	1235.27
763.281	1192.26
763.464	1171.78
763.648	1192.26
763.831	1114.44
764.015	1233.22
764.198	1179.97
764.381	1177.92
764.564	1288.51
764.748	1182.02
764.931	1069.38
765.114	1098.05
765.297	1136.96
765.481	1200.45
765.664	1120.58
765.847	1132.87
766.03	1167.68
766.213	1136.96
766.397	1108.29
766.58	1136.96
766.763	1237.31
766.946	1112.39
767.129	1126.72
767.312	1050.95
767.495	1079.62
767.678	1030.47
767.861	1147.2
768.044	1012.04
768.227	1003.85
768.41	1136.96
768.593	1079.62
768.776	956.74
768.959	1067.33
769.142	1087.81
769.324	1030.47
769.507	1018.18
769.69	1026.37
769.873	1048.9
770.056	1157.44
770.239	1020.23
770.421	991.56
770.604	1067.33
770.787	999.75
770.97	973.13
771.152	948.55
771.335	938.31
771.518	987.46
771.7	907.59
771.883	1075.52
772.066	1014.09
772.248	932.17
772.431	919.88
772.613	966.98
772.796	840.01
772.978	946.5
773.161	872.78
773.343	907.59
773.526	891.21
773.708	979.27
773.891	831.82
774.073	944.45
774.256	930.12
774.438	903.5
774.621	805.19
774.803	844.1
774.985	883.02
775.168	880.97
775.35	827.72
775.532	923.98
775.715	909.64
775.897	782.67
776.079	747.85
776.261	907.59
776.444	764.23
776.626	844.1
776.808	840.01
776.99	745.8
777.173	717.13
777.355	844.1
777.537	825.67
777.719	766.28
777.901	809.29
778.083	723.27
778.265	708.94
778.447	780.62
778.629	772.43
778.811	729.42
778.993	792.91
779.175	729.42
779.357	758.09
779.539	702.79
779.721	661.84
779.903	667.98
780.085	717.13
780.267	758.09
780.449	676.17
780.631	629.07
780.812	702.79
780.994	694.6
781.176	614.73
781.358	653.64
781.54	577.87
781.721	682.31
781.903	696.65
782.085	674.12
782.267	676.17
782.448	631.12
782.63	600.4
782.812	596.3
782.993	555.34
783.175	633.16
783.357	551.24
783.538	588.11
783.72	526.67
783.901	532.81
784.083	598.35
784.264	600.4
784.446	538.96
784.627	592.2
784.809	528.72
784.99	577.87
785.172	577.87
785.353	565.58
785.535	563.53
785.716	502.09
785.897	469.33
786.079	534.86
786.26	563.53
786.441	422.22
786.623	481.61
786.804	491.85
786.985	563.53
787.167	502.09
787.348	520.53
787.529	534.86
787.71	491.85
787.891	481.61
788.073	438.61
788.254	414.03
788.435	448.85
788.616	569.68
788.797	475.47
788.978	518.48
789.159	450.89
789.34	477.52
789.522	506.19
789.703	516.43
789.884	395.6
790.065	485.71
790.246	498
790.427	475.47
790.607	495.95
790.788	418.13
790.969	395.6
791.15	428.37
791.331	418.13
791.512	411.98
791.693	452.94
791.874	405.84
792.054	356.69
792.235	450.89
792.416	405.84
792.597	264.53
792.778	362.83
792.958	368.98
793.139	504.14
793.32	506.19
793.5	373.07
793.681	387.41
793.862	407.89
794.042	377.17
794.223	366.93
794.404	346.45
794.584	373.07
794.765	438.61
794.945	338.26
795.126	416.08
795.306	407.89
795.487	352.59
795.667	340.3
795.848	405.84
796.028	381.26
796.209	366.93
796.389	350.54
796.57	358.74
796.75	246.1
796.93	317.78
797.111	373.07
797.291	387.41
797.471	319.82
797.652	313.68
797.832	260.43
798.012	368.98
798.192	332.11
798.373	313.68
798.553	401.74
798.733	350.54
798.913	313.68
799.093	325.97
799.274	272.72
799.454	342.35
799.634	340.3
799.814	248.15
799.994	338.26
800.174	387.41
800.354	307.54
800.534	323.92
800.714	325.97
800.894	280.91
801.074	272.72
801.254	268.63
801.434	315.73
801.614	309.58
801.794	309.58
801.974	620.88
802.154	303.44
802.334	289.1
802.514	178.51
802.693	291.15
802.873	237.91
803.053	315.73
803.233	258.39
803.413	274.77
803.592	248.15
803.772	295.25
803.952	293.2
804.131	237.91
804.311	217.43
804.491	252.24
804.67	225.62
804.85	280.91
805.03	239.95
805.209	237.91
805.389	203.09
805.568	186.71
805.748	227.67
805.928	211.28
806.107	274.77
806.287	170.32
806.466	268.63
806.646	307.54
806.825	274.77
807.004	227.67
807.184	246.1
807.363	235.86
807.543	211.28
807.722	201.04
807.901	254.29
808.081	297.3
808.26	182.61
808.439	274.77
808.619	221.52
808.798	143.7
808.977	295.25
809.156	225.62
809.336	192.85
809.515	158.03
809.694	176.47
809.873	246.1
810.052	213.33
810.231	270.67
810.411	205.14
810.59	235.86
810.769	160.08
810.948	227.67
811.127	162.13
811.306	282.96
811.485	233.81
811.664	252.24
811.843	252.24
812.022	239.95
812.201	141.65
812.38	235.86
812.559	176.47
812.737	182.61
812.916	174.42
813.095	186.71
813.274	203.09
813.453	252.24
813.632	203.09
813.811	231.76
813.989	143.7
814.168	160.08
814.347	176.47
814.526	98.64
814.704	289.1
814.883	215.38
815.062	186.71
815.24	186.71
815.419	147.8
815.598	184.66
815.776	102.74
815.955	172.37
816.133	239.95
816.312	196.95
816.49	209.23
816.669	256.34
816.847	149.84
817.026	203.09
817.204	194.9
817.383	215.38
817.561	186.71
817.74	198.99
817.918	143.7
818.097	198.99
818.275	168.27
818.453	186.71
818.632	121.17
818.81	211.28
818.988	153.94
819.167	104.79
819.345	170.32
819.523	194.9
819.701	121.17
819.879	182.61
820.058	51.54
820.236	170.32
820.414	221.52
820.592	72.02
820.77	137.56
820.948	135.51
821.127	145.75
821.305	133.46
821.483	211.28
821.661	133.46
821.839	170.32
822.017	192.85
822.195	158.03
822.373	164.18
822.551	86.36
822.729	162.13
822.907	201.04
823.085	90.45
823.262	69.97
823.44	115.03
823.618	153.94
823.796	94.55
823.974	160.08
824.152	149.84
824.329	100.69
824.507	104.79
824.685	135.51
824.863	69.97
825.04	117.08
825.218	168.27
825.396	59.73
825.574	211.28
825.751	104.79
825.929	182.61
826.107	182.61
826.284	47.44
826.462	164.18
826.639	123.22
826.817	65.88
826.994	117.08
827.172	174.42
827.349	227.67
827.527	168.27
827.704	110.93
827.882	133.46
828.059	94.55
828.237	129.36
828.414	141.65
828.591	96.6
828.769	139.6
828.946	139.6
829.124	76.12
829.301	110.93
829.478	110.93
829.655	149.84
829.833	108.88
830.01	106.84
830.187	84.31
830.364	37.2
830.542	160.08
830.719	117.08
830.896	141.65
831.073	115.03
831.25	201.04
831.427	67.92
831.604	78.16
831.782	96.6
831.959	59.73
832.136	147.8
832.313	82.26
832.49	168.27
832.667	47.44
832.844	133.46
833.021	151.89
833.198	192.85
833.374	102.74
833.551	59.73
833.728	80.21
833.905	119.12
834.082	127.32
834.259	129.36
834.436	194.9
834.612	135.51
834.789	98.64
834.966	41.3
835.143	80.21
835.319	74.07
835.496	166.23
835.673	49.49
835.85	112.98
836.026	104.79
836.203	174.42
836.38	63.83
836.556	129.36
836.733	84.31
836.909	115.03
837.086	-5.8
837.262	72.02
837.439	112.98
837.616	104.79
837.792	6.49
837.968	104.79
838.145	78.16
838.321	127.32
838.498	82.26
838.674	117.08
838.851	106.84
839.027	133.46
839.203	133.46
839.38	49.49
839.556	102.74
839.732	137.56
839.909	104.79
840.085	121.17
840.261	86.36
840.437	121.17
840.614	133.46
840.79	18.77
840.966	102.74
841.142	119.12
841.318	76.12
841.494	67.92
841.671	72.02
841.847	31.06
842.023	51.54
842.199	127.32
842.375	59.73
842.551	4.44
842.727	115.03
842.903	84.31
843.079	-1.71
843.255	123.22
843.431	65.88
843.607	67.92
843.783	2.39
843.959	137.56
844.134	-22.19
844.31	76.12
844.486	45.4
844.662	112.98
844.838	127.32
845.013	119.12
845.189	117.08
845.365	65.88
845.541	102.74
845.716	59.73
845.892	121.17
846.068	96.6
846.244	51.54
846.419	8.53
846.595	47.44
846.77	67.92
846.946	22.87
847.122	104.79
847.297	74.07
847.473	117.08
847.648	33.11
847.824	84.31
847.999	55.64
848.175	35.16
848.35	82.26
848.526	121.17
848.701	59.73
848.876	133.46
849.052	53.59
849.227	12.63
849.403	96.6
849.578	37.2
849.753	63.83
849.929	61.78
850.104	39.25
850.279	63.83
850.454	10.58
850.63	55.64
850.805	90.45
850.98	29.01
851.155	59.73
851.33	69.97
851.505	-1.71
851.681	94.55
851.856	35.16
852.031	78.16
852.206	31.06
852.381	45.4
852.556	-1.71
852.731	86.36
852.906	78.16
853.081	26.96
853.256	78.16
853.431	63.83
853.606	8.53
853.781	63.83
853.956	24.92
854.131	61.78
854.305	43.35
854.48	12.63
854.655	76.12
854.83	20.82
855.005	135.51
855.18	151.89
855.354	88.4
855.529	0.34
855.704	53.59
855.879	22.87
856.053	47.44
856.228	90.45
856.403	41.3
856.577	92.5
856.752	76.12
856.926	69.97
857.101	80.21
857.276	51.54
857.45	59.73
857.625	-7.85
857.799	33.11
857.974	94.55
858.148	-30.38
858.323	26.96
858.497	59.73
858.672	96.6
858.846	12.63
859.02	55.64
859.195	39.25
859.369	39.25
859.543	43.35
859.718	37.2
859.892	78.16
860.066	121.17
860.241	12.63
860.415	14.68
860.589	37.2
860.763	51.54
860.938	47.44
861.112	145.75
861.286	45.4
861.46	51.54
861.634	88.4
861.808	43.35
861.982	24.92
862.157	-28.33
862.331	98.64
862.505	-13.99
862.679	-7.85
862.853	55.64
863.027	-1.71
863.201	94.55
863.375	22.87
863.549	20.82
863.722	57.68
863.896	76.12
864.07	-75.43
864.244	45.4
864.418	39.25
864.592	55.64
864.766	39.25
864.939	-3.75
865.113	-13.99
865.287	33.11
865.461	4.44
865.634	90.45
865.808	20.82
865.982	-13.99
866.156	59.73
866.329	16.73
866.503	-18.09
866.676	39.25
866.85	63.83
867.024	53.59
867.197	59.73
867.371	69.97
867.544	-9.9
867.718	47.44
867.891	33.11
868.065	41.3
868.238	90.45
868.412	72.02
868.585	72.02
868.759	20.82
868.932	-1.71
869.105	-26.28
869.279	84.31
869.452	10.58
869.625	-28.33
869.799	-34.47
869.972	-5.8
870.145	35.16
870.319	39.25
870.492	-36.52
870.665	18.77
870.838	2.39
871.011	10.58
871.185	10.58
871.358	43.35
871.531	-1.71
871.704	6.49
871.877	102.74
872.05	14.68
872.223	-5.8
872.396	59.73
872.569	69.97
872.742	24.92
872.915	82.26
873.088	47.44
873.261	63.83
873.434	4.44
873.607	80.21
873.78	88.4
873.953	-7.85
874.126	55.64
874.299	47.44
874.471	37.2
874.644	104.79
874.817	33.11
874.99	2.39
875.163	22.87
875.335	59.73
875.508	-9.9
875.681	61.78
875.853	-26.28
876.026	51.54
876.199	65.88
876.371	65.88
876.544	6.49
876.717	26.96
876.889	-1.71
877.062	55.64
877.234	88.4
877.407	16.73
877.579	45.4
877.752	10.58
877.924	82.26
878.097	51.54
878.269	92.5
878.442	-9.9
878.614	14.68
878.786	74.07
878.959	37.2
879.131	45.4
879.303	31.06
879.476	12.63
879.648	16.73
879.82	39.25
879.993	6.49
880.165	47.44
880.337	-20.14
880.509	59.73
880.681	49.49
880.854	-20.14
881.026	76.12
881.198	92.5
881.37	6.49
881.542	-22.19
881.714	29.01
881.886	-11.95
882.058	8.53
882.23	16.73
882.402	10.58
882.574	45.4
882.746	20.82
882.918	55.64
883.09	-20.14
883.262	65.88
883.434	72.02
883.606	59.73
883.778	110.93
883.95	86.36
884.122	-3.75
884.293	43.35
884.465	35.16
884.637	162.13
884.809	16.73
884.98	59.73
885.152	43.35
885.324	82.26
885.496	-1.71
885.667	57.68
885.839	59.73
886.011	29.01
886.182	55.64
886.354	6.49
886.525	63.83
886.697	129.36
886.869	80.21
887.04	-1.71
887.212	39.25
887.383	39.25
887.555	-1.71
887.726	84.31
887.897	-3.75
888.069	45.4
888.24	-1.71
888.412	41.3
888.583	55.64
888.754	0.34
888.926	20.82
889.097	22.87
889.268	69.97
889.44	12.63
889.611	-26.28
889.782	-34.47
889.953	39.25
890.125	104.79
890.296	-22.19
890.467	22.87
890.638	-38.57
890.809	29.01
890.98	-7.85
891.151	57.68
891.323	39.25
891.494	29.01
891.665	6.49
891.836	53.59
892.007	-48.81
892.178	53.59
892.349	33.11
892.52	0.34
892.691	-5.8
892.862	-32.43
893.032	18.77
893.203	33.11
893.374	80.21
893.545	110.93
893.716	-13.99
893.887	29.01
894.057	47.44
894.228	-9.9
894.399	-61.1
894.57	33.11
894.74	26.96
894.911	22.87
895.082	10.58
895.253	59.73
895.423	14.68
895.594	41.3
895.764	18.77
895.935	39.25
896.106	98.64
896.276	18.77
896.447	22.87
896.617	57.68
896.788	-30.38
896.958	-36.52
897.129	47.44
897.299	80.21
897.47	-1.71
897.64	-18.09
897.81	31.06
897.981	10.58
898.151	80.21
898.322	4.44
898.492	-18.09
898.662	82.26
898.832	12.63
899.003	53.59
899.173	16.73
899.343	37.2
899.513	-20.14
