Data from USB4F104151__13__11-36-25-888.txt Node

Date: Fri Mar 14 11:36:25 EDT 2025
User: louis
Spectrometer: USB4F10415
Trigger mode: 4
Integration Time (sec): 2.000000E-2
Scans to average: 1
Electric dark correction enabled: true
Nonlinearity correction enabled: false
Boxcar width: 0
XAxis mode: Wavelengths
Number of Pixels in Spectrum: 3648
>>>>>Begin Spectral Data<<<<<
178.204	-58.71
178.424	-58.71
178.644	-58.71
178.864	-89.43
179.084	-48.47
179.304	35.5
179.524	-17.75
179.744	12.97
179.964	47.79
180.184	70.31
180.404	8.87
180.624	-44.37
180.844	-27.99
181.064	-7.51
181.283	-5.46
181.503	-85.33
181.723	12.97
181.943	-58.71
182.163	23.21
182.383	21.16
182.602	27.31
182.822	-27.99
183.042	37.55
183.262	-64.85
183.482	64.17
183.701	-5.46
183.921	33.45
184.141	10.92
184.361	-9.56
184.58	-1.37
184.8	10.92
185.02	-19.8
185.239	4.78
185.459	-11.61
185.679	-25.94
185.898	2.73
186.118	33.45
186.338	-5.46
186.557	39.59
186.777	31.4
186.997	-36.18
187.216	-9.56
187.436	49.83
187.655	68.27
187.875	25.26
188.095	-58.71
188.314	66.22
188.534	-1.37
188.753	8.87
188.973	0.68
189.192	17.07
189.412	-11.61
189.631	43.69
189.851	-17.75
190.07	33.45
190.29	-5.46
190.509	-83.28
190.729	19.11
190.948	74.41
191.168	-9.56
191.387	80.55
191.607	-34.13
191.826	-11.61
192.045	31.4
192.265	-13.65
192.484	10.92
192.704	35.5
192.923	35.5
193.142	17.07
193.362	19.11
193.581	-19.8
193.8	19.11
194.02	-15.7
194.239	-68.95
194.458	-30.04
194.678	35.5
194.897	-32.08
195.116	-71
195.335	53.93
195.555	-9.56
195.774	15.02
195.993	55.98
196.212	27.31
196.432	-1.37
196.651	-1.37
196.87	-25.94
197.089	103.08
197.308	43.69
197.528	43.69
197.747	-17.75
197.966	49.83
198.185	119.46
198.404	21.16
198.623	-5.46
198.842	15.02
199.062	27.31
199.281	19.11
199.5	-5.46
199.719	15.02
199.938	39.59
200.157	47.79
200.376	-5.46
200.595	43.69
200.814	39.59
201.033	10.92
201.252	70.31
201.471	43.69
201.69	66.22
201.909	47.79
202.128	-25.94
202.347	12.97
202.566	-50.52
202.785	-7.51
203.004	37.55
203.223	72.36
203.442	33.45
203.661	37.55
203.879	-17.75
204.098	31.4
204.317	-38.23
204.536	53.93
204.755	-30.04
204.974	12.97
205.193	27.31
205.411	-19.8
205.63	76.46
205.849	37.55
206.068	47.79
206.287	-15.7
206.505	-40.28
206.724	55.98
206.943	-50.52
207.162	51.88
207.381	-15.7
207.599	6.83
207.818	-38.23
208.037	-27.99
208.255	23.21
208.474	45.74
208.693	60.07
208.911	72.36
209.13	15.02
209.349	-13.65
209.567	-25.94
209.786	0.68
210.005	35.5
210.223	19.11
210.442	-27.99
210.661	-9.56
210.879	-3.41
211.098	-9.56
211.316	-34.13
211.535	-3.41
211.753	-17.75
211.972	27.31
212.191	60.07
212.409	-17.75
212.628	0.68
212.846	-25.94
213.065	41.64
213.283	37.55
213.502	-48.47
213.72	45.74
213.938	60.07
214.157	43.69
214.375	17.07
214.594	-3.41
214.812	39.59
215.031	27.31
215.249	23.21
215.467	-42.32
215.686	10.92
215.904	2.73
216.122	-3.41
216.341	-9.56
216.559	-5.46
216.778	64.17
216.996	25.26
217.214	-15.7
217.432	-25.94
217.651	53.93
217.869	10.92
218.087	2.73
218.306	94.89
218.524	25.26
218.742	39.59
218.96	41.64
219.179	45.74
219.397	60.07
219.615	76.46
219.833	47.79
220.051	-9.56
220.27	43.69
220.488	27.31
220.706	4.78
220.924	-30.04
221.142	-19.8
221.36	39.59
221.578	-9.56
221.796	27.31
222.015	15.02
222.233	23.21
222.451	72.36
222.669	-42.32
222.887	21.16
223.105	-64.85
223.323	0.68
223.541	72.36
223.759	-38.23
223.977	31.4
224.195	6.83
224.413	47.79
224.631	10.92
224.849	47.79
225.067	72.36
225.285	-75.09
225.503	-3.41
225.721	-21.84
225.939	-13.65
226.157	2.73
226.375	150.18
226.592	35.5
226.81	21.16
227.028	19.11
227.246	2.73
227.464	19.11
227.682	-3.41
227.9	-34.13
228.117	53.93
228.335	31.4
228.553	53.93
228.771	111.27
228.989	-1.37
229.206	43.69
229.424	-34.13
229.642	4.78
229.86	-9.56
230.077	55.98
230.295	-9.56
230.513	-19.8
230.731	49.83
230.948	21.16
231.166	98.99
231.384	-3.41
231.601	-25.94
231.819	37.55
232.037	49.83
232.254	-42.32
232.472	-34.13
232.689	-3.41
232.907	2.73
233.125	2.73
233.342	27.31
233.56	33.45
233.777	2.73
233.995	45.74
234.213	78.51
234.43	35.5
234.648	10.92
234.865	-5.46
235.083	72.36
235.3	27.31
235.518	-34.13
235.735	21.16
235.953	15.02
236.17	47.79
236.388	-91.48
236.605	127.66
236.822	19.11
237.04	19.11
237.257	-34.13
237.475	-60.76
237.692	-46.42
237.909	-5.46
238.127	-44.37
238.344	-5.46
238.562	10.92
238.779	2.73
238.996	62.12
239.214	-3.41
239.431	39.59
239.648	6.83
239.865	53.93
240.083	45.74
240.3	43.69
240.517	37.55
240.735	47.79
240.952	-32.08
241.169	39.59
241.386	-1.37
241.603	45.74
241.821	45.74
242.038	-19.8
242.255	55.98
242.472	6.83
242.689	43.69
242.907	55.98
243.124	-3.41
243.341	62.12
243.558	15.02
243.775	39.59
243.992	-30.04
244.209	6.83
244.426	53.93
244.643	-17.75
244.86	76.46
245.078	37.55
245.295	27.31
245.512	37.55
245.729	10.92
245.946	115.37
246.163	47.79
246.38	21.16
246.597	21.16
246.814	72.36
247.031	6.83
247.248	51.88
247.464	-5.46
247.681	8.87
247.898	0.68
248.115	53.93
248.332	-38.23
248.549	49.83
248.766	51.88
248.983	-34.13
249.2	31.4
249.417	45.74
249.633	-40.28
249.85	-23.89
250.067	-1.37
250.284	-17.75
250.501	-50.52
250.717	64.17
250.934	-46.42
251.151	19.11
251.368	49.83
251.585	-7.51
251.801	19.11
252.018	21.16
252.235	8.87
252.451	-19.8
252.668	-34.13
252.885	76.46
253.102	-27.99
253.318	-60.76
253.535	-50.52
253.752	6.83
253.968	15.02
254.185	27.31
254.401	4.78
254.618	-75.09
254.835	-13.65
255.051	78.51
255.268	-23.89
255.484	25.26
255.701	45.74
255.917	101.03
256.134	8.87
256.351	49.83
256.567	8.87
256.784	10.92
257	25.26
257.217	58.03
257.433	68.27
257.65	19.11
257.866	41.64
258.082	10.92
258.299	37.55
258.515	49.83
258.732	-5.46
258.948	0.68
259.165	55.98
259.381	-17.75
259.597	19.11
259.814	-17.75
260.03	12.97
260.246	41.64
260.463	-25.94
260.679	-15.7
260.895	21.16
261.112	70.31
261.328	86.7
261.544	10.92
261.761	27.31
261.977	31.4
262.193	2.73
262.409	49.83
262.626	47.79
262.842	45.74
263.058	-75.09
263.274	21.16
263.49	-11.61
263.707	-3.41
263.923	39.59
264.139	4.78
264.355	31.4
264.571	70.31
264.787	15.02
265.004	15.02
265.22	23.21
265.436	53.93
265.652	6.83
265.868	27.31
266.084	35.5
266.3	25.26
266.516	27.31
266.732	84.65
266.948	23.21
267.164	51.88
267.38	39.59
267.596	53.93
267.812	-25.94
268.028	2.73
268.244	4.78
268.46	33.45
268.676	62.12
268.892	-34.13
269.108	45.74
269.324	-32.08
269.54	92.84
269.756	39.59
269.972	-11.61
270.188	-1.37
270.403	-3.41
270.619	27.31
270.835	-7.51
271.051	-13.65
271.267	-3.41
271.483	-3.41
271.698	68.27
271.914	60.07
272.13	90.79
272.346	47.79
272.562	21.16
272.777	-11.61
272.993	-11.61
273.209	72.36
273.425	-42.32
273.64	15.02
273.856	82.6
274.072	-46.42
274.287	-15.7
274.503	10.92
274.719	-58.71
274.934	19.11
275.15	94.89
275.366	10.92
275.581	86.7
275.797	53.93
276.012	2.73
276.228	60.07
276.444	45.74
276.659	-21.84
276.875	8.87
277.09	66.22
277.306	-1.37
277.521	51.88
277.737	-89.43
277.952	58.03
278.168	-42.32
278.383	98.99
278.599	23.21
278.814	35.5
279.03	-1.37
279.245	-46.42
279.461	49.83
279.676	-11.61
279.892	31.4
280.107	-1.37
280.322	-13.65
280.538	-25.94
280.753	43.69
280.969	33.45
281.184	53.93
281.399	33.45
281.615	19.11
281.83	55.98
282.045	10.92
282.26	82.6
282.476	80.55
282.691	19.11
282.906	-1.37
283.122	15.02
283.337	84.65
283.552	35.5
283.767	47.79
283.983	4.78
284.198	-21.84
284.413	-1.37
284.628	39.59
284.843	-62.8
285.058	78.51
285.274	62.12
285.489	19.11
285.704	47.79
285.919	-1.37
286.134	-13.65
286.349	-50.52
286.564	72.36
286.779	-48.47
286.995	35.5
287.21	-11.61
287.425	15.02
287.64	12.97
287.855	-11.61
288.07	0.68
288.285	17.07
288.5	23.21
288.715	60.07
288.93	-48.47
289.145	-42.32
289.36	41.64
289.575	-11.61
289.79	70.31
290.004	55.98
290.219	27.31
290.434	27.31
290.649	10.92
290.864	29.35
291.079	-1.37
291.294	0.68
291.509	-38.23
291.724	15.02
291.938	23.21
292.153	10.92
292.368	51.88
292.583	8.87
292.798	-27.99
293.012	37.55
293.227	25.26
293.442	31.4
293.657	62.12
293.871	35.5
294.086	-15.7
294.301	27.31
294.516	-38.23
294.73	8.87
294.945	15.02
295.16	47.79
295.374	51.88
295.589	39.59
295.804	2.73
296.018	4.78
296.233	33.45
296.447	25.26
296.662	-40.28
296.877	55.98
297.091	-50.52
297.306	88.75
297.52	49.83
297.735	23.21
297.949	23.21
298.164	-32.08
298.378	23.21
298.593	25.26
298.807	-17.75
299.022	96.94
299.236	12.97
299.451	-11.61
299.665	43.69
299.88	29.35
300.094	-11.61
300.309	68.27
300.523	-1.37
300.737	-17.75
300.952	6.83
301.166	15.02
301.381	-42.32
301.595	6.83
301.809	53.93
302.024	19.11
302.238	43.69
302.452	37.55
302.667	29.35
302.881	39.59
303.095	21.16
303.309	6.83
303.524	31.4
303.738	4.78
303.952	35.5
304.166	35.5
304.381	84.65
304.595	15.02
304.809	25.26
305.023	39.59
305.237	-23.89
305.452	23.21
305.666	4.78
305.88	-17.75
306.094	68.27
306.308	-9.56
306.522	25.26
306.736	-27.99
306.95	37.55
307.164	55.98
307.379	-15.7
307.593	-32.08
307.807	37.55
308.021	2.73
308.235	0.68
308.449	39.59
308.663	25.26
308.877	-1.37
309.091	12.97
309.305	47.79
309.519	47.79
309.733	62.12
309.947	-50.52
310.161	-5.46
310.374	39.59
310.588	115.37
310.802	33.45
311.016	-7.51
311.23	-32.08
311.444	-9.56
311.658	21.16
311.872	47.79
312.085	55.98
312.299	45.74
312.513	60.07
312.727	51.88
312.941	-17.75
313.154	55.98
313.368	-54.61
313.582	49.83
313.796	-3.41
314.009	51.88
314.223	51.88
314.437	51.88
314.651	31.4
314.864	12.97
315.078	29.35
315.292	-15.7
315.505	-30.04
315.719	62.12
315.933	-17.75
316.146	51.88
316.36	55.98
316.573	60.07
316.787	-19.8
317.001	-17.75
317.214	76.46
317.428	111.27
317.641	70.31
317.855	-1.37
318.068	74.41
318.282	21.16
318.495	41.64
318.709	70.31
318.922	15.02
319.136	107.18
319.349	96.94
319.563	55.98
319.776	10.92
319.99	-7.51
320.203	-9.56
320.417	51.88
320.63	15.02
320.843	133.8
321.057	2.73
321.27	80.55
321.483	-23.89
321.697	60.07
321.91	-13.65
322.124	60.07
322.337	-23.89
322.55	72.36
322.763	12.97
322.977	-7.51
323.19	37.55
323.403	-21.84
323.617	35.5
323.83	31.4
324.043	31.4
324.256	19.11
324.469	10.92
324.683	10.92
324.896	62.12
325.109	-17.75
325.322	27.31
325.535	-5.46
325.748	51.88
325.962	70.31
326.175	6.83
326.388	55.98
326.601	27.31
326.814	39.59
327.027	62.12
327.24	31.4
327.453	2.73
327.666	70.31
327.879	72.36
328.092	17.07
328.305	-23.89
328.518	-40.28
328.731	-83.28
328.944	-23.89
329.157	-23.89
329.37	12.97
329.583	-1.37
329.796	23.21
330.009	-17.75
330.222	37.55
330.435	62.12
330.648	35.5
330.861	60.07
331.073	12.97
331.286	-25.94
331.499	-38.23
331.712	-7.51
331.925	49.83
332.138	66.22
332.35	15.02
332.563	31.4
332.776	12.97
332.989	-5.46
333.202	-1.37
333.414	43.69
333.627	21.16
333.84	-25.94
334.053	49.83
334.265	70.31
334.478	58.03
334.691	-52.56
334.903	80.55
335.116	6.83
335.329	45.74
335.541	86.7
335.754	17.07
335.966	-1.37
336.179	8.87
336.392	-9.56
336.604	64.17
336.817	23.21
337.029	49.83
337.242	8.87
337.454	-1.37
337.667	64.17
337.88	-42.32
338.092	8.87
338.305	49.83
338.517	45.74
338.729	66.22
338.942	-11.61
339.154	23.21
339.367	35.5
339.579	51.88
339.792	76.46
340.004	27.31
340.217	23.21
340.429	78.51
340.641	-44.37
340.854	-9.56
341.066	-1.37
341.278	17.07
341.491	92.84
341.703	51.88
341.915	47.79
342.128	15.02
342.34	72.36
342.552	-13.65
342.764	6.83
342.977	98.99
343.189	10.92
343.401	21.16
343.613	17.07
343.826	68.27
344.038	-17.75
344.25	62.12
344.462	31.4
344.674	129.7
344.886	-15.7
345.099	64.17
345.311	-11.61
345.523	19.11
345.735	-5.46
345.947	55.98
346.159	19.11
346.371	68.27
346.583	10.92
346.795	90.79
347.007	15.02
347.219	10.92
347.431	-36.18
347.643	6.83
347.855	-40.28
348.067	45.74
348.279	-19.8
348.491	-15.7
348.703	-11.61
348.915	90.79
349.127	-38.23
349.339	66.22
349.551	15.02
349.763	43.69
349.975	96.94
350.187	39.59
350.399	15.02
350.61	37.55
350.822	-3.41
351.034	39.59
351.246	-30.04
351.458	-17.75
351.669	82.6
351.881	45.74
352.093	137.9
352.305	64.17
352.517	47.79
352.728	27.31
352.94	86.7
353.152	45.74
353.363	98.99
353.575	23.21
353.787	45.74
353.999	37.55
354.21	96.94
354.422	105.13
354.633	55.98
354.845	10.92
355.057	15.02
355.268	43.69
355.48	55.98
355.692	17.07
355.903	37.55
356.115	0.68
356.326	-17.75
356.538	51.88
356.749	23.21
356.961	51.88
357.172	-34.13
357.384	-15.7
357.595	156.33
357.807	-1.37
358.018	29.35
358.23	-68.95
358.441	68.27
358.653	35.5
358.864	-11.61
359.075	-30.04
359.287	-73.04
359.498	-7.51
359.709	-54.61
359.921	39.59
360.132	8.87
360.344	-32.08
360.555	4.78
360.766	109.23
360.977	43.69
361.189	47.79
361.4	-50.52
361.611	15.02
361.823	55.98
362.034	15.02
362.245	-105.81
362.456	70.31
362.667	27.31
362.879	37.55
363.09	51.88
363.301	0.68
363.512	-1.37
363.723	35.5
363.935	6.83
364.146	58.03
364.357	-25.94
364.568	41.64
364.779	-1.37
364.99	35.5
365.201	70.31
365.412	144.04
365.623	47.79
365.834	31.4
366.045	70.31
366.256	-32.08
366.467	88.75
366.678	-42.32
366.889	10.92
367.1	-1.37
367.311	78.51
367.522	152.23
367.733	84.65
367.944	55.98
368.155	-58.71
368.366	43.69
368.577	-25.94
368.788	68.27
368.999	12.97
369.209	-36.18
369.42	47.79
369.631	45.74
369.842	29.35
370.053	64.17
370.264	31.4
370.474	72.36
370.685	82.6
370.896	0.68
371.107	17.07
371.317	82.6
371.528	12.97
371.739	-19.8
371.95	37.55
372.16	86.7
372.371	27.31
372.582	60.07
372.792	19.11
373.003	17.07
373.214	72.36
373.424	76.46
373.635	17.07
373.846	74.41
374.056	37.55
374.267	10.92
374.477	84.65
374.688	29.35
374.898	35.5
375.109	117.42
375.319	-1.37
375.53	31.4
375.74	-3.41
375.951	21.16
376.161	53.93
376.372	23.21
376.582	92.84
376.793	-11.61
377.003	-27.99
377.214	105.13
377.424	-21.84
377.635	51.88
377.845	64.17
378.055	60.07
378.266	105.13
378.476	12.97
378.686	68.27
378.897	45.74
379.107	12.97
379.317	49.83
379.528	17.07
379.738	84.65
379.948	-5.46
380.158	103.08
380.369	53.93
380.579	72.36
380.789	27.31
380.999	-21.84
381.21	55.98
381.42	41.64
381.63	33.45
381.84	8.87
382.05	62.12
382.261	51.88
382.471	4.78
382.681	23.21
382.891	82.6
383.101	113.32
383.311	2.73
383.521	4.78
383.731	58.03
383.941	82.6
384.151	27.31
384.361	53.93
384.571	45.74
384.781	-7.51
384.991	72.36
385.201	15.02
385.411	33.45
385.621	45.74
385.831	60.07
386.041	88.75
386.251	6.83
386.461	101.03
386.671	37.55
386.881	47.79
387.091	51.88
387.301	15.02
387.511	94.89
387.72	-1.37
387.93	45.74
388.14	-1.37
388.35	-21.84
388.56	45.74
388.769	-19.8
388.979	29.35
389.189	23.21
389.399	-5.46
389.609	74.41
389.818	94.89
390.028	62.12
390.238	70.31
390.447	19.11
390.657	111.27
390.867	51.88
391.076	66.22
391.286	58.03
391.496	21.16
391.705	35.5
391.915	23.21
392.125	53.93
392.334	84.65
392.544	58.03
392.753	15.02
392.963	60.07
393.172	47.79
393.382	4.78
393.591	76.46
393.801	41.64
394.01	74.41
394.22	80.55
394.429	17.07
394.639	111.27
394.848	90.79
395.058	74.41
395.267	76.46
395.477	160.42
395.686	86.7
395.895	125.61
396.105	51.88
396.314	62.12
396.524	117.42
396.733	51.88
396.942	129.7
397.152	88.75
397.361	72.36
397.57	31.4
397.78	90.79
397.989	109.23
398.198	70.31
398.407	37.55
398.617	64.17
398.826	107.18
399.035	168.62
399.244	103.08
399.453	66.22
399.663	111.27
399.872	70.31
400.081	127.66
400.29	141.99
400.499	86.7
400.708	80.55
400.917	86.7
401.127	96.94
401.336	62.12
401.545	178.86
401.754	84.65
401.963	125.61
402.172	115.37
402.381	146.09
402.59	111.27
402.799	137.9
403.008	131.75
403.217	96.94
403.426	121.51
403.635	10.92
403.844	39.59
404.053	127.66
404.262	101.03
404.471	180.9
404.68	150.18
404.888	174.76
405.097	125.61
405.306	137.9
405.515	174.76
405.724	158.38
405.933	203.43
406.142	176.81
406.35	129.7
406.559	195.24
406.768	162.47
406.977	158.38
407.185	137.9
407.394	166.57
407.603	217.77
407.812	178.86
408.02	309.93
408.229	203.43
408.438	268.97
408.646	244.39
408.855	172.71
409.064	262.82
409.272	209.58
409.481	268.97
409.69	316.07
409.898	252.58
410.107	303.78
410.315	311.97
410.524	299.69
410.733	334.5
410.941	324.26
411.15	297.64
411.358	234.15
411.567	346.79
411.775	406.18
411.984	393.89
412.192	367.27
412.401	416.42
412.609	467.62
412.818	486.05
413.026	449.19
413.234	553.63
413.443	449.19
413.651	578.21
413.86	576.16
414.068	602.79
414.276	621.22
414.485	588.45
414.693	664.22
414.901	678.56
415.11	653.98
415.318	727.71
415.526	694.94
415.734	723.62
415.943	766.62
416.151	752.29
416.359	715.42
416.567	905.88
416.776	901.79
416.984	965.28
417.192	852.64
417.4	909.98
417.608	973.47
417.817	1047.19
418.025	1036.95
418.233	1168.02
418.441	1032.86
418.649	1063.58
418.857	1151.64
419.065	1317.53
419.273	1323.67
419.481	1260.18
419.689	1391.25
419.897	1440.4
420.105	1407.64
420.313	1561.23
420.521	1501.84
420.729	1600.15
420.937	1565.33
421.145	1663.63
421.353	1776.27
421.561	1741.46
421.769	1850
421.977	1993.36
422.185	1931.92
422.393	2120.33
422.601	2245.26
422.809	2179.72
423.017	2144.91
423.224	2304.65
423.432	2417.29
423.64	2462.34
423.848	2546.31
424.056	2525.83
424.263	2767.49
424.471	2798.21
424.679	2769.54
424.887	3011.2
425.094	3134.07
425.302	3084.92
425.51	3205.75
425.718	3236.47
425.925	3193.47
426.133	3527.28
426.341	3453.56
426.548	3783.28
426.756	3789.42
426.964	3922.54
427.171	4051.56
427.379	4215.4
427.586	4160.11
427.794	4344.42
428.001	4485.73
428.209	4684.39
428.417	4577.89
428.624	4950.62
428.832	4924
429.039	4964.96
429.247	5053.02
429.454	5421.66
429.662	5612.12
429.869	5388.89
430.076	5816.91
430.284	5689.94
430.491	5925.46
430.699	6210.12
430.906	5978.7
431.114	6437.45
431.321	6462.02
431.528	6541.89
431.736	7064.13
431.943	7281.21
432.15	7043.65
432.358	7283.26
432.565	7567.93
432.772	7617.08
432.979	8036.91
433.187	8077.87
433.394	8235.56
433.601	8825.38
433.808	8722.98
434.016	8856.1
434.223	9060.9
434.43	9540.12
434.637	9421.34
434.844	10113.55
435.052	10209.81
435.259	10148.37
435.466	10279.44
435.673	10271.25
435.88	10760.71
436.087	11344.38
436.294	11280.89
436.501	11342.33
436.708	11344.38
436.915	11778.55
437.122	12284.4
437.329	12216.82
437.537	12745.19
437.743	12919.27
437.95	12628.46
438.157	13652.44
438.364	13775.32
438.571	13863.38
438.778	14062.04
438.985	15395.26
439.192	14559.69
439.399	14854.6
439.606	14594.51
439.813	15518.14
440.02	16689.58
440.227	16341.43
440.433	16064.95
440.64	16724.4
440.847	16589.23
441.054	16877.99
441.261	18252.18
441.467	18065.81
441.674	18137.49
441.881	18766.22
442.088	18999.69
442.294	18719.12
442.501	19313.03
442.708	19272.07
442.914	20322.68
443.121	21068.14
443.328	20449.65
443.534	22190.42
443.741	21621.09
443.948	20951.4
444.154	22616.4
444.361	22651.22
444.568	22708.56
444.774	22577.49
444.981	23128.39
445.187	23828.8
445.394	24705.33
445.6	24060.22
445.807	26747.15
446.013	25262.38
446.22	26059.04
446.426	26726.67
446.633	27242.76
446.839	28094.72
447.046	26808.59
447.252	27949.31
447.459	28680.44
447.665	28256.51
447.871	29579.5
448.078	30785.75
448.284	29309.16
448.491	30083.3
448.697	31027.41
448.903	31662.28
449.11	32168.13
449.316	31563.98
449.522	31774.92
449.728	32923.83
449.935	33265.84
450.141	33007.79
450.347	33966.24
450.553	32948.4
450.76	33188.02
450.966	34187.43
451.172	33968.29
451.378	34805.91
451.584	34228.38
451.791	34648.22
451.997	34746.52
452.203	35301.52
452.409	35418.25
452.615	35176.59
452.821	33546.41
453.027	33394.86
453.233	35006.61
453.44	33896.61
453.646	34392.22
453.852	34498.72
454.058	34924.69
454.264	33931.43
454.47	34621.59
454.676	33503.4
454.882	35010.71
455.088	31654.09
455.294	32176.32
455.5	33056.95
455.705	33116.34
455.911	31649.99
456.117	31191.25
456.323	30642.39
456.529	29413.61
456.735	30273.76
456.941	29389.03
457.147	29378.79
457.352	28037.37
457.558	27930.88
457.764	28117.25
457.97	27191.56
458.176	26814.74
458.381	26771.73
458.587	25151.79
458.793	25448.74
458.999	24135.99
459.204	25846.05
459.41	25342.25
459.616	23652.67
459.821	23699.78
460.027	23462.21
460.233	22683.98
460.438	21643.62
460.644	22327.64
460.85	21072.23
461.055	20427.12
461.261	20646.26
461.466	18946.44
461.672	18829.71
461.878	19951.99
462.083	18698.64
462.289	18289.04
462.494	17908.12
462.7	17418.66
462.905	16732.59
463.111	17396.13
463.316	17523.1
463.522	17068.45
463.727	17189.28
463.932	16982.44
464.138	16650.67
464.343	16828.84
464.549	16460.21
464.754	17213.86
464.959	16785.83
465.165	16777.64
465.37	16122.29
465.575	15307.2
465.781	16181.68
465.986	16478.64
466.191	15737.27
466.397	15325.63
466.602	14701
466.807	15227.33
467.012	15268.29
467.218	14973.38
467.423	15147.46
467.628	15006.15
467.833	15505.85
468.038	15086.02
468.244	14692.81
468.449	15251.91
468.654	14737.87
468.859	14717.39
469.064	14504.4
469.269	13924.82
469.474	14178.77
469.679	14154.19
469.885	13836.76
470.09	14107.09
470.295	13941.21
470.5	13715.93
470.705	13738.46
470.91	13466.08
471.115	13355.49
471.32	13658.59
471.525	13392.35
471.73	12945.89
471.935	12956.13
472.139	12724.71
472.344	12786.15
472.549	12585.45
472.754	12538.35
472.959	12247.54
473.164	11997.68
473.369	11940.34
473.574	12521.96
473.778	12075.51
473.983	12257.78
474.188	11921.91
474.393	11618.81
474.598	11414.01
474.802	11342.33
475.007	11424.25
475.212	11291.13
475.417	10889.73
475.621	11106.82
475.826	10955.27
476.031	10781.19
476.235	10695.18
476.44	10760.71
476.645	10523.15
476.849	10463.76
477.054	10426.89
477.259	10045.97
477.463	10232.33
477.668	9923.09
477.872	10164.75
478.077	9931.28
478.282	9710.1
478.486	9503.26
478.691	9566.74
478.895	9611.8
479.1	9540.12
479.304	9298.46
479.509	9013.79
479.713	9138.72
479.918	9177.63
480.122	8933.92
480.326	9386.52
480.531	9214.49
480.735	9130.53
480.94	9140.77
481.144	9409.05
481.348	8968.74
481.553	8938.02
481.757	8686.12
481.961	8899.11
482.166	9146.91
482.37	8833.57
482.574	8843.81
482.778	8788.52
482.983	8938.02
483.187	8802.85
483.391	8755.75
483.595	8718.89
483.8	8555.05
484.004	8649.25
484.208	8800.8
484.412	8872.48
484.616	8909.35
484.821	8890.92
485.025	8657.45
485.229	8997.41
485.433	8782.37
485.637	8632.87
485.841	8739.37
486.045	8673.83
486.249	8663.59
486.453	8686.12
486.657	8632.87
486.861	8673.83
487.065	8462.89
487.269	8794.66
487.473	8673.83
487.677	8778.28
487.881	8731.17
488.085	8796.71
488.289	8854.05
488.493	8737.32
488.697	8708.65
488.901	8874.53
489.105	8772.13
489.309	8903.2
489.512	8901.15
489.716	8852
489.92	8841.76
490.124	8806.95
490.328	8942.11
490.531	8757.8
490.735	8657.45
490.939	9085.47
491.143	9001.51
491.346	8841.76
491.55	9105.95
491.754	9267.74
491.958	8944.16
492.161	8995.36
492.365	9320.99
492.569	9204.25
492.772	9218.59
492.976	9398.81
493.18	9607.7
493.383	9441.82
493.587	9660.95
493.79	9542.17
493.994	9331.23
494.197	9617.94
494.401	9673.24
494.605	9703.96
494.808	9732.63
495.012	9794.07
495.215	9929.24
495.419	10119.7
495.622	10064.4
495.825	9992.72
496.029	10148.37
496.232	10549.77
496.436	10172.94
496.639	10619.4
496.843	10418.7
497.046	10768.9
497.249	10689.03
497.453	10734.09
497.656	10959.36
497.859	10867.2
498.063	10971.65
498.266	11244.03
498.469	11330.05
498.673	11241.98
498.876	11598.33
499.079	11545.08
499.282	11635.19
499.485	12143.09
499.689	11778.55
499.892	12190.19
500.095	12218.86
500.298	12468.72
500.501	12569.07
500.705	12802.54
500.908	12900.84
501.111	12941.8
501.314	13232.61
501.517	13122.02
501.72	13472.22
501.923	13281.76
502.126	13640.15
502.329	13728.22
502.532	14096.85
502.735	14008.79
502.938	14416.33
503.141	14158.29
503.344	14557.64
503.547	14395.85
503.75	14627.28
503.953	14887.37
504.156	15266.24
504.359	15126.98
504.562	15223.23
504.765	15753.66
504.968	15845.82
505.17	15903.16
505.373	15976.89
505.576	16112.05
505.779	16275.89
505.982	16378.29
506.185	16882.09
506.387	16912.81
506.59	16681.39
506.793	17342.88
506.996	17101.22
507.198	17412.51
507.401	17541.53
507.604	17805.72
507.807	18207.12
508.009	18092.44
508.212	18413.97
508.415	18858.38
508.617	18604.43
508.82	19145.09
509.022	18882.95
509.225	19462.53
509.428	19497.35
509.63	19577.22
509.833	19691.9
510.035	19984.76
510.238	19982.71
510.44	20420.98
510.643	20711.79
510.845	20756.85
511.048	20486.51
511.25	21002.6
511.453	20961.64
511.655	21934.43
511.858	21668.19
512.06	21692.77
512.262	22032.73
512.465	21856.61
512.667	22249.82
512.87	22292.82
513.072	22823.25
513.274	23234.89
513.477	23255.37
513.679	23333.19
513.881	23445.83
514.084	23945.53
514.286	23814.46
514.488	23783.74
514.69	24455.48
514.893	24570.16
515.095	24836.4
515.297	25102.64
515.499	24736.05
515.701	24793.39
515.904	25485.61
516.106	25958.69
516.308	25819.42
516.51	26339.61
516.712	26386.71
516.914	26255.64
517.116	26949.9
517.318	26689.81
517.52	27195.66
517.722	27128.08
517.925	27449.61
518.127	27701.51
518.329	27984.13
518.531	28020.99
518.733	28270.84
518.935	28831.99
519.136	28532.98
519.338	28819.7
519.54	28846.32
519.742	29262.06
519.944	29147.37
520.146	29716.71
520.348	29901.03
520.55	29944.03
520.752	29999.33
520.954	30583
521.155	30216.41
521.357	30755.03
521.559	31138
521.761	31193.29
521.963	31408.33
522.164	31283.41
522.366	31731.91
522.568	31944.9
522.77	32227.52
522.971	32651.45
523.173	32026.82
523.375	32540.86
523.576	32559.29
523.778	32665.78
523.98	33097.91
524.181	33374.38
524.383	33212.59
524.584	33511.6
524.786	33505.45
524.988	33530.03
525.189	34025.64
525.391	34101.41
525.592	34461.85
525.794	33982.63
525.995	34375.84
526.197	34238.62
526.398	34130.08
526.6	34582.68
526.801	34668.7
527.003	35111.06
527.204	34920.6
527.406	35248.27
527.607	35182.74
527.808	35717.26
528.01	34908.31
528.211	35528.84
528.412	36137.09
528.614	35889.29
528.815	35635.34
529.016	36243.59
529.218	35541.13
529.419	35793.03
529.62	35858.57
529.822	35733.64
530.023	36040.84
530.224	35829.9
530.425	36167.81
530.626	35866.76
530.828	35956.87
531.029	36941.94
531.23	36133
531.431	36196.48
531.632	36106.37
531.833	36534.4
532.035	36745.34
532.236	36417.66
532.437	36769.91
532.638	36204.67
532.839	36487.29
533.04	37247.09
533.241	35827.85
533.442	37195.89
533.643	36380.8
533.844	36311.17
534.045	36905.08
534.246	36364.42
534.447	37015.67
534.648	36522.11
534.849	36753.53
535.05	36561.02
535.251	36710.52
535.451	36827.26
535.652	37007.48
535.853	37185.65
536.054	37066.87
536.255	36847.74
536.456	36540.54
536.657	36913.27
536.857	36808.83
537.058	36515.97
537.259	37322.87
537.46	36812.92
537.66	36370.56
537.861	36710.52
538.062	36692.09
538.263	36802.68
538.463	36585.6
538.664	36835.45
538.865	36774.01
539.065	37140.6
539.266	36472.96
539.466	37050.49
539.667	36421.76
539.868	37013.62
540.068	36436.09
540.269	36687.99
540.469	36978.81
540.67	36888.7
540.87	36597.88
541.071	36544.64
541.271	36817.02
541.472	36610.17
541.672	36126.85
541.873	36393.09
542.073	35942.53
542.274	36941.94
542.474	36425.85
542.675	36085.89
542.875	36757.63
543.075	36470.91
543.276	36229.25
543.476	36823.16
543.676	36122.76
543.877	36794.49
544.077	36585.6
544.277	36388.99
544.478	36348.03
544.678	36642.94
544.878	36243.59
545.078	36325.5
545.279	36386.94
545.479	36348.03
545.679	36327.55
545.879	35922.05
546.079	36737.15
546.28	36309.12
546.48	36212.87
546.68	36239.49
546.88	36053.12
547.08	36190.34
547.28	36257.92
547.48	35762.31
547.68	36606.08
547.88	35635.34
548.081	36079.75
548.281	36208.77
548.481	36001.93
548.681	36104.32
548.881	36141.19
549.081	36116.61
549.28	36034.69
549.48	35999.88
549.68	35891.33
549.88	35887.24
550.08	35612.81
550.28	36151.43
550.48	36042.88
550.68	36219.01
550.88	35825.8
551.08	35811.46
551.279	35717.26
551.479	35612.81
551.679	36153.47
551.879	35991.69
552.079	35967.11
552.278	35833.99
552.478	36108.42
552.678	35668.11
552.878	35680.39
553.077	35782.79
553.277	35405.97
553.477	35743.88
553.676	36087.94
553.876	35782.79
554.076	35661.96
554.275	35625.1
554.475	34973.85
554.674	35754.12
554.874	35739.79
555.074	35405.97
555.273	35416.21
555.473	35637.39
555.672	35147.92
555.872	35262.61
556.071	35123.35
556.271	35762.31
556.47	35422.35
556.67	34824.34
556.869	35303.57
557.068	35248.27
557.268	34979.99
557.467	35344.53
557.667	34764.95
557.866	35119.25
558.065	34959.51
558.265	34752.66
558.464	34934.93
558.663	35397.77
558.863	34881.69
559.062	35250.32
559.261	34656.41
559.461	34971.8
559.66	34275.49
559.859	34850.97
560.058	34386.08
560.258	34771.1
560.457	34193.57
560.656	34623.64
560.855	34236.58
561.054	34523.29
561.253	34089.12
561.453	34052.26
561.652	34250.91
561.851	34347.17
562.05	34152.61
562.249	34019.49
562.448	34177.19
562.647	34234.53
562.846	34044.07
563.045	34050.21
563.244	33632.43
563.443	34353.31
563.642	33575.08
563.841	33595.56
564.04	33564.84
564.239	33999.01
564.438	33415.34
564.637	33779.88
564.836	33681.58
565.035	32966.84
565.234	33409.2
565.432	33579.18
565.631	33300.65
565.83	33312.94
566.029	33179.82
566.228	33013.94
566.427	32864.44
566.625	32641.21
566.824	32774.33
567.023	32850.1
567.222	32618.68
567.42	33171.63
567.619	33054.9
567.818	32426.17
568.016	32690.36
568.215	32829.62
568.414	32714.94
568.612	32716.98
568.811	32252.09
569.01	32553.15
569.208	32035.01
569.407	32514.23
569.605	32028.87
569.804	32420.03
570.002	31758.53
570.201	32248
570.4	32245.95
570.598	31883.46
570.797	31535.31
570.995	31674.57
571.193	31537.35
571.392	32235.71
571.59	31477.96
571.789	31414.48
571.987	31451.34
572.186	31256.78
572.384	31037.65
572.582	31510.73
572.781	31457.48
572.979	30656.73
573.177	31123.66
573.376	31072.46
573.574	31230.16
573.772	31234.25
573.971	30394.59
574.169	30509.27
574.367	30511.32
574.565	30605.53
574.763	30484.7
574.962	30648.53
575.16	30097.63
575.358	30480.6
575.556	29905.12
575.754	30554.33
575.952	29874.4
576.151	30279.9
576.349	29888.74
576.547	29921.51
576.745	30433.5
576.943	30128.35
577.141	29812.96
577.339	29862.11
577.537	29679.85
577.735	29362.41
577.933	29196.53
578.131	29524.2
578.329	29325.55
578.527	29505.77
578.725	29307.12
578.923	29448.43
579.121	29315.31
579.319	29225.2
579.516	29130.99
579.714	29141.23
579.912	29018.35
580.11	28991.73
580.308	28993.78
580.506	28573.94
580.704	28471.54
580.901	28438.78
581.099	28725.49
581.297	28713.2
581.495	28522.74
581.692	28686.58
581.89	28123.39
582.088	28315.9
582.285	28264.7
582.483	28598.52
582.681	28264.7
582.878	28145.92
583.076	27963.65
583.274	28086.53
583.471	27810.05
583.669	27732.23
583.866	27707.65
584.064	27889.92
584.262	27334.92
584.459	27517.19
584.657	27289.87
584.854	27320.59
585.052	27033.87
585.249	27320.59
585.447	27259.15
585.644	26628.37
585.841	26988.81
586.039	27533.57
586.236	26673.43
586.434	26577.17
586.631	26495.25
586.828	26704.15
587.026	26622.23
587.223	26573.08
587.42	26253.59
587.618	26591.51
587.815	26233.11
588.012	26069.28
588.21	26054.94
588.407	26233.11
588.604	25635.11
588.801	25954.59
588.999	25854.24
589.196	25790.75
589.393	25944.35
589.59	25639.2
589.787	25413.93
589.984	25852.19
590.182	25317.67
590.379	25448.74
590.576	24965.42
590.773	25360.68
590.97	25139.5
591.167	24957.23
591.364	24836.4
591.561	25149.74
591.758	24764.72
591.955	24863.02
592.152	25221.42
592.349	24813.87
592.546	24953.13
592.743	24697.14
592.94	24228.15
593.137	24650.03
593.334	24301.88
593.531	24017.21
593.727	24473.91
593.924	24158.52
594.121	24054.08
594.318	24553.78
594.515	23929.15
594.712	24330.55
594.908	23664.96
595.105	23757.12
595.302	23585.09
595.499	23454.02
595.696	23462.21
595.892	23650.63
596.089	23705.92
596.286	23763.26
596.482	23398.73
596.679	22980.94
596.876	23355.72
597.072	23435.59
597.269	23173.45
597.466	23019.85
597.662	23026
597.859	23093.58
598.055	23019.85
598.252	22724.94
598.448	22597.97
598.645	22657.36
598.841	22471
599.038	22483.28
599.234	22518.1
599.431	22335.83
599.627	22395.22
599.824	22464.85
600.02	22126.94
600.217	22184.28
600.413	22178.14
600.609	22260.05
600.806	21858.65
601.002	22006.11
601.198	21670.24
601.395	21590.37
601.591	21711.2
601.787	21309.8
601.984	21361
602.18	21629.28
602.376	21365.09
602.572	21211.49
602.769	21467.49
602.965	21389.67
603.161	21301.61
603.357	20795.76
603.553	20904.3
603.75	20883.82
603.946	20711.79
604.142	20834.67
604.338	20574.58
604.534	20797.81
604.73	20257.14
604.926	20408.69
605.122	20556.14
605.318	20334.96
605.514	20441.46
605.71	20203.89
605.906	20324.72
606.102	20363.64
606.298	20468.08
606.494	20154.74
606.69	20222.33
606.886	20234.61
607.082	19921.27
607.278	20214.13
607.474	19663.23
607.67	19935.61
607.866	19808.64
608.062	19724.67
608.257	19769.72
608.453	19720.57
608.649	19992.95
608.845	19544.45
609.041	19452.29
609.236	19868.03
609.432	19075.46
609.628	19579.26
609.824	19487.11
610.019	19593.6
610.215	19569.02
610.411	19503.49
610.606	19151.24
610.802	19413.38
610.998	19057.03
611.193	19272.07
611.389	19014.02
611.584	19044.74
611.78	18829.71
611.976	19128.71
612.171	19253.64
612.367	18950.54
612.562	18934.15
612.758	18831.76
612.953	18770.32
613.149	18868.62
613.344	18637.2
613.539	18870.67
613.735	18629.01
613.93	18608.53
614.126	18639.25
614.321	18743.69
614.517	18442.64
614.712	18895.24
614.907	18332.05
615.103	18778.51
615.298	18164.12
615.493	18606.48
615.688	18137.49
615.884	18655.63
616.079	18405.78
616.274	18393.49
616.47	18258.32
616.665	18332.05
616.86	18157.97
617.055	18104.73
617.25	18145.69
617.445	18231.7
617.641	18043.29
617.836	18088.34
618.031	17781.15
618.226	17881.5
618.421	17625.5
618.616	17934.74
618.811	17531.3
619.006	17938.84
619.201	17396.13
619.396	17660.32
619.591	17269.16
619.786	17217.96
619.981	16992.68
620.176	17488.29
620.371	16961.96
620.566	17260.96
620.761	17050.02
620.956	16972.2
621.151	16751.02
621.346	17140.13
621.541	16673.2
621.735	16644.52
621.93	16603.57
622.125	16538.03
622.32	16458.16
622.515	16376.24
622.709	16345.52
622.904	16191.92
623.099	16062.9
623.294	16249.27
623.488	15935.93
623.683	16177.59
623.878	15747.51
624.072	15739.32
624.267	15514.05
624.462	15710.65
624.656	15419.84
624.851	15536.57
625.046	15397.31
625.24	15317.44
625.435	15190.47
625.629	15169.99
625.824	14985.67
626.018	15071.68
626.213	14787.02
626.407	14993.86
626.602	14447.05
626.796	14684.62
626.991	14617.04
627.185	14707.15
627.38	14293.46
627.574	14414.29
627.768	14256.59
627.963	14150.1
628.157	14156.24
628.352	13998.55
628.546	13801.94
628.74	13969.88
628.935	13756.89
629.129	13795.8
629.323	13756.89
629.517	13408.73
629.712	13789.66
629.906	13199.84
630.1	13130.21
630.294	13212.13
630.489	13322.72
630.683	13298.14
630.877	12964.32
631.071	13087.2
631.265	12986.85
631.459	12843.49
631.653	12796.39
631.848	12640.75
632.042	12880.36
632.236	12718.57
632.43	12483.05
632.624	12605.93
632.818	12388.85
633.012	12329.45
633.206	12339.69
633.4	12423.66
633.594	12249.58
633.788	12325.36
633.982	12114.42
634.176	11979.25
634.369	11979.25
634.563	11725.3
634.757	11956.72
634.951	11848.18
635.145	11837.94
635.339	11696.63
635.533	11602.43
635.726	11459.07
635.92	11244.03
636.114	11596.28
636.308	11362.81
636.501	11348.48
636.695	11354.62
636.889	11104.77
637.083	11141.63
637.276	11016.71
637.47	11072
637.664	10949.12
637.857	10893.83
638.051	10887.68
638.244	10609.16
638.438	10783.24
638.632	10598.92
638.825	10496.52
639.019	10486.28
639.212	10375.69
639.406	10359.31
639.599	10246.67
639.793	10205.71
639.986	10125.84
640.18	10488.33
640.373	10166.8
640.567	10086.93
640.76	9962
640.954	10017.3
641.147	9953.81
641.34	9714.2
641.534	9998.87
641.727	9775.64
641.92	9712.15
642.114	9552.41
642.307	9585.18
642.5	9525.79
642.694	9482.78
642.887	9460.25
643.08	9548.31
643.273	9353.76
643.467	9570.84
643.66	9411.1
643.853	9177.63
644.046	9079.33
644.239	9245.21
644.432	9151.01
644.626	8915.49
644.819	8952.35
645.012	9009.7
645.205	8880.68
645.398	8845.86
645.591	8737.32
645.784	8849.96
645.977	8794.66
646.17	8743.46
646.363	8622.63
646.556	8585.77
646.749	8546.86
646.942	8647.21
647.135	8507.94
647.328	8477.23
647.521	8634.92
647.714	8346.16
647.907	8397.35
648.099	8198.7
648.292	8155.69
648.485	8258.09
648.678	8204.85
648.871	8196.65
649.064	8088.11
649.256	8096.3
649.449	7832.12
649.642	7680.57
649.835	7780.92
650.027	7852.59
650.22	7737.91
650.413	7877.17
650.605	7772.72
650.798	7625.27
650.991	7682.61
651.183	7647.8
651.376	7551.54
651.568	7678.52
651.761	7481.91
651.954	7451.19
652.146	7508.54
652.339	7477.82
652.531	7395.9
652.724	7234.11
652.916	7205.44
653.109	7332.41
653.301	7203.39
653.494	7363.13
653.686	7270.97
653.879	7242.3
654.071	7037.5
654.263	6984.26
654.456	7035.46
654.648	7060.03
654.84	6857.28
655.033	6771.27
655.225	6738.5
655.417	6961.73
655.61	6767.17
655.802	6748.74
655.994	6804.03
656.186	6672.96
656.379	6646.34
656.571	6703.68
656.763	6535.75
656.955	6533.7
657.148	6488.65
657.34	6556.23
657.532	6435.4
657.724	6396.49
657.916	6527.56
658.108	6324.81
658.3	6396.49
658.492	6431.3
658.684	6277.71
658.876	6152.78
659.068	6224.46
659.26	6089.29
659.452	6222.41
659.644	5999.18
659.836	5827.15
660.028	6056.53
660.22	5923.41
660.412	5851.73
660.604	5747.28
660.796	5902.93
660.988	5921.36
661.18	5741.14
661.372	5648.98
661.563	5841.49
661.755	5761.62
661.947	5939.79
662.139	5583.45
662.331	5651.03
662.522	5632.6
662.714	5601.88
662.906	5614.16
663.097	5405.27
663.289	5530.2
663.481	5442.14
663.673	5569.11
663.864	5485.14
664.056	5403.22
664.247	5417.56
664.439	5282.39
664.631	5311.07
664.822	5323.35
665.014	5343.83
665.205	5159.52
665.397	5304.92
665.588	5296.73
665.78	5069.41
665.971	5100.12
666.163	5026.4
666.354	5143.13
666.546	5085.79
666.737	4917.86
666.929	4975.2
667.12	5110.36
667.311	4897.38
667.503	5073.5
667.694	4969.05
667.885	4868.7
668.077	4797.03
668.268	4852.32
668.459	4919.9
668.651	4844.13
668.842	4711.01
669.033	4786.79
669.224	4641.38
669.416	4831.84
669.607	4756.07
669.798	4829.79
669.989	4762.21
670.18	4549.22
670.371	4739.68
670.563	4588.13
670.754	4569.7
670.945	4606.56
671.136	4561.51
671.327	4561.51
671.518	4481.64
671.709	4612.71
671.9	4500.07
672.091	4532.84
672.282	4549.22
672.473	4455.01
672.664	4420.2
672.855	4414.06
673.046	4526.69
673.237	4434.53
673.428	4457.06
673.619	4309.61
673.809	4409.96
674	4379.24
674.191	4403.82
674.382	4250.22
674.573	4205.16
674.764	4172.39
674.954	4170.35
675.145	4174.44
675.336	4078.19
675.527	4233.83
675.717	4158.06
675.908	4051.56
676.099	4235.88
676.289	4166.25
676.48	4084.33
676.671	4078.19
676.861	4026.99
677.052	4090.48
677.243	4043.37
677.433	3992.17
677.624	4121.2
677.814	3947.12
678.005	4123.24
678.195	4020.85
678.386	4051.56
678.576	3955.31
678.767	3996.27
678.957	3949.17
679.148	3981.93
679.338	4090.48
679.529	3955.31
679.719	3992.17
679.909	4002.41
680.1	3877.49
680.29	3949.17
680.481	3965.55
680.671	3897.97
680.861	3871.34
681.052	3875.44
681.242	3938.93
681.432	3797.62
681.622	3832.43
681.813	3746.42
682.003	3867.25
682.193	3807.86
682.383	3889.78
682.573	3770.99
682.764	3670.64
682.954	3811.95
683.144	3783.28
683.334	3723.89
683.524	3748.47
683.714	3725.94
683.904	3793.52
684.094	3699.31
684.284	3660.4
684.474	3725.94
684.664	3654.26
684.854	3594.87
685.044	3682.93
685.234	3687.03
685.424	3672.69
685.614	3529.33
685.804	3580.53
685.994	3609.2
686.184	3533.43
686.374	3631.73
686.564	3539.57
686.753	3711.6
686.943	3457.65
687.133	3441.27
687.323	3424.89
687.513	3381.88
687.702	3515
687.892	3373.69
688.082	3488.37
688.272	3367.54
688.461	3259
688.651	3400.31
688.841	3263.1
689.03	3261.05
689.22	3361.4
689.41	3256.95
689.599	3330.68
689.789	3246.71
689.979	3240.57
690.168	3357.3
690.358	3144.31
690.547	3265.14
690.737	3084.92
690.926	3074.68
691.116	3078.78
691.305	3095.16
691.495	3103.36
691.684	3078.78
691.874	3033.72
692.063	2978.43
692.252	3046.01
692.442	3058.3
692.631	2968.19
692.82	2962.05
693.01	2970.24
693.199	2890.37
693.388	2830.98
693.578	2953.85
693.767	2937.47
693.956	2890.37
694.146	2880.13
694.335	2732.67
694.524	2843.26
694.713	2857.6
694.902	2767.49
695.092	2790.02
695.281	2714.24
695.47	2865.79
695.659	2798.21
695.848	2681.47
696.037	2687.62
696.226	2628.23
696.415	2587.27
696.604	2794.11
696.793	2689.67
696.982	2558.6
697.171	2763.39
697.36	2632.32
697.549	2644.61
697.738	2577.03
697.927	2599.55
698.116	2542.21
698.305	2519.68
698.494	2552.45
698.683	2577.03
698.872	2523.78
699.061	2519.68
699.25	2470.53
699.438	2476.68
699.627	2462.34
699.816	2351.75
700.005	2513.54
700.193	2448.01
700.382	2437.77
700.571	2448.01
700.76	2445.96
700.948	2572.93
701.137	2519.68
701.326	2421.38
701.514	2431.62
701.703	2308.74
701.892	2482.82
702.08	2456.2
702.269	2384.52
702.457	2267.78
702.646	2439.81
702.834	2333.32
703.023	2288.26
703.212	2308.74
703.4	2392.71
703.589	2341.51
703.777	2284.17
703.965	2265.74
704.154	2402.95
704.342	2413.19
704.531	2411.14
704.719	2327.18
704.907	2400.9
705.096	2284.17
705.284	2298.5
705.472	2417.29
705.661	2321.03
705.849	2337.41
706.037	2259.59
706.226	2267.78
706.414	2427.53
706.602	2269.83
706.79	2288.26
706.979	2300.55
707.167	2327.18
707.355	2230.92
707.543	2364.04
707.731	2265.74
707.919	2175.63
708.107	2269.83
708.296	2208.39
708.484	2155.15
708.672	2216.58
708.86	2265.74
709.048	2304.65
709.236	2292.36
709.424	2194.06
709.612	2278.02
709.8	2257.54
709.988	2249.35
710.176	2255.5
710.364	2296.46
710.551	2251.4
710.739	2185.87
710.927	2390.66
711.115	2261.64
711.303	2269.83
711.491	2290.31
711.679	2224.78
711.866	2316.94
712.054	2169.48
712.242	2259.59
712.43	2345.61
712.617	2253.45
712.805	2280.07
712.993	2376.33
713.181	2316.94
713.368	2396.81
713.556	2259.59
713.744	2257.54
713.931	2386.57
714.119	2357.89
714.306	2226.82
714.494	2196.11
714.682	2374.28
714.869	2235.02
715.057	2243.21
715.244	2318.98
715.432	2407.05
715.619	2331.27
715.807	2329.22
715.994	2325.13
716.182	2339.46
716.369	2384.52
716.556	2353.8
716.744	2368.13
716.931	2359.94
717.119	2425.48
717.306	2243.21
717.493	2263.69
717.681	2368.13
717.868	2304.65
718.055	2419.33
718.242	2251.4
718.43	2351.75
718.617	2292.36
718.804	2372.23
718.991	2300.55
719.179	2390.66
719.366	2288.26
719.553	2448.01
719.74	2310.79
719.927	2370.18
720.114	2435.72
720.301	2290.31
720.488	2269.83
720.676	2302.6
720.863	2497.16
721.05	2441.86
721.237	2349.7
721.424	2452.1
721.611	2394.76
721.798	2388.61
721.985	2382.47
722.172	2458.25
722.358	2355.85
722.545	2437.77
722.732	2341.51
722.919	2433.67
723.106	2308.74
723.293	2409.09
723.48	2384.52
723.667	2316.94
723.853	2427.53
724.04	2472.58
724.227	2499.2
724.414	2392.71
724.6	2386.57
724.787	2433.67
724.974	2333.32
725.161	2415.24
725.347	2355.85
725.534	2464.39
725.72	2611.84
725.907	2538.12
726.094	2448.01
726.28	2517.64
726.467	2384.52
726.653	2464.39
726.84	2413.19
727.027	2521.73
727.213	2515.59
727.4	2456.2
727.586	2417.29
727.773	2513.54
727.959	2488.96
728.145	2536.07
728.332	2536.07
728.518	2427.53
728.705	2572.93
728.891	2527.88
729.077	2300.55
729.264	2435.72
729.45	2499.2
729.636	2529.92
729.823	2542.21
730.009	2529.92
730.195	2472.58
730.382	2374.28
730.568	2413.19
730.754	2581.12
730.94	2499.2
731.126	2642.56
731.313	2427.53
731.499	2554.5
731.685	2488.96
731.871	2431.62
732.057	2495.11
732.243	2405
732.429	2613.89
732.615	2472.58
732.801	2480.77
732.987	2488.96
733.173	2538.12
733.359	2503.3
733.545	2509.44
733.731	2640.51
733.917	2550.4
734.103	2478.72
734.289	2568.84
734.475	2509.44
734.661	2405
734.847	2491.01
735.033	2484.87
735.219	2587.27
735.404	2503.3
735.59	2470.53
735.776	2529.92
735.962	2472.58
736.148	2542.21
736.333	2529.92
736.519	2460.29
736.705	2390.66
736.89	2452.1
737.076	2562.69
737.262	2443.91
737.447	2544.26
737.633	2458.25
737.819	2374.28
738.004	2452.1
738.19	2349.7
738.375	2476.68
738.561	2486.92
738.747	2409.09
738.932	2448.01
739.118	2419.33
739.303	2411.14
739.489	2429.57
739.674	2480.77
739.859	2382.47
740.045	2441.86
740.23	2415.24
740.416	2400.9
740.601	2544.26
740.786	2409.09
740.972	2310.79
741.157	2390.66
741.342	2361.99
741.528	2427.53
741.713	2339.46
741.898	2341.51
742.084	2349.7
742.269	2306.7
742.454	2366.09
742.639	2359.94
742.824	2357.89
743.01	2267.78
743.195	2300.55
743.38	2376.33
743.565	2448.01
743.75	2327.18
743.935	2304.65
744.12	2265.74
744.305	2198.15
744.49	2386.57
744.675	2239.11
744.86	2124.43
745.045	2167.43
745.23	2189.96
745.415	2251.4
745.6	2200.2
745.785	2273.93
745.97	2128.52
746.155	2165.39
746.34	2077.32
746.525	2169.48
746.71	2202.25
746.895	2056.84
747.079	2116.23
747.264	2095.75
747.449	2136.71
747.634	2146.95
747.819	2083.47
748.003	1964.68
748.188	2075.28
748.373	1956.49
748.557	1940.11
748.742	1948.3
748.927	1985.16
749.111	2022.03
749.296	1915.53
749.481	1966.73
749.665	1936.01
749.85	1936.01
750.034	1923.73
750.219	1923.73
750.404	1903.25
750.588	1960.59
750.773	1802.9
750.957	1786.51
751.141	1829.52
751.326	1813.14
751.51	1901.2
751.695	1770.13
751.879	1815.18
752.064	1890.96
752.248	1778.32
752.432	1817.23
752.617	1731.22
752.801	1776.27
752.985	1661.59
753.17	1729.17
753.354	1759.89
753.538	1680.02
753.722	1561.23
753.907	1692.3
754.091	1686.16
754.275	1667.73
754.459	1598.1
754.643	1501.84
754.828	1618.58
755.012	1594
755.196	1600.15
755.38	1546.9
755.564	1440.4
755.748	1729.17
755.932	1536.66
756.116	1471.12
756.3	1561.23
756.484	1438.36
756.668	1391.25
756.852	1497.75
757.036	1550.99
757.22	1331.86
757.404	1452.69
757.588	1415.83
757.772	1419.93
757.956	1354.39
758.14	1444.5
758.323	1387.16
758.507	1378.97
758.691	1368.73
758.875	1317.53
759.059	1430.16
759.242	1333.91
759.426	1342.1
759.61	1321.62
759.794	1288.86
759.977	1348.25
760.161	1254.04
760.345	1223.32
760.528	1307.29
760.712	1399.45
760.895	1378.97
761.079	1344.15
761.263	1239.7
761.446	1301.14
761.63	1325.72
761.813	1376.92
761.997	1235.61
762.18	1217.18
762.364	1243.8
762.547	1251.99
762.731	1264.28
762.914	1223.32
763.098	1170.07
763.281	1233.56
763.464	1067.67
763.648	1149.59
763.831	1186.46
764.015	1063.58
764.198	1194.65
764.381	1196.7
764.564	1141.4
764.748	1157.78
764.931	1225.37
765.114	1102.49
765.297	1198.74
765.481	1149.59
765.664	1057.43
765.847	1137.31
766.03	1153.69
766.213	1112.73
766.397	1170.07
766.58	1125.02
766.763	1143.45
766.946	1075.87
767.129	1129.11
767.312	1030.81
767.495	1036.95
767.678	1041.05
767.861	1133.21
768.044	965.28
768.227	1088.15
768.41	1043.1
768.593	1065.63
768.776	1014.43
768.959	985.76
769.142	1049.24
769.324	965.28
769.507	1067.67
769.69	1002.14
769.873	883.36
770.056	1012.38
770.239	1022.62
770.421	1051.29
770.604	987.8
770.787	1008.28
770.97	1006.24
771.152	1043.1
771.335	1028.76
771.518	899.74
771.7	924.32
771.883	983.71
772.066	866.97
772.248	842.4
772.431	848.54
772.613	893.6
772.796	932.51
772.978	1014.43
773.161	887.45
773.343	916.12
773.526	875.17
773.708	842.4
773.891	916.12
774.073	848.54
774.256	848.54
774.438	821.92
774.621	889.5
774.803	860.83
774.985	758.43
775.168	832.16
775.35	760.48
775.532	752.29
775.715	801.44
775.897	826.01
776.079	774.81
776.261	750.24
776.444	842.4
776.626	752.29
776.808	719.52
776.99	834.21
777.173	799.39
777.355	707.23
777.537	727.71
777.719	762.53
777.901	811.68
778.083	744.1
778.265	748.19
778.447	840.35
778.629	699.04
778.811	709.28
778.993	735.9
779.175	737.95
779.357	664.22
779.539	567.97
779.721	785.05
779.903	666.27
780.085	656.03
780.267	617.12
780.449	703.14
780.631	631.46
780.812	674.46
780.994	660.13
781.176	662.18
781.358	586.4
781.54	576.16
781.721	686.75
781.903	643.74
782.085	623.27
782.267	588.45
782.448	539.3
782.63	656.03
782.812	613.03
782.993	541.35
783.175	553.63
783.357	553.63
783.538	522.91
783.72	604.83
783.901	500.39
784.083	496.29
784.264	572.07
784.446	592.55
784.627	574.11
784.809	567.97
784.99	531.11
785.172	580.26
785.353	537.25
785.535	508.58
785.716	547.49
785.897	490.15
786.079	543.39
786.26	506.53
786.441	451.24
786.623	447.14
786.804	524.96
786.985	488.1
787.167	488.1
787.348	453.28
787.529	471.72
787.71	488.1
787.891	453.28
788.073	441
788.254	443.04
788.435	518.82
788.616	447.14
788.797	459.43
788.978	498.34
789.159	369.32
789.34	533.15
789.522	465.57
789.703	379.56
789.884	393.89
790.065	418.47
790.246	465.57
790.427	430.76
790.607	486.05
790.788	354.98
790.969	400.04
791.15	430.76
791.331	359.08
791.512	377.51
791.693	367.27
791.874	359.08
792.054	365.22
792.235	391.84
792.416	354.98
792.597	346.79
792.778	336.55
792.958	426.66
793.139	387.75
793.32	385.7
793.5	309.93
793.681	350.89
793.862	350.89
794.042	354.98
794.223	291.49
794.404	359.08
794.584	318.12
794.765	318.12
794.945	332.45
795.126	314.02
795.306	367.27
795.487	320.17
795.667	301.73
795.848	287.4
796.028	285.35
796.209	365.22
796.389	242.34
796.57	268.97
796.75	252.58
796.93	359.08
797.111	271.01
797.291	334.5
797.471	350.89
797.652	328.36
797.832	299.69
798.012	281.25
798.192	303.78
798.373	371.37
798.553	295.59
798.733	318.12
798.913	258.73
799.093	309.93
799.274	273.06
799.454	354.98
799.634	314.02
799.814	258.73
799.994	258.73
800.174	234.15
800.354	322.21
800.534	236.2
800.714	285.35
800.894	334.5
801.074	238.25
801.254	293.54
801.434	316.07
801.614	240.3
801.794	268.97
801.974	531.11
802.154	268.97
802.334	185
802.514	279.21
802.693	309.93
802.873	207.53
803.053	309.93
803.233	295.59
803.413	357.03
803.592	221.86
803.772	236.2
803.952	258.73
804.131	258.73
804.311	178.86
804.491	256.68
804.67	273.06
804.85	213.67
805.03	203.43
805.209	223.91
805.389	174.76
805.568	146.09
805.748	160.42
805.928	203.43
806.107	254.63
806.287	232.1
806.466	232.1
806.646	254.63
806.825	187.05
807.004	219.82
807.184	234.15
807.363	164.52
807.543	215.72
807.722	144.04
807.901	172.71
808.081	244.39
808.26	94.89
808.439	182.95
808.619	185
808.798	162.47
808.977	201.38
809.156	203.43
809.336	158.38
809.515	236.2
809.694	170.66
809.873	162.47
810.052	193.19
810.231	135.85
810.411	219.82
810.59	187.05
810.769	187.05
810.948	238.25
811.127	88.75
811.306	123.56
811.485	154.28
811.664	266.92
811.843	123.56
812.022	185
812.201	219.82
812.38	96.94
812.559	217.77
812.737	187.05
812.916	207.53
813.095	215.72
813.274	199.34
813.453	152.23
813.632	152.23
813.811	189.1
813.989	119.46
814.168	223.91
814.347	121.51
814.526	168.62
814.704	252.58
814.883	154.28
815.062	88.75
815.24	240.3
815.419	154.28
815.598	166.57
815.776	105.13
815.955	117.42
816.133	162.47
816.312	105.13
816.49	217.77
816.669	168.62
816.847	90.79
817.026	154.28
817.204	117.42
817.383	113.32
817.561	101.03
817.74	195.24
817.918	162.47
818.097	107.18
818.275	121.51
818.453	215.72
818.632	158.38
818.81	98.99
818.988	129.7
819.167	96.94
819.345	115.37
819.523	121.51
819.701	146.09
819.879	86.7
820.058	174.76
820.236	107.18
820.414	86.7
820.592	131.75
820.77	58.03
820.948	135.85
821.127	105.13
821.305	197.29
821.483	139.94
821.661	154.28
821.839	154.28
822.017	121.51
822.195	117.42
822.373	125.61
822.551	129.7
822.729	121.51
822.907	105.13
823.085	135.85
823.262	125.61
823.44	64.17
823.618	88.75
823.796	146.09
823.974	78.51
824.152	105.13
824.329	72.36
824.507	107.18
824.685	86.7
824.863	70.31
825.04	92.84
825.218	109.23
825.396	39.59
825.574	101.03
825.751	60.07
825.929	109.23
826.107	84.65
826.284	86.7
826.462	129.7
826.639	129.7
826.817	96.94
826.994	187.05
827.172	51.88
827.349	96.94
827.527	115.37
827.704	107.18
827.882	72.36
828.059	133.8
828.237	66.22
828.414	92.84
828.591	86.7
828.769	80.55
828.946	94.89
829.124	121.51
829.301	62.12
829.478	105.13
829.655	113.32
829.833	90.79
830.01	127.66
830.187	129.7
830.364	94.89
830.542	45.74
830.719	84.65
830.896	109.23
831.073	15.02
831.25	80.55
831.427	182.95
831.604	68.27
831.782	47.79
831.959	74.41
832.136	90.79
832.313	125.61
832.49	92.84
832.667	107.18
832.844	125.61
833.021	129.7
833.198	70.31
833.374	45.74
833.551	55.98
833.728	113.32
833.905	103.08
834.082	94.89
834.259	55.98
834.436	96.94
834.612	62.12
834.789	19.11
834.966	51.88
835.143	82.6
835.319	0.68
835.496	146.09
835.673	84.65
835.85	78.51
836.026	49.83
836.203	21.16
836.38	37.55
836.556	-11.61
836.733	25.26
836.909	98.99
837.086	41.64
837.262	27.31
837.439	105.13
837.616	58.03
837.792	47.79
837.968	109.23
838.145	-5.46
838.321	84.65
838.498	72.36
838.674	55.98
838.851	60.07
839.027	94.89
839.203	74.41
839.38	39.59
839.556	47.79
839.732	45.74
839.909	62.12
840.085	2.73
840.261	76.46
840.437	84.65
840.614	88.75
840.79	12.97
840.966	33.45
841.142	64.17
841.318	70.31
841.494	135.85
841.671	25.26
841.847	76.46
842.023	51.88
842.199	72.36
842.375	80.55
842.551	76.46
842.727	-19.8
842.903	80.55
843.079	41.64
843.255	84.65
843.431	86.7
843.607	64.17
843.783	-1.37
843.959	66.22
844.134	129.7
844.31	55.98
844.486	92.84
844.662	29.35
844.838	84.65
845.013	-21.84
845.189	78.51
845.365	76.46
845.541	43.69
845.716	78.51
845.892	101.03
846.068	60.07
846.244	33.45
846.419	35.5
846.595	15.02
846.77	21.16
846.946	0.68
847.122	10.92
847.297	23.21
847.473	74.41
847.648	-77.14
847.824	55.98
847.999	-5.46
848.175	19.11
848.35	-17.75
848.526	33.45
848.701	58.03
848.876	45.74
849.052	47.79
849.227	15.02
849.403	-7.51
849.578	141.99
849.753	8.87
849.929	-27.99
850.104	-3.41
850.279	68.27
850.454	47.79
850.63	45.74
850.805	31.4
850.98	15.02
851.155	55.98
851.33	27.31
851.505	25.26
851.681	-13.65
851.856	70.31
852.031	0.68
852.206	131.75
852.381	27.31
852.556	-52.56
852.731	25.26
852.906	39.59
853.081	-44.37
853.256	2.73
853.431	21.16
853.606	43.69
853.781	6.83
853.956	31.4
854.131	6.83
854.305	86.7
854.48	-36.18
854.655	6.83
854.83	-5.46
855.005	-40.28
855.18	47.79
855.354	12.97
855.529	51.88
855.704	47.79
855.879	10.92
856.053	-5.46
856.228	35.5
856.403	-40.28
856.577	10.92
856.752	39.59
856.926	70.31
857.101	15.02
857.276	-1.37
857.45	55.98
857.625	-17.75
857.799	-17.75
857.974	64.17
858.148	-50.52
858.323	31.4
858.497	-1.37
858.672	-27.99
858.846	-50.52
859.02	25.26
859.195	-1.37
859.369	-25.94
859.543	125.61
859.718	-3.41
859.892	-21.84
860.066	31.4
860.241	2.73
860.415	82.6
860.589	12.97
860.763	49.83
860.938	84.65
861.112	23.21
861.286	-1.37
861.46	-40.28
861.634	21.16
861.808	35.5
861.982	62.12
862.157	-48.47
862.331	31.4
862.505	39.59
862.679	39.59
862.853	-11.61
863.027	19.11
863.201	25.26
863.375	2.73
863.549	39.59
863.722	12.97
863.896	37.55
864.07	-9.56
864.244	66.22
864.418	80.55
864.592	51.88
864.766	-5.46
864.939	60.07
865.113	-9.56
865.287	25.26
865.461	-42.32
865.634	-40.28
865.808	41.64
865.982	-52.56
866.156	-5.46
866.329	-21.84
866.503	113.32
866.676	12.97
866.85	-13.65
867.024	6.83
867.197	-5.46
867.371	72.36
867.544	-1.37
867.718	21.16
867.891	-38.23
868.065	0.68
868.238	10.92
868.412	72.36
868.585	33.45
868.759	8.87
868.932	-93.52
869.105	33.45
869.279	2.73
869.452	51.88
869.625	15.02
869.799	-21.84
869.972	-34.13
870.145	19.11
870.319	8.87
870.492	64.17
870.665	25.26
870.838	12.97
871.011	10.92
871.185	-79.19
871.358	31.4
871.531	15.02
871.704	51.88
871.877	27.31
872.05	10.92
872.223	-7.51
872.396	49.83
872.569	60.07
872.742	15.02
872.915	-3.41
873.088	-68.95
873.261	0.68
873.434	-11.61
873.607	41.64
873.78	-1.37
873.953	43.69
874.126	-38.23
874.299	12.97
874.471	-15.7
874.644	21.16
874.817	23.21
874.99	70.31
875.163	-23.89
875.335	-17.75
875.508	-30.04
875.681	-1.37
875.853	-54.61
876.026	43.69
876.199	-32.08
876.371	15.02
876.544	-9.56
876.717	39.59
876.889	-9.56
877.062	90.79
877.234	27.31
877.407	53.93
877.579	-27.99
877.752	76.46
877.924	27.31
878.097	29.35
878.269	-15.7
878.442	8.87
878.614	70.31
878.786	-9.56
878.959	27.31
879.131	55.98
879.303	-13.65
879.476	10.92
879.648	-42.32
879.82	88.75
879.993	23.21
880.165	8.87
880.337	21.16
880.509	-32.08
880.681	-58.71
880.854	39.59
881.026	2.73
881.198	33.45
881.37	-1.37
881.542	19.11
881.714	21.16
881.886	-44.37
882.058	43.69
882.23	21.16
882.402	-3.41
882.574	29.35
882.746	-17.75
882.918	58.03
883.09	55.98
883.262	92.84
883.434	-64.85
883.606	10.92
883.778	25.26
883.95	6.83
884.122	-25.94
884.293	17.07
884.465	37.55
884.637	-44.37
884.809	-46.42
884.98	-54.61
885.152	47.79
885.324	64.17
885.496	47.79
885.667	-30.04
885.839	-66.9
886.011	-19.8
886.182	12.97
886.354	58.03
886.525	8.87
886.697	15.02
886.869	-9.56
887.04	-52.56
887.212	-1.37
887.383	101.03
887.555	-3.41
887.726	-32.08
887.897	-19.8
888.069	31.4
888.24	-114
888.412	-60.76
888.583	25.26
888.754	-64.85
888.926	-42.32
889.097	35.5
889.268	-34.13
889.44	47.79
889.611	-52.56
889.782	45.74
889.953	-27.99
890.125	55.98
890.296	-68.95
890.467	2.73
890.638	-62.8
890.809	12.97
890.98	23.21
891.151	-25.94
891.323	10.92
891.494	-23.89
891.665	31.4
891.836	-7.51
892.007	-3.41
892.178	43.69
892.349	-71
892.52	47.79
892.691	-99.67
892.862	45.74
893.032	-85.33
893.203	43.69
893.374	-13.65
893.545	23.21
893.716	2.73
893.887	80.55
894.057	-21.84
894.228	25.26
894.399	-3.41
894.57	62.12
894.74	21.16
894.911	15.02
895.082	-30.04
895.253	-97.62
895.423	49.83
895.594	-11.61
895.764	23.21
895.935	74.41
896.106	51.88
896.276	-15.7
896.447	-44.37
896.617	-21.84
896.788	-54.61
896.958	-27.99
897.129	-36.18
897.299	-27.99
897.47	45.74
897.64	76.46
897.81	-17.75
897.981	27.31
898.151	15.02
898.322	62.12
898.492	27.31
898.662	17.07
898.832	-44.37
899.003	12.97
899.173	-13.65
899.343	-3.41
899.513	-11.61
