Data from USB4F104151__40__11-36-54-105.txt Node

Date: Fri Mar 14 11:36:54 EDT 2025
User: louis
Spectrometer: USB4F10415
Trigger mode: 4
Integration Time (sec): 2.000000E-2
Scans to average: 1
Electric dark correction enabled: true
Nonlinearity correction enabled: false
Boxcar width: 0
XAxis mode: Wavelengths
Number of Pixels in Spectrum: 3648
>>>>>Begin Spectral Data<<<<<
178.204	40.45
178.424	40.45
178.644	40.45
178.864	-61.95
179.084	-115.2
179.304	36.35
179.524	-31.23
179.744	-2.56
179.964	42.5
180.184	-29.18
180.404	17.92
180.624	-8.7
180.844	9.73
181.064	-57.86
181.283	9.73
181.503	-0.51
181.723	13.82
181.943	-72.19
182.163	9.73
182.383	-10.75
182.602	7.68
182.822	69.12
183.042	19.97
183.262	-29.18
183.482	67.07
183.701	-33.28
183.921	36.35
184.141	3.58
184.361	5.63
184.58	-31.23
184.8	22.02
185.02	26.11
185.239	22.02
185.459	19.97
185.679	67.07
185.898	-68.09
186.118	-33.28
186.338	1.54
186.557	15.87
186.777	-61.95
186.997	-0.51
187.216	17.92
187.436	42.5
187.655	46.59
187.875	24.06
188.095	-51.71
188.314	-4.61
188.534	36.35
188.753	-47.62
188.973	-10.75
189.192	3.58
189.412	-0.51
189.631	-29.18
189.851	-64
190.07	71.17
190.29	60.93
190.509	46.59
190.729	-78.33
190.948	-6.66
191.168	54.78
191.387	-2.56
191.607	-25.09
191.826	26.11
192.045	-23.04
192.265	48.64
192.484	-14.85
192.704	81.41
192.923	-35.33
193.142	34.3
193.362	-49.66
193.581	71.17
193.8	26.11
194.02	69.12
194.239	-18.94
194.458	22.02
194.678	32.26
194.897	5.63
195.116	22.02
195.335	65.02
195.555	24.06
195.774	-23.04
195.993	-23.04
196.212	-6.66
196.432	-31.23
196.651	54.78
196.87	-20.99
197.089	116.22
197.308	9.73
197.528	-12.8
197.747	40.45
197.966	38.4
198.185	54.78
198.404	-33.28
198.623	-55.81
198.842	13.82
199.062	-2.56
199.281	91.65
199.5	24.06
199.719	44.54
199.938	52.74
200.157	34.3
200.376	28.16
200.595	-10.75
200.814	-51.71
201.033	-12.8
201.252	40.45
201.471	30.21
201.69	19.97
201.909	67.07
202.128	-0.51
202.347	9.73
202.566	30.21
202.785	-29.18
203.004	17.92
203.223	91.65
203.442	34.3
203.661	34.3
203.879	-41.47
204.098	3.58
204.317	-66.05
204.536	34.3
204.755	26.11
204.974	26.11
205.193	1.54
205.411	34.3
205.63	-43.52
205.849	81.41
206.068	30.21
206.287	13.82
206.505	36.35
206.724	36.35
206.943	13.82
207.162	-4.61
207.381	3.58
207.599	38.4
207.818	38.4
208.037	3.58
208.255	1.54
208.474	1.54
208.693	-55.81
208.911	9.73
209.13	26.11
209.349	-80.38
209.567	28.16
209.786	83.45
210.005	-55.81
210.223	54.78
210.442	-27.14
210.661	48.64
210.879	34.3
211.098	32.26
211.316	15.87
211.535	87.55
211.753	9.73
211.972	17.92
212.191	1.54
212.409	-10.75
212.628	-45.57
212.846	105.98
213.065	30.21
213.283	48.64
213.502	-18.94
213.72	11.78
213.938	17.92
214.157	-2.56
214.375	-10.75
214.594	-61.95
214.812	58.88
215.031	22.02
215.249	48.64
215.467	46.59
215.686	-10.75
215.904	56.83
216.122	62.98
216.341	110.08
216.559	24.06
216.778	32.26
216.996	26.11
217.214	-20.99
217.432	1.54
217.651	-6.66
217.869	85.5
218.087	-16.9
218.306	22.02
218.524	-6.66
218.742	-16.9
218.96	-2.56
219.179	42.5
219.397	-0.51
219.615	17.92
219.833	7.68
220.051	-0.51
220.27	71.17
220.488	26.11
220.706	73.21
220.924	42.5
221.142	-18.94
221.36	112.13
221.578	46.59
221.796	-45.57
222.015	17.92
222.233	52.74
222.451	99.84
222.669	32.26
222.887	5.63
223.105	42.5
223.323	-53.76
223.541	-27.14
223.759	99.84
223.977	34.3
224.195	40.45
224.413	40.45
224.631	58.88
224.849	5.63
225.067	52.74
225.285	1.54
225.503	38.4
225.721	-27.14
225.939	54.78
226.157	-4.61
226.375	108.03
226.592	26.11
226.81	-27.14
227.028	38.4
227.246	-14.85
227.464	32.26
227.682	48.64
227.9	-61.95
228.117	62.98
228.335	-66.05
228.553	42.5
228.771	108.03
228.989	50.69
229.206	62.98
229.424	13.82
229.642	-10.75
229.86	65.02
230.077	-8.7
230.295	38.4
230.513	-14.85
230.731	5.63
230.948	89.6
231.166	46.59
231.384	19.97
231.601	13.82
231.819	97.79
232.037	-64
232.254	-14.85
232.472	56.83
232.689	38.4
232.907	81.41
233.125	26.11
233.342	-25.09
233.56	22.02
233.777	9.73
233.995	-27.14
234.213	58.88
234.43	-29.18
234.648	77.31
234.865	26.11
235.083	3.58
235.3	-2.56
235.518	40.45
235.735	118.27
235.953	30.21
236.17	-6.66
236.388	30.21
236.605	34.3
236.822	-23.04
237.04	48.64
237.257	-10.75
237.475	13.82
237.692	50.69
237.909	-6.66
238.127	1.54
238.344	-31.23
238.562	56.83
238.779	-41.47
238.996	50.69
239.214	62.98
239.431	75.26
239.648	-8.7
239.865	-43.52
240.083	9.73
240.3	15.87
240.517	85.5
240.735	-35.33
240.952	97.79
241.169	85.5
241.386	-4.61
241.603	83.45
241.821	73.21
242.038	-29.18
242.255	62.98
242.472	93.69
242.689	34.3
242.907	103.93
243.124	1.54
243.341	48.64
243.558	46.59
243.775	46.59
243.992	-18.94
244.209	26.11
244.426	99.84
244.643	15.87
244.86	-6.66
245.078	26.11
245.295	81.41
245.512	-2.56
245.729	67.07
245.946	13.82
246.163	1.54
246.38	56.83
246.597	34.3
246.814	50.69
247.031	-2.56
247.248	-41.47
247.464	46.59
247.681	75.26
247.898	-57.86
248.115	-6.66
248.332	-23.04
248.549	24.06
248.766	93.69
248.983	-12.8
249.2	-14.85
249.417	22.02
249.633	60.93
249.85	71.17
250.067	103.93
250.284	-6.66
250.501	34.3
250.717	17.92
250.934	26.11
251.151	-37.38
251.368	48.64
251.585	58.88
251.801	9.73
252.018	30.21
252.235	-8.7
252.451	1.54
252.668	30.21
252.885	11.78
253.102	-16.9
253.318	42.5
253.535	-6.66
253.752	26.11
253.968	-12.8
254.185	30.21
254.401	58.88
254.618	15.87
254.835	40.45
255.051	42.5
255.268	48.64
255.484	7.68
255.701	15.87
255.917	52.74
256.134	34.3
256.351	-2.56
256.567	9.73
256.784	-6.66
257	15.87
257.217	67.07
257.433	40.45
257.65	-25.09
257.866	38.4
258.082	97.79
258.299	5.63
258.515	89.6
258.732	-16.9
258.948	17.92
259.165	46.59
259.381	30.21
259.597	-14.85
259.814	30.21
260.03	-10.75
260.246	40.45
260.463	1.54
260.679	-18.94
260.895	32.26
261.112	54.78
261.328	-39.42
261.544	36.35
261.761	48.64
261.977	89.6
262.193	54.78
262.409	28.16
262.626	93.69
262.842	-2.56
263.058	9.73
263.274	62.98
263.49	-55.81
263.707	32.26
263.923	34.3
264.139	-39.42
264.355	-4.61
264.571	-64
264.787	-25.09
265.004	48.64
265.22	17.92
265.436	17.92
265.652	38.4
265.868	60.93
266.084	-27.14
266.3	36.35
266.516	-18.94
266.732	60.93
266.948	-8.7
267.164	46.59
267.38	-8.7
267.596	42.5
267.812	56.83
268.028	36.35
268.244	-18.94
268.46	7.68
268.676	32.26
268.892	5.63
269.108	44.54
269.324	87.55
269.54	26.11
269.756	17.92
269.972	7.68
270.188	-31.23
270.403	-53.76
270.619	99.84
270.835	-14.85
271.051	103.93
271.267	22.02
271.483	5.63
271.698	52.74
271.914	-8.7
272.13	17.92
272.346	65.02
272.562	62.98
272.777	79.36
272.993	79.36
273.209	19.97
273.425	-2.56
273.64	7.68
273.856	15.87
274.072	5.63
274.287	-23.04
274.503	62.98
274.719	13.82
274.934	17.92
275.15	-14.85
275.366	22.02
275.581	-12.8
275.797	-20.99
276.012	38.4
276.228	-12.8
276.444	7.68
276.659	34.3
276.875	-35.33
277.09	-23.04
277.306	26.11
277.521	28.16
277.737	-47.62
277.952	11.78
278.168	40.45
278.383	44.54
278.599	26.11
278.814	-27.14
279.03	1.54
279.245	71.17
279.461	-39.42
279.676	73.21
279.892	3.58
280.107	-2.56
280.322	-47.62
280.538	77.31
280.753	9.73
280.969	-14.85
281.184	79.36
281.399	79.36
281.615	-0.51
281.83	67.07
282.045	-49.66
282.26	46.59
282.476	62.98
282.691	40.45
282.906	17.92
283.122	38.4
283.337	54.78
283.552	26.11
283.767	19.97
283.983	56.83
284.198	-33.28
284.413	32.26
284.628	-31.23
284.843	22.02
285.058	91.65
285.274	32.26
285.489	9.73
285.704	-14.85
285.919	40.45
286.134	19.97
286.349	-27.14
286.564	-6.66
286.779	13.82
286.995	54.78
287.21	19.97
287.425	5.63
287.64	-31.23
287.855	38.4
288.07	-14.85
288.285	24.06
288.5	-23.04
288.715	40.45
288.93	40.45
289.145	54.78
289.36	58.88
289.575	24.06
289.79	50.69
290.004	38.4
290.219	40.45
290.434	17.92
290.649	26.11
290.864	34.3
291.079	-35.33
291.294	-4.61
291.509	28.16
291.724	50.69
291.938	38.4
292.153	-6.66
292.368	-8.7
292.583	-20.99
292.798	17.92
293.012	-20.99
293.227	-29.18
293.442	77.31
293.657	-12.8
293.871	15.87
294.086	-10.75
294.301	54.78
294.516	79.36
294.73	-6.66
294.945	40.45
295.16	73.21
295.374	50.69
295.589	62.98
295.804	11.78
296.018	54.78
296.233	56.83
296.447	56.83
296.662	30.21
296.877	71.17
297.091	-35.33
297.306	24.06
297.52	-8.7
297.735	42.5
297.949	38.4
298.164	28.16
298.378	38.4
298.593	60.93
298.807	71.17
299.022	101.89
299.236	91.65
299.451	36.35
299.665	-31.23
299.88	30.21
300.094	62.98
300.309	5.63
300.523	-25.09
300.737	87.55
300.952	-10.75
301.166	-66.05
301.381	-37.38
301.595	48.64
301.809	-14.85
302.024	34.3
302.238	22.02
302.452	32.26
302.667	-8.7
302.881	9.73
303.095	73.21
303.309	42.5
303.524	71.17
303.738	81.41
303.952	32.26
304.166	34.3
304.381	-43.52
304.595	3.58
304.809	50.69
305.023	97.79
305.237	58.88
305.452	-76.29
305.666	1.54
305.88	22.02
306.094	17.92
306.308	44.54
306.522	105.98
306.736	-14.85
306.95	-0.51
307.164	48.64
307.379	60.93
307.593	65.02
307.807	42.5
308.021	62.98
308.235	60.93
308.449	-4.61
308.663	50.69
308.877	13.82
309.091	34.3
309.305	-14.85
309.519	73.21
309.733	-31.23
309.947	-55.81
310.161	58.88
310.374	124.41
310.588	99.84
310.802	42.5
311.016	67.07
311.23	30.21
311.444	-23.04
311.658	60.93
311.872	91.65
312.085	-18.94
312.299	50.69
312.513	-70.14
312.727	71.17
312.941	-43.52
313.154	17.92
313.368	73.21
313.582	77.31
313.796	-14.85
314.009	5.63
314.223	42.5
314.437	15.87
314.651	34.3
314.864	3.58
315.078	34.3
315.292	95.74
315.505	-2.56
315.719	65.02
315.933	-2.56
316.146	-41.47
316.36	-27.14
316.573	9.73
316.787	87.55
317.001	26.11
317.214	48.64
317.428	32.26
317.641	58.88
317.855	67.07
318.068	34.3
318.282	38.4
318.495	30.21
318.709	58.88
318.922	1.54
319.136	58.88
319.349	44.54
319.563	22.02
319.776	91.65
319.99	71.17
320.203	30.21
320.417	38.4
320.63	58.88
320.843	-2.56
321.057	58.88
321.27	-2.56
321.483	44.54
321.697	38.4
321.91	-14.85
322.124	-41.47
322.337	-10.75
322.55	65.02
322.763	15.87
322.977	38.4
323.19	7.68
323.403	22.02
323.617	-49.66
323.83	50.69
324.043	-27.14
324.256	58.88
324.469	71.17
324.683	-4.61
324.896	13.82
325.109	13.82
325.322	17.92
325.535	32.26
325.748	30.21
325.962	17.92
326.175	-0.51
326.388	-4.61
326.601	5.63
326.814	36.35
327.027	91.65
327.24	89.6
327.453	91.65
327.666	17.92
327.879	34.3
328.092	71.17
328.305	17.92
328.518	28.16
328.731	58.88
328.944	15.87
329.157	-57.86
329.37	22.02
329.583	26.11
329.796	79.36
330.009	-29.18
330.222	34.3
330.435	26.11
330.648	24.06
330.861	22.02
331.073	17.92
331.286	-20.99
331.499	42.5
331.712	17.92
331.925	75.26
332.138	-41.47
332.35	7.68
332.563	1.54
332.776	-23.04
332.989	22.02
333.202	-0.51
333.414	81.41
333.627	50.69
333.84	50.69
334.053	73.21
334.265	48.64
334.478	-18.94
334.691	26.11
334.903	15.87
335.116	13.82
335.329	75.26
335.541	-76.29
335.754	-0.51
335.966	30.21
336.179	1.54
336.392	48.64
336.604	71.17
336.817	50.69
337.029	-4.61
337.242	42.5
337.454	105.98
337.667	-39.42
337.88	44.54
338.092	81.41
338.305	79.36
338.517	26.11
338.729	56.83
338.942	62.98
339.154	5.63
339.367	38.4
339.579	38.4
339.792	9.73
340.004	91.65
340.217	24.06
340.429	17.92
340.641	99.84
340.854	19.97
341.066	-37.38
341.278	62.98
341.491	62.98
341.703	50.69
341.915	34.3
342.128	93.69
342.34	67.07
342.552	60.93
342.764	9.73
342.977	30.21
343.189	101.89
343.401	-14.85
343.613	3.58
343.826	34.3
344.038	-16.9
344.25	-2.56
344.462	-23.04
344.674	44.54
344.886	114.17
345.099	34.3
345.311	62.98
345.523	81.41
345.735	24.06
345.947	-6.66
346.159	-16.9
346.371	15.87
346.583	42.5
346.795	34.3
347.007	5.63
347.219	26.11
347.431	-2.56
347.643	5.63
347.855	58.88
348.067	50.69
348.279	13.82
348.491	65.02
348.703	140.8
348.915	67.07
349.127	34.3
349.339	48.64
349.551	58.88
349.763	71.17
349.975	-23.04
350.187	60.93
350.399	54.78
350.61	56.83
350.822	75.26
351.034	13.82
351.246	3.58
351.458	75.26
351.669	9.73
351.881	32.26
352.093	140.8
352.305	34.3
352.517	1.54
352.728	87.55
352.94	15.87
353.152	75.26
353.363	30.21
353.575	9.73
353.787	79.36
353.999	42.5
354.21	81.41
354.422	77.31
354.633	40.45
354.845	44.54
355.057	7.68
355.268	19.97
355.48	42.5
355.692	32.26
355.903	38.4
356.115	24.06
356.326	5.63
356.538	116.22
356.749	110.08
356.961	19.97
357.172	-20.99
357.384	48.64
357.595	75.26
357.807	50.69
358.018	-23.04
358.23	34.3
358.441	56.83
358.653	54.78
358.864	5.63
359.075	75.26
359.287	-6.66
359.498	99.84
359.709	26.11
359.921	9.73
360.132	15.87
360.344	60.93
360.555	40.45
360.766	40.45
360.977	60.93
361.189	73.21
361.4	3.58
361.611	114.17
361.823	67.07
362.034	58.88
362.245	-35.33
362.456	-4.61
362.667	81.41
362.879	54.78
363.09	110.08
363.301	48.64
363.512	26.11
363.723	1.54
363.935	60.93
364.146	56.83
364.357	54.78
364.568	85.5
364.779	9.73
364.99	40.45
365.201	-18.94
365.412	56.83
365.623	48.64
365.834	30.21
366.045	91.65
366.256	46.59
366.467	30.21
366.678	-2.56
366.889	24.06
367.1	30.21
367.311	40.45
367.522	56.83
367.733	65.02
367.944	7.68
368.155	26.11
368.366	1.54
368.577	50.69
368.788	79.36
368.999	-10.75
369.209	65.02
369.42	56.83
369.631	15.87
369.842	65.02
370.053	93.69
370.264	87.55
370.474	140.8
370.685	93.69
370.896	24.06
371.107	26.11
371.317	-23.04
371.528	81.41
371.739	50.69
371.95	-12.8
372.16	95.74
372.371	-23.04
372.582	-2.56
372.792	52.74
373.003	67.07
373.214	-14.85
373.424	22.02
373.635	1.54
373.846	38.4
374.056	-8.7
374.267	30.21
374.477	15.87
374.688	5.63
374.898	13.82
375.109	69.12
375.319	22.02
375.53	89.6
375.74	40.45
375.951	7.68
376.161	56.83
376.372	-0.51
376.582	13.82
376.793	50.69
377.003	54.78
377.214	54.78
377.424	-4.61
377.635	132.61
377.845	48.64
378.055	71.17
378.266	52.74
378.476	75.26
378.686	42.5
378.897	79.36
379.107	26.11
379.317	44.54
379.528	58.88
379.738	124.41
379.948	3.58
380.158	34.3
380.369	62.98
380.579	46.59
380.789	71.17
380.999	9.73
381.21	56.83
381.42	65.02
381.63	-2.56
381.84	77.31
382.05	46.59
382.261	79.36
382.471	50.69
382.681	75.26
382.891	93.69
383.101	62.98
383.311	-2.56
383.521	56.83
383.731	48.64
383.941	60.93
384.151	177.66
384.361	83.45
384.571	71.17
384.781	40.45
384.991	1.54
385.201	42.5
385.411	50.69
385.621	114.17
385.831	7.68
386.041	42.5
386.251	52.74
386.461	50.69
386.671	56.83
386.881	87.55
387.091	1.54
387.301	48.64
387.511	46.59
387.72	44.54
387.93	60.93
388.14	87.55
388.35	79.36
388.56	50.69
388.769	95.74
388.979	67.07
389.189	83.45
389.399	11.78
389.609	48.64
389.818	112.13
390.028	-18.94
390.238	99.84
390.447	93.69
390.657	89.6
390.867	81.41
391.076	116.22
391.286	67.07
391.496	122.37
391.705	85.5
391.915	58.88
392.125	79.36
392.334	7.68
392.544	-25.09
392.753	67.07
392.963	19.97
393.172	79.36
393.382	58.88
393.591	22.02
393.801	71.17
394.01	101.89
394.22	58.88
394.429	134.65
394.639	81.41
394.848	17.92
395.058	108.03
395.267	95.74
395.477	24.06
395.686	103.93
395.895	77.31
396.105	67.07
396.314	44.54
396.524	65.02
396.733	122.37
396.942	116.22
397.152	46.59
397.361	128.51
397.57	75.26
397.78	93.69
397.989	116.22
398.198	134.65
398.407	128.51
398.617	99.84
398.826	114.17
399.035	161.28
399.244	136.7
399.453	108.03
399.663	75.26
399.872	122.37
400.081	95.74
400.29	101.89
400.499	40.45
400.708	163.33
400.917	85.5
401.127	91.65
401.336	146.94
401.545	181.76
401.754	187.9
401.963	124.41
402.172	122.37
402.381	87.55
402.59	169.47
402.799	167.42
403.008	222.72
403.217	181.76
403.426	165.37
403.635	146.94
403.844	126.46
404.053	148.99
404.262	151.04
404.471	144.89
404.68	126.46
404.888	157.18
405.097	181.76
405.306	148.99
405.515	126.46
405.724	181.76
405.933	189.95
406.142	134.65
406.35	189.95
406.559	108.03
406.768	187.9
406.977	228.86
407.185	192
407.394	177.66
407.603	165.37
407.812	189.95
408.02	263.68
408.229	249.34
408.438	321.02
408.646	265.72
408.855	247.29
409.064	265.72
409.272	257.53
409.481	275.96
409.69	284.16
409.898	386.55
410.107	337.4
410.315	302.59
410.524	284.16
410.733	335.35
410.941	312.83
411.15	409.08
411.358	390.65
411.567	380.41
411.775	417.27
411.984	517.62
412.192	427.51
412.401	476.66
412.609	640.5
412.818	497.14
413.026	544.25
413.234	562.68
413.443	570.87
413.651	642.55
413.86	591.35
414.068	720.37
414.276	714.23
414.485	777.72
414.693	736.76
414.901	808.44
415.11	736.76
415.318	769.52
415.526	855.54
415.734	847.35
415.943	894.45
416.151	857.59
416.359	859.63
416.567	1000.94
416.776	1025.52
416.984	1127.92
417.192	1035.76
417.4	1125.87
417.608	1066.48
417.817	1152.49
418.025	1154.54
418.233	1191.41
418.441	1328.62
418.649	1396.2
418.857	1469.93
419.065	1424.87
419.273	1424.87
419.481	1533.42
419.689	1590.76
419.897	1748.45
420.105	1695.21
420.313	1703.4
420.521	1871.33
420.729	1748.45
420.937	1902.05
421.145	1983.97
421.353	1971.68
421.561	2250.21
421.769	2160.1
421.977	2350.56
422.185	2340.32
422.393	2469.34
422.601	2543.07
422.809	2620.89
423.017	2590.17
423.224	2770.39
423.432	2852.31
423.64	2776.53
423.848	2921.94
424.056	2975.19
424.263	3235.28
424.471	3192.27
424.679	3214.8
424.887	3419.6
425.094	3507.66
425.302	3669.45
425.51	3810.76
425.718	3921.35
425.925	3964.36
426.133	4029.89
426.341	4195.78
426.548	4449.72
426.756	4431.29
426.964	4486.59
427.171	4644.28
427.379	4834.74
427.586	4797.88
427.794	5012.92
428.001	5324.21
428.209	5533.1
428.417	5471.66
428.624	5852.58
428.832	5811.62
429.039	5741.99
429.247	5842.34
429.454	6567.32
429.662	6819.22
429.869	6260.13
430.076	6825.37
430.284	6641.05
430.491	6897.05
430.699	7372.18
430.906	7275.92
431.114	7359.89
431.321	7669.13
431.528	8011.14
431.736	8170.88
431.943	8797.56
432.15	8355.2
432.358	8396.16
432.565	9223.54
432.772	8957.3
432.979	9500.02
433.187	9727.34
433.394	9592.17
433.601	10325.35
433.808	10202.47
434.016	10241.38
434.223	10743.13
434.43	11347.28
434.637	11130.2
434.844	11646.29
435.052	11785.55
435.259	11887.95
435.466	12129.61
435.673	11955.53
435.88	12741.95
436.087	13423.92
436.294	13477.17
436.501	12975.42
436.708	13520.18
436.915	13686.06
437.122	14320.93
437.329	14298.41
437.537	14662.94
437.743	15287.57
437.95	15090.97
438.157	15648.02
438.364	16260.36
438.571	16286.98
438.778	16422.15
438.985	17968.37
439.192	17229.05
439.399	17820.91
439.606	17483
439.813	18533.61
440.02	19422.42
440.227	19041.5
440.433	18887.9
440.64	19606.74
440.847	19563.73
441.054	19965.14
441.261	21372.09
441.467	21083.33
441.674	21503.16
441.881	22142.13
442.088	22068.4
442.294	22117.55
442.501	22473.9
442.708	23073.95
442.914	24022.16
443.121	24945.8
443.328	24056.98
443.534	25836.66
443.741	25388.16
443.948	25115.78
444.154	26664.04
444.361	26438.76
444.568	26694.76
444.774	26668.14
444.981	26879.08
445.187	27896.92
445.394	28927.05
445.6	28617.8
445.807	31714.33
446.013	29977.65
446.22	30663.72
446.426	31476.77
446.633	31888.41
446.839	33141.77
447.046	31929.37
447.252	33651.71
447.459	33850.36
447.665	33512.45
447.871	34997.23
448.078	36645.84
448.284	34796.53
448.491	35415.01
448.697	37311.43
448.903	37876.67
449.11	38187.96
449.316	37288.9
449.522	37563.33
449.728	38890.41
449.935	39185.32
450.141	39183.27
450.347	40012.7
450.553	38947.76
450.76	39332.78
450.966	40823.7
451.172	40049.56
451.378	40987.53
451.584	40240.03
451.791	41337.74
451.997	41315.21
452.203	42265.47
452.409	41745.28
452.615	41741.19
452.821	40485.78
453.027	39478.18
453.233	41921.41
453.44	40371.1
453.646	40889.23
453.852	40944.53
454.058	41540.49
454.264	40160.16
454.47	41200.52
454.676	40223.64
454.882	41581.45
455.088	38050.75
455.294	38364.09
455.5	38804.4
455.705	39537.57
455.911	37942.21
456.117	37301.19
456.323	36658.13
456.529	34673.65
456.735	36326.36
456.941	35527.65
457.147	34728.94
457.352	34006.01
457.558	33410.05
457.764	33627.13
457.97	32705.55
458.176	32093.21
458.381	32105.49
458.587	30839.85
458.793	30723.12
458.999	29109.32
459.204	31634.46
459.41	30245.94
459.616	28431.44
459.821	28517.45
460.027	28171.35
460.233	27225.18
460.438	26500.2
460.644	27128.93
460.85	25263.23
461.055	24859.78
461.261	24777.86
461.466	22887.59
461.672	22373.55
461.878	24181.9
462.083	22545.58
462.289	22174.89
462.494	21699.76
462.7	20757.7
462.905	20081.87
463.111	20839.62
463.316	21208.25
463.522	20217.04
463.727	20667.59
463.932	20548.81
464.138	20176.08
464.343	20243.66
464.549	19573.97
464.754	20430.02
464.959	20268.23
465.165	20325.58
465.37	19358.94
465.575	18533.61
465.781	19571.93
465.986	19623.12
466.191	19324.12
466.397	18705.63
466.602	17724.66
466.807	18566.37
467.012	18126.06
467.218	18072.81
467.423	17954.03
467.628	17970.41
467.833	18773.22
468.038	18062.57
468.244	17480.95
468.449	18394.34
468.654	17863.92
468.859	17904.88
469.064	17587.44
469.269	16733.44
469.474	17143.03
469.679	17294.58
469.885	16897.28
470.09	17257.72
470.295	17149.18
470.5	16549.12
470.705	16534.79
470.91	16164.11
471.115	15951.12
471.32	16471.3
471.525	16262.41
471.73	15707.41
471.935	15834.38
472.139	15318.29
472.344	15310.1
472.549	15392.02
472.754	15185.18
472.959	14855.45
473.164	14345.51
473.369	14499.11
473.574	14996.76
473.778	14763.29
473.983	14578.98
474.188	14304.55
474.393	13724.97
474.598	13880.62
474.802	13745.45
475.007	13509.94
475.212	13983.02
475.417	13268.28
475.621	13311.28
475.826	13262.13
476.031	13151.54
476.235	12893.5
476.44	12830.01
476.645	12625.22
476.849	12705.09
477.054	12813.63
477.259	12207.43
477.463	12346.69
477.668	12201.29
477.872	12068.17
478.077	11990.35
478.282	11605.33
478.486	11728.21
478.691	11580.75
478.895	11562.32
479.1	11287.89
479.304	11484.5
479.509	11099.48
479.713	11298.13
479.918	11230.55
480.122	10978.65
480.326	11142.49
480.531	11089.24
480.735	10954.07
480.94	10718.56
481.144	11185.49
481.348	10583.39
481.553	10884.44
481.757	10519.9
481.961	10812.76
482.166	10898.78
482.37	10833.24
482.574	10503.52
482.778	10530.14
482.983	10734.94
483.187	10691.93
483.391	10761.56
483.595	10640.73
483.8	10661.21
484.004	10534.24
484.208	10771.8
484.412	10861.91
484.616	10562.91
484.821	10425.7
485.025	10628.45
485.229	10812.76
485.433	10696.03
485.637	10612.06
485.841	10476.9
486.045	10452.32
486.249	10384.74
486.453	10495.33
486.657	10536.29
486.861	10569.05
487.065	10384.74
487.269	10685.79
487.473	10648.93
487.677	10757.47
487.881	10679.65
488.085	10528.1
488.289	10720.6
488.493	10607.97
488.697	10814.81
488.901	10632.54
489.105	10698.08
489.309	10505.57
489.512	10739.04
489.716	10655.07
489.92	10757.47
490.124	10657.12
490.328	10847.58
490.531	10853.72
490.735	10853.72
490.939	11060.57
491.143	10857.82
491.346	10851.67
491.55	11076.95
491.754	11048.28
491.958	11033.94
492.161	11152.73
492.365	11312.47
492.569	11083.09
492.772	11425.11
492.976	11294.04
493.18	11208.02
493.383	11521.36
493.587	11527.5
493.79	11738.44
493.994	11584.85
494.197	11777.36
494.401	11810.12
494.605	11892.04
494.808	11910.47
495.012	11984.2
495.215	12059.98
495.419	12068.17
495.622	12252.49
495.825	12399.94
496.029	12225.86
496.232	12479.81
496.436	12449.09
496.639	12684.61
496.843	12686.65
497.046	13149.5
497.249	13061.43
497.453	13198.65
497.656	13301.05
497.859	13563.19
498.063	13378.87
498.266	13964.59
498.469	13602.1
498.673	14232.87
498.876	14140.71
499.079	14189.86
499.282	14265.64
499.485	14785.82
499.689	14609.7
499.892	14708
500.095	14759.2
500.298	15285.53
500.501	15107.35
500.705	15648.02
500.908	15879.44
501.111	15856.91
501.314	16026.89
501.517	16303.37
501.72	16192.78
501.923	16233.74
502.126	16672
502.329	16817.41
502.532	17034.49
502.735	16930.05
502.938	17491.19
503.141	17528.05
503.344	17865.97
503.547	17577.2
503.75	18044.14
503.953	18388.2
504.156	18506.98
504.359	18566.37
504.562	19068.13
504.765	19414.23
504.968	19334.36
505.17	19461.34
505.373	19625.17
505.576	20069.58
505.779	20296.91
505.982	20208.84
506.185	20593.86
506.387	20815.04
506.59	20772.04
506.793	21191.87
506.996	21327.03
507.198	21802.16
507.401	21603.51
507.604	21826.74
507.807	22408.36
508.009	22856.87
508.212	22781.09
508.415	22875.3
508.617	23291.04
508.82	23147.68
509.022	23325.85
509.225	23745.69
509.428	24122.51
509.63	24515.72
509.833	24208.53
510.035	24847.49
510.238	24626.31
510.44	24853.64
510.643	25349.25
510.845	25642.1
511.048	25504.89
511.25	25810.04
511.453	25992.31
511.655	26791.02
511.858	26907.75
512.06	26723.43
512.262	27262.05
512.465	27196.51
512.667	27941.97
512.87	28273.74
513.072	27892.82
513.274	28531.79
513.477	28568.65
513.679	29588.54
513.881	29146.18
514.084	29289.54
514.286	29398.08
514.488	29545.53
514.69	30536.75
514.893	30467.12
515.095	30790.7
515.297	30911.53
515.499	31093.8
515.701	31554.59
515.904	31708.19
516.106	31779.87
516.308	32435.22
516.51	32582.67
516.712	32177.17
516.914	32918.54
517.116	33295.36
517.318	33301.51
517.52	33631.23
517.722	33928.19
517.925	34124.79
518.127	34417.65
518.329	34581.49
518.531	34538.48
518.733	35150.82
518.935	35245.03
519.136	35562.47
519.338	36109.27
519.54	36072.41
519.742	36463.57
519.944	36439
520.146	37231.56
520.348	37204.94
520.55	37168.07
520.752	37219.27
520.954	37968.83
521.155	37731.26
521.357	38642.61
521.559	38491.06
521.761	39189.42
521.963	38927.28
522.164	39113.64
522.366	39310.25
522.568	39582.63
522.77	39924.64
522.971	40410.01
523.173	40393.62
523.375	40426.39
523.576	40627.09
523.778	40516.5
523.98	41151.37
524.181	41102.22
524.383	41431.94
524.584	41665.41
524.786	41761.67
524.988	41423.75
525.189	42414.97
525.391	42457.98
525.592	42660.73
525.794	42521.46
525.995	42511.22
526.197	42744.69
526.398	42703.73
526.6	43277.16
526.801	43072.37
527.003	43443.05
527.204	43760.48
527.406	43748.2
527.607	43559.78
527.808	43965.28
528.01	43586.41
528.211	43924.32
528.412	44763.99
528.614	44114.78
528.815	44135.26
529.016	44964.69
529.218	44381.02
529.419	44530.52
529.62	44618.58
529.822	44880.72
530.023	44575.58
530.224	45189.97
530.425	44802.9
530.626	44579.67
530.828	44608.34
531.029	45507.4
531.23	44809.04
531.431	44919.63
531.632	44927.83
531.833	45376.33
532.035	45136.72
532.236	44983.12
532.437	45259.6
532.638	45259.6
532.839	45388.62
533.04	46115.65
533.241	45120.34
533.442	46111.55
533.643	45998.91
533.844	45763.4
534.045	45388.62
534.246	45228.88
534.447	45667.14
534.648	45570.89
534.849	45822.79
535.05	45353.8
535.251	45689.67
535.451	45771.59
535.652	46127.94
535.853	45734.73
536.054	45720.39
536.255	45665.1
536.456	44901.2
536.657	45992.77
536.857	45554.5
537.058	45198.16
537.259	45558.6
537.46	45673.29
537.66	45515.59
537.861	45914.95
538.062	45566.79
538.263	45577.03
538.463	45570.89
538.664	45787.97
538.865	45468.49
539.065	45790.02
539.266	45179.73
539.466	45853.51
539.667	45230.93
539.868	45800.26
540.068	45429.58
540.269	45370.19
540.469	45810.5
540.67	45116.24
540.87	45509.45
541.071	45120.34
541.271	45849.41
541.472	45501.26
541.672	45241.17
541.873	45527.88
542.073	44895.06
542.274	45581.13
542.474	45458.25
542.675	45093.71
542.875	45970.24
543.075	45103.95
543.276	45151.06
543.476	45286.22
543.676	45034.32
543.877	45384.52
544.077	45151.06
544.277	45181.77
544.478	45099.86
544.678	45177.68
544.878	45009.75
545.078	45386.57
545.279	44809.04
545.479	45026.13
545.679	45173.58
545.879	45450.06
546.079	45009.75
546.28	45306.7
546.48	44700.5
546.68	45308.75
546.88	44927.83
547.08	45087.57
547.28	45087.57
547.48	44641.11
547.68	45550.41
547.88	44512.09
548.081	45091.66
548.281	45097.81
548.481	44854.1
548.681	45251.41
548.881	44948.31
549.081	44901.2
549.28	44362.59
549.48	45345.61
549.68	44819.28
549.88	45103.95
550.08	44428.12
550.28	44956.5
550.48	44819.28
550.68	44962.64
550.88	44348.25
551.08	44665.69
551.279	45149.01
551.479	44213.09
551.679	44612.44
551.879	44247.9
552.079	44897.11
552.278	44516.18
552.478	44747.61
552.678	44671.83
552.878	44665.69
553.077	44489.56
553.277	43991.9
553.477	44772.18
553.676	44340.06
553.876	44243.8
554.076	43891.55
554.275	44256.09
554.475	44108.64
554.674	44276.57
554.874	44227.42
555.074	44047.2
555.273	44444.51
555.473	44381.02
555.672	43666.28
555.872	44383.07
556.071	44331.87
556.271	44094.3
556.47	44069.73
556.67	43582.31
556.869	43635.56
557.068	43627.37
557.268	43770.72
557.467	43647.85
557.667	43770.72
557.866	44039.01
558.065	43567.98
558.265	43176.81
558.464	43531.11
558.663	43565.93
558.863	43025.26
559.062	43823.97
559.261	43445.1
559.461	43445.1
559.66	42599.29
559.859	43033.46
560.058	43090.8
560.258	43203.44
560.457	42900.34
560.656	43576.17
560.855	42744.69
561.054	43131.76
561.253	42122.11
561.453	42955.63
561.652	42554.23
561.851	43221.87
562.05	42777.46
562.249	42476.41
562.448	43219.82
562.647	42750.84
562.846	42703.73
563.045	42349.43
563.244	41878.4
563.443	42519.42
563.642	41722.76
563.841	42218.36
564.04	41819.01
564.239	42464.12
564.438	42089.34
564.637	41921.41
564.836	41892.74
565.035	41675.65
565.234	41806.72
565.432	41524.1
565.631	41536.39
565.83	42011.52
566.029	41558.92
566.228	41446.28
566.427	41495.43
566.625	40754.07
566.824	40766.35
567.023	41235.34
567.222	40727.44
567.42	41403.27
567.619	40831.89
567.818	40901.52
568.016	40536.98
568.215	41542.53
568.414	40860.56
568.612	41141.13
568.811	40692.63
569.01	40749.97
569.208	40061.85
569.407	40565.65
569.605	40217.5
569.804	40455.06
570.002	40147.87
570.201	40647.57
570.4	40029.09
570.598	39613.35
570.797	39734.18
570.995	40059.8
571.193	39523.24
571.392	40289.18
571.59	39365.54
571.789	39599.01
571.987	39261.1
572.186	39521.19
572.384	39435.17
572.582	39390.12
572.781	39545.76
572.979	38693.81
573.177	39146.41
573.376	39166.89
573.574	39001
573.772	39142.31
573.971	38681.52
574.169	38917.04
574.367	38202.3
574.565	38941.61
574.763	38718.39
574.962	38347.7
575.16	38032.32
575.358	38366.13
575.556	37876.67
575.754	38552.5
575.952	37876.67
576.151	38245.3
576.349	37295.05
576.547	37686.21
576.745	37729.22
576.943	37886.91
577.141	37854.14
577.339	37426.12
577.537	37368.77
577.735	36981.71
577.933	37325.77
578.131	37206.98
578.329	36842.45
578.527	36817.87
578.725	36781.01
578.923	37395.4
579.121	36549.59
579.319	36516.82
579.516	36789.2
579.714	36795.34
579.912	36733.9
580.11	36334.55
580.308	36606.93
580.506	36553.68
580.704	35746.78
580.901	35965.92
581.099	36348.89
581.297	35732.45
581.495	35566.56
581.692	35929.05
581.89	35396.58
582.088	35808.22
582.285	35517.41
582.483	35415.01
582.681	35261.41
582.878	35507.17
583.076	34907.12
583.274	35294.18
583.471	34913.26
583.669	34909.16
583.866	34730.99
584.064	34872.3
584.262	34706.41
584.459	34741.23
584.657	34188.28
584.854	34917.36
585.052	34280.44
585.249	34049.02
585.447	34569.2
585.644	33844.22
585.841	33903.61
586.039	34233.33
586.236	33707.01
586.434	33981.43
586.631	33487.87
586.828	33524.74
587.026	33065.99
587.223	33438.72
587.42	33414.15
587.618	33620.99
587.815	33059.85
588.012	32932.87
588.21	32560.14
588.407	33135.62
588.604	32988.17
588.801	32635.92
588.999	32478.22
589.196	32257.04
589.393	32443.41
589.59	32173.08
589.787	32414.74
589.984	32076.82
590.182	31999
590.379	32390.16
590.576	32111.64
590.773	31818.78
590.97	31798.3
591.167	31890.46
591.364	31472.67
591.561	31505.44
591.758	31632.41
591.955	30927.91
592.152	31429.66
592.349	31265.83
592.546	31192.1
592.743	31448.1
592.94	30817.32
593.137	30850.09
593.334	31077.41
593.531	30481.45
593.727	30587.95
593.924	30610.48
594.121	30438.45
594.318	30698.54
594.515	30157.88
594.712	30207.03
594.908	30096.44
595.105	30053.43
595.302	29908.02
595.499	29873.21
595.696	29602.88
595.892	29469.76
596.089	29643.84
596.286	29930.55
596.482	29660.22
596.679	29664.32
596.876	29363.26
597.072	29013.06
597.269	29178.95
597.466	28800.07
597.662	28484.69
597.859	28955.72
598.055	29047.88
598.252	28781.64
598.448	28853.32
598.645	28587.08
598.841	28329.04
599.038	28513.36
599.234	28470.35
599.431	28017.75
599.627	28120.15
599.824	27790.42
600.02	27886.68
600.217	28040.28
600.413	27583.58
600.609	27790.42
600.806	27401.31
601.002	27817.05
601.198	27157.6
601.395	27542.62
601.591	27061.35
601.787	27341.92
601.984	27227.23
602.18	27149.41
602.376	27182.18
602.572	26594.41
602.769	26737.77
602.965	26754.15
603.161	26737.77
603.357	26610.79
603.553	26440.81
603.75	26373.23
603.946	26270.83
604.142	26547.31
604.338	26209.39
604.534	26309.74
604.73	25908.34
604.926	26043.51
605.122	26135.67
605.318	25683.06
605.514	25750.65
605.71	25613.43
605.906	25904.24
606.102	25644.15
606.298	25453.69
606.494	25468.03
606.69	25513.08
606.886	25367.68
607.082	25091.2
607.278	25580.67
607.474	24986.75
607.67	25400.44
607.866	24923.27
608.062	25105.54
608.257	24718.47
608.453	24915.08
608.649	25152.64
608.845	24505.48
609.041	24618.12
609.236	25048.19
609.432	24601.74
609.628	24626.31
609.824	24335.5
610.019	24562.83
610.215	25025.67
610.411	24382.6
610.606	24175.76
610.802	24491.15
610.998	24523.91
611.193	24333.45
611.389	24097.94
611.584	23932.05
611.78	23911.57
611.976	24218.77
612.171	24040.59
612.367	23878.8
612.562	24128.66
612.758	23585.94
612.953	23665.81
613.149	24054.93
613.344	23430.3
613.539	23944.34
613.735	23626.9
613.93	23757.97
614.126	23506.07
614.321	23843.99
614.517	23604.38
614.712	23538.84
614.907	23241.89
615.103	23532.7
615.298	23073.95
615.493	23405.72
615.688	23110.82
615.884	23678.1
616.079	22895.78
616.274	23461.02
616.47	23172.25
616.665	23065.76
616.86	22887.59
617.055	22701.22
617.25	22688.93
617.445	22979.75
617.641	22508.71
617.836	22951.07
618.031	22189.23
618.226	22746.28
618.421	22510.76
618.616	22779.04
618.811	22078.64
619.006	22647.97
619.201	22037.68
619.396	22138.03
619.591	21482.68
619.786	22168.75
619.981	21517.5
620.176	21765.3
620.371	21327.03
620.566	21701.81
620.761	21402.81
620.956	21703.86
621.151	21054.65
621.346	21511.35
621.541	20952.26
621.735	21439.67
621.93	20978.88
622.125	20812.99
622.32	20513.99
622.515	20745.41
622.709	20827.33
622.904	20620.49
623.099	20622.53
623.294	20636.87
623.488	20176.08
623.683	20047.05
623.878	19870.93
624.072	19981.52
624.267	19870.93
624.462	19825.87
624.656	19723.48
624.851	19582.17
625.046	19522.77
625.24	19340.5
625.435	19113.18
625.629	18916.58
625.824	18906.34
626.018	19033.31
626.213	18558.18
626.407	18633.96
626.602	18615.52
626.796	18312.42
626.991	18300.14
627.185	18167.02
627.38	18197.74
627.574	18144.49
627.768	17822.96
627.963	18015.47
628.157	17609.97
628.352	18056.43
628.546	17333.5
628.74	17659.12
628.935	17632.5
629.129	17515.76
629.323	17104.12
629.517	17347.83
629.712	17130.75
629.906	17104.12
630.1	16764.16
630.294	16772.35
630.489	16522.5
630.683	16778.5
630.877	16258.31
631.071	16377.09
631.265	16721.15
631.459	16315.66
631.653	16084.23
631.848	16131.34
632.042	15799.57
632.236	15899.92
632.43	15502.61
632.624	15815.95
632.818	15496.47
633.012	15715.6
633.206	15359.25
633.4	15834.38
633.594	15084.83
633.788	15267.1
633.982	15574.29
634.176	15222.04
634.369	15015.19
634.563	15072.54
634.757	14857.5
634.951	14816.54
635.145	14794.01
635.339	14765.34
635.533	14705.95
635.726	14732.58
635.92	14341.41
636.114	14185.77
636.308	14394.66
636.501	14325.03
636.695	14316.84
636.889	14120.23
637.083	13962.54
637.276	14173.48
637.47	13831.47
637.664	14107.94
637.857	14013.74
638.051	13708.59
638.244	13583.66
638.438	13387.06
638.632	13442.35
638.825	13485.36
639.019	13417.78
639.212	13163.83
639.406	13450.55
639.599	13120.82
639.793	13217.08
639.986	12918.07
640.18	12764.48
640.373	12952.89
640.567	12447.04
640.76	12627.26
640.954	12746.05
641.147	12481.86
641.34	12420.42
641.534	12510.53
641.727	12262.72
641.92	12279.11
642.114	12176.71
642.307	12318.02
642.5	12242.25
642.694	11896.14
642.887	11988.3
643.08	12174.66
643.273	11818.32
643.467	11781.45
643.66	12047.69
643.853	11668.81
644.046	11361.62
644.239	11459.92
644.432	11593.04
644.626	11496.78
644.819	11341.14
645.012	11179.35
645.205	11412.82
645.398	11310.42
645.591	11226.45
645.784	11224.4
645.977	10982.74
646.17	10949.98
646.363	10876.25
646.556	10870.11
646.749	10642.78
646.942	10794.33
647.135	10878.3
647.328	10790.24
647.521	10605.92
647.714	10521.95
647.907	10616.16
648.099	10622.3
648.292	10411.36
648.485	10382.69
648.678	10263.91
648.871	10466.66
649.064	10280.29
649.256	9999.72
649.449	10130.79
649.642	10261.86
649.835	9842.03
650.027	9942.38
650.22	9809.26
650.413	9854.31
650.605	9909.61
650.798	9647.47
650.991	9561.45
651.183	9770.35
651.376	9497.97
651.568	9395.57
651.761	9577.84
651.954	9278.83
652.146	9448.82
652.339	9225.59
652.531	9252.21
652.724	9340.27
652.916	9071.99
653.109	9348.47
653.301	9053.56
653.494	9205.11
653.686	8791.42
653.879	8953.21
654.071	8910.2
654.263	8791.42
654.456	8594.81
654.648	8803.71
654.84	8545.66
655.033	8777.08
655.225	8560
655.417	8455.55
655.61	8658.3
655.802	8557.95
655.994	8244.61
656.186	8451.46
656.379	8387.97
656.571	8267.14
656.763	8072.58
656.955	8062.34
657.148	8185.22
657.34	8084.87
657.532	8002.95
657.724	7878.02
657.916	7898.5
658.108	7826.82
658.3	7847.3
658.492	7869.83
658.684	7779.72
658.876	7869.83
659.068	7804.3
659.26	7574.92
659.452	7589.26
659.644	7679.37
659.836	7511.44
660.028	7697.8
660.22	7392.66
660.412	7372.18
660.604	7204.24
660.796	7386.51
660.988	7288.21
661.18	7349.65
661.372	7122.32
661.563	7363.98
661.755	6976.92
661.947	7069.08
662.139	7130.52
662.331	6997.4
662.522	7015.83
662.714	7091.6
662.906	6884.76
663.097	6938.01
663.289	6858.14
663.481	6813.08
663.673	6727.07
663.864	6725.02
664.056	6776.22
664.247	6649.24
664.439	6636.95
664.631	6747.55
664.822	6759.83
665.014	6438.3
665.205	6555.04
665.397	6593.95
665.588	6436.25
665.78	6417.82
665.971	6387.1
666.163	6497.69
666.354	6352.29
666.546	6294.94
666.737	6163.87
666.929	6143.39
667.12	6170.02
667.311	6256.03
667.503	6030.76
667.694	6143.39
667.885	6161.83
668.077	6014.37
668.268	6110.63
668.459	5981.6
668.651	5979.56
668.842	5860.77
669.033	6061.48
669.224	5789.1
669.416	5752.23
669.607	5975.46
669.798	5680.55
669.989	5821.86
670.18	5787.05
670.371	5780.9
670.563	5727.66
670.754	5658.03
670.945	5529
671.136	5678.51
671.327	5612.97
671.518	5649.83
671.709	5567.92
671.9	5516.72
672.091	5494.19
672.282	5473.71
672.473	5391.79
672.664	5615.02
672.855	5275.06
673.046	5516.72
673.237	5449.13
673.428	5385.65
673.619	5342.64
673.809	5236.14
674	5170.61
674.191	5186.99
674.382	5227.95
674.573	5131.7
674.764	5227.95
674.954	5053.87
675.145	5137.84
675.336	5166.51
675.527	5103.03
675.717	5131.7
675.908	5060.02
676.099	5250.48
676.289	5076.4
676.48	5053.87
676.671	5035.44
676.861	5080.5
677.052	4881.85
677.243	4982.2
677.433	4965.81
677.624	5021.11
677.814	4920.76
678.005	4824.5
678.195	4724.15
678.386	4816.31
678.576	4742.58
678.767	4797.88
678.957	4734.39
679.148	4783.54
679.338	4740.54
679.529	4724.15
679.719	4824.5
679.909	4736.44
680.1	4834.74
680.29	4713.91
680.481	4670.9
680.671	4785.59
680.861	4644.28
681.052	4691.38
681.242	4478.4
681.432	4617.66
681.622	4515.26
681.813	4621.75
682.003	4607.42
682.193	4615.61
682.383	4496.83
682.573	4365.76
682.764	4482.49
682.954	4459.96
683.144	4476.35
683.334	4656.57
683.524	4591.03
683.714	4457.92
683.904	4541.88
684.094	4574.65
684.284	4588.99
684.474	4617.66
684.664	4371.9
684.854	4439.48
685.044	4359.61
685.234	4390.33
685.424	4339.13
685.614	4343.23
685.804	4367.81
685.994	4359.61
686.184	4345.28
686.374	4197.82
686.564	4324.8
686.753	4267.45
686.943	4300.22
687.133	4220.35
687.323	4271.55
687.513	4091.33
687.702	4195.78
687.892	4220.35
688.082	4187.58
688.272	4255.17
688.461	4033.99
688.651	4152.77
688.841	3913.16
689.03	4013.51
689.22	3999.17
689.41	3993.03
689.599	3919.3
689.789	3986.88
689.979	3960.26
690.168	3845.57
690.358	3868.1
690.547	3976.64
690.737	3823.05
690.926	3864.01
691.116	3816.9
691.305	3827.14
691.495	3751.37
691.684	3747.27
691.874	3648.97
692.063	3687.88
692.252	3743.17
692.442	3610.06
692.631	3593.67
692.82	3661.26
693.01	3603.91
693.199	3605.96
693.388	3491.27
693.578	3591.63
693.767	3540.43
693.956	3413.45
694.146	3517.9
694.335	3368.4
694.524	3499.47
694.713	3421.64
694.902	3413.45
695.092	3427.79
695.281	3374.54
695.47	3343.82
695.659	3370.44
695.848	3311.05
696.037	3315.15
696.226	3337.68
696.415	3190.22
696.604	3327.44
696.793	3239.37
696.982	3204.56
697.171	3286.48
697.36	3214.8
697.549	3286.48
697.738	3149.26
697.927	3149.26
698.116	3243.47
698.305	3007.95
698.494	3122.64
698.683	3091.92
698.872	3163.6
699.061	3014.1
699.25	3063.25
699.438	3233.23
699.627	3069.39
699.816	3040.72
700.005	2958.8
700.193	2997.71
700.382	3010
700.571	2948.56
700.76	2950.61
700.948	3024.34
701.137	2921.94
701.326	2946.52
701.514	2895.32
701.703	2995.67
701.892	2987.47
702.08	2876.88
702.269	2895.32
702.457	2872.79
702.646	2844.12
702.834	2708.95
703.023	2837.97
703.212	2809.3
703.4	2848.21
703.589	2848.21
703.777	2874.84
703.965	2911.7
704.154	2797.01
704.342	2852.31
704.531	2754.01
704.719	2717.14
704.907	2893.27
705.096	2770.39
705.284	2696.66
705.472	2860.5
705.661	2754.01
705.849	2711
706.037	2819.54
706.226	2696.66
706.414	2803.16
706.602	2805.21
706.79	2842.07
706.979	2799.06
707.167	2784.73
707.355	2653.66
707.543	2792.92
707.731	2708.95
707.919	2780.63
708.107	2620.89
708.296	2588.12
708.484	2731.48
708.672	2735.57
708.86	2618.84
709.048	2747.86
709.236	2809.3
709.424	2700.76
709.612	2721.24
709.8	2786.77
709.988	2786.77
710.176	2794.97
710.364	2682.33
710.551	2647.51
710.739	2684.38
710.927	2573.78
711.115	2639.32
711.303	2647.51
711.491	2723.29
711.679	2614.74
711.866	2751.96
712.054	2655.7
712.242	2457.05
712.43	2696.66
712.617	2801.11
712.805	2741.72
712.993	2655.7
713.181	2719.19
713.368	2606.55
713.556	2577.88
713.744	2569.69
713.931	2702.81
714.119	2635.22
714.306	2774.49
714.494	2622.94
714.682	2799.06
714.869	2547.16
715.057	2721.24
715.244	2733.53
715.432	2674.14
715.619	2594.26
715.807	2772.44
715.994	2594.26
716.182	2610.65
716.369	2575.83
716.556	2598.36
716.744	2649.56
716.931	2604.5
717.119	2661.85
717.306	2676.18
717.493	2647.51
717.681	2602.46
717.868	2584.02
718.055	2624.98
718.242	2551.26
718.43	2641.37
718.617	2657.75
718.804	2706.9
718.991	2704.85
719.179	2614.74
719.366	2637.27
719.553	2659.8
719.74	2713.05
719.927	2661.85
720.114	2637.27
720.301	2627.03
720.488	2577.88
720.676	2506.2
720.863	2651.61
721.05	2620.89
721.237	2670.04
721.424	2571.74
721.611	2682.33
721.798	2545.11
721.985	2653.66
722.172	2602.46
722.358	2641.37
722.545	2713.05
722.732	2680.28
722.919	2594.26
723.106	2524.63
723.293	2692.57
723.48	2635.22
723.667	2706.9
723.853	2604.5
724.04	2715.09
724.227	2778.58
724.414	2610.65
724.6	2684.38
724.787	2725.33
724.974	2559.45
725.161	2598.36
725.347	2596.31
725.534	2645.46
725.72	2608.6
725.907	2704.85
726.094	2719.19
726.28	2715.09
726.467	2686.42
726.653	2659.8
726.84	2667.99
727.027	2663.9
727.213	2606.55
727.4	2784.73
727.586	2571.74
727.773	2553.31
727.959	2600.41
728.145	2606.55
728.332	2651.61
728.518	2760.15
728.705	2706.9
728.891	2684.38
729.077	2627.03
729.264	2616.79
729.45	2581.98
729.636	2667.99
729.823	2624.98
730.009	2680.28
730.195	2702.81
730.382	2684.38
730.568	2627.03
730.754	2659.8
730.94	2647.51
731.126	2567.64
731.313	2667.99
731.499	2653.66
731.685	2590.17
731.871	2536.92
732.057	2686.42
732.243	2661.85
732.429	2735.57
732.615	2639.32
732.801	2698.71
732.987	2532.83
733.173	2592.22
733.359	2581.98
733.545	2614.74
733.731	2715.09
733.917	2676.18
734.103	2678.23
734.289	2581.98
734.475	2547.16
734.661	2516.44
734.847	2667.99
735.033	2735.57
735.219	2670.04
735.404	2614.74
735.59	2682.33
735.776	2655.7
735.962	2534.87
736.148	2672.09
736.333	2758.1
736.519	2559.45
736.705	2647.51
736.89	2483.67
737.076	2711
737.262	2520.54
737.447	2614.74
737.633	2467.29
737.819	2563.54
738.004	2493.91
738.19	2471.39
738.375	2479.58
738.561	2651.61
738.747	2545.11
738.932	2467.29
739.118	2461.15
739.303	2631.13
739.489	2573.78
739.674	2467.29
739.859	2555.35
740.045	2430.43
740.23	2571.74
740.416	2491.87
740.601	2600.41
740.786	2530.78
740.972	2534.87
741.157	2469.34
741.342	2305.5
741.528	2463.19
741.713	2473.43
741.898	2491.87
742.084	2379.23
742.269	2371.04
742.454	2379.23
742.639	2407.9
742.824	2469.34
743.01	2444.76
743.195	2434.52
743.38	2270.69
743.565	2446.81
743.75	2412
743.935	2242.01
744.12	2377.18
744.305	2313.69
744.49	2301.4
744.675	2336.22
744.86	2391.52
745.045	2244.06
745.23	2254.3
745.415	2274.78
745.6	2219.49
745.785	2274.78
745.97	2285.02
746.155	2143.71
746.34	2278.88
746.525	2098.66
746.71	2209.25
746.895	2143.71
747.079	2215.39
747.264	2219.49
747.449	2160.1
747.634	2080.22
747.819	2016.74
748.003	2074.08
748.188	2072.03
748.373	2031.07
748.557	1957.35
748.742	1973.73
748.927	2096.61
749.111	1986.02
749.296	1859.04
749.481	1951.2
749.665	2022.88
749.85	1889.76
750.034	1977.83
750.219	1965.54
750.404	1889.76
750.588	1857
750.773	1910.24
750.957	1803.75
751.141	1889.76
751.326	1959.39
751.51	1760.74
751.695	1881.57
751.879	1832.42
752.064	1920.48
752.248	1762.79
752.432	1832.42
752.617	1828.32
752.801	1785.32
752.985	1711.59
753.17	1709.54
753.354	1650.15
753.538	1740.26
753.722	1687.01
753.907	1637.86
754.091	1674.73
754.275	1701.35
754.459	1590.76
754.643	1564.14
754.828	1639.91
755.012	1621.48
755.196	1582.57
755.38	1639.91
755.564	1512.94
755.748	1553.9
755.932	1580.52
756.116	1508.84
756.3	1574.38
756.484	1566.18
756.668	1574.38
756.852	1523.18
757.036	1541.61
757.22	1492.46
757.404	1496.55
757.588	1404.39
757.772	1498.6
757.956	1488.36
758.14	1424.87
758.323	1385.96
758.507	1484.27
758.691	1392.11
758.875	1433.07
759.059	1467.88
759.242	1414.63
759.426	1328.62
759.61	1304.04
759.794	1394.15
759.977	1439.21
760.161	1363.44
760.345	1334.76
760.528	1316.33
760.712	1408.49
760.895	1330.67
761.079	1242.61
761.263	1220.08
761.446	1293.8
761.63	1234.41
761.813	1261.04
761.997	1269.23
762.18	1226.22
762.364	1363.44
762.547	1252.84
762.731	1263.08
762.914	1238.51
763.098	1041.9
763.281	1230.32
763.464	1242.61
763.648	1246.7
763.831	1224.17
764.015	1134.06
764.198	1185.26
764.381	1164.78
764.564	1117.68
764.748	1224.17
764.931	1070.58
765.114	1166.83
765.297	1146.35
765.481	1127.92
765.664	1150.45
765.847	1048.05
766.03	1154.54
766.213	1091.06
766.397	1138.16
766.58	1191.41
766.763	1148.4
766.946	1140.21
767.129	1115.63
767.312	1140.21
767.495	1084.91
767.678	1056.24
767.861	1025.52
768.044	1146.35
768.227	1078.77
768.41	1070.58
768.593	1021.42
768.776	970.23
768.959	1082.86
769.142	1043.95
769.324	1031.66
769.507	1048.05
769.69	1002.99
769.873	998.9
770.056	1023.47
770.239	925.17
770.421	1048.05
770.604	1029.62
770.787	992.75
770.97	945.65
771.152	966.13
771.335	992.75
771.518	974.32
771.7	986.61
771.883	1009.14
772.066	966.13
772.248	933.36
772.431	998.9
772.613	914.93
772.796	951.79
772.978	968.18
773.161	966.13
773.343	964.08
773.526	869.87
773.708	873.97
773.891	849.4
774.073	908.79
774.256	923.12
774.438	886.26
774.621	828.92
774.803	769.52
774.985	820.72
775.168	777.72
775.35	814.58
775.532	853.49
775.715	816.63
775.897	826.87
776.079	820.72
776.261	779.76
776.444	884.21
776.626	736.76
776.808	833.01
776.99	800.24
777.173	761.33
777.355	824.82
777.537	744.95
777.719	771.57
777.901	720.37
778.083	712.18
778.265	656.89
778.447	818.68
778.629	718.33
778.811	675.32
778.993	740.85
779.175	771.57
779.357	716.28
779.539	736.76
779.721	738.8
779.903	744.95
780.085	632.31
780.267	710.13
780.449	753.14
780.631	671.22
780.812	775.67
780.994	671.22
781.176	648.69
781.358	677.37
781.54	622.07
781.721	636.41
781.903	679.41
782.085	636.41
782.267	632.31
782.448	691.7
782.63	542.2
782.812	632.31
782.993	474.62
783.175	605.69
783.357	615.93
783.538	587.26
783.72	572.92
783.901	603.64
784.083	546.3
784.264	574.97
784.446	599.54
784.627	517.62
784.809	513.53
784.99	488.95
785.172	628.21
785.353	515.58
785.535	597.49
785.716	519.67
785.897	542.2
786.079	550.39
786.26	507.38
786.441	527.86
786.623	491
786.804	486.9
786.985	456.19
787.167	507.38
787.348	495.1
787.529	470.52
787.71	474.62
787.891	460.28
788.073	456.19
788.254	394.75
788.435	447.99
788.616	452.09
788.797	493.05
788.978	468.47
789.159	384.51
789.34	437.75
789.522	404.99
789.703	361.98
789.884	425.47
790.065	417.27
790.246	400.89
790.427	390.65
790.607	478.71
790.788	361.98
790.969	441.85
791.15	433.66
791.331	435.71
791.512	439.8
791.693	396.79
791.874	431.61
792.054	411.13
792.235	437.75
792.416	325.12
792.597	390.65
792.778	409.08
792.958	370.17
793.139	413.18
793.32	323.07
793.5	366.07
793.681	450.04
793.862	370.17
794.042	443.9
794.223	294.4
794.404	335.35
794.584	382.46
794.765	321.02
794.945	364.03
795.126	400.89
795.306	390.65
795.487	312.83
795.667	329.21
795.848	263.68
796.028	316.92
796.209	292.35
796.389	402.94
796.57	288.25
796.75	316.92
796.93	310.78
797.111	310.78
797.291	288.25
797.471	288.25
797.652	335.35
797.832	273.92
798.012	341.5
798.192	218.62
798.373	292.35
798.553	306.68
798.733	255.48
798.913	214.52
799.093	335.35
799.274	294.4
799.454	345.59
799.634	339.45
799.814	267.77
799.994	380.41
800.174	302.59
800.354	321.02
800.534	357.88
800.714	296.44
800.894	312.83
801.074	245.24
801.254	253.44
801.434	282.11
801.614	235
801.794	280.06
801.974	628.21
802.154	300.54
802.334	224.76
802.514	292.35
802.693	226.81
802.873	284.16
803.053	296.44
803.233	308.73
803.413	255.48
803.592	200.19
803.772	142.85
803.952	189.95
804.131	200.19
804.311	263.68
804.491	329.21
804.67	237.05
804.85	224.76
805.03	257.53
805.209	310.78
805.389	194.05
805.568	208.38
805.748	263.68
805.928	261.63
806.107	206.33
806.287	220.67
806.466	181.76
806.646	261.63
806.825	269.82
807.004	228.86
807.184	282.11
807.363	214.52
807.543	144.89
807.722	247.29
807.901	232.96
808.081	275.96
808.26	179.71
808.439	148.99
808.619	243.2
808.798	194.05
808.977	230.91
809.156	210.43
809.336	263.68
809.515	259.58
809.694	200.19
809.873	181.76
810.052	200.19
810.231	175.61
810.411	181.76
810.59	235
810.769	226.81
810.948	208.38
811.127	144.89
811.306	189.95
811.485	198.14
811.664	218.62
811.843	120.32
812.022	183.81
812.201	235
812.38	155.13
812.559	136.7
812.737	138.75
812.916	228.86
813.095	161.28
813.274	171.52
813.453	124.41
813.632	140.8
813.811	155.13
813.989	138.75
814.168	259.58
814.347	116.22
814.526	202.24
814.704	148.99
814.883	97.79
815.062	148.99
815.24	155.13
815.419	132.61
815.598	255.48
815.776	151.04
815.955	148.99
816.133	130.56
816.312	155.13
816.49	116.22
816.669	136.7
816.847	181.76
817.026	77.31
817.204	148.99
817.383	136.7
817.561	118.27
817.74	187.9
817.918	128.51
818.097	105.98
818.275	65.02
818.453	163.33
818.632	175.61
818.81	208.38
818.988	114.17
819.167	138.75
819.345	142.85
819.523	114.17
819.701	179.71
819.879	202.24
820.058	124.41
820.236	228.86
820.414	136.7
820.592	148.99
820.77	218.62
820.948	97.79
821.127	187.9
821.305	95.74
821.483	108.03
821.661	148.99
821.839	165.37
822.017	103.93
822.195	124.41
822.373	153.09
822.551	75.26
822.729	157.18
822.907	108.03
823.085	142.85
823.262	97.79
823.44	128.51
823.618	-0.51
823.796	116.22
823.974	105.98
824.152	103.93
824.329	87.55
824.507	67.07
824.685	65.02
824.863	126.46
825.04	132.61
825.218	79.36
825.396	42.5
825.574	140.8
825.751	148.99
825.929	58.88
826.107	124.41
826.284	81.41
826.462	134.65
826.639	99.84
826.817	130.56
826.994	110.08
827.172	95.74
827.349	120.32
827.527	167.42
827.704	114.17
827.882	153.09
828.059	130.56
828.237	103.93
828.414	153.09
828.591	34.3
828.769	128.51
828.946	101.89
829.124	101.89
829.301	67.07
829.478	124.41
829.655	99.84
829.833	77.31
830.01	103.93
830.187	58.88
830.364	124.41
830.542	118.27
830.719	69.12
830.896	130.56
831.073	75.26
831.25	114.17
831.427	71.17
831.604	73.21
831.782	73.21
831.959	105.98
832.136	69.12
832.313	69.12
832.49	93.69
832.667	120.32
832.844	83.45
833.021	108.03
833.198	36.35
833.374	157.18
833.551	58.88
833.728	108.03
833.905	69.12
834.082	52.74
834.259	56.83
834.436	155.13
834.612	38.4
834.789	83.45
834.966	108.03
835.143	97.79
835.319	69.12
835.496	136.7
835.673	44.54
835.85	50.69
836.026	48.64
836.203	103.93
836.38	58.88
836.556	48.64
836.733	114.17
836.909	71.17
837.086	85.5
837.262	103.93
837.439	128.51
837.616	36.35
837.792	97.79
837.968	52.74
838.145	13.82
838.321	62.98
838.498	54.78
838.674	11.78
838.851	48.64
839.027	26.11
839.203	42.5
839.38	122.37
839.556	67.07
839.732	-6.66
839.909	75.26
840.085	97.79
840.261	67.07
840.437	62.98
840.614	-2.56
840.79	108.03
840.966	69.12
841.142	5.63
841.318	-8.7
841.494	77.31
841.671	120.32
841.847	65.02
842.023	91.65
842.199	62.98
842.375	62.98
842.551	44.54
842.727	34.3
842.903	56.83
843.079	32.26
843.255	54.78
843.431	42.5
843.607	19.97
843.783	1.54
843.959	50.69
844.134	34.3
844.31	56.83
844.486	99.84
844.662	65.02
844.838	-12.8
845.013	24.06
845.189	15.87
845.365	60.93
845.541	95.74
845.716	-0.51
845.892	24.06
846.068	54.78
846.244	46.59
846.419	58.88
846.595	-12.8
846.77	62.98
846.946	97.79
847.122	30.21
847.297	69.12
847.473	73.21
847.648	-4.61
847.824	34.3
847.999	30.21
848.175	22.02
848.35	19.97
848.526	85.5
848.701	34.3
848.876	46.59
849.052	36.35
849.227	-51.71
849.403	65.02
849.578	85.5
849.753	75.26
849.929	75.26
850.104	56.83
850.279	-16.9
850.454	-27.14
850.63	22.02
850.805	38.4
850.98	-41.47
851.155	69.12
851.33	52.74
851.505	17.92
851.681	17.92
851.856	38.4
852.031	42.5
852.206	-12.8
852.381	9.73
852.556	-16.9
852.731	34.3
852.906	-10.75
853.081	46.59
853.256	42.5
853.431	5.63
853.606	95.74
853.781	1.54
853.956	34.3
854.131	7.68
854.305	67.07
854.48	-27.14
854.655	19.97
854.83	1.54
855.005	24.06
855.18	30.21
855.354	99.84
855.529	97.79
855.704	-8.7
855.879	67.07
856.053	40.45
856.228	9.73
856.403	-2.56
856.577	24.06
856.752	3.58
856.926	1.54
857.101	46.59
857.276	-8.7
857.45	120.32
857.625	60.93
857.799	-29.18
857.974	65.02
858.148	50.69
858.323	34.3
858.497	-18.94
858.672	-16.9
858.846	11.78
859.02	81.41
859.195	-29.18
859.369	13.82
859.543	5.63
859.718	7.68
859.892	19.97
860.066	34.3
860.241	-18.94
860.415	19.97
860.589	67.07
860.763	30.21
860.938	108.03
861.112	-37.38
861.286	42.5
861.46	42.5
861.634	1.54
861.808	36.35
861.982	19.97
862.157	34.3
862.331	44.54
862.505	9.73
862.679	24.06
862.853	60.93
863.027	83.45
863.201	60.93
863.375	54.78
863.549	13.82
863.722	26.11
863.896	44.54
864.07	28.16
864.244	-18.94
864.418	11.78
864.592	91.65
864.766	-18.94
864.939	19.97
865.113	-41.47
865.287	-2.56
865.461	-0.51
865.634	42.5
865.808	-53.76
865.982	26.11
866.156	26.11
866.329	9.73
866.503	-10.75
866.676	15.87
866.85	-39.42
867.024	-23.04
867.197	22.02
867.371	-18.94
867.544	15.87
867.718	-10.75
867.891	-2.56
868.065	11.78
868.238	-2.56
868.412	34.3
868.585	-2.56
868.759	-12.8
868.932	38.4
869.105	28.16
869.279	30.21
869.452	1.54
869.625	-82.43
869.799	48.64
869.972	34.3
870.145	36.35
870.319	30.21
870.492	110.08
870.665	-64
870.838	32.26
871.011	-14.85
871.185	30.21
871.358	9.73
871.531	9.73
871.704	28.16
871.877	17.92
872.05	81.41
872.223	-31.23
872.396	24.06
872.569	52.74
872.742	-2.56
872.915	-57.86
873.088	9.73
873.261	-14.85
873.434	26.11
873.607	-10.75
873.78	26.11
873.953	65.02
874.126	7.68
874.299	22.02
874.471	26.11
874.644	-14.85
874.817	54.78
874.99	-6.66
875.163	73.21
875.335	-43.52
875.508	67.07
875.681	89.6
875.853	-4.61
876.026	38.4
876.199	-64
876.371	99.84
876.544	65.02
876.717	42.5
876.889	7.68
877.062	-2.56
877.234	-47.62
877.407	-20.99
877.579	54.78
877.752	26.11
877.924	-14.85
878.097	28.16
878.269	1.54
878.442	17.92
878.614	-23.04
878.786	26.11
878.959	7.68
879.131	75.26
879.303	-51.71
879.476	62.98
879.648	81.41
879.82	15.87
879.993	-8.7
880.165	13.82
880.337	17.92
880.509	11.78
880.681	-29.18
880.854	-29.18
881.026	-10.75
881.198	62.98
881.37	-10.75
881.542	-31.23
881.714	13.82
881.886	-10.75
882.058	-8.7
882.23	22.02
882.402	-41.47
882.574	-23.04
882.746	50.69
882.918	-0.51
883.09	38.4
883.262	65.02
883.434	-0.51
883.606	-66.05
883.778	17.92
883.95	-64
884.122	-37.38
884.293	17.92
884.465	73.21
884.637	79.36
884.809	13.82
884.98	-8.7
885.152	19.97
885.324	101.89
885.496	42.5
885.667	28.16
885.839	44.54
886.011	13.82
886.182	30.21
886.354	79.36
886.525	-2.56
886.697	-4.61
886.869	9.73
887.04	-23.04
887.212	7.68
887.383	-20.99
887.555	-16.9
887.726	50.69
887.897	-51.71
888.069	-25.09
888.24	34.3
888.412	19.97
888.583	-82.43
888.754	-18.94
888.926	-117.25
889.097	-10.75
889.268	48.64
889.44	17.92
889.611	-47.62
889.782	17.92
889.953	-35.33
890.125	44.54
890.296	17.92
890.467	36.35
890.638	-16.9
890.809	-66.05
890.98	-31.23
891.151	-12.8
891.323	26.11
891.494	44.54
891.665	-57.86
891.836	42.5
892.007	28.16
892.178	-14.85
892.349	-45.57
892.52	-18.94
892.691	-35.33
892.862	-18.94
893.032	-70.14
893.203	-0.51
893.374	9.73
893.545	15.87
893.716	13.82
893.887	-23.04
894.057	36.35
894.228	-43.52
894.399	-33.28
894.57	-27.14
894.74	-6.66
894.911	-6.66
895.082	9.73
895.253	75.26
895.423	-18.94
895.594	40.45
895.764	34.3
895.935	7.68
896.106	1.54
896.276	9.73
896.447	-23.04
896.617	7.68
896.788	-29.18
896.958	-33.28
897.129	-47.62
897.299	9.73
897.47	65.02
897.64	30.21
897.81	-41.47
897.981	-43.52
898.151	-27.14
898.322	-25.09
898.492	71.17
898.662	-66.05
898.832	-49.66
899.003	26.11
899.173	-0.51
899.343	-14.85
899.513	-47.62
