Data from USB4F104151__22__11-36-34-247.txt Node

Date: Fri Mar 14 11:36:34 EDT 2025
User: louis
Spectrometer: USB4F10415
Trigger mode: 4
Integration Time (sec): 2.000000E-2
Scans to average: 1
Electric dark correction enabled: true
Nonlinearity correction enabled: false
Boxcar width: 0
XAxis mode: Wavelengths
Number of Pixels in Spectrum: 3648
>>>>>Begin Spectral Data<<<<<
178.204	-66.73
178.424	-66.73
178.644	-66.73
178.864	4.95
179.084	-70.83
179.304	2.9
179.524	-27.82
179.744	11.09
179.964	-52.39
180.184	37.72
180.404	19.29
180.624	-50.35
180.844	7
181.064	-44.2
181.283	-23.72
181.503	60.24
181.723	60.24
181.943	23.38
182.163	-15.53
182.383	-9.39
182.602	19.29
182.822	-13.48
183.042	68.44
183.262	-13.48
183.482	11.09
183.701	-13.48
183.921	-50.35
184.141	45.91
184.361	56.15
184.58	66.39
184.8	-13.48
185.02	19.29
185.239	45.91
185.459	11.09
185.679	107.35
185.898	-29.87
186.118	105.3
186.338	56.15
186.557	-23.72
186.777	15.19
186.997	64.34
187.216	23.38
187.436	29.52
187.655	4.95
187.875	25.43
188.095	-7.34
188.314	39.76
188.534	-27.82
188.753	0.85
188.973	29.52
189.192	74.58
189.412	60.24
189.631	-5.29
189.851	119.64
190.07	129.88
190.29	7
190.509	-5.29
190.729	-1.19
190.948	11.09
191.168	80.72
191.387	56.15
191.607	-1.19
191.826	19.29
192.045	19.29
192.265	15.19
192.484	11.09
192.704	47.96
192.923	-1.19
193.142	62.29
193.362	66.39
193.581	50
193.8	39.76
194.02	115.54
194.239	66.39
194.458	7
194.678	-38.06
194.897	43.86
195.116	7
195.335	31.57
195.555	2.9
195.774	99.16
195.993	-48.3
196.212	35.67
196.432	43.86
196.651	43.86
196.87	-27.82
197.089	50
197.308	29.52
197.528	95.06
197.747	31.57
197.966	109.4
198.185	50
198.404	66.39
198.623	25.43
198.842	2.9
199.062	35.67
199.281	88.92
199.5	-15.53
199.719	56.15
199.938	-9.39
200.157	97.11
200.376	-27.82
200.595	74.58
200.814	-25.77
201.033	13.14
201.252	78.68
201.471	19.29
201.69	52.05
201.909	-25.77
202.128	68.44
202.347	70.48
202.566	23.38
202.785	74.58
203.004	-15.53
203.223	52.05
203.442	2.9
203.661	39.76
203.879	27.48
204.098	78.68
204.317	43.86
204.536	95.06
204.755	-17.58
204.974	-33.96
205.193	-33.96
205.411	125.78
205.63	41.81
205.849	11.09
206.068	68.44
206.287	-38.06
206.505	39.76
206.724	52.05
206.943	19.29
207.162	-83.11
207.381	45.91
207.599	23.38
207.818	-5.29
208.037	15.19
208.255	19.29
208.474	-17.58
208.693	37.72
208.911	-5.29
209.13	-46.25
209.349	78.68
209.567	-17.58
209.786	43.86
210.005	66.39
210.223	66.39
210.442	41.81
210.661	56.15
210.879	19.29
211.098	21.33
211.316	15.19
211.535	-5.29
211.753	-3.24
211.972	23.38
212.191	-21.67
212.409	109.4
212.628	-17.58
212.846	37.72
213.065	88.92
213.283	60.24
213.502	41.81
213.72	7
213.938	17.24
214.157	23.38
214.375	-42.15
214.594	-9.39
214.812	70.48
215.031	-3.24
215.249	4.95
215.467	4.95
215.686	-7.34
215.904	35.67
216.122	2.9
216.341	33.62
216.559	17.24
216.778	-11.43
216.996	-23.72
217.214	27.48
217.432	47.96
217.651	45.91
217.869	47.96
218.087	35.67
218.306	7
218.524	140.12
218.742	35.67
218.96	50
219.179	43.86
219.397	-9.39
219.615	156.5
219.833	74.58
220.051	27.48
220.27	45.91
220.488	31.57
220.706	31.57
220.924	-46.25
221.142	-9.39
221.36	9.05
221.578	-17.58
221.796	66.39
222.015	33.62
222.233	23.38
222.451	105.3
222.669	33.62
222.887	60.24
223.105	25.43
223.323	50
223.541	-54.44
223.759	29.52
223.977	-11.43
224.195	9.05
224.413	11.09
224.631	-27.82
224.849	41.81
225.067	9.05
225.285	0.85
225.503	101.2
225.721	19.29
225.939	17.24
226.157	-64.68
226.375	93.01
226.592	74.58
226.81	95.06
227.028	82.77
227.246	27.48
227.464	58.2
227.682	95.06
227.9	-29.87
228.117	29.52
228.335	50
228.553	45.91
228.771	39.76
228.989	76.63
229.206	27.48
229.424	25.43
229.642	70.48
229.86	0.85
230.077	-40.11
230.295	52.05
230.513	84.82
230.731	35.67
230.948	11.09
231.166	33.62
231.384	43.86
231.601	72.53
231.819	-27.82
232.037	60.24
232.254	-89.26
232.472	-68.78
232.689	103.25
232.907	21.33
233.125	-13.48
233.342	7
233.56	-15.53
233.777	86.87
233.995	60.24
234.213	45.91
234.43	84.82
234.648	25.43
234.865	-3.24
235.083	27.48
235.3	-13.48
235.518	29.52
235.735	37.72
235.953	31.57
236.17	19.29
236.388	52.05
236.605	-50.35
236.822	68.44
237.04	7
237.257	2.9
237.475	-25.77
237.692	43.86
237.909	54.1
238.127	-52.39
238.344	82.77
238.562	66.39
238.779	76.63
238.996	-3.24
239.214	-27.82
239.431	43.86
239.648	37.72
239.865	25.43
240.083	43.86
240.3	35.67
240.517	-60.59
240.735	33.62
240.952	39.76
241.169	60.24
241.386	27.48
241.603	52.05
241.821	-15.53
242.038	45.91
242.255	82.77
242.472	-29.87
242.689	95.06
242.907	82.77
243.124	72.53
243.341	25.43
243.558	33.62
243.775	84.82
243.992	27.48
244.209	27.48
244.426	109.4
244.643	64.34
244.86	70.48
245.078	9.05
245.295	21.33
245.512	90.96
245.729	47.96
245.946	101.2
246.163	66.39
246.38	50
246.597	-5.29
246.814	80.72
247.031	70.48
247.248	35.67
247.464	70.48
247.681	-1.19
247.898	39.76
248.115	70.48
248.332	41.81
248.549	41.81
248.766	82.77
248.983	74.58
249.2	-13.48
249.417	58.2
249.633	50
249.85	4.95
250.067	-13.48
250.284	11.09
250.501	62.29
250.717	-9.39
250.934	9.05
251.151	13.14
251.368	11.09
251.585	2.9
251.801	27.48
252.018	45.91
252.235	-5.29
252.451	-21.67
252.668	-58.54
252.885	-15.53
253.102	58.2
253.318	2.9
253.535	7
253.752	4.95
253.968	-50.35
254.185	43.86
254.401	7
254.618	88.92
254.835	13.14
255.051	37.72
255.268	-21.67
255.484	33.62
255.701	17.24
255.917	93.01
256.134	27.48
256.351	27.48
256.567	-1.19
256.784	117.59
257	-25.77
257.217	72.53
257.433	72.53
257.65	58.2
257.866	41.81
258.082	72.53
258.299	-42.15
258.515	11.09
258.732	31.57
258.948	13.14
259.165	84.82
259.381	58.2
259.597	72.53
259.814	-5.29
260.03	-25.77
260.246	-5.29
260.463	45.91
260.679	109.4
260.895	101.2
261.112	66.39
261.328	25.43
261.544	27.48
261.761	56.15
261.977	31.57
262.193	-5.29
262.409	93.01
262.626	17.24
262.842	56.15
263.058	-3.24
263.274	2.9
263.49	0.85
263.707	39.76
263.923	19.29
264.139	50
264.355	76.63
264.571	35.67
264.787	13.14
265.004	80.72
265.22	54.1
265.436	-23.72
265.652	-48.3
265.868	76.63
266.084	11.09
266.3	-21.67
266.516	-11.43
266.732	19.29
266.948	78.68
267.164	15.19
267.38	50
267.596	35.67
267.812	68.44
268.028	35.67
268.244	25.43
268.46	86.87
268.676	43.86
268.892	58.2
269.108	43.86
269.324	35.67
269.54	11.09
269.756	60.24
269.972	-7.34
270.188	150.36
270.403	35.67
270.619	-64.68
270.835	41.81
271.051	17.24
271.267	86.87
271.483	-52.39
271.698	-17.58
271.914	43.86
272.13	54.1
272.346	-1.19
272.562	-38.06
272.777	-1.19
272.993	68.44
273.209	113.49
273.425	56.15
273.64	-25.77
273.856	7
274.072	9.05
274.287	82.77
274.503	82.77
274.719	107.35
274.934	60.24
275.15	93.01
275.366	76.63
275.581	-21.67
275.797	43.86
276.012	13.14
276.228	90.96
276.444	27.48
276.659	31.57
276.875	58.2
277.09	74.58
277.306	19.29
277.521	84.82
277.737	23.38
277.952	23.38
278.168	-15.53
278.383	-9.39
278.599	13.14
278.814	4.95
279.03	17.24
279.245	45.91
279.461	50
279.676	-3.24
279.892	-17.58
280.107	-27.82
280.322	31.57
280.538	-11.43
280.753	33.62
280.969	7
281.184	58.2
281.399	37.72
281.615	21.33
281.83	74.58
282.045	66.39
282.26	35.67
282.476	-5.29
282.691	39.76
282.906	2.9
283.122	39.76
283.337	11.09
283.552	103.25
283.767	-46.25
283.983	60.24
284.198	39.76
284.413	-1.19
284.628	4.95
284.843	25.43
285.058	-17.58
285.274	60.24
285.489	50
285.704	25.43
285.919	-29.87
286.134	78.68
286.349	35.67
286.564	-23.72
286.779	76.63
286.995	56.15
287.21	4.95
287.425	-1.19
287.64	-50.35
287.855	58.2
288.07	-64.68
288.285	60.24
288.5	76.63
288.715	52.05
288.93	52.05
289.145	-23.72
289.36	74.58
289.575	21.33
289.79	-11.43
290.004	-58.54
290.219	45.91
290.434	23.38
290.649	7
290.864	82.77
291.079	90.96
291.294	39.76
291.509	4.95
291.724	-44.2
291.938	58.2
292.153	35.67
292.368	56.15
292.583	84.82
292.798	45.91
293.012	62.29
293.227	43.86
293.442	64.34
293.657	99.16
293.871	76.63
294.086	76.63
294.301	95.06
294.516	37.72
294.73	62.29
294.945	37.72
295.16	-52.39
295.374	68.44
295.589	138.07
295.804	4.95
296.018	31.57
296.233	90.96
296.447	23.38
296.662	-5.29
296.877	78.68
297.091	105.3
297.306	101.2
297.52	60.24
297.735	60.24
297.949	-21.67
298.164	9.05
298.378	35.67
298.593	19.29
298.807	7
299.022	125.78
299.236	35.67
299.451	17.24
299.665	35.67
299.88	64.34
300.094	0.85
300.309	56.15
300.523	109.4
300.737	31.57
300.952	23.38
301.166	29.52
301.381	33.62
301.595	74.58
301.809	-13.48
302.024	47.96
302.238	-33.96
302.452	19.29
302.667	11.09
302.881	52.05
303.095	-5.29
303.309	74.58
303.524	33.62
303.738	72.53
303.952	43.86
304.166	-13.48
304.381	27.48
304.595	-21.67
304.809	19.29
305.023	39.76
305.237	4.95
305.452	-42.15
305.666	88.92
305.88	64.34
306.094	9.05
306.308	74.58
306.522	0.85
306.736	43.86
306.95	64.34
307.164	37.72
307.379	103.25
307.593	88.92
307.807	11.09
308.021	88.92
308.235	-25.77
308.449	25.43
308.663	23.38
308.877	70.48
309.091	88.92
309.305	39.76
309.519	27.48
309.733	23.38
309.947	-3.24
310.161	82.77
310.374	-70.83
310.588	-13.48
310.802	7
311.016	19.29
311.23	80.72
311.444	60.24
311.658	19.29
311.872	-25.77
312.085	131.92
312.299	19.29
312.513	72.53
312.727	2.9
312.941	-21.67
313.154	82.77
313.368	-1.19
313.582	115.54
313.796	68.44
314.009	43.86
314.223	-9.39
314.437	60.24
314.651	74.58
314.864	37.72
315.078	35.67
315.292	-13.48
315.505	56.15
315.719	9.05
315.933	23.38
316.146	11.09
316.36	17.24
316.573	68.44
316.787	56.15
317.001	142.16
317.214	19.29
317.428	68.44
317.641	-15.53
317.855	19.29
318.068	17.24
318.282	82.77
318.495	35.67
318.709	33.62
318.922	52.05
319.136	101.2
319.349	-1.19
319.563	66.39
319.776	-19.63
319.99	35.67
320.203	31.57
320.417	39.76
320.63	72.53
320.843	58.2
321.057	60.24
321.27	93.01
321.483	35.67
321.697	-11.43
321.91	66.39
322.124	17.24
322.337	27.48
322.55	-42.15
322.763	33.62
322.977	43.86
323.19	45.91
323.403	60.24
323.617	74.58
323.83	60.24
324.043	64.34
324.256	54.1
324.469	-9.39
324.683	21.33
324.896	136.02
325.109	21.33
325.322	-31.91
325.535	39.76
325.748	50
325.962	0.85
326.175	117.59
326.388	45.91
326.601	33.62
326.814	0.85
327.027	56.15
327.24	76.63
327.453	-72.87
327.666	105.3
327.879	27.48
328.092	93.01
328.305	11.09
328.518	78.68
328.731	74.58
328.944	25.43
329.157	99.16
329.37	43.86
329.583	66.39
329.796	66.39
330.009	35.67
330.222	154.45
330.435	15.19
330.648	31.57
330.861	66.39
331.073	60.24
331.286	127.83
331.499	45.91
331.712	33.62
331.925	15.19
332.138	21.33
332.35	93.01
332.563	-19.63
332.776	117.59
332.989	72.53
333.202	74.58
333.414	33.62
333.627	25.43
333.84	-25.77
334.053	70.48
334.265	-5.29
334.478	101.2
334.691	52.05
334.903	82.77
335.116	60.24
335.329	-9.39
335.541	68.44
335.754	99.16
335.966	-15.53
336.179	60.24
336.392	-13.48
336.604	74.58
336.817	80.72
337.029	41.81
337.242	29.52
337.454	45.91
337.667	52.05
337.88	43.86
338.092	76.63
338.305	-29.87
338.517	-19.63
338.729	72.53
338.942	74.58
339.154	27.48
339.367	-23.72
339.579	52.05
339.792	23.38
340.004	152.4
340.217	52.05
340.429	27.48
340.641	17.24
340.854	84.82
341.066	-3.24
341.278	97.11
341.491	115.54
341.703	95.06
341.915	25.43
342.128	43.86
342.34	123.73
342.552	58.2
342.764	11.09
342.977	113.49
343.189	97.11
343.401	72.53
343.613	35.67
343.826	68.44
344.038	84.82
344.25	97.11
344.462	-13.48
344.674	72.53
344.886	39.76
345.099	103.25
345.311	66.39
345.523	27.48
345.735	23.38
345.947	47.96
346.159	45.91
346.371	56.15
346.583	29.52
346.795	60.24
347.007	41.81
347.219	78.68
347.431	7
347.643	62.29
347.855	56.15
348.067	113.49
348.279	25.43
348.491	45.91
348.703	99.16
348.915	41.81
349.127	19.29
349.339	52.05
349.551	7
349.763	43.86
349.975	80.72
350.187	39.76
350.399	68.44
350.61	54.1
350.822	29.52
351.034	52.05
351.246	62.29
351.458	93.01
351.669	76.63
351.881	19.29
352.093	150.36
352.305	191.31
352.517	56.15
352.728	35.67
352.94	2.9
353.152	-42.15
353.363	101.2
353.575	82.77
353.787	66.39
353.999	68.44
354.21	99.16
354.422	70.48
354.633	93.01
354.845	97.11
355.057	4.95
355.268	4.95
355.48	70.48
355.692	-1.19
355.903	47.96
356.115	80.72
356.326	23.38
356.538	103.25
356.749	105.3
356.961	15.19
357.172	25.43
357.384	2.9
357.595	62.29
357.807	15.19
358.018	76.63
358.23	17.24
358.441	88.92
358.653	35.67
358.864	-3.24
359.075	39.76
359.287	97.11
359.498	35.67
359.709	133.97
359.921	15.19
360.132	13.14
360.344	11.09
360.555	29.52
360.766	74.58
360.977	33.62
361.189	37.72
361.4	19.29
361.611	58.2
361.823	23.38
362.034	64.34
362.245	25.43
362.456	27.48
362.667	39.76
362.879	50
363.09	23.38
363.301	31.57
363.512	82.77
363.723	64.34
363.935	52.05
364.146	117.59
364.357	56.15
364.568	99.16
364.779	35.67
364.99	105.3
365.201	76.63
365.412	56.15
365.623	45.91
365.834	39.76
366.045	17.24
366.256	39.76
366.467	109.4
366.678	47.96
366.889	9.05
367.1	66.39
367.311	54.1
367.522	93.01
367.733	52.05
367.944	-31.91
368.155	-21.67
368.366	90.96
368.577	82.77
368.788	111.44
368.999	11.09
369.209	62.29
369.42	76.63
369.631	146.26
369.842	115.54
370.053	80.72
370.264	90.96
370.474	45.91
370.685	27.48
370.896	119.64
371.107	27.48
371.317	68.44
371.528	107.35
371.739	88.92
371.95	105.3
372.16	142.16
372.371	43.86
372.582	66.39
372.792	27.48
373.003	78.68
373.214	74.58
373.424	25.43
373.635	52.05
373.846	56.15
374.056	21.33
374.267	17.24
374.477	76.63
374.688	90.96
374.898	50
375.109	95.06
375.319	41.81
375.53	31.57
375.74	52.05
375.951	0.85
376.161	76.63
376.372	99.16
376.582	58.2
376.793	68.44
377.003	56.15
377.214	56.15
377.424	23.38
377.635	58.2
377.845	50
378.055	74.58
378.266	15.19
378.476	93.01
378.686	33.62
378.897	93.01
379.107	31.57
379.317	66.39
379.528	47.96
379.738	76.63
379.948	52.05
380.158	23.38
380.369	68.44
380.579	82.77
380.789	-7.34
380.999	99.16
381.21	97.11
381.42	101.2
381.63	39.76
381.84	29.52
382.05	60.24
382.261	43.86
382.471	-27.82
382.681	19.29
382.891	72.53
383.101	27.48
383.311	60.24
383.521	66.39
383.731	107.35
383.941	35.67
384.151	66.39
384.361	74.58
384.571	93.01
384.781	33.62
384.991	101.2
385.201	76.63
385.411	64.34
385.621	76.63
385.831	66.39
386.041	93.01
386.251	37.72
386.461	111.44
386.671	99.16
386.881	158.55
387.091	70.48
387.301	97.11
387.511	47.96
387.72	29.52
387.93	47.96
388.14	54.1
388.35	88.92
388.56	133.97
388.769	43.86
388.979	9.05
389.189	37.72
389.399	35.67
389.609	121.68
389.818	138.07
390.028	76.63
390.238	142.16
390.447	23.38
390.657	84.82
390.867	131.92
391.076	9.05
391.286	93.01
391.496	68.44
391.705	4.95
391.915	103.25
392.125	90.96
392.334	80.72
392.544	21.33
392.753	99.16
392.963	88.92
393.172	84.82
393.382	68.44
393.591	74.58
393.801	58.2
394.01	103.25
394.22	78.68
394.429	144.21
394.639	93.01
394.848	64.34
395.058	82.77
395.267	43.86
395.477	82.77
395.686	109.4
395.895	117.59
396.105	109.4
396.314	99.16
396.524	97.11
396.733	93.01
396.942	58.2
397.152	140.12
397.361	117.59
397.57	72.53
397.78	133.97
397.989	88.92
398.198	72.53
398.407	160.59
398.617	131.92
398.826	72.53
399.035	117.59
399.244	119.64
399.453	82.77
399.663	121.68
399.872	105.3
400.081	103.25
400.29	117.59
400.499	174.93
400.708	181.07
400.917	68.44
401.127	97.11
401.336	68.44
401.545	60.24
401.754	154.45
401.963	93.01
402.172	111.44
402.381	121.68
402.59	105.3
402.799	99.16
403.008	213.84
403.217	105.3
403.426	107.35
403.635	127.83
403.844	105.3
404.053	97.11
404.262	121.68
404.471	148.31
404.68	224.08
404.888	119.64
405.097	129.88
405.306	213.84
405.515	131.92
405.724	148.31
405.933	254.8
406.142	181.07
406.35	160.59
406.559	172.88
406.768	154.45
406.977	144.21
407.185	236.37
407.394	205.65
407.603	215.89
407.812	318.29
408.02	267.09
408.229	203.6
408.438	256.85
408.646	273.23
408.855	199.51
409.064	238.42
409.272	260.95
409.481	277.33
409.69	318.29
409.898	224.08
410.107	269.14
410.315	295.76
410.524	306
410.733	303.95
410.941	379.73
411.15	398.16
411.358	437.07
411.567	363.34
411.775	441.17
411.984	344.91
412.192	414.54
412.401	441.17
412.609	551.76
412.818	525.13
413.026	478.03
413.234	551.76
413.443	467.79
413.651	605
413.86	566.09
414.068	725.83
414.276	645.96
414.485	607.05
414.693	607.05
414.901	672.59
415.11	750.41
415.318	740.17
415.526	639.82
415.734	813.9
415.943	881.48
416.151	826.18
416.359	899.91
416.567	916.3
416.776	912.2
416.984	932.68
417.192	975.69
417.4	1012.55
417.608	1010.5
417.817	1055.56
418.025	1084.23
418.233	1131.33
418.441	1164.1
418.649	1305.41
418.857	1352.51
419.065	1377.09
419.273	1301.31
419.481	1471.29
419.689	1409.86
419.897	1536.83
420.105	1473.34
420.313	1604.41
420.521	1610.56
420.729	1686.33
420.937	1747.77
421.145	1829.69
421.353	1848.12
421.561	1952.57
421.769	1952.57
421.977	2077.49
422.185	2130.74
422.393	2132.79
422.601	2403.12
422.809	2419.5
423.017	2456.37
423.224	2378.55
423.432	2612.01
423.64	2532.14
423.848	2788.14
424.056	2761.52
424.263	2949.93
424.471	2925.35
424.679	2968.36
424.887	3173.16
425.094	3212.07
425.302	3275.56
425.51	3320.61
425.718	3459.87
425.925	3572.51
426.133	3547.94
426.341	3824.41
426.548	4098.84
426.756	4107.03
426.964	4098.84
427.171	4299.54
427.379	4309.78
427.586	4473.62
427.794	4612.88
428.001	4885.26
428.209	5135.11
428.417	5081.86
428.624	5309.19
428.832	5409.54
429.039	5362.44
429.247	5305.09
429.454	5974.78
429.662	6122.23
429.869	5853.95
430.076	6189.81
430.284	6210.29
430.491	6208.25
430.699	6757.1
430.906	6798.06
431.114	6718.19
431.321	6980.33
431.528	7015.15
431.736	7404.26
431.943	7848.67
432.15	7625.44
432.358	7836.38
432.565	8063.71
432.772	8170.2
432.979	8573.65
433.187	8778.45
433.394	8800.98
433.601	9392.84
433.808	9310.92
434.016	9288.39
434.223	9788.1
434.43	10322.62
434.637	10103.48
434.844	10873.52
435.052	10955.44
435.259	10889.9
435.466	11012.78
435.673	10773.17
435.88	11524.77
436.087	12137.12
436.294	12102.3
436.501	12026.53
436.708	12188.32
436.915	12610.2
437.122	12892.82
437.329	13443.72
437.537	13441.67
437.743	13896.32
437.95	13550.21
438.157	14183.04
438.364	14877.3
438.571	14813.81
438.778	14883.44
438.985	16194.14
439.192	15594.09
439.399	16286.3
439.606	15946.34
439.813	16910.93
440.02	17685.06
440.227	17205.84
440.433	17214.03
440.64	17904.2
440.847	17568.33
441.054	18289.21
441.261	19268.14
441.467	18993.72
441.674	19495.47
441.881	20144.67
442.088	20044.32
442.294	19569.19
442.501	20529.69
442.708	20951.57
442.914	21875.21
443.121	22532.61
443.328	21854.73
443.534	23560.69
443.741	23028.21
443.948	22622.72
444.154	24525.28
444.361	24244.71
444.568	24330.72
444.774	24357.35
444.981	24754.65
445.187	25287.12
445.394	26452.42
445.6	26014.15
445.807	28787.1
446.013	27232.69
446.22	27724.21
446.426	28961.18
446.633	29276.57
446.839	29845.9
447.046	28795.29
447.252	30411.14
447.459	30726.53
447.665	30398.85
447.871	31637.87
448.078	32842.08
448.284	31371.64
448.491	32364.9
448.697	33411.42
448.903	34388.3
449.11	34330.95
449.316	33536.34
449.522	34251.08
449.728	35445.05
449.935	35287.35
450.141	35348.79
450.347	36423.98
450.553	35279.16
450.76	35479.86
450.966	36507.94
451.172	36497.7
451.378	37128.48
451.584	36722.98
451.791	37230.88
451.997	37126.43
452.203	38134.03
452.409	37777.68
452.615	37806.36
452.821	35860.79
453.027	35760.44
453.233	37720.34
453.44	35965.23
453.646	36757.8
453.852	36790.56
454.058	37312.8
454.264	36225.32
454.47	37122.33
454.676	36116.78
454.882	37300.51
455.088	33919.31
455.294	34908.48
455.5	35197.24
455.705	35342.65
455.911	33771.86
456.117	33458.52
456.323	32954.72
456.529	31064.44
456.735	32799.07
456.941	31703.41
457.147	30871.93
457.352	30425.48
457.558	29796.75
457.764	29960.59
457.97	29342.1
458.176	28905.88
458.381	28809.63
458.587	27449.78
458.793	27287.99
458.999	26063.3
459.204	27740.59
459.41	27158.97
459.616	25465.3
459.821	25307.6
460.027	25197.01
460.233	24715.74
460.438	23511.53
460.644	23661.04
460.85	22561.28
461.055	22350.34
461.261	21975.56
461.466	20531.74
461.672	20038.18
461.878	21277.2
462.083	20142.63
462.289	19737.13
462.494	19339.82
462.7	18719.29
462.905	18029.12
463.111	18774.58
463.316	18887.22
463.522	18516.54
463.727	18594.36
463.932	18197.06
464.138	17969.73
464.343	18442.81
464.549	17691.21
464.754	18223.68
464.959	18082.37
465.165	17947.2
465.37	17246.8
465.575	16826.96
465.781	17467.98
465.986	17640.01
466.191	16933.46
466.397	16538.2
466.602	15616.62
466.807	16271.97
467.012	16415.32
467.218	15888.99
467.423	16034.4
467.628	16245.34
467.833	16761.43
468.038	16013.92
468.244	15653.48
468.449	16595.54
468.654	15764.07
468.859	15565.42
469.064	15657.57
469.269	14989.94
469.474	15143.53
469.679	15465.07
469.885	14912.11
470.09	15039.09
470.295	15102.57
470.5	14686.84
470.705	14740.08
470.91	14697.08
471.115	14547.58
471.32	14586.49
471.525	14414.46
471.73	13970.05
471.935	13974.14
472.139	13775.49
472.344	13691.52
472.549	13587.08
472.754	13435.53
472.959	13220.49
473.164	13167.24
473.369	12855.95
473.574	13490.82
473.778	13157
473.983	12966.54
474.188	12896.91
474.393	12544.66
474.598	12616.34
474.802	12110.49
475.007	12389.02
475.212	12151.45
475.417	11846.3
475.621	12096.16
475.826	11973.28
476.031	11551.4
476.235	11289.26
476.44	11524.77
476.645	11270.83
476.849	11180.71
477.054	11344.55
477.259	11102.89
477.463	11178.67
477.668	10642.1
477.872	10908.33
478.077	10560.18
478.282	10681.01
478.486	10517.17
478.691	10459.83
478.895	10269.37
479.1	10230.46
479.304	10283.7
479.509	10025.66
479.713	10209.98
479.918	9888.45
480.122	9796.29
480.326	9855.68
480.531	9921.21
480.735	9865.92
480.94	9595.59
481.144	9882.3
481.348	9618.11
481.553	9773.76
481.757	9392.84
481.961	9245.38
482.166	9632.45
482.37	9431.75
482.574	9206.47
482.778	9489.09
482.983	9501.38
483.187	9419.46
483.391	9671.36
483.595	9403.08
483.8	9317.06
484.004	9358.02
484.208	9507.52
484.412	9300.68
484.616	9421.51
484.821	9470.66
485.025	9249.48
485.229	9501.38
485.433	9421.51
485.637	9462.47
485.841	9388.74
486.045	9407.17
486.249	9259.72
486.453	9382.6
486.657	9229
486.861	9335.49
487.065	9251.53
487.269	9208.52
487.473	9290.44
487.677	9198.28
487.881	9263.82
488.085	9460.42
488.289	9286.34
488.493	9466.56
488.697	9366.21
488.901	9464.52
489.105	9323.21
489.309	9485
489.512	9382.6
489.716	9634.5
489.92	9325.26
490.124	9519.81
490.328	9851.58
490.531	9652.93
490.735	9468.61
490.939	9558.72
491.143	9425.61
491.346	9784
491.55	9859.77
491.754	9845.44
491.958	9784
492.161	9976.51
492.365	9816.77
492.569	9763.52
492.772	9953.98
492.976	9845.44
493.18	9925.31
493.383	10425.01
493.587	10033.85
493.79	10193.59
493.994	10205.88
494.197	10326.71
494.401	10468.02
494.605	10259.13
494.808	10664.63
495.012	10519.22
495.215	10683.06
495.419	10586.8
495.622	10674.87
495.825	10982.06
496.029	10885.81
496.232	11348.65
496.436	10996.4
496.639	11436.71
496.843	11403.94
497.046	11545.25
497.249	11649.7
497.453	11752.1
497.656	11748
497.859	11768.48
498.063	11883.17
498.266	12096.16
498.469	11999.9
498.673	12249.75
498.876	12423.83
499.079	12397.21
499.282	12559
499.485	12741.27
499.689	12872.34
499.892	13142.67
500.095	12909.2
500.298	13441.67
500.501	13269.64
500.705	13769.35
500.908	13912.71
501.111	13914.75
501.314	14103.17
501.517	14277.24
501.72	14142.08
501.923	14297.72
502.126	14592.63
502.329	14645.88
502.532	14891.63
502.735	15078
502.938	15207.02
503.141	15323.76
503.344	15618.66
503.547	15770.21
503.75	15841.89
503.953	16106.08
504.156	15977.06
504.359	16177.76
504.562	16400.99
504.765	16583.26
504.968	17044.05
505.17	17107.54
505.373	17191.5
505.576	17549.9
505.779	17498.7
505.982	17736.26
506.185	17887.81
506.387	17883.72
506.59	17977.92
506.793	18375.23
506.996	18166.34
507.198	18793.01
507.401	18924.08
507.604	18895.41
507.807	19325.49
508.009	19817
508.212	19956.26
508.415	20056.61
508.617	20175.39
508.82	20339.23
509.022	20380.19
509.225	20554.27
509.428	20957.72
509.63	21107.22
509.833	21187.09
510.035	21641.74
510.238	21432.85
510.44	21750.28
510.643	21985.8
510.845	21983.75
511.048	21961.22
511.25	22624.76
511.453	22428.16
511.655	23792.11
511.858	23255.54
512.06	23173.62
512.262	23728.62
512.465	23566.83
512.667	24031.72
512.87	24080.87
513.072	24334.82
513.274	24793.56
513.477	24883.67
513.679	25047.51
513.881	25369.04
514.084	25545.17
514.286	25465.3
514.488	25496.02
514.69	26382.79
514.893	26036.68
515.095	26231.24
515.297	27085.24
515.499	26429.89
515.701	27019.71
515.904	27478.45
516.106	27232.69
516.308	27775.41
516.51	27937.2
516.712	28015.02
516.914	28326.31
517.116	28895.64
517.318	28696.99
517.52	29127.06
517.722	29106.59
517.925	29553.04
518.127	29702.54
518.329	29768.08
518.531	29690.26
518.733	30087.56
518.935	30486.92
519.136	30777.73
519.338	31037.82
519.54	31058.3
519.742	31506.8
519.944	31486.32
520.146	31979.89
520.348	32289.13
520.55	32074.09
520.752	32190.83
520.954	32547.17
521.155	32590.18
521.357	33243.48
521.559	32895.33
521.761	33927.5
521.963	33659.22
522.164	33737.04
522.366	33765.71
522.568	34120.01
522.77	34451.78
522.971	34668.87
523.173	34672.96
523.375	34632
523.576	34783.55
523.778	34449.74
523.98	35451.19
524.181	35483.96
524.383	35649.85
524.584	35686.71
524.786	36047.15
524.988	35655.99
525.189	36450.6
525.391	36229.42
525.592	36460.84
525.794	36800.8
525.995	36987.17
526.197	36694.31
526.398	37132.57
526.6	37171.49
526.801	36923.68
527.003	37204.25
527.204	37300.51
527.406	37851.41
527.607	37429.53
527.808	37722.39
528.01	37214.49
528.211	37941.52
528.412	38498.57
528.614	37775.64
528.815	38400.27
529.016	38727.94
529.218	38261.01
529.419	38594.82
529.62	38566.15
529.822	38656.26
530.023	38881.54
530.224	38701.32
530.425	38904.07
530.626	38545.67
530.828	38414.6
531.029	39160.06
531.23	38695.17
531.431	38789.38
531.632	39170.3
531.833	39031.04
532.035	38699.27
532.236	39112.96
532.437	39536.89
532.638	39125.25
532.839	39254.27
533.04	38965.51
533.241	39303.42
533.442	39899.38
533.643	39246.08
533.844	39047.43
534.045	39860.47
534.246	39334.14
534.447	39141.63
534.648	39344.38
534.849	39467.26
535.05	39205.12
535.251	39334.14
535.451	39334.14
535.652	39645.43
535.853	39229.69
536.054	39622.9
536.255	39385.34
536.456	39227.65
536.657	39903.48
536.857	39543.03
537.058	39538.94
537.259	39758.07
537.46	39268.61
537.66	39129.34
537.861	39465.21
538.062	39158.02
538.263	39416.06
538.463	39139.58
538.664	39264.51
538.865	39350.52
539.065	39448.83
539.266	39295.23
539.466	39346.43
539.667	38736.13
539.868	39442.68
540.068	39162.11
540.269	39334.14
540.469	39358.72
540.67	39272.7
540.87	39024.9
541.071	39317.76
541.271	38926.6
541.472	38922.5
541.672	38789.38
541.873	39342.33
542.073	38674.7
542.274	39524.6
542.474	38998.27
542.675	38899.97
542.875	39115.01
543.075	38625.54
543.276	38713.61
543.476	39131.39
543.676	38770.95
543.877	39000.32
544.077	38779.14
544.277	38652.17
544.478	38637.83
544.678	39063.81
544.878	38531.34
545.078	39008.51
545.279	38670.6
545.479	38816.01
545.679	38842.63
545.879	39037.19
546.079	38574.34
546.28	38752.52
546.48	38482.19
546.68	38940.93
546.88	38875.4
547.08	39072
547.28	38717.7
547.48	38435.08
547.68	38500.62
547.88	38222.09
548.081	38764.81
548.281	38459.66
548.481	38318.35
548.681	38656.26
548.881	38637.83
549.081	38926.6
549.28	38445.32
549.48	38775.05
549.68	38809.86
549.88	38869.25
550.08	38406.41
550.28	38762.76
550.48	38310.16
550.68	38875.4
550.88	38355.21
551.08	38207.76
551.279	38211.85
551.479	38338.83
551.679	38535.43
551.879	38342.92
552.079	38400.27
552.278	37955.86
552.478	38541.58
552.678	38416.65
552.878	38236.43
553.077	38197.52
553.277	37871.89
553.477	38705.41
553.676	38189.33
553.876	38177.04
554.076	37964.05
554.275	38070.54
554.475	37433.63
554.674	37986.58
554.874	38025.49
555.074	37906.71
555.273	38166.8
555.473	38179.09
555.672	37847.32
555.872	38078.74
556.071	37906.71
556.271	38263.05
556.47	37607.7
556.67	37638.42
556.869	37507.35
557.068	37642.52
557.268	37421.34
557.467	37720.34
557.667	37538.07
557.866	37669.14
558.065	37450.01
558.265	37398.81
558.464	37110.05
558.663	37474.59
558.863	36751.65
559.062	37218.59
559.261	36768.04
559.461	37450.01
559.66	36663.59
559.859	37083.42
560.058	36864.29
560.258	37622.04
560.457	36772.13
560.656	37243.17
560.855	36696.36
561.054	36696.36
561.253	36944.16
561.453	36866.34
561.652	36985.12
561.851	36782.37
562.05	36282.67
562.249	36235.56
562.448	36548.9
562.647	36409.64
562.846	36409.64
563.045	36819.24
563.244	36210.99
563.443	36409.64
563.642	36153.65
563.841	36307.24
564.04	35834.16
564.239	36350.25
564.438	35443
564.637	36335.91
564.836	35950.9
565.035	35825.97
565.234	35782.96
565.432	35932.47
565.631	35465.53
565.83	35447.1
566.029	35285.31
566.228	35447.1
566.427	35369.27
566.625	35148.09
566.824	34916.67
567.023	35420.47
567.222	34750.79
567.42	35660.09
567.619	35125.57
567.818	34980.16
568.016	35037.5
568.215	35127.61
568.414	34890.05
568.612	35008.83
568.811	34851.14
569.01	34906.43
569.208	34357.58
569.407	34496.84
569.605	34242.89
569.804	34720.07
570.002	34017.61
570.201	34980.16
570.4	33902.93
570.598	34414.92
570.797	34189.64
570.995	33988.94
571.193	33952.08
571.392	34263.37
571.59	33827.15
571.789	34109.77
571.987	33730.9
572.186	33605.97
572.384	33636.69
572.582	33771.86
572.781	33636.69
572.979	33149.28
573.177	33503.57
573.376	33560.92
573.574	33177.95
573.772	33171.8
573.971	32725.35
574.169	33329.5
574.367	32764.26
574.565	32848.22
574.763	32655.72
574.962	32620.9
575.16	32360.81
575.358	33098.08
575.556	32174.44
575.754	32907.62
575.952	32422.25
576.151	32653.67
576.349	32180.59
576.547	32479.59
576.745	32360.81
576.943	32469.35
577.141	32029.04
577.339	32168.3
577.537	32205.16
577.735	31846.77
577.933	31490.42
578.131	31418.74
578.329	31515
578.527	31814
578.725	31748.46
578.923	31451.51
579.121	31428.98
579.319	31572.34
579.516	31252.86
579.714	31607.16
579.912	31250.81
580.11	31095.16
580.308	30906.75
580.506	30953.85
580.704	30552.45
580.901	30605.7
581.099	30830.97
581.297	30245.26
581.495	30476.68
581.692	30835.07
581.89	30073.23
582.088	30431.62
582.285	30304.65
582.483	30433.67
582.681	30257.54
582.878	30140.81
583.076	29913.48
583.274	30155.15
583.471	29667.73
583.669	29815.18
583.866	29505.94
584.064	29819.28
584.262	29145.5
584.459	29708.69
584.657	29299.09
584.854	29612.43
585.052	28940.7
585.249	28979.61
585.447	29381.01
585.644	28897.69
585.841	28889.5
586.039	28871.07
586.236	28537.25
586.434	29073.82
586.631	28678.56
586.828	28324.26
587.026	28535.2
587.223	28502.43
587.42	28430.76
587.618	28494.24
587.815	28062.12
588.012	28152.23
588.21	28271.01
588.407	28314.02
588.604	27750.83
588.801	28219.81
588.999	27918.76
589.196	27976.11
589.393	27849.13
589.59	27756.97
589.787	27496.88
589.984	27490.74
590.182	27283.89
590.379	27533.75
590.576	27480.5
590.773	27328.95
590.97	27296.18
591.167	27306.42
591.364	26778.04
591.561	26732.99
591.758	26907.07
591.955	26606.02
592.152	27038.14
592.349	26630.59
592.546	26728.89
592.743	26683.84
592.94	26106.31
593.137	26321.35
593.334	26388.93
593.531	25868.75
593.727	26071.5
593.924	26210.76
594.121	25950.67
594.318	26024.39
594.515	25319.89
594.712	25907.66
594.908	25547.22
595.105	25778.64
595.302	25192.92
595.499	25426.39
595.696	25315.8
595.892	25168.34
596.089	25172.44
596.286	25395.67
596.482	25127.38
596.679	25219.54
596.876	25242.07
597.072	24941.02
597.269	24818.14
597.466	24537.57
597.662	24498.66
597.859	24791.52
598.055	24803.8
598.252	24701.4
598.448	24496.61
598.645	24345.06
598.841	24130.02
599.038	24257
599.234	24363.49
599.431	23732.72
599.627	24091.11
599.824	24177.12
600.02	23841.26
600.217	23937.51
600.413	23849.45
600.609	23816.68
600.806	23398.9
601.002	23497.2
601.198	23470.58
601.395	23331.31
601.591	23316.98
601.787	23278.07
601.984	23273.97
602.18	23159.28
602.376	23081.46
602.572	22997.49
602.769	23032.31
602.965	22538.75
603.161	22737.4
603.357	22903.29
603.553	22766.07
603.75	22415.87
603.946	22518.27
604.142	22592
604.338	21926.41
604.534	22321.66
604.73	22178.31
604.926	22016.52
605.122	22245.89
605.318	22352.38
605.514	21895.69
605.71	21897.74
605.906	21496.33
606.102	21938.69
606.298	21795.34
606.494	21735.95
606.69	21643.79
606.886	21807.62
607.082	21334.54
607.278	21723.66
607.474	21099.03
607.67	21580.3
607.866	21146.13
608.062	21608.97
608.257	21195.28
608.453	21056.02
608.649	20994.58
608.845	21041.68
609.041	21017.11
609.236	21246.48
609.432	21013.01
609.628	20820.5
609.824	20673.05
610.019	21074.45
610.215	20957.72
610.411	21031.44
610.606	20636.19
610.802	21033.49
610.998	20816.41
611.193	20648.47
611.389	20632.09
611.584	20386.33
611.78	20320.8
611.976	20589.08
612.171	20486.68
612.367	20421.15
612.562	20474.4
612.758	20087.33
612.953	20007.46
613.149	20505.12
613.344	20179.49
613.539	20472.35
613.735	20349.47
613.93	20122.15
614.126	19999.27
614.321	20171.3
614.517	20191.78
614.712	19911.21
614.907	19821.09
615.103	19966.5
615.298	19718.7
615.493	20163.11
615.688	19434.03
615.884	20218.4
616.079	19704.36
616.274	19827.24
616.47	19647.02
616.665	19681.83
616.86	19278.38
617.055	19638.83
617.25	19245.62
617.445	19628.59
617.641	19114.55
617.836	19638.83
618.031	19257.9
618.226	19253.81
618.421	18936.37
618.616	19395.12
618.811	18874.93
619.006	19241.52
619.201	18782.77
619.396	18963
619.591	18846.26
619.786	19016.24
619.981	18702.9
620.176	18833.97
620.371	18395.71
620.566	18637.37
620.761	18037.31
620.956	18229.82
621.151	18260.54
621.346	18356.8
621.541	17744.45
621.735	18102.85
621.93	17713.74
622.125	17898.05
622.32	17754.69
622.515	17842.76
622.709	17293.9
622.904	17381.96
623.099	17431.12
623.294	17492.55
623.488	17099.34
623.683	17322.57
623.878	17031.76
624.072	17082.96
624.267	16853.59
624.462	16878.16
624.656	16579.16
624.851	16630.36
625.046	16573.02
625.24	16394.84
625.435	16403.04
625.629	16405.08
625.824	16142.94
626.018	16099.94
626.213	15925.86
626.407	15895.14
626.602	15882.85
626.796	15923.81
626.991	15592.04
627.185	15610.47
627.38	15307.37
627.574	15307.37
627.768	15121.01
627.963	15338.09
628.157	15075.95
628.352	15270.51
628.546	15073.9
628.74	15082.1
628.935	14844.53
629.129	14813.81
629.323	14449.27
629.517	14350.97
629.712	14260.86
629.906	14471.8
630.1	14137.98
630.294	14473.85
630.489	14101.12
630.683	14428.79
630.877	13689.48
631.071	13775.49
631.265	13994.62
631.459	13681.28
631.653	13605.51
631.848	13687.43
632.042	13699.72
632.236	13449.86
632.43	13296.27
632.624	13478.54
632.818	13423.24
633.012	13210.25
633.206	13208.2
633.4	13265.55
633.594	12966.54
633.788	13058.7
633.982	12858
634.176	12987.02
634.369	12837.52
634.563	12716.69
634.757	12616.34
634.951	12812.95
635.145	12677.78
635.339	12645.01
635.533	12450.46
635.726	12475.03
635.92	12386.97
636.114	12196.51
636.308	12112.54
636.501	12327.58
636.695	11958.94
636.889	11840.16
637.083	11930.27
637.276	11678.37
637.47	11719.33
637.664	11903.65
637.857	11858.59
638.051	11811.49
638.244	11489.96
638.438	11690.66
638.632	11571.88
638.825	11420.33
639.019	11586.21
639.212	11285.16
639.406	11176.62
639.599	11299.5
639.793	10988.21
639.986	11027.12
640.18	11182.76
640.373	10980.01
640.567	10605.24
640.76	10810.03
640.954	10820.27
641.147	10529.46
641.34	10777.26
641.534	10701.49
641.727	10504.89
641.92	10365.62
642.114	10427.06
642.307	10504.89
642.5	10468.02
642.694	10191.55
642.887	10154.68
643.08	10332.86
643.273	10236.6
643.467	10279.61
643.66	9931.45
643.853	10117.82
644.046	9964.22
644.239	10048.19
644.432	9691.84
644.626	9700.03
644.819	9767.62
645.012	9505.48
645.205	9765.57
645.398	9546.44
645.591	9530.05
645.784	9382.6
645.977	9321.16
646.17	9616.07
646.363	9288.39
646.556	9171.66
646.749	9255.62
646.942	9251.53
647.135	9042.64
647.328	8960.72
647.521	8979.15
647.714	9063.12
647.907	9030.35
648.099	9009.87
648.292	8860.37
648.485	8776.4
648.678	8803.02
648.871	8813.26
649.064	8686.29
649.256	8686.29
649.449	8612.56
649.642	8590.03
649.835	8526.55
650.027	8456.92
650.22	8508.12
650.413	8258.26
650.605	8440.53
650.798	8217.3
650.991	8202.97
651.183	8221.4
651.376	8194.78
651.568	8041.18
651.761	8135.39
651.954	7955.16
652.146	8057.56
652.339	7863.01
652.531	7936.73
652.724	7772.89
652.916	7887.58
653.109	7803.61
653.301	7776.99
653.494	7807.71
653.686	7785.18
653.879	7830.24
654.071	7520.99
654.263	7588.58
654.456	7572.19
654.648	7654.11
654.84	7469.8
655.033	7477.99
655.225	7299.81
655.417	7359.21
655.61	7254.76
655.802	7445.22
655.994	7195.37
656.186	7211.75
656.379	7047.91
656.571	7338.73
656.763	7199.46
656.955	6882.03
657.148	7086.83
657.34	7072.49
657.532	6882.03
657.724	6716.14
657.916	6978.28
658.108	6730.48
658.3	6763.25
658.492	6666.99
658.684	6564.59
658.876	6843.12
659.068	6761.2
659.26	6613.74
659.452	6580.98
659.644	6525.68
659.836	6527.73
660.028	6566.64
660.22	6560.5
660.412	6411
660.604	6419.19
660.796	6419.19
660.988	6374.13
661.18	6288.12
661.372	6220.53
661.563	6286.07
661.755	6142.71
661.947	6001.4
662.139	6130.42
662.331	5956.35
662.522	6107.9
662.714	5937.91
662.906	5890.81
663.097	5919.48
663.289	6013.69
663.481	5804.8
663.673	5931.77
663.864	5792.51
664.056	5704.45
664.247	5833.47
664.439	5747.45
664.631	5868.28
664.822	5794.56
665.014	5671.68
665.205	5749.5
665.397	5749.5
665.588	5612.29
665.78	5548.8
665.971	5499.65
666.163	5548.8
666.354	5659.39
666.546	5417.73
666.737	5505.79
666.929	5407.49
667.12	5286.66
667.311	5405.44
667.503	5333.76
667.694	5272.32
667.885	5368.58
668.077	5409.54
668.268	5374.72
668.459	5217.03
668.651	5106.44
668.842	5122.82
669.033	5319.43
669.224	5065.48
669.416	5161.73
669.607	5038.86
669.798	4999.95
669.989	5167.88
670.18	5047.05
670.371	4926.22
670.563	5122.82
670.754	5032.71
670.945	4883.21
671.136	4926.22
671.327	4864.78
671.518	4881.16
671.709	4985.61
671.9	4967.18
672.091	4875.02
672.282	4780.81
672.473	4854.54
672.664	4819.72
672.855	4668.17
673.046	4520.72
673.237	4815.63
673.428	4719.37
673.619	4698.89
673.809	4713.23
674	4621.07
674.191	4647.69
674.382	4754.19
674.573	4629.26
674.764	4606.74
674.954	4524.82
675.145	4563.73
675.336	4543.25
675.527	4528.91
675.717	4508.43
675.908	4391.7
676.099	4365.07
676.289	4377.36
676.48	4557.58
676.671	4434.71
676.861	4406.03
677.052	4395.79
677.243	4334.36
677.433	4256.53
677.624	4377.36
677.814	4365.07
678.005	4442.9
678.195	4234
678.386	4334.36
678.576	4311.83
678.767	4297.49
678.957	4309.78
679.148	4213.53
679.338	4213.53
679.529	4162.33
679.719	4258.58
679.909	4262.68
680.1	4150.04
680.29	4195.09
680.481	4176.66
680.671	4041.5
680.861	4109.08
681.052	4045.59
681.242	4053.78
681.432	4061.98
681.622	4061.98
681.813	4096.79
682.003	4125.46
682.193	3984.15
682.383	4045.59
682.573	3978.01
682.764	4045.59
682.954	4008.73
683.144	3961.62
683.334	3992.34
683.524	3959.58
683.714	3943.19
683.904	3939.1
684.094	3932.95
684.284	3918.62
684.474	3957.53
684.664	4027.16
684.854	3830.55
685.044	3875.61
685.234	3668.77
685.424	3752.73
685.614	3681.05
685.804	3779.36
685.994	3881.75
686.184	3818.27
686.374	3828.51
686.564	3693.34
686.753	3728.16
686.943	3701.53
687.133	3582.75
687.323	3623.71
687.513	3670.81
687.702	3537.7
687.892	3549.98
688.082	3474.21
688.272	3617.57
688.461	3662.62
688.651	3584.8
688.841	3529.5
689.03	3558.18
689.22	3468.06
689.41	3437.34
689.599	3443.49
689.789	3484.45
689.979	3404.58
690.168	3382.05
690.358	3369.76
690.547	3406.63
690.737	3316.51
690.926	3525.41
691.116	3361.57
691.305	3330.85
691.495	3365.67
691.684	3177.25
691.874	3257.12
692.063	3228.45
692.252	3320.61
692.442	3234.6
692.631	3132.2
692.82	3101.48
693.01	3048.23
693.199	3101.48
693.388	3037.99
693.578	3044.13
693.767	3078.95
693.956	3048.23
694.146	3019.56
694.335	2958.12
694.524	2929.45
694.713	2904.87
694.902	2951.98
695.092	3052.33
695.281	2966.31
695.47	3001.13
695.659	2972.46
695.848	2726.7
696.037	2831.15
696.226	2777.9
696.415	2859.82
696.604	2929.45
696.793	2798.38
696.982	2786.09
697.171	2937.64
697.36	2677.55
697.549	2722.6
697.738	2890.54
697.927	2667.31
698.116	2712.36
698.305	2751.28
698.494	2712.36
698.683	2673.45
698.872	2714.41
699.061	2691.88
699.25	2689.84
699.438	2636.59
699.627	2620.21
699.816	2673.45
700.005	2599.73
700.193	2659.12
700.382	2607.92
700.571	2640.69
700.76	2638.64
700.948	2515.76
701.137	2591.53
701.326	2626.35
701.514	2603.82
701.703	2607.92
701.892	2491.18
702.08	2550.57
702.269	2609.97
702.457	2542.38
702.646	2589.49
702.834	2487.09
703.023	2544.43
703.212	2501.42
703.4	2390.83
703.589	2454.32
703.777	2542.38
703.965	2421.55
704.154	2444.08
704.342	2499.38
704.531	2458.42
704.719	2456.37
704.907	2560.81
705.096	2421.55
705.284	2534.19
705.472	2513.71
705.661	2446.13
705.849	2452.27
706.037	2497.33
706.226	2485.04
706.414	2540.33
706.602	2313.01
706.79	2423.6
706.979	2294.58
707.167	2351.92
707.355	2378.55
707.543	2433.84
707.731	2446.13
707.919	2437.94
708.107	2280.24
708.296	2478.9
708.484	2362.16
708.672	2392.88
708.86	2319.15
709.048	2446.13
709.236	2353.97
709.424	2446.13
709.612	2364.21
709.8	2288.43
709.988	2370.35
710.176	2386.74
710.364	2339.63
710.551	2431.79
710.739	2413.36
710.927	2304.82
711.115	2405.17
711.303	2458.42
711.491	2335.54
711.679	2374.45
711.866	2388.78
712.054	2456.37
712.242	2310.96
712.43	2399.02
712.617	2478.9
712.805	2423.6
712.993	2382.64
713.181	2370.35
713.368	2407.22
713.556	2360.11
713.744	2337.59
713.931	2485.04
714.119	2343.73
714.306	2474.8
714.494	2464.56
714.682	2394.93
714.869	2380.59
715.057	2384.69
715.244	2265.91
715.432	2358.07
715.619	2444.08
715.807	2509.62
715.994	2390.83
716.182	2423.6
716.369	2536.24
716.556	2523.95
716.744	2390.83
716.931	2450.22
717.119	2493.23
717.306	2272.05
717.493	2417.46
717.681	2378.55
717.868	2446.13
718.055	2427.7
718.242	2456.37
718.43	2493.23
718.617	2503.47
718.804	2384.69
718.991	2505.52
719.179	2403.12
719.366	2460.46
719.553	2478.9
719.74	2390.83
719.927	2538.29
720.114	2485.04
720.301	2411.31
720.488	2442.03
720.676	2532.14
720.863	2265.91
721.05	2526
721.237	2517.81
721.424	2474.8
721.611	2462.51
721.798	2386.74
721.985	2571.05
722.172	2528.05
722.358	2399.02
722.545	2634.54
722.732	2497.33
722.919	2532.14
723.106	2620.21
723.293	2515.76
723.48	2616.11
723.667	2444.08
723.853	2458.42
724.04	2511.66
724.227	2523.95
724.414	2538.29
724.6	2368.31
724.787	2411.31
724.974	2540.33
725.161	2513.71
725.347	2540.33
725.534	2433.84
725.72	2501.42
725.907	2474.8
726.094	2501.42
726.28	2468.66
726.467	2730.8
726.653	2560.81
726.84	2556.72
727.027	2587.44
727.213	2505.52
727.4	2616.11
727.586	2538.29
727.773	2517.81
727.959	2511.66
728.145	2597.68
728.332	2419.5
728.518	2532.14
728.705	2585.39
728.891	2634.54
729.077	2435.89
729.264	2526
729.45	2579.25
729.636	2558.77
729.823	2558.77
730.009	2648.88
730.195	2482.99
730.382	2581.29
730.568	2612.01
730.754	2591.53
730.94	2444.08
731.126	2556.72
731.313	2747.18
731.499	2495.28
731.685	2632.49
731.871	2462.51
732.057	2599.73
732.243	2634.54
732.429	2665.26
732.615	2534.19
732.801	2501.42
732.987	2591.53
733.173	2501.42
733.359	2693.93
733.545	2655.02
733.731	2526
733.917	2575.15
734.103	2657.07
734.289	2503.47
734.475	2491.18
734.661	2646.83
734.847	2540.33
735.033	2587.44
735.219	2614.06
735.404	2632.49
735.59	2581.29
735.776	2616.11
735.962	2577.2
736.148	2523.95
736.333	2548.53
736.519	2493.23
736.705	2491.18
736.89	2659.12
737.076	2591.53
737.262	2401.07
737.447	2464.56
737.633	2472.75
737.819	2618.16
738.004	2501.42
738.19	2507.57
738.375	2468.66
738.561	2556.72
738.747	2466.61
738.932	2419.5
739.118	2607.92
739.303	2394.93
739.489	2519.85
739.674	2417.46
739.859	2530.09
740.045	2417.46
740.23	2526
740.416	2476.85
740.601	2302.77
740.786	2480.94
740.972	2499.38
741.157	2423.6
741.342	2482.99
741.528	2431.79
741.713	2366.26
741.898	2439.98
742.084	2480.94
742.269	2491.18
742.454	2362.16
742.639	2372.4
742.824	2282.29
743.01	2388.78
743.195	2462.51
743.38	2292.53
743.565	2286.39
743.75	2284.34
743.935	2296.63
744.12	2366.26
744.305	2288.43
744.49	2321.2
744.675	2206.52
744.86	2237.24
745.045	2270
745.23	2265.91
745.415	2222.9
745.6	2327.35
745.785	2313.01
745.97	2253.62
746.155	2247.48
746.34	2294.58
746.525	2110.26
746.71	2233.14
746.895	2145.08
747.079	2054.97
747.264	2229.04
747.449	2054.97
747.634	2097.97
747.819	2222.9
748.003	1958.71
748.188	2091.83
748.373	2009.91
748.557	2048.82
748.742	2040.63
748.927	2108.21
749.111	2077.49
749.296	2007.86
749.481	1954.62
749.665	2087.73
749.85	2071.35
750.034	1932.09
750.219	1905.46
750.404	1899.32
750.588	1946.42
750.773	1854.27
750.957	1919.8
751.141	1993.53
751.326	1860.41
751.51	1835.83
751.695	1854.27
751.879	1792.83
752.064	1813.31
752.248	1813.31
752.432	1919.8
752.617	1807.16
752.801	1891.13
752.985	1776.44
753.17	1749.82
753.354	1712.96
753.538	1768.25
753.722	1786.68
753.907	1653.56
754.091	1661.76
754.275	1624.89
754.459	1690.43
754.643	1571.65
754.828	1590.08
755.012	1657.66
755.196	1547.07
755.38	1563.45
755.564	1620.8
755.748	1694.52
755.932	1616.7
756.116	1432.38
756.3	1674.04
756.484	1528.64
756.668	1514.3
756.852	1538.88
757.036	1504.06
757.22	1461.06
757.404	1459.01
757.588	1483.58
757.772	1454.91
757.956	1571.65
758.14	1454.91
758.323	1409.86
758.507	1411.9
758.691	1379.14
758.875	1438.53
759.059	1442.62
759.242	1442.62
759.426	1377.09
759.61	1409.86
759.794	1434.43
759.977	1315.65
760.161	1334.08
760.345	1354.56
760.528	1403.71
760.712	1411.9
760.895	1160
761.079	1454.91
761.263	1272.64
761.446	1280.83
761.63	1241.92
761.813	1329.99
761.997	1325.89
762.18	1352.51
762.364	1280.83
762.547	1274.69
762.731	1168.2
762.914	1268.55
763.098	1266.5
763.281	1162.05
763.464	1272.64
763.648	1223.49
763.831	1207.11
764.015	1194.82
764.198	1225.54
764.381	1215.3
764.564	1182.53
764.748	1172.29
764.931	1188.68
765.114	1194.82
765.297	1135.43
765.481	1108.8
765.664	1174.34
765.847	1145.67
766.03	1217.35
766.213	1231.68
766.397	1108.8
766.58	1112.9
766.763	1065.8
766.946	998.21
767.129	1127.24
767.312	1131.33
767.495	1026.89
767.678	1069.89
767.861	1106.76
768.044	1106.76
768.227	1133.38
768.41	1055.56
768.593	1043.27
768.776	1090.37
768.959	1000.26
769.142	1020.74
769.324	1106.76
769.507	1053.51
769.69	1076.04
769.873	1006.41
770.056	1043.27
770.239	961.35
770.421	1047.37
770.604	1063.75
770.787	1065.8
770.97	910.15
771.152	998.21
771.335	998.21
771.518	996.17
771.7	971.59
771.883	918.34
772.066	887.62
772.248	987.97
772.431	977.73
772.613	891.72
772.796	963.4
772.978	928.58
773.161	949.06
773.343	953.16
773.526	895.82
773.708	971.59
773.891	881.48
774.073	877.38
774.256	803.66
774.438	895.82
774.621	908.1
774.803	912.2
774.985	803.66
775.168	820.04
775.35	895.82
775.532	811.85
775.715	871.24
775.897	844.62
776.079	801.61
776.261	832.33
776.444	795.47
776.626	817.99
776.808	791.37
776.99	817.99
777.173	785.23
777.355	760.65
777.537	682.83
777.719	770.89
777.901	787.27
778.083	830.28
778.265	674.64
778.447	719.69
778.629	832.33
778.811	805.71
778.993	668.49
779.175	744.27
779.357	731.98
779.539	779.08
779.721	815.94
779.903	691.02
780.085	682.83
780.267	619.34
780.449	707.4
780.631	731.98
780.812	633.68
780.994	693.07
781.176	711.5
781.358	613.2
781.54	629.58
781.721	645.96
781.903	666.44
782.085	648.01
782.267	607.05
782.448	588.62
782.63	566.09
782.812	650.06
782.993	650.06
783.175	600.91
783.357	537.42
783.538	598.86
783.72	582.48
783.901	545.61
784.083	576.33
784.264	639.82
784.446	535.37
784.627	482.13
784.809	623.44
784.99	551.76
785.172	531.28
785.353	523.09
785.535	478.03
785.716	504.65
785.897	514.89
786.079	551.76
786.26	568.14
786.441	502.61
786.623	392.02
786.804	553.8
786.985	531.28
787.167	518.99
787.348	451.41
787.529	506.7
787.71	412.5
787.891	496.46
788.073	459.6
788.254	426.83
788.435	576.33
788.616	478.03
788.797	406.35
788.978	430.93
789.159	510.8
789.34	514.89
789.522	488.27
789.703	367.44
789.884	398.16
790.065	385.87
790.246	443.21
790.427	469.84
790.607	518.99
790.788	379.73
790.969	459.6
791.15	496.46
791.331	404.3
791.512	523.09
791.693	365.39
791.874	406.35
792.054	412.5
792.235	404.3
792.416	375.63
792.597	385.87
792.778	453.45
792.958	426.83
793.139	396.11
793.32	357.2
793.5	338.77
793.681	353.1
793.862	396.11
794.042	330.58
794.223	314.19
794.404	367.44
794.584	340.82
794.765	371.54
794.945	373.58
795.126	357.2
795.306	383.82
795.487	394.06
795.667	316.24
795.848	385.87
796.028	320.34
796.209	408.4
796.389	381.78
796.57	293.71
796.75	342.86
796.93	355.15
797.111	367.44
797.291	330.58
797.471	383.82
797.652	363.34
797.832	299.86
798.012	277.33
798.192	250.71
798.373	357.2
798.553	316.24
798.733	351.06
798.913	312.14
799.093	359.25
799.274	271.19
799.454	295.76
799.634	306
799.814	283.47
799.994	252.75
800.174	289.62
800.354	375.63
800.534	279.38
800.714	256.85
800.894	320.34
801.074	269.14
801.254	291.66
801.434	351.06
801.614	258.9
801.794	181.07
801.974	629.58
802.154	262.99
802.334	293.71
802.514	240.47
802.693	213.84
802.873	228.18
803.053	273.23
803.233	330.58
803.413	256.85
803.592	256.85
803.772	176.98
803.952	273.23
804.131	213.84
804.311	285.52
804.491	199.51
804.67	217.94
804.85	131.92
805.03	228.18
805.209	279.38
805.389	244.56
805.568	248.66
805.748	187.22
805.928	238.42
806.107	303.95
806.287	201.55
806.466	201.55
806.646	232.27
806.825	176.98
807.004	224.08
807.184	179.03
807.363	191.31
807.543	271.19
807.722	230.23
807.901	246.61
808.081	295.76
808.26	244.56
808.439	203.6
808.619	121.68
808.798	201.55
808.977	246.61
809.156	197.46
809.336	183.12
809.515	213.84
809.694	146.26
809.873	260.95
810.052	269.14
810.231	226.13
810.411	158.55
810.59	140.12
810.769	254.8
810.948	222.03
811.127	195.41
811.306	240.47
811.485	203.6
811.664	246.61
811.843	119.64
812.022	127.83
812.201	105.3
812.38	226.13
812.559	189.27
812.737	269.14
812.916	172.88
813.095	148.31
813.274	144.21
813.453	174.93
813.632	203.6
813.811	207.7
813.989	191.31
814.168	228.18
814.347	158.55
814.526	148.31
814.704	121.68
814.883	219.99
815.062	179.03
815.24	217.94
815.419	183.12
815.598	238.42
815.776	168.79
815.955	189.27
816.133	97.11
816.312	203.6
816.49	140.12
816.669	162.64
816.847	113.49
817.026	201.55
817.204	133.97
817.383	230.23
817.561	150.36
817.74	146.26
817.918	170.83
818.097	248.66
818.275	154.45
818.453	121.68
818.632	86.87
818.81	156.5
818.988	131.92
819.167	179.03
819.345	115.54
819.523	174.93
819.701	152.4
819.879	66.39
820.058	207.7
820.236	158.55
820.414	226.13
820.592	140.12
820.77	154.45
820.948	144.21
821.127	84.82
821.305	70.48
821.483	164.69
821.661	144.21
821.839	123.73
822.017	119.64
822.195	131.92
822.373	201.55
822.551	162.64
822.729	103.25
822.907	95.06
823.085	156.5
823.262	170.83
823.44	88.92
823.618	117.59
823.796	187.22
823.974	152.4
824.152	64.34
824.329	82.77
824.507	119.64
824.685	129.88
824.863	97.11
825.04	121.68
825.218	133.97
825.396	56.15
825.574	101.2
825.751	60.24
825.929	127.83
826.107	164.69
826.284	152.4
826.462	54.1
826.639	121.68
826.817	123.73
826.994	131.92
827.172	86.87
827.349	193.36
827.527	52.05
827.704	80.72
827.882	101.2
828.059	113.49
828.237	176.98
828.414	105.3
828.591	93.01
828.769	99.16
828.946	158.55
829.124	109.4
829.301	93.01
829.478	166.74
829.655	74.58
829.833	97.11
830.01	66.39
830.187	101.2
830.364	109.4
830.542	117.59
830.719	191.31
830.896	109.4
831.073	113.49
831.25	52.05
831.427	113.49
831.604	62.29
831.782	113.49
831.959	105.3
832.136	148.31
832.313	109.4
832.49	125.78
832.667	33.62
832.844	101.2
833.021	121.68
833.198	103.25
833.374	21.33
833.551	72.53
833.728	66.39
833.905	105.3
834.082	127.83
834.259	129.88
834.436	129.88
834.612	47.96
834.789	179.03
834.966	84.82
835.143	168.79
835.319	66.39
835.496	41.81
835.673	66.39
835.85	123.73
836.026	47.96
836.203	60.24
836.38	58.2
836.556	84.82
836.733	76.63
836.909	117.59
837.086	125.78
837.262	13.14
837.439	74.58
837.616	113.49
837.792	72.53
837.968	121.68
838.145	72.53
838.321	35.67
838.498	68.44
838.674	58.2
838.851	111.44
839.027	107.35
839.203	25.43
839.38	52.05
839.556	-19.63
839.732	52.05
839.909	2.9
840.085	50
840.261	43.86
840.437	41.81
840.614	27.48
840.79	80.72
840.966	66.39
841.142	43.86
841.318	109.4
841.494	97.11
841.671	15.19
841.847	99.16
842.023	125.78
842.199	47.96
842.375	150.36
842.551	115.54
842.727	93.01
842.903	115.54
843.079	107.35
843.255	64.34
843.431	43.86
843.607	13.14
843.783	93.01
843.959	29.52
844.134	-23.72
844.31	115.54
844.486	47.96
844.662	27.48
844.838	-9.39
845.013	84.82
845.189	76.63
845.365	-7.34
845.541	-31.91
845.716	-29.87
845.892	99.16
846.068	82.77
846.244	50
846.419	144.21
846.595	56.15
846.77	13.14
846.946	15.19
847.122	52.05
847.297	37.72
847.473	45.91
847.648	19.29
847.824	140.12
847.999	-3.24
848.175	101.2
848.35	19.29
848.526	82.77
848.701	72.53
848.876	25.43
849.052	80.72
849.227	39.76
849.403	43.86
849.578	41.81
849.753	82.77
849.929	97.11
850.104	15.19
850.279	93.01
850.454	-25.77
850.63	66.39
850.805	50
850.98	37.72
851.155	68.44
851.33	72.53
851.505	50
851.681	84.82
851.856	78.68
852.031	39.76
852.206	17.24
852.381	76.63
852.556	25.43
852.731	4.95
852.906	-27.82
853.081	52.05
853.256	58.2
853.431	33.62
853.606	7
853.781	-56.49
853.956	74.58
854.131	37.72
854.305	60.24
854.48	64.34
854.655	72.53
854.83	27.48
855.005	43.86
855.18	31.57
855.354	19.29
855.529	19.29
855.704	11.09
855.879	140.12
856.053	2.9
856.228	90.96
856.403	11.09
856.577	35.67
856.752	23.38
856.926	88.92
857.101	90.96
857.276	-11.43
857.45	76.63
857.625	-9.39
857.799	56.15
857.974	37.72
858.148	-40.11
858.323	99.16
858.497	60.24
858.672	21.33
858.846	-31.91
859.02	64.34
859.195	101.2
859.369	72.53
859.543	19.29
859.718	62.29
859.892	-3.24
860.066	113.49
860.241	11.09
860.415	39.76
860.589	27.48
860.763	35.67
860.938	41.81
861.112	82.77
861.286	15.19
861.46	131.92
861.634	101.2
861.808	39.76
861.982	-13.48
862.157	17.24
862.331	45.91
862.505	-31.91
862.679	88.92
862.853	35.67
863.027	-56.49
863.201	54.1
863.375	-3.24
863.549	86.87
863.722	101.2
863.896	76.63
864.07	17.24
864.244	25.43
864.418	74.58
864.592	23.38
864.766	47.96
864.939	117.59
865.113	43.86
865.287	25.43
865.461	31.57
865.634	-17.58
865.808	-52.39
865.982	29.52
866.156	-25.77
866.329	33.62
866.503	33.62
866.676	7
866.85	35.67
867.024	-25.77
867.197	52.05
867.371	21.33
867.544	25.43
867.718	52.05
867.891	70.48
868.065	23.38
868.238	-54.44
868.412	70.48
868.585	-13.48
868.759	37.72
868.932	23.38
869.105	43.86
869.279	39.76
869.452	-33.96
869.625	56.15
869.799	88.92
869.972	17.24
870.145	-9.39
870.319	41.81
870.492	7
870.665	33.62
870.838	66.39
871.011	-56.49
871.185	31.57
871.358	-9.39
871.531	-11.43
871.704	31.57
871.877	70.48
872.05	52.05
872.223	0.85
872.396	95.06
872.569	86.87
872.742	15.19
872.915	-5.29
873.088	35.67
873.261	-15.53
873.434	86.87
873.607	74.58
873.78	33.62
873.953	19.29
874.126	58.2
874.299	52.05
874.471	15.19
874.644	35.67
874.817	-5.29
874.99	50
875.163	7
875.335	2.9
875.508	41.81
875.681	19.29
875.853	15.19
876.026	-5.29
876.199	35.67
876.371	43.86
876.544	35.67
876.717	-3.24
876.889	-40.11
877.062	84.82
877.234	-1.19
877.407	68.44
877.579	74.58
877.752	29.52
877.924	70.48
878.097	54.1
878.269	64.34
878.442	84.82
878.614	66.39
878.786	60.24
878.959	4.95
879.131	11.09
879.303	-23.72
879.476	-3.24
879.648	2.9
879.82	62.29
879.993	2.9
880.165	-15.53
880.337	-42.15
880.509	47.96
880.681	33.62
880.854	21.33
881.026	2.9
881.198	37.72
881.37	-38.06
881.542	-62.63
881.714	47.96
881.886	90.96
882.058	-5.29
882.23	0.85
882.402	-21.67
882.574	78.68
882.746	15.19
882.918	68.44
883.09	-27.82
883.262	39.76
883.434	-58.54
883.606	9.05
883.778	-9.39
883.95	-33.96
884.122	2.9
884.293	41.81
884.465	0.85
884.637	13.14
884.809	-38.06
884.98	15.19
885.152	-5.29
885.324	88.92
885.496	29.52
885.667	13.14
885.839	31.57
886.011	2.9
886.182	-5.29
886.354	0.85
886.525	15.19
886.697	56.15
886.869	-25.77
887.04	52.05
887.212	27.48
887.383	45.91
887.555	54.1
887.726	29.52
887.897	21.33
888.069	2.9
888.24	-25.77
888.412	33.62
888.583	19.29
888.754	84.82
888.926	-17.58
889.097	56.15
889.268	21.33
889.44	101.2
889.611	19.29
889.782	-15.53
889.953	-46.25
890.125	93.01
890.296	19.29
890.467	-54.44
890.638	25.43
890.809	35.67
890.98	-54.44
891.151	84.82
891.323	-3.24
891.494	29.52
891.665	15.19
891.836	-5.29
892.007	54.1
892.178	27.48
892.349	23.38
892.52	-1.19
892.691	47.96
892.862	-7.34
893.032	19.29
893.203	43.86
893.374	2.9
893.545	17.24
893.716	4.95
893.887	33.62
894.057	43.86
894.228	-13.48
894.399	4.95
894.57	-3.24
894.74	9.05
894.911	13.14
895.082	39.76
895.253	23.38
895.423	39.76
895.594	11.09
895.764	-15.53
895.935	-60.59
896.106	54.1
896.276	-13.48
896.447	66.39
896.617	60.24
896.788	-27.82
896.958	-15.53
897.129	-25.77
897.299	-15.53
897.47	52.05
897.64	-3.24
897.81	-31.91
897.981	15.19
898.151	-19.63
898.322	54.1
898.492	-29.87
898.662	21.33
898.832	23.38
899.003	43.86
899.173	33.62
899.343	11.09
899.513	7
