Data from USB4F104151__27__11-36-42-925.txt Node

Date: Fri Mar 14 11:36:42 EDT 2025
User: louis
Spectrometer: USB4F10415
Trigger mode: 4
Integration Time (sec): 2.000000E-2
Scans to average: 1
Electric dark correction enabled: true
Nonlinearity correction enabled: false
Boxcar width: 0
XAxis mode: Wavelengths
Number of Pixels in Spectrum: 3648
>>>>>Begin Spectral Data<<<<<
178.204	-143.19
178.424	-143.19
178.644	-143.19
178.864	-87.89
179.084	39.08
179.304	-20.31
179.524	2.22
179.744	-8.02
179.964	45.23
180.184	67.75
180.404	4.27
180.624	-34.64
180.844	-22.36
181.064	-63.32
181.283	34.99
181.503	6.31
181.723	-12.12
181.943	-87.89
182.163	-24.4
182.383	10.41
182.602	-30.55
182.822	75.95
183.042	18.6
183.262	131.24
183.482	55.47
183.701	-18.26
183.921	-8.02
184.141	-18.26
184.361	90.28
184.58	10.41
184.8	82.09
185.02	-59.22
185.239	-10.07
185.459	30.89
185.679	14.51
185.898	49.32
186.118	55.47
186.338	-8.02
186.557	20.65
186.777	16.55
186.997	34.99
187.216	53.42
187.436	22.7
187.655	-5.97
187.875	104.62
188.095	41.13
188.314	16.55
188.534	84.14
188.753	18.6
188.973	-8.02
189.192	37.03
189.412	39.08
189.631	47.27
189.851	-18.26
190.07	-36.69
190.29	106.67
190.509	71.85
190.729	-36.69
190.948	82.09
191.168	118.95
191.387	80.04
191.607	32.94
191.826	24.75
192.045	20.65
192.265	69.8
192.484	41.13
192.704	39.08
192.923	-100.18
193.142	41.13
193.362	57.51
193.581	125.1
193.8	51.37
194.02	0.17
194.239	67.75
194.458	51.37
194.678	4.27
194.897	90.28
195.116	39.08
195.335	55.47
195.555	-5.97
195.774	26.79
195.993	-10.07
196.212	86.19
196.432	37.03
196.651	22.7
196.87	20.65
197.089	57.51
197.308	59.56
197.528	67.75
197.747	12.46
197.966	51.37
198.185	-14.17
198.404	-3.93
198.623	47.27
198.842	14.51
199.062	69.8
199.281	65.71
199.5	69.8
199.719	12.46
199.938	39.08
200.157	75.95
200.376	24.75
200.595	57.51
200.814	30.89
201.033	-8.02
201.252	45.23
201.471	20.65
201.69	-18.26
201.909	6.31
202.128	49.32
202.347	34.99
202.566	65.71
202.785	67.75
203.004	-32.6
203.223	45.23
203.442	2.22
203.661	-34.64
203.879	14.51
204.098	71.85
204.317	41.13
204.536	39.08
204.755	10.41
204.974	-28.5
205.193	139.43
205.411	43.18
205.63	-10.07
205.849	43.18
206.068	-10.07
206.287	82.09
206.505	77.99
206.724	51.37
206.943	34.99
207.162	51.37
207.381	26.79
207.599	-32.6
207.818	69.8
208.037	96.43
208.255	-46.93
208.474	26.79
208.693	8.36
208.911	28.84
209.13	2.22
209.349	0.17
209.567	-18.26
209.786	-10.07
210.005	37.03
210.223	84.14
210.442	6.31
210.661	45.23
210.879	63.66
211.098	61.61
211.316	-3.93
211.535	59.56
211.753	37.03
211.972	-87.89
212.191	34.99
212.409	34.99
212.628	69.8
212.846	22.7
213.065	63.66
213.283	53.42
213.502	10.41
213.72	-12.12
213.938	-38.74
214.157	6.31
214.375	55.47
214.594	8.36
214.812	65.71
215.031	12.46
215.249	16.55
215.467	69.8
215.686	14.51
215.904	75.95
216.122	10.41
216.341	67.75
216.559	-5.97
216.778	0.17
216.996	63.66
217.214	63.66
217.432	12.46
217.651	-30.55
217.869	30.89
218.087	14.51
218.306	92.33
218.524	20.65
218.742	43.18
218.96	63.66
219.179	16.55
219.397	30.89
219.615	106.67
219.833	22.7
220.051	10.41
220.27	75.95
220.488	4.27
220.706	8.36
220.924	-32.6
221.142	86.19
221.36	32.94
221.578	-8.02
221.796	2.22
222.015	-46.93
222.233	39.08
222.451	63.66
222.669	92.33
222.887	26.79
223.105	41.13
223.323	51.37
223.541	39.08
223.759	-14.17
223.977	-53.08
224.195	84.14
224.413	55.47
224.631	71.85
224.849	37.03
225.067	61.61
225.285	-1.88
225.503	2.22
225.721	30.89
225.939	84.14
226.157	59.56
226.375	63.66
226.592	-5.97
226.81	30.89
227.028	18.6
227.246	59.56
227.464	6.31
227.682	55.47
227.9	-12.12
228.117	0.17
228.335	39.08
228.553	14.51
228.771	53.42
228.989	-18.26
229.206	80.04
229.424	77.99
229.642	-34.64
229.86	16.55
230.077	59.56
230.295	47.27
230.513	26.79
230.731	-38.74
230.948	80.04
231.166	28.84
231.384	82.09
231.601	53.42
231.819	90.28
232.037	18.6
232.254	-30.55
232.472	14.51
232.689	-26.45
232.907	37.03
233.125	47.27
233.342	0.17
233.56	80.04
233.777	2.22
233.995	2.22
234.213	24.75
234.43	-28.5
234.648	12.46
234.865	-32.6
235.083	125.1
235.3	84.14
235.518	43.18
235.735	51.37
235.953	73.9
236.17	-14.17
236.388	49.32
236.605	-38.74
236.822	26.79
237.04	51.37
237.257	69.8
237.475	20.65
237.692	43.18
237.909	82.09
238.127	20.65
238.344	88.23
238.562	-1.88
238.779	-34.64
238.996	39.08
239.214	0.17
239.431	67.75
239.648	-5.97
239.865	71.85
240.083	61.61
240.3	77.99
240.517	59.56
240.735	-14.17
240.952	24.75
241.169	28.84
241.386	16.55
241.603	10.41
241.821	0.17
242.038	-8.02
242.255	34.99
242.472	34.99
242.689	39.08
242.907	-38.74
243.124	94.38
243.341	75.95
243.558	41.13
243.775	41.13
243.992	14.51
244.209	43.18
244.426	51.37
244.643	-16.21
244.86	-14.17
245.078	96.43
245.295	6.31
245.512	26.79
245.729	-14.17
245.946	-46.93
246.163	8.36
246.38	-12.12
246.597	61.61
246.814	92.33
247.031	-55.12
247.248	2.22
247.464	112.81
247.681	30.89
247.898	88.23
248.115	67.75
248.332	-1.88
248.549	88.23
248.766	80.04
248.983	12.46
249.2	80.04
249.417	71.85
249.633	30.89
249.85	61.61
250.067	-5.97
250.284	82.09
250.501	4.27
250.717	-59.22
250.934	80.04
251.151	30.89
251.368	43.18
251.585	43.18
251.801	18.6
252.018	-10.07
252.235	67.75
252.451	45.23
252.668	10.41
252.885	41.13
253.102	-5.97
253.318	-5.97
253.535	41.13
253.752	30.89
253.968	24.75
254.185	28.84
254.401	114.86
254.618	24.75
254.835	22.7
255.051	69.8
255.268	22.7
255.484	2.22
255.701	51.37
255.917	47.27
256.134	10.41
256.351	34.99
256.567	-28.5
256.784	41.13
257	10.41
257.217	4.27
257.433	37.03
257.65	0.17
257.866	20.65
258.082	55.47
258.299	-14.17
258.515	18.6
258.732	-8.02
258.948	75.95
259.165	121
259.381	49.32
259.597	69.8
259.814	-16.21
260.03	18.6
260.246	-55.12
260.463	-1.88
260.679	90.28
260.895	71.85
261.112	98.47
261.328	34.99
261.544	2.22
261.761	20.65
261.977	-32.6
262.193	-28.5
262.409	28.84
262.626	55.47
262.842	22.7
263.058	73.9
263.274	16.55
263.49	24.75
263.707	20.65
263.923	18.6
264.139	-30.55
264.355	32.94
264.571	16.55
264.787	-12.12
265.004	67.75
265.22	-28.5
265.436	26.79
265.652	-10.07
265.868	12.46
266.084	-14.17
266.3	18.6
266.516	71.85
266.732	90.28
266.948	73.9
267.164	41.13
267.38	133.29
267.596	22.7
267.812	53.42
268.028	-36.69
268.244	55.47
268.46	53.42
268.676	-48.98
268.892	8.36
269.108	-26.45
269.324	-51.03
269.54	30.89
269.756	75.95
269.972	4.27
270.188	39.08
270.403	67.75
270.619	10.41
270.835	49.32
271.051	84.14
271.267	14.51
271.483	-26.45
271.698	43.18
271.914	-3.93
272.13	-3.93
272.346	47.27
272.562	-18.26
272.777	34.99
272.993	22.7
273.209	-46.93
273.425	43.18
273.64	34.99
273.856	-3.93
274.072	41.13
274.287	-28.5
274.503	32.94
274.719	-12.12
274.934	30.89
275.15	-38.74
275.366	-22.36
275.581	-38.74
275.797	24.75
276.012	55.47
276.228	-12.12
276.444	18.6
276.659	47.27
276.875	-36.69
277.09	-10.07
277.306	106.67
277.521	30.89
277.737	10.41
277.952	18.6
278.168	14.51
278.383	67.75
278.599	84.14
278.814	22.7
279.03	-24.4
279.245	49.32
279.461	63.66
279.676	43.18
279.892	28.84
280.107	57.51
280.322	20.65
280.538	26.79
280.753	28.84
280.969	143.53
281.184	2.22
281.399	-10.07
281.615	-1.88
281.83	61.61
282.045	-16.21
282.26	-22.36
282.476	2.22
282.691	14.51
282.906	75.95
283.122	18.6
283.337	34.99
283.552	59.56
283.767	-28.5
283.983	49.32
284.198	18.6
284.413	24.75
284.628	-36.69
284.843	75.95
285.058	59.56
285.274	16.55
285.489	30.89
285.704	75.95
285.919	-69.46
286.134	-69.46
286.349	110.76
286.564	22.7
286.779	30.89
286.995	-10.07
287.21	20.65
287.425	26.79
287.64	10.41
287.855	75.95
288.07	-1.88
288.285	67.75
288.5	90.28
288.715	-5.97
288.93	18.6
289.145	37.03
289.36	108.71
289.575	-16.21
289.79	39.08
290.004	61.61
290.219	61.61
290.434	59.56
290.649	12.46
290.864	2.22
291.079	22.7
291.294	96.43
291.509	-5.97
291.724	-26.45
291.938	8.36
292.153	14.51
292.368	59.56
292.583	82.09
292.798	18.6
293.012	-14.17
293.227	143.53
293.442	55.47
293.657	32.94
293.871	86.19
294.086	26.79
294.301	88.23
294.516	-5.97
294.73	94.38
294.945	6.31
295.16	55.47
295.374	10.41
295.589	90.28
295.804	-14.17
296.018	-38.74
296.233	43.18
296.447	12.46
296.662	-14.17
296.877	-14.17
297.091	41.13
297.306	22.7
297.52	-1.88
297.735	34.99
297.949	14.51
298.164	45.23
298.378	26.79
298.593	63.66
298.807	34.99
299.022	75.95
299.236	2.22
299.451	67.75
299.665	57.51
299.88	67.75
300.094	14.51
300.309	22.7
300.523	37.03
300.737	18.6
300.952	30.89
301.166	22.7
301.381	49.32
301.595	61.61
301.809	82.09
302.024	75.95
302.238	0.17
302.452	39.08
302.667	67.75
302.881	80.04
303.095	51.37
303.309	69.8
303.524	0.17
303.738	8.36
303.952	-14.17
304.166	49.32
304.381	12.46
304.595	14.51
304.809	57.51
305.023	18.6
305.237	18.6
305.452	43.18
305.666	49.32
305.88	59.56
306.094	63.66
306.308	41.13
306.522	57.51
306.736	51.37
306.95	41.13
307.164	30.89
307.379	28.84
307.593	0.17
307.807	92.33
308.021	129.19
308.235	34.99
308.449	45.23
308.663	-55.12
308.877	96.43
309.091	61.61
309.305	12.46
309.519	26.79
309.733	96.43
309.947	84.14
310.161	-1.88
310.374	49.32
310.588	37.03
310.802	0.17
311.016	-14.17
311.23	-24.4
311.444	-51.03
311.658	75.95
311.872	116.9
312.085	-3.93
312.299	67.75
312.513	55.47
312.727	-16.21
312.941	67.75
313.154	20.65
313.368	92.33
313.582	47.27
313.796	-5.97
314.009	108.71
314.223	26.79
314.437	41.13
314.651	65.71
314.864	108.71
315.078	30.89
315.292	98.47
315.505	26.79
315.719	108.71
315.933	55.47
316.146	37.03
316.36	18.6
316.573	71.85
316.787	43.18
317.001	-5.97
317.214	-14.17
317.428	12.46
317.641	26.79
317.855	129.19
318.068	22.7
318.282	43.18
318.495	57.51
318.709	26.79
318.922	67.75
319.136	39.08
319.349	49.32
319.563	37.03
319.776	-8.02
319.99	14.51
320.203	39.08
320.417	49.32
320.63	41.13
320.843	114.86
321.057	123.05
321.27	-3.93
321.483	26.79
321.697	59.56
321.91	16.55
322.124	41.13
322.337	47.27
322.55	39.08
322.763	77.99
322.977	71.85
323.19	90.28
323.403	32.94
323.617	-18.26
323.83	-12.12
324.043	43.18
324.256	47.27
324.469	26.79
324.683	84.14
324.896	30.89
325.109	-3.93
325.322	34.99
325.535	73.9
325.748	32.94
325.962	-51.03
326.175	-69.46
326.388	-5.97
326.601	139.43
326.814	47.27
327.027	80.04
327.24	65.71
327.453	18.6
327.666	75.95
327.879	94.38
328.092	41.13
328.305	49.32
328.518	-10.07
328.731	45.23
328.944	8.36
329.157	84.14
329.37	39.08
329.583	57.51
329.796	82.09
330.009	4.27
330.222	-24.4
330.435	51.37
330.648	98.47
330.861	16.55
331.073	37.03
331.286	43.18
331.499	88.23
331.712	-65.36
331.925	75.95
332.138	30.89
332.35	10.41
332.563	49.32
332.776	37.03
332.989	-48.98
333.202	18.6
333.414	59.56
333.627	-26.45
333.84	6.31
334.053	32.94
334.265	-55.12
334.478	116.9
334.691	14.51
334.903	26.79
335.116	8.36
335.329	71.85
335.541	8.36
335.754	96.43
335.966	34.99
336.179	14.51
336.392	16.55
336.604	82.09
336.817	-26.45
337.029	-12.12
337.242	-3.93
337.454	127.14
337.667	96.43
337.88	61.61
338.092	55.47
338.305	49.32
338.517	47.27
338.729	22.7
338.942	55.47
339.154	51.37
339.367	26.79
339.579	49.32
339.792	67.75
340.004	106.67
340.217	73.9
340.429	-18.26
340.641	41.13
340.854	4.27
341.066	26.79
341.278	34.99
341.491	96.43
341.703	86.19
341.915	67.75
342.128	59.56
342.34	16.55
342.552	114.86
342.764	22.7
342.977	39.08
343.189	37.03
343.401	100.52
343.613	28.84
343.826	-24.4
344.038	-32.6
344.25	37.03
344.462	90.28
344.674	14.51
344.886	73.9
345.099	41.13
345.311	71.85
345.523	22.7
345.735	59.56
345.947	8.36
346.159	34.99
346.371	2.22
346.583	-65.36
346.795	18.6
347.007	-8.02
347.219	55.47
347.431	59.56
347.643	47.27
347.855	6.31
348.067	98.47
348.279	22.7
348.491	75.95
348.703	0.17
348.915	26.79
349.127	10.41
349.339	18.6
349.551	-5.97
349.763	75.95
349.975	6.31
350.187	43.18
350.399	-14.17
350.61	18.6
350.822	8.36
351.034	34.99
351.246	-28.5
351.458	77.99
351.669	6.31
351.881	53.42
352.093	63.66
352.305	75.95
352.517	-3.93
352.728	77.99
352.94	88.23
353.152	30.89
353.363	12.46
353.575	4.27
353.787	125.1
353.999	75.95
354.21	32.94
354.422	47.27
354.633	0.17
354.845	26.79
355.057	-8.02
355.268	34.99
355.48	90.28
355.692	-22.36
355.903	57.51
356.115	49.32
356.326	34.99
356.538	49.32
356.749	71.85
356.961	69.8
357.172	22.7
357.384	49.32
357.595	53.42
357.807	100.52
358.018	6.31
358.23	63.66
358.441	84.14
358.653	49.32
358.864	-59.22
359.075	65.71
359.287	65.71
359.498	98.47
359.709	12.46
359.921	65.71
360.132	49.32
360.344	57.51
360.555	10.41
360.766	2.22
360.977	30.89
361.189	75.95
361.4	94.38
361.611	-10.07
361.823	49.32
362.034	84.14
362.245	43.18
362.456	30.89
362.667	12.46
362.879	41.13
363.09	34.99
363.301	71.85
363.512	82.09
363.723	106.67
363.935	71.85
364.146	30.89
364.357	69.8
364.568	8.36
364.779	82.09
364.99	116.9
365.201	2.22
365.412	2.22
365.623	24.75
365.834	49.32
366.045	18.6
366.256	-28.5
366.467	32.94
366.678	41.13
366.889	24.75
367.1	-30.55
367.311	131.24
367.522	30.89
367.733	57.51
367.944	67.75
368.155	57.51
368.366	34.99
368.577	37.03
368.788	75.95
368.999	41.13
369.209	32.94
369.42	149.67
369.631	94.38
369.842	75.95
370.053	73.9
370.264	37.03
370.474	53.42
370.685	94.38
370.896	18.6
371.107	55.47
371.317	57.51
371.528	8.36
371.739	63.66
371.95	22.7
372.16	55.47
372.371	51.37
372.582	41.13
372.792	84.14
373.003	65.71
373.214	45.23
373.424	30.89
373.635	22.7
373.846	57.51
374.056	71.85
374.267	80.04
374.477	18.6
374.688	4.27
374.898	55.47
375.109	92.33
375.319	22.7
375.53	49.32
375.74	32.94
375.951	59.56
376.161	41.13
376.372	106.67
376.582	71.85
376.793	96.43
377.003	53.42
377.214	-5.97
377.424	65.71
377.635	39.08
377.845	34.99
378.055	88.23
378.266	-53.08
378.476	75.95
378.686	-36.69
378.897	0.17
379.107	92.33
379.317	88.23
379.528	45.23
379.738	49.32
379.948	43.18
380.158	71.85
380.369	75.95
380.579	41.13
380.789	55.47
380.999	43.18
381.21	90.28
381.42	77.99
381.63	73.9
381.84	102.57
382.05	75.95
382.261	121
382.471	30.89
382.681	-16.21
382.891	57.51
383.101	-1.88
383.311	2.22
383.521	59.56
383.731	114.86
383.941	59.56
384.151	63.66
384.361	12.46
384.571	37.03
384.781	39.08
384.991	100.52
385.201	84.14
385.411	2.22
385.621	32.94
385.831	-22.36
386.041	34.99
386.251	90.28
386.461	59.56
386.671	61.61
386.881	110.76
387.091	43.18
387.301	129.19
387.511	77.99
387.72	63.66
387.93	37.03
388.14	59.56
388.35	75.95
388.56	28.84
388.769	149.67
388.979	96.43
389.189	57.51
389.399	92.33
389.609	69.8
389.818	86.19
390.028	153.77
390.238	67.75
390.447	92.33
390.657	77.99
390.867	24.75
391.076	82.09
391.286	149.67
391.496	49.32
391.705	32.94
391.915	90.28
392.125	104.62
392.334	-8.02
392.544	133.29
392.753	28.84
392.963	63.66
393.172	51.37
393.382	125.1
393.591	104.62
393.801	39.08
394.01	164.01
394.22	129.19
394.429	84.14
394.639	116.9
394.848	71.85
395.058	121
395.267	61.61
395.477	114.86
395.686	90.28
395.895	100.52
396.105	141.48
396.314	53.42
396.524	129.19
396.733	166.06
396.942	18.6
397.152	37.03
397.361	118.95
397.57	106.67
397.78	82.09
397.989	125.1
398.198	112.81
398.407	121
398.617	100.52
398.826	26.79
399.035	32.94
399.244	69.8
399.453	166.06
399.663	143.53
399.872	137.38
400.081	170.15
400.29	186.54
400.499	151.72
400.708	180.39
400.917	10.41
401.127	108.71
401.336	125.1
401.545	153.77
401.754	114.86
401.963	100.52
402.172	110.76
402.381	125.1
402.59	102.57
402.799	200.87
403.008	114.86
403.217	108.71
403.426	209.06
403.635	104.62
403.844	213.16
404.053	90.28
404.262	96.43
404.471	170.15
404.68	184.49
404.888	147.62
405.097	202.92
405.306	153.77
405.515	149.67
405.724	149.67
405.933	223.4
406.142	114.86
406.35	237.74
406.559	133.29
406.768	204.97
406.977	221.35
407.185	221.35
407.394	118.95
407.603	215.21
407.812	256.17
408.02	219.3
408.229	202.92
408.438	231.59
408.646	290.98
408.855	182.44
409.064	268.45
409.272	270.5
409.481	245.93
409.69	346.28
409.898	336.04
410.107	352.42
410.315	280.74
410.524	333.99
410.733	286.89
410.941	411.81
411.15	422.05
411.358	311.46
411.567	411.81
411.775	393.38
411.984	389.28
412.192	442.53
412.401	395.43
412.609	450.72
412.818	463.01
413.026	524.45
413.234	465.06
413.443	555.17
413.651	518.31
413.86	596.13
414.068	616.61
414.276	622.75
414.485	628.9
414.693	575.65
414.901	704.67
415.11	704.67
415.318	762.02
415.526	719.01
415.734	786.59
415.943	737.44
416.151	835.74
416.359	829.6
416.567	805.02
416.776	932
416.984	1007.77
417.192	919.71
417.4	1026.2
417.608	1005.72
417.817	1058.97
418.025	1061.02
418.233	1202.33
418.441	1214.62
418.649	1222.81
418.857	1226.9
419.065	1329.3
419.273	1319.06
419.481	1366.17
419.689	1400.98
419.897	1515.67
420.105	1527.96
420.313	1599.63
420.521	1562.77
420.729	1661.07
420.937	1769.62
421.145	1755.28
421.353	1888.4
421.561	1898.64
421.769	2042
421.977	2207.88
422.185	2119.82
422.393	2203.79
422.601	2447.49
422.809	2300.04
423.017	2271.37
423.224	2349.19
423.432	2547.84
423.64	2496.64
423.848	2687.11
424.056	2566.28
424.263	2818.18
424.471	2889.85
424.679	2873.47
424.887	3022.97
425.094	3123.32
425.302	3176.57
425.51	3246.2
425.718	3451
425.925	3489.91
426.133	3608.69
426.341	3866.74
426.548	3965.04
426.756	3856.5
426.964	3967.09
427.171	4245.61
427.379	4235.37
427.586	4477.03
427.794	4558.95
428.001	4786.27
428.209	4950.11
428.417	4806.75
428.624	5085.28
428.832	5154.91
429.039	5193.82
429.247	5126.24
429.454	5621.84
429.662	6037.58
429.869	5544.02
430.076	6129.74
430.284	5873.75
430.491	6228.04
430.699	6506.57
430.906	6340.68
431.114	6694.98
431.321	6852.67
431.528	6985.79
431.736	7618.61
431.943	7698.49
432.15	7512.12
432.358	7647.29
432.565	8077.36
432.772	7989.3
432.979	8417.32
433.187	8652.84
433.394	8536.1
433.601	8966.18
433.808	9158.69
434.016	9218.08
434.223	9594.9
434.43	10006.55
434.637	9861.14
434.844	10565.64
435.052	10702.86
435.259	10539.02
435.466	10706.95
435.673	10627.08
435.88	11296.77
436.087	11847.67
436.294	11954.16
436.501	11380.73
436.708	11995.12
436.915	12287.98
437.122	12912.61
437.329	13017.06
437.537	13371.36
437.743	13389.79
437.95	13320.16
438.157	14170.07
438.364	14585.8
438.571	14467.02
438.778	14624.72
438.985	16017.33
439.192	15323.07
439.399	15849.4
439.606	15593.4
439.813	16435.12
440.02	17340.32
440.227	17125.29
440.433	17041.32
440.64	17518.5
440.847	17225.64
441.054	17645.47
441.261	18792.33
441.467	18812.81
441.674	19298.18
441.881	19781.5
442.088	20017.02
442.294	19640.19
442.501	20281.21
442.708	20397.94
442.914	21188.46
443.121	22196.06
443.328	21550.95
443.534	23107.4
443.741	22089.56
443.948	22204.25
444.154	23781.18
444.361	23807.81
444.568	23797.57
444.774	24225.59
444.981	24166.2
445.187	24741.68
445.394	26001.18
445.6	25485.09
445.807	28294.91
446.013	26935.06
446.22	27287.31
446.426	28391.16
446.633	28770.04
446.839	29581.03
447.046	28546.81
447.252	30172.89
447.459	30027.49
447.665	30039.78
447.871	31352.52
448.078	32759.48
448.284	31018.71
448.491	32071.36
448.697	32995
448.903	33769.13
449.11	33840.81
449.316	33478.32
449.522	33984.16
449.728	35057.3
449.935	35094.16
450.141	35020.44
450.347	35911.3
450.553	34811.54
450.76	34815.64
450.966	35997.32
451.172	36140.68
451.378	36638.33
451.584	36003.46
451.791	36925.05
451.997	36744.83
452.203	37371.5
452.409	37224.05
452.615	37258.87
452.821	35739.27
453.027	35391.12
453.233	37416.56
453.44	35720.84
453.646	36087.43
453.852	36765.31
454.058	37170.8
454.264	35706.51
454.47	36871.8
454.676	35647.11
454.882	36955.77
455.088	33588.91
455.294	34283.17
455.5	34676.38
455.705	35358.35
455.911	33726.12
456.117	33314.48
456.323	32405.18
456.529	31170.26
456.735	32190.14
456.941	31510.22
457.147	30711.51
457.352	29945.57
457.558	29765.35
457.764	29961.95
457.97	28698.36
458.176	28370.68
458.381	28651.25
458.587	27098.89
458.793	27139.85
458.999	25761.57
459.204	27518.73
459.41	26748.69
459.616	25016.11
459.821	24934.19
460.027	25231.15
460.233	24547.12
460.438	23172.94
460.644	23629.63
460.85	22241.11
461.055	22036.31
461.261	21978.97
461.466	20469.62
461.672	19914.62
461.878	21270.37
462.083	19548.03
462.289	19509.12
462.494	19085.19
462.7	18280.34
462.905	17967
463.111	18440.08
463.316	18608.01
463.522	17997.72
463.727	17991.58
463.932	18108.31
464.138	17948.57
464.343	18143.13
464.549	17694.62
464.754	18243.48
464.959	17938.33
465.165	18044.82
465.37	17141.67
465.575	16496.56
465.781	17274.79
465.986	17356.71
466.191	16586.67
466.397	16375.73
466.602	15542.21
466.807	16488.37
467.012	16281.52
467.218	16381.87
467.423	16203.7
467.628	16185.27
467.833	17047.46
468.038	16064.44
468.244	15626.17
468.449	16299.95
468.654	15572.93
468.859	15849.4
469.064	15339.46
469.269	14911.43
469.474	15052.74
469.679	15060.93
469.885	14739.4
470.09	15318.98
470.295	15060.93
470.5	14972.87
470.705	14714.83
470.91	14426.06
471.115	14258.13
471.32	14624.72
471.525	14346.19
471.73	14112.72
471.935	13744.09
472.139	13537.24
472.344	13707.23
472.549	13574.11
472.754	13336.54
472.959	13119.46
473.164	13006.82
473.369	12679.15
473.574	13273.06
473.778	12877.8
473.983	12969.96
474.188	12834.79
474.393	12171.25
474.598	12574.7
474.802	12490.73
475.007	12021.75
475.212	12042.23
475.417	11575.29
475.621	11925.49
475.826	11653.11
476.031	11526.14
476.235	11120.64
476.44	11567.1
476.645	11227.14
476.849	11337.73
477.054	11333.63
477.259	11073.54
477.463	11278.33
477.668	10815.49
477.872	10950.66
478.077	10600.46
478.282	10348.56
478.486	10414.09
478.691	10315.79
478.895	10262.54
479.1	10301.45
479.304	10307.6
479.509	9785.37
479.713	10143.76
479.918	10037.27
480.122	9508.89
480.326	9895.96
480.531	9746.45
480.735	9609.24
480.94	9574.42
481.144	9990.16
481.348	9545.75
481.553	9558.04
481.757	9164.83
481.961	9601.05
482.166	9633.82
482.37	9689.11
482.574	9500.7
482.778	9553.94
482.983	9629.72
483.187	9404.44
483.391	9578.52
483.595	9316.38
483.8	9412.64
484.004	9512.99
484.208	9541.66
484.412	9467.93
484.616	9488.41
484.821	9390.11
485.025	9328.67
485.229	9490.46
485.433	9320.48
485.637	9512.99
485.841	9433.11
486.045	9431.07
486.249	9367.58
486.453	9289.76
486.657	9439.26
486.861	9390.11
487.065	9068.58
487.269	9222.17
487.473	9191.45
487.677	9388.06
487.881	9580.57
488.085	9459.74
488.289	9404.44
488.493	9369.63
488.697	9453.59
488.901	9603.1
489.105	9447.45
489.309	9508.89
489.512	9449.5
489.716	9646.1
489.92	9633.82
490.124	9650.2
490.328	9635.86
490.531	9644.06
490.735	9705.49
490.939	9717.78
491.143	9682.97
491.346	9654.3
491.55	9881.62
491.754	9752.6
491.958	9680.92
492.161	10012.69
492.365	9889.81
492.569	9881.62
492.772	9967.63
492.976	9967.63
493.18	10137.62
493.383	10287.12
493.587	10221.58
493.79	10395.66
493.994	10381.32
494.197	10618.89
494.401	10422.28
494.605	10582.03
494.808	10665.99
495.012	10625.03
495.215	10643.46
495.419	10682.38
495.622	10850.31
495.825	11118.59
496.029	10958.85
496.232	11110.4
496.436	11036.67
496.639	11452.41
496.843	11487.23
497.046	11583.48
497.249	11550.71
497.453	11732.98
497.656	11833.33
497.859	11753.46
498.063	11902.97
498.266	12314.61
498.469	12095.47
498.673	12472.3
498.876	12763.11
499.079	12707.82
499.282	12754.92
499.485	12795.88
499.689	13260.77
499.892	13205.47
500.095	13160.42
500.298	13510.62
500.501	13512.67
500.705	13821.91
500.908	13809.62
501.111	14065.62
501.314	14294.99
501.517	14229.46
501.72	14503.89
501.923	14415.82
502.126	14802.89
502.329	15087.56
502.532	15173.57
502.735	15323.07
502.938	15622.08
503.141	15542.21
503.344	15667.13
503.547	15951.8
503.75	15994.81
503.953	16449.46
504.156	16453.55
504.359	16508.85
504.562	16639.92
504.765	16891.82
504.968	17051.56
505.17	17483.68
505.373	17344.42
505.576	17768.35
505.779	17635.23
505.982	18177.94
506.185	18317.2
506.387	18403.22
506.59	18474.9
506.793	18993.03
506.996	18816.91
507.198	19496.83
507.401	19181.45
507.604	19263.36
507.807	19736.45
508.009	20176.76
508.212	19931
508.415	20473.71
508.617	20569.97
508.82	20711.28
509.022	20817.77
509.225	21413.73
509.428	21157.74
509.63	21544.8
509.833	21495.65
510.035	22116.19
510.238	22134.62
510.44	22290.26
510.643	22574.93
510.845	22665.04
511.048	22646.61
511.25	22908.75
511.453	23076.68
511.655	24125.24
511.858	23390.02
512.06	23560
512.262	24217.4
512.465	24303.42
512.667	24516.4
512.87	24467.25
513.072	24649.52
513.274	25218.86
513.477	25722.66
513.679	25730.85
513.881	26134.3
514.084	26119.96
514.286	25995.04
514.488	26300.19
514.69	26996.49
514.893	27178.76
515.095	27449.1
515.297	27272.97
515.499	27248.39
515.701	27696.9
515.904	28239.61
516.106	28315.39
516.308	28638.97
516.51	28724.98
516.712	28974.83
516.914	28960.5
517.116	29818.6
517.318	29490.92
517.52	29791.97
517.722	29970.15
517.925	30189.28
518.127	30566.1
518.329	30895.83
518.531	30617.3
518.733	31321.8
518.935	31569.61
519.136	31100.62
519.338	31813.32
519.54	31819.46
519.742	32280.25
519.944	32368.32
520.146	32726.71
520.348	33263.28
520.55	33044.15
520.752	33160.88
520.954	34049.7
521.155	33601.19
521.357	34291.36
521.559	34307.74
521.761	34600.6
521.963	34672.28
522.164	34639.51
522.366	35020.44
522.568	35276.43
522.77	35311.25
522.971	36056.71
523.173	35344.02
523.375	36279.94
523.576	36204.16
523.778	36148.87
523.98	36832.89
524.181	36730.49
524.383	36769.4
524.584	37529.2
524.786	36970.1
524.988	37377.65
525.189	37455.47
525.391	37666.41
525.592	37666.41
525.794	37746.28
525.995	38440.54
526.197	38123.11
526.398	38311.52
526.6	38186.6
526.801	38727.26
527.003	38717.02
527.204	38520.41
527.406	38813.27
527.607	38958.68
527.808	39288.4
528.01	39095.89
528.211	39161.43
528.412	39757.39
528.614	39611.98
528.815	39562.83
529.016	40181.32
529.218	39538.26
529.419	40154.69
529.62	40033.86
529.822	40269.38
530.023	40226.37
530.224	39894.6
530.425	39890.51
530.626	39992.9
530.828	39978.57
531.029	40891.96
531.23	40365.63
531.431	40308.29
531.632	40429.12
531.833	40795.71
532.035	40175.17
532.236	40357.44
532.437	40724.03
532.638	40580.67
532.839	40603.2
533.04	41094.71
533.241	40136.26
533.442	41045.56
533.643	40906.3
533.844	40472.13
534.045	40543.81
534.246	40515.14
534.447	40961.59
534.648	40695.36
534.849	40660.54
535.05	40687.17
535.251	40736.32
535.451	40633.92
535.652	41020.98
535.853	40666.69
536.054	40863.29
536.255	41236.02
536.456	40611.39
536.657	41172.53
536.857	40619.58
537.058	40777.28
537.259	40808
537.46	40693.31
537.66	40775.23
537.861	40635.97
538.062	40617.53
538.263	40947.26
538.463	40746.56
538.664	40791.61
538.865	40832.57
539.065	41000.51
539.266	40693.31
539.466	41029.18
539.667	40027.72
539.868	41127.48
540.068	40480.32
540.269	40394.31
540.469	41123.38
540.67	40339.01
540.87	40332.87
541.071	40611.39
541.271	41037.37
541.472	40808
541.672	40734.27
541.873	40654.4
542.073	40046.15
542.274	40689.21
542.474	40470.08
542.675	40121.93
542.875	40508.99
543.075	39878.22
543.276	40328.77
543.476	40756.8
543.676	40453.7
543.877	40527.42
544.077	40156.74
544.277	40195.65
544.478	40412.74
544.678	40447.55
544.878	40502.85
545.078	40382.02
545.279	40177.22
545.479	40113.73
545.679	40349.25
545.879	40224.32
546.079	40156.74
546.28	40134.21
546.48	39876.17
546.68	40250.95
546.88	40390.21
547.08	40146.5
547.28	39829.07
547.48	39767.63
547.68	40195.65
547.88	39568.97
548.081	40371.78
548.281	40203.85
548.481	40095.3
548.681	40576.58
548.881	40054.34
549.081	39607.89
549.28	39988.81
549.48	40334.92
549.68	39982.66
549.88	40355.39
550.08	39497.3
550.28	39908.94
550.48	39913.03
550.68	39980.62
550.88	39898.7
551.08	39919.18
551.279	40021.58
551.479	39761.48
551.679	39720.52
551.879	39800.4
552.079	39880.27
552.278	39546.45
552.478	39845.45
552.678	39960.14
552.878	39775.82
553.077	39935.56
553.277	39560.78
553.477	40267.33
553.676	39507.54
553.876	39824.97
554.076	39513.68
554.275	39501.39
554.475	39028.31
554.674	39249.49
554.874	39456.34
555.074	39374.42
555.273	39583.31
555.473	39620.17
555.672	39003.74
555.872	39202.39
556.071	39429.71
556.271	39515.73
556.47	39337.55
556.67	38798.94
556.869	39456.34
557.068	39079.51
557.268	39126.61
557.467	39421.52
557.667	39030.36
557.866	38960.73
558.065	38907.48
558.265	38719.07
558.464	38549.09
558.663	38940.25
558.863	38323.81
559.062	39097.94
559.261	38577.76
559.461	39153.24
559.66	38616.67
559.859	38743.64
560.058	38413.92
560.258	38635.1
560.457	37707.37
560.656	38841.95
560.855	38483.55
561.054	38172.26
561.253	38116.97
561.453	38151.78
561.652	38090.34
561.851	38510.18
562.05	38284.9
562.249	37924.46
562.448	38159.97
562.647	38086.25
562.846	37889.64
563.045	37916.26
563.244	37695.08
563.443	38262.37
563.642	37256.82
563.841	37647.98
564.04	37670.51
564.239	37723.76
564.438	37410.42
564.637	37316.21
564.836	37674.6
565.035	37146.23
565.234	37459.57
565.432	37490.29
565.631	37135.99
565.83	37013.11
566.029	36761.21
566.228	37000.82
566.427	36998.77
566.625	36808.31
566.824	36365.95
567.023	36638.33
567.222	36351.62
567.42	36603.52
567.619	36613.76
567.818	36523.65
568.016	36183.68
568.215	36677.24
568.414	35911.3
568.612	36472.45
568.811	36042.37
569.01	36380.29
569.208	35679.88
569.407	36025.99
569.605	35557
569.804	35620.49
570.002	35851.91
570.201	35815.05
570.4	35231.38
570.598	35536.52
570.797	35260.05
570.995	35532.43
571.193	35311.25
571.392	35647.11
571.59	35042.96
571.789	35171.99
571.987	34918.04
572.186	35063.44
572.384	34993.81
572.582	34948.76
572.781	35163.79
572.979	34522.78
573.177	34567.84
573.376	35112.59
573.574	34651.8
573.772	34678.43
573.971	34500.25
574.169	34254.5
574.367	34143.91
574.565	34547.36
574.763	33758.89
574.962	34162.34
575.16	33408.68
575.358	33971.88
575.556	33748.65
575.754	34111.14
575.952	33746.6
576.151	33961.64
576.349	33410.73
576.547	33437.36
576.745	33466.03
576.943	33693.35
577.141	33136.31
577.339	33468.08
577.537	33181.36
577.735	32845.49
577.933	32872.12
578.131	33078.96
578.329	33040.05
578.527	32616.12
578.725	32636.6
578.923	32911.03
579.121	32274.11
579.319	32466.62
579.516	32440
579.714	32489.15
579.912	32263.87
580.11	31981.25
580.308	32001.73
580.506	32028.35
580.704	31411.92
580.901	32337.6
581.099	32218.82
581.297	31553.23
581.495	31813.32
581.692	31833.8
581.89	31405.77
582.088	32046.79
582.285	31575.75
582.483	32028.35
582.681	31626.95
582.878	31172.3
583.076	30729.94
583.274	31135.44
583.471	31010.51
583.669	30887.64
583.866	30727.89
584.064	30848.72
584.262	30457.56
584.459	30619.35
584.657	30416.6
584.854	30645.98
585.052	30215.9
585.249	30607.06
585.447	30361.31
585.644	29867.75
585.841	30158.56
586.039	30334.68
586.236	29843.17
586.434	29724.39
586.631	29550.31
586.828	29660.9
587.026	29892.32
587.223	29701.86
587.42	29499.11
587.618	29279.98
587.815	29083.37
588.012	29322.99
588.21	29148.91
588.407	29279.98
588.604	28806.9
588.801	28876.53
588.999	29214.44
589.196	28954.35
589.393	28974.83
589.59	28911.35
589.787	28489.46
589.984	28520.18
590.182	28196.6
590.379	28323.58
590.576	28509.94
590.773	28299
590.97	28212.99
591.167	28229.37
591.364	27993.86
591.561	28040.96
591.758	27811.59
591.955	27578.12
592.152	28038.91
592.349	27393.8
592.546	27498.25
592.743	27473.67
592.94	27119.37
593.137	27330.31
593.334	27332.36
593.531	27082.51
593.727	27305.74
593.924	27119.37
594.121	26758.93
594.318	27047.69
594.515	26730.26
594.712	26851.09
594.908	26480.41
595.105	26527.51
595.302	26210.07
595.499	26527.51
595.696	26439.45
595.892	26248.99
596.089	26122.01
596.286	26242.84
596.482	26134.3
596.679	25956.13
596.876	26103.58
597.072	25610.02
597.269	25886.5
597.466	25337.64
597.662	25450.28
597.859	25632.55
598.055	25747.23
598.252	25677.6
598.448	25634.6
598.645	25034.54
598.841	25138.99
599.038	25214.76
599.234	24940.33
599.431	24997.68
599.627	24649.52
599.824	24809.26
600.02	24665.91
600.217	24977.2
600.413	24663.86
600.609	24411.96
600.806	24543.03
601.002	24454.97
601.198	23994.17
601.395	24211.26
601.591	24098.62
601.787	24160.06
601.984	23998.27
602.18	24139.58
602.376	24000.32
602.572	24160.06
602.769	23641.92
602.965	23660.35
603.161	23658.31
603.357	23459.65
603.553	23437.13
603.75	23447.36
603.946	23078.73
604.142	23439.17
604.338	22955.85
604.534	23383.88
604.73	23080.78
604.926	23150.41
605.122	23146.31
605.318	22828.88
605.514	22656.85
605.71	23025.48
605.906	22689.62
606.102	22544.21
606.298	22755.15
606.494	22609.75
606.69	22615.89
606.886	22382.42
607.082	22239.06
607.278	22419.28
607.474	22011.74
607.67	22175.58
607.866	21876.57
608.062	22286.17
608.257	21821.28
608.453	22132.57
608.649	22271.83
608.845	21837.66
609.041	22075.23
609.236	21743.45
609.432	22179.67
609.628	21763.93
609.824	21602.15
610.019	21481.31
610.215	21505.89
610.411	21376.87
610.606	21593.95
610.802	21452.64
610.998	21423.97
611.193	21448.55
611.389	21299.05
611.584	21245.8
611.78	21110.63
611.976	21335.91
612.171	21108.58
612.367	21278.57
612.562	21112.68
612.758	20670.32
612.953	20891.5
613.149	21215.08
613.344	20787.05
613.539	21157.74
613.735	20973.42
613.93	20805.49
614.126	20666.22
614.321	21010.28
614.517	20823.92
614.712	20584.3
614.907	20563.82
615.103	20809.58
615.298	20512.63
615.493	20879.21
615.688	20412.28
615.884	20723.57
616.079	20127.61
616.274	20197.24
616.47	20170.61
616.665	20578.16
616.86	20184.95
617.055	20289.4
617.25	20176.76
617.445	20348.79
617.641	19709.82
617.836	20008.83
618.031	20035.45
618.226	19885.95
618.421	19621.76
618.616	19912.57
618.811	19656.57
619.006	19816.32
619.201	19294.08
619.396	19613.57
619.591	19249.03
619.786	19556.22
619.981	19083.14
620.176	19255.17
620.371	18718.61
620.566	18982.79
620.761	19136.39
620.956	18988.94
621.151	18507.66
621.346	19025.8
621.541	18544.53
621.735	18524.05
621.93	18392.98
622.125	18413.46
622.32	18063.26
622.515	18466.7
622.709	18272.15
622.904	18081.69
623.099	17973.14
623.294	17811.35
623.488	17581.98
623.683	18114.45
623.878	17715.1
624.072	17821.59
624.267	17608.61
624.462	17391.52
624.656	17418.14
624.851	17131.43
625.046	17047.46
625.24	17219.49
625.435	16844.71
625.629	16721.84
625.824	16666.54
626.018	16488.37
626.213	16293.81
626.407	16584.62
626.602	16246.71
626.796	16322.48
626.991	16302
627.185	16334.77
627.38	15882.17
627.574	15851.45
627.768	15871.93
627.963	15534.01
628.157	15427.52
628.352	15675.32
628.546	15275.97
628.74	15386.56
628.935	15241.15
629.129	15300.55
629.323	14936.01
629.517	15222.72
629.712	14942.15
629.906	14958.53
630.1	14712.78
630.294	14772.17
630.489	14596.04
630.683	14475.21
630.877	14505.93
631.071	14385.1
631.265	14649.29
631.459	14522.32
631.653	14272.46
631.848	14340.05
632.042	14059.48
632.236	14219.22
632.43	13891.54
632.624	13817.82
632.818	13703.13
633.012	13709.27
633.206	13580.25
633.4	13850.58
633.594	13492.19
633.788	13637.59
633.982	13432.8
634.176	13369.31
634.369	13297.63
634.563	13070.31
634.757	13152.23
634.951	13080.55
635.145	13240.29
635.339	13133.79
635.533	12947.43
635.726	12838.89
635.92	12658.67
636.114	12771.3
636.308	12658.67
636.501	12576.75
636.695	12734.44
636.889	12306.41
637.083	12355.57
637.276	12394.48
637.47	12206.06
637.664	12146.67
637.857	12154.87
638.051	12095.47
638.244	12193.78
638.438	11907.06
638.632	11835.38
638.825	11583.48
639.019	11694.07
639.212	11761.66
639.406	11743.22
639.599	11784.18
639.793	11726.84
639.986	11257.85
640.18	11536.38
640.373	11147.26
640.567	11286.53
640.76	11272.19
640.954	11134.98
641.147	11018.24
641.34	11094.02
641.534	11102.21
641.727	10967.04
641.92	10852.36
642.114	10874.88
642.307	10733.57
642.5	10774.53
642.694	10491.91
642.887	10567.69
643.08	10465.29
643.273	10541.07
643.467	10418.19
643.66	10559.5
643.853	10303.5
644.046	10215.44
644.239	10199.06
644.432	10262.54
644.626	10176.53
644.819	10199.06
645.012	10057.75
645.205	9981.97
645.398	10020.88
645.591	9644.06
645.784	9916.44
645.977	9525.27
646.17	9889.81
646.363	9629.72
646.556	9328.67
646.749	9400.35
646.942	9510.94
647.135	9365.53
647.328	9529.37
647.521	9467.93
647.714	9195.55
647.907	9275.42
648.099	9197.6
648.292	9093.15
648.485	9187.36
648.678	8859.68
648.871	8964.13
649.064	9041.95
649.256	9207.84
649.449	8992.8
649.642	8749.09
649.835	8622.12
650.027	8669.22
650.22	8505.38
650.413	8685.61
650.605	8448.04
650.798	8529.96
650.991	8419.37
651.183	8439.85
651.376	8486.95
651.568	8503.34
651.761	8280.11
651.954	8390.7
652.146	8214.57
652.339	8243.24
652.531	8198.19
652.724	8216.62
652.916	7878.71
653.109	7954.48
653.301	7989.3
653.494	7991.34
653.686	7997.49
653.879	8034.35
654.071	7688.25
654.263	7700.53
654.456	7837.75
654.648	7686.2
654.84	7635
655.033	7364.67
655.225	7417.91
655.417	7602.23
655.61	7542.84
655.802	7546.94
655.994	7546.94
656.186	7594.04
656.379	7272.51
656.571	7430.2
656.763	7274.56
656.955	7303.23
657.148	7163.97
657.34	7108.67
657.532	6940.74
657.724	7020.61
657.916	6944.83
658.108	7145.53
658.3	7020.61
658.492	6996.03
658.684	6971.46
658.876	6871.11
659.068	6731.84
659.26	6744.13
659.452	6795.33
659.644	6549.57
659.836	6725.7
660.028	6594.63
660.22	6518.86
660.412	6627.4
660.604	6461.51
660.796	6434.89
660.988	6508.62
661.18	6574.15
661.372	6279.24
661.563	6258.76
661.755	6246.48
661.947	6285.39
662.139	6185.04
662.331	6189.13
662.522	6275.15
662.714	6162.51
662.906	6144.08
663.097	6131.79
663.289	5943.38
663.481	5974.1
663.673	6002.77
663.864	5890.13
664.056	5943.38
664.247	5957.71
664.439	5982.29
664.631	5857.36
664.822	5933.14
665.014	5957.71
665.205	5818.45
665.397	5677.14
665.588	5689.43
665.78	5711.96
665.971	5709.91
666.163	5734.48
666.354	5646.42
666.546	5605.46
666.737	5494.87
666.929	5517.4
667.12	5517.4
667.311	5527.64
667.503	5433.43
667.694	5472.34
667.885	5505.11
668.077	5417.05
668.268	5304.41
668.459	5267.55
668.651	5199.96
668.842	5345.37
669.033	5240.92
669.224	5238.87
669.416	5165.15
669.607	5296.22
669.798	4993.12
669.989	5234.78
670.18	5144.67
670.371	5095.52
670.563	4980.83
670.754	5113.95
670.945	4986.97
671.136	5046.37
671.327	5038.17
671.518	4997.21
671.709	4948.06
671.9	4939.87
672.091	4841.57
672.282	4991.07
672.473	4931.68
672.664	4978.78
672.855	4870.24
673.046	4710.5
673.237	4739.17
673.428	4866.14
673.619	4788.32
673.809	4694.12
674	4741.22
674.191	4773.99
674.382	4733.03
674.573	4655.2
674.764	4589.67
674.954	4690.02
675.145	4554.85
675.336	4587.62
675.527	4505.7
675.717	4565.09
675.908	4474.98
676.099	4585.57
676.289	4483.17
676.48	4575.33
676.671	4522.09
676.861	4583.52
677.052	4495.46
677.243	4384.87
677.433	4444.26
677.624	4382.82
677.814	4382.82
678.005	4409.45
678.195	4571.24
678.386	4401.26
678.576	4282.47
678.767	4286.57
678.957	4327.53
679.148	4341.86
679.338	4278.38
679.529	4384.87
679.719	4245.61
679.909	4409.45
680.1	4268.14
680.29	4356.2
680.481	4259.95
680.671	4198.51
680.861	4188.27
681.052	4239.47
681.242	4243.56
681.432	4229.23
681.622	4245.61
681.813	4249.71
682.003	4053.1
682.193	4128.88
682.383	4175.98
682.573	4231.27
682.764	4194.41
682.954	4198.51
683.144	4081.77
683.334	4112.49
683.524	4178.03
683.714	4003.95
683.904	4118.64
684.094	4071.53
684.284	3962.99
684.474	4049
684.664	4094.06
684.854	4106.35
685.044	3936.37
685.234	3926.13
685.424	3942.51
685.614	4094.06
685.804	3965.04
685.994	3999.85
686.184	3907.7
686.374	3971.18
686.564	3870.83
686.753	3909.74
686.943	3659.89
687.133	3819.63
687.323	3784.82
687.513	3852.4
687.702	3760.24
687.892	3768.43
688.082	3784.82
688.272	3790.96
688.461	3770.48
688.651	3676.27
688.841	3717.23
689.03	3672.18
689.22	3639.41
689.41	3737.71
689.599	3502.2
689.789	3575.92
689.979	3385.46
690.168	3479.67
690.358	3541.11
690.547	3512.44
690.737	3537.01
690.926	3600.5
691.116	3369.08
691.305	3240.06
691.495	3422.33
691.684	3336.31
691.874	3342.46
692.063	3369.08
692.252	3393.65
692.442	3379.32
692.631	3321.98
692.82	3379.32
693.01	3377.27
693.199	3315.83
693.388	3203.19
693.578	3201.15
693.767	3219.58
693.956	3074.17
694.146	3238.01
694.335	3211.39
694.524	3135.61
694.713	3115.13
694.902	3104.89
695.092	3137.66
695.281	3072.12
695.47	3106.94
695.659	3000.44
695.848	2957.44
696.037	3014.78
696.226	3057.79
696.415	2959.49
696.604	2963.58
696.793	3053.69
696.982	2934.91
697.171	2953.34
697.36	3004.54
697.549	2912.38
697.738	2721.92
697.927	2773.12
698.116	2756.74
698.305	2865.28
698.494	2922.62
698.683	2867.33
698.872	2879.61
699.061	2848.9
699.25	2650.24
699.438	2738.3
699.627	2900.09
699.816	2861.18
700.005	2717.83
700.193	2775.17
700.382	2781.31
700.571	2764.93
700.76	2740.35
700.948	2672.77
701.137	2621.57
701.326	2611.33
701.514	2674.82
701.703	2744.45
701.892	2560.13
702.08	2728.07
702.269	2779.26
702.457	2580.61
702.646	2801.79
702.834	2642.05
703.023	2648.19
703.212	2664.58
703.4	2683.01
703.589	2640
703.777	2695.3
703.965	2482.31
704.154	2652.29
704.342	2668.67
704.531	2580.61
704.719	2531.46
704.907	2578.56
705.096	2543.75
705.284	2574.47
705.472	2652.29
705.661	2594.95
705.849	2586.76
706.037	2533.51
706.226	2674.82
706.414	2650.24
706.602	2531.46
706.79	2564.23
706.979	2386.05
707.167	2615.43
707.355	2627.71
707.543	2470.02
707.731	2545.8
707.919	2467.97
708.107	2384.01
708.296	2543.75
708.484	2508.93
708.672	2498.69
708.86	2472.07
709.048	2398.34
709.236	2353.29
709.424	2502.79
709.612	2531.46
709.8	2377.86
709.988	2513.03
710.176	2515.08
710.364	2531.46
710.551	2533.51
710.739	2492.55
710.927	2580.61
711.115	2418.82
711.303	2494.6
711.491	2406.53
711.679	2467.97
711.866	2529.41
712.054	2484.36
712.242	2502.79
712.43	2513.03
712.617	2457.73
712.805	2551.94
712.993	2535.56
713.181	2566.28
713.368	2474.12
713.556	2424.97
713.744	2445.45
713.931	2613.38
714.119	2525.32
714.306	2427.01
714.494	2437.25
714.682	2470.02
714.869	2420.87
715.057	2467.97
715.244	2492.55
715.432	2508.93
715.619	2580.61
715.807	2529.41
715.994	2510.98
716.182	2463.88
716.369	2633.86
716.556	2474.12
716.744	2353.29
716.931	2371.72
717.119	2576.52
717.306	2558.08
717.493	2404.49
717.681	2551.94
717.868	2500.74
718.055	2588.8
718.242	2486.4
718.43	2480.26
718.617	2572.42
718.804	2498.69
718.991	2539.65
719.179	2547.84
719.366	2441.35
719.553	2476.16
719.74	2435.21
719.927	2377.86
720.114	2476.16
720.301	2482.31
720.488	2599.04
720.676	2478.21
720.863	2623.62
721.05	2525.32
721.237	2537.6
721.424	2551.94
721.611	2599.04
721.798	2463.88
721.985	2488.45
722.172	2582.66
722.358	2592.9
722.545	2635.91
722.732	2521.22
722.919	2549.89
723.106	2562.18
723.293	2609.28
723.48	2560.13
723.667	2506.88
723.853	2498.69
724.04	2578.56
724.227	2607.23
724.414	2566.28
724.6	2588.8
724.787	2472.07
724.974	2592.9
725.161	2553.99
725.347	2474.12
725.534	2623.62
725.72	2746.5
725.907	2375.81
726.094	2603.14
726.28	2510.98
726.467	2597
726.653	2549.89
726.84	2590.85
727.027	2570.37
727.213	2556.04
727.4	2599.04
727.586	2576.52
727.773	2654.34
727.959	2648.19
728.145	2508.93
728.332	2494.6
728.518	2613.38
728.705	2646.15
728.891	2482.31
729.077	2535.56
729.264	2607.23
729.45	2629.76
729.636	2539.65
729.823	2521.22
730.009	2586.76
730.195	2613.38
730.382	2672.77
730.568	2597
730.754	2611.33
730.94	2613.38
731.126	2613.38
731.313	2635.91
731.499	2582.66
731.685	2463.88
731.871	2689.15
732.057	2525.32
732.243	2615.43
732.429	2621.57
732.615	2580.61
732.801	2576.52
732.987	2576.52
733.173	2635.91
733.359	2562.18
733.545	2564.23
733.731	2551.94
733.917	2627.71
734.103	2605.19
734.289	2683.01
734.475	2486.4
734.661	2723.97
734.847	2539.65
735.033	2609.28
735.219	2617.47
735.404	2658.43
735.59	2553.99
735.776	2541.7
735.962	2562.18
736.148	2433.16
736.333	2635.91
736.519	2599.04
736.705	2529.41
736.89	2590.85
737.076	2574.47
737.262	2480.26
737.447	2431.11
737.633	2547.84
737.819	2525.32
738.004	2529.41
738.19	2654.34
738.375	2437.25
738.561	2574.47
738.747	2570.37
738.932	2539.65
739.118	2459.78
739.303	2547.84
739.489	2519.17
739.674	2482.31
739.859	2504.84
740.045	2381.96
740.23	2506.88
740.416	2459.78
740.601	2517.12
740.786	2504.84
740.972	2472.07
741.157	2332.81
741.342	2381.96
741.528	2332.81
741.713	2492.55
741.898	2443.4
742.084	2449.54
742.269	2377.86
742.454	2437.25
742.639	2361.48
742.824	2461.83
743.01	2320.52
743.195	2357.38
743.38	2304.14
743.565	2271.37
743.75	2353.29
743.935	2304.14
744.12	2293.9
744.305	2304.14
744.49	2234.5
744.675	2248.84
744.86	2238.6
745.045	2287.75
745.23	2412.68
745.415	2261.13
745.6	2324.62
745.785	2177.16
745.97	2240.65
746.155	2173.07
746.34	2279.56
746.525	2234.5
746.71	2168.97
746.895	2105.48
747.079	2134.15
747.264	2181.26
747.449	2007.18
747.634	2164.87
747.819	2117.77
748.003	2062.48
748.188	2074.76
748.373	2035.85
748.557	2087.05
748.742	2023.56
748.927	2037.9
749.111	1968.27
749.296	2156.68
749.481	2048.14
749.665	1931.41
749.85	2023.56
750.034	2037.9
750.219	2013.32
750.404	1935.5
750.588	1867.92
750.773	1810.58
750.957	1933.45
751.141	1876.11
751.326	1816.72
751.51	1849.49
751.695	1857.68
751.879	1867.92
752.064	1865.87
752.248	1712.27
752.432	1833.1
752.617	1742.99
752.801	1804.43
752.985	1796.24
753.17	1734.8
753.354	1702.03
753.538	1661.07
753.722	1667.22
753.907	1652.88
754.091	1665.17
754.275	1611.92
754.459	1605.78
754.643	1740.94
754.828	1742.99
755.012	1656.98
755.196	1624.21
755.38	1595.54
755.564	1573.01
755.748	1487
755.932	1622.16
756.116	1499.28
756.3	1464.47
756.484	1427.6
756.668	1491.09
756.852	1484.95
757.036	1505.43
757.22	1439.89
757.404	1540.24
757.588	1370.26
757.772	1536.15
757.956	1550.48
758.14	1554.58
758.323	1550.48
758.507	1446.04
758.691	1427.6
758.875	1398.93
759.059	1466.52
759.242	1499.28
759.426	1280.15
759.61	1366.17
759.794	1317.01
759.977	1343.64
760.161	1335.45
760.345	1355.93
760.528	1435.8
760.712	1388.69
760.895	1337.49
761.079	1337.49
761.263	1241.24
761.446	1220.76
761.63	1255.58
761.813	1271.96
761.997	1226.9
762.18	1247.38
762.364	1235.1
762.547	1194.14
762.731	1235.1
762.914	1222.81
763.098	1190.04
763.281	1202.33
763.464	1280.15
763.648	1165.46
763.831	1138.84
764.015	1157.27
764.198	1243.29
764.381	1255.58
764.564	1257.62
764.748	1165.46
764.931	1185.94
765.114	1136.79
765.297	1067.16
765.481	1067.16
765.664	1179.8
765.847	1169.56
766.03	1185.94
766.213	1038.49
766.397	1093.79
766.58	1058.97
766.763	1030.3
766.946	1144.99
767.129	1122.46
767.312	1126.55
767.495	1108.12
767.678	1177.75
767.861	1142.94
768.044	1058.97
768.227	1091.74
768.41	968.86
768.593	1069.21
768.776	1009.82
768.959	1067.16
769.142	1083.55
769.324	1007.77
769.507	1015.96
769.69	1036.44
769.873	1026.2
770.056	1091.74
770.239	1001.63
770.421	987.29
770.604	1042.59
770.787	956.57
770.97	977.05
771.152	997.53
771.335	942.24
771.518	915.61
771.7	977.05
771.883	1013.92
772.066	985.24
772.248	948.38
772.431	1054.87
772.613	956.57
772.796	829.6
772.978	891.04
773.161	942.24
773.343	882.85
773.526	909.47
773.708	907.42
773.891	864.41
774.073	850.08
774.256	843.93
774.438	946.33
774.621	802.97
774.803	809.12
774.985	907.42
775.168	907.42
775.35	852.13
775.532	934.04
775.715	811.17
775.897	802.97
776.079	870.56
776.261	796.83
776.444	815.26
776.626	743.58
776.808	766.11
776.99	848.03
777.173	753.82
777.355	788.64
777.537	796.83
777.719	708.77
777.901	788.64
778.083	706.72
778.265	682.14
778.447	764.06
778.629	676
778.811	700.58
778.993	811.17
779.175	665.76
779.357	673.95
779.539	759.97
779.721	637.09
779.903	700.58
780.085	731.3
780.267	612.51
780.449	723.1
780.631	698.53
780.812	608.42
780.994	700.58
781.176	651.42
781.358	647.33
781.54	663.71
781.721	630.95
781.903	706.72
782.085	678.05
782.267	565.41
782.448	632.99
782.63	637.09
782.812	581.79
782.993	620.71
783.175	624.8
783.357	563.36
783.538	477.35
783.72	667.81
783.901	555.17
784.083	575.65
784.264	665.76
784.446	546.98
784.627	530.59
784.809	567.46
784.99	579.75
785.172	510.11
785.353	518.31
785.535	526.5
785.716	514.21
785.897	481.44
786.079	520.35
786.26	542.88
786.441	565.41
786.623	483.49
786.804	512.16
786.985	551.07
787.167	493.73
787.348	499.88
787.529	520.35
787.71	530.59
787.891	495.78
788.073	520.35
788.254	501.92
788.435	493.73
788.616	452.77
788.797	481.44
788.978	411.81
789.159	362.66
789.34	485.54
789.522	520.35
789.703	395.43
789.884	491.68
790.065	518.31
790.246	364.71
790.427	444.58
790.607	411.81
790.788	405.67
790.969	407.72
791.15	385.19
791.331	460.96
791.512	387.24
791.693	356.52
791.874	415.91
792.054	452.77
792.235	440.48
792.416	333.99
792.597	438.44
792.778	403.62
792.958	415.91
793.139	344.23
793.32	350.37
793.5	428.2
793.681	434.34
793.862	356.52
794.042	358.57
794.223	366.76
794.404	377
794.584	280.74
794.765	342.18
794.945	348.33
795.126	360.61
795.306	360.61
795.487	348.33
795.667	315.56
795.848	319.65
796.028	346.28
796.209	346.28
796.389	338.09
796.57	280.74
796.75	311.46
796.93	391.33
797.111	301.22
797.291	266.41
797.471	346.28
797.652	305.32
797.832	309.41
798.012	305.32
798.192	247.97
798.373	354.47
798.553	290.98
798.733	301.22
798.913	293.03
799.093	235.69
799.274	307.37
799.454	344.23
799.634	284.84
799.814	288.93
799.994	348.33
800.174	301.22
800.354	272.55
800.534	311.46
800.714	229.54
800.894	245.93
801.074	221.35
801.254	264.36
801.434	305.32
801.614	243.88
801.794	272.55
801.974	641.18
802.154	342.18
802.334	325.8
802.514	239.78
802.693	321.7
802.873	254.12
803.053	239.78
803.233	270.5
803.413	346.28
803.592	260.26
803.772	350.37
803.952	286.89
804.131	174.25
804.311	235.69
804.491	374.95
804.67	243.88
804.85	190.63
805.03	280.74
805.209	268.45
805.389	161.96
805.568	200.87
805.748	260.26
805.928	264.36
806.107	245.93
806.287	262.31
806.466	256.17
806.646	321.7
806.825	207.02
807.004	223.4
807.184	196.78
807.363	227.5
807.543	245.93
807.722	247.97
807.901	219.3
808.081	288.93
808.26	127.14
808.439	143.53
808.619	194.73
808.798	245.93
808.977	166.06
809.156	213.16
809.336	192.68
809.515	254.12
809.694	215.21
809.873	149.67
810.052	225.45
810.231	247.97
810.411	209.06
810.59	227.5
810.769	221.35
810.948	243.88
811.127	114.86
811.306	243.88
811.485	198.82
811.664	254.12
811.843	174.25
812.022	141.48
812.201	143.53
812.38	233.64
812.559	176.3
812.737	182.44
812.916	209.06
813.095	182.44
813.274	149.67
813.453	186.54
813.632	127.14
813.811	157.86
813.989	176.3
814.168	186.54
814.347	241.83
814.526	190.63
814.704	143.53
814.883	274.6
815.062	143.53
815.24	231.59
815.419	182.44
815.598	192.68
815.776	159.91
815.955	184.49
816.133	180.39
816.312	141.48
816.49	155.82
816.669	207.02
816.847	247.97
817.026	223.4
817.204	161.96
817.383	131.24
817.561	141.48
817.74	149.67
817.918	170.15
818.097	86.19
818.275	168.1
818.453	96.43
818.632	157.86
818.81	198.82
818.988	219.3
819.167	129.19
819.345	188.58
819.523	143.53
819.701	114.86
819.879	153.77
820.058	106.67
820.236	192.68
820.414	90.28
820.592	141.48
820.77	153.77
820.948	125.1
821.127	225.45
821.305	131.24
821.483	161.96
821.661	104.62
821.839	102.57
822.017	155.82
822.195	53.42
822.373	178.34
822.551	106.67
822.729	129.19
822.907	116.9
823.085	137.38
823.262	164.01
823.44	98.47
823.618	133.29
823.796	184.49
823.974	106.67
824.152	133.29
824.329	141.48
824.507	149.67
824.685	139.43
824.863	133.29
825.04	104.62
825.218	125.1
825.396	198.82
825.574	170.15
825.751	131.24
825.929	98.47
826.107	75.95
826.284	135.34
826.462	172.2
826.639	133.29
826.817	71.85
826.994	164.01
827.172	137.38
827.349	178.34
827.527	129.19
827.704	73.9
827.882	127.14
828.059	86.19
828.237	80.04
828.414	149.67
828.591	102.57
828.769	157.86
828.946	90.28
829.124	143.53
829.301	108.71
829.478	139.43
829.655	108.71
829.833	71.85
830.01	67.75
830.187	43.18
830.364	100.52
830.542	139.43
830.719	157.86
830.896	157.86
831.073	-14.17
831.25	96.43
831.427	161.96
831.604	84.14
831.782	118.95
831.959	116.9
832.136	73.9
832.313	153.77
832.49	90.28
832.667	131.24
832.844	98.47
833.021	121
833.198	145.58
833.374	131.24
833.551	121
833.728	57.51
833.905	125.1
834.082	96.43
834.259	159.91
834.436	194.73
834.612	131.24
834.789	104.62
834.966	26.79
835.143	102.57
835.319	86.19
835.496	116.9
835.673	121
835.85	71.85
836.026	88.23
836.203	102.57
836.38	16.55
836.556	155.82
836.733	43.18
836.909	112.81
837.086	90.28
837.262	55.47
837.439	86.19
837.616	49.32
837.792	133.29
837.968	45.23
838.145	71.85
838.321	145.58
838.498	67.75
838.674	61.61
838.851	90.28
839.027	49.32
839.203	112.81
839.38	57.51
839.556	92.33
839.732	92.33
839.909	106.67
840.085	51.37
840.261	65.71
840.437	77.99
840.614	80.04
840.79	110.76
840.966	-10.07
841.142	39.08
841.318	39.08
841.494	75.95
841.671	100.52
841.847	49.32
842.023	45.23
842.199	88.23
842.375	59.56
842.551	43.18
842.727	47.27
842.903	73.9
843.079	45.23
843.255	67.75
843.431	82.09
843.607	16.55
843.783	49.32
843.959	67.75
844.134	65.71
844.31	82.09
844.486	18.6
844.662	90.28
844.838	-22.36
845.013	92.33
845.189	2.22
845.365	80.04
845.541	125.1
845.716	114.86
845.892	100.52
846.068	65.71
846.244	49.32
846.419	-34.64
846.595	96.43
846.77	30.89
846.946	118.95
847.122	96.43
847.297	0.17
847.473	102.57
847.648	-14.17
847.824	61.61
847.999	45.23
848.175	32.94
848.35	57.51
848.526	86.19
848.701	98.47
848.876	-3.93
849.052	49.32
849.227	59.56
849.403	6.31
849.578	86.19
849.753	92.33
849.929	59.56
850.104	86.19
850.279	59.56
850.454	82.09
850.63	53.42
850.805	22.7
850.98	24.75
851.155	92.33
851.33	43.18
851.505	6.31
851.681	116.9
851.856	84.14
852.031	102.57
852.206	22.7
852.381	4.27
852.556	32.94
852.731	77.99
852.906	51.37
853.081	41.13
853.256	30.89
853.431	53.42
853.606	71.85
853.781	34.99
853.956	59.56
854.131	108.71
854.305	59.56
854.48	59.56
854.655	-28.5
854.83	92.33
855.005	104.62
855.18	37.03
855.354	12.46
855.529	88.23
855.704	14.51
855.879	90.28
856.053	10.41
856.228	30.89
856.403	51.37
856.577	84.14
856.752	6.31
856.926	63.66
857.101	-5.97
857.276	-28.5
857.45	8.36
857.625	59.56
857.799	34.99
857.974	90.28
858.148	43.18
858.323	67.75
858.497	34.99
858.672	82.09
858.846	67.75
859.02	59.56
859.195	24.75
859.369	71.85
859.543	53.42
859.718	34.99
859.892	63.66
860.066	10.41
860.241	-51.03
860.415	24.75
860.589	51.37
860.763	53.42
860.938	8.36
861.112	20.65
861.286	32.94
861.46	80.04
861.634	14.51
861.808	41.13
861.982	55.47
862.157	84.14
862.331	32.94
862.505	-100.18
862.679	51.37
862.853	8.36
863.027	30.89
863.201	90.28
863.375	43.18
863.549	-30.55
863.722	88.23
863.896	37.03
864.07	45.23
864.244	32.94
864.418	-12.12
864.592	61.61
864.766	4.27
864.939	32.94
865.113	43.18
865.287	127.14
865.461	-38.74
865.634	20.65
865.808	18.6
865.982	55.47
866.156	71.85
866.329	30.89
866.503	-3.93
866.676	-22.36
866.85	2.22
867.024	43.18
867.197	-48.98
867.371	57.51
867.544	18.6
867.718	65.71
867.891	45.23
868.065	-28.5
868.238	43.18
868.412	-18.26
868.585	6.31
868.759	90.28
868.932	24.75
869.105	10.41
869.279	10.41
869.452	14.51
869.625	71.85
869.799	55.47
869.972	0.17
870.145	-22.36
870.319	90.28
870.492	24.75
870.665	73.9
870.838	10.41
871.011	-32.6
871.185	14.51
871.358	32.94
871.531	43.18
871.704	34.99
871.877	71.85
872.05	65.71
872.223	16.55
872.396	-3.93
872.569	22.7
872.742	88.23
872.915	30.89
873.088	47.27
873.261	-14.17
873.434	26.79
873.607	-28.5
873.78	98.47
873.953	34.99
874.126	-20.31
874.299	41.13
874.471	-38.74
874.644	8.36
874.817	28.84
874.99	90.28
875.163	65.71
875.335	16.55
875.508	-1.88
875.681	47.27
875.853	22.7
876.026	75.95
876.199	39.08
876.371	24.75
876.544	30.89
876.717	30.89
876.889	0.17
877.062	-30.55
877.234	41.13
877.407	32.94
877.579	123.05
877.752	-5.97
877.924	57.51
878.097	67.75
878.269	-3.93
878.442	-51.03
878.614	-34.64
878.786	51.37
878.959	22.7
879.131	18.6
879.303	-5.97
879.476	18.6
879.648	32.94
879.82	-38.74
879.993	94.38
880.165	-57.17
880.337	14.51
880.509	63.66
880.681	-85.84
880.854	43.18
881.026	41.13
881.198	65.71
881.37	10.41
881.542	-5.97
881.714	8.36
881.886	-5.97
882.058	22.7
882.23	116.9
882.402	-22.36
882.574	14.51
882.746	92.33
882.918	82.09
883.09	57.51
883.262	26.79
883.434	34.99
883.606	16.55
883.778	39.08
883.95	-10.07
884.122	2.22
884.293	37.03
884.465	26.79
884.637	-38.74
884.809	0.17
884.98	28.84
885.152	6.31
885.324	84.14
885.496	18.6
885.667	-16.21
885.839	-81.75
886.011	96.43
886.182	28.84
886.354	47.27
886.525	59.56
886.697	30.89
886.869	0.17
887.04	22.7
887.212	59.56
887.383	104.62
887.555	16.55
887.726	32.94
887.897	-1.88
888.069	22.7
888.24	20.65
888.412	43.18
888.583	-22.36
888.754	22.7
888.926	-5.97
889.097	6.31
889.268	-12.12
889.44	104.62
889.611	-20.31
889.782	0.17
889.953	75.95
890.125	61.61
890.296	18.6
890.467	32.94
890.638	-26.45
890.809	88.23
890.98	24.75
891.151	26.79
891.323	116.9
891.494	4.27
891.665	-22.36
891.836	-32.6
892.007	-40.79
892.178	0.17
892.349	16.55
892.52	49.32
892.691	82.09
892.862	12.46
893.032	43.18
893.203	-10.07
893.374	-5.97
893.545	6.31
893.716	-26.45
893.887	82.09
894.057	-32.6
894.228	37.03
894.399	26.79
894.57	45.23
894.74	0.17
894.911	108.71
895.082	-40.79
895.253	24.75
895.423	-34.64
895.594	69.8
895.764	6.31
895.935	-98.13
896.106	-40.79
896.276	67.75
896.447	75.95
896.617	34.99
896.788	-71.51
896.958	18.6
897.129	47.27
897.299	53.42
897.47	75.95
897.64	10.41
897.81	51.37
897.981	20.65
898.151	4.27
898.322	59.56
898.492	26.79
898.662	-30.55
898.832	-18.26
899.003	69.8
899.173	18.6
899.343	69.8
899.513	14.51
