Data from USB4F104151__39__11-36-53-725.txt Node

Date: Fri Mar 14 11:36:53 EDT 2025
User: louis
Spectrometer: USB4F10415
Trigger mode: 4
Integration Time (sec): 2.000000E-2
Scans to average: 1
Electric dark correction enabled: true
Nonlinearity correction enabled: false
Boxcar width: 0
XAxis mode: Wavelengths
Number of Pixels in Spectrum: 3648
>>>>>Begin Spectral Data<<<<<
178.204	-10.58
178.424	-10.58
178.644	-10.58
178.864	-63.83
179.084	-106.84
179.304	-18.77
179.524	9.9
179.744	-18.77
179.964	-12.63
180.184	34.47
180.404	61.1
180.624	30.38
180.844	3.75
181.064	-2.39
181.283	-37.2
181.503	-45.4
181.723	-4.44
181.943	-53.59
182.163	89.77
182.383	9.9
182.602	18.09
182.822	83.63
183.042	5.8
183.262	5.8
183.482	71.34
183.701	7.85
183.921	73.39
184.141	34.47
184.361	-0.34
184.58	-24.92
184.8	22.19
185.02	32.43
185.239	5.8
185.459	1.71
185.679	34.47
185.898	63.15
186.118	75.43
186.338	-0.34
186.557	34.47
186.777	36.52
186.997	42.67
187.216	18.09
187.436	65.19
187.655	38.57
187.875	34.47
188.095	-31.06
188.314	26.28
188.534	50.86
188.753	-2.39
188.973	50.86
189.192	83.63
189.412	36.52
189.631	54.95
189.851	63.15
190.07	9.9
190.29	-8.53
190.509	30.38
190.729	48.81
190.948	63.15
191.168	161.45
191.387	42.67
191.607	1.71
191.826	-35.16
192.045	24.23
192.265	-14.68
192.484	50.86
192.704	42.67
192.923	-14.68
193.142	1.71
193.362	50.86
193.581	-10.58
193.8	85.67
194.02	50.86
194.239	9.9
194.458	-33.11
194.678	57
194.897	48.81
195.116	65.19
195.335	50.86
195.555	-18.77
195.774	11.95
195.993	-35.16
196.212	63.15
196.432	30.38
196.651	18.09
196.87	-2.39
197.089	81.58
197.308	-57.68
197.528	38.57
197.747	36.52
197.966	-10.58
198.185	34.47
198.404	22.19
198.623	26.28
198.842	75.43
199.062	7.85
199.281	63.15
199.5	67.24
199.719	18.09
199.938	46.76
200.157	3.75
200.376	-18.77
200.595	50.86
200.814	100.01
201.033	52.91
201.252	54.95
201.471	118.44
201.69	-31.06
201.909	18.09
202.128	22.19
202.347	89.77
202.566	36.52
202.785	18.09
203.004	42.67
203.223	9.9
203.442	-16.73
203.661	42.67
203.879	50.86
204.098	63.15
204.317	85.67
204.536	38.57
204.755	-12.63
204.974	50.86
205.193	87.72
205.411	77.48
205.63	71.34
205.849	9.9
206.068	24.23
206.287	40.62
206.505	-14.68
206.724	30.38
206.943	44.71
207.162	7.85
207.381	26.28
207.599	-6.49
207.818	63.15
208.037	-12.63
208.255	83.63
208.474	13.99
208.693	89.77
208.911	32.43
209.13	50.86
209.349	-37.2
209.567	-12.63
209.786	106.15
210.005	48.81
210.223	46.76
210.442	-51.54
210.661	36.52
210.879	18.09
211.098	-4.44
211.316	59.05
211.535	34.47
211.753	34.47
211.972	59.05
212.191	-31.06
212.409	-14.68
212.628	40.62
212.846	-16.73
213.065	18.09
213.283	57
213.502	-24.92
213.72	-10.58
213.938	54.95
214.157	-18.77
214.375	95.91
214.594	-22.87
214.812	50.86
215.031	34.47
215.249	28.33
215.467	34.47
215.686	54.95
215.904	36.52
216.122	-8.53
216.341	38.57
216.559	50.86
216.778	32.43
216.996	20.14
217.214	63.15
217.432	-65.88
217.651	11.95
217.869	38.57
218.087	-41.3
218.306	44.71
218.524	34.47
218.742	-55.64
218.96	50.86
219.179	-6.49
219.397	-31.06
219.615	69.29
219.833	7.85
220.051	-43.35
220.27	91.82
220.488	50.86
220.706	104.11
220.924	36.52
221.142	50.86
221.36	61.1
221.578	18.09
221.796	38.57
222.015	7.85
222.233	40.62
222.451	79.53
222.669	-24.92
222.887	-18.77
223.105	42.67
223.323	18.09
223.541	5.8
223.759	112.3
223.977	52.91
224.195	52.91
224.413	-16.73
224.631	34.47
224.849	18.09
225.067	9.9
225.285	5.8
225.503	-45.4
225.721	24.23
225.939	42.67
226.157	87.72
226.375	116.39
226.592	20.14
226.81	57
227.028	36.52
227.246	44.71
227.464	57
227.682	77.48
227.9	-45.4
228.117	63.15
228.335	63.15
228.553	38.57
228.771	63.15
228.989	79.53
229.206	42.67
229.424	79.53
229.642	57
229.86	16.04
230.077	30.38
230.295	63.15
230.513	93.87
230.731	20.14
230.948	36.52
231.166	3.75
231.384	32.43
231.601	9.9
231.819	54.95
232.037	124.58
232.254	73.39
232.472	69.29
232.689	87.72
232.907	57
233.125	91.82
233.342	38.57
233.56	26.28
233.777	67.24
233.995	16.04
234.213	67.24
234.43	42.67
234.648	54.95
234.865	-20.82
235.083	93.87
235.3	-35.16
235.518	79.53
235.735	42.67
235.953	26.28
236.17	61.1
236.388	32.43
236.605	126.63
236.822	50.86
237.04	13.99
237.257	-10.58
237.475	54.95
237.692	30.38
237.909	38.57
238.127	38.57
238.344	18.09
238.562	-18.77
238.779	38.57
238.996	1.71
239.214	71.34
239.431	13.99
239.648	59.05
239.865	30.38
240.083	61.1
240.3	52.91
240.517	-4.44
240.735	95.91
240.952	44.71
241.169	3.75
241.386	102.06
241.603	104.11
241.821	26.28
242.038	59.05
242.255	24.23
242.472	20.14
242.689	59.05
242.907	61.1
243.124	-2.39
243.341	-86.36
243.558	-4.44
243.775	54.95
243.992	-10.58
244.209	-26.96
244.426	79.53
244.643	-16.73
244.86	9.9
245.078	13.99
245.295	67.24
245.512	30.38
245.729	-76.12
245.946	44.71
246.163	34.47
246.38	26.28
246.597	52.91
246.814	3.75
247.031	24.23
247.248	26.28
247.464	38.57
247.681	59.05
247.898	-47.44
248.115	32.43
248.332	-72.02
248.549	36.52
248.766	102.06
248.983	108.2
249.2	67.24
249.417	30.38
249.633	46.76
249.85	73.39
250.067	61.1
250.284	46.76
250.501	112.3
250.717	-49.49
250.934	48.81
251.151	-18.77
251.368	24.23
251.585	42.67
251.801	5.8
252.018	73.39
252.235	106.15
252.451	75.43
252.668	30.38
252.885	3.75
253.102	108.2
253.318	44.71
253.535	48.81
253.752	20.14
253.968	20.14
254.185	30.38
254.401	24.23
254.618	32.43
254.835	-47.44
255.051	42.67
255.268	22.19
255.484	59.05
255.701	77.48
255.917	61.1
256.134	22.19
256.351	59.05
256.567	22.19
256.784	87.72
257	7.85
257.217	52.91
257.433	42.67
257.65	-18.77
257.866	63.15
258.082	-39.25
258.299	-53.59
258.515	54.95
258.732	46.76
258.948	38.57
259.165	-45.4
259.381	38.57
259.597	13.99
259.814	54.95
260.03	-12.63
260.246	102.06
260.463	65.19
260.679	20.14
260.895	-12.63
261.112	57
261.328	32.43
261.544	-31.06
261.761	110.25
261.977	73.39
262.193	32.43
262.409	65.19
262.626	42.67
262.842	63.15
263.058	-63.83
263.274	112.3
263.49	5.8
263.707	124.58
263.923	42.67
264.139	22.19
264.355	20.14
264.571	100.01
264.787	9.9
265.004	3.75
265.22	48.81
265.436	28.33
265.652	46.76
265.868	71.34
266.084	3.75
266.3	-53.59
266.516	38.57
266.732	79.53
266.948	-6.49
267.164	-8.53
267.38	-14.68
267.596	59.05
267.812	97.96
268.028	32.43
268.244	13.99
268.46	26.28
268.676	120.49
268.892	34.47
269.108	34.47
269.324	18.09
269.54	5.8
269.756	54.95
269.972	-24.92
270.188	73.39
270.403	-10.58
270.619	50.86
270.835	-16.73
271.051	16.04
271.267	-6.49
271.483	13.99
271.698	3.75
271.914	65.19
272.13	63.15
272.346	20.14
272.562	-8.53
272.777	79.53
272.993	32.43
273.209	54.95
273.425	46.76
273.64	-18.77
273.856	-10.58
274.072	59.05
274.287	46.76
274.503	59.05
274.719	50.86
274.934	44.71
275.15	50.86
275.366	-14.68
275.581	5.8
275.797	18.09
276.012	77.48
276.228	32.43
276.444	11.95
276.659	67.24
276.875	-8.53
277.09	50.86
277.306	-2.39
277.521	52.91
277.737	50.86
277.952	102.06
278.168	52.91
278.383	65.19
278.599	34.47
278.814	69.29
279.03	83.63
279.245	44.71
279.461	67.24
279.676	71.34
279.892	-18.77
280.107	34.47
280.322	95.91
280.538	48.81
280.753	-43.35
280.969	104.11
281.184	-0.34
281.399	32.43
281.615	48.81
281.83	114.34
282.045	38.57
282.26	-4.44
282.476	-24.92
282.691	52.91
282.906	44.71
283.122	38.57
283.337	18.09
283.552	54.95
283.767	16.04
283.983	5.8
284.198	28.33
284.413	24.23
284.628	18.09
284.843	50.86
285.058	71.34
285.274	-0.34
285.489	9.9
285.704	34.47
285.919	42.67
286.134	30.38
286.349	34.47
286.564	54.95
286.779	11.95
286.995	42.67
287.21	59.05
287.425	-6.49
287.64	28.33
287.855	42.67
288.07	-0.34
288.285	91.82
288.5	57
288.715	11.95
288.93	-2.39
289.145	-24.92
289.36	-6.49
289.575	-29.01
289.79	79.53
290.004	63.15
290.219	63.15
290.434	59.05
290.649	22.19
290.864	-26.96
291.079	32.43
291.294	-6.49
291.509	50.86
291.724	38.57
291.938	11.95
292.153	-10.58
292.368	-26.96
292.583	13.99
292.798	50.86
293.012	30.38
293.227	22.19
293.442	50.86
293.657	20.14
293.871	30.38
294.086	77.48
294.301	89.77
294.516	61.1
294.73	97.96
294.945	34.47
295.16	110.25
295.374	61.1
295.589	63.15
295.804	18.09
296.018	26.28
296.233	71.34
296.447	13.99
296.662	54.95
296.877	42.67
297.091	20.14
297.306	95.91
297.52	59.05
297.735	54.95
297.949	46.76
298.164	97.96
298.378	-16.73
298.593	30.38
298.807	-2.39
299.022	30.38
299.236	24.23
299.451	-29.01
299.665	81.58
299.88	77.48
300.094	-4.44
300.309	104.11
300.523	61.1
300.737	5.8
300.952	13.99
301.166	26.28
301.381	-31.06
301.595	97.96
301.809	44.71
302.024	89.77
302.238	11.95
302.452	11.95
302.667	3.75
302.881	87.72
303.095	102.06
303.309	69.29
303.524	-4.44
303.738	48.81
303.952	28.33
304.166	28.33
304.381	38.57
304.595	30.38
304.809	-18.77
305.023	79.53
305.237	61.1
305.452	69.29
305.666	28.33
305.88	42.67
306.094	3.75
306.308	63.15
306.522	95.91
306.736	87.72
306.95	36.52
307.164	3.75
307.379	38.57
307.593	79.53
307.807	79.53
308.021	132.78
308.235	-10.58
308.449	16.04
308.663	-4.44
308.877	18.09
309.091	108.2
309.305	32.43
309.519	20.14
309.733	59.05
309.947	-16.73
310.161	44.71
310.374	5.8
310.588	26.28
310.802	24.23
311.016	38.57
311.23	24.23
311.444	9.9
311.658	79.53
311.872	104.11
312.085	-37.2
312.299	81.58
312.513	50.86
312.727	83.63
312.941	57
313.154	46.76
313.368	34.47
313.582	34.47
313.796	-14.68
314.009	24.23
314.223	126.63
314.437	42.67
314.651	9.9
314.864	30.38
315.078	34.47
315.292	71.34
315.505	-43.35
315.719	91.82
315.933	65.19
316.146	52.91
316.36	-18.77
316.573	-12.63
316.787	59.05
317.001	28.33
317.214	22.19
317.428	54.95
317.641	69.29
317.855	30.38
318.068	100.01
318.282	36.52
318.495	22.19
318.709	-4.44
318.922	52.91
319.136	34.47
319.349	75.43
319.563	34.47
319.776	65.19
319.99	26.28
320.203	-2.39
320.417	5.8
320.63	-4.44
320.843	104.11
321.057	26.28
321.27	100.01
321.483	40.62
321.697	102.06
321.91	130.73
322.124	46.76
322.337	22.19
322.55	16.04
322.763	44.71
322.977	112.3
323.19	34.47
323.403	34.47
323.617	38.57
323.83	38.57
324.043	-0.34
324.256	48.81
324.469	48.81
324.683	75.43
324.896	57
325.109	5.8
325.322	-26.96
325.535	5.8
325.748	89.77
325.962	18.09
326.175	75.43
326.388	42.67
326.601	-14.68
326.814	65.19
327.027	97.96
327.24	38.57
327.453	-43.35
327.666	26.28
327.879	-18.77
328.092	118.44
328.305	38.57
328.518	89.77
328.731	46.76
328.944	13.99
329.157	63.15
329.37	-26.96
329.583	73.39
329.796	77.48
330.009	50.86
330.222	42.67
330.435	44.71
330.648	46.76
330.861	75.43
331.073	52.91
331.286	18.09
331.499	40.62
331.712	-0.34
331.925	5.8
332.138	7.85
332.35	46.76
332.563	50.86
332.776	11.95
332.989	38.57
333.202	110.25
333.414	-2.39
333.627	50.86
333.84	112.3
334.053	132.78
334.265	106.15
334.478	-24.92
334.691	11.95
334.903	7.85
335.116	69.29
335.329	26.28
335.541	-14.68
335.754	11.95
335.966	22.19
336.179	-14.68
336.392	11.95
336.604	30.38
336.817	93.87
337.029	36.52
337.242	50.86
337.454	77.48
337.667	81.58
337.88	81.58
338.092	42.67
338.305	46.76
338.517	36.52
338.729	30.38
338.942	59.05
339.154	36.52
339.367	104.11
339.579	75.43
339.792	38.57
340.004	110.25
340.217	71.34
340.429	13.99
340.641	13.99
340.854	26.28
341.066	1.71
341.278	63.15
341.491	89.77
341.703	71.34
341.915	-18.77
342.128	126.63
342.34	-29.01
342.552	40.62
342.764	30.38
342.977	26.28
343.189	59.05
343.401	20.14
343.613	36.52
343.826	208.55
344.038	16.04
344.25	11.95
344.462	93.87
344.674	71.34
344.886	-10.58
345.099	44.71
345.311	13.99
345.523	36.52
345.735	22.19
345.947	36.52
346.159	71.34
346.371	3.75
346.583	22.19
346.795	48.81
347.007	-43.35
347.219	73.39
347.431	52.91
347.643	42.67
347.855	13.99
348.067	83.63
348.279	52.91
348.491	32.43
348.703	11.95
348.915	13.99
349.127	42.67
349.339	89.77
349.551	-16.73
349.763	128.68
349.975	32.43
350.187	114.34
350.399	61.1
350.61	71.34
350.822	46.76
351.034	40.62
351.246	36.52
351.458	116.39
351.669	63.15
351.881	22.19
352.093	87.72
352.305	46.76
352.517	46.76
352.728	130.73
352.94	26.28
353.152	-6.49
353.363	59.05
353.575	-4.44
353.787	110.25
353.999	65.19
354.21	18.09
354.422	77.48
354.633	16.04
354.845	48.81
355.057	36.52
355.268	44.71
355.48	102.06
355.692	77.48
355.903	13.99
356.115	30.38
356.326	140.97
356.538	85.67
356.749	18.09
356.961	85.67
357.172	85.67
357.384	28.33
357.595	116.39
357.807	5.8
358.018	97.96
358.23	61.1
358.441	34.47
358.653	100.01
358.864	11.95
359.075	61.1
359.287	-8.53
359.498	83.63
359.709	91.82
359.921	100.01
360.132	54.95
360.344	77.48
360.555	3.75
360.766	69.29
360.977	63.15
361.189	91.82
361.4	20.14
361.611	18.09
361.823	124.58
362.034	11.95
362.245	32.43
362.456	85.67
362.667	22.19
362.879	102.06
363.09	69.29
363.301	122.54
363.512	114.34
363.723	79.53
363.935	34.47
364.146	79.53
364.357	-2.39
364.568	67.24
364.779	52.91
364.99	79.53
365.201	38.57
365.412	-39.25
365.623	42.67
365.834	-29.01
366.045	20.14
366.256	40.62
366.467	34.47
366.678	71.34
366.889	87.72
367.1	77.48
367.311	114.34
367.522	65.19
367.733	132.78
367.944	69.29
368.155	32.43
368.366	38.57
368.577	-14.68
368.788	42.67
368.999	40.62
369.209	50.86
369.42	102.06
369.631	108.2
369.842	54.95
370.053	50.86
370.264	93.87
370.474	46.76
370.685	89.77
370.896	-20.82
371.107	81.58
371.317	46.76
371.528	59.05
371.739	89.77
371.95	-4.44
372.16	13.99
372.371	52.91
372.582	77.48
372.792	85.67
373.003	106.15
373.214	83.63
373.424	100.01
373.635	32.43
373.846	122.54
374.056	32.43
374.267	20.14
374.477	-14.68
374.688	9.9
374.898	9.9
375.109	69.29
375.319	118.44
375.53	52.91
375.74	61.1
375.951	118.44
376.161	145.06
376.372	54.95
376.582	20.14
376.793	40.62
377.003	59.05
377.214	83.63
377.424	32.43
377.635	40.62
377.845	108.2
378.055	130.73
378.266	97.96
378.476	69.29
378.686	69.29
378.897	89.77
379.107	65.19
379.317	63.15
379.528	-2.39
379.738	93.87
379.948	40.62
380.158	-4.44
380.369	9.9
380.579	104.11
380.789	67.24
380.999	36.52
381.21	34.47
381.42	71.34
381.63	16.04
381.84	79.53
382.05	104.11
382.261	91.82
382.471	24.23
382.681	71.34
382.891	69.29
383.101	69.29
383.311	-10.58
383.521	7.85
383.731	52.91
383.941	112.3
384.151	-2.39
384.361	93.87
384.571	97.96
384.781	34.47
384.991	132.78
385.201	67.24
385.411	75.43
385.621	87.72
385.831	13.99
386.041	112.3
386.251	38.57
386.461	147.11
386.671	36.52
386.881	114.34
387.091	73.39
387.301	151.21
387.511	59.05
387.72	116.39
387.93	77.48
388.14	30.38
388.35	100.01
388.56	102.06
388.769	3.75
388.979	77.48
389.189	130.73
389.399	75.43
389.609	38.57
389.818	63.15
390.028	61.1
390.238	22.19
390.447	93.87
390.657	28.33
390.867	-2.39
391.076	-43.35
391.286	28.33
391.496	13.99
391.705	100.01
391.915	59.05
392.125	100.01
392.334	75.43
392.544	61.1
392.753	81.58
392.963	61.1
393.172	69.29
393.382	48.81
393.591	57
393.801	30.38
394.01	163.5
394.22	97.96
394.429	102.06
394.639	83.63
394.848	63.15
395.058	112.3
395.267	67.24
395.477	120.49
395.686	130.73
395.895	192.17
396.105	71.34
396.314	52.91
396.524	67.24
396.733	126.63
396.942	71.34
397.152	145.06
397.361	169.64
397.57	87.72
397.78	100.01
397.989	110.25
398.198	136.87
398.407	143.02
398.617	91.82
398.826	42.67
399.035	159.4
399.244	61.1
399.453	116.39
399.663	163.5
399.872	116.39
400.081	151.21
400.29	159.4
400.499	65.19
400.708	100.01
400.917	175.78
401.127	157.35
401.336	175.78
401.545	179.88
401.754	165.54
401.963	183.98
402.172	114.34
402.381	161.45
402.59	112.3
402.799	136.87
403.008	134.82
403.217	224.94
403.426	173.74
403.635	233.13
403.844	102.06
404.053	149.16
404.262	212.65
404.471	276.13
404.68	214.7
404.888	169.64
405.097	157.35
405.306	220.84
405.515	85.67
405.724	169.64
405.933	186.02
406.142	202.41
406.35	171.69
406.559	200.36
406.768	222.89
406.977	231.08
407.185	206.5
407.394	214.7
407.603	202.41
407.812	276.13
408.02	269.99
408.229	296.61
408.438	243.37
408.646	186.02
408.855	241.32
409.064	280.23
409.272	278.18
409.481	308.9
409.69	290.47
409.898	231.08
410.107	284.33
410.315	374.44
410.524	362.15
410.733	319.14
410.941	403.11
411.15	417.44
411.358	380.58
411.567	480.93
411.775	425.64
411.984	505.51
412.192	476.84
412.401	503.46
412.609	605.86
412.818	540.32
413.026	607.91
413.234	612
413.443	636.58
413.651	667.3
413.86	614.05
414.068	657.06
414.276	718.5
414.485	648.86
414.693	763.55
414.901	759.46
415.11	724.64
415.318	827.04
415.526	868
415.734	925.34
415.943	872.09
416.151	972.44
416.359	984.73
416.567	986.78
416.776	1021.6
416.984	1144.47
417.192	1169.05
417.4	1171.1
417.608	1189.53
417.817	1150.62
418.025	1267.35
418.233	1279.64
418.441	1291.93
418.649	1373.85
418.857	1476.24
419.065	1455.76
419.273	1443.48
419.481	1496.72
419.689	1599.12
419.897	1681.04
420.105	1656.47
420.313	1730.19
420.521	1842.83
420.729	1908.37
420.937	1957.52
421.145	1961.61
421.353	2061.96
421.561	2246.28
421.769	2154.12
421.977	2320.01
422.185	2141.83
422.393	2446.98
422.601	2492.04
422.809	2692.74
423.017	2737.79
423.224	2758.27
423.432	2844.29
423.64	2858.62
423.848	3104.38
424.056	2940.54
424.263	3217.02
424.471	3284.6
424.679	3270.26
424.887	3438.2
425.094	3538.55
425.302	3597.94
425.51	3681.91
425.718	3739.25
425.925	3872.37
426.133	4017.77
426.341	4335.21
426.548	4304.49
426.756	4419.18
426.964	4478.57
427.171	4761.19
427.379	4841.06
427.586	4976.22
427.794	4959.84
428.001	5213.79
428.209	5588.57
428.417	5613.14
428.624	5830.23
428.832	5934.67
429.039	5707.35
429.247	5885.52
429.454	6411.85
429.662	6731.33
429.869	6395.47
430.076	6704.71
430.284	6669.89
430.491	6639.17
430.699	7319.1
430.906	7251.52
431.114	7484.98
431.321	7595.57
431.528	7728.69
431.736	8324.65
431.943	8685.09
432.15	8545.83
432.358	8564.26
432.565	9127.46
432.772	8963.62
432.979	9453.08
433.187	9596.44
433.394	9547.29
433.601	10221.07
433.808	10495.5
434.016	10225.17
434.223	10767.88
434.43	11365.89
434.637	11013.63
434.844	11529.72
435.052	12019.19
435.259	11873.78
435.466	11986.42
435.673	11947.51
435.88	12957.16
436.087	13579.74
436.294	13452.77
436.501	13112.8
436.708	13262.3
436.915	13848.02
437.122	14274
437.329	14274
437.537	15128
437.743	15414.72
437.95	14720.46
438.157	15809.98
438.364	16328.11
438.571	16459.18
438.778	16543.15
438.985	17958.3
439.192	17122.73
439.399	17726.88
439.606	17532.32
439.813	18144.66
440.02	19414.4
440.227	19203.46
440.433	18988.42
440.64	19768.7
440.847	19447.17
441.054	20020.6
441.261	21339.49
441.467	20825.45
441.674	21280.1
441.881	22328.66
442.088	22060.38
442.294	21982.56
442.501	22699.34
442.708	23098.7
442.914	23670.08
443.121	24907.05
443.328	24368.44
443.534	25855.26
443.741	25171.24
443.948	24968.49
444.154	26979.6
444.361	26461.46
444.568	26604.82
444.774	26727.7
444.981	27213.07
445.187	28026.11
445.394	29027.57
445.6	28953.84
445.807	31435.98
446.013	30344.41
446.22	30837.97
446.426	31898.82
446.633	31986.88
446.839	33045.68
447.046	32191.68
447.252	33698.98
447.459	33442.99
447.665	33424.56
447.871	35468.43
448.078	36545.66
448.284	35318.93
448.491	35601.55
448.697	37117.04
448.903	37950.57
449.11	37794.92
449.316	37291.12
449.522	37897.32
449.728	38812.76
449.935	39754.83
450.141	38880.35
450.347	39978.06
450.553	38968.41
450.76	39314.51
450.966	40418.37
451.172	40363.07
451.378	41554.99
451.584	40205.38
451.791	41487.41
451.997	41024.57
452.203	41847.85
452.409	42200.1
452.615	41962.54
452.821	40303.68
453.027	39744.59
453.233	42138.66
453.44	40557.63
453.646	40645.69
453.852	41069.62
454.058	41821.23
454.264	40219.72
454.47	41165.88
454.676	40508.48
454.882	41565.23
455.088	37971.05
455.294	38610.01
455.5	39056.47
455.705	39574.61
455.911	38161.51
456.117	37272.69
456.323	36549.76
456.529	34829.46
456.735	36656.25
456.941	35372.17
457.147	34964.63
457.352	33840.29
457.558	33578.15
457.764	33756.33
457.97	32867.51
458.176	32439.48
458.381	32122.05
458.587	30749.91
458.793	30348.51
458.999	28896.5
459.204	31028.43
459.41	30305.5
459.616	28515.58
459.821	28003.58
460.027	28105.98
460.233	27231.5
460.438	26539.29
460.644	26658.07
460.85	25371.94
461.055	25124.14
461.261	24941.87
461.466	23065.93
461.672	22187.35
461.878	24001.85
462.083	22433.11
462.289	22234.46
462.494	21718.37
462.7	20974.95
462.905	20458.87
463.111	20868.46
463.316	21032.3
463.522	20540.79
463.727	20579.7
463.932	20563.31
464.138	20213.11
464.343	20471.15
464.549	19750.27
464.754	20442.48
464.959	20163.96
465.165	20442.48
465.37	19232.13
465.575	18716.05
465.781	19367.3
465.986	19580.29
466.191	18904.46
466.397	18525.58
466.602	17513.89
466.807	18378.13
467.012	18406.8
467.218	18232.72
467.423	17917.34
467.628	18013.59
467.833	18797.96
468.038	18212.24
468.244	17812.89
468.449	18263.44
468.654	17786.27
468.859	17685.92
469.064	17696.16
469.269	16829.87
469.474	17098.15
469.679	17360.29
469.885	16709.04
470.09	17065.38
470.295	16965.03
470.5	16424.37
470.705	16706.99
470.91	16420.27
471.115	16088.5
471.32	16450.99
471.525	16164.28
471.73	15902.14
471.935	15793.59
472.139	15240.64
472.344	15336.9
472.549	15265.22
472.754	15093.19
472.959	14693.83
473.164	14482.89
473.369	14458.32
473.574	15058.37
473.778	14820.81
473.983	14785.99
474.188	14638.54
474.393	13942.23
474.598	13794.78
474.802	13923.8
475.007	13546.97
475.212	13702.62
475.417	13352.41
475.621	13420
475.826	13350.37
476.031	12869.09
476.235	12674.54
476.44	13188.58
476.645	12645.87
476.849	12776.94
477.054	12619.24
477.259	12424.69
477.463	12381.68
477.668	12002.8
477.872	12342.77
478.077	12101.11
478.282	11578.87
478.486	11718.14
478.691	11757.05
478.895	11711.99
479.1	11513.34
479.304	11625.98
479.509	11189.76
479.713	11406.84
479.918	11152.9
480.122	10962.44
480.326	11066.88
480.531	10978.82
480.735	10710.54
480.94	10894.85
481.144	11269.63
481.348	10669.58
481.553	10880.52
481.757	10606.09
481.961	10771.97
482.166	10909.19
482.37	10702.34
482.574	10536.46
482.778	10481.16
482.983	10911.24
483.187	10675.72
483.391	10749.45
483.595	10745.35
483.8	10413.58
484.004	10769.93
484.208	10806.79
484.412	10462.73
484.616	10585.61
484.821	10499.59
485.025	10423.82
485.229	10636.81
485.433	10413.58
485.637	10685.96
485.841	10606.09
486.045	10454.54
486.249	10585.61
486.453	10399.24
486.657	10515.98
486.861	10870.28
487.065	10358.28
487.269	10849.8
487.473	10339.85
487.677	10626.57
487.881	10704.39
488.085	10552.84
488.289	10661.38
488.493	10741.25
488.697	10694.15
488.901	10888.71
489.105	10708.49
489.309	10688.01
489.512	10577.42
489.716	10735.11
489.92	10903.04
490.124	10927.62
490.328	10728.97
490.531	10817.03
490.735	10835.46
490.939	11023.87
491.143	10958.34
491.346	11034.11
491.55	11001.35
491.754	10929.67
491.958	11361.79
492.161	11113.99
492.365	11052.55
492.569	11042.31
492.772	11255.29
492.976	11363.84
493.18	11302.4
493.383	11453.95
493.587	11425.28
493.79	11711.99
493.994	11652.6
494.197	11652.6
494.401	11744.76
494.605	11808.25
494.808	12076.53
495.012	12127.73
495.215	12178.93
495.419	12221.94
495.622	12240.37
495.825	12371.44
496.029	12238.32
496.232	12502.51
496.436	12531.18
496.639	12940.77
496.843	12731.88
497.046	13030.88
497.249	13213.15
497.453	13215.2
497.656	13346.27
497.859	13575.64
498.063	13463.01
498.266	13970.9
498.469	13684.19
498.673	13630.94
498.876	14118.36
499.079	14327.25
499.282	14169.55
499.485	14855.62
499.689	14732.75
499.892	14929.35
500.095	15119.81
500.298	15273.41
500.501	15375.81
500.705	15640
500.908	15642.04
501.111	15867.32
501.314	16047.54
501.517	16215.48
501.72	16319.92
501.923	16428.46
502.126	16690.6
502.329	17233.32
502.532	16958.89
502.735	17063.33
502.938	17255.84
503.141	17626.53
503.344	17913.24
503.547	17771.93
503.75	18113.94
503.953	18578.83
504.156	18498.96
504.359	18746.76
504.562	18961.8
504.765	19148.17
504.968	19430.79
505.17	19748.22
505.373	19762.56
505.576	19785.08
505.779	20272.5
505.982	20065.66
506.185	20514.16
506.387	20999.53
506.59	21040.49
506.793	21558.63
506.996	21415.27
507.198	21945.69
507.401	21687.65
507.604	22097.24
507.807	22431.06
508.009	22426.96
508.212	22740.3
508.415	22971.72
508.617	23381.32
508.82	23262.54
509.022	23221.58
509.225	23686.47
509.428	23856.45
509.63	24276.28
509.833	24458.55
510.035	24792.37
510.238	24837.42
510.44	25167.15
510.643	25351.46
510.845	25597.22
511.048	25615.65
511.25	26053.92
511.453	25965.85
511.655	26627.35
511.858	26797.33
512.06	26699.03
512.262	27198.73
512.465	27079.95
512.667	27833.6
512.87	27972.86
513.072	28204.28
513.274	28798.2
513.477	28869.87
513.679	28800.24
513.881	29213.93
514.084	29637.86
514.286	29678.82
514.488	29435.11
514.69	30342.36
514.893	30260.44
515.095	30766.29
515.297	31343.82
515.499	30960.85
515.701	31474.89
515.904	31730.89
516.106	31741.13
516.308	31980.74
516.51	32611.51
516.712	32521.4
516.914	33037.49
517.116	33141.94
517.318	33275.05
517.52	33627.31
517.722	33420.46
517.925	33977.51
518.127	34708.63
518.329	35306.64
518.531	34839.7
518.733	35609.74
518.935	35159.19
519.136	35429.52
519.338	36105.35
519.54	36330.62
519.742	36674.68
519.944	36455.55
520.146	37028.98
520.348	37141.62
520.55	37313.65
520.752	37518.45
520.954	37925.99
521.155	38087.78
521.357	38399.07
521.559	38949.98
521.761	39148.63
521.963	38823
522.164	39263.32
522.366	39695.44
522.568	39291.99
522.77	39517.26
522.971	40318.02
523.173	40098.89
523.375	40358.98
523.576	40557.63
523.778	40741.95
523.98	41135.16
524.181	41225.27
524.383	41106.49
524.584	42040.36
524.786	41352.24
524.988	41604.14
525.189	42329.12
525.391	41630.77
525.592	42497.06
525.794	42613.79
525.995	42810.4
526.197	42597.41
526.398	42677.28
526.6	42986.52
526.801	43166.74
527.003	43322.39
527.204	43510.8
527.406	43731.98
527.607	43738.13
527.808	44215.3
528.01	43451.41
528.211	44055.56
528.412	44524.55
528.614	44405.77
528.815	44190.73
529.016	44923.9
529.218	44604.42
529.419	44602.37
529.62	44463.11
529.822	44729.34
530.023	44682.24
530.224	45097.98
530.425	44938.24
530.626	44465.16
530.828	44223.5
531.029	45939.69
531.23	45210.62
531.431	44915.71
531.632	45222.9
531.833	45562.87
532.035	45112.31
532.236	45896.69
532.437	45677.55
532.638	44975.1
532.839	45429.75
533.04	45409.27
533.241	45296.63
533.442	46003.18
533.643	45865.97
533.844	45552.63
534.045	45829.1
534.246	45143.03
534.447	45972.46
534.648	45235.19
534.849	45589.49
535.05	45284.34
535.251	45562.87
535.451	45882.35
535.652	46476.26
535.853	45724.66
536.054	45790.19
536.255	45898.73
536.456	45038.59
536.657	46128.11
536.857	45779.95
537.058	45415.41
537.259	45915.12
537.46	45878.25
537.66	45523.96
537.861	45870.06
538.062	45612.02
538.263	45947.89
538.463	45605.87
538.664	45509.62
538.865	45620.21
539.065	45771.76
539.266	45362.17
539.466	46021.61
539.667	45202.42
539.868	45931.5
540.068	45749.23
540.269	45368.31
540.469	45620.21
540.67	45284.34
540.87	45591.54
541.071	45323.26
541.271	45427.7
541.472	45429.75
541.672	45691.89
541.873	45128.7
542.073	44866.56
542.274	45472.76
542.474	45169.66
542.675	45270.01
542.875	45558.77
543.075	44893.18
543.276	44999.68
543.476	45728.75
543.676	45007.87
543.877	44997.63
544.077	45083.64
544.277	45206.52
544.478	45235.19
544.678	45628.4
544.878	45227
545.078	45423.61
545.279	45042.68
545.479	45120.51
545.679	45104.12
545.879	44993.53
546.079	44876.8
546.28	44796.93
546.48	44399.62
546.68	45050.88
546.88	45394.93
547.08	45239.29
547.28	44796.93
547.48	44596.23
547.68	45001.72
547.88	44737.54
548.081	45042.68
548.281	44964.86
548.481	45183.99
548.681	45104.12
548.881	44925.95
549.081	44993.53
549.28	44633.09
549.48	44604.42
549.68	44704.77
549.88	45732.85
550.08	44647.43
550.28	44821.5
550.48	44735.49
550.68	44813.31
550.88	44659.71
551.08	44907.52
551.279	44997.63
551.479	44260.36
551.679	44710.91
551.879	44653.57
552.079	44637.19
552.278	44522.5
552.478	44801.02
552.678	44454.92
552.878	44600.32
553.077	44354.57
553.277	44153.86
553.477	44579.84
553.676	44227.59
553.876	44112.91
554.076	44260.36
554.275	44506.12
554.475	43947.02
554.674	44182.54
554.874	44356.61
555.074	43818
555.273	44336.13
555.473	44516.36
555.672	43930.64
555.872	44014.6
556.071	43977.74
556.271	44485.64
556.47	43883.53
556.67	43308.05
556.869	43674.64
557.068	44045.32
557.268	43752.46
557.467	43912.2
557.667	43342.87
557.866	43992.08
558.065	43441.17
558.265	43314.2
558.464	43129.88
558.663	43719.7
558.863	43099.16
559.062	44010.51
559.261	43117.59
559.461	43963.4
559.66	42933.28
559.859	43260.95
560.058	42671.14
560.258	43187.22
560.457	42882.08
560.656	43183.13
560.855	42902.56
561.054	42966.04
561.253	42898.46
561.453	42802.21
561.652	43236.37
561.851	42970.14
562.05	42785.82
562.249	42654.75
562.448	42904.6
562.647	43060.25
562.846	42441.76
563.045	42767.39
563.244	42114.09
563.443	42449.95
563.642	41858.09
563.841	42204.2
564.04	41901.1
564.239	41962.54
564.438	42269.73
564.637	42415.14
564.836	42075.18
565.035	41962.54
565.234	41878.57
565.432	41319.48
565.631	41581.62
565.83	41688.11
566.029	41540.66
566.228	41591.86
566.427	41327.67
566.625	41147.45
566.824	40729.66
567.023	41589.81
567.222	40543.3
567.42	41423.92
567.619	41464.88
567.818	41083.96
568.016	40911.93
568.215	41079.86
568.414	40721.47
568.612	40975.42
568.811	40674.37
569.01	40655.93
569.208	40031.3
569.407	40293.44
569.605	40154.18
569.804	40764.48
570.002	40426.56
570.201	40043.59
570.4	39984.2
570.598	39584.85
570.797	39369.81
570.995	40027.21
571.193	39636.05
571.392	39963.72
571.59	39599.18
571.789	39367.76
571.987	39328.85
572.186	39447.63
572.384	39304.27
572.582	39793.74
572.781	39115.86
572.979	38863.96
573.177	38798.43
573.376	39369.81
573.574	39091.29
573.772	39040.09
573.971	38972.5
574.169	38616.16
574.367	38677.6
574.565	38911.06
574.763	38665.31
574.962	38311.01
575.16	38286.43
575.358	38468.7
575.556	37921.9
575.754	38339.68
575.952	37375.09
576.151	38345.83
576.349	37923.94
576.547	37549.17
576.745	38202.47
576.943	38026.34
577.141	37637.23
577.339	37452.91
577.537	37377.14
577.735	37266.55
577.933	37194.87
578.131	37037.17
578.329	36678.78
578.527	36514.94
578.725	37278.83
578.923	37018.74
579.121	36437.12
579.319	36553.85
579.516	36695.16
579.714	36584.57
579.912	36365.44
580.11	36400.26
580.308	36476.03
580.506	36142.21
580.704	35828.87
580.901	35990.66
581.099	36213.89
581.297	35718.28
581.495	35929.22
581.692	36101.25
581.89	35388.56
582.088	35871.88
582.285	35142.8
582.483	35497.1
582.681	35544.2
582.878	35019.92
583.076	34888.85
583.274	35306.64
583.471	35011.73
583.669	34618.52
583.866	34561.18
584.064	35212.43
584.262	34079.91
584.459	34806.94
584.657	34151.59
584.854	34700.44
585.052	34204.83
585.249	34421.92
585.447	34569.37
585.644	34045.09
585.841	34235.55
586.039	34147.49
586.236	33508.52
586.434	33608.87
586.631	33510.57
586.828	33436.84
587.026	33541.29
587.223	33496.24
587.42	33281.2
587.618	32965.81
587.815	32879.8
588.012	33035.44
588.21	33246.38
588.407	32998.58
588.604	32570.55
588.801	32720.06
588.999	32668.86
589.196	32365.76
589.393	32951.48
589.59	32474.3
589.787	32251.07
589.984	32031.94
590.182	32074.95
590.379	32003.27
590.576	31909.06
590.773	31913.16
590.97	31599.82
591.167	31935.68
591.364	31425.74
591.561	31583.43
591.758	31378.64
591.955	31276.24
592.152	31681.74
592.349	31163.6
592.546	31145.17
592.743	31521.99
592.94	30815.44
593.137	31059.15
593.334	31108.3
593.531	30559.45
593.727	30991.57
593.924	30639.32
594.121	30430.43
594.318	30553.3
594.515	29957.35
594.712	30393.56
594.908	29955.3
595.105	30225.63
595.302	29779.17
595.499	30352.6
595.696	29639.91
595.892	29519.08
596.089	29842.66
596.286	29682.92
596.482	29453.55
596.679	29297.9
596.876	29517.03
597.072	29066.48
597.269	29072.62
597.466	29052.14
597.662	28781.81
597.859	29093.1
598.055	29031.66
598.252	28642.55
598.448	28855.54
598.645	28603.64
598.841	27993.34
599.038	28507.38
599.234	28484.86
599.431	28114.17
599.627	28284.16
599.824	28355.83
600.02	27800.83
600.217	28200.19
600.413	27989.25
600.609	27653.38
600.806	27530.5
601.002	27690.24
601.198	27208.97
601.395	27448.58
601.591	27329.8
601.787	27585.8
601.984	27309.32
602.18	27579.65
602.376	27235.6
602.572	27342.09
602.769	26768.66
602.965	26563.86
603.161	27002.13
603.357	26672.4
603.553	26277.15
603.75	26420.5
603.946	26377.5
604.142	26570.01
604.338	26180.89
604.534	26340.63
604.73	25914.66
604.926	26078.49
605.122	26055.97
605.318	25799.97
605.514	25875.74
605.71	25677.09
605.906	25378.09
606.102	25654.56
606.298	25799.97
606.494	25462.05
606.69	25290.02
606.886	25580.84
607.082	25175.34
607.278	25644.32
607.474	24853.81
607.67	25077.04
607.866	24698.16
608.062	25068.84
608.257	25144.62
608.453	24950.06
608.649	24741.17
608.845	24749.36
609.041	24763.7
609.236	24986.93
609.432	24614.2
609.628	24481.08
609.824	24513.84
610.019	24374.58
610.215	24214.84
610.411	24501.56
610.606	24415.54
610.802	24223.03
610.998	24298.81
611.193	24266.04
611.389	24325.43
611.584	23883.07
611.78	23878.97
611.976	24128.83
612.171	23852.35
612.367	23950.65
612.562	23829.82
612.758	23897.41
612.953	23270.73
613.149	23913.79
613.344	23719.23
613.539	23973.18
613.735	23686.47
613.93	23680.32
614.126	23502.15
614.321	23831.87
614.517	23625.03
614.712	23604.55
614.907	23379.27
615.103	23498.05
615.298	23158.09
615.493	23453
615.688	23000.4
615.884	23579.97
616.079	22754.64
616.274	23313.73
616.47	22934.86
616.665	23364.93
616.86	22875.47
617.055	22775.12
617.25	22881.61
617.445	23217.48
617.641	22644.05
617.836	22742.35
618.031	22656.34
618.226	22824.27
618.421	22379.86
618.616	22701.39
618.811	22269.27
619.006	22508.88
619.201	21908.83
619.396	22070.62
619.591	21876.06
619.786	22156.63
619.981	21964.12
620.176	21949.79
620.371	21333.35
620.566	22084.95
620.761	21495.14
620.956	21749.09
621.151	21316.97
621.346	21546.34
621.541	20993.39
621.735	21144.94
621.93	20839.79
622.125	21142.89
622.32	20702.57
622.515	20968.81
622.709	20702.57
622.904	20628.85
623.099	20184.44
623.294	20391.28
623.488	20235.64
623.683	20219.25
623.878	19813.76
624.072	19897.72
624.267	19961.21
624.462	19867
624.656	19391.87
624.851	19584.38
625.046	19238.28
625.24	19510.66
625.435	19006.86
625.629	18935.18
625.824	19060.1
626.018	19107.21
626.213	18804.11
626.407	18754.96
626.602	18462.1
626.796	18496.91
626.991	18582.93
627.185	18175.38
627.38	18113.94
627.574	17974.68
627.768	17972.63
627.963	17884.57
628.157	17690.01
628.352	17966.49
628.546	17464.74
628.74	17718.68
628.935	17092.01
629.129	17384.87
629.323	17067.43
629.517	17163.68
629.712	17089.96
629.906	17010.09
630.1	16743.85
630.294	17024.42
630.489	16721.32
630.683	16756.14
630.877	16491.95
631.071	16500.14
631.265	16639.4
631.459	16256.43
631.653	16188.85
631.848	16002.49
632.042	15826.36
632.236	16137.65
632.43	16027.06
632.624	15678.91
632.818	15816.12
633.012	15654.33
633.206	15848.89
633.4	15527.36
633.594	15283.65
633.788	15576.51
633.982	15263.17
634.176	15285.7
634.369	15021.51
634.563	14818.76
634.757	14966.21
634.951	15035.85
635.145	14970.31
635.339	14839.24
635.533	14804.42
635.726	14720.46
635.92	14384.59
636.114	14577.1
636.308	14097.88
636.501	14366.16
636.695	14333.39
636.889	14177.75
637.083	14319.06
637.276	13825.5
637.47	14038.48
637.664	13657.56
637.857	13764.06
638.051	13800.92
638.244	13850.07
638.438	13274.59
638.632	13397.47
638.825	13383.13
639.019	13471.2
639.212	13186.53
639.406	13186.53
639.599	12985.83
639.793	13084.13
639.986	12932.58
640.18	12826.09
640.373	12967.4
640.567	12795.37
640.76	12692.97
640.954	12561.9
641.147	12680.68
641.34	12410.35
641.534	12510.7
641.727	12410.35
641.92	12522.99
642.114	12377.58
642.307	12105.2
642.5	11990.52
642.694	12013.04
642.887	11832.82
643.08	11945.46
643.273	11967.99
643.467	11578.87
643.66	11570.68
643.853	11828.73
644.046	11632.12
644.239	11568.63
644.432	11445.76
644.626	11537.91
644.819	11511.29
645.012	11343.36
645.205	11179.52
645.398	11197.95
645.591	11142.66
645.784	11107.84
645.977	10970.63
646.17	10941.96
646.363	11093.51
646.556	10984.96
646.749	10618.38
646.942	10894.85
647.135	10710.54
647.328	10503.69
647.521	10462.73
647.714	10251.79
647.907	10688.01
648.099	10536.46
648.292	10628.62
648.485	10532.36
648.678	10276.37
648.871	10137.1
649.064	10180.11
649.256	10198.54
649.449	9987.6
649.642	10106.38
649.835	10079.76
650.027	9909.78
650.22	9836.05
650.413	9737.75
650.605	9747.99
650.798	9696.79
650.991	9479.71
651.183	9547.29
651.376	9723.41
651.568	9551.38
651.761	9344.54
651.954	9442.84
652.146	9418.27
652.339	9367.07
652.531	9391.64
652.724	9227.81
652.916	9127.46
653.109	9258.53
653.301	9059.87
653.494	8984.1
653.686	8676.9
653.879	9080.35
654.071	8943.14
654.263	8644.13
654.456	8779.3
654.648	8834.6
654.84	8574.5
655.033	8607.27
655.225	8549.93
655.417	8379.95
655.61	8474.15
655.802	8410.67
655.994	8357.42
656.186	8271.4
656.379	8328.75
656.571	8359.47
656.763	8355.37
656.955	8214.06
657.148	8109.61
657.34	8244.78
657.532	7927.35
657.724	7999.02
657.916	8128.05
658.108	7982.64
658.3	7923.25
658.492	7913.01
658.684	7710.26
658.876	7630.39
659.068	7718.45
659.26	7753.27
659.452	7630.39
659.644	7689.78
659.836	7515.7
660.028	7548.47
660.22	7409.21
660.412	7491.13
660.604	7439.93
660.796	7472.7
660.988	7464.5
661.18	7245.37
661.372	7228.99
661.563	7325.24
661.755	7290.43
661.947	7179.84
662.139	7118.4
662.331	7050.82
662.522	6919.75
662.714	7007.81
662.906	6970.94
663.097	6886.98
663.289	6831.68
663.481	6921.79
663.673	6669.89
663.864	6782.53
664.056	6637.13
664.247	6755.91
664.439	6626.89
664.631	6577.73
664.822	6520.39
665.014	6540.87
665.205	6534.73
665.397	6426.18
665.588	6499.91
665.78	6422.09
665.971	6487.62
666.163	6377.03
666.354	6387.27
666.546	6424.14
666.737	6299.21
666.929	6243.92
667.12	6309.45
667.311	6200.91
667.503	6233.68
667.694	6221.39
667.885	6012.49
668.077	6084.17
668.268	6075.98
668.459	5981.78
668.651	5867.09
668.842	5891.66
669.033	5809.75
669.224	5774.93
669.416	5942.86
669.607	5975.63
669.798	5899.86
669.989	5940.82
670.18	5693.01
670.371	5666.39
670.563	5641.81
670.754	5801.55
670.945	5727.83
671.136	5656.15
671.327	5658.2
671.518	5731.92
671.709	5621.33
671.9	5432.92
672.091	5531.22
672.282	5465.69
672.473	5379.67
672.664	5439.06
672.855	5459.54
673.046	5389.91
673.237	5385.82
673.428	5285.47
673.619	5305.95
673.809	5328.47
674	5293.66
674.191	5269.08
674.382	5275.23
674.573	5156.44
674.764	5195.36
674.954	5154.4
675.145	5228.12
675.336	4972.13
675.527	5076.57
675.717	5090.91
675.908	4910.69
676.099	5084.77
676.289	5052
676.48	4974.17
676.671	4968.03
676.861	4912.74
677.052	4914.78
677.243	4865.63
677.433	4994.65
677.624	4884.06
677.814	5031.52
678.005	4810.34
678.195	4912.74
678.386	4902.5
678.576	4822.63
678.767	4789.86
678.957	4892.26
679.148	4937.31
679.338	4785.76
679.529	4757.09
679.719	4863.58
679.909	4763.23
680.1	4728.42
680.29	4560.49
680.481	4640.36
680.671	4693.6
680.861	4681.32
681.052	4779.62
681.242	4693.6
681.432	4738.66
681.622	4556.39
681.813	4697.7
682.003	4544.1
682.193	4529.77
682.383	4578.92
682.573	4666.98
682.764	4619.88
682.954	4527.72
683.144	4689.51
683.334	4441.7
683.524	4580.96
683.714	4365.93
683.904	4515.43
684.094	4611.68
684.284	4607.59
684.474	4560.49
684.664	4462.18
684.854	4396.65
685.044	4468.33
685.234	4390.5
685.424	4347.5
685.614	4521.57
685.804	4327.02
685.994	4296.3
686.184	4294.25
686.374	4324.97
686.564	4279.91
686.753	4292.2
686.943	4263.53
687.133	4148.84
687.323	4273.77
687.513	4134.51
687.702	4128.36
687.892	4148.84
688.082	4261.48
688.272	4118.12
688.461	4183.66
688.651	4132.46
688.841	3974.77
689.03	3921.52
689.22	3997.29
689.41	4019.82
689.599	4001.39
689.789	4023.92
689.979	3995.25
690.168	3868.27
690.358	3921.52
690.547	3890.8
690.737	3757.68
690.926	3907.18
691.116	3769.97
691.305	3731.06
691.495	3901.04
691.684	3827.31
691.874	3810.93
692.063	3747.44
692.252	3704.43
692.442	3550.84
692.631	3626.61
692.82	3655.28
693.01	3718.77
693.199	3604.08
693.388	3516.02
693.578	3659.38
693.767	3593.84
693.956	3368.57
694.146	3479.16
694.335	3511.93
694.524	3372.66
694.713	3485.3
694.902	3335.8
695.092	3436.15
695.281	3425.91
695.47	3409.53
695.659	3286.65
695.848	3323.51
696.037	3321.46
696.226	3300.98
696.415	3348.09
696.604	3378.81
696.793	3182.2
696.982	3171.96
697.171	3081.85
697.36	3208.83
697.549	3169.91
697.738	3081.85
697.927	3141.24
698.116	3124.86
698.305	3143.29
698.494	3186.3
698.683	3149.43
698.872	3212.92
699.061	3118.72
699.25	3075.71
699.438	3165.82
699.627	3022.46
699.816	2999.93
700.005	3038.84
700.193	2963.07
700.382	3010.17
700.571	2967.17
700.76	2975.36
700.948	3026.56
701.137	3012.22
701.326	3042.94
701.514	2979.45
701.703	3001.98
701.892	2889.34
702.08	3010.17
702.269	2922.11
702.457	2872.96
702.646	2934.4
702.834	2889.34
703.023	2920.06
703.212	2954.88
703.4	2823.81
703.589	2731.65
703.777	2918.01
703.965	2834.05
704.154	2803.33
704.342	2834.05
704.531	2854.53
704.719	2778.75
704.907	2860.67
705.096	2772.61
705.284	2829.95
705.472	2719.36
705.661	2715.27
705.849	2872.96
706.037	2723.46
706.226	2668.16
706.414	2713.22
706.602	2721.41
706.79	2758.27
706.979	2801.28
707.167	2805.38
707.355	2797.18
707.543	2799.23
707.731	2807.42
707.919	2676.35
708.107	2737.79
708.296	2731.65
708.484	2729.6
708.672	2758.27
708.86	2721.41
709.048	2725.51
709.236	2696.83
709.424	2764.42
709.612	2623.11
709.8	2610.82
709.988	2711.17
710.176	2717.31
710.364	2657.92
710.551	2596.48
710.739	2647.68
710.927	2719.36
711.115	2709.12
711.303	2657.92
711.491	2686.59
711.679	2723.46
711.866	2727.55
712.054	2584.2
712.242	2594.44
712.43	2635.39
712.617	2616.96
712.805	2582.15
712.993	2651.78
713.181	2588.29
713.368	2676.35
713.556	2725.51
713.744	2621.06
713.931	2627.2
714.119	2737.79
714.306	2698.88
714.494	2645.63
714.682	2637.44
714.869	2537.09
715.057	2737.79
715.244	2676.35
715.432	2743.94
715.619	2817.66
715.807	2686.59
715.994	2659.97
716.182	2629.25
716.369	2688.64
716.556	2586.24
716.744	2616.96
716.931	2592.39
717.119	2668.16
717.306	2629.25
717.493	2592.39
717.681	2729.6
717.868	2780.8
718.055	2627.2
718.242	2541.19
718.43	2631.3
718.617	2600.58
718.804	2573.96
718.991	2643.59
719.179	2578.05
719.366	2582.15
719.553	2700.93
719.74	2668.16
719.927	2639.49
720.114	2551.43
720.301	2623.11
720.488	2637.44
720.676	2707.07
720.863	2565.76
721.05	2791.04
721.237	2600.58
721.424	2723.46
721.611	2674.31
721.798	2741.89
721.985	2598.53
722.172	2604.67
722.358	2633.35
722.545	2610.82
722.732	2676.35
722.919	2647.68
723.106	2561.67
723.293	2633.35
723.48	2657.92
723.667	2582.15
723.853	2559.62
724.04	2805.38
724.227	2715.27
724.414	2573.96
724.6	2573.96
724.787	2756.22
724.974	2721.41
725.161	2567.81
725.347	2657.92
725.534	2682.5
725.72	2684.55
725.907	2621.06
726.094	2573.96
726.28	2647.68
726.467	2584.2
726.653	2633.35
726.84	2639.49
727.027	2715.27
727.213	2582.15
727.4	2707.07
727.586	2614.91
727.773	2649.73
727.959	2664.07
728.145	2623.11
728.332	2602.63
728.518	2594.44
728.705	2766.46
728.891	2512.52
729.077	2729.6
729.264	2528.9
729.45	2698.88
729.636	2702.98
729.823	2637.44
730.009	2600.58
730.195	2649.73
730.382	2721.41
730.568	2750.08
730.754	2645.63
730.94	2741.89
731.126	2641.54
731.313	2545.28
731.499	2709.12
731.685	2657.92
731.871	2580.1
732.057	2662.02
732.243	2709.12
732.429	2637.44
732.615	2631.3
732.801	2616.96
732.987	2627.2
733.173	2645.63
733.359	2664.07
733.545	2680.45
733.731	2551.43
733.917	2866.81
734.103	2662.02
734.289	2547.33
734.475	2543.24
734.661	2582.15
734.847	2518.66
735.033	2553.48
735.219	2565.76
735.404	2651.78
735.59	2637.44
735.776	2639.49
735.962	2604.67
736.148	2676.35
736.333	2539.14
736.519	2559.62
736.705	2616.96
736.89	2600.58
737.076	2662.02
737.262	2627.2
737.447	2631.3
737.633	2733.7
737.819	2537.09
738.004	2549.38
738.19	2537.09
738.375	2522.76
738.561	2504.32
738.747	2436.74
738.932	2487.94
739.118	2541.19
739.303	2610.82
739.489	2457.22
739.674	2377.35
739.859	2442.89
740.045	2500.23
740.23	2608.77
740.416	2502.28
740.601	2446.98
740.786	2401.93
740.972	2608.77
741.157	2217.61
741.342	2416.26
741.528	2451.08
741.713	2403.97
741.898	2328.2
742.084	2479.75
742.269	2360.97
742.454	2383.49
742.639	2455.17
742.824	2471.56
743.01	2236.04
743.195	2461.32
743.38	2307.72
743.565	2397.83
743.75	2279.05
743.935	2299.53
744.12	2393.73
744.305	2279.05
744.49	2291.34
744.675	2209.42
744.86	2338.44
745.045	2258.57
745.23	2274.95
745.415	2315.91
745.6	2201.23
745.785	2143.88
745.97	2246.28
746.155	2281.1
746.34	2193.03
746.525	2104.97
746.71	2238.09
746.895	2180.75
747.079	2150.03
747.264	2084.49
747.449	2188.94
747.634	2123.4
747.819	1994.38
748.003	2174.6
748.188	1986.19
748.373	1978
748.557	2035.34
748.742	2057.87
748.927	2164.36
749.111	1978
749.296	1951.37
749.481	1930.89
749.665	1947.28
749.85	2039.44
750.034	1969.8
750.219	1982.09
750.404	1832.59
750.588	1922.7
750.773	1879.69
750.957	1873.55
751.141	1947.28
751.326	1730.19
751.51	1846.93
751.695	1834.64
751.879	1797.78
752.064	1894.03
752.248	1887.89
752.432	1816.21
752.617	1822.35
752.801	1865.36
752.985	1808.02
753.17	1785.49
753.354	1765.01
753.538	1629.84
753.722	1668.75
753.907	1666.71
754.091	1627.79
754.275	1607.31
754.459	1640.08
754.643	1691.28
754.828	1543.83
755.012	1631.89
755.196	1697.42
755.38	1578.64
755.564	1650.32
755.748	1603.22
755.932	1611.41
756.116	1625.75
756.3	1492.63
756.484	1521.3
756.668	1517.2
756.852	1457.81
757.036	1459.86
757.22	1457.81
757.404	1627.79
757.588	1382.04
757.772	1414.81
757.956	1414.81
758.14	1457.81
758.323	1412.76
758.507	1406.61
758.691	1379.99
758.875	1437.33
759.059	1414.81
759.242	1498.77
759.426	1420.95
759.61	1484.44
759.794	1390.23
759.977	1437.33
760.161	1406.61
760.345	1371.8
760.528	1314.45
760.712	1357.46
760.895	1367.7
761.079	1283.74
761.263	1283.74
761.446	1210.01
761.63	1183.38
761.813	1287.83
761.997	1339.03
762.18	1308.31
762.364	1306.26
762.547	1316.5
762.731	1238.68
762.914	1226.39
763.098	1214.1
763.281	1339.03
763.464	1275.54
763.648	1144.47
763.831	1154.71
764.015	1146.52
764.198	1236.63
764.381	1154.71
764.564	1277.59
764.748	1234.58
764.931	1201.82
765.114	1142.43
765.297	1121.95
765.481	1175.19
765.664	1179.29
765.847	1066.65
766.03	1117.85
766.213	1083.03
766.397	1199.77
766.58	1109.66
766.763	1150.62
766.946	1132.19
767.129	1064.6
767.312	1021.6
767.495	1005.21
767.678	1101.47
767.861	1117.85
768.044	1017.5
768.227	1066.65
768.41	1048.22
768.593	1037.98
768.776	992.92
768.959	1058.46
769.142	1031.83
769.324	1029.79
769.507	954.01
769.69	1119.9
769.873	974.49
770.056	992.92
770.239	1029.79
770.421	1085.08
770.604	1005.21
770.787	974.49
770.97	964.25
771.152	978.59
771.335	929.44
771.518	931.48
771.7	980.64
771.883	1064.6
772.066	929.44
772.248	972.44
772.431	1027.74
772.613	1001.12
772.796	894.62
772.978	994.97
773.161	939.68
773.343	933.53
773.526	908.96
773.708	771.74
773.891	818.85
774.073	958.11
774.256	847.52
774.438	986.78
774.621	849.57
774.803	788.13
774.985	863.9
775.168	878.24
775.35	824.99
775.532	833.18
775.715	812.7
775.897	937.63
776.079	906.91
776.261	798.37
776.444	814.75
776.626	851.61
776.808	884.38
776.99	814.75
777.173	849.57
777.355	738.98
777.537	847.52
777.719	726.69
777.901	845.47
778.083	749.22
778.265	775.84
778.447	743.07
778.629	788.13
778.811	765.6
778.993	712.35
779.175	755.36
779.357	718.5
779.539	730.78
779.721	636.58
779.903	632.48
780.085	683.68
780.267	683.68
780.449	720.54
780.631	708.26
780.812	685.73
780.994	620.19
781.176	595.62
781.358	659.1
781.54	706.21
781.721	603.81
781.903	659.1
782.085	657.06
782.267	616.1
782.448	679.58
782.63	603.81
782.812	640.67
782.993	562.85
783.175	618.15
783.357	573.09
783.538	652.96
783.72	468.64
783.901	503.46
784.083	575.14
784.264	528.03
784.446	519.84
784.627	620.19
784.809	593.57
784.99	534.18
785.172	575.14
785.353	491.17
785.535	616.1
785.716	476.84
785.897	497.32
786.079	419.49
786.26	435.88
786.441	525.99
786.623	435.88
786.804	540.32
786.985	448.16
787.167	448.16
787.348	485.03
787.529	517.79
787.71	513.7
787.891	446.12
788.073	489.12
788.254	431.78
788.435	511.65
788.616	532.13
788.797	450.21
788.978	448.16
789.159	446.12
789.34	380.58
789.522	480.93
789.703	382.63
789.884	409.25
790.065	427.68
790.246	470.69
790.427	419.49
790.607	431.78
790.788	442.02
790.969	364.2
791.15	401.06
791.331	419.49
791.512	450.21
791.693	382.63
791.874	411.3
792.054	439.97
792.235	351.91
792.416	382.63
792.597	513.7
792.778	446.12
792.958	407.2
793.139	317.09
793.32	417.44
793.5	358.05
793.681	374.44
793.862	349.86
794.042	339.62
794.223	296.61
794.404	347.81
794.584	333.48
794.765	329.38
794.945	374.44
795.126	347.81
795.306	435.88
795.487	323.24
795.667	368.29
795.848	378.53
796.028	323.24
796.209	411.3
796.389	341.67
796.57	313
796.75	292.52
796.93	345.77
797.111	298.66
797.291	376.48
797.471	317.09
797.652	310.95
797.832	382.63
798.012	358.05
798.192	323.24
798.373	272.04
798.553	298.66
798.733	280.23
798.913	247.46
799.093	405.16
799.274	288.42
799.454	323.24
799.634	269.99
799.814	310.95
799.994	341.67
800.174	257.7
800.354	304.81
800.534	222.89
800.714	282.28
800.894	274.09
801.074	276.13
801.254	280.23
801.434	276.13
801.614	257.7
801.794	261.8
801.974	620.19
802.154	222.89
802.334	339.62
802.514	288.42
802.693	226.98
802.873	214.7
803.053	284.33
803.233	226.98
803.413	313
803.592	263.85
803.772	315.05
803.952	241.32
804.131	274.09
804.311	237.22
804.491	222.89
804.67	292.52
804.85	249.51
805.03	243.37
805.209	300.71
805.389	194.22
805.568	292.52
805.748	194.22
805.928	251.56
806.107	198.31
806.287	188.07
806.466	265.89
806.646	239.27
806.825	190.12
807.004	210.6
807.184	188.07
807.363	181.93
807.543	259.75
807.722	218.79
807.901	257.7
808.081	306.85
808.26	181.93
808.439	222.89
808.619	220.84
808.798	245.41
808.977	177.83
809.156	247.46
809.336	192.17
809.515	231.08
809.694	222.89
809.873	269.99
810.052	167.59
810.231	233.13
810.411	208.55
810.59	194.22
810.769	200.36
810.948	188.07
811.127	192.17
811.306	212.65
811.485	190.12
811.664	224.94
811.843	171.69
812.022	157.35
812.201	231.08
812.38	218.79
812.559	151.21
812.737	175.78
812.916	212.65
813.095	149.16
813.274	173.74
813.453	145.06
813.632	169.64
813.811	190.12
813.989	220.84
814.168	218.79
814.347	85.67
814.526	202.41
814.704	163.5
814.883	222.89
815.062	95.91
815.24	157.35
815.419	138.92
815.598	143.02
815.776	102.06
815.955	145.06
816.133	204.46
816.312	196.26
816.49	173.74
816.669	136.87
816.847	85.67
817.026	116.39
817.204	190.12
817.383	151.21
817.561	102.06
817.74	149.16
817.918	243.37
818.097	132.78
818.275	165.54
818.453	120.49
818.632	155.3
818.81	200.36
818.988	136.87
819.167	167.59
819.345	112.3
819.523	52.91
819.701	179.88
819.879	206.5
820.058	128.68
820.236	145.06
820.414	132.78
820.592	136.87
820.77	188.07
820.948	151.21
821.127	134.82
821.305	196.26
821.483	102.06
821.661	167.59
821.839	233.13
822.017	79.53
822.195	149.16
822.373	231.08
822.551	157.35
822.729	134.82
822.907	83.63
823.085	181.93
823.262	120.49
823.44	138.92
823.618	147.11
823.796	161.45
823.974	108.2
824.152	143.02
824.329	140.97
824.507	81.58
824.685	91.82
824.863	183.98
825.04	30.38
825.218	46.76
825.396	106.15
825.574	69.29
825.751	108.2
825.929	114.34
826.107	44.71
826.284	140.97
826.462	83.63
826.639	61.1
826.817	114.34
826.994	167.59
827.172	145.06
827.349	138.92
827.527	100.01
827.704	128.68
827.882	83.63
828.059	149.16
828.237	130.73
828.414	95.91
828.591	40.62
828.769	85.67
828.946	-8.53
829.124	169.64
829.301	116.39
829.478	91.82
829.655	104.11
829.833	102.06
830.01	104.11
830.187	97.96
830.364	95.91
830.542	95.91
830.719	104.11
830.896	122.54
831.073	124.58
831.25	46.76
831.427	77.48
831.604	71.34
831.782	112.3
831.959	93.87
832.136	87.72
832.313	110.25
832.49	145.06
832.667	177.83
832.844	46.76
833.021	216.74
833.198	95.91
833.374	5.8
833.551	114.34
833.728	83.63
833.905	93.87
834.082	69.29
834.259	36.52
834.436	145.06
834.612	9.9
834.789	71.34
834.966	48.81
835.143	63.15
835.319	83.63
835.496	22.19
835.673	46.76
835.85	71.34
836.026	102.06
836.203	69.29
836.38	93.87
836.556	28.33
836.733	106.15
836.909	79.53
837.086	50.86
837.262	126.63
837.439	-12.63
837.616	57
837.792	77.48
837.968	118.44
838.145	3.75
838.321	40.62
838.498	34.47
838.674	13.99
838.851	87.72
839.027	128.68
839.203	46.76
839.38	87.72
839.556	46.76
839.732	134.82
839.909	61.1
840.085	87.72
840.261	-8.53
840.437	59.05
840.614	93.87
840.79	34.47
840.966	104.11
841.142	59.05
841.318	16.04
841.494	120.49
841.671	-12.63
841.847	77.48
842.023	65.19
842.199	75.43
842.375	61.1
842.551	24.23
842.727	34.47
842.903	54.95
843.079	44.71
843.255	16.04
843.431	104.11
843.607	54.95
843.783	91.82
843.959	81.58
844.134	9.9
844.31	110.25
844.486	34.47
844.662	63.15
844.838	104.11
845.013	38.57
845.189	87.72
845.365	91.82
845.541	71.34
845.716	116.39
845.892	71.34
846.068	7.85
846.244	69.29
846.419	36.52
846.595	-37.2
846.77	30.38
846.946	42.67
847.122	71.34
847.297	-22.87
847.473	126.63
847.648	34.47
847.824	104.11
847.999	-2.39
848.175	69.29
848.35	114.34
848.526	89.77
848.701	30.38
848.876	95.91
849.052	79.53
849.227	95.91
849.403	48.81
849.578	18.09
849.753	110.25
849.929	65.19
850.104	1.71
850.279	54.95
850.454	104.11
850.63	57
850.805	50.86
850.98	81.58
851.155	-33.11
851.33	104.11
851.505	79.53
851.681	40.62
851.856	75.43
852.031	71.34
852.206	-49.49
852.381	157.35
852.556	71.34
852.731	38.57
852.906	13.99
853.081	54.95
853.256	75.43
853.431	48.81
853.606	57
853.781	24.23
853.956	75.43
854.131	36.52
854.305	9.9
854.48	83.63
854.655	9.9
854.83	79.53
855.005	46.76
855.18	38.57
855.354	22.19
855.529	22.19
855.704	48.81
855.879	24.23
856.053	11.95
856.228	9.9
856.403	32.43
856.577	100.01
856.752	34.47
856.926	147.11
857.101	13.99
857.276	57
857.45	-6.49
857.625	100.01
857.799	5.8
857.974	5.8
858.148	36.52
858.323	24.23
858.497	50.86
858.672	16.04
858.846	44.71
859.02	9.9
859.195	16.04
859.369	34.47
859.543	54.95
859.718	32.43
859.892	77.48
860.066	-12.63
860.241	-43.35
860.415	-8.53
860.589	-14.68
860.763	28.33
860.938	22.19
861.112	-14.68
861.286	-22.87
861.46	83.63
861.634	13.99
861.808	9.9
861.982	5.8
862.157	26.28
862.331	-31.06
862.505	-10.58
862.679	30.38
862.853	38.57
863.027	11.95
863.201	22.19
863.375	13.99
863.549	38.57
863.722	-0.34
863.896	44.71
864.07	44.71
864.244	79.53
864.418	-10.58
864.592	77.48
864.766	120.49
864.939	48.81
865.113	36.52
865.287	26.28
865.461	-29.01
865.634	32.43
865.808	-18.77
865.982	61.1
866.156	-51.54
866.329	18.09
866.503	9.9
866.676	48.81
866.85	-0.34
867.024	38.57
867.197	42.67
867.371	22.19
867.544	-4.44
867.718	30.38
867.891	-31.06
868.065	5.8
868.238	42.67
868.412	22.19
868.585	-20.82
868.759	-18.77
868.932	24.23
869.105	100.01
869.279	5.8
869.452	24.23
869.625	-6.49
869.799	32.43
869.972	22.19
870.145	46.76
870.319	-4.44
870.492	-24.92
870.665	20.14
870.838	3.75
871.011	46.76
871.185	-4.44
871.358	-22.87
871.531	63.15
871.704	11.95
871.877	28.33
872.05	-24.92
872.223	30.38
872.396	11.95
872.569	65.19
872.742	-43.35
872.915	28.33
873.088	112.3
873.261	-18.77
873.434	102.06
873.607	46.76
873.78	38.57
873.953	-24.92
874.126	18.09
874.299	36.52
874.471	38.57
874.644	26.28
874.817	69.29
874.99	34.47
875.163	61.1
875.335	-51.54
875.508	24.23
875.681	57
875.853	-41.3
876.026	61.1
876.199	32.43
876.371	57
876.544	63.15
876.717	-47.44
876.889	46.76
877.062	-14.68
877.234	-0.34
877.407	11.95
877.579	44.71
877.752	85.67
877.924	52.91
878.097	-4.44
878.269	-43.35
878.442	61.1
878.614	5.8
878.786	-16.73
878.959	36.52
879.131	30.38
879.303	1.71
879.476	-33.11
879.648	87.72
879.82	7.85
879.993	-12.63
880.165	-4.44
880.337	63.15
880.509	81.58
880.681	-16.73
880.854	11.95
881.026	30.38
881.198	130.73
881.37	5.8
881.542	5.8
881.714	3.75
881.886	-2.39
882.058	-20.82
882.23	26.28
882.402	13.99
882.574	24.23
882.746	67.24
882.918	-4.44
883.09	-12.63
883.262	3.75
883.434	83.63
883.606	-6.49
883.778	30.38
883.95	52.91
884.122	-51.54
884.293	95.91
884.465	32.43
884.637	59.05
884.809	-45.4
884.98	34.47
885.152	38.57
885.324	18.09
885.496	-31.06
885.667	38.57
885.839	34.47
886.011	46.76
886.182	81.58
886.354	9.9
886.525	75.43
886.697	63.15
886.869	-6.49
887.04	-14.68
887.212	40.62
887.383	20.14
887.555	-2.39
887.726	-59.73
887.897	22.19
888.069	106.15
888.24	22.19
888.412	79.53
888.583	59.05
888.754	46.76
888.926	46.76
889.097	7.85
889.268	-0.34
889.44	-4.44
889.611	54.95
889.782	-4.44
889.953	-10.58
890.125	-14.68
890.296	-72.02
890.467	22.19
890.638	59.05
890.809	30.38
890.98	-121.17
891.151	-45.4
891.323	89.77
891.494	-8.53
891.665	-10.58
891.836	1.71
892.007	-14.68
892.178	9.9
892.349	-41.3
892.52	40.62
892.691	32.43
892.862	40.62
893.032	-26.96
893.203	30.38
893.374	34.47
893.545	65.19
893.716	13.99
893.887	-20.82
894.057	11.95
894.228	30.38
894.399	20.14
894.57	50.86
894.74	38.57
894.911	-8.53
895.082	-2.39
895.253	24.23
895.423	50.86
895.594	38.57
895.764	54.95
895.935	5.8
896.106	9.9
896.276	42.67
896.447	26.28
896.617	11.95
896.788	16.04
896.958	-2.39
897.129	5.8
897.299	5.8
897.47	87.72
897.64	-22.87
897.81	57
897.981	24.23
898.151	16.04
898.322	-57.68
898.492	-33.11
898.662	-20.82
898.832	-8.53
899.003	26.28
899.173	9.9
899.343	-18.77
899.513	-14.68
