Data from USB4F104151__95__11-37-57-676.txt Node

Date: Fri Mar 14 11:37:57 EDT 2025
User: louis
Spectrometer: USB4F10415
Trigger mode: 4
Integration Time (sec): 2.000000E-2
Scans to average: 1
Electric dark correction enabled: true
Nonlinearity correction enabled: false
Boxcar width: 0
XAxis mode: Wavelengths
Number of Pixels in Spectrum: 3648
>>>>>Begin Spectral Data<<<<<
178.204	-68.95
178.424	-68.95
178.644	-68.95
178.864	-42.32
179.084	-46.42
179.304	-124.24
179.524	-9.56
179.744	31.4
179.964	-38.23
180.184	31.4
180.404	10.92
180.624	-1.37
180.844	17.07
181.064	4.78
181.283	-1.37
181.503	12.97
181.723	66.22
181.943	-15.7
182.163	53.93
182.383	-42.32
182.602	68.27
182.822	29.35
183.042	17.07
183.262	45.74
183.482	10.92
183.701	21.16
183.921	23.21
184.141	-25.94
184.361	80.55
184.58	31.4
184.8	125.61
185.02	37.55
185.239	53.93
185.459	51.88
185.679	60.07
185.898	31.4
186.118	31.4
186.338	-30.04
186.557	82.6
186.777	29.35
186.997	-5.46
187.216	51.88
187.436	-1.37
187.655	21.16
187.875	125.61
188.095	64.17
188.314	101.03
188.534	2.73
188.753	37.55
188.973	23.21
189.192	45.74
189.412	39.59
189.631	55.98
189.851	92.84
190.07	72.36
190.29	6.83
190.509	21.16
190.729	29.35
190.948	49.83
191.168	107.18
191.387	105.13
191.607	64.17
191.826	-25.94
192.045	62.12
192.265	53.93
192.484	12.97
192.704	90.79
192.923	39.59
193.142	10.92
193.362	58.03
193.581	66.22
193.8	55.98
194.02	101.03
194.239	27.31
194.458	70.31
194.678	43.69
194.897	45.74
195.116	76.46
195.335	31.4
195.555	21.16
195.774	-44.37
195.993	-5.46
196.212	35.5
196.432	12.97
196.651	-44.37
196.87	2.73
197.089	58.03
197.308	43.69
197.528	-21.85
197.747	-73.04
197.966	31.4
198.185	-21.85
198.404	-17.75
198.623	84.65
198.842	-34.13
199.062	29.35
199.281	68.27
199.5	35.5
199.719	125.61
199.938	92.84
200.157	4.78
200.376	53.93
200.595	76.46
200.814	0.68
201.033	33.45
201.252	-27.99
201.471	41.64
201.69	60.07
201.909	27.31
202.128	78.51
202.347	31.4
202.566	76.46
202.785	53.93
203.004	43.69
203.223	17.07
203.442	17.07
203.661	10.92
203.879	31.4
204.098	33.45
204.317	-34.13
204.536	88.75
204.755	25.26
204.974	10.92
205.193	27.31
205.411	12.97
205.63	-38.23
205.849	10.92
206.068	55.98
206.287	4.78
206.505	82.6
206.724	-1.37
206.943	-32.08
207.162	96.94
207.381	4.78
207.599	76.46
207.818	-3.41
208.037	88.75
208.255	19.11
208.474	31.4
208.693	25.26
208.911	19.11
209.13	12.97
209.349	74.41
209.567	49.83
209.786	109.22
210.005	55.98
210.223	21.16
210.442	-3.41
210.661	80.55
210.879	58.03
211.098	-9.56
211.316	82.6
211.535	68.27
211.753	-1.37
211.972	10.92
212.191	-11.61
212.409	72.36
212.628	-32.08
212.846	55.98
213.065	66.22
213.283	43.69
213.502	-3.41
213.72	35.5
213.938	45.74
214.157	47.79
214.375	27.31
214.594	0.68
214.812	70.31
215.031	58.03
215.249	-30.04
215.467	90.79
215.686	15.02
215.904	72.36
216.122	55.98
216.341	72.36
216.559	29.35
216.778	68.27
216.996	60.07
217.214	43.69
217.432	21.16
217.651	-23.89
217.869	-56.66
218.087	47.79
218.306	-5.46
218.524	-7.51
218.742	68.27
218.96	109.22
219.179	-11.61
219.397	29.35
219.615	15.02
219.833	103.08
220.051	-25.94
220.27	4.78
220.488	6.83
220.706	43.69
220.924	60.07
221.142	0.68
221.36	21.16
221.578	49.83
221.796	-44.37
222.015	21.16
222.233	-50.52
222.451	2.73
222.669	68.27
222.887	33.45
223.105	29.35
223.323	-42.32
223.541	15.02
223.759	111.27
223.977	70.31
224.195	21.16
224.413	47.79
224.631	49.83
224.849	60.07
225.067	125.61
225.285	-1.37
225.503	17.07
225.721	37.55
225.939	55.98
226.157	94.89
226.375	70.31
226.592	8.87
226.81	43.69
227.028	105.13
227.246	105.13
227.464	6.83
227.682	60.07
227.9	47.79
228.117	121.51
228.335	8.87
228.553	10.92
228.771	58.03
228.989	39.59
229.206	27.31
229.424	121.51
229.642	6.83
229.86	51.88
230.077	88.75
230.295	51.88
230.513	6.83
230.731	25.26
230.948	35.5
231.166	15.02
231.384	31.4
231.601	82.6
231.819	37.55
232.037	47.79
232.254	31.4
232.472	64.17
232.689	51.88
232.907	58.03
233.125	82.6
233.342	58.03
233.56	47.79
233.777	37.55
233.995	6.83
234.213	43.69
234.43	70.31
234.648	31.4
234.865	-42.32
235.083	76.46
235.3	-25.94
235.518	45.74
235.735	103.08
235.953	47.79
236.17	6.83
236.388	43.69
236.605	12.97
236.822	53.93
237.04	53.93
237.257	62.12
237.475	49.83
237.692	88.75
237.909	47.79
238.127	45.74
238.344	55.98
238.562	27.31
238.779	-27.99
238.996	-23.89
239.214	10.92
239.431	41.64
239.648	31.4
239.865	23.21
240.083	92.84
240.3	0.68
240.517	-36.18
240.735	68.27
240.952	94.89
241.169	31.4
241.386	70.31
241.603	-9.56
241.821	58.03
242.038	68.27
242.255	51.88
242.472	-95.57
242.689	12.97
242.907	45.74
243.124	35.5
243.341	19.11
243.558	39.59
243.775	-68.95
243.992	17.07
244.209	62.12
244.426	-34.13
244.643	15.02
244.86	29.35
245.078	39.59
245.295	43.69
245.512	17.07
245.729	19.11
245.946	68.27
246.163	68.27
246.38	35.5
246.597	66.22
246.814	80.55
247.031	-23.89
247.248	4.78
247.464	70.31
247.681	137.9
247.898	78.51
248.115	51.88
248.332	2.73
248.549	72.36
248.766	4.78
248.983	53.93
249.2	135.85
249.417	55.98
249.633	37.55
249.85	64.17
250.067	72.36
250.284	96.94
250.501	47.79
250.717	88.75
250.934	49.83
251.151	35.5
251.368	6.83
251.585	80.55
251.801	37.55
252.018	82.6
252.235	17.07
252.451	-27.99
252.668	58.03
252.885	76.46
253.102	10.92
253.318	45.74
253.535	27.31
253.752	43.69
253.968	37.55
254.185	2.73
254.401	35.5
254.618	60.07
254.835	45.74
255.051	88.75
255.268	51.88
255.484	58.03
255.701	76.46
255.917	64.17
256.134	6.83
256.351	92.84
256.567	53.93
256.784	68.27
257	-38.23
257.217	55.98
257.433	43.69
257.65	39.59
257.866	88.75
258.082	6.83
258.299	-66.9
258.515	53.93
258.732	4.78
258.948	-32.08
259.165	15.02
259.381	25.26
259.597	0.68
259.814	45.74
260.03	10.92
260.246	23.21
260.463	76.46
260.679	53.93
260.895	15.02
261.112	51.88
261.328	-36.18
261.544	-5.46
261.761	33.45
261.977	33.45
262.193	41.64
262.409	41.64
262.626	135.85
262.842	47.79
263.058	49.83
263.274	47.79
263.49	23.21
263.707	90.79
263.923	39.59
264.139	76.46
264.355	98.99
264.571	84.65
264.787	23.21
265.004	23.21
265.22	96.94
265.436	4.78
265.652	17.07
265.868	55.98
266.084	-19.8
266.3	49.83
266.516	15.02
266.732	21.16
266.948	45.74
267.164	78.51
267.38	19.11
267.596	103.08
267.812	43.69
268.028	19.11
268.244	29.35
268.46	-9.56
268.676	68.27
268.892	35.5
269.108	39.59
269.324	33.45
269.54	-11.61
269.756	23.21
269.972	72.36
270.188	101.03
270.403	82.6
270.619	35.5
270.835	53.93
271.051	25.26
271.267	88.75
271.483	60.07
271.698	64.17
271.914	-3.41
272.13	74.41
272.346	105.13
272.562	47.79
272.777	12.97
272.993	10.92
273.209	55.98
273.425	35.5
273.64	27.31
273.856	78.51
274.072	94.89
274.287	37.55
274.503	98.99
274.719	64.17
274.934	55.98
275.15	15.02
275.366	41.64
275.581	64.17
275.797	53.93
276.012	-36.18
276.228	-30.04
276.444	53.93
276.659	82.6
276.875	121.51
277.09	-30.04
277.306	66.22
277.521	-27.99
277.737	2.73
277.952	103.08
278.168	43.69
278.383	47.79
278.599	25.26
278.814	15.02
279.03	19.11
279.245	121.51
279.461	55.98
279.676	80.55
279.892	39.59
280.107	-13.65
280.322	82.6
280.538	88.75
280.753	125.61
280.969	35.5
281.184	-23.89
281.399	-13.65
281.615	8.87
281.83	80.55
282.045	43.69
282.26	-25.94
282.476	72.36
282.691	113.32
282.906	35.5
283.122	154.28
283.337	123.56
283.552	119.46
283.767	37.55
283.983	43.69
284.198	33.45
284.413	-27.99
284.628	-34.13
284.843	70.31
285.058	15.02
285.274	17.07
285.489	60.07
285.704	58.03
285.919	-9.56
286.134	92.84
286.349	-5.46
286.564	-34.13
286.779	58.03
286.995	88.75
287.21	15.02
287.425	29.35
287.64	21.16
287.855	58.03
288.07	47.79
288.285	39.59
288.5	92.84
288.715	66.22
288.93	72.36
289.145	29.35
289.36	41.64
289.575	43.69
289.79	-44.37
290.004	66.22
290.219	45.74
290.434	62.12
290.649	60.07
290.864	31.4
291.079	58.03
291.294	37.55
291.509	60.07
291.724	37.55
291.938	17.07
292.153	70.31
292.368	23.21
292.583	86.7
292.798	72.36
293.012	39.59
293.227	64.17
293.442	17.07
293.657	80.55
293.871	66.22
294.086	35.5
294.301	98.99
294.516	29.35
294.73	6.83
294.945	19.11
295.16	37.55
295.374	47.79
295.589	41.64
295.804	49.83
296.018	-9.56
296.233	55.98
296.447	45.74
296.662	55.98
296.877	-30.04
297.091	76.46
297.306	33.45
297.52	12.97
297.735	213.67
297.949	64.17
298.164	78.51
298.378	109.22
298.593	66.22
298.807	-3.41
299.022	25.26
299.236	123.56
299.451	35.5
299.665	35.5
299.88	10.92
300.094	19.11
300.309	88.75
300.523	55.98
300.737	47.79
300.952	-58.71
301.166	60.07
301.381	29.35
301.595	-21.85
301.809	8.87
302.024	82.6
302.238	-34.13
302.452	27.31
302.667	-5.46
302.881	105.13
303.095	94.89
303.309	-23.89
303.524	86.7
303.738	-9.56
303.952	-25.94
304.166	23.21
304.381	-60.76
304.595	76.46
304.809	6.83
305.023	-3.41
305.237	68.27
305.452	76.46
305.666	2.73
305.88	96.94
306.094	55.98
306.308	121.51
306.522	60.07
306.736	74.41
306.95	6.83
307.164	82.6
307.379	72.36
307.593	35.5
307.807	82.6
308.021	27.31
308.235	41.64
308.449	78.51
308.663	35.5
308.877	27.31
309.091	47.79
309.305	82.6
309.519	33.45
309.733	70.31
309.947	64.17
310.161	88.75
310.374	-21.85
310.588	98.99
310.802	15.02
311.016	39.59
311.23	39.59
311.444	101.03
311.658	146.09
311.872	41.64
312.085	74.41
312.299	62.12
312.513	21.16
312.727	-5.46
312.941	29.35
313.154	86.7
313.368	35.5
313.582	37.55
313.796	72.36
314.009	82.6
314.223	17.07
314.437	117.42
314.651	-3.41
314.864	17.07
315.078	66.22
315.292	90.79
315.505	6.83
315.719	55.98
315.933	86.7
316.146	35.5
316.36	6.83
316.573	-5.46
316.787	113.32
317.001	103.08
317.214	58.03
317.428	55.98
317.641	12.97
317.855	82.6
318.068	19.11
318.282	12.97
318.495	105.13
318.709	64.17
318.922	129.7
319.136	68.27
319.349	88.75
319.563	111.27
319.776	51.88
319.99	123.56
320.203	64.17
320.417	72.36
320.63	62.12
320.843	39.59
321.057	64.17
321.27	64.17
321.483	49.83
321.697	146.09
321.91	-3.41
322.124	27.31
322.337	72.36
322.55	33.45
322.763	49.83
322.977	12.97
323.19	49.83
323.403	86.7
323.617	84.65
323.83	27.31
324.043	78.51
324.256	55.98
324.469	6.83
324.683	121.51
324.896	92.84
325.109	6.83
325.322	82.6
325.535	37.55
325.748	27.31
325.962	86.7
326.175	78.51
326.388	43.69
326.601	98.99
326.814	66.22
327.027	17.07
327.24	129.7
327.453	0.68
327.666	103.08
327.879	25.26
328.092	15.02
328.305	55.98
328.518	66.22
328.731	2.73
328.944	125.61
329.157	101.03
329.37	43.69
329.583	-17.75
329.796	94.89
330.009	27.31
330.222	49.83
330.435	82.6
330.648	17.07
330.861	47.79
331.073	33.45
331.286	27.31
331.499	53.93
331.712	90.79
331.925	64.17
332.138	49.83
332.35	27.31
332.563	19.11
332.776	47.79
332.989	74.41
333.202	64.17
333.414	47.79
333.627	-21.85
333.84	62.12
334.053	41.64
334.265	-21.85
334.478	58.03
334.691	90.79
334.903	25.26
335.116	27.31
335.329	62.12
335.541	43.69
335.754	70.31
335.966	-3.41
336.179	37.55
336.392	47.79
336.604	98.99
336.817	88.75
337.029	35.5
337.242	-1.37
337.454	39.59
337.667	131.75
337.88	39.59
338.092	33.45
338.305	41.64
338.517	39.59
338.729	82.6
338.942	-11.61
339.154	86.7
339.367	6.83
339.579	41.64
339.792	62.12
340.004	25.26
340.217	0.68
340.429	55.98
340.641	53.93
340.854	10.92
341.066	8.87
341.278	98.99
341.491	96.94
341.703	92.84
341.915	39.59
342.128	62.12
342.34	162.47
342.552	25.26
342.764	4.78
342.977	64.17
343.189	35.5
343.401	55.98
343.613	84.65
343.826	86.7
344.038	19.11
344.25	74.41
344.462	90.79
344.674	60.07
344.886	64.17
345.099	31.4
345.311	41.64
345.523	80.55
345.735	64.17
345.947	29.35
346.159	88.75
346.371	33.45
346.583	35.5
346.795	78.51
347.007	39.59
347.219	84.65
347.431	47.79
347.643	37.55
347.855	-13.65
348.067	125.61
348.279	-15.7
348.491	78.51
348.703	53.93
348.915	60.07
349.127	68.27
349.339	107.18
349.551	23.21
349.763	51.88
349.975	15.02
350.187	96.94
350.399	86.7
350.61	105.13
350.822	39.59
351.034	66.22
351.246	19.11
351.458	96.94
351.669	-1.37
351.881	168.62
352.093	23.21
352.305	8.87
352.517	43.69
352.728	64.17
352.94	60.07
353.152	39.59
353.363	2.73
353.575	43.69
353.787	68.27
353.999	35.5
354.21	33.45
354.422	41.64
354.633	39.59
354.845	6.83
355.057	2.73
355.268	62.12
355.48	58.03
355.692	41.64
355.903	6.83
356.115	19.11
356.326	68.27
356.538	76.46
356.749	19.11
356.961	45.74
357.172	39.59
357.384	-17.75
357.595	47.79
357.807	6.83
358.018	53.93
358.23	51.88
358.441	53.93
358.653	92.84
358.864	-11.61
359.075	60.07
359.287	129.7
359.498	53.93
359.709	21.16
359.921	-19.8
360.132	47.79
360.344	25.26
360.555	45.74
360.766	131.75
360.977	76.46
361.189	2.73
361.4	35.5
361.611	82.6
361.823	33.45
362.034	72.36
362.245	-19.8
362.456	119.46
362.667	58.03
362.879	76.46
363.09	137.9
363.301	2.73
363.512	45.74
363.723	92.84
363.935	64.17
364.146	23.21
364.357	68.27
364.568	49.83
364.779	31.4
364.99	51.88
365.201	96.94
365.412	68.27
365.623	82.6
365.834	47.79
366.045	23.21
366.256	45.74
366.467	39.59
366.678	41.64
366.889	103.08
367.1	70.31
367.311	19.11
367.522	39.59
367.733	29.35
367.944	8.87
368.155	-17.75
368.366	127.66
368.577	64.17
368.788	82.6
368.999	90.79
369.209	101.03
369.42	66.22
369.631	119.46
369.842	96.94
370.053	39.59
370.264	72.36
370.474	29.35
370.685	82.6
370.896	58.03
371.107	45.74
371.317	29.35
371.528	39.59
371.739	76.46
371.95	21.16
372.16	92.84
372.371	-13.65
372.582	37.55
372.792	2.73
373.003	84.65
373.214	109.22
373.424	39.59
373.635	105.13
373.846	35.5
374.056	55.98
374.267	47.79
374.477	92.84
374.688	33.45
374.898	117.42
375.109	29.35
375.319	109.22
375.53	156.33
375.74	58.03
375.951	25.26
376.161	35.5
376.372	37.55
376.582	66.22
376.793	17.07
377.003	60.07
377.214	88.75
377.424	103.08
377.635	117.42
377.845	45.74
378.055	109.22
378.266	68.27
378.476	55.98
378.686	109.22
378.897	27.31
379.107	86.7
379.317	51.88
379.528	39.59
379.738	64.17
379.948	76.46
380.158	12.97
380.369	125.61
380.579	98.99
380.789	47.79
380.999	82.6
381.21	125.61
381.42	96.94
381.63	12.97
381.84	84.65
382.05	47.79
382.261	72.36
382.471	78.51
382.681	76.46
382.891	141.99
383.101	101.03
383.311	12.97
383.521	92.84
383.731	66.22
383.941	103.08
384.151	80.55
384.361	60.07
384.571	-5.46
384.781	170.66
384.991	45.74
385.201	96.94
385.411	90.79
385.621	49.83
385.831	4.78
386.041	21.16
386.251	62.12
386.461	103.08
386.671	64.17
386.881	17.07
387.091	119.46
387.301	94.89
387.511	80.55
387.72	55.98
387.93	84.65
388.14	68.27
388.35	105.13
388.56	64.17
388.769	45.74
388.979	141.99
389.189	60.07
389.399	70.31
389.609	76.46
389.818	90.79
390.028	101.03
390.238	39.59
390.447	49.83
390.657	-1.37
390.867	27.31
391.076	98.99
391.286	45.74
391.496	111.27
391.705	17.07
391.915	164.52
392.125	137.9
392.334	121.51
392.544	76.46
392.753	98.99
392.963	96.94
393.172	115.37
393.382	125.61
393.591	98.99
393.801	90.79
394.01	80.55
394.22	60.07
394.429	117.42
394.639	164.52
394.848	109.22
395.058	55.98
395.267	105.13
395.477	88.75
395.686	31.4
395.895	74.41
396.105	105.13
396.314	111.27
396.524	123.56
396.733	127.66
396.942	41.64
397.152	82.6
397.361	70.31
397.57	92.84
397.78	150.18
397.989	94.89
398.198	152.23
398.407	96.94
398.617	162.47
398.826	150.18
399.035	113.32
399.244	105.13
399.453	55.98
399.663	96.94
399.872	78.51
400.081	137.9
400.29	94.89
400.499	68.27
400.708	135.85
400.917	125.61
401.127	180.9
401.336	131.75
401.545	152.23
401.754	125.61
401.963	150.18
402.172	125.61
402.381	111.27
402.59	195.24
402.799	131.75
403.008	127.66
403.217	176.81
403.426	170.66
403.635	111.27
403.844	135.85
404.053	133.8
404.262	146.09
404.471	234.15
404.68	268.97
404.888	228.01
405.097	92.84
405.306	182.95
405.515	250.53
405.724	189.1
405.933	211.62
406.142	244.39
406.35	152.23
406.559	209.58
406.768	230.06
406.977	260.77
407.185	281.25
407.394	162.47
407.603	273.06
407.812	228.01
408.02	240.29
408.229	311.97
408.438	273.06
408.646	287.4
408.855	285.35
409.064	305.83
409.272	297.64
409.481	318.12
409.69	287.4
409.898	326.31
410.107	365.22
410.315	371.36
410.524	385.7
410.733	379.56
410.941	441
411.15	363.17
411.358	467.62
411.567	410.28
411.775	422.56
411.984	432.8
412.192	465.57
412.401	559.78
412.609	510.63
412.818	641.7
413.026	555.68
413.234	594.59
413.443	596.64
413.651	707.23
413.86	623.27
414.068	719.52
414.276	737.95
414.485	699.04
414.693	740
414.901	797.34
415.11	860.83
415.318	899.74
415.526	866.97
415.734	858.78
415.943	959.13
416.151	963.23
416.359	981.66
416.567	955.04
416.776	1069.72
416.984	1116.83
417.192	1129.11
417.4	1196.7
417.608	1186.46
417.817	1137.31
418.025	1260.18
418.233	1368.73
418.441	1317.53
418.649	1495.7
418.857	1391.25
419.065	1557.14
419.273	1542.8
419.481	1667.73
419.689	1704.59
419.897	1637.01
420.105	1733.26
420.313	1813.13
420.521	1845.9
420.729	1944.2
420.937	1958.54
421.145	2054.8
421.353	2161.29
421.561	2341.51
421.769	2327.18
421.977	2441.86
422.185	2488.96
422.393	2491.01
422.601	2749.06
422.809	2577.03
423.017	2677.38
423.224	2833.02
423.432	2955.9
423.64	2978.43
423.848	3160.7
424.056	3156.6
424.263	3246.71
424.471	3326.58
424.679	3349.11
424.887	3609.2
425.094	3691.12
425.302	3711.6
425.51	3916.4
425.718	3914.35
425.925	4156.01
426.133	4203.11
426.341	4461.16
426.548	4516.45
426.756	4643.43
426.964	4606.56
427.171	4938.34
427.379	5106.27
427.586	5042.78
427.794	5225.05
428.001	5415.51
428.209	5718.61
428.417	5814.87
428.624	6003.28
428.832	6126.16
429.039	6072.91
429.247	6003.28
429.454	6662.72
429.662	7131.71
429.869	6562.37
430.076	7041.6
430.284	6758.98
430.491	7105.09
430.699	7539.26
430.906	7617.08
431.114	7440.95
431.321	8098.35
431.528	8112.69
431.736	8524.33
431.943	8903.2
432.15	8688.17
432.358	8923.68
432.565	9284.12
432.772	9499.16
432.979	9767.45
433.187	10064.4
433.394	10121.74
433.601	10598.92
433.808	10766.85
434.016	10676.74
434.223	11069.95
434.43	11450.88
434.637	11547.13
434.844	12073.46
435.052	12708.33
435.259	12495.34
435.466	12569.07
435.673	12288.5
435.88	13279.71
436.087	13828.57
436.294	13869.53
436.501	13527.52
436.708	14016.98
436.915	14520.78
437.122	14916.04
437.329	15063.49
437.537	15595.96
437.743	15731.13
437.95	15464.89
438.157	16165.3
438.364	16837.03
438.571	16845.23
438.778	17058.21
438.985	18545.04
439.192	18094.49
439.399	18364.82
439.606	17979.8
439.813	18936.2
440.02	20244.85
440.227	19767.68
440.433	19548.54
440.64	20482.42
440.847	20199.8
441.054	20605.3
441.261	21872.99
441.467	21854.56
441.674	22348.12
441.881	23218.5
442.088	23003.47
442.294	22452.56
442.501	23429.45
442.708	23896.38
442.914	24607.03
443.121	26149.15
443.328	25164.07
443.534	26784.02
443.741	26065.18
443.948	25680.16
444.154	27681.03
444.361	27537.67
444.568	27502.85
444.774	27982.08
444.981	28170.49
445.187	29034.74
445.394	30494.94
445.6	29669.61
445.807	32497.85
446.013	30984.4
446.22	31793.35
446.426	33116.34
446.633	33460.4
446.839	34627.74
447.046	33212.59
447.252	34513.05
447.459	35035.28
447.665	34887.83
447.871	36524.16
448.078	37595.25
448.284	35993.73
448.491	36993.14
448.697	38846.55
448.903	39028.82
449.11	39176.28
449.316	38660.19
449.522	39403.6
449.728	40046.66
449.935	40673.34
450.141	40468.55
450.347	41564.21
450.553	40218.69
450.76	40747.07
450.966	42237.99
451.172	42047.53
451.378	42819.61
451.584	41869.36
451.791	43116.57
451.997	42782.75
452.203	43290.65
452.409	43214.87
452.615	43331.61
452.821	41580.59
453.027	41545.78
453.233	43358.23
453.44	41709.61
453.646	42465.31
453.852	42471.46
454.058	43057.18
454.264	41678.89
454.47	42799.13
454.676	41699.37
454.882	42856.48
455.088	39577.68
455.294	39835.72
455.5	40407.11
455.705	40968.25
455.911	39247.96
456.117	38414.43
456.323	38289.51
456.529	36079.75
456.735	37793.9
456.941	36878.46
457.147	35852.42
457.352	35119.25
457.558	34984.08
457.764	34564.25
457.97	34021.54
458.176	33290.41
458.381	33349.81
458.587	31578.31
458.793	31463.63
458.999	30447.83
459.204	32469.18
459.41	31176.91
459.616	29556.97
459.821	29413.61
460.027	29384.94
460.233	28520.7
460.438	27105.55
460.644	27683.08
460.85	26276.12
461.055	25987.36
461.261	25985.31
461.466	23777.6
461.672	23146.83
461.878	24772.91
462.083	23482.69
462.289	22813.01
462.494	22800.72
462.7	21600.61
462.905	20664.69
463.111	21805.41
463.316	21715.3
463.522	21449.06
463.727	21188.97
463.932	21322.09
464.138	20928.88
464.343	21076.33
464.549	20285.81
464.754	21186.92
464.959	20947.31
465.165	20846.96
465.37	20199.8
465.575	19644.8
465.781	20386.16
465.986	20236.66
466.191	19618.18
466.397	19145.09
466.602	18336.15
466.807	18925.96
467.012	19151.24
467.218	18893.19
467.423	18581.9
467.628	18702.73
467.833	19427.71
468.038	18768.27
468.244	18485.65
468.449	19222.92
468.654	18366.87
468.859	18340.24
469.064	18348.43
469.269	17344.93
469.474	17437.09
469.679	17912.22
469.885	17510.82
470.09	17537.44
470.295	17830.3
470.5	17119.65
470.705	17492.38
470.91	16853.42
471.115	16486.83
471.32	17037.73
471.525	16843.18
471.73	16558.51
471.935	16394.67
472.139	15794.62
472.344	16204.21
472.549	15866.3
472.754	15849.91
472.959	15364.54
473.164	14946.76
473.369	14805.45
473.574	15499.71
473.778	15319.49
473.983	15180.23
474.188	15143.36
474.393	14348.75
474.598	14373.33
474.802	14356.94
475.007	14326.22
475.212	14293.46
475.417	13818.33
475.621	13740.5
475.826	13808.09
476.031	13548
476.235	13322.72
476.44	13439.45
476.645	12941.8
476.849	13267.42
477.054	13132.26
477.259	12812.78
477.463	12837.35
477.668	12593.64
477.872	12603.88
478.077	12489.2
478.282	12116.47
478.486	12282.35
478.691	11917.81
478.895	11979.25
479.1	11905.52
479.304	11899.38
479.509	11688.44
479.713	11842.04
479.918	11483.64
480.122	11362.81
480.326	11463.16
480.531	11434.49
480.735	11407.87
480.94	11317.76
481.144	11524.6
481.348	11231.74
481.553	11143.68
481.757	10951.17
481.961	11334.14
482.166	11348.48
482.37	11207.17
482.574	11014.66
482.778	10783.24
482.983	11246.08
483.187	11305.47
483.391	11072
483.595	11047.43
483.8	10928.64
484.004	11098.63
484.208	11061.76
484.412	11147.78
484.616	11049.47
484.821	11037.19
485.025	11024.9
485.229	11203.07
485.433	11004.42
485.637	11198.98
485.841	10988.03
486.045	10969.6
486.249	10949.12
486.453	10861.06
486.657	11067.91
486.861	11176.45
487.065	10963.46
487.269	10826.25
487.473	10902.02
487.677	11065.86
487.881	11133.44
488.085	11018.75
488.289	10996.23
488.493	10953.22
488.697	11293.18
488.901	11098.63
489.105	11053.57
489.309	11145.73
489.512	11151.87
489.716	11354.62
489.92	11139.58
490.124	11041.28
490.328	11364.86
490.531	11170.3
490.735	11338.24
490.939	11375.1
491.143	11420.16
491.346	11405.82
491.55	11573.75
491.754	11389.44
491.958	11596.28
492.161	11540.99
492.365	11653.62
492.569	11565.56
492.772	11467.26
492.976	11713.02
493.18	11811.32
493.383	12014.07
493.587	12067.31
493.79	12222.96
493.994	11973.11
494.197	12147.19
494.401	12409.33
494.605	12440.04
494.808	12347.89
495.012	12550.64
495.215	12655.08
495.419	12745.19
495.622	12548.59
495.825	12810.73
496.029	12786.15
496.232	13363.68
496.436	13025.76
496.639	13474.27
496.843	13281.76
497.046	13691.35
497.249	13607.39
497.453	13773.27
497.656	13912.53
497.859	14008.79
498.063	14248.4
498.266	14526.92
498.469	14328.27
498.673	14549.45
498.876	14598.6
499.079	14899.66
499.282	14938.57
499.485	15282.63
499.689	15393.22
499.892	15616.44
500.095	15573.44
500.298	16050.61
500.501	15743.42
500.705	16423.34
500.908	16325.04
501.111	16628.14
501.314	16781.74
501.517	16974.25
501.72	16873.9
501.923	17019.3
502.126	17369.51
502.329	17600.93
502.532	17795.48
502.735	17897.88
502.938	18233.75
503.141	18379.15
503.344	18598.29
503.547	18438.55
503.75	18874.76
503.953	19022.22
504.156	19138.95
504.359	19634.56
504.562	19825.02
504.765	20253.05
504.968	20205.94
505.17	20500.85
505.373	20429.17
505.576	20502.9
505.779	21061.99
505.982	21174.63
506.185	21664.1
506.387	21365.09
506.59	21967.2
506.793	22331.73
506.996	22303.06
507.198	22923.6
507.401	22638.93
507.604	22923.6
507.807	23523.65
508.009	23890.24
508.212	23753.02
508.415	24099.13
508.617	24226.1
508.82	24308.02
509.022	24504.63
509.225	24707.38
509.428	25211.18
509.63	25155.88
509.833	25192.75
510.035	26044.7
510.238	26116.38
510.44	26153.24
510.643	26538.26
510.845	26607.89
511.048	26573.08
511.25	27244.81
511.453	27074.83
511.655	28193.02
511.858	27793.67
512.06	27955.46
512.262	28457.21
512.465	28289.27
512.667	28807.41
512.87	29104.37
513.072	29235.44
513.274	29694.18
513.477	29642.98
513.679	30169.31
513.881	30544.09
514.084	30601.43
514.286	30605.53
514.488	31277.26
514.69	32061.63
514.893	31822.02
515.095	31932.61
515.297	32323.77
515.499	32211.14
515.701	32893.11
515.904	33044.66
516.106	33179.82
516.308	33468.59
516.51	33804.45
516.712	34050.21
516.914	34252.96
517.116	34973.85
517.318	34928.79
517.52	34881.69
517.722	34945.17
517.925	35709.07
518.127	35594.38
518.329	36257.92
518.531	36098.18
518.733	36976.76
518.935	36872.31
519.136	37070.97
519.338	37263.47
519.54	37675.12
519.742	38043.75
519.944	37652.59
520.146	38682.72
520.348	38897.75
520.55	38879.32
520.752	39123.03
520.954	39526.48
521.155	39569.49
521.357	40048.71
521.559	40288.32
521.761	40620.09
521.963	40636.48
522.164	40831.04
522.366	41121.85
522.568	41283.64
522.77	41738.29
522.971	42457.12
523.173	41740.33
523.375	42184.74
523.576	42133.54
523.778	42174.5
523.98	42823.71
524.181	43286.55
524.383	42692.64
524.584	43307.03
524.786	43526.16
524.988	43456.53
525.189	43757.58
525.391	43970.57
525.592	44085.26
525.794	44142.6
525.995	44328.97
526.197	44050.44
526.398	44572.67
526.6	44660.74
526.801	45215.74
527.003	45111.29
527.204	45017.08
527.406	45697.01
527.607	45561.84
527.808	45873.13
528.01	45144.06
528.211	45377.53
528.412	46561.25
528.614	45979.63
528.815	46106.6
529.016	46315.5
529.218	46256.1
529.419	46278.63
529.62	46194.67
529.822	46444.52
530.023	46393.32
530.224	46419.94
530.425	46383.08
530.626	46256.1
530.828	46069.74
531.029	46733.28
531.23	46587.88
531.431	47005.66
531.632	46841.82
531.833	47013.85
532.035	47146.97
532.236	46874.59
532.437	47052.76
532.638	47013.85
532.839	47312.86
533.04	47331.29
533.241	47007.71
533.442	47509.46
533.643	47017.95
533.844	46696.42
534.045	47429.59
534.246	46923.74
534.447	47562.71
534.648	47159.26
534.849	47603.67
535.05	47339.48
535.251	47282.14
535.451	47067.1
535.652	46954.46
535.853	47247.32
536.054	47554.52
536.255	46991.33
536.456	46872.54
536.657	47699.92
536.857	47198.17
537.058	47321.05
537.259	47472.6
537.46	47701.97
537.66	47345.62
537.861	47335.38
538.062	47198.17
538.263	47579.09
538.463	46946.27
538.664	47296.47
538.865	47558.61
539.065	47300.57
539.266	47185.88
539.466	47314.9
539.667	46641.12
539.868	47443.93
540.068	46878.69
540.269	47075.29
540.469	47112.16
540.67	47005.66
540.87	46780.38
541.071	46997.47
541.271	47349.72
541.472	46890.98
541.672	47075.29
541.873	47071.2
542.073	46370.79
542.274	47400.92
542.474	46913.5
542.675	46454.76
542.875	47376.34
543.075	46821.34
543.276	46661.6
543.476	47491.03
543.676	46581.73
543.877	47054.81
544.077	46923.74
544.277	46911.45
544.478	47005.66
544.678	46778.34
544.878	46692.32
545.078	46714.85
545.279	46551.01
545.479	46733.28
545.679	46645.22
545.879	46612.45
546.079	46770.14
546.28	46626.79
546.48	46641.12
546.68	46884.83
546.88	46931.93
547.08	47032.29
547.28	46653.41
547.48	46082.03
547.68	46772.19
547.88	46469.09
548.081	46489.57
548.281	46561.25
548.481	46358.5
548.681	46620.64
548.881	46669.79
549.081	46436.33
549.28	46295.02
549.48	46915.55
549.68	45959.15
549.88	46989.28
550.08	46407.65
550.28	46505.96
550.48	46421.99
550.68	46444.52
550.88	45813.74
551.08	46194.67
551.279	46340.07
551.479	46071.79
551.679	45993.96
551.879	45963.25
552.079	46598.12
552.278	46084.08
552.478	46063.6
552.678	45852.65
552.878	46403.56
553.077	46452.71
553.277	45785.07
553.477	46557.16
553.676	45535.22
553.876	45912.05
554.076	45926.38
554.275	45901.81
554.475	45580.28
554.674	46098.41
554.874	45948.91
555.074	45715.44
555.273	46041.07
555.473	46196.71
555.672	45596.66
555.872	45455.35
556.071	45494.26
556.271	46157.8
556.47	45154.3
556.67	44996.6
556.869	45926.38
557.068	45844.46
557.268	45246.46
557.467	45350.9
557.667	45252.6
557.866	45379.57
558.065	45096.95
558.265	44824.57
558.464	44859.39
558.663	45469.68
558.863	44818.43
559.062	44849.15
559.261	44724.22
559.461	45484.02
559.66	44615.68
559.859	44474.37
560.058	44599.3
560.258	44736.51
560.457	44492.8
560.656	45152.25
560.855	44126.22
561.054	44879.87
561.253	44474.37
561.453	44720.13
561.652	43978.76
561.851	44572.67
562.05	44455.94
562.249	43841.55
562.448	44560.39
562.647	44423.17
562.846	44163.08
563.045	44251.14
563.244	43669.52
563.443	43989
563.642	43776.01
563.841	43829.26
564.04	43520.02
564.239	44257.29
564.438	43405.33
564.637	43745.3
564.836	43849.74
565.035	43280.41
565.234	43702.29
565.432	43360.28
565.631	43071.51
565.83	43425.81
566.029	43098.14
566.228	43110.42
566.427	42907.68
566.625	42616.86
566.824	42692.64
567.023	42881.05
567.222	42227.75
567.42	43143.19
567.619	42383.4
567.818	42209.32
568.016	42403.88
568.215	42909.72
568.414	42553.38
568.612	42981.4
568.811	42553.38
569.01	42733.6
569.208	41836.59
569.407	42362.92
569.605	41625.65
569.804	42352.68
570.002	41756.72
570.201	42119.21
570.4	41756.72
570.598	41609.26
570.797	41766.96
570.995	41623.6
571.193	40912.95
571.392	41472.05
571.59	41099.32
571.789	41521.2
571.987	41347.12
572.186	41345.08
572.384	40978.49
572.582	41209.91
572.781	40484.93
572.979	40652.86
573.177	40456.26
573.376	41019.45
573.574	40466.5
573.772	40718.4
573.971	40259.65
574.169	40411.2
574.367	40327.24
574.565	40816.7
574.763	40431.68
574.962	39946.31
575.16	39843.91
575.358	40165.45
575.556	39354.45
575.754	40357.95
575.952	39288.92
576.151	39778.38
576.349	39094.36
576.547	39082.07
576.745	39430.22
576.943	39268.44
577.141	39221.33
577.339	39604.3
577.537	39016.54
577.735	39016.54
577.933	38918.23
578.131	38672.48
578.329	38637.66
578.527	38479.97
578.725	38846.55
578.923	38449.25
579.121	38217.83
579.319	38350.95
579.516	38467.68
579.714	38508.64
579.912	38174.82
580.11	37752.94
580.308	38162.53
580.506	37986.41
580.704	37472.37
580.901	37806.19
581.099	38195.3
581.297	37228.66
581.495	37474.41
581.692	37830.76
581.89	36995.19
582.088	37654.64
582.285	37085.3
582.483	37197.94
582.681	36886.65
582.878	37226.61
583.076	36698.23
583.274	36864.12
583.471	36257.92
583.669	36542.59
583.866	36501.63
584.064	36530.3
584.262	36216.96
584.459	36350.08
584.657	35977.35
584.854	36415.61
585.052	35342.48
585.249	36003.97
585.447	35737.74
585.644	35448.97
585.841	35790.98
586.039	35870.86
586.236	35137.68
586.434	35383.44
586.631	35248.27
586.828	35291.28
587.026	35168.4
587.223	34930.84
587.42	35143.83
587.618	35199.12
587.815	34353.31
588.012	34285.73
588.21	34539.68
588.407	34556.06
588.604	34205.86
588.801	34033.83
588.999	34091.17
589.196	34093.22
589.393	34316.45
589.59	34003.11
589.787	33626.28
589.984	33341.61
590.182	33296.56
590.379	33628.33
590.576	33390.77
590.773	33839.27
590.97	33376.43
591.167	33355.95
591.364	32876.72
591.561	32647.35
591.758	32997.56
591.955	33024.18
592.152	33081.52
592.349	32882.87
592.546	32950.45
592.743	32780.47
592.94	31940.8
593.137	32620.73
593.334	32555.19
593.531	32098.5
593.727	32426.17
593.924	32278.72
594.121	31854.79
594.318	32069.83
594.515	31551.69
594.712	32241.85
594.908	31441.1
595.105	31389.9
595.302	31391.95
595.499	31471.82
595.696	31457.48
595.892	31072.46
596.089	31201.49
596.286	31361.23
596.482	31068.37
596.679	30935.25
596.876	30795.99
597.072	30628.06
597.269	30800.08
597.466	30562.52
597.662	30337.24
597.859	30388.44
598.055	30542.04
598.252	29855.97
598.448	30259.42
598.645	30118.11
598.841	30042.34
599.038	29819.11
599.234	29683.94
599.431	29403.37
599.627	29683.94
599.824	29997.28
600.02	29055.22
600.217	29397.23
600.413	28995.82
600.609	28983.54
600.806	28881.14
601.002	28952.82
601.198	28754.16
601.395	28338.43
601.591	28580.09
601.787	28547.32
601.984	28619
602.18	28528.89
602.376	28053.76
602.572	28246.27
602.769	28074.24
602.965	28018.94
603.161	28020.99
603.357	27920.64
603.553	27842.82
603.75	27949.31
603.946	27558.15
604.142	27713.8
604.338	27195.66
604.534	27328.78
604.73	26994.96
604.926	27234.57
605.122	27429.13
605.318	27095.31
605.514	27162.89
605.71	26919.18
605.906	26765.59
606.102	26620.18
606.298	26687.76
606.494	26583.32
606.69	26605.84
606.886	26933.52
607.082	26405.14
607.278	26814.74
607.474	26331.42
607.67	26624.28
607.866	25788.71
608.062	26259.74
608.257	25989.41
608.453	26372.38
608.649	26149.15
608.845	26159.39
609.041	25925.92
609.236	26126.62
609.432	26179.87
609.628	25354.54
609.824	25721.12
610.019	25665.83
610.215	25655.59
610.411	25901.34
610.606	25409.83
610.802	25420.07
610.998	25506.09
611.193	25420.07
611.389	25366.82
611.584	25452.84
611.78	25250.09
611.976	25059.63
612.171	25295.14
612.367	25311.53
612.562	24955.18
612.758	25057.58
612.953	24441.14
613.149	25188.65
613.344	24781.1
613.539	25151.79
613.735	24871.22
613.93	25024.81
614.126	24746.29
614.321	24926.51
614.517	24639.79
614.712	24502.58
614.907	24561.97
615.103	24555.83
615.298	24291.64
615.493	24414.52
615.688	24318.26
615.884	24813.87
616.079	24021.31
616.274	24273.21
616.47	24338.74
616.665	23707.97
616.86	24119.61
617.055	24035.64
617.25	23841.09
617.445	24224.06
617.641	24015.16
617.836	23777.6
618.031	23408.97
618.226	23673.15
618.421	23464.26
618.616	23808.32
618.811	23431.49
619.006	23744.83
619.201	23351.62
619.396	23152.97
619.591	22892.88
619.786	23218.5
619.981	22651.22
620.176	22972.75
620.371	22690.13
620.566	22905.17
620.761	22681.94
620.956	22714.7
621.151	22196.57
621.346	22567.25
621.541	22337.88
621.735	22378.84
621.93	21952.86
622.125	22143.32
622.32	21373.28
622.515	21784.93
622.709	21555.55
622.904	21641.57
623.099	21289.32
623.294	21401.96
623.488	20920.68
623.683	21182.82
623.878	20666.74
624.072	21023.08
624.267	20783.47
624.462	21078.38
624.656	20490.61
624.851	20351.35
625.046	20253.05
625.24	20412.79
625.435	20216.18
625.629	20115.83
625.824	19726.72
626.018	19954.04
626.213	19616.13
626.407	19685.76
626.602	19138.95
626.796	19415.43
626.991	19493.25
627.185	19065.22
627.38	19126.66
627.574	18712.97
627.768	18860.43
627.963	18776.46
628.157	18643.34
628.352	18624.91
628.546	18325.91
628.74	18655.63
628.935	18440.59
629.129	18303.38
629.323	18074.01
629.517	18100.63
629.712	17729.95
629.906	17641.89
630.1	17662.37
630.294	17729.95
630.489	17588.64
630.683	17408.42
630.877	17455.52
631.071	17238.44
631.265	17404.32
631.459	17090.98
631.653	17117.61
631.848	17015.21
632.042	16826.79
632.236	16708.01
632.43	16638.38
632.624	16535.98
632.818	16431.54
633.012	16075.19
633.206	16298.42
633.4	16386.48
633.594	15993.27
633.788	16073.14
633.982	15827.39
634.176	15929.78
634.369	15550.91
634.563	15735.23
634.757	15598.01
634.951	15598.01
635.145	15536.57
635.339	15651.26
635.533	15194.56
635.726	15378.88
635.92	14895.56
636.114	15172.04
636.308	14944.71
636.501	15104.45
636.695	15034.82
636.889	14840.26
637.083	14850.5
637.276	14809.54
637.47	14526.92
637.664	14418.38
637.857	14449.1
638.051	14291.41
638.244	14221.78
638.438	14234.07
638.632	14283.22
638.825	14023.12
639.019	13996.5
639.212	13842.9
639.406	13793.75
639.599	13681.11
639.793	13552.09
639.986	13550.04
640.18	13437.41
640.373	13529.56
640.567	13416.93
640.76	13457.89
640.954	13267.42
641.147	13384.16
641.34	13023.72
641.534	13296.1
641.727	13171.17
641.92	12802.54
642.114	12933.61
642.307	12769.77
642.5	12634.6
642.694	12444.14
642.887	12478.96
643.08	12644.84
643.273	12431.85
643.467	12384.75
643.66	12184.05
643.853	12155.38
644.046	12028.4
644.239	12194.29
644.432	12196.34
644.626	11872.76
644.819	11913.72
645.012	11926
645.205	11790.84
645.398	11880.95
645.591	11639.29
645.784	11463.16
645.977	11551.23
646.17	11561.47
646.363	11502.08
646.556	11198.98
646.749	11264.51
646.942	11465.21
647.135	11170.3
647.328	11332.09
647.521	11162.11
647.714	11020.8
647.907	10998.27
648.099	11000.32
648.292	10906.12
648.485	10942.98
648.678	10576.39
648.871	10717.7
649.064	10562.06
649.256	10787.33
649.449	10641.93
649.642	10361.36
649.835	10390.03
650.027	10406.41
650.22	10271.25
650.413	10308.11
650.605	10183.18
650.798	10291.73
650.991	9843.22
651.183	9998.87
651.376	9619.99
651.568	9925.14
651.761	9785.88
651.954	9839.12
652.146	9888.28
652.339	9730.58
652.531	9693.72
652.724	9468.44
652.916	9351.71
653.109	9570.84
653.301	9415.19
653.494	9482.78
653.686	9200.16
653.879	9417.24
654.071	9318.94
654.263	9036.32
654.456	9275.93
654.648	9148.96
654.84	9032.22
655.033	8866.34
655.225	8915.49
655.417	8931.87
655.61	8798.76
655.802	8890.91
655.994	8706.6
656.186	8686.12
656.379	8735.27
656.571	8806.95
656.763	8653.35
656.955	8649.25
657.148	8616.49
657.34	8399.4
657.532	8395.31
657.724	8198.7
657.916	8444.46
658.108	8129.07
658.3	8303.15
658.492	8129.07
658.684	8092.21
658.876	8045.1
659.068	8153.65
659.26	8051.25
659.452	7985.71
659.644	8069.68
659.836	7733.81
660.028	7883.31
660.22	7772.72
660.412	7854.64
660.604	7678.52
660.796	7576.12
660.988	7541.3
661.18	7510.58
661.372	7559.74
661.563	7459.38
661.755	7526.97
661.947	7389.75
662.139	7361.08
662.331	7275.07
662.522	7356.99
662.714	7309.88
662.906	7047.74
663.097	7141.95
663.289	7070.27
663.481	7010.88
663.673	6957.63
663.864	6935.1
664.056	6947.39
664.247	7025.22
664.439	6789.7
664.631	6937.15
664.822	6828.61
665.014	6736.45
665.205	6746.69
665.397	6656.58
665.588	6771.27
665.78	6648.39
665.971	6683.2
666.163	6613.57
666.354	6519.37
666.546	6521.42
666.737	6488.65
666.929	6322.76
667.12	6296.14
667.311	6308.43
667.503	6314.57
667.694	6347.34
667.885	6343.24
668.077	6197.84
668.268	6228.56
668.459	6193.74
668.651	6236.75
668.842	6036.05
669.033	5925.46
669.224	6023.76
669.416	6025.81
669.607	6070.86
669.798	5970.51
669.989	5945.94
670.18	5888.59
670.371	5866.07
670.563	6015.57
670.754	5851.73
670.945	5677.65
671.136	5689.94
671.327	5718.61
671.518	5569.11
671.709	5710.42
671.9	5802.58
672.091	5800.53
672.282	5503.57
672.473	5515.86
672.664	5648.98
672.855	5554.77
673.046	5433.94
673.237	5567.06
673.428	5485.14
673.619	5511.77
673.809	5411.42
674	5519.96
674.191	5548.63
674.382	5286.49
674.573	5395.03
674.764	5276.25
674.954	5313.11
675.145	5257.82
675.336	5089.89
675.527	5218.91
675.717	5182.04
675.908	5270.11
676.099	5255.77
676.289	5321.31
676.48	4993.63
676.671	5223
676.861	5192.28
677.052	5155.42
677.243	5034.59
677.433	5087.84
677.624	5077.6
677.814	5053.02
678.005	5044.83
678.195	5040.73
678.386	5020.25
678.576	5024.35
678.767	4979.29
678.957	4926.05
679.148	4993.63
679.338	4938.34
679.529	5048.93
679.719	4887.14
679.909	4995.68
680.1	4833.89
680.29	4870.75
680.481	4704.87
680.671	4938.34
680.861	4663.91
681.052	4768.35
681.242	4764.26
681.432	4788.83
681.622	4668
681.813	4641.38
682.003	4661.86
682.193	4745.83
682.383	4721.25
682.573	4790.88
682.764	4571.75
682.954	4735.59
683.144	4715.11
683.334	4620.9
683.524	4610.66
683.714	4557.41
683.904	4561.51
684.094	4532.84
684.284	4704.87
684.474	4512.36
684.664	4498.02
684.854	4498.02
685.044	4541.03
685.234	4340.33
685.424	4600.42
685.614	4520.55
685.804	4371.05
685.994	4342.38
686.184	4403.82
686.374	4418.15
686.564	4383.34
686.753	4342.38
686.943	4321.9
687.133	4371.05
687.323	4391.53
687.513	4239.98
687.702	4076.14
687.892	4213.35
688.082	4110.96
688.272	4176.49
688.461	4164.2
688.651	4139.63
688.841	4174.44
689.03	4065.9
689.22	4151.92
689.41	4045.42
689.599	4078.19
689.789	3920.49
689.979	3936.88
690.168	4020.85
690.358	3971.69
690.547	3959.41
690.737	3961.45
690.926	3879.54
691.116	3863.15
691.305	3891.82
691.495	3857.01
691.684	3799.66
691.874	3707.51
692.063	3734.13
692.252	3881.58
692.442	3859.06
692.631	3840.62
692.82	3611.25
693.01	3709.55
693.199	3676.79
693.388	3639.92
693.578	3648.11
693.767	3512.95
693.956	3467.89
694.146	3664.5
694.335	3533.43
694.524	3443.32
694.713	3478.13
694.902	3496.57
695.092	3547.76
695.281	3388.02
695.47	3406.45
695.659	3469.94
695.848	3400.31
696.037	3459.7
696.226	3316.34
696.415	3265.14
696.604	3396.21
696.793	3224.19
696.982	3234.43
697.171	3304.06
697.36	3347.06
697.549	3271.29
697.738	3256.95
697.927	3222.14
698.116	3154.55
698.305	3181.18
698.494	3183.23
698.683	3160.7
698.872	3132.03
699.061	3152.51
699.25	3138.17
699.438	3064.44
699.627	3205.75
699.816	3060.35
700.005	3111.55
700.193	3103.36
700.382	3142.27
700.571	2935.42
700.76	3066.49
700.948	2960
701.137	2935.42
701.326	2984.57
701.514	2923.13
701.703	3015.29
701.892	2970.24
702.08	2988.67
702.269	3046.01
702.457	2894.46
702.646	2871.93
702.834	2816.64
703.023	2912.89
703.212	2900.61
703.4	2896.51
703.589	2951.81
703.777	2785.92
703.965	2824.83
704.154	2835.07
704.342	2808.45
704.531	2656.9
704.719	2757.25
704.907	2810.5
705.096	2847.36
705.284	2732.67
705.472	2718.34
705.661	2732.67
705.849	2796.16
706.037	2759.3
706.226	2689.67
706.414	2749.06
706.602	2630.27
706.79	2749.06
706.979	2708.1
707.167	2751.1
707.355	2751.1
707.543	2749.06
707.731	2755.2
707.919	2665.09
708.107	2667.14
708.296	2552.45
708.484	2603.65
708.672	2826.88
708.86	2650.75
709.048	2665.09
709.236	2607.75
709.424	2607.75
709.612	2671.23
709.8	2552.45
709.988	2779.78
710.176	2534.02
710.364	2693.76
710.551	2660.99
710.739	2599.55
710.927	2673.28
711.115	2630.27
711.303	2677.38
711.491	2542.21
711.679	2601.6
711.866	2730.62
712.054	2566.79
712.242	2583.17
712.43	2730.62
712.617	2613.89
712.805	2609.79
712.993	2570.88
713.181	2613.89
713.368	2605.7
713.556	2658.95
713.744	2579.08
713.931	2712.19
714.119	2554.5
714.306	2511.49
714.494	2538.12
714.682	2648.71
714.869	2611.84
715.057	2613.89
715.244	2540.16
715.432	2642.56
715.619	2521.73
715.807	2587.27
715.994	2660.99
716.182	2617.99
716.369	2548.36
716.556	2599.55
716.744	2656.9
716.931	2613.89
717.119	2581.12
717.306	2548.36
717.493	2482.82
717.681	2513.54
717.868	2529.92
718.055	2581.12
718.242	2505.35
718.43	2538.12
718.617	2609.79
718.804	2568.84
718.991	2564.74
719.179	2519.68
719.366	2429.57
719.553	2456.2
719.74	2568.84
719.927	2523.78
720.114	2648.71
720.301	2562.69
720.488	2493.06
720.676	2599.55
720.863	2654.85
721.05	2409.09
721.237	2607.75
721.424	2546.31
721.611	2554.5
721.798	2390.66
721.985	2511.49
722.172	2448.01
722.358	2396.81
722.545	2505.35
722.732	2546.31
722.919	2503.3
723.106	2398.85
723.293	2605.7
723.48	2499.2
723.667	2509.44
723.853	2611.84
724.04	2527.88
724.227	2595.46
724.414	2534.02
724.6	2519.68
724.787	2509.44
724.974	2456.2
725.161	2452.1
725.347	2560.64
725.534	2396.81
725.72	2466.44
725.907	2478.72
726.094	2419.33
726.28	2525.83
726.467	2497.16
726.653	2585.22
726.84	2550.4
727.027	2417.29
727.213	2413.19
727.4	2513.54
727.586	2460.29
727.773	2607.75
727.959	2423.43
728.145	2503.3
728.332	2484.87
728.518	2441.86
728.705	2466.44
728.891	2460.29
729.077	2566.79
729.264	2538.12
729.45	2429.57
729.636	2587.27
729.823	2351.75
730.009	2542.21
730.195	2540.16
730.382	2439.81
730.568	2511.49
730.754	2427.53
730.94	2499.2
731.126	2579.08
731.313	2458.25
731.499	2421.38
731.685	2433.67
731.871	2466.44
732.057	2480.77
732.243	2325.13
732.429	2355.85
732.615	2503.3
732.801	2384.52
732.987	2452.1
733.173	2429.57
733.359	2531.97
733.545	2413.19
733.731	2400.9
733.917	2525.83
734.103	2480.77
734.289	2570.88
734.475	2429.57
734.661	2445.96
734.847	2380.42
735.033	2478.72
735.219	2357.89
735.404	2419.33
735.59	2398.85
735.776	2484.87
735.962	2388.61
736.148	2368.13
736.333	2525.83
736.519	2329.22
736.705	2357.89
736.89	2296.46
737.076	2396.81
737.262	2349.7
737.447	2316.94
737.633	2345.61
737.819	2503.3
738.004	2243.21
738.19	2384.52
738.375	2374.28
738.561	2370.18
738.747	2224.78
738.932	2249.35
739.118	2421.38
739.303	2392.71
739.489	2216.58
739.674	2294.41
739.859	2312.84
740.045	2247.3
740.23	2359.94
740.416	2290.31
740.601	2278.02
740.786	2263.69
740.972	2228.87
741.157	2323.08
741.342	2226.82
741.528	2169.48
741.713	2325.13
741.898	2241.16
742.084	2173.58
742.269	2173.58
742.454	2296.46
742.639	2247.3
742.824	2218.63
743.01	2181.77
743.195	2142.86
743.38	2110.09
743.565	2173.58
743.75	2179.72
743.935	2124.43
744.12	2189.96
744.305	2054.8
744.49	2136.71
744.675	2218.63
744.86	2169.48
745.045	2079.37
745.23	2091.66
745.415	2022.03
745.6	2011.79
745.785	2046.6
745.97	2079.37
746.155	2032.27
746.34	2079.37
746.525	1905.29
746.71	2013.84
746.895	1960.59
747.079	1997.45
747.264	1940.11
747.449	2030.22
747.634	2017.93
747.819	2011.79
748.003	1850
748.188	1923.73
748.373	1911.44
748.557	1782.42
748.742	1985.16
748.927	1919.63
749.111	1927.82
749.296	1913.49
749.481	1852.05
749.665	1905.29
749.85	1688.21
750.034	1901.2
750.219	1645.2
750.404	1739.41
750.588	1882.77
750.773	1725.07
750.957	1741.46
751.141	1786.51
751.326	1610.39
751.51	1706.64
751.695	1710.74
751.879	1733.26
752.064	1667.73
752.248	1653.39
752.432	1667.73
752.617	1647.25
752.801	1620.63
752.985	1626.77
753.17	1645.2
753.354	1626.77
753.538	1536.66
753.722	1520.28
753.907	1491.6
754.091	1546.9
754.275	1694.35
754.459	1561.23
754.643	1526.42
754.828	1600.15
755.012	1591.95
755.196	1512.08
755.38	1434.26
755.564	1413.78
755.748	1514.13
755.932	1495.7
756.116	1544.85
756.3	1462.93
756.484	1366.68
756.668	1477.27
756.852	1389.21
757.036	1403.54
757.22	1378.97
757.404	1391.25
757.588	1309.33
757.772	1464.98
757.956	1323.67
758.14	1325.72
758.323	1342.1
758.507	1282.71
758.691	1350.29
758.875	1372.82
759.059	1370.77
759.242	1305.24
759.426	1233.56
759.61	1192.6
759.794	1315.48
759.977	1198.74
760.161	1243.8
760.345	1219.22
760.528	1215.13
760.712	1165.98
760.895	1198.74
761.079	1172.12
761.263	1157.78
761.446	1137.31
761.63	1247.9
761.813	1258.14
761.997	1215.13
762.18	1102.49
762.364	1231.51
762.547	1149.59
762.731	1159.83
762.914	1155.74
763.098	1178.26
763.281	1112.73
763.464	1014.43
763.648	1202.84
763.831	1102.49
764.015	1149.59
764.198	1114.78
764.381	1122.97
764.564	1180.31
764.748	1045.15
764.931	1131.16
765.114	1045.15
765.297	1075.87
765.481	1022.62
765.664	1120.92
765.847	1141.4
766.03	1118.87
766.213	1049.24
766.397	1014.43
766.58	979.61
766.763	1090.2
766.946	1010.33
767.129	981.66
767.312	1069.72
767.495	1055.39
767.678	987.8
767.861	959.13
768.044	881.31
768.227	1039
768.41	1022.62
768.593	1014.43
768.776	875.17
768.959	1008.28
769.142	1030.81
769.324	1010.33
769.507	989.85
769.69	969.37
769.873	979.61
770.056	957.08
770.239	903.84
770.421	864.93
770.604	1030.81
770.787	903.84
770.97	909.98
771.152	969.37
771.335	912.03
771.518	854.69
771.7	891.55
771.883	940.7
772.066	930.46
772.248	877.21
772.431	856.73
772.613	934.56
772.796	850.59
772.978	815.77
773.161	920.22
773.343	821.92
773.526	830.11
773.708	783.01
773.891	809.63
774.073	856.73
774.256	725.66
774.438	918.17
774.621	875.17
774.803	762.53
774.985	793.25
775.168	858.78
775.35	768.67
775.532	815.77
775.715	776.86
775.897	803.49
776.079	799.39
776.261	817.82
776.444	801.44
776.626	766.62
776.808	832.16
776.99	715.42
777.173	740
777.355	760.48
777.537	727.71
777.719	744.1
777.901	744.1
778.083	727.71
778.265	711.33
778.447	684.7
778.629	764.58
778.811	715.42
778.993	633.5
779.175	694.94
779.357	676.51
779.539	744.1
779.721	707.23
779.903	740
780.085	608.93
780.267	613.03
780.449	680.61
780.631	617.12
780.812	645.79
780.994	694.94
781.176	592.55
781.358	635.55
781.54	621.22
781.721	567.97
781.903	604.83
782.085	631.46
782.267	621.22
782.448	610.98
782.63	619.17
782.812	592.55
782.993	473.76
783.175	541.35
783.357	580.26
783.538	606.88
783.72	621.22
783.901	537.25
784.083	539.3
784.264	547.49
784.446	477.86
784.627	481.96
784.809	512.67
784.99	484
785.172	580.26
785.353	600.74
785.535	490.15
785.716	514.72
785.897	486.05
786.079	502.43
786.26	490.15
786.441	592.55
786.623	492.2
786.804	514.72
786.985	484
787.167	506.53
787.348	490.15
787.529	471.72
787.71	479.91
787.891	461.48
788.073	391.84
788.254	340.65
788.435	391.84
788.616	565.92
788.797	449.19
788.978	363.17
789.159	420.52
789.34	375.46
789.522	400.04
789.703	436.9
789.884	408.23
790.065	402.08
790.246	477.86
790.427	449.19
790.607	402.08
790.788	416.42
790.969	410.28
791.15	449.19
791.331	395.94
791.512	387.75
791.693	375.46
791.874	408.23
792.054	445.09
792.235	397.99
792.416	324.26
792.597	295.59
792.778	383.65
792.958	369.32
793.139	367.27
793.32	342.69
793.5	352.93
793.681	377.51
793.862	420.52
794.042	324.26
794.223	424.61
794.404	348.84
794.584	334.5
794.765	295.59
794.945	309.93
795.126	379.56
795.306	418.47
795.487	318.12
795.667	336.55
795.848	264.87
796.028	311.97
796.209	334.5
796.389	252.58
796.57	301.73
796.75	291.49
796.93	236.2
797.111	336.55
797.291	305.83
797.471	359.08
797.652	338.6
797.832	277.16
798.012	387.75
798.192	236.2
798.373	293.54
798.553	268.97
798.733	320.17
798.913	307.88
799.093	328.36
799.274	297.64
799.454	185
799.634	332.45
799.814	361.13
799.994	273.06
800.174	289.45
800.354	283.3
800.534	309.93
800.714	309.93
800.894	322.21
801.074	244.39
801.254	256.68
801.434	309.93
801.614	215.72
801.794	316.07
801.974	559.78
802.154	289.45
802.334	328.36
802.514	166.57
802.693	342.69
802.873	240.29
803.053	246.44
803.233	244.39
803.413	318.12
803.592	293.54
803.772	260.77
803.952	260.77
804.131	211.62
804.311	242.34
804.491	297.64
804.67	146.09
804.85	213.67
805.03	211.62
805.209	281.25
805.389	219.82
805.568	334.5
805.748	178.86
805.928	185
806.107	193.19
806.287	281.25
806.466	340.65
806.646	230.06
806.825	195.24
807.004	166.57
807.184	129.7
807.363	266.92
807.543	236.2
807.722	203.43
807.901	213.67
808.081	254.63
808.26	275.11
808.439	203.43
808.619	158.38
808.798	176.81
808.977	217.77
809.156	273.06
809.336	203.43
809.515	221.86
809.694	225.96
809.873	219.82
810.052	178.86
810.231	217.77
810.411	176.81
810.59	160.42
810.769	248.49
810.948	154.28
811.127	230.06
811.306	115.37
811.485	150.18
811.664	201.38
811.843	180.9
812.022	144.04
812.201	146.09
812.38	199.34
812.559	205.48
812.737	144.04
812.916	213.67
813.095	213.67
813.274	219.82
813.453	209.58
813.632	137.9
813.811	207.53
813.989	113.32
814.168	209.58
814.347	109.22
814.526	207.53
814.704	113.32
814.883	170.66
815.062	148.14
815.24	211.62
815.419	137.9
815.598	133.8
815.776	150.18
815.955	156.33
816.133	109.22
816.312	160.42
816.49	119.46
816.669	131.75
816.847	133.8
817.026	137.9
817.204	150.18
817.383	201.38
817.561	103.08
817.74	178.86
817.918	166.57
818.097	156.33
818.275	205.48
818.453	139.94
818.632	109.22
818.81	174.76
818.988	187.05
819.167	160.42
819.345	211.62
819.523	219.82
819.701	117.42
819.879	109.22
820.058	125.61
820.236	158.38
820.414	152.23
820.592	111.27
820.77	152.23
820.948	133.8
821.127	125.61
821.305	107.18
821.483	174.76
821.661	170.66
821.839	193.19
822.017	43.69
822.195	119.46
822.373	98.99
822.551	162.47
822.729	55.98
822.907	152.23
823.085	168.62
823.262	60.07
823.44	90.79
823.618	98.99
823.796	150.18
823.974	96.94
824.152	123.56
824.329	156.33
824.507	154.28
824.685	137.9
824.863	82.6
825.04	107.18
825.218	135.85
825.396	162.47
825.574	230.06
825.751	197.29
825.929	68.27
826.107	82.6
826.284	90.79
826.462	84.65
826.639	162.47
826.817	135.85
826.994	187.05
827.172	158.38
827.349	133.8
827.527	115.37
827.704	117.42
827.882	113.32
828.059	121.51
828.237	72.36
828.414	76.46
828.591	82.6
828.769	78.51
828.946	191.14
829.124	96.94
829.301	172.71
829.478	64.17
829.655	115.37
829.833	39.59
830.01	60.07
830.187	119.46
830.364	203.43
830.542	121.51
830.719	168.62
830.896	121.51
831.073	58.03
831.25	88.75
831.427	101.03
831.604	103.08
831.782	39.59
831.959	92.84
832.136	6.83
832.313	123.56
832.49	90.79
832.667	82.6
832.844	84.65
833.021	94.89
833.198	111.27
833.374	96.94
833.551	141.99
833.728	101.03
833.905	80.55
834.082	43.69
834.259	131.75
834.436	121.51
834.612	88.75
834.789	154.28
834.966	45.74
835.143	103.08
835.319	74.41
835.496	109.22
835.673	88.75
835.85	74.41
836.026	-1.37
836.203	47.79
836.38	113.32
836.556	64.17
836.733	62.12
836.909	137.9
837.086	76.46
837.262	74.41
837.439	164.52
837.616	84.65
837.792	74.41
837.968	76.46
838.145	-11.61
838.321	80.55
838.498	0.68
838.674	82.6
838.851	119.46
839.027	160.42
839.203	101.03
839.38	27.31
839.556	119.46
839.732	64.17
839.909	127.66
840.085	88.75
840.261	78.51
840.437	154.28
840.614	101.03
840.79	58.03
840.966	94.89
841.142	80.55
841.318	49.83
841.494	107.18
841.671	72.36
841.847	135.85
842.023	-9.56
842.199	15.02
842.375	-36.18
842.551	92.84
842.727	62.12
842.903	133.8
843.079	113.32
843.255	133.8
843.431	139.94
843.607	101.03
843.783	88.75
843.959	-3.41
844.134	60.07
844.31	33.45
844.486	82.6
844.662	33.45
844.838	76.46
845.013	82.6
845.189	35.5
845.365	62.12
845.541	35.5
845.716	55.98
845.892	146.09
846.068	68.27
846.244	4.78
846.419	33.45
846.595	-3.41
846.77	80.55
846.946	78.51
847.122	58.03
847.297	101.03
847.473	107.18
847.648	105.13
847.824	121.51
847.999	-97.62
848.175	92.84
848.35	53.93
848.526	84.65
848.701	58.03
848.876	86.7
849.052	90.79
849.227	21.16
849.403	39.59
849.578	72.36
849.753	31.4
849.929	0.68
850.104	137.9
850.279	82.6
850.454	25.26
850.63	76.46
850.805	60.07
850.98	47.79
851.155	45.74
851.33	64.17
851.505	51.88
851.681	96.94
851.856	70.31
852.031	43.69
852.206	76.46
852.381	45.74
852.556	43.69
852.731	76.46
852.906	117.42
853.081	2.73
853.256	98.99
853.431	43.69
853.606	-1.37
853.781	78.51
853.956	43.69
854.131	113.32
854.305	82.6
854.48	64.17
854.655	21.16
854.83	70.31
855.005	96.94
855.18	12.97
855.354	62.12
855.529	66.22
855.704	-1.37
855.879	55.98
856.053	-19.8
856.228	66.22
856.403	58.03
856.577	66.22
856.752	-46.42
856.926	31.4
857.101	84.65
857.276	47.79
857.45	70.31
857.625	43.69
857.799	23.21
857.974	84.65
858.148	-77.14
858.323	33.45
858.497	17.07
858.672	53.93
858.846	21.16
859.02	19.11
859.195	-11.61
859.369	53.93
859.543	96.94
859.718	-3.41
859.892	70.31
860.066	47.79
860.241	72.36
860.415	47.79
860.589	12.97
860.763	55.98
860.938	62.12
861.112	51.88
861.286	-50.52
861.46	29.35
861.634	51.88
861.808	39.59
861.982	68.27
862.157	25.26
862.331	-50.52
862.505	-17.75
862.679	31.4
862.853	47.79
863.027	27.31
863.201	72.36
863.375	23.21
863.549	27.31
863.722	15.02
863.896	92.84
864.07	43.69
864.244	0.68
864.418	23.21
864.592	-13.65
864.766	121.51
864.939	55.98
865.113	6.83
865.287	125.61
865.461	21.16
865.634	55.98
865.808	66.22
865.982	-5.46
866.156	41.64
866.329	15.02
866.503	29.35
866.676	70.31
866.85	-27.99
867.024	27.31
867.197	45.74
867.371	-11.61
867.544	37.55
867.718	29.35
867.891	-19.8
868.065	37.55
868.238	49.83
868.412	47.79
868.585	23.21
868.759	-23.89
868.932	39.59
869.105	10.92
869.279	43.69
869.452	51.88
869.625	25.26
869.799	92.84
869.972	27.31
870.145	51.88
870.319	64.17
870.492	0.68
870.665	27.31
870.838	-1.37
871.011	-11.61
871.185	-15.7
871.358	-9.56
871.531	-3.41
871.704	31.4
871.877	33.45
872.05	6.83
872.223	17.07
872.396	74.41
872.569	43.69
872.742	64.17
872.915	-21.85
873.088	62.12
873.261	35.5
873.434	139.94
873.607	47.79
873.78	12.97
873.953	17.07
874.126	39.59
874.299	76.46
874.471	55.98
874.644	29.35
874.817	8.87
874.99	-27.99
875.163	-3.41
875.335	55.98
875.508	-17.75
875.681	35.5
875.853	82.6
876.026	-21.85
876.199	-1.37
876.371	21.16
876.544	21.16
876.717	37.55
876.889	84.65
877.062	74.41
877.234	70.31
877.407	15.02
877.579	4.78
877.752	37.55
877.924	8.87
878.097	60.07
878.269	-5.46
878.442	-36.18
878.614	-23.89
878.786	-17.75
878.959	37.55
879.131	27.31
879.303	-19.8
879.476	27.31
879.648	47.79
879.82	29.35
879.993	21.16
880.165	6.83
880.337	10.92
880.509	72.36
880.681	-32.08
880.854	37.55
881.026	0.68
881.198	80.55
881.37	-3.41
881.542	80.55
881.714	41.64
881.886	-54.61
882.058	2.73
882.23	-38.23
882.402	19.11
882.574	-36.18
882.746	45.74
882.918	76.46
883.09	55.98
883.262	37.55
883.434	31.4
883.606	-34.13
883.778	-17.75
883.95	31.4
884.122	2.73
884.293	6.83
884.465	-38.23
884.637	76.46
884.809	23.21
884.98	8.87
885.152	23.21
885.324	29.35
885.496	19.11
885.667	19.11
885.839	4.78
886.011	43.69
886.182	-21.85
886.354	2.73
886.525	-23.89
886.697	27.31
886.869	-19.8
887.04	45.74
887.212	-9.56
887.383	12.97
887.555	0.68
887.726	76.46
887.897	-25.94
888.069	98.99
888.24	19.11
888.412	37.55
888.583	53.93
888.754	-7.51
888.926	58.03
889.097	-58.71
889.268	23.21
889.44	72.36
889.611	27.31
889.782	43.69
889.953	10.92
890.125	-13.65
890.296	-11.61
890.467	-25.94
890.638	-19.8
890.809	29.35
890.98	47.79
891.151	-44.37
891.323	41.64
891.494	-1.37
891.665	70.31
891.836	-11.61
892.007	12.97
892.178	6.83
892.349	27.31
892.52	12.97
892.691	8.87
892.862	55.98
893.032	55.98
893.203	-9.56
893.374	-79.19
893.545	-7.51
893.716	15.02
893.887	8.87
894.057	37.55
894.228	-5.46
894.399	-17.75
894.57	39.59
894.74	17.07
894.911	80.55
895.082	80.55
895.253	-44.37
895.423	-32.08
895.594	37.55
895.764	4.78
895.935	-5.46
896.106	15.02
896.276	51.88
896.447	-38.23
896.617	60.07
896.788	8.87
896.958	29.35
897.129	-23.89
897.299	8.87
897.47	17.07
897.64	86.7
897.81	10.92
897.981	60.07
898.151	-38.23
898.322	74.41
898.492	-3.41
898.662	21.16
898.832	-38.23
899.003	43.69
899.173	-7.51
899.343	12.97
899.513	-5.46
