Data from USB4F104151__58__11-37-22-161.txt Node

Date: Fri Mar 14 11:37:22 EDT 2025
User: louis
Spectrometer: USB4F10415
Trigger mode: 4
Integration Time (sec): 2.000000E-2
Scans to average: 1
Electric dark correction enabled: true
Nonlinearity correction enabled: false
Boxcar width: 0
XAxis mode: Wavelengths
Number of Pixels in Spectrum: 3648
>>>>>Begin Spectral Data<<<<<
178.204	-68.95
178.424	-68.95
178.644	-68.95
178.864	-42.32
179.084	-83.28
179.304	39.59
179.524	29.35
179.744	39.59
179.964	37.55
180.184	-7.51
180.404	-25.94
180.624	-62.8
180.844	10.92
181.064	6.83
181.283	-42.32
181.503	4.78
181.723	-30.04
181.943	-83.28
182.163	17.07
182.383	33.45
182.602	31.4
182.822	29.35
183.042	49.83
183.262	51.88
183.482	-13.65
183.701	10.92
183.921	27.31
184.141	-48.47
184.361	55.98
184.58	-42.32
184.8	-9.56
185.02	-34.13
185.239	-42.32
185.459	15.02
185.679	-44.37
185.898	-50.52
186.118	31.4
186.338	19.11
186.557	-42.32
186.777	17.07
186.997	-9.56
187.216	-7.51
187.436	-21.85
187.655	23.21
187.875	-9.56
188.095	2.73
188.314	-44.37
188.534	29.35
188.753	-3.41
188.973	23.21
189.192	43.69
189.412	-23.89
189.631	-11.61
189.851	-42.32
190.07	-7.51
190.29	47.79
190.509	-19.8
190.729	-11.61
190.948	37.55
191.168	51.88
191.387	-5.46
191.607	-7.51
191.826	35.5
192.045	-13.65
192.265	-58.71
192.484	-62.8
192.704	-1.37
192.923	31.4
193.142	60.07
193.362	21.16
193.581	19.11
193.8	-17.75
194.02	29.35
194.239	15.02
194.458	49.83
194.678	17.07
194.897	-32.08
195.116	-40.28
195.335	-23.89
195.555	23.21
195.774	-44.37
195.993	21.16
196.212	-3.41
196.432	15.02
196.651	15.02
196.87	23.21
197.089	8.87
197.308	45.74
197.528	21.16
197.747	4.78
197.966	-30.04
198.185	23.21
198.404	2.73
198.623	2.73
198.842	19.11
199.062	2.73
199.281	62.12
199.5	-11.61
199.719	-9.56
199.938	55.98
200.157	-13.65
200.376	4.78
200.595	-11.61
200.814	21.16
201.033	10.92
201.252	2.73
201.471	45.74
201.69	-17.75
201.909	23.21
202.128	-25.94
202.347	-19.8
202.566	6.83
202.785	-5.46
203.004	-9.56
203.223	6.83
203.442	12.97
203.661	6.83
203.879	-44.37
204.098	-9.56
204.317	2.73
204.536	8.87
204.755	37.55
204.974	-71
205.193	-21.85
205.411	41.64
205.63	68.27
205.849	31.4
206.068	66.22
206.287	-48.47
206.505	10.92
206.724	-15.7
206.943	-25.94
207.162	-7.51
207.381	-27.99
207.599	27.31
207.818	2.73
208.037	25.26
208.255	-23.89
208.474	-23.89
208.693	51.88
208.911	8.87
209.13	8.87
209.349	12.97
209.567	-19.8
209.786	-21.85
210.005	23.21
210.223	29.35
210.442	-38.23
210.661	37.55
210.879	-120.15
211.098	-11.61
211.316	47.79
211.535	51.88
211.753	-7.51
211.972	58.03
212.191	-30.04
212.409	-13.65
212.628	15.02
212.846	55.98
213.065	12.97
213.283	43.69
213.502	37.55
213.72	86.7
213.938	-21.85
214.157	37.55
214.375	31.4
214.594	29.35
214.812	-25.94
215.031	47.79
215.249	6.83
215.467	-15.7
215.686	39.59
215.904	17.07
216.122	17.07
216.341	15.02
216.559	-5.46
216.778	-1.37
216.996	-58.71
217.214	15.02
217.432	62.12
217.651	-30.04
217.869	31.4
218.087	0.68
218.306	-34.13
218.524	49.83
218.742	-83.28
218.96	-38.23
219.179	39.59
219.397	-5.46
219.615	37.55
219.833	-9.56
220.051	27.31
220.27	-17.75
220.488	29.35
220.706	-27.99
220.924	92.84
221.142	47.79
221.36	-19.8
221.578	45.74
221.796	-34.13
222.015	27.31
222.233	-13.65
222.451	39.59
222.669	-32.08
222.887	47.79
223.105	-11.61
223.323	0.68
223.541	-68.95
223.759	-58.71
223.977	8.87
224.195	8.87
224.413	45.74
224.631	23.21
224.849	31.4
225.067	37.55
225.285	29.35
225.503	-1.37
225.721	-34.13
225.939	-38.23
226.157	47.79
226.375	31.4
226.592	-1.37
226.81	6.83
227.028	64.17
227.246	-48.47
227.464	29.35
227.682	10.92
227.9	-11.61
228.117	-30.04
228.335	39.59
228.553	60.07
228.771	10.92
228.989	41.64
229.206	-30.04
229.424	-7.51
229.642	-42.32
229.86	-17.75
230.077	-42.32
230.295	-27.99
230.513	15.02
230.731	121.51
230.948	88.75
231.166	23.21
231.384	55.98
231.601	41.64
231.819	-46.42
232.037	-3.41
232.254	-19.8
232.472	19.11
232.689	37.55
232.907	-19.8
233.125	53.93
233.342	19.11
233.56	-13.65
233.777	55.98
233.995	27.31
234.213	-32.08
234.43	49.83
234.648	-21.85
234.865	17.07
235.083	-9.56
235.3	-30.04
235.518	51.88
235.735	51.88
235.953	2.73
236.17	15.02
236.388	60.07
236.605	-42.32
236.822	10.92
237.04	25.26
237.257	23.21
237.475	-9.56
237.692	-15.7
237.909	-21.85
238.127	8.87
238.344	37.55
238.562	-21.85
238.779	-52.56
238.996	45.74
239.214	-46.42
239.431	-32.08
239.648	-25.94
239.865	17.07
240.083	0.68
240.3	-7.51
240.517	55.98
240.735	23.21
240.952	84.65
241.169	98.99
241.386	-95.57
241.603	88.75
241.821	-11.61
242.038	60.07
242.255	4.78
242.472	25.26
242.689	23.21
242.907	-52.56
243.124	-44.37
243.341	19.11
243.558	64.17
243.775	-17.75
243.992	-21.85
244.209	6.83
244.426	15.02
244.643	-3.41
244.86	10.92
245.078	23.21
245.295	12.97
245.512	39.59
245.729	39.59
245.946	-9.56
246.163	-13.65
246.38	-5.46
246.597	64.17
246.814	80.55
247.031	27.31
247.248	25.26
247.464	35.5
247.681	23.21
247.898	17.07
248.115	-3.41
248.332	6.83
248.549	39.59
248.766	10.92
248.983	31.4
249.2	-9.56
249.417	125.61
249.633	-25.94
249.85	31.4
250.067	15.02
250.284	0.68
250.501	-42.32
250.717	-7.51
250.934	-36.18
251.151	-13.65
251.368	0.68
251.585	29.35
251.801	82.6
252.018	-40.28
252.235	21.16
252.451	68.27
252.668	62.12
252.885	12.97
253.102	19.11
253.318	12.97
253.535	-15.7
253.752	-17.75
253.968	-23.89
254.185	-44.37
254.401	2.73
254.618	-11.61
254.835	-44.37
255.051	10.92
255.268	25.26
255.484	-13.65
255.701	-68.95
255.917	19.11
256.134	47.79
256.351	10.92
256.567	-17.75
256.784	-5.46
257	-30.04
257.217	15.02
257.433	41.64
257.65	53.93
257.866	90.79
258.082	10.92
258.299	6.83
258.515	51.88
258.732	-17.75
258.948	-11.61
259.165	23.21
259.381	-46.42
259.597	6.83
259.814	-13.65
260.03	8.87
260.246	88.75
260.463	-34.13
260.679	33.45
260.895	29.35
261.112	33.45
261.328	-34.13
261.544	-52.56
261.761	86.7
261.977	-25.94
262.193	-5.46
262.409	37.55
262.626	76.46
262.842	6.83
263.058	53.93
263.274	-13.65
263.49	10.92
263.707	84.65
263.923	8.87
264.139	33.45
264.355	23.21
264.571	76.46
264.787	-25.94
265.004	6.83
265.22	39.59
265.436	62.12
265.652	-32.08
265.868	19.11
266.084	6.83
266.3	82.6
266.516	-21.85
266.732	2.73
266.948	-1.37
267.164	29.35
267.38	-1.37
267.596	-7.51
267.812	64.17
268.028	-34.13
268.244	31.4
268.46	47.79
268.676	27.31
268.892	-23.89
269.108	-11.61
269.324	-1.37
269.54	-40.28
269.756	-17.75
269.972	-17.75
270.188	35.5
270.403	27.31
270.619	66.22
270.835	4.78
271.051	6.83
271.267	60.07
271.483	-3.41
271.698	-56.66
271.914	47.79
272.13	4.78
272.346	8.87
272.562	15.02
272.777	-38.23
272.993	23.21
273.209	-3.41
273.425	80.55
273.64	-34.13
273.856	25.26
274.072	-9.56
274.287	4.78
274.503	68.27
274.719	39.59
274.934	-17.75
275.15	55.98
275.366	-5.46
275.581	-5.46
275.797	-7.51
276.012	-25.94
276.228	-40.28
276.444	64.17
276.659	-13.65
276.875	60.07
277.09	4.78
277.306	27.31
277.521	103.08
277.737	-32.08
277.952	39.59
278.168	55.98
278.383	15.02
278.599	41.64
278.814	-23.89
279.03	47.79
279.245	62.12
279.461	-32.08
279.676	68.27
279.892	-21.85
280.107	10.92
280.322	-9.56
280.538	43.69
280.753	-17.75
280.969	47.79
281.184	-3.41
281.399	21.16
281.615	-52.56
281.83	-42.32
282.045	25.26
282.26	8.87
282.476	39.59
282.691	-34.13
282.906	6.83
283.122	2.73
283.337	15.02
283.552	53.93
283.767	17.07
283.983	-23.89
284.198	-56.66
284.413	-11.61
284.628	23.21
284.843	10.92
285.058	60.07
285.274	0.68
285.489	2.73
285.704	53.93
285.919	-25.94
286.134	21.16
286.349	21.16
286.564	70.31
286.779	96.94
286.995	-99.67
287.21	-58.71
287.425	80.55
287.64	10.92
287.855	23.21
288.07	21.16
288.285	-58.71
288.5	21.16
288.715	27.31
288.93	6.83
289.145	27.31
289.36	82.6
289.575	41.64
289.79	33.45
290.004	64.17
290.219	74.41
290.434	-7.51
290.649	-1.37
290.864	-15.7
291.079	33.45
291.294	10.92
291.509	-19.8
291.724	23.21
291.938	64.17
292.153	-23.89
292.368	4.78
292.583	-114
292.798	-27.99
293.012	-5.46
293.227	6.83
293.442	-3.41
293.657	-15.7
293.871	49.83
294.086	-13.65
294.301	-13.65
294.516	6.83
294.73	-15.7
294.945	-17.75
295.16	-48.47
295.374	33.45
295.589	23.21
295.804	-23.89
296.018	-15.7
296.233	19.11
296.447	45.74
296.662	31.4
296.877	21.16
297.091	-27.99
297.306	0.68
297.52	-30.04
297.735	21.16
297.949	12.97
298.164	-23.89
298.378	31.4
298.593	35.5
298.807	12.97
299.022	6.83
299.236	45.74
299.451	15.02
299.665	-3.41
299.88	21.16
300.094	-9.56
300.309	-36.18
300.523	12.97
300.737	-91.48
300.952	25.26
301.166	64.17
301.381	17.07
301.595	74.41
301.809	25.26
302.024	58.03
302.238	-23.89
302.452	-19.8
302.667	15.02
302.881	60.07
303.095	8.87
303.309	60.07
303.524	-52.56
303.738	98.99
303.952	45.74
304.166	-19.8
304.381	2.73
304.595	12.97
304.809	-23.89
305.023	-17.75
305.237	-9.56
305.452	4.78
305.666	37.55
305.88	6.83
306.094	35.5
306.308	0.68
306.522	31.4
306.736	33.45
306.95	43.69
307.164	-21.85
307.379	37.55
307.593	-9.56
307.807	55.98
308.021	-25.94
308.235	103.08
308.449	-46.42
308.663	31.4
308.877	6.83
309.091	31.4
309.305	-1.37
309.519	-32.08
309.733	127.66
309.947	-13.65
310.161	-44.37
310.374	27.31
310.588	53.93
310.802	-42.32
311.016	27.31
311.23	-25.94
311.444	15.02
311.658	10.92
311.872	23.21
312.085	12.97
312.299	-1.37
312.513	-46.42
312.727	39.59
312.941	10.92
313.154	37.55
313.368	47.79
313.582	29.35
313.796	31.4
314.009	-27.99
314.223	21.16
314.437	55.98
314.651	37.55
314.864	39.59
315.078	-15.7
315.292	66.22
315.505	68.27
315.719	-9.56
315.933	6.83
316.146	60.07
316.36	-3.41
316.573	60.07
316.787	37.55
317.001	-19.8
317.214	-23.89
317.428	37.55
317.641	-27.99
317.855	-42.32
318.068	62.12
318.282	-11.61
318.495	2.73
318.709	62.12
318.922	-5.46
319.136	37.55
319.349	-44.37
319.563	4.78
319.776	62.12
319.99	-5.46
320.203	-19.8
320.417	2.73
320.63	105.13
320.843	15.02
321.057	74.41
321.27	0.68
321.483	47.79
321.697	37.55
321.91	62.12
322.124	-5.46
322.337	64.17
322.55	27.31
322.763	47.79
322.977	64.17
323.19	47.79
323.403	55.98
323.617	19.11
323.83	58.03
324.043	21.16
324.256	-5.46
324.469	10.92
324.683	17.07
324.896	-3.41
325.109	-3.41
325.322	-25.94
325.535	78.51
325.748	31.4
325.962	2.73
326.175	-19.8
326.388	31.4
326.601	-19.8
326.814	-13.65
327.027	27.31
327.24	-36.18
327.453	-1.37
327.666	10.92
327.879	58.03
328.092	72.36
328.305	6.83
328.518	15.02
328.731	-34.13
328.944	-50.52
329.157	-1.37
329.37	17.07
329.583	10.92
329.796	58.03
330.009	8.87
330.222	35.5
330.435	-9.56
330.648	64.17
330.861	45.74
331.073	60.07
331.286	-13.65
331.499	23.21
331.712	-9.56
331.925	-5.46
332.138	29.35
332.35	-9.56
332.563	-25.94
332.776	23.21
332.989	23.21
333.202	-5.46
333.414	-25.94
333.627	8.87
333.84	-13.65
334.053	6.83
334.265	10.92
334.478	2.73
334.691	-32.08
334.903	60.07
335.116	39.59
335.329	-11.61
335.541	-13.65
335.754	72.36
335.966	-7.51
336.179	-23.89
336.392	4.78
336.604	68.27
336.817	41.64
337.029	90.79
337.242	21.16
337.454	35.5
337.667	39.59
337.88	88.75
338.092	-1.37
338.305	-73.04
338.517	-9.56
338.729	12.97
338.942	25.26
339.154	10.92
339.367	2.73
339.579	-30.04
339.792	-25.94
340.004	10.92
340.217	23.21
340.429	-17.75
340.641	37.55
340.854	-40.28
341.066	-56.66
341.278	103.08
341.491	12.97
341.703	55.98
341.915	76.46
342.128	45.74
342.34	-15.7
342.552	33.45
342.764	-34.13
342.977	31.4
343.189	-11.61
343.401	39.59
343.613	39.59
343.826	74.41
344.038	39.59
344.25	-11.61
344.462	49.83
344.674	45.74
344.886	-13.65
345.099	8.87
345.311	101.03
345.523	6.83
345.735	-52.56
345.947	15.02
346.159	6.83
346.371	19.11
346.583	31.4
346.795	23.21
347.007	-27.99
347.219	66.22
347.431	90.79
347.643	55.98
347.855	27.31
348.067	21.16
348.279	31.4
348.491	19.11
348.703	84.65
348.915	21.16
349.127	-13.65
349.339	-1.37
349.551	64.17
349.763	37.55
349.975	23.21
350.187	51.88
350.399	84.65
350.61	84.65
350.822	47.79
351.034	-17.75
351.246	-9.56
351.458	23.21
351.669	72.36
351.881	88.75
352.093	-44.37
352.305	88.75
352.517	21.16
352.728	60.07
352.94	4.78
353.152	19.11
353.363	4.78
353.575	31.4
353.787	-17.75
353.999	15.02
354.21	60.07
354.422	45.74
354.633	-5.46
354.845	-32.08
355.057	12.97
355.268	-1.37
355.48	12.97
355.692	-32.08
355.903	51.88
356.115	10.92
356.326	49.83
356.538	60.07
356.749	-11.61
356.961	-9.56
357.172	-9.56
357.384	45.74
357.595	43.69
357.807	58.03
358.018	72.36
358.23	47.79
358.441	-19.8
358.653	58.03
358.864	58.03
359.075	-116.05
359.287	49.83
359.498	60.07
359.709	25.26
359.921	6.83
360.132	43.69
360.344	58.03
360.555	31.4
360.766	105.13
360.977	-21.85
361.189	2.73
361.4	94.89
361.611	113.32
361.823	-46.42
362.034	-7.51
362.245	-85.33
362.456	12.97
362.667	35.5
362.879	19.11
363.09	-52.56
363.301	76.46
363.512	70.31
363.723	43.69
363.935	0.68
364.146	35.5
364.357	-50.52
364.568	68.27
364.779	39.59
364.99	55.98
365.201	-38.23
365.412	39.59
365.623	-66.9
365.834	-5.46
366.045	-66.9
366.256	45.74
366.467	12.97
366.678	25.26
366.889	49.83
367.1	23.21
367.311	55.98
367.522	23.21
367.733	80.55
367.944	27.31
368.155	25.26
368.366	-17.75
368.577	19.11
368.788	-17.75
368.999	-9.56
369.209	49.83
369.42	47.79
369.631	-5.46
369.842	47.79
370.053	25.26
370.264	74.41
370.474	55.98
370.685	23.21
370.896	53.93
371.107	51.88
371.317	-3.41
371.528	66.22
371.739	47.79
371.95	49.83
372.16	0.68
372.371	96.94
372.582	-50.52
372.792	0.68
373.003	60.07
373.214	2.73
373.424	53.93
373.635	49.83
373.846	8.87
374.056	-11.61
374.267	10.92
374.477	17.07
374.688	4.78
374.898	82.6
375.109	72.36
375.319	25.26
375.53	84.65
375.74	15.02
375.951	55.98
376.161	55.98
376.372	43.69
376.582	80.55
376.793	-19.8
377.003	31.4
377.214	53.93
377.424	88.75
377.635	-5.46
377.845	4.78
378.055	49.83
378.266	10.92
378.476	37.55
378.686	2.73
378.897	-11.61
379.107	-7.51
379.317	6.83
379.528	35.5
379.738	31.4
379.948	8.87
380.158	49.83
380.369	-21.85
380.579	72.36
380.789	10.92
380.999	-21.85
381.21	-13.65
381.42	55.98
381.63	55.98
381.84	60.07
382.05	10.92
382.261	-19.8
382.471	37.55
382.681	-3.41
382.891	-64.85
383.101	68.27
383.311	-25.94
383.521	62.12
383.731	2.73
383.941	53.93
384.151	10.92
384.361	64.17
384.571	21.16
384.781	35.5
384.991	72.36
385.201	51.88
385.411	33.45
385.621	43.69
385.831	-9.56
386.041	10.92
386.251	37.55
386.461	123.56
386.671	125.61
386.881	15.02
387.091	51.88
387.301	101.03
387.511	92.84
387.72	60.07
387.93	31.4
388.14	62.12
388.35	-17.75
388.56	39.59
388.769	-1.37
388.979	-32.08
389.189	43.69
389.399	84.65
389.609	43.69
389.818	53.93
390.028	-32.08
390.238	66.22
390.447	17.07
390.657	2.73
390.867	35.5
391.076	15.02
391.286	6.83
391.496	45.74
391.705	15.02
391.915	105.13
392.125	39.59
392.334	70.31
392.544	72.36
392.753	74.41
392.963	-1.37
393.172	15.02
393.382	47.79
393.591	105.13
393.801	94.89
394.01	72.36
394.22	58.03
394.429	37.55
394.639	21.16
394.848	90.79
395.058	-9.56
395.267	76.46
395.477	96.94
395.686	68.27
395.895	31.4
396.105	121.51
396.314	51.88
396.524	62.12
396.733	64.17
396.942	148.14
397.152	60.07
397.361	148.14
397.57	47.79
397.78	29.35
397.989	88.75
398.198	141.99
398.407	64.17
398.617	64.17
398.826	45.74
399.035	6.83
399.244	162.47
399.453	96.94
399.663	55.98
399.872	123.56
400.081	66.22
400.29	88.75
400.499	68.27
400.708	78.51
400.917	119.46
401.127	113.32
401.336	131.75
401.545	115.37
401.754	111.27
401.963	129.7
402.172	107.18
402.381	68.27
402.59	64.17
402.799	109.22
403.008	96.94
403.217	98.99
403.426	137.9
403.635	68.27
403.844	121.51
404.053	129.7
404.262	125.61
404.471	211.62
404.68	96.94
404.888	129.7
405.097	232.1
405.306	137.9
405.515	168.62
405.724	141.99
405.933	92.84
406.142	156.33
406.35	176.81
406.559	225.96
406.768	176.81
406.977	197.29
407.185	236.2
407.394	162.47
407.603	141.99
407.812	228.01
408.02	191.14
408.229	242.34
408.438	223.91
408.646	228.01
408.855	215.72
409.064	203.43
409.272	271.01
409.481	244.39
409.69	289.45
409.898	277.16
410.107	307.88
410.315	344.74
410.524	336.55
410.733	311.97
410.941	373.41
411.15	285.35
411.358	432.8
411.567	357.03
411.775	391.84
411.984	414.37
412.192	471.72
412.401	420.52
412.609	424.61
412.818	502.43
413.026	553.63
413.234	527.01
413.443	524.96
413.651	563.87
413.86	455.33
414.068	549.54
414.276	670.37
414.485	680.61
414.693	555.68
414.901	633.5
415.11	615.07
415.318	742.05
415.526	684.7
415.734	813.73
415.943	838.3
416.151	793.25
416.359	756.38
416.567	862.88
416.776	948.89
416.984	955.04
417.192	989.85
417.4	1014.43
417.608	936.6
417.817	979.61
418.025	1159.83
418.233	1272.47
418.441	1204.89
418.649	1204.89
418.857	1305.24
419.065	1424.02
419.273	1303.19
419.481	1426.07
419.689	1503.89
419.897	1446.55
420.105	1510.04
420.313	1579.67
420.521	1561.23
420.729	1620.63
420.937	1747.6
421.145	1723.02
421.353	1946.25
421.561	1985.16
421.769	1956.49
421.977	2110.09
422.185	2122.38
422.393	2204.3
422.601	2306.7
422.809	2370.18
423.017	2413.19
423.224	2364.04
423.432	2456.2
423.64	2693.76
423.848	2796.16
424.056	2794.11
424.263	2867.84
424.471	3013.24
424.679	2968.19
424.887	3279.48
425.094	3246.71
425.302	3232.38
425.51	3492.47
425.718	3463.8
425.925	3445.37
426.133	3601.01
426.341	3832.43
426.548	4043.37
426.756	4143.72
426.964	4153.96
427.171	4325.99
427.379	4504.17
427.586	4428.39
427.794	4622.95
428.001	4876.9
428.209	5087.84
428.417	4987.49
428.624	5366.36
428.832	5341.79
429.039	5364.31
429.247	5233.24
429.454	5829.2
429.662	6189.64
429.869	5861.97
430.076	6349.39
430.284	6081.1
430.491	6380.11
430.699	6801.99
430.906	6595.14
431.114	6871.62
431.321	7045.7
431.528	6971.97
431.736	7608.89
431.943	7983.66
432.15	7868.98
432.358	7883.31
432.565	8229.42
432.772	8174.13
432.979	8731.17
433.187	8868.39
433.394	8862.24
433.601	9452.06
433.808	9474.59
434.016	9382.43
434.223	9984.53
434.43	10373.64
434.637	10261.01
434.844	10885.64
435.052	11100.67
435.259	11090.43
435.466	10992.13
435.673	11024.9
435.88	11721.21
436.087	12173.81
436.294	12360.17
436.501	12012.02
436.708	12392.94
436.915	12820.97
437.122	13148.64
437.329	13396.45
437.537	13826.52
437.743	13924.82
437.95	13629.91
438.157	14389.71
438.364	14961.09
438.571	15161.8
438.778	15022.53
438.985	16566.7
439.192	16058.81
439.399	16236.98
439.606	16148.92
439.813	16675.24
440.02	17678.75
440.227	17447.33
440.433	17220
440.64	17719.71
440.847	17957.27
441.054	17957.27
441.261	19462.53
441.467	19327.36
441.674	19648.89
441.881	20439.41
442.088	20226.42
442.294	20236.66
442.501	20554.1
442.708	20918.64
442.914	21836.13
443.121	22759.76
443.328	22401.36
443.534	23572.8
443.741	23103.82
443.948	22800.72
444.154	24510.77
444.361	24236.34
444.568	24586.55
444.774	24363.32
444.981	24578.36
445.187	25424.17
445.394	26378.52
445.6	25864.48
445.807	28698.87
446.013	27273.48
446.22	27779.33
446.426	28942.58
446.633	29370.6
446.839	30234.85
447.046	28993.78
447.252	30406.87
447.459	30666.97
447.665	30460.12
447.871	31719.62
448.078	33458.35
448.284	31682.76
448.491	32680.12
448.697	33994.92
448.903	34177.19
449.11	34517.15
449.316	33919.14
449.522	34547.87
449.728	35340.43
449.935	35795.08
450.141	35473.55
450.347	36520.06
450.553	35262.61
450.76	35754.12
450.966	36943.99
451.172	36513.92
451.378	37412.98
451.584	36520.06
451.791	37699.69
451.997	37462.13
452.203	38158.44
452.409	37804.14
452.615	37947.5
452.821	36468.86
453.027	36046.98
453.233	37871.72
453.44	36360.32
453.646	37058.68
453.852	36872.31
454.058	37527.66
454.264	36388.99
454.47	37236.85
454.676	36585.6
454.882	37613.68
455.088	34529.44
455.294	34769.05
455.5	35344.53
455.705	35676.3
455.911	34162.85
456.117	33642.67
456.323	33317.04
456.529	31387.85
456.735	32932.02
456.941	32004.29
457.147	31551.69
457.352	30525.66
457.558	29853.92
457.764	30036.19
457.97	29354.22
458.176	29268.2
458.381	29090.03
458.587	27699.46
458.793	27625.73
458.999	26210.59
459.204	27730.18
459.41	27101.45
459.616	25440.55
459.821	25524.52
460.027	25192.75
460.233	24613.17
460.438	23562.56
460.644	23820.61
460.85	22698.32
461.055	22473.04
461.261	22358.36
461.466	20797.81
461.672	20142.46
461.878	21606.75
462.083	20300.15
462.289	19734.91
462.494	19489.15
462.7	18946.44
462.905	18127.25
463.111	18889.1
463.316	18934.15
463.522	18522.51
463.727	18649.49
463.932	18026.9
464.138	18243.99
464.343	18184.6
464.549	17830.3
464.754	18801.04
464.959	18221.46
465.165	17916.31
465.37	17301.92
465.575	16791.98
465.781	17572.25
465.986	17795.48
466.191	17025.45
466.397	16732.59
466.602	15937.98
466.807	16658.86
467.012	16370.1
467.218	16411.06
467.423	16103.86
467.628	16275.89
467.833	17045.93
468.038	16368.05
468.244	16224.69
468.449	16730.54
468.654	15894.97
468.859	15931.83
469.064	15661.5
469.269	15315.39
469.474	15382.98
469.679	15559.1
469.885	15157.7
470.09	15561.15
470.295	15288.77
470.5	14866.89
470.705	14598.6
470.91	14492.11
471.115	14602.7
471.32	14619.08
471.525	14645.71
471.73	14488.01
471.935	14041.56
472.139	13822.42
472.344	13865.43
472.549	13826.52
472.754	13666.78
472.959	13402.59
473.164	13140.45
473.369	12986.85
473.574	13156.83
473.778	13072.87
473.983	12853.73
474.188	12988.9
474.393	12429.81
474.598	12648.94
474.802	12567.02
475.007	12521.96
475.212	12202.48
475.417	11807.22
475.621	12028.4
475.826	12085.75
476.031	11848.18
476.235	11588.09
476.44	11561.47
476.645	11581.95
476.849	11340.29
477.054	11313.66
477.259	11287.04
477.463	11196.93
477.668	10746.37
477.872	10877.44
478.077	10820.1
478.282	10504.71
478.486	10396.17
478.691	10414.6
478.895	10408.46
479.1	10189.33
479.304	10385.93
479.509	10183.18
479.713	10177.04
479.918	9919
480.122	9865.75
480.326	10115.6
480.531	9945.62
480.735	10002.96
480.94	9880.08
481.144	10119.7
481.348	9665.05
481.553	9685.53
481.757	9372.19
481.961	9706.01
482.166	9910.8
482.37	9824.79
482.574	9468.44
482.778	9609.75
482.983	9673.24
483.187	9296.41
483.391	9869.84
483.595	9603.61
483.8	9382.43
484.004	9665.05
484.208	9515.55
484.412	9421.34
484.616	9523.74
484.821	9736.73
485.025	9425.43
485.229	9736.73
485.433	9447.96
485.637	9570.84
485.841	9267.74
486.045	9325.08
486.249	9318.94
486.453	9320.99
486.657	9554.46
486.861	9804.31
487.065	9320.99
487.269	9372.19
487.473	9280.03
487.677	9497.11
487.881	9613.85
488.085	9366.04
488.289	9753.11
488.493	9353.76
488.697	9634.33
488.901	9501.21
489.105	9425.43
489.309	9556.5
489.512	9765.4
489.716	9746.97
489.92	9769.49
490.124	9749.01
490.328	9783.83
490.531	9632.28
490.735	9716.25
490.939	9767.45
491.143	9734.68
491.346	9798.17
491.55	10027.54
491.754	9886.23
491.958	10041.87
492.161	9832.98
492.365	10091.02
492.569	9814.55
492.772	9830.93
492.976	10267.15
493.18	10250.77
493.383	10261.01
493.587	10342.92
493.79	10265.1
493.994	10207.76
494.197	10285.58
494.401	10660.36
494.605	10521.1
494.808	10576.39
495.012	10641.93
495.215	10828.29
495.419	10932.74
495.622	10828.29
495.825	11057.67
496.029	10899.97
496.232	11108.87
496.436	11287.04
496.639	11643.39
496.843	11354.62
497.046	11606.52
497.249	11526.65
497.453	11672.06
497.656	11831.8
497.859	12114.42
498.063	11944.44
498.266	12388.85
498.469	12067.31
498.673	12229.1
498.876	12560.88
499.079	12878.31
499.282	12751.34
499.485	12636.65
499.689	12993
499.892	13117.92
500.095	13122.02
500.298	13572.57
500.501	13445.6
500.705	13926.87
500.908	13906.39
501.111	14047.7
501.314	14283.22
501.517	14539.21
501.72	14406.09
501.923	14473.68
502.126	14848.46
502.329	14815.69
502.532	15051.2
502.735	15055.3
502.938	15428.03
503.141	15241.67
503.344	15620.54
503.547	16009.65
503.75	15759.8
503.953	16099.76
504.156	16468.4
504.359	16492.97
504.562	16378.29
504.765	16927.14
504.968	17088.93
505.17	17041.83
505.373	17404.32
505.576	17678.75
505.779	17656.22
505.982	17899.93
506.185	18409.87
506.387	18157.97
506.59	18542.99
506.793	18692.49
506.996	18641.29
507.198	19132.81
507.401	18919.82
507.604	19429.76
507.807	19589.5
508.009	19845.5
508.212	19851.64
508.415	20011.39
508.617	20357.49
508.82	20437.36
509.022	20316.53
509.225	21092.71
509.428	21094.76
509.63	21137.77
509.833	21145.96
510.035	21905.76
510.238	21868.89
510.44	21825.89
510.643	22376.79
510.845	22569.3
511.048	22380.89
511.25	22677.84
511.453	22956.36
511.655	23693.63
511.858	23155.02
512.06	23720.26
512.262	24041.79
512.465	24011.07
512.667	24428.85
512.87	24539.44
513.072	24449.33
513.274	25229.61
513.477	25112.88
513.679	25223.47
513.881	25440.55
514.084	26030.37
514.286	25780.51
514.488	26206.49
514.69	26554.65
514.893	26720.53
515.095	27117.84
515.297	27130.12
515.499	27220.24
515.701	27564.29
515.904	27719.94
516.106	27881.73
516.308	27883.78
516.51	28432.63
516.712	28301.56
516.914	28465.4
517.116	29178.09
517.318	29186.29
517.52	29421.8
517.722	29444.33
517.925	29954.27
518.127	30195.93
518.329	30204.13
518.531	30433.5
518.733	30300.38
518.935	30963.92
519.136	30918.87
519.338	31428.81
519.54	31699.14
519.742	31682.76
519.944	31606.98
520.146	31983.81
520.348	32454.84
520.55	32434.36
520.752	33003.7
520.954	33450.16
521.155	32993.46
521.357	33450.16
521.559	33482.92
521.761	34037.92
521.963	33990.82
522.164	34267.3
522.366	34285.73
522.568	34648.22
522.77	34764.95
522.971	35192.98
523.173	34953.37
523.375	34977.94
523.576	35479.69
523.778	35405.97
523.98	35940.49
524.181	35950.73
524.383	36102.28
524.584	36274.31
524.786	36333.7
524.988	36176
525.189	37120.12
525.391	37118.07
525.592	36911.22
525.794	37107.83
525.995	37154.93
526.197	37089.4
526.398	37527.66
526.6	37613.68
526.801	37918.82
527.003	38201.44
527.204	37970.02
527.406	38086.76
527.607	37947.5
527.808	38365.28
528.01	37871.72
528.211	38053.99
528.412	39211.09
528.614	38803.55
528.815	38951
529.016	38965.34
529.218	38301.79
529.419	38844.51
529.62	38934.62
529.822	38824.03
530.023	39075.93
530.224	39403.6
530.425	39297.11
530.626	38955.1
530.828	38756.44
531.029	39821.39
531.23	39153.75
531.431	39270.48
531.632	39309.39
531.833	39549.01
532.035	39127.13
532.236	39635.02
532.437	39647.31
532.638	39446.61
532.839	39714.89
533.04	39813.2
533.241	39501.9
533.442	39946.31
533.643	39569.49
533.844	39768.14
534.045	40011.85
534.246	39632.97
534.447	40054.86
534.648	39712.84
534.849	39805
535.05	39483.47
535.251	39647.31
535.451	39487.57
535.652	39923.79
535.853	39553.1
536.054	39919.69
536.255	39440.46
536.456	39260.24
536.657	40222.79
536.857	39796.81
537.058	39419.99
537.259	39964.74
537.46	39438.42
537.66	39755.85
537.861	39655.5
538.062	39755.85
538.263	40022.09
538.463	39493.71
538.664	39870.54
538.865	39733.32
539.065	40157.25
539.266	39686.22
539.466	39927.88
539.667	39311.44
539.868	39845.96
540.068	39331.92
540.269	39297.11
540.469	39712.84
540.67	39534.67
540.87	39688.27
541.071	39430.22
541.271	39680.08
541.472	39692.36
541.672	39401.55
541.873	39284.82
542.073	38699.1
542.274	39764.04
542.474	39067.73
542.675	39180.37
542.875	39762
543.075	39514.19
543.276	39120.98
543.476	39610.45
543.676	39358.55
543.877	39712.84
544.077	39481.42
544.277	39213.14
544.478	39202.9
544.678	39508.05
544.878	39317.59
545.078	39374.93
545.279	39526.48
545.479	39131.22
545.679	39297.11
545.879	39321.68
546.079	39272.53
546.28	38883.42
546.48	39190.61
546.68	39512.14
546.88	39268.44
547.08	39434.32
547.28	38994.01
547.48	38412.38
547.68	39149.65
547.88	38998.1
548.081	38946.9
548.281	39217.24
548.481	39063.64
548.681	39297.11
548.881	39204.95
549.081	39043.16
549.28	38877.27
549.48	38858.84
549.68	38684.76
549.88	39260.24
550.08	38699.1
550.28	39073.88
550.48	38672.48
550.68	39473.23
550.88	38848.6
551.08	39120.98
551.279	38985.82
551.479	38486.11
551.679	39104.6
551.879	38602.85
552.079	38895.71
552.278	38664.28
552.478	38805.59
552.678	38748.25
552.878	39137.37
553.077	38539.36
553.277	38717.53
553.477	39028.82
553.676	38506.59
553.876	38699.1
554.076	38441.06
554.275	38326.37
554.475	38174.82
554.674	38717.53
554.874	38719.58
555.074	38389.86
555.273	38811.74
555.473	38645.85
555.672	38183.01
555.872	38588.51
556.071	38135.91
556.271	37986.41
556.47	37951.59
556.67	37711.98
556.869	38187.11
557.068	38211.68
557.268	38068.33
557.467	38494.3
557.667	38295.65
557.866	38246.5
558.065	38183.01
558.265	37937.26
558.464	37830.76
558.663	38549.6
558.863	37357.68
559.062	37970.02
559.261	37378.16
559.461	38318.18
559.66	37470.32
559.859	37564.53
560.058	37415.02
560.258	37421.17
560.457	37318.77
560.656	37711.98
560.855	37505.13
561.054	37490.8
561.253	37089.4
561.453	37304.43
561.652	37355.63
561.851	37656.68
562.05	37152.88
562.249	36593.79
562.448	37097.59
562.647	36784.25
562.846	37232.75
563.045	37130.36
563.244	36454.53
563.443	36997.24
563.642	36444.29
563.841	36530.3
564.04	36501.63
564.239	37038.2
564.438	36411.52
564.637	36446.33
564.836	36794.49
565.035	36094.08
565.234	36475.01
565.432	36259.97
565.631	36130.95
565.83	36374.66
566.029	35840.14
566.228	36339.84
566.427	36061.32
566.625	35889.29
566.824	35584.14
567.023	35922.05
567.222	35563.66
567.42	35762.31
567.619	35412.11
567.818	35434.64
568.016	35397.77
568.215	35545.23
568.414	35154.07
568.612	35784.84
568.811	35266.7
569.01	35201.17
569.208	34848.92
569.407	35436.69
569.605	35102.87
569.804	35397.77
570.002	34762.9
570.201	34934.93
570.4	34535.58
570.598	34648.22
570.797	34578.59
570.995	34539.68
571.193	34193.57
571.392	34463.9
571.59	34517.15
571.789	34586.78
571.987	33974.44
572.186	34209.95
572.384	33878.18
572.582	34535.58
572.781	34373.79
572.979	33642.67
573.177	33968.29
573.376	33976.48
573.574	34035.88
573.772	33939.62
573.971	33626.28
574.169	33839.27
574.367	33448.11
574.565	33515.69
574.763	33474.73
574.962	33517.74
575.16	32755.89
575.358	33374.38
575.556	32872.63
575.754	33196.21
575.952	32891.06
576.151	33220.78
576.349	32350.4
576.547	32975.03
576.745	32762.04
576.943	32823.48
577.141	32655.54
577.339	32811.19
577.537	32178.37
577.735	32448.7
577.933	32307.39
578.131	32518.33
578.329	32059.59
578.527	31924.42
578.725	32284.86
578.923	31875.27
579.121	31908.04
579.319	31551.69
579.516	31762.63
579.714	31617.22
579.912	31740.1
580.11	31551.69
580.308	31676.62
580.506	31383.76
580.704	31086.8
580.901	31652.04
581.099	31531.21
581.297	31152.34
581.495	31174.86
581.692	31271.12
581.89	30746.84
582.088	30998.74
582.285	30642.39
582.483	31000.79
582.681	30507.23
582.878	30519.51
583.076	30060.77
583.274	30595.29
583.471	30097.63
583.669	30367.96
583.866	29860.07
584.064	30114.02
584.262	30040.29
584.459	30202.08
584.657	29962.47
584.854	30124.25
585.052	29530.34
585.249	30015.71
585.447	29561.06
585.644	29389.03
585.841	29556.97
586.039	29833.44
586.236	28899.57
586.434	29116.65
586.631	29219.05
586.828	29255.92
587.026	29274.35
587.223	28889.33
587.42	28883.19
587.618	29280.49
587.815	28422.39
588.012	28838.13
588.21	28625.14
588.407	28965.1
588.604	28459.26
588.801	28139.77
588.999	28291.32
589.196	28254.46
589.393	28238.08
589.59	27894.02
589.787	27869.44
589.984	28197.12
590.182	27771.14
590.379	28020.99
590.576	27834.63
590.773	27586.82
590.97	27609.35
591.167	27982.08
591.364	27316.49
591.561	27373.83
591.758	27148.56
591.955	27574.53
592.152	27382.02
592.349	27150.6
592.546	27201.8
592.743	27115.79
592.94	26630.42
593.137	26802.45
593.334	26962.19
593.531	26257.69
593.727	26575.13
593.924	26523.93
594.121	26257.69
594.318	26329.37
594.515	26284.31
594.712	26505.49
594.908	26054.94
595.105	26226.97
595.302	25942.3
595.499	25874.72
595.696	26032.41
595.892	25690.4
596.089	25860.38
596.286	25993.5
596.482	25454.89
596.679	25555.24
596.876	25524.52
597.072	25528.61
597.269	25493.8
597.466	25235.75
597.662	25202.99
597.859	25110.83
598.055	25200.94
598.252	24903.98
598.448	24742.19
598.645	24879.41
598.841	24449.33
599.038	24863.02
599.234	24754.48
599.431	24381.75
599.627	23898.43
599.824	24531.25
600.02	24293.69
600.217	24234.3
600.413	24162.62
600.609	24248.63
600.806	23724.35
601.002	23908.67
601.198	23925.05
601.395	23867.71
601.591	23478.6
601.787	23839.04
601.984	23730.5
602.18	23677.25
602.376	23406.92
602.572	23445.83
602.769	23298.38
602.965	23152.97
603.161	23521.6
603.357	23325
603.553	23054.67
603.75	22958.41
603.946	22737.23
604.142	23136.59
604.338	22683.98
604.534	22542.67
604.73	22614.35
604.926	22616.4
605.122	22602.07
605.318	22735.18
605.514	22241.62
605.71	22278.49
605.906	22288.73
606.102	22487.38
606.298	22391.12
606.494	21930.33
606.69	22028.63
606.886	22057.31
607.082	22085.98
607.278	21836.13
607.474	21440.87
607.67	22026.59
607.866	21586.27
608.062	22239.58
608.257	21590.37
608.453	21582.18
608.649	21530.98
608.845	21555.55
609.041	21444.96
609.236	21770.59
609.432	21643.62
609.628	21311.85
609.824	21158.25
610.019	21240.17
610.215	21258.6
610.411	20871.53
610.606	20939.12
610.802	21332.33
610.998	20863.34
611.193	21305.7
611.389	21004.65
611.584	20828.52
611.78	20822.38
611.976	21078.38
612.171	20922.73
612.367	20840.81
612.562	21006.7
612.758	20687.21
612.953	20707.69
613.149	20679.02
613.344	20586.86
613.539	20824.43
613.735	20533.62
613.93	20707.69
614.126	20623.73
614.321	20754.8
614.517	20386.16
614.712	20291.96
614.907	20279.67
615.103	20427.12
615.298	20246.9
615.493	20449.65
615.688	20021.63
615.884	20382.07
616.079	20050.3
616.274	20304.24
616.47	20068.73
616.665	20255.09
616.86	20185.46
617.055	19990.91
617.25	19822.97
617.445	20107.64
617.641	19351.94
617.836	19945.85
618.031	19696
618.226	19534.21
618.421	19644.8
618.616	19827.07
618.811	19087.75
619.006	19732.86
619.201	19294.6
619.396	19267.97
619.591	18925.96
619.786	19272.07
619.981	18919.82
620.176	19124.61
620.371	19067.27
620.566	18837.9
620.761	18377.11
620.956	18751.88
621.151	18542.99
621.346	18901.39
621.541	18317.72
621.735	18540.94
621.93	18243.99
622.125	18164.12
622.32	17916.31
622.515	18182.55
622.709	17904.03
622.904	18008.47
623.099	17676.7
623.294	17598.88
623.488	17486.24
623.683	17695.13
623.878	17193.38
624.072	17586.59
624.267	17447.33
624.462	17295.78
624.656	16943.53
624.851	17037.73
625.046	16849.32
625.24	16531.89
625.435	16593.33
625.629	16744.88
625.824	16247.22
626.018	16538.03
626.213	16208.31
626.407	16265.65
626.602	15784.38
626.796	16165.3
626.991	15894.97
627.185	15897.02
627.38	15860.15
627.574	15985.08
627.768	15829.43
627.963	15665.6
628.157	15368.64
628.352	15395.26
628.546	15067.59
628.74	15378.88
628.935	15030.73
629.129	15387.07
629.323	14963.14
629.517	14877.13
629.712	14856.65
629.906	14799.3
630.1	14524.88
630.294	14782.92
630.489	14422.48
630.683	14518.73
630.877	14293.46
631.071	14414.29
631.265	14252.5
631.459	14227.92
631.653	14035.41
631.848	14039.51
632.042	13777.37
632.236	13928.92
632.43	13978.07
632.624	13785.56
632.818	13337.06
633.012	13558.24
633.206	13359.58
633.4	13367.77
633.594	13296.1
633.788	13363.68
633.982	13330.91
634.176	13294.05
634.369	12995.04
634.563	13068.77
634.757	12988.9
634.951	12872.17
635.145	12788.2
635.339	12763.62
635.533	12888.55
635.726	12679.66
635.92	12597.74
636.114	12585.45
636.308	12417.52
636.501	12308.97
636.695	12544.49
636.889	12364.27
637.083	12194.29
637.276	12149.23
637.47	12257.78
637.664	11952.63
637.857	11930.1
638.051	12016.12
638.244	11661.82
638.438	11737.59
638.632	11653.62
638.825	11688.44
639.019	11481.6
639.212	11424.25
639.406	11430.4
639.599	11477.5
639.793	11407.87
639.986	11211.26
640.18	11340.29
640.373	11139.58
640.567	11047.43
640.76	10983.94
640.954	10951.17
641.147	10748.42
641.34	11082.24
641.534	10918.4
641.727	10672.65
641.92	10856.97
642.114	10744.33
642.307	10766.85
642.5	10471.95
642.694	10517
642.887	10492.43
643.08	10400.27
643.273	10422.8
643.467	10373.64
643.66	10164.75
643.853	10218
644.046	9951.76
644.239	10080.78
644.432	10127.89
644.626	10136.08
644.819	9951.76
645.012	9869.84
645.205	9835.03
645.398	9710.1
645.591	9832.98
645.784	9742.87
645.977	9642.52
646.17	9769.49
646.363	9701.91
646.556	9552.41
646.749	9400.86
646.942	9452.06
647.135	9284.12
647.328	9234.97
647.521	9226.78
647.714	9075.23
647.907	9169.44
648.099	9337.37
648.292	9075.23
648.485	8978.98
648.678	8813.09
648.871	8772.13
649.064	8833.57
649.256	9181.73
649.449	8804.9
649.642	8786.47
649.835	8673.83
650.027	8540.71
650.22	8509.99
650.413	8616.49
650.605	8632.87
650.798	8391.21
650.991	8505.9
651.183	8464.94
651.376	8409.64
651.568	8411.69
651.761	8176.17
651.954	8059.44
652.146	8061.49
652.339	8157.74
652.531	8026.67
652.724	8129.07
652.916	7764.53
653.109	7936.56
653.301	7651.89
653.494	8081.97
653.686	7696.95
653.879	7965.23
654.071	7688.76
654.263	7660.09
654.456	7772.72
654.648	7629.37
654.84	7559.74
655.033	7490.1
655.225	7486.01
655.417	7494.2
655.61	7506.49
655.802	7520.82
655.994	7297.6
656.186	7275.07
656.379	7219.77
656.571	7197.24
656.763	7203.39
656.955	7166.53
657.148	6994.5
657.34	7309.88
657.532	7144
657.724	7084.61
657.916	6939.2
658.108	6984.26
658.3	6871.62
658.492	6883.91
658.684	6888
658.876	6695.49
659.068	6707.78
659.26	6707.78
659.452	6763.08
659.644	6758.98
659.836	6416.97
660.028	6658.63
660.22	6326.86
660.412	6570.57
660.604	6513.22
660.796	6462.02
660.988	6519.37
661.18	6453.83
661.372	6289.99
661.563	6253.13
661.755	6341.19
661.947	6179.4
662.139	6371.91
662.331	6216.27
662.522	6103.63
662.714	5925.46
662.906	6050.38
663.097	5999.18
663.289	5907.02
663.481	6085.2
663.673	6013.52
663.864	5954.13
664.056	5796.43
664.247	5966.42
664.439	5904.98
664.631	5839.44
664.822	5790.29
665.014	5855.83
665.205	5681.75
665.397	5700.18
665.588	5806.67
665.78	5657.17
665.971	5548.63
666.163	5567.06
666.354	5501.53
666.546	5612.12
666.737	5603.93
666.929	5509.72
667.12	5405.27
667.311	5669.46
667.503	5505.62
667.694	5321.31
667.885	5304.92
668.077	5143.13
668.268	5335.64
668.459	5386.84
668.651	5364.31
668.842	5321.31
669.033	5315.16
669.224	5216.86
669.416	5145.18
669.607	5040.73
669.798	5118.56
669.989	5229.15
670.18	5030.49
670.371	5120.6
670.563	5079.65
670.754	4991.58
670.945	4889.18
671.136	5044.83
671.327	5139.04
671.518	4897.38
671.709	4893.28
671.9	4977.25
672.091	4840.03
672.282	4821.6
672.473	4946.53
672.664	4725.35
672.855	4833.89
673.046	4936.29
673.237	4754.02
673.428	4819.55
673.619	4782.69
673.809	4592.23
674	4788.83
674.191	4741.73
674.382	4696.68
674.573	4659.81
674.764	4516.45
674.954	4631.14
675.145	4553.32
675.336	4545.13
675.527	4631.14
675.717	4629.09
675.908	4405.86
676.099	4479.59
676.289	4479.59
676.48	4358.76
676.671	4506.21
676.861	4645.48
677.052	4536.93
677.243	4291.18
677.433	4549.22
677.624	4426.34
677.814	4237.93
678.005	4422.25
678.195	4282.99
678.386	4321.9
678.576	4336.23
678.767	4252.27
678.957	4266.6
679.148	4244.07
679.338	4336.23
679.529	4301.42
679.719	4219.5
679.909	4258.41
680.1	4184.68
680.29	4239.98
680.481	4190.83
680.671	4190.83
680.861	4168.3
681.052	4282.99
681.242	4225.64
681.432	4244.07
681.622	3961.45
681.813	4125.29
682.003	4086.38
682.193	4098.67
682.383	3961.45
682.573	4016.75
682.764	4041.32
682.954	4072.04
683.144	4160.11
683.334	4008.56
683.524	4016.75
683.714	4065.9
683.904	4033.13
684.094	3936.88
684.284	3879.54
684.474	3992.17
684.664	4076.14
684.854	3961.45
685.044	3959.41
685.234	3775.09
685.424	4026.99
685.614	3803.76
685.804	3844.72
685.994	3922.54
686.184	3834.48
686.374	3746.42
686.564	3627.64
686.753	3824.24
686.943	3697.27
687.133	3721.84
687.323	3705.46
687.513	3668.59
687.702	3580.53
687.892	3691.12
688.082	3562.1
688.272	3818.1
688.461	3633.78
688.651	3660.4
688.841	3504.76
689.03	3541.62
689.22	3555.96
689.41	3594.87
689.599	3459.7
689.789	3566.2
689.979	3478.13
690.168	3533.43
690.358	3449.46
690.547	3316.34
690.737	3304.06
690.926	3428.98
691.116	3316.34
691.305	3359.35
691.495	3191.42
691.684	3154.55
691.874	3330.68
692.063	3142.27
692.252	3117.69
692.442	3248.76
692.631	3070.59
692.82	3078.78
693.01	3070.59
693.199	3129.98
693.388	3054.2
693.578	3029.63
693.767	3029.63
693.956	3058.3
694.146	2996.86
694.335	2921.09
694.524	2955.9
694.713	2935.42
694.902	2935.42
695.092	2927.23
695.281	2781.82
695.47	2927.23
695.659	2982.53
695.848	2884.22
696.037	2679.43
696.226	2943.61
696.415	2802.3
696.604	2849.41
696.793	2757.25
696.982	2837.12
697.171	2798.21
697.36	2824.83
697.549	2781.82
697.738	2734.72
697.927	2648.71
698.116	2765.44
698.305	2630.27
698.494	2736.77
698.683	2763.39
698.872	2865.79
699.061	2613.89
699.25	2611.84
699.438	2697.86
699.627	2660.99
699.816	2658.95
700.005	2574.98
700.193	2497.16
700.382	2566.79
700.571	2640.51
700.76	2583.17
700.948	2593.41
701.137	2607.75
701.326	2583.17
701.514	2511.49
701.703	2632.32
701.892	2488.96
702.08	2558.6
702.269	2472.58
702.457	2333.32
702.646	2462.34
702.834	2503.3
703.023	2468.48
703.212	2517.64
703.4	2382.47
703.589	2396.81
703.777	2525.83
703.965	2423.43
704.154	2388.61
704.342	2568.84
704.531	2431.62
704.719	2382.47
704.907	2462.34
705.096	2431.62
705.284	2509.44
705.472	2429.57
705.661	2448.01
705.849	2396.81
706.037	2388.61
706.226	2394.76
706.414	2316.94
706.602	2368.13
706.79	2323.08
706.979	2378.37
707.167	2474.63
707.355	2376.33
707.543	2339.46
707.731	2474.63
707.919	2419.33
708.107	2351.75
708.296	2355.85
708.484	2366.09
708.672	2423.43
708.86	2241.16
709.048	2357.89
709.236	2378.37
709.424	2374.28
709.612	2366.09
709.8	2398.85
709.988	2271.88
710.176	2384.52
710.364	2308.74
710.551	2435.72
710.739	2333.32
710.927	2366.09
711.115	2312.84
711.303	2337.41
711.491	2361.99
711.679	2361.99
711.866	2304.65
712.054	2480.77
712.242	2431.62
712.43	2327.18
712.617	2355.85
712.805	2273.93
712.993	2450.05
713.181	2384.52
713.368	2308.74
713.556	2411.14
713.744	2296.46
713.931	2343.56
714.119	2456.2
714.306	2417.29
714.494	2228.87
714.682	2388.61
714.869	2316.94
715.057	2355.85
715.244	2380.42
715.432	2411.14
715.619	2306.7
715.807	2396.81
715.994	2331.27
716.182	2415.24
716.369	2423.43
716.556	2353.8
716.744	2353.8
716.931	2357.89
717.119	2292.36
717.306	2394.76
717.493	2333.32
717.681	2255.5
717.868	2529.92
718.055	2318.98
718.242	2392.71
718.43	2378.37
718.617	2366.09
718.804	2411.14
718.991	2304.65
719.179	2290.31
719.366	2388.61
719.553	2366.09
719.74	2460.29
719.927	2310.79
720.114	2308.74
720.301	2333.32
720.488	2296.46
720.676	2382.47
720.863	2337.41
721.05	2441.86
721.237	2417.29
721.424	2411.14
721.611	2378.37
721.798	2450.05
721.985	2343.56
722.172	2302.6
722.358	2341.51
722.545	2357.89
722.732	2472.58
722.919	2452.1
723.106	2388.61
723.293	2409.09
723.48	2300.55
723.667	2437.77
723.853	2306.7
724.04	2538.12
724.227	2456.2
724.414	2513.54
724.6	2353.8
724.787	2394.76
724.974	2423.43
725.161	2478.72
725.347	2333.32
725.534	2364.04
725.72	2472.58
725.907	2429.57
726.094	2534.02
726.28	2529.92
726.467	2370.18
726.653	2407.05
726.84	2409.09
727.027	2534.02
727.213	2341.51
727.4	2357.89
727.586	2431.62
727.773	2495.11
727.959	2470.53
728.145	2402.95
728.332	2372.23
728.518	2390.66
728.705	2615.94
728.891	2439.81
729.077	2364.04
729.264	2398.85
729.45	2491.01
729.636	2517.64
729.823	2378.37
730.009	2425.48
730.195	2402.95
730.382	2421.38
730.568	2491.01
730.754	2413.19
730.94	2417.29
731.126	2484.87
731.313	2525.83
731.499	2445.96
731.685	2464.39
731.871	2396.81
732.057	2482.82
732.243	2456.2
732.429	2482.82
732.615	2357.89
732.801	2337.41
732.987	2323.08
733.173	2452.1
733.359	2409.09
733.545	2554.5
733.731	2390.66
733.917	2583.17
734.103	2441.86
734.289	2468.48
734.475	2382.47
734.661	2462.34
734.847	2501.25
735.033	2542.21
735.219	2523.78
735.404	2470.53
735.59	2454.15
735.776	2368.13
735.962	2304.65
736.148	2429.57
736.333	2376.33
736.519	2376.33
736.705	2366.09
736.89	2425.48
737.076	2529.92
737.262	2316.94
737.447	2296.46
737.633	2290.31
737.819	2349.7
738.004	2364.04
738.19	2366.09
738.375	2345.61
738.561	2460.29
738.747	2368.13
738.932	2347.65
739.118	2407.05
739.303	2431.62
739.489	2484.87
739.674	2218.63
739.859	2361.99
740.045	2278.02
740.23	2396.81
740.416	2263.69
740.601	2411.14
740.786	2312.84
740.972	2267.78
741.157	2364.04
741.342	2228.87
741.528	2341.51
741.713	2247.3
741.898	2257.54
742.084	2206.35
742.269	2226.82
742.454	2263.69
742.639	2253.45
742.824	2138.76
743.01	2159.24
743.195	2218.63
743.38	2185.87
743.565	2181.77
743.75	2226.82
743.935	2132.62
744.12	2261.64
744.305	2054.8
744.49	2067.08
744.675	2224.78
744.86	2050.7
745.045	2226.82
745.23	2235.02
745.415	2151.05
745.6	2112.14
745.785	2114.19
745.97	2114.19
746.155	2062.99
746.34	2046.6
746.525	2038.41
746.71	2085.51
746.895	2024.08
747.079	1952.4
747.264	1890.96
747.449	2028.17
747.634	1927.82
747.819	2062.99
748.003	1864.33
748.188	1972.88
748.373	1923.73
748.557	1923.73
748.742	1841.81
748.927	1925.77
749.111	1817.23
749.296	1878.67
749.481	1860.24
749.665	1837.71
749.85	1788.56
750.034	1839.76
750.219	1776.27
750.404	1768.08
750.588	1831.57
750.773	1727.12
750.957	1733.26
751.141	1833.61
751.326	1645.2
751.51	1813.13
751.695	1755.79
751.879	1680.02
752.064	1766.03
752.248	1749.65
752.432	1809.04
752.617	1538.71
752.801	1688.21
752.985	1680.02
753.17	1725.07
753.354	1600.15
753.538	1534.61
753.722	1632.91
753.907	1497.75
754.091	1532.56
754.275	1612.43
754.459	1616.53
754.643	1622.67
754.828	1489.56
755.012	1501.84
755.196	1550.99
755.38	1510.04
755.564	1530.52
755.748	1460.88
755.932	1454.74
756.116	1403.54
756.3	1415.83
756.484	1559.19
756.668	1438.36
756.852	1387.16
757.036	1397.4
757.22	1405.59
757.404	1327.77
757.588	1307.29
757.772	1346.2
757.956	1329.81
758.14	1401.49
758.323	1344.15
758.507	1348.25
758.691	1335.96
758.875	1364.63
759.059	1311.38
759.242	1315.48
759.426	1297.05
759.61	1331.86
759.794	1333.91
759.977	1192.6
760.161	1344.15
760.345	1249.94
760.528	1278.62
760.712	1262.23
760.895	1229.46
761.079	1213.08
761.263	1208.98
761.446	1251.99
761.63	1145.5
761.813	1172.12
761.997	1225.37
762.18	1190.55
762.364	1206.94
762.547	1137.31
762.731	1131.16
762.914	1135.26
763.098	1122.97
763.281	1079.96
763.464	1112.73
763.648	1071.77
763.831	1114.78
764.015	1047.19
764.198	1155.74
764.381	1057.43
764.564	1157.79
764.748	1088.15
764.931	1133.21
765.114	1024.67
765.297	1129.11
765.481	1088.15
765.664	1118.87
765.847	1102.49
766.03	1002.14
766.213	1084.06
766.397	1043.1
766.58	1045.15
766.763	1000.09
766.946	1120.92
767.129	998.04
767.312	1043.1
767.495	944.8
767.678	967.32
767.861	1075.87
768.044	1008.28
768.227	1051.29
768.41	977.56
768.593	928.41
768.776	909.98
768.959	1020.57
769.142	1012.38
769.324	895.64
769.507	996
769.69	1024.67
769.873	940.7
770.056	1026.71
770.239	934.56
770.421	991.9
770.604	942.75
770.787	909.98
770.97	928.41
771.152	856.73
771.335	850.59
771.518	844.45
771.7	907.93
771.883	864.93
772.066	805.53
772.248	926.36
772.431	940.7
772.613	850.59
772.796	836.25
772.978	942.75
773.161	955.04
773.343	887.45
773.526	836.25
773.708	912.03
773.891	846.49
774.073	883.36
774.256	830.11
774.438	866.97
774.621	758.43
774.803	840.35
774.985	727.71
775.168	807.58
775.35	768.67
775.532	758.43
775.715	787.1
775.897	797.34
776.079	744.1
776.261	809.63
776.444	834.21
776.626	834.21
776.808	819.87
776.99	729.76
777.173	770.72
777.355	686.75
777.537	740
777.719	758.43
777.901	772.77
778.083	682.66
778.265	717.47
778.447	778.91
778.629	721.57
778.811	744.1
778.993	662.18
779.175	668.32
779.357	696.99
779.539	690.85
779.721	672.42
779.903	682.66
780.085	621.22
780.267	641.7
780.449	641.7
780.631	613.03
780.812	656.03
780.994	545.44
781.176	658.08
781.358	617.12
781.54	563.87
781.721	590.5
781.903	582.31
782.085	555.68
782.267	594.59
782.448	621.22
782.63	580.26
782.812	623.27
782.993	561.83
783.175	584.35
783.357	653.98
783.538	596.64
783.72	537.25
783.901	545.44
784.083	484
784.264	502.43
784.446	481.96
784.627	514.72
784.809	563.87
784.99	553.63
785.172	529.06
785.353	574.11
785.535	567.97
785.716	535.2
785.897	496.29
786.079	508.58
786.26	504.48
786.441	471.72
786.623	486.05
786.804	430.76
786.985	547.49
787.167	455.33
787.348	465.57
787.529	457.38
787.71	506.53
787.891	492.2
788.073	447.14
788.254	412.32
788.435	451.24
788.616	492.2
788.797	391.84
788.978	412.32
789.159	455.33
789.34	426.66
789.522	402.08
789.703	389.8
789.884	438.95
790.065	412.32
790.246	438.95
790.427	447.14
790.607	391.84
790.788	400.04
790.969	381.6
791.15	434.85
791.331	420.52
791.512	303.78
791.693	342.69
791.874	406.18
792.054	363.17
792.235	406.18
792.416	322.21
792.597	357.03
792.778	375.46
792.958	379.56
793.139	359.08
793.32	395.94
793.5	228.01
793.681	363.17
793.862	340.65
794.042	350.89
794.223	299.69
794.404	357.03
794.584	324.26
794.765	268.97
794.945	289.45
795.126	334.5
795.306	297.64
795.487	322.21
795.667	367.27
795.848	379.56
796.028	332.45
796.209	391.84
796.389	268.97
796.57	318.12
796.75	256.68
796.93	293.54
797.111	305.83
797.291	369.32
797.471	305.83
797.652	350.89
797.832	326.31
798.012	209.58
798.192	211.62
798.373	285.35
798.553	318.12
798.733	328.36
798.913	246.44
799.093	264.87
799.274	291.49
799.454	346.79
799.634	305.83
799.814	264.87
799.994	228.01
800.174	301.73
800.354	258.73
800.534	211.62
800.714	219.82
800.894	307.88
801.074	217.77
801.254	230.06
801.434	262.82
801.614	303.78
801.794	250.53
801.974	608.93
802.154	201.38
802.334	207.53
802.514	232.1
802.693	215.72
802.873	146.09
803.053	244.39
803.233	248.49
803.413	248.49
803.592	228.01
803.772	162.47
803.952	242.34
804.131	228.01
804.311	193.19
804.491	172.71
804.67	203.43
804.85	281.25
805.03	217.77
805.209	217.77
805.389	236.2
805.568	242.34
805.748	209.58
805.928	232.1
806.107	158.38
806.287	221.86
806.466	219.82
806.646	219.82
806.825	213.67
807.004	121.51
807.184	211.62
807.363	268.97
807.543	201.38
807.722	144.04
807.901	137.9
808.081	78.51
808.26	234.15
808.439	195.24
808.619	176.81
808.798	139.94
808.977	121.51
809.156	178.86
809.336	156.33
809.515	182.95
809.694	154.28
809.873	172.71
810.052	162.47
810.231	262.82
810.411	146.09
810.59	133.8
810.769	185
810.948	119.46
811.127	150.18
811.306	209.58
811.485	225.96
811.664	185
811.843	162.47
812.022	225.96
812.201	180.9
812.38	158.38
812.559	141.99
812.737	146.09
812.916	160.42
813.095	146.09
813.274	96.94
813.453	125.61
813.632	187.05
813.811	170.66
813.989	76.46
814.168	166.57
814.347	154.28
814.526	113.32
814.704	94.89
814.883	127.66
815.062	172.71
815.24	137.9
815.419	76.46
815.598	68.27
815.776	78.51
815.955	180.9
816.133	82.6
816.312	137.9
816.49	74.41
816.669	80.55
816.847	185
817.026	135.85
817.204	96.94
817.383	119.46
817.561	90.79
817.74	182.95
817.918	199.34
818.097	88.75
818.275	160.42
818.453	74.41
818.632	129.7
818.81	129.7
818.988	119.46
819.167	76.46
819.345	129.7
819.523	193.19
819.701	117.42
819.879	94.89
820.058	96.94
820.236	174.76
820.414	127.66
820.592	117.42
820.77	70.31
820.948	125.61
821.127	105.13
821.305	92.84
821.483	105.13
821.661	127.66
821.839	123.56
822.017	141.99
822.195	121.51
822.373	105.13
822.551	96.94
822.729	84.65
822.907	146.09
823.085	121.51
823.262	105.13
823.44	80.55
823.618	144.04
823.796	68.27
823.974	137.9
824.152	66.22
824.329	96.94
824.507	121.51
824.685	125.61
824.863	90.79
825.04	29.35
825.218	88.75
825.396	117.42
825.574	98.99
825.751	-9.56
825.929	129.7
826.107	105.13
826.284	160.42
826.462	88.75
826.639	62.12
826.817	21.16
826.994	107.18
827.172	51.88
827.349	76.46
827.527	-1.37
827.704	23.21
827.882	86.7
828.059	94.89
828.237	47.79
828.414	121.51
828.591	51.88
828.769	78.51
828.946	49.83
829.124	164.52
829.301	105.13
829.478	35.5
829.655	121.51
829.833	72.36
830.01	60.07
830.187	60.07
830.364	64.17
830.542	51.88
830.719	66.22
830.896	94.89
831.073	107.18
831.25	86.7
831.427	139.94
831.604	62.12
831.782	135.85
831.959	166.57
832.136	70.31
832.313	129.7
832.49	105.13
832.667	96.94
832.844	90.79
833.021	68.27
833.198	29.35
833.374	60.07
833.551	78.51
833.728	121.51
833.905	2.73
834.082	31.4
834.259	78.51
834.436	70.31
834.612	25.26
834.789	68.27
834.966	141.99
835.143	125.61
835.319	107.18
835.496	76.46
835.673	113.32
835.85	35.5
836.026	21.16
836.203	62.12
836.38	55.98
836.556	17.07
836.733	78.51
836.909	64.17
837.086	105.13
837.262	47.79
837.439	45.74
837.616	101.03
837.792	64.17
837.968	68.27
838.145	66.22
838.321	113.32
838.498	4.78
838.674	6.83
838.851	103.08
839.027	66.22
839.203	-27.99
839.38	39.59
839.556	103.08
839.732	-9.56
839.909	19.11
840.085	88.75
840.261	2.73
840.437	68.27
840.614	0.68
840.79	101.03
840.966	21.16
841.142	96.94
841.318	72.36
841.494	70.31
841.671	55.98
841.847	47.79
842.023	12.97
842.199	117.42
842.375	92.84
842.551	31.4
842.727	12.97
842.903	146.09
843.079	31.4
843.255	-21.85
843.431	-13.65
843.607	60.07
843.783	39.59
843.959	6.83
844.134	55.98
844.31	111.27
844.486	0.68
844.662	47.79
844.838	62.12
845.013	94.89
845.189	76.46
845.365	80.55
845.541	-13.65
845.716	6.83
845.892	121.51
846.068	51.88
846.244	80.55
846.419	76.46
846.595	33.45
846.77	88.75
846.946	90.79
847.122	25.26
847.297	2.73
847.473	53.93
847.648	37.55
847.824	45.74
847.999	-21.85
848.175	19.11
848.35	-25.94
848.526	60.07
848.701	68.27
848.876	58.03
849.052	53.93
849.227	39.59
849.403	2.73
849.578	37.55
849.753	-1.37
849.929	41.64
850.104	31.4
850.279	31.4
850.454	109.22
850.63	53.93
850.805	23.21
850.98	-17.75
851.155	35.5
851.33	64.17
851.505	55.98
851.681	101.03
851.856	2.73
852.031	23.21
852.206	27.31
852.381	-5.46
852.556	-3.41
852.731	103.08
852.906	43.69
853.081	19.11
853.256	103.08
853.431	10.92
853.606	-25.94
853.781	21.16
853.956	41.64
854.131	86.7
854.305	37.55
854.48	-87.38
854.655	-21.85
854.83	41.64
855.005	-27.99
855.18	33.45
855.354	47.79
855.529	41.64
855.704	21.16
855.879	31.4
856.053	49.83
856.228	53.93
856.403	23.21
856.577	78.51
856.752	-42.32
856.926	47.79
857.101	39.59
857.276	6.83
857.45	17.07
857.625	-9.56
857.799	-3.41
857.974	-9.56
858.148	-5.46
858.323	74.41
858.497	-44.37
858.672	-79.19
858.846	37.55
859.02	-17.75
859.195	15.02
859.369	-27.99
859.543	-5.46
859.718	68.27
859.892	31.4
860.066	43.69
860.241	4.78
860.415	-81.24
860.589	27.31
860.763	68.27
860.938	-5.46
861.112	41.64
861.286	-7.51
861.46	-44.37
861.634	-46.42
861.808	10.92
861.982	92.84
862.157	-15.7
862.331	-21.85
862.505	55.98
862.679	-21.85
862.853	-9.56
863.027	27.31
863.201	53.93
863.375	15.02
863.549	43.69
863.722	55.98
863.896	58.03
864.07	-85.33
864.244	-27.99
864.418	47.79
864.592	25.26
864.766	25.26
864.939	41.64
865.113	-9.56
865.287	33.45
865.461	0.68
865.634	-3.41
865.808	-73.04
865.982	-40.28
866.156	103.08
866.329	-9.56
866.503	-9.56
866.676	12.97
866.85	-11.61
867.024	53.93
867.197	80.55
867.371	21.16
867.544	-5.46
867.718	-32.08
867.891	17.07
868.065	47.79
868.238	10.92
868.412	-9.56
868.585	17.07
868.759	-36.18
868.932	15.02
869.105	-7.51
869.279	-25.94
869.452	-50.52
869.625	21.16
869.799	-19.8
869.972	-13.65
870.145	72.36
870.319	-1.37
870.492	-13.65
870.665	-79.19
870.838	-52.56
871.011	-36.18
871.185	21.16
871.358	70.31
871.531	-21.85
871.704	-3.41
871.877	23.21
872.05	-23.89
872.223	41.64
872.396	-15.7
872.569	-66.9
872.742	-27.99
872.915	-17.75
873.088	-23.89
873.261	19.11
873.434	31.4
873.607	-9.56
873.78	47.79
873.953	64.17
874.126	25.26
874.299	-9.56
874.471	-44.37
874.644	19.11
874.817	-1.37
874.99	62.12
875.163	-3.41
875.335	64.17
875.508	15.02
875.681	15.02
875.853	-71
876.026	-17.75
876.199	21.16
876.371	-13.65
876.544	-34.13
876.717	2.73
876.889	-25.94
877.062	25.26
877.234	-52.56
877.407	12.97
877.579	-34.13
877.752	-46.42
877.924	37.55
878.097	0.68
878.269	-17.75
878.442	-66.9
878.614	43.69
878.786	53.93
878.959	-58.71
879.131	-91.48
879.303	-5.46
879.476	-23.89
879.648	45.74
879.82	-38.23
879.993	-38.23
880.165	21.16
880.337	-60.76
880.509	15.02
880.681	-9.56
880.854	-68.95
881.026	-30.04
881.198	45.74
881.37	2.73
881.542	2.73
881.714	-50.52
881.886	29.35
882.058	37.55
882.23	-13.65
882.402	17.07
882.574	12.97
882.746	-34.13
882.918	55.98
883.09	-52.56
883.262	-23.89
883.434	23.21
883.606	-48.47
883.778	-5.46
883.95	35.5
884.122	-40.28
884.293	2.73
884.465	6.83
884.637	31.4
884.809	-54.61
884.98	53.93
885.152	-9.56
885.324	-19.8
885.496	-21.85
885.667	27.31
885.839	-9.56
886.011	10.92
886.182	-19.8
886.354	4.78
886.525	-19.8
886.697	-19.8
886.869	-19.8
887.04	-15.7
887.212	-34.13
887.383	49.83
887.555	-23.89
887.726	-38.23
887.897	35.5
888.069	60.07
888.24	-34.13
888.412	12.97
888.583	4.78
888.754	-5.46
888.926	-46.42
889.097	-17.75
889.268	-25.94
889.44	10.92
889.611	-111.96
889.782	45.74
889.953	-23.89
890.125	-23.89
890.296	10.92
890.467	-23.89
890.638	37.55
890.809	31.4
890.98	-60.76
891.151	55.98
891.323	-1.37
891.494	74.41
891.665	17.07
891.836	-25.94
892.007	-27.99
892.178	-1.37
892.349	43.69
892.52	6.83
892.691	-62.8
892.862	-34.13
893.032	19.11
893.203	10.92
893.374	64.17
893.545	0.68
893.716	-40.28
893.887	68.27
894.057	-11.61
894.228	35.5
894.399	-56.66
894.57	25.26
894.74	-50.52
894.911	107.18
895.082	-1.37
895.253	41.64
895.423	-5.46
895.594	-15.7
895.764	-5.46
895.935	15.02
896.106	31.4
896.276	88.75
896.447	31.4
896.617	-71
896.788	-32.08
896.958	-81.24
897.129	-34.13
897.299	-56.66
897.47	2.73
897.64	-1.37
897.81	60.07
897.981	0.68
898.151	-38.23
898.322	17.07
898.492	-48.47
898.662	-66.9
898.832	37.55
899.003	51.88
899.173	-1.37
899.343	-11.61
899.513	0.68
