Data from USB4F104151__8__11-36-21-448.txt Node

Date: Fri Mar 14 11:36:21 EDT 2025
User: louis
Spectrometer: USB4F10415
Trigger mode: 4
Integration Time (sec): 2.000000E-2
Scans to average: 1
Electric dark correction enabled: true
Nonlinearity correction enabled: false
Boxcar width: 0
XAxis mode: Wavelengths
Number of Pixels in Spectrum: 3648
>>>>>Begin Spectral Data<<<<<
178.204	-115.37
178.424	-115.37
178.644	-115.37
178.864	-74.41
179.084	-88.75
179.304	40.28
179.524	-25.26
179.744	-45.74
179.964	25.94
180.184	-49.83
180.404	-0.68
180.624	13.65
180.844	52.56
181.064	-12.97
181.283	1.37
181.503	21.85
181.723	-21.16
181.943	1.37
182.163	7.51
182.383	15.7
182.602	75.09
182.822	-2.73
183.042	-12.97
183.262	-27.31
183.482	46.42
183.701	34.13
183.921	81.24
184.141	38.23
184.361	46.42
184.58	27.99
184.8	-49.83
185.02	62.8
185.239	27.99
185.459	-12.97
185.679	-45.74
185.898	81.24
186.118	30.04
186.338	44.37
186.557	15.7
186.777	-21.16
186.997	-47.79
187.216	-10.92
187.436	-2.73
187.655	25.94
187.875	50.52
188.095	-10.92
188.314	81.24
188.534	23.89
188.753	7.51
188.973	15.7
189.192	128.34
189.412	-27.31
189.631	7.51
189.851	13.65
190.07	71
190.29	3.41
190.509	48.47
190.729	-10.92
190.948	27.99
191.168	99.67
191.387	64.85
191.607	-41.64
191.826	7.51
192.045	56.66
192.265	3.41
192.484	128.34
192.704	97.62
192.923	46.42
193.142	87.38
193.362	19.8
193.581	58.71
193.8	64.85
194.02	11.61
194.239	97.62
194.458	34.13
194.678	40.28
194.897	32.08
195.116	97.62
195.335	-33.45
195.555	-21.16
195.774	13.65
195.993	5.46
196.212	19.8
196.432	81.24
196.651	60.76
196.87	77.14
197.089	34.13
197.308	30.04
197.528	103.76
197.747	-25.26
197.966	36.18
198.185	75.09
198.404	7.51
198.623	38.23
198.842	42.32
199.062	1.37
199.281	-0.68
199.5	-37.55
199.719	23.89
199.938	111.96
200.157	-15.02
200.376	-49.83
200.595	9.56
200.814	27.99
201.033	7.51
201.252	13.65
201.471	56.66
201.69	71
201.909	5.46
202.128	-2.73
202.347	56.66
202.566	-2.73
202.785	54.61
203.004	3.41
203.223	56.66
203.442	36.18
203.661	44.37
203.879	-21.16
204.098	52.56
204.317	-94.89
204.536	56.66
204.755	32.08
204.974	38.23
205.193	83.28
205.411	15.7
205.63	42.32
205.849	23.89
206.068	56.66
206.287	3.41
206.505	27.99
206.724	46.42
206.943	38.23
207.162	73.04
207.381	52.56
207.599	48.47
207.818	-80.55
208.037	34.13
208.255	25.94
208.474	64.85
208.693	64.85
208.911	27.99
209.13	71
209.349	3.41
209.567	64.85
209.786	-4.78
210.005	32.08
210.223	7.51
210.442	-2.73
210.661	11.61
210.879	38.23
211.098	30.04
211.316	36.18
211.535	44.37
211.753	79.19
211.972	54.61
212.191	-17.07
212.409	-19.11
212.628	15.7
212.846	-21.16
213.065	114
213.283	91.48
213.502	1.37
213.72	36.18
213.938	-17.07
214.157	48.47
214.375	36.18
214.594	97.62
214.812	15.7
215.031	48.47
215.249	103.76
215.467	40.28
215.686	46.42
215.904	71
216.122	19.8
216.341	58.71
216.559	52.56
216.778	21.85
216.996	7.51
217.214	23.89
217.432	52.56
217.651	11.61
217.869	-33.45
218.087	-0.68
218.306	81.24
218.524	-15.02
218.742	34.13
218.96	7.51
219.179	50.52
219.397	54.61
219.615	101.72
219.833	13.65
220.051	87.38
220.27	9.56
220.488	56.66
220.706	68.95
220.924	13.65
221.142	-21.16
221.36	36.18
221.578	-4.78
221.796	56.66
222.015	13.65
222.233	50.52
222.451	81.24
222.669	27.99
222.887	77.14
223.105	21.85
223.323	44.37
223.541	60.76
223.759	-8.87
223.977	73.04
224.195	95.57
224.413	64.85
224.631	-31.4
224.849	54.61
225.067	38.23
225.285	25.94
225.503	-19.11
225.721	77.14
225.939	11.61
226.157	-4.78
226.375	91.48
226.592	9.56
226.81	85.33
227.028	58.71
227.246	128.34
227.464	-47.79
227.682	11.61
227.9	68.95
228.117	81.24
228.335	-47.79
228.553	32.08
228.771	38.23
228.989	48.47
229.206	15.7
229.424	3.41
229.642	25.94
229.86	36.18
230.077	87.38
230.295	44.37
230.513	-2.73
230.731	-19.11
230.948	60.76
231.166	9.56
231.384	19.8
231.601	7.51
231.819	95.57
232.037	13.65
232.254	-25.26
232.472	-17.07
232.689	-6.83
232.907	40.28
233.125	-0.68
233.342	68.95
233.56	7.51
233.777	73.04
233.995	75.09
234.213	81.24
234.43	-0.68
234.648	-0.68
234.865	95.57
235.083	48.47
235.3	21.85
235.518	71
235.735	85.33
235.953	-8.87
236.17	120.15
236.388	-2.73
236.605	97.62
236.822	27.99
237.04	50.52
237.257	42.32
237.475	103.76
237.692	7.51
237.909	101.72
238.127	120.15
238.344	44.37
238.562	126.29
238.779	-17.07
238.996	-82.6
239.214	77.14
239.431	118.1
239.648	-25.26
239.865	36.18
240.083	-33.45
240.3	32.08
240.517	48.47
240.735	3.41
240.952	56.66
241.169	-10.92
241.386	38.23
241.603	30.04
241.821	9.56
242.038	38.23
242.255	32.08
242.472	-35.5
242.689	15.7
242.907	44.37
243.124	25.94
243.341	34.13
243.558	46.42
243.775	7.51
243.992	42.32
244.209	23.89
244.426	-29.35
244.643	97.62
244.86	23.89
245.078	42.32
245.295	23.89
245.512	152.92
245.729	83.28
245.946	50.52
246.163	-10.92
246.38	32.08
246.597	-17.07
246.814	11.61
247.031	23.89
247.248	56.66
247.464	13.65
247.681	46.42
247.898	40.28
248.115	36.18
248.332	27.99
248.549	-33.45
248.766	48.47
248.983	3.41
249.2	23.89
249.417	73.04
249.633	32.08
249.85	3.41
250.067	9.56
250.284	68.95
250.501	23.89
250.717	48.47
250.934	9.56
251.151	21.85
251.368	77.14
251.585	23.89
251.801	34.13
252.018	1.37
252.235	7.51
252.451	-19.11
252.668	30.04
252.885	56.66
253.102	60.76
253.318	13.65
253.535	154.96
253.752	7.51
253.968	-31.4
254.185	-12.97
254.401	9.56
254.618	95.57
254.835	15.7
255.051	23.89
255.268	40.28
255.484	40.28
255.701	87.38
255.917	56.66
256.134	-15.02
256.351	7.51
256.567	-17.07
256.784	152.92
257	3.41
257.217	-21.16
257.433	64.85
257.65	48.47
257.866	52.56
258.082	21.85
258.299	15.7
258.515	-29.35
258.732	3.41
258.948	19.8
259.165	64.85
259.381	60.76
259.597	89.43
259.814	11.61
260.03	40.28
260.246	32.08
260.463	46.42
260.679	-8.87
260.895	75.09
261.112	40.28
261.328	27.99
261.544	58.71
261.761	66.9
261.977	48.47
262.193	-4.78
262.409	15.7
262.626	95.57
262.842	11.61
263.058	7.51
263.274	-19.11
263.49	23.89
263.707	-0.68
263.923	32.08
264.139	-37.55
264.355	79.19
264.571	3.41
264.787	81.24
265.004	50.52
265.22	48.47
265.436	-10.92
265.652	3.41
265.868	7.51
266.084	95.57
266.3	46.42
266.516	44.37
266.732	42.32
266.948	54.61
267.164	32.08
267.38	-8.87
267.596	1.37
267.812	48.47
268.028	9.56
268.244	73.04
268.46	7.51
268.676	44.37
268.892	87.38
269.108	44.37
269.324	38.23
269.54	-41.64
269.756	54.61
269.972	-25.26
270.188	-10.92
270.403	34.13
270.619	-37.55
270.835	38.23
271.051	79.19
271.267	7.51
271.483	32.08
271.698	58.71
271.914	34.13
272.13	85.33
272.346	25.94
272.562	40.28
272.777	3.41
272.993	5.46
273.209	40.28
273.425	32.08
273.64	21.85
273.856	79.19
274.072	7.51
274.287	13.65
274.503	36.18
274.719	46.42
274.934	32.08
275.15	44.37
275.366	122.2
275.581	46.42
275.797	40.28
276.012	-12.97
276.228	15.7
276.444	79.19
276.659	52.56
276.875	5.46
277.09	-33.45
277.306	34.13
277.521	40.28
277.737	40.28
277.952	36.18
278.168	32.08
278.383	5.46
278.599	73.04
278.814	19.8
279.03	118.1
279.245	27.99
279.461	56.66
279.676	19.8
279.892	-35.5
280.107	54.61
280.322	-25.26
280.538	71
280.753	21.85
280.969	15.7
281.184	32.08
281.399	99.67
281.615	34.13
281.83	60.76
282.045	60.76
282.26	-0.68
282.476	93.52
282.691	44.37
282.906	52.56
283.122	46.42
283.337	34.13
283.552	46.42
283.767	13.65
283.983	36.18
284.198	58.71
284.413	58.71
284.628	-17.07
284.843	27.99
285.058	101.72
285.274	38.23
285.489	-0.68
285.704	1.37
285.919	-4.78
286.134	40.28
286.349	23.89
286.564	130.39
286.779	64.85
286.995	11.61
287.21	-4.78
287.425	42.32
287.64	23.89
287.855	44.37
288.07	17.75
288.285	44.37
288.5	130.39
288.715	60.76
288.93	77.14
289.145	21.85
289.36	19.8
289.575	73.04
289.79	15.7
290.004	60.76
290.219	114
290.434	60.76
290.649	-15.02
290.864	50.52
291.079	17.75
291.294	73.04
291.509	46.42
291.724	-17.07
291.938	-0.68
292.153	32.08
292.368	-0.68
292.583	50.52
292.798	75.09
293.012	81.24
293.227	122.2
293.442	54.61
293.657	97.62
293.871	-23.21
294.086	114
294.301	81.24
294.516	52.56
294.73	56.66
294.945	71
295.16	101.72
295.374	50.52
295.589	81.24
295.804	30.04
296.018	1.37
296.233	109.91
296.447	40.28
296.662	-25.26
296.877	89.43
297.091	-6.83
297.306	128.34
297.52	5.46
297.735	40.28
297.949	1.37
298.164	50.52
298.378	60.76
298.593	5.46
298.807	62.8
299.022	23.89
299.236	64.85
299.451	44.37
299.665	13.65
299.88	-6.83
300.094	25.94
300.309	-8.87
300.523	-6.83
300.737	21.85
300.952	-6.83
301.166	52.56
301.381	25.94
301.595	-12.97
301.809	15.7
302.024	114
302.238	36.18
302.452	-21.16
302.667	23.89
302.881	48.47
303.095	71
303.309	126.29
303.524	-12.97
303.738	93.52
303.952	25.94
304.166	64.85
304.381	27.99
304.595	23.89
304.809	85.33
305.023	85.33
305.237	32.08
305.452	75.09
305.666	62.8
305.88	105.81
306.094	73.04
306.308	85.33
306.522	50.52
306.736	3.41
306.95	66.9
307.164	107.86
307.379	-33.45
307.593	60.76
307.807	-2.73
308.021	85.33
308.235	56.66
308.449	71
308.663	77.14
308.877	36.18
309.091	60.76
309.305	46.42
309.519	-8.87
309.733	36.18
309.947	17.75
310.161	62.8
310.374	109.91
310.588	60.76
310.802	15.7
311.016	-25.26
311.23	32.08
311.444	15.7
311.658	11.61
311.872	38.23
312.085	38.23
312.299	97.62
312.513	66.9
312.727	52.56
312.941	68.95
313.154	-64.17
313.368	-10.92
313.582	89.43
313.796	-21.16
314.009	-27.31
314.223	75.09
314.437	27.99
314.651	32.08
314.864	103.76
315.078	134.48
315.292	42.32
315.505	-0.68
315.719	32.08
315.933	71
316.146	27.99
316.36	15.7
316.573	71
316.787	-25.26
317.001	56.66
317.214	-53.93
317.428	68.95
317.641	-4.78
317.855	68.95
318.068	116.05
318.282	21.85
318.495	75.09
318.709	-8.87
318.922	1.37
319.136	81.24
319.349	32.08
319.563	40.28
319.776	62.8
319.99	138.58
320.203	46.42
320.417	52.56
320.63	-2.73
320.843	42.32
321.057	62.8
321.27	-21.16
321.483	25.94
321.697	48.47
321.91	56.66
322.124	52.56
322.337	97.62
322.55	-31.4
322.763	50.52
322.977	83.28
323.19	23.89
323.403	68.95
323.617	48.47
323.83	11.61
324.043	30.04
324.256	56.66
324.469	15.7
324.683	103.76
324.896	-2.73
325.109	-39.59
325.322	3.41
325.535	36.18
325.748	73.04
325.962	-25.26
326.175	77.14
326.388	101.72
326.601	-8.87
326.814	64.85
327.027	32.08
327.24	38.23
327.453	60.76
327.666	83.28
327.879	13.65
328.092	60.76
328.305	1.37
328.518	44.37
328.731	38.23
328.944	-2.73
329.157	30.04
329.37	32.08
329.583	32.08
329.796	114
330.009	-45.74
330.222	44.37
330.435	52.56
330.648	48.47
330.861	52.56
331.073	50.52
331.286	23.89
331.499	73.04
331.712	-43.69
331.925	97.62
332.138	56.66
332.35	21.85
332.563	48.47
332.776	7.51
332.989	21.85
333.202	46.42
333.414	97.62
333.627	7.51
333.84	77.14
334.053	40.28
334.265	48.47
334.478	64.85
334.691	40.28
334.903	97.62
335.116	42.32
335.329	-41.64
335.541	64.85
335.754	1.37
335.966	27.99
336.179	81.24
336.392	-0.68
336.604	50.52
336.817	-12.97
337.029	79.19
337.242	13.65
337.454	85.33
337.667	23.89
337.88	62.8
338.092	17.75
338.305	64.85
338.517	66.9
338.729	71
338.942	-12.97
339.154	40.28
339.367	32.08
339.579	50.52
339.792	38.23
340.004	99.67
340.217	62.8
340.429	38.23
340.641	71
340.854	50.52
341.066	56.66
341.278	122.2
341.491	64.85
341.703	79.19
341.915	46.42
342.128	126.29
342.34	68.95
342.552	40.28
342.764	42.32
342.977	56.66
343.189	46.42
343.401	68.95
343.613	5.46
343.826	56.66
344.038	21.85
344.25	30.04
344.462	23.89
344.674	105.81
344.886	27.99
345.099	36.18
345.311	48.47
345.523	27.99
345.735	38.23
345.947	56.66
346.159	83.28
346.371	73.04
346.583	44.37
346.795	56.66
347.007	7.51
347.219	46.42
347.431	48.47
347.643	42.32
347.855	32.08
348.067	111.96
348.279	89.43
348.491	87.38
348.703	60.76
348.915	38.23
349.127	48.47
349.339	105.81
349.551	73.04
349.763	122.2
349.975	48.47
350.187	32.08
350.399	23.89
350.61	89.43
350.822	118.1
351.034	44.37
351.246	48.47
351.458	34.13
351.669	54.61
351.881	99.67
352.093	87.38
352.305	77.14
352.517	103.76
352.728	30.04
352.94	52.56
353.152	9.56
353.363	62.8
353.575	58.71
353.787	87.38
353.999	99.67
354.21	114
354.422	17.75
354.633	-0.68
354.845	159.06
355.057	30.04
355.268	89.43
355.48	54.61
355.692	42.32
355.903	134.48
356.115	27.99
356.326	56.66
356.538	32.08
356.749	48.47
356.961	46.42
357.172	73.04
357.384	46.42
357.595	46.42
357.807	36.18
358.018	101.72
358.23	-25.26
358.441	44.37
358.653	9.56
358.864	75.09
359.075	46.42
359.287	79.19
359.498	17.75
359.709	40.28
359.921	3.41
360.132	23.89
360.344	62.8
360.555	-4.78
360.766	46.42
360.977	27.99
361.189	46.42
361.4	107.86
361.611	62.8
361.823	60.76
362.034	64.85
362.245	-10.92
362.456	48.47
362.667	60.76
362.879	52.56
363.09	23.89
363.301	50.52
363.512	66.9
363.723	40.28
363.935	52.56
364.146	66.9
364.357	-6.83
364.568	95.57
364.779	-55.98
364.99	56.66
365.201	38.23
365.412	105.81
365.623	40.28
365.834	89.43
366.045	40.28
366.256	21.85
366.467	-43.69
366.678	87.38
366.889	50.52
367.1	15.7
367.311	38.23
367.522	118.1
367.733	75.09
367.944	122.2
368.155	56.66
368.366	136.53
368.577	17.75
368.788	46.42
368.999	58.71
369.209	56.66
369.42	38.23
369.631	105.81
369.842	32.08
370.053	89.43
370.264	79.19
370.474	36.18
370.685	93.52
370.896	68.95
371.107	52.56
371.317	46.42
371.528	87.38
371.739	99.67
371.95	64.85
372.16	40.28
372.371	7.51
372.582	-25.26
372.792	101.72
373.003	105.81
373.214	73.04
373.424	93.52
373.635	48.47
373.846	154.96
374.056	27.99
374.267	105.81
374.477	64.85
374.688	-15.02
374.898	48.47
375.109	138.58
375.319	73.04
375.53	19.8
375.74	73.04
375.951	50.52
376.161	1.37
376.372	89.43
376.582	50.52
376.793	68.95
377.003	79.19
377.214	17.75
377.424	71
377.635	40.28
377.845	101.72
378.055	21.85
378.266	60.76
378.476	64.85
378.686	40.28
378.897	17.75
379.107	54.61
379.317	60.76
379.528	25.94
379.738	71
379.948	27.99
380.158	122.2
380.369	64.85
380.579	40.28
380.789	3.41
380.999	163.15
381.21	56.66
381.42	134.48
381.63	64.85
381.84	32.08
382.05	97.62
382.261	32.08
382.471	-6.83
382.681	27.99
382.891	54.61
383.101	5.46
383.311	40.28
383.521	81.24
383.731	75.09
383.941	17.75
384.151	60.76
384.361	62.8
384.571	103.76
384.781	40.28
384.991	64.85
385.201	99.67
385.411	62.8
385.621	58.71
385.831	79.19
386.041	50.52
386.251	40.28
386.461	79.19
386.671	17.75
386.881	95.57
387.091	95.57
387.301	64.85
387.511	116.05
387.72	130.39
387.93	116.05
388.14	38.23
388.35	-19.11
388.56	95.57
388.769	85.33
388.979	89.43
389.189	87.38
389.399	50.52
389.609	68.95
389.818	34.13
390.028	130.39
390.238	44.37
390.447	11.61
390.657	146.77
390.867	7.51
391.076	73.04
391.286	75.09
391.496	109.91
391.705	50.52
391.915	68.95
392.125	85.33
392.334	52.56
392.544	105.81
392.753	83.28
392.963	142.68
393.172	-4.78
393.382	64.85
393.591	130.39
393.801	89.43
394.01	171.35
394.22	152.92
394.429	56.66
394.639	56.66
394.848	64.85
395.058	60.76
395.267	179.54
395.477	150.87
395.686	64.85
395.895	140.63
396.105	132.44
396.314	122.2
396.524	87.38
396.733	114
396.942	157.01
397.152	114
397.361	77.14
397.57	81.24
397.78	83.28
397.989	32.08
398.198	157.01
398.407	64.85
398.617	83.28
398.826	48.47
399.035	89.43
399.244	48.47
399.453	64.85
399.663	146.77
399.872	159.06
400.081	105.81
400.29	140.63
400.499	134.48
400.708	109.91
400.917	89.43
401.127	83.28
401.336	138.58
401.545	122.2
401.754	97.62
401.963	197.97
402.172	75.09
402.381	103.76
402.59	54.61
402.799	154.96
403.008	189.78
403.217	159.06
403.426	89.43
403.635	165.2
403.844	171.35
404.053	169.3
404.262	154.96
404.471	185.68
404.68	193.87
404.888	105.81
405.097	204.11
405.306	204.11
405.515	197.97
405.724	138.58
405.933	157.01
406.142	257.36
406.35	218.45
406.559	161.11
406.768	222.55
406.977	308.56
407.185	161.11
407.394	275.79
407.603	253.27
407.812	228.69
408.02	253.27
408.229	253.27
408.438	269.65
408.646	238.93
408.855	259.41
409.064	253.27
409.272	308.56
409.481	363.86
409.69	318.8
409.898	277.84
410.107	417.1
410.315	312.66
410.524	277.84
410.733	357.71
410.941	339.28
411.15	400.72
411.358	347.47
411.567	421.2
411.775	396.62
411.984	402.77
412.192	494.93
412.401	462.16
412.609	468.3
412.818	482.64
413.026	529.74
413.234	515.41
413.443	564.56
413.651	638.28
413.86	527.69
414.068	601.42
414.276	640.33
414.485	601.42
414.693	662.86
414.901	798.03
415.11	695.63
415.318	734.54
415.526	785.74
415.734	779.59
415.943	822.6
416.151	914.76
416.359	732.49
416.567	892.23
416.776	830.79
416.984	980.29
417.192	925
417.4	1084.74
417.608	1013.06
417.817	1078.6
418.025	1129.8
418.233	1240.39
418.441	1215.81
418.649	1299.78
418.857	1244.48
419.065	1295.68
419.273	1316.16
419.481	1359.17
419.689	1518.91
419.897	1570.11
420.105	1527.1
420.313	1582.4
420.521	1604.92
420.729	1580.35
420.937	1785.15
421.145	1846.59
421.353	1856.82
421.561	1908.02
421.769	1965.37
421.977	2092.34
422.185	2022.71
422.393	2145.59
422.601	2315.57
422.809	2366.77
423.017	2342.19
423.224	2454.83
423.432	2614.57
423.64	2481.46
423.848	2743.6
424.056	2725.16
424.263	3013.93
424.471	2864.43
424.679	3011.88
424.887	3120.42
425.094	3216.68
425.302	3206.44
425.51	3298.6
425.718	3497.25
425.925	3472.67
426.133	3501.34
426.341	3640.61
426.548	3851.55
426.756	4029.72
426.964	3994.9
427.171	4283.67
427.379	4480.27
427.586	4345.11
427.794	4570.38
428.001	4791.56
428.209	4861.2
428.417	4969.74
428.624	5373.19
428.832	5242.12
429.039	5266.69
429.247	5389.57
429.454	6003.96
429.662	6114.55
429.869	5852.41
430.076	6155.51
430.284	6020.35
430.491	6274.29
430.699	6515.95
430.906	6436.08
431.114	6595.82
431.321	6999.27
431.528	7142.63
431.736	7396.58
431.943	7785.69
432.15	7589.09
432.358	7707.87
432.565	8170.71
432.772	7922.91
432.979	8443.09
433.187	8553.68
433.394	8621.27
433.601	9231.56
433.808	9297.1
434.016	9143.5
434.223	9737.41
434.43	10298.55
434.637	10208.44
434.844	10855.6
435.052	10863.79
435.259	10749.11
435.466	10892.46
435.673	10788.02
435.88	11596.96
436.087	12180.64
436.294	12096.67
436.501	11885.73
436.708	12123.29
436.915	12453.02
437.122	13073.55
437.329	13198.48
437.537	13448.33
437.743	13898.88
437.95	13417.61
438.157	14238.84
438.364	14726.26
438.571	14767.22
438.778	14851.19
438.985	16254.05
439.192	15404.14
439.399	16010.34
439.606	15662.18
439.813	16528.47
440.02	17443.92
440.227	17177.68
440.433	17091.66
440.64	17765.45
440.847	17777.73
441.054	18084.93
441.261	19196.98
441.467	19162.16
441.674	19373.1
441.881	20149.28
442.088	20145.19
442.294	19930.15
442.501	20341.79
442.708	20599.83
442.914	21763.08
443.121	22422.53
443.328	21713.93
443.534	23413.74
443.741	22793.21
443.948	22557.69
444.154	24335.33
444.361	23907.3
444.568	24226.79
444.774	24089.57
444.981	24660.96
445.187	25033.69
445.394	26219.46
445.6	26346.44
445.807	28236.71
446.013	27020.22
446.22	27685.81
446.426	28910.49
446.633	29541.27
446.839	29975.44
447.046	28683.17
447.252	30307.21
447.459	30469
447.665	30073.74
447.871	31579
448.078	33186.65
448.284	31556.47
448.491	32361.32
448.697	33538.9
448.903	34272.07
449.11	34231.11
449.316	33751.89
449.522	34646.85
449.728	35431.22
449.935	35750.71
450.141	35509.05
450.347	36602.66
450.553	35236.67
450.76	35842.87
450.966	36694.82
451.172	36449.07
451.378	37366.56
451.584	36561.7
451.791	37509.91
451.997	37352.22
452.203	37688.09
452.409	37970.71
452.615	37727
452.821	36426.54
453.027	36084.53
453.233	37946.13
453.44	36635.43
453.646	36780.84
453.852	36713.25
454.058	37774.1
454.264	36682.53
454.47	37677.85
454.676	36533.03
454.882	37458.71
455.088	34235.21
455.294	34949.95
455.5	35472.18
455.705	35822.39
455.911	34165.58
456.117	33383.26
456.323	33352.54
456.529	31726.45
456.735	32875.36
456.941	31888.24
457.147	31492.98
457.352	30735.23
457.558	30319.49
457.764	30344.07
457.97	29987.72
458.176	29066.14
458.381	29070.23
458.587	27984.81
458.793	27833.26
458.999	26352.58
459.204	27980.71
459.41	27362.23
459.616	25494.48
459.821	25258.96
460.027	25371.6
460.233	24880.09
460.438	23608.3
460.644	23991.27
460.85	22926.33
461.055	22500.35
461.261	22414.34
461.466	21072.92
461.672	20352.03
461.878	21605.39
462.083	20149.28
462.289	19754.02
462.494	19717.16
462.7	18668.6
462.905	18334.78
463.111	19031.09
463.316	19084.34
463.522	18588.73
463.727	18713.66
463.932	18488.38
464.138	18463.8
464.343	18512.95
464.549	18105.41
464.754	18441.28
464.959	18312.25
465.165	18558.01
465.37	17087.57
465.575	16976.98
465.781	17601.61
465.986	17755.21
466.191	17052.75
466.397	16958.55
466.602	15854.69
466.807	16667.73
467.012	16516.19
467.218	16409.69
467.423	16346.2
467.628	16487.51
467.833	16895.06
468.038	16307.29
468.244	16184.41
468.449	16602.2
468.654	16026.72
468.859	15907.94
469.064	15776.87
469.269	15168.62
469.474	15268.97
469.679	15658.09
469.885	15211.63
470.09	15512.68
470.295	15113.33
470.5	14933.11
470.705	14967.92
470.91	14718.07
471.115	14537.85
471.32	14826.61
471.525	14722.16
471.73	14251.13
471.935	14265.47
472.139	13687.94
472.344	13982.85
472.549	13831.3
472.754	13839.49
472.959	13532.29
473.164	13104.27
473.369	12885.14
473.574	13481.1
473.778	13163.66
473.983	13204.62
474.188	13184.14
474.393	12391.58
474.598	12688.53
474.802	12426.39
475.007	12543.13
475.212	12410.01
475.417	11949.22
475.621	12012.7
475.826	11975.84
476.031	11803.81
476.235	11599.01
476.44	11910.3
476.645	11476.13
476.849	11564.2
477.054	11285.67
477.259	11213.99
477.463	11277.48
477.668	10898.61
477.872	10953.9
478.077	11078.83
478.282	10632.37
478.486	10511.54
478.691	10478.77
478.895	10493.11
479.1	10429.62
479.304	10579.12
479.509	9952.45
479.713	10255.54
479.918	10075.32
480.122	9936.06
480.326	10216.63
480.531	10124.47
480.735	10101.95
480.94	10071.23
481.144	10257.59
481.348	9651.39
481.553	9909.44
481.757	9452.74
481.961	9749.7
482.166	9954.49
482.37	9770.18
482.574	9682.11
482.778	9852.1
482.983	9708.74
483.187	9635.01
483.391	9635.01
483.595	9659.59
483.8	9653.44
484.004	9456.84
484.208	9948.35
484.412	9790.66
484.616	9768.13
484.821	9721.02
485.025	9483.46
485.229	9559.24
485.433	9630.91
485.637	9583.81
485.841	9606.34
486.045	9407.69
486.249	9483.46
486.453	9573.57
486.657	9641.15
486.861	9598.15
487.065	9432.26
487.269	9663.68
487.473	9614.53
487.677	9614.53
487.881	9688.26
488.085	9450.69
488.289	9682.11
488.493	9563.33
488.697	9630.91
488.901	9700.55
489.105	9620.67
489.309	9786.56
489.512	10030.27
489.716	9780.42
489.92	9700.55
490.124	9616.58
490.328	9997.5
490.531	9764.03
490.735	10007.74
490.939	9729.22
491.143	10171.58
491.346	10220.73
491.55	10130.62
491.754	10065.08
491.958	10149.05
492.161	10063.04
492.365	10259.64
492.569	10241.21
492.772	10052.8
492.976	10271.93
493.18	10403
493.383	10441.91
493.587	10273.98
493.79	10575.03
493.994	10417.33
494.197	10759.35
494.401	10794.16
494.605	10845.36
494.808	10910.89
495.012	10890.42
495.215	11052.2
495.419	11011.25
495.622	11087.02
495.825	11379.88
496.029	11050.16
496.232	11506.85
496.436	11209.9
496.639	11828.38
496.843	11836.58
497.046	11918.5
497.249	12197.02
497.453	12213.4
497.656	12207.26
497.859	12358.81
498.063	12479.64
498.266	12633.24
498.469	12735.63
498.673	12616.85
498.876	12782.74
499.079	13022.35
499.282	13192.33
499.485	13264.01
499.689	13452.42
499.892	13841.54
500.095	13603.97
500.298	13851.78
500.501	13548.68
500.705	14150.78
500.908	14302.33
501.111	14548.09
501.314	14619.77
501.517	14795.89
501.72	15031.41
501.923	14668.92
502.126	15469.67
502.329	15500.39
502.532	15543.4
502.735	15836.26
502.938	15909.99
503.141	15920.23
503.344	16153.69
503.547	16368.73
503.75	16507.99
503.953	16821.33
504.156	16979.03
504.359	17306.7
504.562	17222.73
504.765	17617.99
504.968	17652.81
505.17	17966.15
505.373	18170.94
505.576	18236.48
505.779	18590.78
505.982	18662.46
506.185	18869.3
506.387	19049.52
506.59	18957.36
506.793	19665.96
506.996	19592.23
507.198	19913.77
507.401	19932.2
507.604	20288.54
507.807	20382.75
508.009	20726.81
508.212	20923.41
508.415	21128.21
508.617	21378.06
508.82	21560.33
509.022	21410.83
509.225	22193.15
509.428	22066.18
509.63	22293.51
509.833	22549.5
510.035	23086.07
510.238	22903.8
510.44	23041.01
510.643	23352.3
510.845	23571.44
511.048	23761.9
511.25	23817.19
511.453	24169.44
511.655	25105.37
511.858	24427.49
512.06	24771.55
512.262	25183.19
512.465	25316.31
512.667	25443.28
512.87	25998.28
513.072	25881.55
513.274	26147.78
513.477	26549.18
513.679	26971.07
513.881	27196.34
514.084	26989.5
514.286	27351.99
514.488	27726.77
514.69	28257.19
514.893	28257.19
515.095	28193.7
515.297	28738.46
515.499	28355.49
515.701	29256.6
515.904	29375.38
516.106	29182.87
516.308	30047.11
516.51	30165.9
516.712	30088.07
516.914	30675.84
517.116	31368.05
517.318	30985.08
517.52	31159.16
517.722	31216.5
517.925	31779.7
518.127	31914.86
518.329	32324.46
518.531	32480.1
518.733	32961.37
518.935	32979.81
519.136	32793.44
519.338	33407.83
519.54	33653.59
519.742	33766.23
519.944	33960.78
520.146	34552.65
520.348	34483.02
520.55	34962.24
520.752	35070.78
520.954	35509.05
521.155	35160.89
521.357	35849.01
521.559	36053.81
521.761	36410.15
521.963	36504.36
522.164	36619.05
522.366	36725.54
522.568	37192.48
522.77	36905.76
522.971	37735.19
523.173	37282.59
523.375	37835.54
523.576	37958.42
523.778	38175.5
523.98	38736.65
524.181	38646.54
524.383	38818.57
524.584	38900.48
524.786	38685.45
524.988	39103.23
525.189	39561.98
525.391	40014.58
525.592	40248.05
525.794	39969.52
525.995	40534.76
526.197	40000.24
526.398	39940.85
526.6	40749.8
526.801	40559.34
527.003	40932.07
527.204	40882.92
527.406	41403.1
527.607	41001.7
527.808	41386.72
528.01	40723.18
528.211	41171.68
528.412	41960.15
528.614	41796.31
528.815	41628.38
529.016	42412.75
529.218	41683.67
529.419	42040.02
529.62	42298.06
529.822	42255.06
530.023	42269.39
530.224	42265.3
530.425	42394.32
530.626	42271.44
530.828	42009.3
531.029	43072.2
531.23	42203.86
531.431	42371.79
531.632	42836.68
531.833	42783.43
532.035	42631.88
532.236	43137.73
532.437	43389.63
532.638	42267.34
532.839	42965.7
533.04	43225.79
533.241	42605.26
533.442	43592.38
533.643	43242.18
533.844	42789.58
534.045	43195.07
534.246	42791.62
534.447	43160.26
534.648	42623.69
534.849	43162.31
535.05	42848.97
535.251	43342.53
535.451	43328.19
535.652	43303.62
535.853	43102.92
536.054	43225.79
536.255	43377.34
536.456	42615.5
536.657	43897.53
536.857	42998.47
537.058	43018.95
537.259	43107.01
537.46	42967.75
537.66	43045.57
537.861	43641.53
538.062	43143.88
538.263	43057.86
538.463	42836.68
538.664	43225.79
538.865	43004.61
539.065	43639.48
539.266	42971.85
539.466	43406.01
539.667	42640.07
539.868	43371.2
540.068	43250.37
540.269	43082.44
540.469	42939.08
540.67	42853.06
540.87	42941.13
541.071	43391.68
541.271	42713.8
541.472	43066.05
541.672	42713.8
541.873	43350.72
542.073	42586.83
542.274	42769.1
542.474	43250.37
542.675	42400.46
542.875	43098.82
543.075	42732.23
543.276	42316.5
543.476	43018.95
543.676	42584.78
543.877	42877.64
544.077	42726.09
544.277	43086.53
544.478	42552.01
544.678	42681.03
544.878	42765
545.078	43033.28
545.279	42353.36
545.479	42470.09
545.679	42853.06
545.879	42894.02
546.079	43139.78
546.28	42783.43
546.48	42633.93
546.68	43045.57
546.88	42951.37
547.08	42298.06
547.28	42959.56
547.48	42615.5
547.68	42222.29
547.88	42312.4
548.081	42709.71
548.281	42863.3
548.481	42171.09
548.681	42861.26
548.881	42779.34
549.081	42705.61
549.28	42230.48
549.48	42439.37
549.68	42232.53
549.88	42760.9
550.08	42453.71
550.28	42715.85
550.48	42283.73
550.68	42736.33
550.88	42447.57
551.08	42588.88
551.279	42586.83
551.479	42173.14
551.679	42470.09
551.879	42709.71
552.079	42435.28
552.278	42240.72
552.478	42238.67
552.678	42402.51
552.878	42488.53
553.077	42083.03
553.277	41923.29
553.477	42873.54
553.676	41997.01
553.876	42046.16
554.076	42052.31
554.275	41775.83
554.475	41378.53
554.674	42166.99
554.874	41806.55
555.074	41870.04
555.273	42064.6
555.473	42443.47
555.672	41906.9
555.872	41640.67
556.071	41837.27
556.271	41796.31
556.47	41945.81
556.67	41272.03
556.869	41509.6
557.068	42115.79
557.268	41378.53
557.467	41419.49
557.667	41870.04
557.866	41337.57
558.065	41425.63
558.265	41669.34
558.464	40925.92
558.663	41585.37
558.863	41157.35
559.062	41779.93
559.261	40866.53
559.461	41466.59
559.66	40551.15
559.859	41120.48
560.058	40661.74
560.258	40952.55
560.457	40596.2
560.656	41020.13
560.855	40858.34
561.054	40807.14
561.253	40360.69
561.453	40811.24
561.652	40405.74
561.851	40635.11
562.05	40305.39
562.249	40200.94
562.448	40522.47
562.647	40219.38
562.846	40532.71
563.045	40372.97
563.244	39555.83
563.443	40512.24
563.642	39699.19
563.841	40069.87
564.04	39799.54
564.239	40145.65
564.438	39574.27
564.637	40350.45
564.836	39574.27
565.035	39402.24
565.234	39715.58
565.432	39308.03
565.631	39289.6
565.83	39103.23
566.029	39418.62
566.228	39090.94
566.427	39138.05
566.625	39027.46
566.824	38789.89
567.023	39146.24
567.222	38605.58
567.42	39340.8
567.619	38884.1
567.818	38449.93
568.016	38716.17
568.215	38740.74
568.414	38550.28
568.612	38591.24
568.811	38474.51
569.01	38523.66
569.208	37690.13
569.407	38396.68
569.605	37710.61
569.804	38388.49
570.002	37989.14
570.201	38282
570.4	37425.95
570.598	37497.63
570.797	37544.73
570.995	37704.47
571.193	37176.09
571.392	37770
571.59	37243.68
571.789	37378.84
571.987	37309.21
572.186	37253.92
572.384	36932.39
572.582	36862.75
572.781	37319.45
572.979	36541.22
573.177	36807.46
573.376	36905.76
573.574	36127.53
573.772	36856.61
573.971	36115.25
574.169	36401.96
574.367	36068.14
574.565	36320.04
574.763	36043.57
574.962	36258.6
575.16	35623.73
575.358	35713.84
575.556	35443.51
575.754	36455.21
575.952	35418.94
576.151	36062
576.349	35560.25
576.547	35525.43
576.745	35072.83
576.943	35285.82
577.141	35468.09
577.339	35578.68
577.537	34696
577.735	35062.59
577.933	34749.25
578.131	34980.67
578.329	34609.99
578.527	34583.37
578.725	34464.58
578.923	34657.09
579.121	34530.12
579.319	34487.11
579.516	34569.03
579.714	34403.14
579.912	33917.78
580.11	34296.65
580.308	33819.47
580.506	34083.66
580.704	33813.33
580.901	33665.88
581.099	34079.57
581.297	33477.46
581.495	33745.75
581.692	33723.22
581.89	33055.58
582.088	33284.95
582.285	33153.88
582.483	33399.64
582.681	33153.88
582.878	33008.48
583.076	32756.58
583.274	32953.18
583.471	32688.99
583.669	32699.23
583.866	32187.24
584.064	32494.44
584.262	31875.95
584.459	32600.93
584.657	32238.44
584.854	32412.52
585.052	31585.14
585.249	32107.37
585.447	32113.52
585.644	31433.59
585.841	31910.77
586.039	32043.88
586.236	31583.09
586.434	31427.45
586.631	31040.38
586.828	31452.02
587.026	31255.42
587.223	31617.91
587.42	31097.72
587.618	30935.93
587.815	30446.47
588.012	30729.09
588.21	30655.36
588.407	31163.26
588.604	30454.66
588.801	30649.22
588.999	30460.8
589.196	30581.63
589.393	30387.08
589.59	29879.18
589.787	30028.68
589.984	29936.52
590.182	29707.15
590.379	30149.51
590.576	29715.34
590.773	30014.35
590.97	29723.54
591.167	29838.22
591.364	29418.39
591.561	29643.66
591.758	29068.19
591.955	29158.3
592.152	29342.61
592.349	29109.15
592.546	29336.47
592.743	29348.76
592.94	28662.69
593.137	28658.59
593.334	28918.68
593.531	28418.98
593.727	28556.19
593.924	28615.58
594.121	28476.32
594.318	28322.73
594.515	27976.62
594.712	28128.17
594.908	28128.17
595.105	28216.23
595.302	28097.45
595.499	27683.76
595.696	27671.47
595.892	27589.55
596.089	27628.46
596.286	27499.44
596.482	27708.33
596.679	27460.53
596.876	27694
597.072	27206.58
597.269	27179.96
597.466	26885.05
597.662	26934.2
597.859	27159.48
598.055	26889.15
598.252	27141.05
598.448	26684.35
598.645	26903.48
598.841	26403.78
599.038	26678.21
599.234	26766.27
599.431	26155.97
599.627	26110.92
599.824	26362.82
600.02	26078.15
600.217	26211.27
600.413	25865.16
600.609	25959.37
600.806	25504.72
601.002	25775.05
601.198	25519.06
601.395	25420.75
601.591	25560.02
601.787	25150.42
601.984	25379.79
602.18	25383.89
602.376	25019.35
602.572	24820.7
602.769	24968.15
602.965	24663
603.161	24974.3
603.357	24775.64
603.553	24783.84
603.75	24816.6
603.946	24605.66
604.142	24988.63
604.338	24259.56
604.534	24486.88
604.73	24222.69
604.926	24118.25
605.122	24220.64
605.318	24146.92
605.514	23872.49
605.71	24065
605.906	23847.91
606.102	23854.06
606.298	23925.74
606.494	23661.55
606.69	23729.13
606.886	23698.41
607.082	23221.23
607.278	23737.32
607.474	23481.33
607.67	23272.43
607.866	22899.7
608.062	23589.87
608.257	23405.55
608.453	23350.26
608.649	23084.02
608.845	22995.96
609.041	23192.56
609.236	23278.58
609.432	23196.66
609.628	23084.02
609.824	23038.97
610.019	22582.27
610.215	23129.08
610.411	22823.93
610.606	22526.97
610.802	22498.3
610.998	22686.72
611.193	22678.52
611.389	22524.93
611.584	22506.49
611.78	22191.11
611.976	22256.64
612.171	22160.39
612.367	22053.89
612.562	22170.63
612.758	21928.97
612.953	21892.1
613.149	22047.75
613.344	22021.13
613.539	22361.09
613.735	21789.7
613.93	22098.95
614.126	21881.86
614.321	22057.99
614.517	21910.53
614.712	21695.5
614.907	21611.53
615.103	21554.19
615.298	21357.58
615.493	21609.48
615.688	21634.06
615.884	21808.14
616.079	21201.94
616.274	21459.98
616.47	21177.36
616.665	21519.37
616.86	21365.78
617.055	21265.42
617.25	21187.6
617.445	21265.42
617.641	20661.27
617.836	20950.04
618.031	20911.13
618.226	20911.13
618.421	20610.07
618.616	20972.57
618.811	20376.61
619.006	20890.65
619.201	20112.42
619.396	20683.8
619.591	19932.2
619.786	20565.02
619.981	19911.72
620.176	20149.28
620.371	20040.74
620.566	19999.78
620.761	19881
620.956	20171.81
621.151	19547.18
621.346	19696.68
621.541	19502.12
621.735	19782.7
621.93	19293.23
622.125	19407.92
622.32	18959.41
622.515	19266.61
622.709	19239.98
622.904	18953.27
623.099	18953.27
623.294	18678.84
623.488	18752.57
623.683	18842.68
623.878	18443.32
624.072	18365.5
624.267	18388.03
624.462	18160.7
624.656	17908.8
624.851	18064.45
625.046	18041.92
625.24	18121.79
625.435	17665.1
625.629	17634.38
625.824	17599.56
626.018	17691.72
626.213	17044.56
626.407	17318.99
626.602	17224.78
626.796	17185.87
626.991	17159.25
627.185	16710.74
627.38	16747.61
627.574	16716.89
627.768	16460.89
627.963	16487.51
628.157	16139.36
628.352	16284.76
628.546	16039.01
628.74	16313.44
628.935	15864.93
629.129	16147.55
629.323	15891.55
629.517	15885.41
629.712	15629.41
629.906	15694.95
630.1	15371.37
630.294	15426.67
630.489	15565.93
630.683	15414.38
630.877	15199.34
631.071	15129.71
631.265	15191.15
631.459	15025.26
631.653	14679.16
631.848	15060.08
632.042	14595.19
632.236	14861.43
632.43	14449.78
632.624	14705.78
632.818	14437.5
633.012	14290.04
633.206	14253.18
633.4	14615.67
633.594	14091.39
633.788	14068.86
633.982	14146.69
634.176	13919.36
634.369	13997.18
634.563	13636.74
634.757	13888.64
634.951	13833.35
635.145	13741.19
635.339	13501.58
635.533	13292.68
635.726	13606.02
635.92	13251.72
636.114	13438.09
636.308	13390.99
636.501	13200.52
636.695	13218.96
636.889	13288.59
637.083	13014.16
637.276	12801.17
637.47	12762.26
637.664	12997.77
637.857	12795.03
638.051	12733.59
638.244	12381.34
638.438	12508.31
638.632	12340.38
638.825	12348.57
639.019	12303.51
639.212	12111
639.406	12154.01
639.599	12020.89
639.793	12156.06
639.986	11705.51
640.18	12041.37
640.373	11879.58
640.567	11672.74
640.76	11773.09
640.954	11601.06
641.147	11531.43
641.34	11689.12
641.534	11257
641.727	11461.8
641.92	11353.26
642.114	11078.83
642.307	11316.39
642.5	11318.44
642.694	11087.02
642.887	11017.39
643.08	11246.76
643.273	11066.54
643.467	10867.89
643.66	10646.71
643.853	10753.2
644.046	10550.45
644.239	10568.88
644.432	10736.82
644.626	10452.15
644.819	10470.58
645.012	10308.79
645.205	10597.56
645.398	10501.3
645.591	10210.49
645.784	10101.95
645.977	10149.05
646.17	10110.14
646.363	10104
646.556	9956.54
646.749	9872.57
646.942	10020.03
647.135	9948.35
647.328	9911.49
647.521	9809.09
647.714	9678.02
647.907	9788.61
648.099	9600.19
648.292	9481.41
648.485	9446.6
648.678	9618.63
648.871	9319.62
649.064	9405.64
649.256	9366.73
649.449	9186.51
649.642	9307.34
649.835	9178.31
650.027	8987.85
650.22	8996.04
650.413	8830.16
650.605	8875.21
650.798	8740.05
650.991	8971.47
651.183	8907.98
651.376	8754.38
651.568	8707.28
651.761	8709.33
651.954	8637.65
652.146	8740.05
652.339	8604.88
652.531	8408.28
652.724	8467.67
652.916	8125.66
653.109	8285.4
653.301	8262.87
653.494	8453.33
653.686	8094.94
653.879	8164.57
654.071	8205.53
654.263	8142.04
654.456	7982.3
654.648	8096.99
654.84	7922.91
655.033	7834.85
655.225	7855.33
655.417	7810.27
655.61	7826.65
655.802	7797.98
655.994	7679.2
656.186	7728.35
656.379	7800.03
656.571	7533.79
656.763	7584.99
656.955	7341.29
657.148	7498.98
657.34	7498.98
657.532	7427.3
657.724	7228.65
657.916	7343.33
658.108	7138.54
658.3	7040.23
658.492	7314.66
658.684	7011.56
658.876	7052.52
659.068	7077.1
659.26	6997.23
659.452	7189.74
659.644	6995.18
659.836	6890.73
660.028	6915.31
660.22	6798.57
660.412	6905.07
660.604	6851.82
660.796	6855.92
660.988	6769.9
661.18	6386.93
661.372	6552.82
661.563	6427.89
661.755	6368.5
661.947	6563.06
662.139	6546.67
662.331	6270.2
662.522	6376.69
662.714	6296.82
662.906	6370.55
663.097	6173.94
663.289	6132.98
663.481	6339.83
663.673	6155.51
663.864	6012.15
664.056	6171.9
664.247	6016.25
664.439	6137.08
664.631	5963
664.822	6036.73
665.014	6108.41
665.205	6010.11
665.397	5846.27
665.588	5969.15
665.78	5864.7
665.971	5934.33
666.163	5862.65
666.354	5829.88
666.546	5762.3
666.737	5639.42
666.929	5688.57
667.12	5537.02
667.311	5696.77
667.503	5612.8
667.694	5649.66
667.885	5610.75
668.077	5545.22
668.268	5549.31
668.459	5352.71
668.651	5395.72
668.842	5309.7
669.033	5504.26
669.224	5315.84
669.416	5381.38
669.607	5360.9
669.798	5303.56
669.989	5336.32
670.18	5332.23
670.371	5068.04
670.563	5266.69
670.754	5209.35
670.945	5074.18
671.136	5084.42
671.327	5033.22
671.518	5106.95
671.709	5080.33
671.9	5027.08
672.091	5104.9
672.282	5084.42
672.473	4941.07
672.664	5010.7
672.855	4914.44
673.046	5049.61
673.237	4879.63
673.428	4893.96
673.619	4840.72
673.809	4928.78
674	4709.65
674.191	4914.44
674.382	4683.02
674.573	4668.69
674.764	4742.41
674.954	4832.52
675.145	4676.88
675.336	4752.65
675.527	4742.41
675.717	4816.14
675.908	4627.73
676.099	4609.3
676.289	4590.86
676.48	4594.96
676.671	4541.71
676.861	4594.96
677.052	4601.1
677.243	4560.14
677.433	4402.45
677.624	4496.66
677.814	4492.56
678.005	4519.18
678.195	4554
678.386	4459.79
678.576	4320.53
678.767	4447.51
678.957	4392.21
679.148	4517.14
679.338	4439.31
679.529	4439.31
679.719	4414.74
679.909	4410.64
680.1	4406.55
680.29	4418.83
680.481	4314.39
680.671	4289.81
680.861	4267.28
681.052	4324.63
681.242	4222.23
681.432	4248.85
681.622	4248.85
681.813	4242.71
682.003	4234.52
682.193	4109.59
682.383	4222.23
682.573	4324.63
682.764	4261.14
682.954	4103.45
683.144	4168.98
683.334	4119.83
683.524	4203.8
683.714	4082.97
683.904	4103.45
684.094	4060.44
684.284	4085.02
684.474	4062.49
684.664	4099.35
684.854	4158.74
685.044	3980.57
685.234	4017.43
685.424	3970.33
685.614	4025.62
685.804	3951.9
685.994	4089.11
686.184	3888.41
686.374	3972.38
686.564	4066.58
686.753	3958.04
686.943	3857.69
687.133	3939.61
687.323	3847.45
687.513	4070.68
687.702	3915.03
687.892	3802.4
688.082	3892.51
688.272	3679.52
688.461	3796.25
688.651	3759.39
688.841	3577.12
689.03	3677.47
689.22	3648.8
689.41	3693.85
689.599	3679.52
689.789	3718.43
689.979	3740.96
690.168	3605.79
690.358	3579.17
690.547	3589.41
690.737	3560.73
690.926	3562.78
691.116	3472.67
691.305	3628.32
691.495	3276.07
691.684	3487.01
691.874	3534.11
692.063	3566.88
692.252	3407.14
692.442	3499.3
692.631	3296.55
692.82	3405.09
693.01	3403.04
693.199	3263.78
693.388	3349.79
693.578	3355.94
693.767	3339.55
693.956	3251.49
694.146	3126.57
694.335	3167.52
694.524	3173.67
694.713	3360.03
694.902	3177.76
695.092	3165.48
695.281	3099.94
695.47	3081.51
695.659	3116.33
695.848	3022.12
696.037	2975.02
696.226	3077.41
696.415	3058.98
696.604	3069.22
696.793	3058.98
696.982	3118.37
697.171	3011.88
697.36	2985.26
697.549	2934.06
697.738	2985.26
697.927	2882.86
698.116	2903.34
698.305	3001.64
698.494	2872.62
698.683	2938.15
698.872	2899.24
699.061	2870.57
699.25	2880.81
699.438	2862.38
699.627	2895.15
699.816	3022.12
700.005	2907.43
700.193	2932.01
700.382	2889
700.571	2954.54
700.76	2845.99
700.948	2878.76
701.137	2850.09
701.326	2825.51
701.514	2843.95
701.703	2788.65
701.892	2733.36
702.08	2766.12
702.269	2811.18
702.457	2762.03
702.646	2792.75
702.834	2651.44
703.023	2727.21
703.212	2665.77
703.4	2698.54
703.589	2686.25
703.777	2809.13
703.965	2815.27
704.154	2690.35
704.342	2716.97
704.531	2659.63
704.719	2731.31
704.907	2721.07
705.096	2696.49
705.284	2733.36
705.472	2614.57
705.661	2653.48
705.849	2659.63
706.037	2708.78
706.226	2665.77
706.414	2657.58
706.602	2735.4
706.79	2676.01
706.979	2690.35
707.167	2768.17
707.355	2633.01
707.543	2587.95
707.731	2702.64
707.919	2661.68
708.107	2659.63
708.296	2577.71
708.484	2653.48
708.672	2651.44
708.86	2610.48
709.048	2600.24
709.236	2645.29
709.424	2678.06
709.612	2655.53
709.8	2573.61
709.988	2612.53
710.176	2567.47
710.364	2657.58
710.551	2630.96
710.739	2518.32
710.927	2544.94
711.115	2618.67
711.303	2686.25
711.491	2544.94
711.679	2542.89
711.866	2622.77
712.054	2768.17
712.242	2575.66
712.43	2610.48
712.617	2735.4
712.805	2700.59
712.993	2508.08
713.181	2448.69
713.368	2544.94
713.556	2663.72
713.744	2473.26
713.931	2596.14
714.119	2633.01
714.306	2567.47
714.494	2499.89
714.682	2577.71
714.869	2557.23
715.057	2680.11
715.244	2544.94
715.432	2596.14
715.619	2633.01
715.807	2561.33
715.994	2688.3
716.182	2542.89
716.369	2587.95
716.556	2692.4
716.744	2372.91
716.931	2536.75
717.119	2604.33
717.306	2592.05
717.493	2612.53
717.681	2540.85
717.868	2538.8
718.055	2698.54
718.242	2598.19
718.43	2479.41
718.617	2659.63
718.804	2493.74
718.991	2620.72
719.179	2571.57
719.366	2647.34
719.553	2633.01
719.74	2497.84
719.927	2575.66
720.114	2661.68
720.301	2622.77
720.488	2518.32
720.676	2579.76
720.863	2553.13
721.05	2563.37
721.237	2624.81
721.424	2622.77
721.611	2706.73
721.798	2526.51
721.985	2501.94
722.172	2553.13
722.358	2571.57
722.545	2608.43
722.732	2555.18
722.919	2606.38
723.106	2549.04
723.293	2594.09
723.48	2598.19
723.667	2602.29
723.853	2448.69
724.04	2604.33
724.227	2530.61
724.414	2569.52
724.6	2577.71
724.787	2563.37
724.974	2540.85
725.161	2520.37
725.347	2669.87
725.534	2606.38
725.72	2549.04
725.907	2581.81
726.094	2620.72
726.28	2569.52
726.467	2495.79
726.653	2569.52
726.84	2536.75
727.027	2567.47
727.213	2565.42
727.4	2676.01
727.586	2499.89
727.773	2577.71
727.959	2575.66
728.145	2618.67
728.332	2516.27
728.518	2542.89
728.705	2596.14
728.891	2645.29
729.077	2620.72
729.264	2590
729.45	2546.99
729.636	2544.94
729.823	2549.04
730.009	2540.85
730.195	2624.81
730.382	2555.18
730.568	2592.05
730.754	2563.37
730.94	2506.03
731.126	2557.23
731.313	2493.74
731.499	2403.63
731.685	2573.61
731.871	2506.03
732.057	2573.61
732.243	2503.98
732.429	2471.22
732.615	2587.95
732.801	2463.02
732.987	2561.33
733.173	2530.61
733.359	2563.37
733.545	2526.51
733.731	2454.83
733.917	2522.41
734.103	2444.59
734.289	2483.5
734.475	2561.33
734.661	2555.18
734.847	2538.8
735.033	2575.66
735.219	2620.72
735.404	2495.79
735.59	2467.12
735.776	2495.79
735.962	2499.89
736.148	2481.46
736.333	2508.08
736.519	2446.64
736.705	2532.65
736.89	2575.66
737.076	2477.36
737.262	2448.69
737.447	2391.34
737.633	2354.48
737.819	2450.74
738.004	2413.87
738.19	2489.65
738.375	2501.94
738.561	2338.1
738.747	2250.03
738.932	2417.97
739.118	2407.73
739.303	2403.63
739.489	2413.87
739.674	2481.46
739.859	2329.91
740.045	2485.55
740.23	2323.76
740.416	2286.9
740.601	2276.66
740.786	2381.11
740.972	2389.3
741.157	2372.91
741.342	2219.32
741.528	2282.8
741.713	2303.28
741.898	2256.18
742.084	2319.67
742.269	2272.56
742.454	2155.83
742.639	2184.5
742.824	2280.75
743.01	2247.99
743.195	2303.28
743.38	2231.6
743.565	2200.88
743.75	2336.05
743.935	2098.49
744.12	2297.14
744.305	2280.75
744.49	2028.85
744.675	2075.96
744.86	2180.4
745.045	2090.29
745.23	2176.31
745.415	2213.17
745.6	2018.61
745.785	2030.9
745.97	2102.58
746.155	2073.91
746.34	2092.34
746.525	2071.86
746.71	2112.82
746.895	2108.73
747.079	2147.64
747.264	1828.15
747.449	1987.89
747.634	2006.33
747.819	1987.89
748.003	1883.45
748.188	1977.66
748.373	1879.35
748.557	1965.37
748.742	1920.31
748.927	1938.74
749.111	1940.79
749.296	1817.91
749.481	1914.17
749.665	1973.56
749.85	1899.83
750.034	1889.59
750.219	1776.95
750.404	1711.42
750.588	1793.34
750.773	1662.27
750.957	1719.61
751.141	1842.49
751.326	1699.13
751.51	1813.82
751.695	1789.24
751.879	1678.65
752.064	1811.77
752.248	1742.14
752.432	1664.32
752.617	1619.26
752.801	1619.26
752.985	1643.84
753.17	1707.32
753.354	1623.36
753.538	1664.32
753.722	1604.92
753.907	1719.61
754.091	1490.24
754.275	1625.4
754.459	1590.59
754.643	1594.68
754.828	1482.05
755.012	1510.72
755.196	1461.57
755.38	1514.81
755.564	1504.57
755.748	1492.29
755.932	1387.84
756.116	1535.29
756.3	1514.81
756.484	1447.23
756.668	1463.62
756.852	1467.71
757.036	1453.38
757.22	1332.55
757.404	1334.59
757.588	1307.97
757.772	1359.17
757.956	1379.65
758.14	1346.88
758.323	1391.94
758.507	1402.18
758.691	1289.54
758.875	1355.07
759.059	1414.46
759.242	1242.43
759.426	1334.59
759.61	1232.19
759.794	1260.87
759.977	1185.09
760.161	1369.41
760.345	1281.35
760.528	1258.82
760.712	1248.58
760.895	1201.47
761.079	1226.05
761.263	1191.24
761.446	1170.76
761.63	1191.24
761.813	1267.01
761.997	1129.8
762.18	1152.32
762.364	1166.66
762.547	1140.04
762.731	1189.19
762.914	1193.28
763.098	1111.36
763.281	1154.37
763.464	1103.17
763.648	1148.23
763.831	1140.04
764.015	1142.08
764.198	1197.38
764.381	1146.18
764.564	1154.37
764.748	1168.71
764.931	1097.03
765.114	988.49
765.297	1170.76
765.481	1187.14
765.664	1041.73
765.847	1099.08
766.03	1078.6
766.213	1051.97
766.397	1142.08
766.58	1107.27
766.763	1080.64
766.946	992.58
767.129	1094.98
767.312	1072.45
767.495	990.53
767.678	988.49
767.861	912.71
768.044	1006.92
768.227	1088.84
768.41	1082.69
768.593	1021.25
768.776	1023.3
768.959	1033.54
769.142	925
769.324	1006.92
769.507	908.62
769.69	990.53
769.873	972.1
770.056	941.38
770.239	1043.78
770.421	953.67
770.604	902.47
770.787	951.62
770.97	906.57
771.152	875.85
771.335	879.94
771.518	920.9
771.7	886.09
771.883	1047.88
772.066	947.53
772.248	900.42
772.431	798.03
772.613	920.9
772.796	945.48
772.978	843.08
773.161	945.48
773.343	869.7
773.526	824.65
773.708	838.98
773.891	802.12
774.073	845.13
774.256	894.28
774.438	836.94
774.621	873.8
774.803	851.27
774.985	834.89
775.168	843.08
775.35	812.36
775.532	822.6
775.715	793.93
775.897	781.64
776.079	738.63
776.261	773.45
776.444	800.07
776.626	718.15
776.808	699.72
776.99	781.64
777.173	802.12
777.355	742.73
777.537	724.3
777.719	757.07
777.901	677.2
778.083	703.82
778.265	660.81
778.447	773.45
778.629	685.39
778.811	707.91
778.993	695.63
779.175	765.26
779.357	646.48
779.539	632.14
779.721	709.96
779.903	732.49
780.085	646.48
780.267	718.15
780.449	683.34
780.631	679.24
780.812	671.05
780.994	660.81
781.176	695.63
781.358	564.56
781.54	568.65
781.721	576.84
781.903	613.71
782.085	587.08
782.267	658.76
782.448	582.99
782.63	599.37
782.812	582.99
782.993	628.04
783.175	587.08
783.357	603.47
783.538	566.6
783.72	449.87
783.901	556.36
784.083	494.93
784.264	527.69
784.446	568.65
784.627	550.22
784.809	544.08
784.99	537.93
785.172	558.41
785.353	507.21
785.535	474.45
785.716	519.5
785.897	507.21
786.079	535.89
786.26	562.51
786.441	472.4
786.623	400.72
786.804	472.4
786.985	433.49
787.167	476.49
787.348	404.82
787.529	429.39
787.71	527.69
787.891	476.49
788.073	470.35
788.254	449.87
788.435	496.97
788.616	527.69
788.797	431.44
788.978	531.79
789.159	398.67
789.34	474.45
789.522	458.06
789.703	445.77
789.884	408.91
790.065	441.68
790.246	421.2
790.427	359.76
790.607	396.62
790.788	447.82
790.969	392.53
791.15	361.81
791.331	394.58
791.512	351.57
791.693	402.77
791.874	335.18
792.054	441.68
792.235	394.58
792.416	370
792.597	308.56
792.778	361.81
792.958	390.48
793.139	361.81
793.32	413.01
793.5	410.96
793.681	445.77
793.862	408.91
794.042	322.9
794.223	382.29
794.404	361.81
794.584	349.52
794.765	359.76
794.945	404.82
795.126	370
795.306	357.71
795.487	400.72
795.667	329.04
795.848	314.7
796.028	292.18
796.209	331.09
796.389	439.63
796.57	294.22
796.75	320.85
796.93	283.99
797.111	320.85
797.291	277.84
797.471	292.18
797.652	322.9
797.832	261.46
798.012	226.64
798.192	281.94
798.373	320.85
798.553	316.75
798.733	269.65
798.913	318.8
799.093	294.22
799.274	275.79
799.454	310.61
799.634	376.14
799.814	286.03
799.994	283.99
800.174	253.27
800.354	286.03
800.534	183.63
800.714	167.25
800.894	296.27
801.074	212.31
801.254	206.16
801.434	251.22
801.614	249.17
801.794	286.03
801.974	595.28
802.154	296.27
802.334	267.6
802.514	294.22
802.693	302.42
802.873	167.25
803.053	228.69
803.233	236.88
803.413	251.22
803.592	245.07
803.772	220.5
803.952	257.36
804.131	245.07
804.311	296.27
804.491	286.03
804.67	210.26
804.85	224.59
805.03	234.83
805.209	200.02
805.389	132.44
805.568	245.07
805.748	263.51
805.928	304.46
806.107	212.31
806.287	197.97
806.466	243.03
806.646	296.27
806.825	212.31
807.004	159.06
807.184	271.7
807.363	183.63
807.543	193.87
807.722	208.21
807.901	230.74
808.081	269.65
808.26	159.06
808.439	197.97
808.619	240.98
808.798	169.3
808.977	228.69
809.156	269.65
809.336	212.31
809.515	220.5
809.694	159.06
809.873	116.05
810.052	191.83
810.231	228.69
810.411	187.73
810.59	195.92
810.769	146.77
810.948	128.34
811.127	134.48
811.306	208.21
811.485	152.92
811.664	218.45
811.843	222.55
812.022	179.54
812.201	161.11
812.38	253.27
812.559	187.73
812.737	191.83
812.916	150.87
813.095	185.68
813.274	142.68
813.453	165.2
813.632	247.12
813.811	189.78
813.989	97.62
814.168	167.25
814.347	165.2
814.526	175.44
814.704	167.25
814.883	175.44
815.062	105.81
815.24	218.45
815.419	152.92
815.598	230.74
815.776	146.77
815.955	120.15
816.133	52.56
816.312	169.3
816.49	146.77
816.669	150.87
816.847	118.1
817.026	163.15
817.204	128.34
817.383	103.76
817.561	144.72
817.74	152.92
817.918	157.01
818.097	163.15
818.275	130.39
818.453	136.53
818.632	167.25
818.81	193.87
818.988	148.82
819.167	103.76
819.345	181.59
819.523	116.05
819.701	148.82
819.879	208.21
820.058	122.2
820.236	114
820.414	163.15
820.592	109.91
820.77	128.34
820.948	202.07
821.127	202.07
821.305	161.11
821.483	114
821.661	197.97
821.839	142.68
822.017	122.2
822.195	105.81
822.373	89.43
822.551	136.53
822.729	148.82
822.907	144.72
823.085	167.25
823.262	105.81
823.44	68.95
823.618	142.68
823.796	97.62
823.974	150.87
824.152	99.67
824.329	179.54
824.507	44.37
824.685	177.49
824.863	64.85
825.04	66.9
825.218	118.1
825.396	183.63
825.574	140.63
825.751	114
825.929	101.72
826.107	62.8
826.284	126.29
826.462	146.77
826.639	99.67
826.817	89.43
826.994	105.81
827.172	109.91
827.349	169.3
827.527	150.87
827.704	138.58
827.882	97.62
828.059	71
828.237	136.53
828.414	144.72
828.591	114
828.769	68.95
828.946	99.67
829.124	68.95
829.301	200.02
829.478	107.86
829.655	75.09
829.833	105.81
830.01	89.43
830.187	120.15
830.364	62.8
830.542	52.56
830.719	152.92
830.896	89.43
831.073	114
831.25	144.72
831.427	71
831.604	161.11
831.782	138.58
831.959	91.48
832.136	64.85
832.313	136.53
832.49	105.81
832.667	93.52
832.844	146.77
833.021	85.33
833.198	81.24
833.374	85.33
833.551	114
833.728	54.61
833.905	62.8
834.082	64.85
834.259	75.09
834.436	134.48
834.612	15.7
834.789	105.81
834.966	79.19
835.143	200.02
835.319	44.37
835.496	103.76
835.673	54.61
835.85	93.52
836.026	38.23
836.203	97.62
836.38	109.91
836.556	56.66
836.733	136.53
836.909	114
837.086	163.15
837.262	134.48
837.439	75.09
837.616	79.19
837.792	48.47
837.968	77.14
838.145	11.61
838.321	73.04
838.498	122.2
838.674	165.2
838.851	66.9
839.027	1.37
839.203	64.85
839.38	48.47
839.556	101.72
839.732	118.1
839.909	101.72
840.085	66.9
840.261	32.08
840.437	64.85
840.614	-2.73
840.79	126.29
840.966	25.94
841.142	77.14
841.318	73.04
841.494	128.34
841.671	97.62
841.847	95.57
842.023	48.47
842.199	85.33
842.375	95.57
842.551	62.8
842.727	107.86
842.903	181.59
843.079	25.94
843.255	111.96
843.431	118.1
843.607	21.85
843.783	62.8
843.959	32.08
844.134	1.37
844.31	64.85
844.486	42.32
844.662	23.89
844.838	85.33
845.013	77.14
845.189	19.8
845.365	42.32
845.541	66.9
845.716	58.71
845.892	73.04
846.068	25.94
846.244	79.19
846.419	140.63
846.595	68.95
846.77	101.72
846.946	27.99
847.122	111.96
847.297	48.47
847.473	93.52
847.648	-4.78
847.824	46.42
847.999	-0.68
848.175	54.61
848.35	130.39
848.526	124.24
848.701	62.8
848.876	48.47
849.052	97.62
849.227	103.76
849.403	79.19
849.578	83.28
849.753	-25.26
849.929	124.24
850.104	9.56
850.279	97.62
850.454	62.8
850.63	42.32
850.805	50.52
850.98	73.04
851.155	77.14
851.33	73.04
851.505	77.14
851.681	46.42
851.856	64.85
852.031	42.32
852.206	36.18
852.381	87.38
852.556	73.04
852.731	48.47
852.906	73.04
853.081	73.04
853.256	13.65
853.431	9.56
853.606	7.51
853.781	81.24
853.956	-10.92
854.131	11.61
854.305	23.89
854.48	120.15
854.655	38.23
854.83	44.37
855.005	36.18
855.18	64.85
855.354	54.61
855.529	44.37
855.704	9.56
855.879	-25.26
856.053	30.04
856.228	36.18
856.403	15.7
856.577	25.94
856.752	-19.11
856.926	30.04
857.101	87.38
857.276	9.56
857.45	-70.31
857.625	81.24
857.799	-2.73
857.974	32.08
858.148	7.51
858.323	105.81
858.497	77.14
858.672	50.52
858.846	11.61
859.02	58.71
859.195	-17.07
859.369	66.9
859.543	13.65
859.718	19.8
859.892	13.65
860.066	-2.73
860.241	-53.93
860.415	56.66
860.589	-8.87
860.763	60.76
860.938	97.62
861.112	73.04
861.286	83.28
861.46	52.56
861.634	27.99
861.808	97.62
861.982	38.23
862.157	-17.07
862.331	17.75
862.505	-4.78
862.679	89.43
862.853	58.71
863.027	52.56
863.201	40.28
863.375	11.61
863.549	32.08
863.722	23.89
863.896	73.04
864.07	7.51
864.244	64.85
864.418	58.71
864.592	30.04
864.766	56.66
864.939	107.86
865.113	-17.07
865.287	58.71
865.461	48.47
865.634	56.66
865.808	1.37
865.982	-8.87
866.156	-25.26
866.329	-33.45
866.503	83.28
866.676	27.99
866.85	50.52
867.024	105.81
867.197	56.66
867.371	11.61
867.544	1.37
867.718	19.8
867.891	85.33
868.065	34.13
868.238	79.19
868.412	54.61
868.585	-17.07
868.759	-10.92
868.932	-25.26
869.105	50.52
869.279	52.56
869.452	83.28
869.625	44.37
869.799	114
869.972	103.76
870.145	-17.07
870.319	38.23
870.492	64.85
870.665	-25.26
870.838	-8.87
871.011	-27.31
871.185	48.47
871.358	64.85
871.531	42.32
871.704	7.51
871.877	56.66
872.05	-8.87
872.223	-74.41
872.396	50.52
872.569	27.99
872.742	36.18
872.915	101.72
873.088	-21.16
873.261	-12.97
873.434	75.09
873.607	-12.97
873.78	64.85
873.953	-2.73
874.126	-60.07
874.299	95.57
874.471	85.33
874.644	52.56
874.817	11.61
874.99	71
875.163	40.28
875.335	32.08
875.508	15.7
875.681	17.75
875.853	-10.92
876.026	36.18
876.199	40.28
876.371	-4.78
876.544	21.85
876.717	50.52
876.889	7.51
877.062	-17.07
877.234	-27.31
877.407	44.37
877.579	5.46
877.752	64.85
877.924	7.51
878.097	40.28
878.269	-12.97
878.442	-2.73
878.614	77.14
878.786	81.24
878.959	50.52
879.131	-0.68
879.303	-45.74
879.476	-0.68
879.648	114
879.82	56.66
879.993	-10.92
880.165	40.28
880.337	38.23
880.509	79.19
880.681	34.13
880.854	1.37
881.026	32.08
881.198	75.09
881.37	71
881.542	-4.78
881.714	48.47
881.886	23.89
882.058	-2.73
882.23	15.7
882.402	-25.26
882.574	-45.74
882.746	19.8
882.918	64.85
883.09	5.46
883.262	21.85
883.434	54.61
883.606	32.08
883.778	-6.83
883.95	42.32
884.122	-31.4
884.293	-37.55
884.465	42.32
884.637	-31.4
884.809	5.46
884.98	-10.92
885.152	32.08
885.324	32.08
885.496	17.75
885.667	52.56
885.839	-6.83
886.011	101.72
886.182	-0.68
886.354	64.85
886.525	73.04
886.697	56.66
886.869	7.51
887.04	-17.07
887.212	83.28
887.383	-17.07
887.555	-10.92
887.726	-2.73
887.897	23.89
888.069	15.7
888.24	30.04
888.412	-10.92
888.583	68.95
888.754	-2.73
888.926	7.51
889.097	-19.11
889.268	25.94
889.44	9.56
889.611	34.13
889.782	-19.11
889.953	21.85
890.125	-19.11
890.296	-19.11
890.467	-0.68
890.638	46.42
890.809	21.85
890.98	81.24
891.151	9.56
891.323	68.95
891.494	7.51
891.665	-0.68
891.836	15.7
892.007	109.91
892.178	19.8
892.349	-10.92
892.52	-29.35
892.691	-21.16
892.862	56.66
893.032	50.52
893.203	60.76
893.374	-25.26
893.545	23.89
893.716	1.37
893.887	-33.45
894.057	54.61
894.228	83.28
894.399	38.23
894.57	-8.87
894.74	38.23
894.911	3.41
895.082	27.99
895.253	-25.26
895.423	-0.68
895.594	103.76
895.764	7.51
895.935	1.37
896.106	38.23
896.276	34.13
896.447	38.23
896.617	56.66
896.788	-8.87
896.958	-12.97
897.129	-0.68
897.299	42.32
897.47	-29.35
897.64	-12.97
897.81	7.51
897.981	40.28
898.151	-27.31
898.322	32.08
898.492	-2.73
898.662	60.76
898.832	15.7
899.003	-8.87
899.173	79.19
899.343	21.85
899.513	15.7
