Data from USB4F104151__35__11-36-49-105.txt Node

Date: Fri Mar 14 11:36:49 EDT 2025
User: louis
Spectrometer: USB4F10415
Trigger mode: 4
Integration Time (sec): 2.000000E-2
Scans to average: 1
Electric dark correction enabled: true
Nonlinearity correction enabled: false
Boxcar width: 0
XAxis mode: Wavelengths
Number of Pixels in Spectrum: 3648
>>>>>Begin Spectral Data<<<<<
178.204	-80.38
178.424	-80.38
178.644	-80.38
178.864	-80.38
179.084	-68.09
179.304	-8.7
179.524	30.21
179.744	-59.9
179.964	34.3
180.184	9.73
180.404	26.11
180.624	19.97
180.844	22.02
181.064	-35.33
181.283	-51.71
181.503	-29.18
181.723	42.5
181.943	-61.95
182.163	91.65
182.383	1.54
182.602	-0.51
182.822	-80.38
183.042	-14.85
183.262	-70.14
183.482	71.17
183.701	-23.04
183.921	24.06
184.141	9.73
184.361	62.98
184.58	19.97
184.8	15.87
185.02	7.68
185.239	7.68
185.459	-43.52
185.679	52.74
185.898	-88.57
186.118	50.69
186.338	-49.66
186.557	28.16
186.777	1.54
186.997	-41.47
187.216	-70.14
187.436	22.02
187.655	1.54
187.875	7.68
188.095	-6.66
188.314	42.5
188.534	1.54
188.753	-47.62
188.973	46.59
189.192	97.79
189.412	42.5
189.631	48.64
189.851	30.21
190.07	-8.7
190.29	17.92
190.509	-10.75
190.729	13.82
190.948	36.35
191.168	34.3
191.387	-2.56
191.607	11.78
191.826	-20.99
192.045	-31.23
192.265	-18.94
192.484	9.73
192.704	38.4
192.923	-10.75
193.142	24.06
193.362	9.73
193.581	-51.71
193.8	5.63
194.02	9.73
194.239	-33.28
194.458	67.07
194.678	-12.8
194.897	30.21
195.116	-12.8
195.335	54.78
195.555	42.5
195.774	24.06
195.993	-8.7
196.212	-12.8
196.432	28.16
196.651	-43.52
196.87	-45.57
197.089	30.21
197.308	58.88
197.528	-16.9
197.747	-8.7
197.966	-10.75
198.185	9.73
198.404	-57.86
198.623	73.21
198.842	-8.7
199.062	19.97
199.281	-35.33
199.5	-0.51
199.719	-6.66
199.938	30.21
200.157	36.35
200.376	-51.71
200.595	-14.85
200.814	44.54
201.033	-27.14
201.252	17.92
201.471	-31.23
201.69	11.78
201.909	7.68
202.128	-29.18
202.347	9.73
202.566	54.78
202.785	9.73
203.004	9.73
203.223	62.98
203.442	46.59
203.661	-45.57
203.879	48.64
204.098	13.82
204.317	1.54
204.536	46.59
204.755	-2.56
204.974	46.59
205.193	-55.81
205.411	17.92
205.63	24.06
205.849	-16.9
206.068	-39.42
206.287	-4.61
206.505	71.17
206.724	28.16
206.943	7.68
207.162	-47.62
207.381	-25.09
207.599	3.58
207.818	-6.66
208.037	-4.61
208.255	-16.9
208.474	26.11
208.693	7.68
208.911	50.69
209.13	11.78
209.349	50.69
209.567	-0.51
209.786	13.82
210.005	36.35
210.223	-25.09
210.442	9.73
210.661	19.97
210.879	-49.66
211.098	9.73
211.316	3.58
211.535	85.5
211.753	34.3
211.972	73.21
212.191	67.07
212.409	-23.04
212.628	22.02
212.846	-8.7
213.065	-10.75
213.283	34.3
213.502	19.97
213.72	-35.33
213.938	36.35
214.157	-27.14
214.375	9.73
214.594	30.21
214.812	22.02
215.031	50.69
215.249	15.87
215.467	73.21
215.686	30.21
215.904	-23.04
216.122	32.26
216.341	11.78
216.559	24.06
216.778	71.17
216.996	67.07
217.214	-18.94
217.432	-53.76
217.651	1.54
217.869	87.55
218.087	-47.62
218.306	-51.71
218.524	91.65
218.742	-51.71
218.96	71.17
219.179	-70.14
219.397	40.45
219.615	38.4
219.833	-6.66
220.051	38.4
220.27	1.54
220.488	40.45
220.706	-23.04
220.924	-35.33
221.142	13.82
221.36	-70.14
221.578	42.5
221.796	-10.75
222.015	-45.57
222.233	58.88
222.451	5.63
222.669	-4.61
222.887	26.11
223.105	52.74
223.323	40.45
223.541	-20.99
223.759	17.92
223.977	-45.57
224.195	30.21
224.413	-43.52
224.631	3.58
224.849	36.35
225.067	22.02
225.285	54.78
225.503	28.16
225.721	-47.62
225.939	60.93
226.157	71.17
226.375	108.03
226.592	-33.28
226.81	19.97
227.028	17.92
227.246	95.74
227.464	19.97
227.682	120.32
227.9	-6.66
228.117	1.54
228.335	5.63
228.553	1.54
228.771	5.63
228.989	116.22
229.206	46.59
229.424	58.88
229.642	38.4
229.86	-2.56
230.077	-4.61
230.295	3.58
230.513	46.59
230.731	22.02
230.948	67.07
231.166	-4.61
231.384	5.63
231.601	-4.61
231.819	83.45
232.037	-31.23
232.254	38.4
232.472	65.02
232.689	44.54
232.907	26.11
233.125	1.54
233.342	26.11
233.56	-16.9
233.777	19.97
233.995	-0.51
234.213	67.07
234.43	-90.62
234.648	30.21
234.865	30.21
235.083	48.64
235.3	-16.9
235.518	93.69
235.735	46.59
235.953	9.73
236.17	75.26
236.388	46.59
236.605	24.06
236.822	69.12
237.04	60.93
237.257	77.31
237.475	81.41
237.692	-41.47
237.909	22.02
238.127	77.31
238.344	17.92
238.562	44.54
238.779	22.02
238.996	5.63
239.214	-49.66
239.431	48.64
239.648	42.5
239.865	-23.04
240.083	44.54
240.3	85.5
240.517	3.58
240.735	46.59
240.952	-31.23
241.169	40.45
241.386	28.16
241.603	-12.8
241.821	5.63
242.038	19.97
242.255	52.74
242.472	-31.23
242.689	40.45
242.907	15.87
243.124	44.54
243.341	-14.85
243.558	-10.75
243.775	13.82
243.992	-55.81
244.209	48.64
244.426	17.92
244.643	34.3
244.86	24.06
245.078	-66.05
245.295	5.63
245.512	40.45
245.729	60.93
245.946	28.16
246.163	-2.56
246.38	75.26
246.597	-23.04
246.814	-10.75
247.031	-27.14
247.248	-49.66
247.464	11.78
247.681	38.4
247.898	-45.57
248.115	52.74
248.332	71.17
248.549	-76.29
248.766	46.59
248.983	-0.51
249.2	-35.33
249.417	26.11
249.633	36.35
249.85	44.54
250.067	46.59
250.284	-16.9
250.501	9.73
250.717	-8.7
250.934	-43.52
251.151	-12.8
251.368	-4.61
251.585	44.54
251.801	-20.99
252.018	-10.75
252.235	52.74
252.451	-14.85
252.668	-45.57
252.885	-10.75
253.102	26.11
253.318	34.3
253.535	-18.94
253.752	-12.8
253.968	13.82
254.185	-18.94
254.401	-27.14
254.618	28.16
254.835	-8.7
255.051	91.65
255.268	-29.18
255.484	26.11
255.701	-20.99
255.917	50.69
256.134	-4.61
256.351	-12.8
256.567	-35.33
256.784	32.26
257	-37.38
257.217	-2.56
257.433	36.35
257.65	3.58
257.866	30.21
258.082	65.02
258.299	-39.42
258.515	-53.76
258.732	7.68
258.948	-27.14
259.165	-6.66
259.381	44.54
259.597	-8.7
259.814	108.03
260.03	40.45
260.246	-29.18
260.463	73.21
260.679	19.97
260.895	-33.28
261.112	-2.56
261.328	54.78
261.544	19.97
261.761	9.73
261.977	-31.23
262.193	-16.9
262.409	9.73
262.626	-16.9
262.842	-27.14
263.058	-47.62
263.274	32.26
263.49	-23.04
263.707	30.21
263.923	34.3
264.139	7.68
264.355	-4.61
264.571	24.06
264.787	42.5
265.004	65.02
265.22	30.21
265.436	13.82
265.652	-53.76
265.868	9.73
266.084	-4.61
266.3	65.02
266.516	60.93
266.732	32.26
266.948	5.63
267.164	54.78
267.38	38.4
267.596	30.21
267.812	30.21
268.028	36.35
268.244	-0.51
268.46	-6.66
268.676	19.97
268.892	26.11
269.108	22.02
269.324	-47.62
269.54	1.54
269.756	-2.56
269.972	-0.51
270.188	-4.61
270.403	30.21
270.619	-27.14
270.835	22.02
271.051	13.82
271.267	60.93
271.483	7.68
271.698	1.54
271.914	24.06
272.13	46.59
272.346	30.21
272.562	-78.33
272.777	17.92
272.993	71.17
273.209	3.58
273.425	5.63
273.64	9.73
273.856	-29.18
274.072	-14.85
274.287	22.02
274.503	91.65
274.719	22.02
274.934	26.11
275.15	-59.9
275.366	22.02
275.581	-0.51
275.797	-0.51
276.012	30.21
276.228	30.21
276.444	17.92
276.659	77.31
276.875	-55.81
277.09	17.92
277.306	-8.7
277.521	30.21
277.737	30.21
277.952	1.54
278.168	73.21
278.383	-33.28
278.599	28.16
278.814	60.93
279.03	-64
279.245	95.74
279.461	-53.76
279.676	-4.61
279.892	-35.33
280.107	19.97
280.322	-27.14
280.538	-14.85
280.753	-4.61
280.969	44.54
281.184	54.78
281.399	52.74
281.615	56.83
281.83	52.74
282.045	28.16
282.26	24.06
282.476	46.59
282.691	-10.75
282.906	-18.94
283.122	-66.05
283.337	3.58
283.552	30.21
283.767	17.92
283.983	-41.47
284.198	-10.75
284.413	62.98
284.628	-43.52
284.843	40.45
285.058	-14.85
285.274	1.54
285.489	5.63
285.704	13.82
285.919	-27.14
286.134	13.82
286.349	7.68
286.564	58.88
286.779	50.69
286.995	19.97
287.21	15.87
287.425	85.5
287.64	-0.51
287.855	9.73
288.07	19.97
288.285	46.59
288.5	13.82
288.715	11.78
288.93	-2.56
289.145	17.92
289.36	-4.61
289.575	9.73
289.79	-2.56
290.004	-18.94
290.219	54.78
290.434	46.59
290.649	-45.57
290.864	-8.7
291.079	50.69
291.294	50.69
291.509	17.92
291.724	11.78
291.938	5.63
292.153	13.82
292.368	15.87
292.583	11.78
292.798	30.21
293.012	5.63
293.227	-16.9
293.442	13.82
293.657	13.82
293.871	75.26
294.086	-4.61
294.301	83.45
294.516	-23.04
294.73	-57.86
294.945	58.88
295.16	24.06
295.374	38.4
295.589	65.02
295.804	7.68
296.018	36.35
296.233	-10.75
296.447	-16.9
296.662	19.97
296.877	19.97
297.091	26.11
297.306	-29.18
297.52	-35.33
297.735	54.78
297.949	62.98
298.164	75.26
298.378	83.45
298.593	-12.8
298.807	32.26
299.022	24.06
299.236	36.35
299.451	44.54
299.665	-39.42
299.88	26.11
300.094	-49.66
300.309	58.88
300.523	28.16
300.737	3.58
300.952	58.88
301.166	19.97
301.381	11.78
301.595	-6.66
301.809	19.97
302.024	-55.81
302.238	93.69
302.452	58.88
302.667	-88.57
302.881	73.21
303.095	-2.56
303.309	-39.42
303.524	22.02
303.738	-4.61
303.952	13.82
304.166	34.3
304.381	17.92
304.595	54.78
304.809	11.78
305.023	28.16
305.237	-2.56
305.452	-31.23
305.666	48.64
305.88	38.4
306.094	-14.85
306.308	91.65
306.522	22.02
306.736	1.54
306.95	-29.18
307.164	15.87
307.379	73.21
307.593	46.59
307.807	46.59
308.021	85.5
308.235	17.92
308.449	38.4
308.663	9.73
308.877	42.5
309.091	30.21
309.305	54.78
309.519	-59.9
309.733	-14.85
309.947	9.73
310.161	32.26
310.374	-2.56
310.588	83.45
310.802	-8.7
311.016	-0.51
311.23	1.54
311.444	34.3
311.658	22.02
311.872	-20.99
312.085	77.31
312.299	13.82
312.513	50.69
312.727	30.21
312.941	24.06
313.154	38.4
313.368	62.98
313.582	44.54
313.796	-25.09
314.009	-6.66
314.223	11.78
314.437	9.73
314.651	62.98
314.864	-18.94
315.078	-2.56
315.292	38.4
315.505	-27.14
315.719	11.78
315.933	13.82
316.146	85.5
316.36	-27.14
316.573	-23.04
316.787	44.54
317.001	46.59
317.214	77.31
317.428	5.63
317.641	-12.8
317.855	83.45
318.068	11.78
318.282	-18.94
318.495	60.93
318.709	32.26
318.922	79.36
319.136	50.69
319.349	30.21
319.563	48.64
319.776	5.63
319.99	19.97
320.203	42.5
320.417	95.74
320.63	38.4
320.843	75.26
321.057	42.5
321.27	32.26
321.483	-18.94
321.697	34.3
321.91	34.3
322.124	26.11
322.337	3.58
322.55	-31.23
322.763	17.92
322.977	-12.8
323.19	13.82
323.403	19.97
323.617	95.74
323.83	112.13
324.043	67.07
324.256	50.69
324.469	-78.33
324.683	73.21
324.896	11.78
325.109	-31.23
325.322	-0.51
325.535	28.16
325.748	24.06
325.962	11.78
326.175	83.45
326.388	85.5
326.601	65.02
326.814	26.11
327.027	13.82
327.24	46.59
327.453	13.82
327.666	11.78
327.879	-0.51
328.092	62.98
328.305	3.58
328.518	60.93
328.731	-57.86
328.944	-14.85
329.157	44.54
329.37	75.26
329.583	-16.9
329.796	91.65
330.009	-4.61
330.222	-6.66
330.435	28.16
330.648	40.45
330.861	17.92
331.073	30.21
331.286	11.78
331.499	108.03
331.712	-6.66
331.925	28.16
332.138	3.58
332.35	-25.09
332.563	38.4
332.776	79.36
332.989	46.59
333.202	-12.8
333.414	77.31
333.627	24.06
333.84	19.97
334.053	58.88
334.265	-0.51
334.478	62.98
334.691	52.74
334.903	26.11
335.116	30.21
335.329	46.59
335.541	17.92
335.754	91.65
335.966	36.35
336.179	67.07
336.392	13.82
336.604	42.5
336.817	91.65
337.029	-12.8
337.242	17.92
337.454	-12.8
337.667	22.02
337.88	28.16
338.092	-47.62
338.305	3.58
338.517	-10.75
338.729	38.4
338.942	75.26
339.154	62.98
339.367	58.88
339.579	-47.62
339.792	65.02
340.004	65.02
340.217	-31.23
340.429	19.97
340.641	7.68
340.854	42.5
341.066	-12.8
341.278	5.63
341.491	97.79
341.703	73.21
341.915	13.82
342.128	73.21
342.34	5.63
342.552	60.93
342.764	3.58
342.977	30.21
343.189	-10.75
343.401	38.4
343.613	-53.76
343.826	-2.56
344.038	-20.99
344.25	28.16
344.462	19.97
344.674	77.31
344.886	-4.61
345.099	-16.9
345.311	22.02
345.523	75.26
345.735	15.87
345.947	-4.61
346.159	-10.75
346.371	28.16
346.583	69.12
346.795	54.78
347.007	5.63
347.219	42.5
347.431	-39.42
347.643	60.93
347.855	28.16
348.067	-6.66
348.279	-66.05
348.491	50.69
348.703	-8.7
348.915	-35.33
349.127	-18.94
349.339	71.17
349.551	-31.23
349.763	97.79
349.975	22.02
350.187	54.78
350.399	48.64
350.61	30.21
350.822	-31.23
351.034	17.92
351.246	52.74
351.458	5.63
351.669	1.54
351.881	50.69
352.093	30.21
352.305	73.21
352.517	9.73
352.728	95.74
352.94	46.59
353.152	99.84
353.363	5.63
353.575	50.69
353.787	52.74
353.999	95.74
354.21	71.17
354.422	71.17
354.633	28.16
354.845	38.4
355.057	54.78
355.268	75.26
355.48	-18.94
355.692	50.69
355.903	38.4
356.115	7.68
356.326	-0.51
356.538	-2.56
356.749	28.16
356.961	17.92
357.172	30.21
357.384	24.06
357.595	105.98
357.807	1.54
358.018	-57.86
358.23	-2.56
358.441	71.17
358.653	101.89
358.864	30.21
359.075	71.17
359.287	79.36
359.498	-18.94
359.709	22.02
359.921	5.63
360.132	75.26
360.344	22.02
360.555	-29.18
360.766	54.78
360.977	-8.7
361.189	56.83
361.4	52.74
361.611	67.07
361.823	54.78
362.034	48.64
362.245	42.5
362.456	-29.18
362.667	7.68
362.879	34.3
363.09	48.64
363.301	71.17
363.512	3.58
363.723	67.07
363.935	-35.33
364.146	132.61
364.357	52.74
364.568	56.83
364.779	9.73
364.99	81.41
365.201	38.4
365.412	87.55
365.623	13.82
365.834	-39.42
366.045	32.26
366.256	62.98
366.467	142.85
366.678	114.17
366.889	62.98
367.1	9.73
367.311	44.54
367.522	65.02
367.733	50.69
367.944	97.79
368.155	60.93
368.366	-0.51
368.577	73.21
368.788	30.21
368.999	83.45
369.209	62.98
369.42	-18.94
369.631	48.64
369.842	17.92
370.053	26.11
370.264	69.12
370.474	26.11
370.685	77.31
370.896	71.17
371.107	77.31
371.317	19.97
371.528	-49.66
371.739	28.16
371.95	75.26
372.16	26.11
372.371	67.07
372.582	24.06
372.792	77.31
373.003	79.36
373.214	62.98
373.424	81.41
373.635	-33.28
373.846	46.59
374.056	-18.94
374.267	3.58
374.477	15.87
374.688	26.11
374.898	5.63
375.109	108.03
375.319	26.11
375.53	52.74
375.74	9.73
375.951	46.59
376.161	62.98
376.372	54.78
376.582	69.12
376.793	36.35
377.003	30.21
377.214	9.73
377.424	40.45
377.635	17.92
377.845	-10.75
378.055	67.07
378.266	13.82
378.476	9.73
378.686	-18.94
378.897	87.55
379.107	69.12
379.317	60.93
379.528	17.92
379.738	38.4
379.948	24.06
380.158	60.93
380.369	7.68
380.579	93.69
380.789	-16.9
380.999	42.5
381.21	58.88
381.42	52.74
381.63	79.36
381.84	48.64
382.05	34.3
382.261	83.45
382.471	-14.85
382.681	-10.75
382.891	19.97
383.101	65.02
383.311	11.78
383.521	87.55
383.731	54.78
383.941	50.69
384.151	99.84
384.361	44.54
384.571	38.4
384.781	38.4
384.991	83.45
385.201	69.12
385.411	101.89
385.621	17.92
385.831	46.59
386.041	19.97
386.251	58.88
386.461	103.93
386.671	52.74
386.881	91.65
387.091	22.02
387.301	30.21
387.511	-2.56
387.72	56.83
387.93	65.02
388.14	71.17
388.35	52.74
388.56	42.5
388.769	38.4
388.979	108.03
389.189	65.02
389.399	108.03
389.609	-45.57
389.818	67.07
390.028	-33.28
390.238	54.78
390.447	22.02
390.657	58.88
390.867	54.78
391.076	1.54
391.286	-12.8
391.496	13.82
391.705	79.36
391.915	34.3
392.125	67.07
392.334	5.63
392.544	46.59
392.753	30.21
392.963	77.31
393.172	30.21
393.382	30.21
393.591	87.55
393.801	52.74
394.01	87.55
394.22	124.41
394.429	46.59
394.639	50.69
394.848	56.83
395.058	75.26
395.267	28.16
395.477	165.37
395.686	50.69
395.895	134.65
396.105	142.85
396.314	19.97
396.524	17.92
396.733	69.12
396.942	103.93
397.152	95.74
397.361	116.22
397.57	136.7
397.78	87.55
397.989	40.45
398.198	103.93
398.407	9.73
398.617	87.55
398.826	73.21
399.035	95.74
399.244	85.5
399.453	161.28
399.663	128.51
399.872	112.13
400.081	75.26
400.29	159.23
400.499	46.59
400.708	159.23
400.917	75.26
401.127	67.07
401.336	79.36
401.545	130.56
401.754	17.92
401.963	155.13
402.172	124.41
402.381	28.16
402.59	54.78
402.799	85.5
403.008	140.8
403.217	153.09
403.426	132.61
403.635	157.18
403.844	155.13
404.053	122.37
404.262	87.55
404.471	169.47
404.68	153.09
404.888	194.05
405.097	93.69
405.306	177.66
405.515	126.46
405.724	169.47
405.933	142.85
406.142	200.19
406.35	167.42
406.559	153.09
406.768	165.37
406.977	177.66
407.185	169.47
407.394	210.43
407.603	157.18
407.812	157.18
408.02	192
408.229	165.37
408.438	241.15
408.646	230.91
408.855	226.81
409.064	292.35
409.272	275.96
409.481	349.69
409.69	261.63
409.898	316.92
410.107	329.21
410.315	292.35
410.524	259.58
410.733	298.49
410.941	400.89
411.15	374.27
411.358	368.12
411.567	415.23
411.775	417.27
411.984	450.04
412.192	458.23
412.401	468.47
412.609	439.8
412.818	517.62
413.026	525.82
413.234	507.38
413.443	595.45
413.651	536.06
413.86	505.34
414.068	587.26
414.276	652.79
414.485	679.41
414.693	620.02
414.901	685.56
415.11	749.04
415.318	806.39
415.526	714.23
415.734	796.15
415.943	822.77
416.151	824.82
416.359	855.54
416.567	783.86
416.776	927.22
416.984	935.41
417.192	1029.62
417.4	1076.72
417.608	1021.42
417.817	1074.67
418.025	1158.64
418.233	1242.61
418.441	1246.7
418.649	1177.07
418.857	1256.94
419.065	1324.52
419.273	1379.82
419.481	1437.16
419.689	1480.17
419.897	1549.8
420.105	1584.62
420.313	1523.18
420.521	1627.62
420.729	1758.69
420.937	1781.22
421.145	1891.81
421.353	1914.34
421.561	1990.11
421.769	2104.8
421.977	2176.48
422.185	2106.85
422.393	2164.19
422.601	2348.51
422.809	2389.47
423.017	2422.24
423.224	2559.45
423.432	2524.63
423.64	2633.18
423.848	2809.3
424.056	2739.67
424.263	2991.57
424.471	2977.23
424.679	3032.53
424.887	3268.05
425.094	3380.68
425.302	3286.48
425.51	3403.21
425.718	3538.38
425.925	3476.94
426.133	3761.61
426.341	3896.77
426.548	4197.82
426.756	4093.38
426.964	4212.16
427.171	4332.99
427.379	4615.61
427.586	4631.99
427.794	4816.31
428.001	4894.13
428.209	5270.96
428.417	4988.34
428.624	5369.26
428.832	5338.54
429.039	5461.42
429.247	5479.85
429.454	6147.49
429.662	6337.95
429.869	5977.51
430.076	6247.84
430.284	6061.48
430.491	6452.64
430.699	6837.66
430.906	6886.81
431.114	6686.11
431.321	7128.47
431.528	7519.63
431.736	7771.53
431.943	8091.01
432.15	7914.89
432.358	8136.07
432.565	8447.36
432.772	8287.62
432.979	8777.08
433.187	8942.97
433.394	8832.38
433.601	9659.76
433.808	9403.76
434.016	9893.23
434.223	9745.77
434.43	10542.43
434.637	10349.92
434.844	10978.65
435.052	11105.62
435.259	11291.99
435.466	11181.4
435.673	11117.91
435.88	11969.87
436.087	12457.28
436.294	12502.34
436.501	12072.26
436.708	12537.15
436.915	13043
437.122	13440.31
437.329	13378.87
437.537	13847.85
437.743	14218.54
437.95	14015.79
438.157	14734.62
438.364	15287.57
438.571	15234.33
438.778	15435.03
438.985	16573.7
439.192	16000.27
439.399	16467.2
439.606	16100.62
439.813	17175.8
440.02	18087.15
440.227	17677.55
440.433	17671.41
440.64	18310.38
440.847	18078.96
441.054	18709.73
441.261	19721.43
441.467	19741.91
441.674	20079.82
441.881	20563.14
442.088	20708.55
442.294	20280.52
442.501	21245.12
442.708	21679.29
442.914	22473.9
443.121	23323.8
443.328	22596.78
443.534	24347.79
443.741	23774.36
443.948	23303.32
444.154	24917.12
444.361	24841.35
444.568	25064.58
444.774	25066.63
444.981	25472.12
445.187	25992.31
445.394	27290.72
445.6	26901.61
445.807	29604.92
446.013	28515.4
446.22	28761.16
446.426	29869.11
446.633	30348.34
446.839	31251.49
447.046	29813.82
447.252	31337.51
447.459	31853.59
447.665	31669.28
447.871	32760.84
448.078	34188.28
448.284	32693.26
448.491	33600.51
448.697	34620.4
448.903	35613.66
449.11	35441.64
449.316	34866.16
449.522	35515.36
449.728	36658.13
449.935	36963.28
450.141	36821.97
450.347	37491.65
450.553	36748.24
450.76	36963.28
450.966	38304.7
451.172	37755.84
451.378	38554.55
451.584	38206.39
451.791	39066.54
451.997	38491.06
452.203	39353.26
452.409	39185.32
452.615	39177.13
452.821	37854.14
453.027	37391.3
453.233	39535.52
453.44	37567.43
453.646	38118.33
453.852	38480.82
454.058	38886.32
454.264	37718.98
454.47	38470.58
454.676	37342.15
454.882	39093.16
455.088	35593.18
455.294	36189.14
455.5	36770.77
455.705	37249.99
455.911	35511.27
456.117	34866.16
456.323	34743.28
456.529	32853
456.735	34157.56
456.941	33600.51
457.147	32949.26
457.352	31824.92
457.558	31263.78
457.764	31546.4
457.97	30821.42
458.176	30254.13
458.381	29955.13
458.587	28716.11
458.793	28679.24
458.999	27137.12
459.204	29121.6
459.41	28400.72
459.616	26506.35
459.821	26578.03
460.027	26250.35
460.233	25941.11
460.438	24677.51
460.644	24816.77
460.85	23970.96
461.055	23264.41
461.261	23129.25
461.466	21798.07
461.672	21023.94
461.878	22535.34
462.083	21091.52
462.289	20483.27
462.494	20333.77
462.7	19340.5
462.905	19164.38
463.111	19514.58
463.316	19840.21
463.522	19084.51
463.727	19238.11
463.932	19311.83
464.138	19322.07
464.343	19121.37
464.549	18558.18
464.754	19377.37
464.959	19352.79
465.165	18910.43
465.37	18212.07
465.575	17745.14
465.781	18152.68
465.986	18611.43
466.191	17849.58
466.397	17767.66
466.602	16590.08
466.807	17229.05
467.012	17194.23
467.218	17233.15
467.423	17233.15
467.628	17100.03
467.833	17835.25
468.038	17345.78
468.244	16577.8
468.449	17319.16
468.654	16829.7
468.859	16813.31
469.064	16225.54
469.269	15893.77
469.474	15947.02
469.679	16497.92
469.885	15758.61
470.09	16182.54
470.295	16018.7
470.5	15455.51
470.705	15521.04
470.91	15064.35
471.115	15103.26
471.32	15402.26
471.525	15207.7
471.73	14951.71
471.935	15113.5
472.139	14531.87
472.344	14484.77
472.549	14439.72
472.754	14302.5
472.959	14048.55
473.164	13407.54
473.369	13430.07
473.574	14019.88
473.778	13839.66
473.983	13548.85
474.188	13798.7
474.393	12993.85
474.598	13221.17
474.802	12842.3
475.007	13051.19
475.212	12856.64
475.417	12485.95
475.621	12387.65
475.826	12528.96
476.031	12408.13
476.235	12074.31
476.44	12131.65
476.645	11818.32
476.849	11922.76
477.054	11660.62
477.259	11537.74
477.463	11605.33
477.668	11441.49
477.872	11461.97
478.077	11269.46
478.282	11122.01
478.486	10931.55
478.691	11085.14
478.895	10929.5
479.1	10992.98
479.304	10798.43
479.509	10501.47
479.713	10614.11
479.918	10501.47
480.122	10315.11
480.326	10659.17
480.531	10579.29
480.735	10362.21
480.94	10304.87
481.144	10524
481.348	9938.28
481.553	10253.67
481.757	10040.68
481.961	10190.18
482.166	10268
482.37	10020.2
482.574	9768.3
482.778	10155.37
482.983	10128.74
483.187	10138.98
483.391	10220.9
483.595	9966.95
483.8	9966.95
484.004	10020.2
484.208	10106.21
484.412	9903.46
484.616	10411.36
484.821	10231.14
485.025	9946.47
485.229	10118.5
485.433	10005.86
485.637	10040.68
485.841	9850.22
486.045	10065.25
486.249	10065.25
486.453	10147.17
486.657	9893.23
486.861	10014.06
487.065	9579.89
487.269	9993.58
487.473	9958.76
487.677	10120.55
487.881	10159.46
488.085	10136.93
488.289	9997.67
488.493	10040.68
488.697	10034.53
488.901	10128.74
489.105	9954.66
489.309	10151.27
489.512	10220.9
489.716	10286.44
489.92	10046.82
490.124	10071.4
490.328	10308.96
490.531	10214.76
490.735	10323.3
490.939	10300.77
491.143	10231.14
491.346	10388.83
491.55	10472.8
491.754	10472.8
491.958	10442.08
492.161	10458.46
492.365	10599.77
492.569	10679.65
492.772	10483.04
492.976	10949.98
493.18	10890.59
493.383	11064.66
493.587	10921.31
493.79	10986.84
493.994	10704.22
494.197	11113.81
494.401	11253.08
494.605	11179.35
494.808	11302.23
495.012	11119.96
495.215	11619.66
495.419	11715.92
495.622	11392.34
495.825	11648.33
496.029	11754.83
496.232	11939.15
496.436	11824.46
496.639	12150.09
496.843	11984.2
497.046	12369.22
497.249	12555.58
497.453	12641.6
497.656	12625.22
497.859	12864.83
498.063	12973.37
498.266	13215.03
498.469	12938.55
498.673	13339.96
498.876	13178.17
499.079	13505.84
499.282	13473.07
499.485	13868.33
499.689	14017.83
499.892	14126.38
500.095	14132.52
500.298	14673.18
500.501	14230.82
500.705	14791.97
500.908	15097.11
501.111	15144.22
501.314	15232.28
501.517	15426.84
501.72	15508.76
501.923	15465.75
502.126	16119.05
502.329	16168.2
502.532	16004.36
502.735	16389.38
502.938	16801.02
503.141	16798.98
503.344	16907.52
503.547	16794.88
503.75	17167.61
503.953	17775.86
504.156	17695.99
504.359	17966.32
504.562	18281.71
504.765	18339.05
504.968	18496.74
505.17	19035.36
505.373	18623.72
505.576	19115.23
505.779	19133.66
505.982	19295.45
506.185	19610.84
506.387	20108.49
506.59	20104.4
506.793	20657.35
506.996	20145.36
507.198	21056.7
507.401	20665.54
507.604	20681.92
507.807	21308.6
508.009	21267.64
508.212	21654.71
508.415	22054.06
508.617	22209.71
508.82	22238.38
509.022	22140.08
509.225	22770.85
509.428	23053.47
509.63	23135.39
509.833	22967.46
510.035	24001.68
510.238	23891.09
510.44	24108.18
510.643	24454.28
510.845	24575.11
511.048	24650.89
511.25	25279.61
511.453	24931.46
511.655	25824.37
511.858	25554.04
512.06	25762.93
512.262	25984.12
512.465	26109.04
512.667	26664.04
512.87	26887.27
513.072	27044.96
513.274	27327.58
513.477	27776.09
513.679	27937.88
513.881	27941.97
514.084	28554.32
514.286	28462.16
514.488	28791.88
514.69	29064.26
514.893	29592.64
515.095	29662.27
515.297	29705.27
515.499	29967.41
515.701	30215.22
515.904	30153.78
516.106	30741.55
516.308	30999.59
516.51	31587.36
516.712	31652.89
516.914	31173.67
517.116	32146.45
517.318	32361.49
517.52	32224.28
517.722	32605.2
517.925	33176.58
518.127	33623.04
518.329	33278.98
518.531	33270.79
518.733	33815.55
518.935	34270.2
519.136	34237.43
519.338	34583.54
519.54	34808.81
519.742	34982.89
519.944	35202.02
520.146	35511.27
520.348	35957.72
520.55	36258.77
520.752	35820.51
520.954	37014.48
521.155	36408.28
521.357	37186.5
521.559	37680.07
521.761	37872.57
521.963	38116.28
522.164	37833.66
522.366	38476.72
522.568	38677.43
522.77	38685.62
522.971	39289.77
523.173	38876.08
523.375	39574.44
523.576	39300.01
523.778	39723.94
523.98	40328.09
524.181	39869.34
524.383	39877.54
524.584	40270.75
524.786	40625.04
524.988	40436.63
525.189	40852.37
525.391	41163.66
525.592	41321.35
525.794	41311.11
525.995	41540.49
526.197	41542.53
526.398	41446.28
526.6	42007.42
526.801	41849.73
527.003	42234.75
527.204	42257.28
527.406	42683.25
527.607	42572.66
527.808	42720.12
528.01	42515.32
528.211	43010.93
528.412	43322.22
528.614	42888.05
528.815	43123.57
529.016	43971.43
529.218	43197.29
529.419	43645.8
529.62	43447.15
529.822	43330.41
530.023	43479.91
530.224	43703.14
530.425	43557.74
530.626	43590.5
530.828	43385.71
531.029	44317.53
531.23	43717.48
531.431	43828.07
531.632	44223.33
531.833	44047.2
532.035	44096.35
532.236	44221.28
532.437	44129.12
532.638	44170.08
532.839	44444.51
533.04	44272.48
533.241	44122.97
533.442	44755.8
533.643	44200.8
533.844	44317.53
534.045	44536.66
534.246	44299.1
534.447	44755.8
534.648	44163.93
534.849	44763.99
535.05	44321.63
535.251	44772.18
535.451	44419.93
535.652	44925.78
535.853	44206.94
536.054	44276.57
536.255	44839.76
536.456	43809.64
536.657	44884.82
536.857	44710.74
537.058	44282.72
537.259	44735.32
537.46	45204.3
537.66	44350.3
537.861	44407.64
538.062	44303.2
538.263	44637.01
538.463	44583.77
538.664	44614.49
538.865	44469.08
539.065	44700.5
539.266	43834.21
539.466	44903.25
539.667	44299.1
539.868	44573.53
540.068	44473.18
540.269	44522.33
540.469	45011.79
540.67	44309.34
540.87	44118.88
541.071	44512.09
541.271	44350.3
541.472	44288.86
541.672	43821.92
541.873	43883.36
542.073	43748.2
542.274	44637.01
542.474	43907.94
542.675	43807.59
542.875	44295
543.075	44012.38
543.276	43866.98
543.476	44315.48
543.676	44100.45
543.877	44602.2
544.077	44516.18
544.277	44063.58
544.478	43828.07
544.678	44022.62
544.878	44288.86
545.078	44292.96
545.279	44071.78
545.479	43641.7
545.679	44268.38
545.879	44333.92
546.079	44041.06
546.28	43821.92
546.48	44063.58
546.68	44260.19
546.88	44395.35
547.08	43723.62
547.28	43899.75
547.48	43195.24
547.68	44051.3
547.88	43926.37
548.081	43408.23
548.281	43727.72
548.481	43668.33
548.681	43907.94
548.881	43477.86
549.081	43823.97
549.28	43182.96
549.48	43846.5
549.68	43602.79
549.88	44137.31
550.08	43426.67
550.28	43842.4
550.48	43496.3
550.68	43731.81
550.88	43475.82
551.08	43383.66
551.279	43735.91
551.479	43240.3
551.679	43408.23
551.879	43377.51
552.079	43570.02
552.278	43309.93
552.478	43496.3
552.678	43547.5
552.878	43733.86
553.077	43391.85
553.277	42988.4
553.477	43410.28
553.676	43033.46
553.876	43600.74
554.076	43260.78
554.275	43404.14
554.475	42939.25
554.674	43279.21
554.874	43303.79
555.074	42765.17
555.273	43152.24
555.473	43266.92
555.672	42675.06
555.872	42969.97
556.071	42687.35
556.271	42754.93
556.47	43004.78
556.67	42597.24
556.869	42816.37
557.068	43062.13
557.268	42591.09
557.467	42720.12
557.667	42494.84
557.866	42732.4
558.065	42810.23
558.265	42429.3
558.464	42056.57
558.663	42736.5
558.863	42081.15
559.062	42613.62
559.261	41886.59
559.461	42533.75
559.66	41753.47
559.859	42382.2
560.058	42095.49
560.258	42175.36
560.457	41823.11
560.656	42097.53
560.855	41726.85
561.054	42355.58
561.253	41679.75
561.453	42216.32
561.652	41925.5
561.851	41855.87
562.05	41517.96
562.249	41522.05
562.448	41712.52
562.647	41503.62
562.846	41126.8
563.045	41266.06
563.244	41008.01
563.443	41274.25
563.642	40856.46
563.841	41587.59
564.04	40754.07
564.239	41311.11
564.438	40778.64
564.637	40995.73
564.836	41001.87
565.035	40821.65
565.234	40557.46
565.432	40184.73
565.631	40551.32
565.83	40414.1
566.029	40389.53
566.228	40283.03
566.427	40221.59
566.625	40123.29
566.824	39691.17
567.023	40635.28
567.222	39381.93
567.42	40397.72
567.619	40078.24
567.818	39687.07
568.016	39572.39
568.215	40016.8
568.414	39347.11
568.612	40258.46
568.811	39560.1
569.01	39230.38
569.208	39181.23
569.407	39422.89
569.605	38964.14
569.804	39680.93
570.002	38898.61
570.201	39205.8
570.4	38853.55
570.598	39017.39
570.797	38763.44
570.995	38910.89
571.193	38456.25
571.392	38626.23
571.59	37964.73
571.789	38421.43
571.987	38339.51
572.186	38415.29
572.384	38067.13
572.582	38228.92
572.781	38370.23
572.979	37387.21
573.177	37977.02
573.376	37800.9
573.574	37704.64
573.772	37778.37
573.971	37264.33
574.169	37424.07
574.367	37376.97
574.565	37592
574.763	37080.01
574.962	37170.12
575.16	36688.85
575.358	37354.44
575.556	37055.43
575.754	37428.16
575.952	36707.28
576.151	36936.65
576.349	36340.69
576.547	36834.25
576.745	36660.18
576.943	36752.34
577.141	36643.79
577.339	36547.54
577.537	36201.43
577.735	36733.9
577.933	36068.31
578.131	35963.87
578.329	35806.17
578.527	35699.68
578.725	35439.59
578.923	35859.42
579.121	35650.53
579.319	35716.06
579.516	35535.84
579.714	35693.54
579.912	35628
580.11	35408.87
580.308	35390.44
580.506	35068.9
580.704	34585.58
580.901	34851.82
581.099	35185.64
581.297	34667.5
581.495	34620.4
581.692	34366.45
581.89	34325.49
582.088	34704.37
582.285	34309.11
582.483	34132.98
582.681	34204.66
582.878	34145.27
583.076	33889.27
583.274	34110.46
583.471	33303.56
583.669	33942.52
583.866	33543.17
584.064	33766.4
584.262	33123.33
584.459	33725.44
584.657	33639.42
584.854	33549.31
585.052	32715.79
585.249	33508.35
585.447	33082.38
585.644	32934.92
585.841	33049.61
586.039	33084.42
586.236	32470.03
586.434	32877.58
586.631	32347.15
586.828	32658.45
587.026	32551.95
587.223	32338.96
587.42	32228.37
587.618	32490.51
587.815	31757.34
588.012	31800.35
588.21	31972.38
588.407	31900.7
588.604	31517.73
588.801	31587.36
588.999	31755.29
589.196	31368.23
589.393	31581.21
589.59	31228.96
589.787	31517.73
589.984	31194.15
590.182	30774.31
590.379	30946.34
590.576	30571.57
590.773	31079.46
590.97	30997.54
591.167	30864.43
591.364	30571.57
591.561	30905.38
591.758	30047.29
591.955	30389.3
592.152	30592.05
592.349	30116.92
592.546	30284.85
592.743	30211.12
592.94	29547.58
593.137	29973.56
593.334	29840.44
593.531	29127.75
593.727	29834.3
593.924	29523.01
594.121	28990.53
594.318	29549.63
594.515	29439.04
594.712	29310.02
594.908	29400.13
595.105	29254.72
595.302	28838.98
595.499	28681.29
595.696	29238.34
595.892	28783.69
596.089	28761.16
596.286	28683.34
596.482	28083.28
596.679	28607.56
596.876	28370
597.072	28535.88
597.269	27862.1
597.466	27903.06
597.662	27962.45
597.859	28007.51
598.055	28025.94
598.252	28136.53
598.448	28011.6
598.645	27479.13
598.841	27335.77
599.038	27704.41
599.234	27384.93
599.431	27216.99
599.627	27071.59
599.824	27077.73
600.02	26995.81
600.217	27100.26
600.413	26858.6
600.609	26657.9
600.806	26694.76
601.002	26817.64
601.198	26698.86
601.395	26133.62
601.591	26348.65
601.787	26291.31
601.984	26113.14
602.18	26254.45
602.376	26074.23
602.572	25791.61
602.769	25724.02
602.965	25773.17
603.161	25906.29
603.357	25595
603.553	25531.51
603.75	25732.22
603.946	25396.35
604.142	25629.82
604.338	25238.65
604.534	25480.32
604.73	25349.25
604.926	25083.01
605.122	25117.82
605.318	24931.46
605.514	24843.4
605.71	24765.57
605.906	24661.13
606.102	24751.24
606.298	24571.02
606.494	24200.33
606.69	24552.59
606.886	24640.65
607.082	24132.75
607.278	24927.36
607.474	24222.86
607.67	24550.54
607.866	23889.04
608.062	24296.59
608.257	24173.71
608.453	24034.45
608.649	24108.18
608.845	23561.37
609.041	23852.18
609.236	24099.98
609.432	23714.97
609.628	23688.34
609.824	23575.7
610.019	23643.29
610.215	23547.03
610.411	23696.53
610.606	23305.37
610.802	23661.72
610.998	23598.23
611.193	23542.94
611.389	23069.86
611.584	23338.14
611.78	23020.7
611.976	23651.48
612.171	22813.86
612.367	22983.84
612.562	22811.81
612.758	22695.08
612.953	22854.82
613.149	22883.49
613.344	22748.32
613.539	23151.77
613.735	22625.45
613.93	22922.4
614.126	22621.35
614.321	22705.32
614.517	22377.64
614.712	22326.44
614.907	22641.83
615.103	22576.3
615.298	22256.81
615.493	22441.13
615.688	22170.8
615.884	22801.57
616.079	22164.65
616.274	22363.31
616.47	22324.4
616.665	22312.11
616.86	21986.48
617.055	22062.26
617.25	22269.1
617.445	22097.07
617.641	21497.02
617.836	22234.28
618.031	21564.6
618.226	21894.32
618.421	21486.78
618.616	22080.69
618.811	21351.61
619.006	21533.88
619.201	21003.46
619.396	21411
619.591	20858.05
619.786	21415.1
619.981	20845.76
620.176	20907.2
620.371	20841.67
620.566	20923.58
620.761	20782.27
620.956	20645.06
621.151	20430.02
621.346	20452.55
621.541	20397.26
621.735	20831.43
621.93	20102.35
622.125	20026.57
622.32	19821.78
622.515	19684.56
622.709	19535.06
622.904	19797.2
623.099	19477.72
623.294	19762.39
623.488	19455.19
623.683	19580.12
623.878	18975.97
624.072	19066.08
624.267	19031.26
624.462	18984.16
624.656	18752.74
624.851	18767.07
625.046	18545.89
625.24	18652.39
625.435	18425.06
625.629	18226.41
625.824	18361.58
626.018	18253.03
626.213	17886.45
626.407	17843.44
626.602	17523.96
626.796	17718.51
626.991	17642.74
627.185	17579.25
627.38	17308.92
627.574	17276.15
627.768	17239.29
627.963	16895.23
628.157	17001.72
628.352	17190.14
628.546	16602.37
628.74	17097.98
628.935	16864.51
629.129	16739.58
629.323	16373
629.517	16575.75
629.712	16360.71
629.906	16129.29
630.1	16219.4
630.294	16196.87
630.489	15955.21
630.683	16082.19
630.877	15721.74
631.071	15807.76
631.265	15836.43
631.459	15684.88
631.653	15691.02
631.848	15365.4
632.042	15334.68
632.236	15408.4
632.43	15039.77
632.624	15183.13
632.818	14855.45
633.012	14914.84
633.206	14726.43
633.4	14959.9
633.594	14822.69
633.788	14738.72
633.982	14744.86
634.176	14816.54
634.369	14277.93
634.563	14398.76
634.757	14187.82
634.951	14261.54
635.145	14169.38
635.339	14038.31
635.533	14009.64
635.726	13954.35
635.92	13899.05
636.114	13989.16
636.308	13903.15
636.501	13638.96
636.695	13610.29
636.889	13499.7
637.083	13532.47
637.276	13286.71
637.47	13233.46
637.664	13403.44
637.857	13235.51
638.051	13163.83
638.244	13354.29
638.438	13188.41
638.632	12733.76
638.825	12688.7
639.019	12901.69
639.212	12660.03
639.406	12567.87
639.599	12533.06
639.793	12512.58
639.986	12135.75
640.18	12406.08
640.373	12356.93
640.567	12182.85
640.76	12143.94
640.954	12100.94
641.147	12072.26
641.34	11922.76
641.534	11740.49
641.727	11801.93
641.92	11840.84
642.114	11466.07
642.307	11715.92
642.5	11699.53
642.694	11496.78
642.887	11400.53
643.08	11492.69
643.273	11365.71
643.467	11367.76
643.66	11234.64
643.853	11248.98
644.046	10968.41
644.239	11035.99
644.432	10956.12
644.626	10929.5
644.819	10906.97
645.012	10681.69
645.205	10909.02
645.398	10835.29
645.591	10517.86
645.784	10784.09
645.977	10397.03
646.17	10638.69
646.363	10356.07
646.556	10419.55
646.749	10335.59
646.942	10282.34
647.135	10200.42
647.328	10175.84
647.521	10157.41
647.714	9833.83
647.907	9983.34
648.099	9846.12
648.292	10007.91
648.485	9932.14
648.678	9725.29
648.871	9661.8
649.064	9586.03
649.256	9579.89
649.449	9665.9
649.642	9373.04
649.835	9325.94
650.027	9481.58
650.22	9313.65
650.413	9276.79
650.605	9215.35
650.798	9289.07
650.991	9016.69
651.183	9094.52
651.376	8961.4
651.568	8854.9
651.761	8813.95
651.954	8899.96
652.146	8637.82
652.339	8899.96
652.531	8916.34
652.724	8588.67
652.916	8615.29
653.109	8637.82
653.301	8727.93
653.494	8805.75
653.686	8281.47
653.879	8652.16
654.071	8469.89
654.263	8371.58
654.456	8322.43
654.648	8422.78
654.84	8220.03
655.033	8263.04
655.225	8238.47
655.417	8193.41
655.61	8220.03
655.802	8146.31
655.994	8019.33
656.186	7982.47
656.379	8174.98
656.571	7884.17
656.763	7783.82
656.955	7828.87
657.148	7837.06
657.34	7941.51
657.532	7640.46
657.724	7640.46
657.916	7734.67
658.108	7562.64
658.3	7658.89
658.492	7505.29
658.684	7445.9
658.876	7353.74
659.068	7165.33
659.26	7089.56
659.452	7292.3
659.644	7206.29
659.836	7210.39
660.028	7187.86
660.22	7146.9
660.412	7067.03
660.604	6968.73
660.796	6968.73
660.988	6874.52
661.18	6948.25
661.372	7024.02
661.563	7009.69
661.755	6825.37
661.947	6829.46
662.139	6716.83
662.331	6444.45
662.522	6630.81
662.714	6669.72
662.906	6636.95
663.097	6593.95
663.289	6485.41
663.481	6452.64
663.673	6501.79
663.864	6432.16
664.056	6309.28
664.247	6268.32
664.439	6192.55
664.631	6469.02
664.822	6340
665.014	6225.31
665.205	6208.93
665.397	6100.39
665.588	6143.39
665.78	5981.6
665.971	6022.56
666.163	6077.86
666.354	5828.01
666.546	6006.18
666.737	5844.39
666.929	6063.52
667.12	5936.55
667.311	5893.54
667.503	5793.19
667.694	5848.49
667.885	5674.41
668.077	5653.93
668.268	5653.93
668.459	5563.82
668.651	5565.87
668.842	5649.83
669.033	5629.35
669.224	5490.09
669.416	5475.76
669.607	5488.04
669.798	5512.62
669.989	5479.85
670.18	5426.61
670.371	5455.28
670.563	5260.72
670.754	5404.08
670.945	5213.62
671.136	5207.47
671.327	5254.58
671.518	5105.07
671.709	5238.19
671.9	5211.57
672.091	5189.04
672.282	5141.94
672.473	5244.34
672.664	5141.94
672.855	5184.94
673.046	5055.92
673.237	5184.94
673.428	4933.04
673.619	5088.69
673.809	5035.44
674	5010.87
674.191	4838.84
674.382	5115.31
674.573	5017.01
674.764	4875.7
674.954	4994.48
675.145	4752.82
675.336	4804.02
675.527	4785.59
675.717	4910.52
675.908	4730.3
676.099	4791.73
676.289	4871.61
676.48	4709.82
676.671	4646.33
676.861	4625.85
677.052	4662.71
677.243	4675
677.433	4543.93
677.624	4490.68
677.814	4474.3
678.005	4576.7
678.195	4693.43
678.386	4515.26
678.576	4650.43
678.767	4666.81
678.957	4554.17
679.148	4652.47
679.338	4498.88
679.529	4459.96
679.719	4515.26
679.909	4687.29
680.1	4324.8
680.29	4416.96
680.481	4316.61
680.671	4320.7
680.861	4404.67
681.052	4525.5
681.242	4423.1
681.432	4376
681.622	4335.04
681.813	4476.35
682.003	4273.6
682.193	4349.37
682.383	4353.47
682.573	4394.43
682.764	4224.45
682.954	4378.05
683.144	4292.03
683.334	4281.79
683.524	4160.96
683.714	4341.18
683.904	4230.59
684.094	4249.02
684.284	4197.82
684.474	4144.58
684.664	4232.64
684.854	4167.1
685.044	4238.78
685.234	4056.51
685.424	4152.77
685.614	4179.39
685.804	4126.15
685.994	4109.76
686.184	4160.96
686.374	4132.29
686.564	4111.81
686.753	3941.83
686.943	4001.22
687.133	4062.66
687.323	3919.3
687.513	4056.51
687.702	3954.12
687.892	4007.36
688.082	3966.4
688.272	3892.68
688.461	3845.57
688.651	3857.86
688.841	3780.04
689.03	3843.53
689.22	3761.61
689.41	3720.65
689.599	3827.14
689.789	3687.88
689.979	3765.7
690.168	3671.5
690.358	3694.02
690.547	3681.74
690.737	3651.02
690.926	3622.34
691.116	3528.14
691.305	3726.79
691.495	3595.72
691.684	3651.02
691.874	3583.43
692.063	3534.28
692.252	3542.47
692.442	3511.75
692.631	3397.07
692.82	3382.73
693.01	3360.2
693.199	3458.51
693.388	3407.31
693.578	3321.29
693.767	3458.51
693.956	3343.82
694.146	3370.44
694.335	3378.64
694.524	3190.22
694.713	3335.63
694.902	3229.13
695.092	3335.63
695.281	3251.66
695.47	3366.35
695.659	3141.07
695.848	3143.12
696.037	3229.13
696.226	3190.22
696.415	3200.46
696.604	3179.98
696.793	3151.31
696.982	3186.13
697.171	3218.89
697.36	3073.49
697.549	3048.91
697.738	3079.63
697.927	2954.71
698.116	3108.3
698.305	2942.42
698.494	2983.38
698.683	3116.5
698.872	2999.76
699.061	3065.3
699.25	3046.87
699.438	2936.28
699.627	2952.66
699.816	3024.34
700.005	2913.75
700.193	2950.61
700.382	2790.87
700.571	2866.64
700.76	2870.74
700.948	2944.47
701.137	2936.28
701.326	2819.54
701.514	2903.51
701.703	2870.74
701.892	2698.71
702.08	2872.79
702.269	2897.36
702.457	2657.75
702.646	2713.05
702.834	2885.08
703.023	2876.88
703.212	2741.72
703.4	2749.91
703.589	2794.97
703.777	2864.6
703.965	2758.1
704.154	2778.58
704.342	2835.92
704.531	2758.1
704.719	2729.43
704.907	2776.53
705.096	2647.51
705.284	2715.09
705.472	2797.01
705.661	2688.47
705.849	2700.76
706.037	2819.54
706.226	2754.01
706.414	2756.05
706.602	2667.99
706.79	2713.05
706.979	2737.62
707.167	2561.5
707.355	2751.96
707.543	2618.84
707.731	2581.98
707.919	2631.13
708.107	2573.78
708.296	2557.4
708.484	2573.78
708.672	2706.9
708.86	2618.84
709.048	2696.66
709.236	2559.45
709.424	2614.74
709.612	2516.44
709.8	2737.62
709.988	2641.37
710.176	2588.12
710.364	2622.94
710.551	2508.25
710.739	2690.52
710.927	2579.93
711.115	2581.98
711.303	2670.04
711.491	2594.26
711.679	2530.78
711.866	2633.18
712.054	2567.64
712.242	2559.45
712.43	2594.26
712.617	2489.82
712.805	2723.29
712.993	2586.07
713.181	2506.2
713.368	2618.84
713.556	2600.41
713.744	2481.63
713.931	2627.03
714.119	2545.11
714.306	2584.02
714.494	2579.93
714.682	2510.3
714.869	2606.55
715.057	2500.06
715.244	2565.59
715.432	2573.78
715.619	2516.44
715.807	2536.92
715.994	2608.6
716.182	2528.73
716.369	2610.65
716.556	2633.18
716.744	2495.96
716.931	2508.25
717.119	2526.68
717.306	2602.46
717.493	2500.06
717.681	2502.11
717.868	2498.01
718.055	2551.26
718.242	2506.2
718.43	2608.6
718.617	2536.92
718.804	2567.64
718.991	2565.59
719.179	2467.29
719.366	2381.28
719.553	2661.85
719.74	2549.21
719.927	2438.62
720.114	2504.15
720.301	2518.49
720.488	2547.16
720.676	2514.39
720.863	2412
721.05	2594.26
721.237	2573.78
721.424	2577.88
721.611	2565.59
721.798	2633.18
721.985	2573.78
722.172	2446.81
722.358	2450.91
722.545	2649.56
722.732	2520.54
722.919	2594.26
723.106	2549.21
723.293	2616.79
723.48	2524.63
723.667	2512.35
723.853	2520.54
724.04	2532.83
724.227	2557.4
724.414	2567.64
724.6	2616.79
724.787	2600.41
724.974	2561.5
725.161	2663.9
725.347	2635.22
725.534	2510.3
725.72	2590.17
725.907	2487.77
726.094	2553.31
726.28	2567.64
726.467	2534.87
726.653	2536.92
726.84	2489.82
727.027	2590.17
727.213	2389.47
727.4	2567.64
727.586	2594.26
727.773	2555.35
727.959	2547.16
728.145	2518.49
728.332	2581.98
728.518	2524.63
728.705	2469.34
728.891	2457.05
729.077	2532.83
729.264	2559.45
729.45	2606.55
729.636	2536.92
729.823	2446.81
730.009	2510.3
730.195	2561.5
730.382	2487.77
730.568	2528.73
730.754	2618.84
730.94	2457.05
731.126	2528.73
731.313	2594.26
731.499	2512.35
731.685	2602.46
731.871	2477.53
732.057	2563.54
732.243	2512.35
732.429	2426.33
732.615	2518.49
732.801	2477.53
732.987	2522.59
733.173	2534.87
733.359	2389.47
733.545	2438.62
733.731	2549.21
733.917	2506.2
734.103	2475.48
734.289	2414.04
734.475	2463.19
734.661	2530.78
734.847	2534.87
735.033	2455
735.219	2563.54
735.404	2534.87
735.59	2534.87
735.776	2385.37
735.962	2467.29
736.148	2440.67
736.333	2514.39
736.519	2559.45
736.705	2520.54
736.89	2371.04
737.076	2483.67
737.262	2254.3
737.447	2536.92
737.633	2450.91
737.819	2414.04
738.004	2485.72
738.19	2500.06
738.375	2495.96
738.561	2467.29
738.747	2360.8
738.932	2280.93
739.118	2340.32
739.303	2455
739.489	2233.82
739.674	2297.31
739.859	2315.74
740.045	2387.42
740.23	2356.7
740.416	2321.88
740.601	2434.52
740.786	2287.07
740.972	2274.78
741.157	2321.88
741.342	2164.19
741.528	2299.36
741.713	2301.4
741.898	2350.56
742.084	2201.05
742.269	2268.64
742.454	2221.53
742.639	2356.7
742.824	2250.21
743.01	2291.17
743.195	2272.73
743.38	2213.34
743.565	2137.57
743.75	2237.92
743.935	2102.75
744.12	2170.33
744.305	2147.81
744.49	2094.56
744.675	2209.25
744.86	2088.42
745.045	2233.82
745.23	2254.3
745.415	2151.9
745.6	2254.3
745.785	2090.46
745.97	2090.46
746.155	2086.37
746.34	2104.8
746.525	1990.11
746.71	2141.66
746.895	2096.61
747.079	2106.85
747.264	2016.74
747.449	1957.35
747.634	1902.05
747.819	1955.3
748.003	1934.82
748.188	2037.22
748.373	1986.02
748.557	2018.79
748.742	1877.48
748.927	1824.23
749.111	1897.96
749.296	1824.23
749.481	1877.48
749.665	1795.56
749.85	1873.38
750.034	1857
750.219	1762.79
750.404	1754.6
750.588	1777.12
750.773	1805.8
750.957	1680.87
751.141	1799.65
751.326	1672.68
751.51	1848.8
751.695	1703.4
751.879	1682.92
752.064	1693.16
752.248	1709.54
752.432	1644.01
752.617	1697.25
752.801	1639.91
752.985	1662.44
753.17	1588.71
753.354	1609.19
753.538	1596.9
753.722	1541.61
753.907	1596.9
754.091	1644.01
754.275	1560.04
754.459	1512.94
754.643	1492.46
754.828	1625.58
755.012	1512.94
755.196	1474.03
755.38	1435.11
755.564	1394.15
755.748	1443.31
755.932	1377.77
756.116	1484.27
756.3	1506.79
756.484	1373.68
756.668	1365.48
756.852	1492.46
757.036	1474.03
757.22	1365.48
757.404	1375.72
757.588	1357.29
757.772	1396.2
757.956	1390.06
758.14	1310.19
758.323	1254.89
758.507	1349.1
758.691	1404.39
758.875	1355.24
759.059	1295.85
759.242	1336.81
759.426	1363.44
759.61	1215.98
759.794	1175.02
759.977	1189.36
760.161	1248.75
760.345	1332.72
760.528	1277.42
760.712	1246.7
760.895	1220.08
761.079	1256.94
761.263	1244.65
761.446	1256.94
761.63	1076.72
761.813	1140.21
761.997	1193.45
762.18	1132.01
762.364	1138.16
762.547	1107.44
762.731	1166.83
762.914	1113.58
763.098	1191.41
763.281	1119.73
763.464	1111.54
763.648	1076.72
763.831	1156.59
764.015	1127.92
764.198	1154.54
764.381	1146.35
764.564	1197.55
764.748	1013.23
764.931	1060.34
765.114	1046
765.297	1111.54
765.481	1043.95
765.664	1023.47
765.847	1058.29
766.03	1095.15
766.213	992.75
766.397	1086.96
766.58	1107.44
766.763	1056.24
766.946	1048.05
767.129	1025.52
767.312	1046
767.495	1121.77
767.678	1007.09
767.861	1046
768.044	984.56
768.227	1052.14
768.41	1005.04
768.593	1000.94
768.776	986.61
768.959	1043.95
769.142	939.51
769.324	916.98
769.507	957.94
769.69	884.21
769.873	951.79
770.056	1039.86
770.239	888.31
770.421	980.47
770.604	996.85
770.787	935.41
770.97	1025.52
771.152	851.44
771.335	921.07
771.518	871.92
771.7	962.03
771.883	898.55
772.066	921.07
772.248	943.6
772.431	888.31
772.613	919.03
772.796	843.25
772.978	910.83
773.161	929.27
773.343	796.15
773.526	814.58
773.708	921.07
773.891	816.63
774.073	804.34
774.256	763.38
774.438	847.35
774.621	777.72
774.803	820.72
774.985	798.2
775.168	656.89
775.35	833.01
775.532	755.19
775.715	802.29
775.897	824.82
776.079	798.2
776.261	693.75
776.444	744.95
776.626	703.99
776.808	749.04
776.99	652.79
777.173	808.44
777.355	730.61
777.537	679.41
777.719	607.73
777.901	744.95
778.083	656.89
778.265	679.41
778.447	673.27
778.629	693.75
778.811	742.9
778.993	718.33
779.175	740.85
779.357	677.37
779.539	703.99
779.721	701.94
779.903	712.18
780.085	716.28
780.267	650.74
780.449	642.55
780.631	570.87
780.812	626.17
780.994	607.73
781.176	568.82
781.358	656.89
781.54	630.26
781.721	595.45
781.903	583.16
782.085	527.86
782.267	566.78
782.448	546.3
782.63	542.2
782.812	556.54
782.993	542.2
783.175	603.64
783.357	527.86
783.538	527.86
783.72	509.43
783.901	519.67
784.083	529.91
784.264	546.3
784.446	503.29
784.627	515.58
784.809	521.72
784.99	445.95
785.172	476.66
785.353	488.95
785.535	544.25
785.716	476.66
785.897	431.61
786.079	480.76
786.26	521.72
786.441	482.81
786.623	437.75
786.804	517.62
786.985	460.28
787.167	454.14
787.348	484.86
787.529	407.03
787.71	439.8
787.891	480.76
788.073	333.31
788.254	378.36
788.435	447.99
788.616	517.62
788.797	480.76
788.978	392.7
789.159	419.32
789.34	464.38
789.522	402.94
789.703	419.32
789.884	353.79
790.065	419.32
790.246	429.56
790.427	329.21
790.607	357.88
790.788	343.55
790.969	323.07
791.15	355.83
791.331	382.46
791.512	347.64
791.693	321.02
791.874	333.31
792.054	386.55
792.235	394.75
792.416	333.31
792.597	314.88
792.778	359.93
792.958	339.45
793.139	265.72
793.32	286.2
793.5	310.78
793.681	325.12
793.862	339.45
794.042	351.74
794.223	300.54
794.404	345.59
794.584	323.07
794.765	306.68
794.945	302.59
795.126	364.03
795.306	337.4
795.487	302.59
795.667	306.68
795.848	300.54
796.028	267.77
796.209	325.12
796.389	357.88
796.57	357.88
796.75	265.72
796.93	380.41
797.111	316.92
797.291	343.55
797.471	275.96
797.652	280.06
797.832	241.15
798.012	269.82
798.192	243.2
798.373	243.2
798.553	323.07
798.733	284.16
798.913	183.81
799.093	261.63
799.274	325.12
799.454	243.2
799.634	321.02
799.814	251.39
799.994	267.77
800.174	202.24
800.354	212.48
800.534	210.43
800.714	257.53
800.894	294.4
801.074	208.38
801.254	247.29
801.434	222.72
801.614	275.96
801.794	235
801.974	560.63
802.154	214.52
802.334	269.82
802.514	208.38
802.693	214.52
802.873	275.96
803.053	232.96
803.233	288.25
803.413	165.37
803.592	89.6
803.772	235
803.952	235
804.131	251.39
804.311	116.22
804.491	175.61
804.67	235
804.85	185.85
805.03	243.2
805.209	198.14
805.389	85.5
805.568	220.67
805.748	210.43
805.928	161.28
806.107	140.8
806.287	237.05
806.466	185.85
806.646	169.47
806.825	177.66
807.004	214.52
807.184	208.38
807.363	226.81
807.543	267.77
807.722	134.65
807.901	198.14
808.081	251.39
808.26	138.75
808.439	165.37
808.619	185.85
808.798	187.9
808.977	204.28
809.156	218.62
809.336	228.86
809.515	220.67
809.694	120.32
809.873	220.67
810.052	138.75
810.231	200.19
810.411	122.37
810.59	216.57
810.769	140.8
810.948	192
811.127	153.09
811.306	140.8
811.485	110.08
811.664	138.75
811.843	167.42
812.022	187.9
812.201	183.81
812.38	114.17
812.559	210.43
812.737	202.24
812.916	208.38
813.095	165.37
813.274	99.84
813.453	110.08
813.632	114.17
813.811	97.79
813.989	99.84
814.168	155.13
814.347	112.13
814.526	132.61
814.704	181.76
814.883	159.23
815.062	151.04
815.24	122.37
815.419	118.27
815.598	153.09
815.776	120.32
815.955	167.42
816.133	112.13
816.312	99.84
816.49	85.5
816.669	128.51
816.847	175.61
817.026	192
817.204	169.47
817.383	110.08
817.561	97.79
817.74	114.17
817.918	144.89
818.097	93.69
818.275	116.22
818.453	130.56
818.632	118.27
818.81	128.51
818.988	91.65
819.167	126.46
819.345	218.62
819.523	101.89
819.701	136.7
819.879	175.61
820.058	79.36
820.236	118.27
820.414	95.74
820.592	175.61
820.77	192
820.948	116.22
821.127	22.02
821.305	185.85
821.483	97.79
821.661	73.21
821.839	138.75
822.017	153.09
822.195	153.09
822.373	128.51
822.551	140.8
822.729	140.8
822.907	89.6
823.085	116.22
823.262	77.31
823.44	105.98
823.618	112.13
823.796	99.84
823.974	189.95
824.152	79.36
824.329	91.65
824.507	148.99
824.685	130.56
824.863	77.31
825.04	28.16
825.218	120.32
825.396	124.41
825.574	103.93
825.751	15.87
825.929	87.55
826.107	50.69
826.284	126.46
826.462	110.08
826.639	81.41
826.817	69.12
826.994	46.59
827.172	81.41
827.349	124.41
827.527	138.75
827.704	153.09
827.882	112.13
828.059	91.65
828.237	69.12
828.414	62.98
828.591	30.21
828.769	75.26
828.946	67.07
829.124	151.04
829.301	112.13
829.478	58.88
829.655	91.65
829.833	24.06
830.01	87.55
830.187	105.98
830.364	128.51
830.542	95.74
830.719	95.74
830.896	52.74
831.073	48.64
831.25	87.55
831.427	95.74
831.604	99.84
831.782	42.5
831.959	32.26
832.136	44.54
832.313	46.59
832.49	112.13
832.667	52.74
832.844	60.93
833.021	161.28
833.198	69.12
833.374	46.59
833.551	126.46
833.728	62.98
833.905	52.74
834.082	44.54
834.259	85.5
834.436	54.78
834.612	75.26
834.789	56.83
834.966	73.21
835.143	108.03
835.319	22.02
835.496	155.13
835.673	79.36
835.85	97.79
836.026	52.74
836.203	-18.94
836.38	30.21
836.556	105.98
836.733	44.54
836.909	99.84
837.086	50.69
837.262	67.07
837.439	128.51
837.616	13.82
837.792	77.31
837.968	52.74
838.145	30.21
838.321	69.12
838.498	28.16
838.674	101.89
838.851	30.21
839.027	22.02
839.203	50.69
839.38	52.74
839.556	30.21
839.732	128.51
839.909	1.54
840.085	97.79
840.261	11.78
840.437	56.83
840.614	36.35
840.79	134.65
840.966	91.65
841.142	52.74
841.318	85.5
841.494	54.78
841.671	-2.56
841.847	67.07
842.023	54.78
842.199	-84.48
842.375	112.13
842.551	54.78
842.727	13.82
842.903	1.54
843.079	26.11
843.255	42.5
843.431	-8.7
843.607	91.65
843.783	-12.8
843.959	19.97
844.134	58.88
844.31	62.98
844.486	34.3
844.662	38.4
844.838	30.21
845.013	9.73
845.189	17.92
845.365	71.17
845.541	30.21
845.716	58.88
845.892	67.07
846.068	1.54
846.244	3.58
846.419	30.21
846.595	24.06
846.77	-18.94
846.946	91.65
847.122	13.82
847.297	77.31
847.473	17.92
847.648	38.4
847.824	7.68
847.999	67.07
848.175	11.78
848.35	-10.75
848.526	85.5
848.701	-78.33
848.876	83.45
849.052	67.07
849.227	81.41
849.403	7.68
849.578	38.4
849.753	-14.85
849.929	-4.61
850.104	24.06
850.279	1.54
850.454	-31.23
850.63	-6.66
850.805	32.26
850.98	-23.04
851.155	5.63
851.33	93.69
851.505	19.97
851.681	71.17
851.856	-31.23
852.031	60.93
852.206	13.82
852.381	5.63
852.556	79.36
852.731	46.59
852.906	19.97
853.081	-102.91
853.256	-0.51
853.431	26.11
853.606	9.73
853.781	3.58
853.956	38.4
854.131	101.89
854.305	38.4
854.48	-4.61
854.655	40.45
854.83	36.35
855.005	36.35
855.18	54.78
855.354	-10.75
855.529	97.79
855.704	5.63
855.879	15.87
856.053	-20.99
856.228	13.82
856.403	36.35
856.577	22.02
856.752	-72.19
856.926	42.5
857.101	5.63
857.276	44.54
857.45	44.54
857.625	9.73
857.799	-47.62
857.974	7.68
858.148	-25.09
858.323	15.87
858.497	17.92
858.672	-18.94
858.846	30.21
859.02	44.54
859.195	26.11
859.369	-6.66
859.543	-31.23
859.718	-8.7
859.892	26.11
860.066	50.69
860.241	-4.61
860.415	22.02
860.589	-47.62
860.763	58.88
860.938	-72.19
861.112	81.41
861.286	15.87
861.46	-18.94
861.634	69.12
861.808	48.64
861.982	46.59
862.157	-10.75
862.331	-27.14
862.505	-45.57
862.679	3.58
862.853	71.17
863.027	-20.99
863.201	130.56
863.375	13.82
863.549	5.63
863.722	-23.04
863.896	67.07
864.07	79.36
864.244	-31.23
864.418	-10.75
864.592	-23.04
864.766	13.82
864.939	34.3
865.113	-6.66
865.287	46.59
865.461	87.55
865.634	58.88
865.808	22.02
865.982	-49.66
866.156	-2.56
866.329	-0.51
866.503	48.64
866.676	-37.38
866.85	34.3
867.024	-16.9
867.197	-4.61
867.371	42.5
867.544	-96.77
867.718	-6.66
867.891	34.3
868.065	38.4
868.238	11.78
868.412	71.17
868.585	-23.04
868.759	62.98
868.932	-14.85
869.105	56.83
869.279	-70.14
869.452	-14.85
869.625	-20.99
869.799	11.78
869.972	-64
870.145	3.58
870.319	13.82
870.492	-53.76
870.665	9.73
870.838	-4.61
871.011	-6.66
871.185	17.92
871.358	-10.75
871.531	13.82
871.704	-12.8
871.877	40.45
872.05	17.92
872.223	-45.57
872.396	93.69
872.569	62.98
872.742	-16.9
872.915	24.06
873.088	13.82
873.261	1.54
873.434	30.21
873.607	-12.8
873.78	17.92
873.953	32.26
874.126	7.68
874.299	24.06
874.471	44.54
874.644	-18.94
874.817	28.16
874.99	56.83
875.163	-29.18
875.335	46.59
875.508	-23.04
875.681	9.73
875.853	34.3
876.026	5.63
876.199	-45.57
876.371	50.69
876.544	77.31
876.717	9.73
876.889	26.11
877.062	13.82
877.234	-53.76
877.407	-14.85
877.579	11.78
877.752	1.54
877.924	17.92
878.097	46.59
878.269	-55.81
878.442	28.16
878.614	-6.66
878.786	5.63
878.959	26.11
879.131	17.92
879.303	-14.85
879.476	-68.09
879.648	38.4
879.82	17.92
879.993	42.5
880.165	-27.14
880.337	-92.67
880.509	-31.23
880.681	-27.14
880.854	7.68
881.026	62.98
881.198	83.45
881.37	-20.99
881.542	-20.99
881.714	-10.75
881.886	9.73
882.058	-51.71
882.23	34.3
882.402	19.97
882.574	19.97
882.746	-27.14
882.918	44.54
883.09	-47.62
883.262	3.58
883.434	11.78
883.606	-31.23
883.778	11.78
883.95	7.68
884.122	-2.56
884.293	-33.28
884.465	-2.56
884.637	-12.8
884.809	-47.62
884.98	-16.9
885.152	-12.8
885.324	13.82
885.496	32.26
885.667	-23.04
885.839	-59.9
886.011	85.5
886.182	1.54
886.354	-47.62
886.525	32.26
886.697	34.3
886.869	46.59
887.04	3.58
887.212	-18.94
887.383	52.74
887.555	50.69
887.726	-31.23
887.897	-2.56
888.069	1.54
888.24	5.63
888.412	-31.23
888.583	22.02
888.754	54.78
888.926	-20.99
889.097	-59.9
889.268	38.4
889.44	-27.14
889.611	-80.38
889.782	-74.24
889.953	-0.51
890.125	32.26
890.296	5.63
890.467	40.45
890.638	-100.86
890.809	40.45
890.98	-29.18
891.151	5.63
891.323	-6.66
891.494	-2.56
891.665	40.45
891.836	13.82
892.007	79.36
892.178	128.51
892.349	75.26
892.52	-43.52
892.691	34.3
892.862	-20.99
893.032	32.26
893.203	15.87
893.374	19.97
893.545	26.11
893.716	-49.66
893.887	-16.9
894.057	67.07
894.228	-35.33
894.399	-29.18
894.57	67.07
894.74	-18.94
894.911	-8.7
895.082	-10.75
895.253	-57.86
895.423	-39.42
895.594	-23.04
895.764	44.54
895.935	-154.11
896.106	-23.04
896.276	9.73
896.447	38.4
896.617	-4.61
896.788	-0.51
896.958	30.21
897.129	5.63
897.299	-27.14
897.47	-14.85
897.64	40.45
897.81	-18.94
897.981	42.5
898.151	-20.99
898.322	-18.94
898.492	44.54
898.662	-8.7
898.832	-70.14
899.003	-10.75
899.173	-25.09
899.343	-35.33
899.513	-45.57
