Data from USB4F104151__86__11-37-51-277.txt Node

Date: Fri Mar 14 11:37:51 EDT 2025
User: louis
Spectrometer: USB4F10415
Trigger mode: 4
Integration Time (sec): 2.000000E-2
Scans to average: 1
Electric dark correction enabled: true
Nonlinearity correction enabled: false
Boxcar width: 0
XAxis mode: Wavelengths
Number of Pixels in Spectrum: 3648
>>>>>Begin Spectral Data<<<<<
178.204	-89.09
178.424	-89.09
178.644	-89.09
178.864	-103.42
179.084	-68.61
179.304	11.26
179.524	7.17
179.744	39.94
179.964	76.8
180.184	-66.56
180.404	-39.94
180.624	-5.12
180.844	17.41
181.064	-50.18
181.283	23.55
181.503	-7.17
181.723	-7.17
181.943	-54.27
182.163	105.47
182.383	-5.12
182.602	15.36
182.822	-11.26
183.042	27.65
183.262	27.65
183.482	46.08
183.701	5.12
183.921	-3.07
184.141	-33.79
184.361	48.13
184.58	74.75
184.8	9.22
185.02	44.03
185.239	113.66
185.459	-7.17
185.679	23.55
185.898	19.46
186.118	62.46
186.338	-39.94
186.557	82.94
186.777	93.18
186.997	76.8
187.216	27.65
187.436	-13.31
187.655	-23.55
187.875	37.89
188.095	-50.18
188.314	76.8
188.534	44.03
188.753	27.65
188.973	35.84
189.192	87.04
189.412	1.02
189.631	11.26
189.851	41.98
190.07	60.42
190.29	-72.7
190.509	-21.5
190.729	21.5
190.948	1.02
191.168	17.41
191.387	54.27
191.607	15.36
191.826	1.02
192.045	-37.89
192.265	-11.26
192.484	-31.74
192.704	-11.26
192.923	-29.7
193.142	113.66
193.362	-9.22
193.581	52.22
193.8	-25.6
194.02	41.98
194.239	11.26
194.458	25.6
194.678	11.26
194.897	27.65
195.116	-5.12
195.335	5.12
195.555	74.75
195.774	64.51
195.993	99.33
196.212	-3.07
196.432	62.46
196.651	-29.7
196.87	-27.65
197.089	7.17
197.308	-23.55
197.528	29.7
197.747	41.98
197.966	60.42
198.185	9.22
198.404	31.74
198.623	11.26
198.842	41.98
199.062	60.42
199.281	27.65
199.5	35.84
199.719	-23.55
199.938	82.94
200.157	87.04
200.376	62.46
200.595	25.6
200.814	39.94
201.033	-23.55
201.252	93.18
201.471	29.7
201.69	48.13
201.909	33.79
202.128	35.84
202.347	23.55
202.566	-56.32
202.785	-11.26
203.004	23.55
203.223	68.61
203.442	35.84
203.661	23.55
203.879	54.27
204.098	7.17
204.317	-70.65
204.536	62.46
204.755	82.94
204.974	-3.07
205.193	-21.5
205.411	58.37
205.63	5.12
205.849	68.61
206.068	11.26
206.287	52.22
206.505	19.46
206.724	-21.5
206.943	25.6
207.162	-37.89
207.381	97.28
207.599	17.41
207.818	-5.12
208.037	-27.65
208.255	56.32
208.474	-44.03
208.693	13.31
208.911	-50.18
209.13	97.28
209.349	5.12
209.567	39.94
209.786	64.51
210.005	33.79
210.223	72.7
210.442	7.17
210.661	-9.22
210.879	29.7
211.098	19.46
211.316	64.51
211.535	64.51
211.753	-41.98
211.972	5.12
212.191	21.5
212.409	25.6
212.628	15.36
212.846	58.37
213.065	74.75
213.283	5.12
213.502	19.46
213.72	41.98
213.938	35.84
214.157	11.26
214.375	33.79
214.594	-9.22
214.812	33.79
215.031	17.41
215.249	-19.46
215.467	-23.55
215.686	52.22
215.904	39.94
216.122	-5.12
216.341	52.22
216.559	46.08
216.778	3.07
216.996	66.56
217.214	-27.65
217.432	9.22
217.651	48.13
217.869	-29.7
218.087	-1.02
218.306	-23.55
218.524	5.12
218.742	1.02
218.96	-7.17
219.179	29.7
219.397	15.36
219.615	82.94
219.833	-82.94
220.051	3.07
220.27	54.27
220.488	19.46
220.706	-37.89
220.924	17.41
221.142	13.31
221.36	-44.03
221.578	-37.89
221.796	-95.23
222.015	39.94
222.233	39.94
222.451	25.6
222.669	-68.61
222.887	70.65
223.105	-5.12
223.323	27.65
223.541	-84.99
223.759	56.32
223.977	11.26
224.195	31.74
224.413	-7.17
224.631	-35.84
224.849	44.03
225.067	17.41
225.285	-1.02
225.503	62.46
225.721	35.84
225.939	-62.46
226.157	39.94
226.375	91.13
226.592	-13.31
226.81	19.46
227.028	60.42
227.246	27.65
227.464	62.46
227.682	50.18
227.9	-1.02
228.117	74.75
228.335	-39.94
228.553	37.89
228.771	25.6
228.989	29.7
229.206	54.27
229.424	3.07
229.642	-35.84
229.86	29.7
230.077	9.22
230.295	11.26
230.513	27.65
230.731	-31.74
230.948	52.22
231.166	7.17
231.384	-62.46
231.601	46.08
231.819	31.74
232.037	50.18
232.254	-46.08
232.472	46.08
232.689	-23.55
232.907	31.74
233.125	74.75
233.342	21.5
233.56	13.31
233.777	-37.89
233.995	3.07
234.213	1.02
234.43	41.98
234.648	13.31
234.865	39.94
235.083	19.46
235.3	11.26
235.518	13.31
235.735	107.52
235.953	91.13
236.17	64.51
236.388	50.18
236.605	-48.13
236.822	60.42
237.04	52.22
237.257	33.79
237.475	-29.7
237.692	74.75
237.909	64.51
238.127	-48.13
238.344	7.17
238.562	84.99
238.779	-29.7
238.996	68.61
239.214	-15.36
239.431	33.79
239.648	-7.17
239.865	48.13
240.083	60.42
240.3	-1.02
240.517	-33.79
240.735	15.36
240.952	1.02
241.169	80.89
241.386	39.94
241.603	44.03
241.821	31.74
242.038	7.17
242.255	-19.46
242.472	-46.08
242.689	68.61
242.907	103.42
243.124	29.7
243.341	99.33
243.558	-25.6
243.775	35.84
243.992	-13.31
244.209	44.03
244.426	-21.5
244.643	76.8
244.86	23.55
245.078	-11.26
245.295	-11.26
245.512	13.31
245.729	-23.55
245.946	54.27
246.163	27.65
246.38	21.5
246.597	80.89
246.814	-9.22
247.031	-13.31
247.248	11.26
247.464	3.07
247.681	-33.79
247.898	52.22
248.115	-17.41
248.332	-31.74
248.549	33.79
248.766	1.02
248.983	50.18
249.2	15.36
249.417	76.8
249.633	-1.02
249.85	15.36
250.067	89.09
250.284	44.03
250.501	41.98
250.717	23.55
250.934	44.03
251.151	-1.02
251.368	91.13
251.585	-17.41
251.801	-13.31
252.018	46.08
252.235	39.94
252.451	31.74
252.668	9.22
252.885	44.03
253.102	5.12
253.318	64.51
253.535	64.51
253.752	-13.31
253.968	-41.98
254.185	-11.26
254.401	7.17
254.618	9.22
254.835	27.65
255.051	21.5
255.268	87.04
255.484	101.37
255.701	70.65
255.917	3.07
256.134	35.84
256.351	19.46
256.567	109.57
256.784	-17.41
257	-15.36
257.217	91.13
257.433	-21.5
257.65	7.17
257.866	101.37
258.082	25.6
258.299	-7.17
258.515	82.94
258.732	-31.74
258.948	9.22
259.165	-5.12
259.381	-11.26
259.597	41.98
259.814	56.32
260.03	82.94
260.246	-13.31
260.463	50.18
260.679	9.22
260.895	68.61
261.112	39.94
261.328	3.07
261.544	29.7
261.761	-5.12
261.977	68.61
262.193	56.32
262.409	3.07
262.626	-31.74
262.842	72.7
263.058	39.94
263.274	41.98
263.49	33.79
263.707	37.89
263.923	60.42
264.139	5.12
264.355	-29.7
264.571	-7.17
264.787	-5.12
265.004	25.6
265.22	70.65
265.436	70.65
265.652	-13.31
265.868	93.18
266.084	11.26
266.3	84.99
266.516	37.89
266.732	115.71
266.948	31.74
267.164	-48.13
267.38	19.46
267.596	19.46
267.812	23.55
268.028	-31.74
268.244	-27.65
268.46	29.7
268.676	31.74
268.892	97.28
269.108	17.41
269.324	31.74
269.54	-13.31
269.756	-11.26
269.972	62.46
270.188	25.6
270.403	-11.26
270.619	101.37
270.835	11.26
271.051	9.22
271.267	76.8
271.483	35.84
271.698	52.22
271.914	82.94
272.13	1.02
272.346	41.98
272.562	33.79
272.777	52.22
272.993	21.5
273.209	-5.12
273.425	46.08
273.64	-44.03
273.856	17.41
274.072	91.13
274.287	-56.32
274.503	31.74
274.719	3.07
274.934	82.94
275.15	13.31
275.366	-46.08
275.581	-39.94
275.797	58.37
276.012	50.18
276.228	64.51
276.444	50.18
276.659	84.99
276.875	-37.89
277.09	9.22
277.306	-46.08
277.521	64.51
277.737	46.08
277.952	-17.41
278.168	76.8
278.383	19.46
278.599	52.22
278.814	84.99
279.03	44.03
279.245	33.79
279.461	9.22
279.676	-89.09
279.892	-17.41
280.107	-76.8
280.322	1.02
280.538	39.94
280.753	-5.12
280.969	39.94
281.184	74.75
281.399	-5.12
281.615	-9.22
281.83	29.7
282.045	39.94
282.26	-13.31
282.476	25.6
282.691	23.55
282.906	35.84
283.122	74.75
283.337	76.8
283.552	-13.31
283.767	80.89
283.983	99.33
284.198	9.22
284.413	52.22
284.628	-5.12
284.843	15.36
285.058	80.89
285.274	1.02
285.489	-72.7
285.704	89.09
285.919	33.79
286.134	23.55
286.349	7.17
286.564	-31.74
286.779	7.17
286.995	44.03
287.21	74.75
287.425	66.56
287.64	-19.46
287.855	5.12
288.07	68.61
288.285	115.71
288.5	80.89
288.715	21.5
288.93	19.46
289.145	-1.02
289.36	-11.26
289.575	11.26
289.79	-11.26
290.004	54.27
290.219	48.13
290.434	-25.6
290.649	3.07
290.864	27.65
291.079	78.85
291.294	25.6
291.509	82.94
291.724	23.55
291.938	-37.89
292.153	33.79
292.368	11.26
292.583	-25.6
292.798	29.7
293.012	-33.79
293.227	7.17
293.442	89.09
293.657	25.6
293.871	48.13
294.086	111.61
294.301	115.71
294.516	9.22
294.73	80.89
294.945	66.56
295.16	-3.07
295.374	58.37
295.589	84.99
295.804	-21.5
296.018	58.37
296.233	52.22
296.447	48.13
296.662	-27.65
296.877	27.65
297.091	84.99
297.306	97.28
297.52	5.12
297.735	3.07
297.949	23.55
298.164	60.42
298.378	-17.41
298.593	58.37
298.807	-21.5
299.022	58.37
299.236	35.84
299.451	74.75
299.665	82.94
299.88	50.18
300.094	35.84
300.309	-21.5
300.523	35.84
300.737	64.51
300.952	9.22
301.166	39.94
301.381	21.5
301.595	-41.98
301.809	-23.55
302.024	66.56
302.238	50.18
302.452	87.04
302.667	17.41
302.881	123.9
303.095	17.41
303.309	3.07
303.524	78.85
303.738	35.84
303.952	-23.55
304.166	50.18
304.381	-13.31
304.595	33.79
304.809	7.17
305.023	39.94
305.237	27.65
305.452	3.07
305.666	-9.22
305.88	60.42
306.094	52.22
306.308	93.18
306.522	76.8
306.736	3.07
306.95	89.09
307.164	25.6
307.379	-48.13
307.593	39.94
307.807	-9.22
308.021	9.22
308.235	52.22
308.449	-5.12
308.663	70.65
308.877	-5.12
309.091	74.75
309.305	99.33
309.519	-3.07
309.733	1.02
309.947	-31.74
310.161	91.13
310.374	37.89
310.588	52.22
310.802	-41.98
311.016	27.65
311.23	35.84
311.444	60.42
311.658	37.89
311.872	25.6
312.085	-25.6
312.299	62.46
312.513	19.46
312.727	3.07
312.941	-35.84
313.154	33.79
313.368	44.03
313.582	91.13
313.796	33.79
314.009	39.94
314.223	78.85
314.437	23.55
314.651	9.22
314.864	66.56
315.078	107.52
315.292	7.17
315.505	-15.36
315.719	105.47
315.933	101.37
316.146	39.94
316.36	5.12
316.573	84.99
316.787	48.13
317.001	19.46
317.214	-68.61
317.428	21.5
317.641	46.08
317.855	39.94
318.068	31.74
318.282	7.17
318.495	7.17
318.709	15.36
318.922	29.7
319.136	66.56
319.349	72.7
319.563	78.85
319.776	17.41
319.99	35.84
320.203	35.84
320.417	27.65
320.63	3.07
320.843	50.18
321.057	41.98
321.27	44.03
321.483	9.22
321.697	44.03
321.91	5.12
322.124	84.99
322.337	87.04
322.55	23.55
322.763	21.5
322.977	19.46
323.19	72.7
323.403	33.79
323.617	50.18
323.83	35.84
324.043	41.98
324.256	56.32
324.469	128
324.683	82.94
324.896	21.5
325.109	80.89
325.322	11.26
325.535	87.04
325.748	58.37
325.962	82.94
326.175	-19.46
326.388	99.33
326.601	39.94
326.814	46.08
327.027	1.02
327.24	54.27
327.453	68.61
327.666	68.61
327.879	23.55
328.092	17.41
328.305	-5.12
328.518	82.94
328.731	-3.07
328.944	58.37
329.157	48.13
329.37	25.6
329.583	-1.02
329.796	134.14
330.009	44.03
330.222	54.27
330.435	-5.12
330.648	31.74
330.861	44.03
331.073	29.7
331.286	35.84
331.499	52.22
331.712	-19.46
331.925	50.18
332.138	15.36
332.35	84.99
332.563	84.99
332.776	-46.08
332.989	31.74
333.202	70.65
333.414	44.03
333.627	23.55
333.84	-35.84
334.053	5.12
334.265	25.6
334.478	72.7
334.691	17.41
334.903	68.61
335.116	62.46
335.329	39.94
335.541	80.89
335.754	60.42
335.966	48.13
336.179	-1.02
336.392	7.17
336.604	48.13
336.817	-31.74
337.029	7.17
337.242	15.36
337.454	25.6
337.667	9.22
337.88	33.79
338.092	13.31
338.305	78.85
338.517	70.65
338.729	5.12
338.942	37.89
339.154	-7.17
339.367	37.89
339.579	23.55
339.792	-13.31
340.004	15.36
340.217	27.65
340.429	-19.46
340.641	-13.31
340.854	-23.55
341.066	23.55
341.278	80.89
341.491	58.37
341.703	46.08
341.915	-5.12
342.128	11.26
342.34	76.8
342.552	113.66
342.764	37.89
342.977	50.18
343.189	-11.26
343.401	50.18
343.613	72.7
343.826	41.98
344.038	29.7
344.25	44.03
344.462	-9.22
344.674	115.71
344.886	29.7
345.099	37.89
345.311	44.03
345.523	58.37
345.735	17.41
345.947	82.94
346.159	82.94
346.371	31.74
346.583	3.07
346.795	46.08
347.007	11.26
347.219	80.89
347.431	44.03
347.643	52.22
347.855	25.6
348.067	39.94
348.279	27.65
348.491	82.94
348.703	-17.41
348.915	99.33
349.127	1.02
349.339	39.94
349.551	25.6
349.763	1.02
349.975	5.12
350.187	84.99
350.399	68.61
350.61	33.79
350.822	68.61
351.034	25.6
351.246	27.65
351.458	27.65
351.669	60.42
351.881	39.94
352.093	17.41
352.305	68.61
352.517	15.36
352.728	39.94
352.94	64.51
353.152	91.13
353.363	21.5
353.575	76.8
353.787	76.8
353.999	-13.31
354.21	25.6
354.422	13.31
354.633	33.79
354.845	64.51
355.057	-17.41
355.268	64.51
355.48	64.51
355.692	52.22
355.903	-21.5
356.115	35.84
356.326	60.42
356.538	89.09
356.749	68.61
356.961	54.27
357.172	72.7
357.384	50.18
357.595	66.56
357.807	97.28
358.018	33.79
358.23	25.6
358.441	121.85
358.653	33.79
358.864	48.13
359.075	64.51
359.287	48.13
359.498	48.13
359.709	130.05
359.921	99.33
360.132	125.95
360.344	95.23
360.555	7.17
360.766	64.51
360.977	64.51
361.189	29.7
361.4	74.75
361.611	54.27
361.823	23.55
362.034	87.04
362.245	-64.51
362.456	41.98
362.667	-17.41
362.879	50.18
363.09	11.26
363.301	1.02
363.512	-1.02
363.723	-5.12
363.935	44.03
364.146	39.94
364.357	19.46
364.568	48.13
364.779	-11.26
364.99	60.42
365.201	-39.94
365.412	123.9
365.623	91.13
365.834	84.99
366.045	27.65
366.256	70.65
366.467	50.18
366.678	11.26
366.889	64.51
367.1	37.89
367.311	76.8
367.522	66.56
367.733	-21.5
367.944	91.13
368.155	25.6
368.366	25.6
368.577	68.61
368.788	41.98
368.999	72.7
369.209	39.94
369.42	78.85
369.631	109.57
369.842	70.65
370.053	80.89
370.264	41.98
370.474	23.55
370.685	74.75
370.896	82.94
371.107	68.61
371.317	23.55
371.528	-5.12
371.739	117.76
371.95	54.27
372.16	50.18
372.371	-37.89
372.582	72.7
372.792	84.99
373.003	95.23
373.214	64.51
373.424	64.51
373.635	1.02
373.846	-9.22
374.056	91.13
374.267	109.57
374.477	-7.17
374.688	-23.55
374.898	21.5
375.109	109.57
375.319	39.94
375.53	50.18
375.74	9.22
375.951	19.46
376.161	46.08
376.372	60.42
376.582	64.51
376.793	-21.5
377.003	80.89
377.214	27.65
377.424	48.13
377.635	-1.02
377.845	-41.98
378.055	123.9
378.266	25.6
378.476	58.37
378.686	64.51
378.897	48.13
379.107	93.18
379.317	35.84
379.528	-5.12
379.738	33.79
379.948	46.08
380.158	-25.6
380.369	80.89
380.579	105.47
380.789	101.37
380.999	29.7
381.21	64.51
381.42	111.61
381.63	7.17
381.84	52.22
382.05	11.26
382.261	56.32
382.471	35.84
382.681	5.12
382.891	76.8
383.101	87.04
383.311	64.51
383.521	60.42
383.731	27.65
383.941	134.14
384.151	39.94
384.361	89.09
384.571	93.18
384.781	91.13
384.991	93.18
385.201	105.47
385.411	89.09
385.621	19.46
385.831	64.51
386.041	113.66
386.251	48.13
386.461	103.42
386.671	56.32
386.881	80.89
387.091	117.76
387.301	109.57
387.511	62.46
387.72	70.65
387.93	35.84
388.14	-39.94
388.35	54.27
388.56	76.8
388.769	9.22
388.979	160.77
389.189	56.32
389.399	62.46
389.609	111.61
389.818	41.98
390.028	105.47
390.238	113.66
390.447	74.75
390.657	58.37
390.867	68.61
391.076	64.51
391.286	11.26
391.496	121.85
391.705	29.7
391.915	115.71
392.125	21.5
392.334	78.85
392.544	95.23
392.753	103.42
392.963	39.94
393.172	3.07
393.382	58.37
393.591	72.7
393.801	84.99
394.01	46.08
394.22	82.94
394.429	130.05
394.639	119.81
394.848	113.66
395.058	23.55
395.267	181.25
395.477	101.37
395.686	54.27
395.895	70.65
396.105	91.13
396.314	109.57
396.524	148.48
396.733	95.23
396.942	70.65
397.152	70.65
397.361	152.57
397.57	105.47
397.78	72.7
397.989	146.43
398.198	146.43
398.407	78.85
398.617	87.04
398.826	146.43
399.035	101.37
399.244	113.66
399.453	70.65
399.663	121.85
399.872	50.18
400.081	109.57
400.29	109.57
400.499	64.51
400.708	164.86
400.917	87.04
401.127	132.09
401.336	111.61
401.545	80.89
401.754	136.19
401.963	140.29
402.172	68.61
402.381	189.44
402.59	134.14
402.799	158.72
403.008	150.53
403.217	175.1
403.426	109.57
403.635	58.37
403.844	109.57
404.053	66.56
404.262	82.94
404.471	177.15
404.68	150.53
404.888	148.48
405.097	138.24
405.306	138.24
405.515	195.58
405.724	91.13
405.933	140.29
406.142	216.06
406.35	173.05
406.559	138.24
406.768	107.52
406.977	252.92
407.185	189.44
407.394	230.4
407.603	177.15
407.812	197.63
408.02	164.86
408.229	236.54
408.438	226.3
408.646	252.92
408.855	248.83
409.064	304.12
409.272	273.4
409.481	232.44
409.69	326.65
409.898	412.67
410.107	383.99
410.315	293.88
410.524	404.47
410.733	336.89
410.941	324.6
411.15	351.23
411.358	336.89
411.567	459.77
411.775	388.09
411.984	429.05
412.192	445.43
412.401	480.25
412.609	461.82
412.818	472.06
413.026	508.92
413.234	517.11
413.443	441.34
413.651	517.11
413.86	611.32
414.068	572.41
414.276	525.3
414.485	588.79
414.693	666.61
414.901	713.72
415.11	685.05
415.318	648.18
415.526	701.43
415.734	756.72
415.943	785.4
416.151	828.4
416.359	826.36
416.567	906.23
416.776	941.04
416.984	1057.78
417.192	1037.3
417.4	1002.48
417.608	1014.77
417.817	1004.53
418.025	1039.34
418.233	1248.24
418.441	1176.56
418.649	1194.99
418.857	1264.62
419.065	1307.63
419.273	1301.48
419.481	1270.76
419.689	1453.03
419.897	1416.17
420.105	1477.61
420.313	1491.95
420.521	1651.69
420.729	1682.41
420.937	1649.64
421.145	1680.36
421.353	1827.81
421.561	1958.88
421.769	1903.59
421.977	2110.43
422.185	2149.34
422.393	2165.73
422.601	2309.08
422.809	2300.89
423.017	2341.85
423.224	2417.63
423.432	2470.87
423.64	2655.19
423.848	2739.16
424.056	2632.66
424.263	2864.08
424.471	2896.85
424.679	2890.71
424.887	3013.59
425.094	3277.77
425.302	3109.84
425.51	3394.51
425.718	3414.99
425.925	3546.06
426.133	3574.73
426.341	3843.01
426.548	3881.92
426.756	4025.28
426.964	4078.53
427.171	4334.53
427.379	4238.27
427.586	4369.34
427.794	4508.6
428.001	4830.13
428.209	4967.35
428.417	5006.26
428.624	5204.91
428.832	5266.35
429.039	5213.1
429.247	5163.95
429.454	5745.58
429.662	6067.11
429.869	5874.6
430.076	6298.53
430.284	6054.82
430.491	6261.66
430.699	6683.55
430.906	6525.85
431.114	6900.63
431.321	7033.75
431.528	7021.46
431.736	7416.72
431.943	7824.26
432.15	7764.87
432.358	7787.4
432.565	8149.89
432.772	8076.16
432.979	8600.44
433.187	8655.74
433.394	8555.39
433.601	8995.7
433.808	9255.79
434.016	9057.14
434.223	9317.23
434.43	10294.11
434.637	9931.62
434.844	10802.01
435.052	10924.89
435.259	10789.72
435.466	10984.28
435.673	10812.25
435.88	11406.16
436.087	12176.2
436.294	12360.52
436.501	11885.39
436.708	11985.74
436.915	12507.97
437.122	13194.04
437.329	13110.07
437.537	13386.55
437.743	13599.54
437.95	13585.2
438.157	14306.09
438.364	14764.83
438.571	14758.69
438.778	14834.46
438.985	16206.6
439.192	15756.05
439.399	16192.26
439.606	15637.27
439.813	16691.97
440.02	17904.37
440.227	17130.23
440.433	16970.49
440.64	17824.5
440.847	17507.06
441.054	18324.2
441.261	19055.33
441.467	18938.59
441.674	19245.79
441.881	20048.59
442.088	19999.44
442.294	20011.73
442.501	20572.87
442.708	20906.69
442.914	21787.32
443.121	22235.82
443.328	21990.06
443.534	23454.36
443.741	22870.69
443.948	22649.51
444.154	24392.33
444.361	24277.65
444.568	24380.04
444.774	24480.39
444.981	24789.64
445.187	25612.92
445.394	26661.48
445.6	26239.6
445.807	28766.79
446.013	27478.62
446.22	27984.47
446.426	29053.51
446.633	29569.6
446.839	30421.55
447.046	29252.16
447.252	30808.62
447.459	31023.65
447.665	30859.82
447.871	32107.03
448.078	33405.44
448.284	31693.34
448.491	33022.47
448.697	34271.73
448.903	34748.91
449.11	34750.96
449.316	33985.02
449.522	34918.89
449.728	36155.86
449.935	36456.92
450.141	36231.64
450.347	37296.58
450.553	35697.12
450.76	36463.06
450.966	37663.17
451.172	36995.53
451.378	37538.24
451.584	37597.63
451.791	38058.43
451.997	38197.69
452.203	38533.56
452.409	38941.1
452.615	38259.13
452.821	37108.17
453.027	37114.31
453.233	38875.57
453.44	37233.1
453.646	37659.07
453.852	38031.8
454.058	38990.25
454.264	37437.89
454.47	38242.74
454.676	37155.27
454.882	38701.49
455.088	35422.69
455.294	35600.86
455.5	36426.2
455.705	36930
455.911	35258.85
456.117	34607.6
456.323	34202.1
456.529	32555.54
456.735	33989.11
456.941	33075.72
457.147	32424.47
457.352	31500.83
457.558	30884.39
457.764	31423.01
457.97	30732.84
458.176	30327.35
458.381	29991.48
458.587	28621.39
458.793	28430.93
458.999	26940
459.204	28942.92
459.41	28037.72
459.616	26305.13
459.821	26503.79
460.027	26022.51
460.233	25580.15
460.438	24570.51
460.644	24330.89
460.85	23837.33
461.055	23206.56
461.261	23202.46
461.466	21805.75
461.672	20763.33
461.878	22551.21
462.083	20964.03
462.289	20583.11
462.494	20478.66
462.7	19264.22
462.905	19036.89
463.111	19475.16
463.316	19284.7
463.522	18741.99
463.727	19360.47
463.932	19176.16
464.138	19129.05
464.343	18907.87
464.549	18279.15
464.754	18965.21
464.959	18744.03
465.165	18741.99
465.37	17875.7
465.575	17681.14
465.781	18170.6
465.986	18150.12
466.191	17621.75
466.397	17318.65
466.602	16472.84
466.807	17117.95
467.012	16904.96
467.218	17238.78
467.423	16628.48
467.628	16886.53
467.833	17550.07
468.038	16958.21
468.244	16476.93
468.449	17023.74
468.654	16616.19
468.859	16749.31
469.064	16313.1
469.269	15813.39
469.474	15643.41
469.679	16280.33
469.885	15706.9
470.09	16081.67
470.295	15954.7
470.5	15663.89
470.705	15706.9
470.91	15325.97
471.115	14983.96
471.32	15366.93
471.525	15244.06
471.73	14734.11
471.935	14758.69
472.139	14465.83
472.344	14568.23
472.549	14359.33
472.754	14158.63
472.959	13859.63
473.164	13593.39
473.369	13564.72
473.574	13718.32
473.778	13673.26
473.983	13724.46
474.188	13589.3
474.393	12993.34
474.598	13165.37
474.802	12987.19
475.007	12847.93
475.212	12856.12
475.417	12436.29
475.621	12600.13
475.826	12450.63
476.031	12251.97
476.235	11871.05
476.44	12309.32
476.645	12026.7
476.849	11940.68
477.054	11756.36
477.259	11512.66
477.463	11883.34
477.668	11146.07
477.872	11512.66
478.077	11391.83
478.282	10855.26
478.486	11006.81
478.691	10873.69
478.895	10773.34
479.1	10963.8
479.304	10875.74
479.509	10609.5
479.713	10900.31
479.918	10347.36
480.122	10175.33
480.326	10677.09
480.531	10488.67
480.735	10238.82
480.94	10330.98
481.144	10695.52
481.348	10034.02
481.553	10161
481.757	10150.76
481.961	10165.09
482.166	10181.48
482.37	10226.53
482.574	9997.16
482.778	10015.59
482.983	10161
483.187	10285.92
483.391	10111.85
483.595	9872.23
483.8	9925.48
484.004	10052.45
484.208	10240.87
484.412	10011.5
484.616	10158.95
484.821	9993.06
485.025	9784.17
485.229	10204
485.433	9882.47
485.637	9954.15
485.841	9913.19
486.045	10062.69
486.249	10093.41
486.453	9874.28
486.657	10001.26
486.861	10031.97
487.065	9681.77
487.269	10154.85
487.473	9919.34
487.677	10122.09
487.881	10161
488.085	9939.82
488.289	10382.18
488.493	10197.86
488.697	10204
488.901	9984.87
489.105	10185.57
489.309	10230.63
489.512	10302.31
489.716	10339.17
489.92	10249.06
490.124	10275.68
490.328	10333.03
490.531	10412.9
490.735	10373.99
490.939	10216.29
491.143	10201.96
491.346	10421.09
491.55	10396.51
491.754	10439.52
491.958	10566.49
492.161	10468.19
492.365	10654.56
492.569	10693.47
492.772	10646.37
492.976	10869.59
493.18	10740.57
493.383	11019.1
493.587	10867.55
493.79	11199.32
493.994	11139.93
494.197	11045.72
494.401	11279.19
494.605	11307.86
494.808	11529.04
495.012	11543.38
495.215	11514.7
495.419	11565.9
495.622	11533.14
495.825	11840.33
496.029	12043.08
496.232	11928.39
496.436	12116.81
496.639	12575.55
496.843	12335.94
497.046	12606.27
497.249	12565.31
497.453	12876.6
497.656	12948.28
497.859	12872.51
498.063	13069.11
498.266	13484.85
498.469	13171.51
498.673	13347.64
498.876	13476.66
499.079	13933.36
499.282	13908.78
499.485	14218.02
499.689	14291.75
499.892	14234.41
500.095	14537.51
500.298	14656.29
500.501	14660.38
500.705	15047.45
500.908	15026.97
501.111	15313.69
501.314	15426.32
501.517	15852.3
501.72	15801.1
501.923	15676.18
502.126	16329.48
502.329	16620.29
502.532	16759.55
502.735	16765.7
502.938	17040.12
503.141	17171.19
503.344	17367.8
503.547	17283.83
503.75	17709.81
503.953	18092.78
504.156	18203.37
504.359	18111.21
504.562	18313.96
504.765	18733.79
504.968	18926.3
505.17	19303.13
505.373	19071.71
505.576	19552.98
505.779	19974.86
505.982	19819.22
506.185	20124.36
506.387	20572.87
506.59	20617.93
506.793	21068.48
506.996	20753.09
507.198	21701.3
507.401	21398.2
507.604	21742.26
507.807	21865.14
508.009	22346.41
508.212	22600.36
508.415	22952.61
508.617	23130.78
508.82	22989.47
509.022	23087.78
509.225	23573.14
509.428	23919.25
509.63	23909.01
509.833	24183.44
510.035	24760.97
510.238	24560.27
510.44	24988.29
510.643	25092.74
510.845	25457.28
511.048	25424.51
511.25	26081.91
511.453	26167.92
511.655	27124.32
511.858	26491.5
512.06	26839.65
512.262	27062.88
512.465	27257.44
512.667	27646.55
512.87	27996.76
513.072	27982.42
513.274	28426.83
513.477	28758.6
513.679	29039.17
513.881	29286.98
514.084	29559.36
514.286	29524.54
514.488	29608.51
514.69	30362.16
514.893	30904.87
515.095	30478.89
515.297	31107.62
515.499	31046.18
515.701	31562.27
515.904	31777.31
516.106	31978.01
516.308	32330.26
516.51	32616.97
516.712	32436.75
516.914	33331.72
517.116	33675.77
517.318	33475.07
517.52	33626.62
517.722	34230.77
517.925	34445.81
518.127	34540.02
518.329	35021.29
518.531	34767.34
518.733	35461.6
518.935	35908.06
519.136	35875.29
519.338	36338.13
519.54	36096.47
519.742	36573.65
519.944	37212.62
520.146	37609.92
520.348	37441.99
520.55	37697.98
520.752	37812.67
520.954	38703.54
521.155	38316.47
521.357	38740.4
521.559	39213.48
521.761	39684.51
521.963	39535.01
522.164	39754.15
522.366	39846.3
522.568	40253.85
522.77	40706.45
522.971	41109.9
523.173	40419.74
523.375	41281.93
523.576	41030.03
523.778	41447.82
523.98	42033.53
524.181	41677.19
524.383	41767.3
524.584	42324.35
524.786	42484.09
524.988	42273.15
525.189	42951.02
525.391	42928.5
525.592	42967.41
525.794	43448.68
525.995	43270.51
526.197	43250.03
526.398	43546.98
526.6	43716.96
526.801	43696.49
527.003	44042.59
527.204	44355.93
527.406	44669.27
527.607	44763.48
527.808	44876.12
528.01	43979.1
528.211	44964.18
528.412	45500.75
528.614	45109.58
528.815	45347.15
529.016	45396.3
529.218	45005.14
529.419	45732.17
529.62	45150.54
529.822	45429.07
530.023	45535.56
530.224	45820.23
530.425	45656.39
530.626	45101.39
530.828	45496.65
531.029	46332.22
531.23	45711.69
531.431	45703.49
531.632	45982.02
531.833	46328.13
532.035	45812.04
532.236	46100.8
532.437	45959.49
532.638	46192.96
532.839	46139.71
533.04	46383.42
533.241	45740.36
533.442	46872.88
533.643	46557.5
533.844	46100.8
534.045	46432.57
534.246	46539.07
534.447	46657.85
534.648	46846.26
534.849	46502.2
535.05	46356.8
535.251	46700.86
535.451	46391.61
535.652	46526.78
535.853	46393.66
536.054	46616.89
536.255	46614.84
536.456	46014.79
536.657	46893.36
536.857	46633.27
537.058	46270.78
537.259	46825.78
537.46	46795.06
537.66	46479.67
537.861	46594.36
538.062	46065.99
538.263	46870.84
538.463	46328.13
538.664	46610.74
538.865	46424.38
539.065	46457.15
539.266	46254.4
539.466	46790.97
539.667	45949.25
539.868	46580.03
540.068	46195.01
540.269	46426.43
540.469	46977.33
540.67	46145.86
540.87	46272.83
541.071	46096.7
541.271	46690.62
541.472	46141.76
541.672	46285.12
541.873	46115.14
542.073	45893.96
542.274	46555.45
542.474	46115.14
542.675	46031.17
542.875	46504.25
543.075	46037.31
543.276	45998.4
543.476	46704.95
543.676	45723.97
543.877	46119.23
544.077	46076.22
544.277	46373.18
544.478	46217.53
544.678	46375.23
544.878	45814.08
545.078	46287.17
545.279	45971.78
545.479	45723.97
545.679	45764.93
545.879	46297.41
546.079	46045.51
546.28	46278.97
546.48	45664.58
546.68	46094.66
546.88	46125.38
547.08	46020.93
547.28	45660.49
547.48	45668.68
547.68	46168.38
547.88	45435.21
548.081	46018.88
548.281	45914.44
548.481	45513.03
548.681	46373.18
548.881	45424.97
549.081	46084.42
549.28	45572.42
549.48	45889.86
549.68	45875.52
549.88	46295.36
550.08	45738.31
550.28	45627.72
550.48	45510.99
550.68	46217.53
550.88	45582.66
551.08	45603.14
551.279	45666.63
551.479	44990.8
551.679	45668.68
551.879	45621.58
552.079	45668.68
552.278	45486.41
552.478	45750.6
552.678	45603.14
552.878	45875.52
553.077	45580.62
553.277	45005.14
553.477	46068.03
553.676	45199.69
553.876	45068.62
554.076	45347.15
554.275	44976.47
554.475	44929.36
554.674	45302.09
554.874	45484.36
555.074	44996.95
555.273	45298
555.473	45453.64
555.672	45168.97
555.872	44337.5
556.071	44970.32
556.271	45580.62
556.47	45320.52
556.67	44699.99
556.869	44642.65
557.068	44765.52
557.268	44462.43
557.467	44851.54
557.667	44837.2
557.866	44779.86
558.065	44675.41
558.265	44632.41
558.464	44314.97
558.663	45166.93
558.863	43782.5
559.062	44695.89
559.261	44196.19
559.461	44859.73
559.66	44149.09
559.859	44194.14
560.058	44069.22
560.258	44087.65
560.457	43749.73
560.656	44546.39
560.855	43936.1
561.054	44153.18
561.253	43764.07
561.453	44061.02
561.652	43782.5
561.851	44233.05
562.05	43778.4
562.249	43452.78
562.448	43989.34
562.647	43934.05
562.846	42977.65
563.045	43295.08
563.244	43301.23
563.443	43997.54
563.642	43057.52
563.841	43129.2
564.04	43245.93
564.239	43389.29
564.438	42674.55
564.637	43391.34
564.836	42989.94
565.035	42758.52
565.234	43411.82
565.432	42318.2
565.631	42840.43
565.83	42549.62
566.029	42713.46
566.228	43043.18
566.427	42299.77
566.625	42467.7
566.824	42008.96
567.023	42506.62
567.222	41804.16
567.42	42449.27
567.619	42193.28
567.818	42070.4
568.016	42326.39
568.215	42297.72
568.414	41685.38
568.612	42088.83
568.811	41490.82
569.01	41646.47
569.208	41206.16
569.407	41873.79
569.605	41437.58
569.804	41410.95
570.002	41316.75
570.201	41634.18
570.4	41232.78
570.598	40939.92
570.797	40810.9
570.995	41173.39
571.193	40272.28
571.392	41173.39
571.59	40581.52
571.789	40694.16
571.987	40825.23
572.186	40487.32
572.384	40386.97
572.582	40407.45
572.781	40106.4
572.979	39805.34
573.177	40319.38
573.376	40300.95
573.574	39717.28
573.772	39985.57
573.971	39874.98
574.169	39780.77
574.367	39367.08
574.565	39516.58
574.763	39231.91
574.962	39416.23
575.16	38590.9
575.358	39266.73
575.556	38773.17
575.754	39403.94
575.952	39117.23
576.151	38908.33
576.349	38613.43
576.547	38783.41
576.745	38687.15
576.943	38629.81
577.141	38646.19
577.339	38318.52
577.537	38631.86
577.735	38336.95
577.933	38029.76
578.131	38336.95
578.329	37829.05
578.527	37859.77
578.725	37779.9
578.923	38058.43
579.121	38054.33
579.319	37720.51
579.516	37849.53
579.714	37913.02
579.912	37716.42
580.11	37485
580.308	37132.75
580.506	37081.55
580.704	37034.44
580.901	36999.63
581.099	37278.15
581.297	36448.72
581.495	36884.94
581.692	36692.43
581.89	36784.59
582.088	36813.26
582.285	36125.14
582.483	36846.03
582.681	36315.61
582.878	35873.24
583.076	35721.69
583.274	36309.46
583.471	35434.98
583.669	35844.57
583.866	35498.47
584.064	36075.99
584.262	35461.6
584.459	35895.77
584.657	35166.7
584.854	35727.84
585.052	34779.63
585.249	35152.36
585.447	35267.05
585.644	34996.71
585.841	34955.75
586.039	35332.58
586.236	34327.03
586.434	34759.15
586.631	34470.39
586.828	34494.96
587.026	34415.09
587.223	34599.41
587.42	34331.12
587.618	34017.78
587.815	33862.14
588.012	33729.02
588.21	33550.85
588.407	33899
588.604	33423.87
588.801	33434.11
588.999	33282.56
589.196	33331.72
589.393	33387.01
589.59	33296.9
589.787	32729.61
589.984	33092.1
590.182	32778.76
590.379	32860.68
590.576	32690.7
590.773	32885.26
590.97	32827.92
591.167	32590.35
591.364	32279.06
591.561	32393.75
591.758	31990.3
591.955	32246.29
592.152	32064.02
592.349	32131.61
592.546	31859.23
592.743	31963.67
592.94	31572.51
593.137	31875.61
593.334	31984.15
593.531	31359.52
593.727	31427.1
593.924	31316.51
594.121	30941.74
594.318	31547.93
594.515	31318.56
594.712	31089.19
594.908	30734.89
595.105	31091.24
595.302	30335.54
595.499	31136.29
595.696	30634.54
595.892	30503.47
596.089	30452.27
596.286	30704.17
596.482	30120.5
596.679	30087.73
596.876	30091.83
597.072	29774.39
597.269	30044.73
597.466	29469.25
597.662	29352.51
597.859	29766.2
598.055	29622.84
598.252	29463.1
598.448	29293.12
598.645	29196.87
598.841	29379.14
599.038	29149.76
599.234	29348.42
599.431	28867.14
599.627	28889.67
599.824	28944.97
600.02	28428.88
600.217	28471.89
600.413	28856.9
600.609	28322.38
600.806	28527.18
601.002	28156.5
601.198	28301.9
601.395	27798.1
601.591	28101.2
601.787	28074.58
601.984	27902.55
602.18	28103.25
602.376	27521.63
602.572	27310.69
602.769	27634.27
602.965	27175.52
603.161	27712.09
603.357	27449.95
603.553	27013.73
603.75	27275.87
603.946	26897
604.142	27140.71
604.338	26499.69
604.534	26927.72
604.73	26606.19
604.926	26493.55
605.122	26542.7
605.318	26636.91
605.514	26188.4
605.71	26417.77
605.906	26288.75
606.102	26462.83
606.298	26225.26
606.494	26006.13
606.69	25971.32
606.886	25860.73
607.082	25852.53
607.278	26296.94
607.474	25420.41
607.67	25727.61
607.866	25244.29
608.062	25963.12
608.257	25395.84
608.453	25373.31
608.649	25369.21
608.845	25309.82
609.041	25178.75
609.236	25127.55
609.432	25000.58
609.628	25090.69
609.824	25070.21
610.019	25008.77
610.215	24830.6
610.411	24791.69
610.606	25035.39
610.802	24617.61
610.998	24816.26
611.193	24840.84
611.389	24806.02
611.584	24937.09
611.78	24441.48
611.976	24842.88
612.171	24588.94
612.367	24488.59
612.562	24427.15
612.758	24128.14
612.953	23722.65
613.149	24261.26
613.344	24011.41
613.539	24326.8
613.735	23978.64
613.93	24119.95
614.126	23999.12
614.321	24177.3
614.517	23972.5
614.712	23577.24
614.907	23915.16
615.103	23773.85
615.298	23450.27
615.493	23925.39
615.688	23650.97
615.884	23904.92
616.079	23354.01
616.274	23536.28
616.47	23454.36
616.665	23632.54
616.86	23661.21
617.055	23421.59
617.25	23235.23
617.445	23493.27
617.641	23020.19
617.836	23515.8
618.031	22659.75
618.226	23075.49
618.421	22833.83
618.616	23020.19
618.811	22581.93
619.006	22760.1
619.201	22565.54
619.396	22975.14
619.591	22225.58
619.786	22471.34
619.981	22137.52
620.176	22327.98
620.371	22010.54
620.566	21899.95
620.761	22080.18
620.956	22112.94
621.151	21269.18
621.346	21412.54
621.541	21299.9
621.735	21605.05
621.93	21316.28
622.125	21461.69
622.32	20888.26
622.515	21363.39
622.709	20984.51
622.904	21052.09
623.099	20669.12
623.294	20716.23
623.488	20409.03
623.683	20595.4
623.878	20142.8
624.072	20349.64
624.267	20173.52
624.462	19815.12
624.656	19491.54
624.851	19915.47
625.046	19628.76
625.24	19831.51
625.435	19278.55
625.629	19483.35
625.824	19520.21
626.018	19280.6
626.213	18678.5
626.407	18940.64
626.602	18776.8
626.796	18965.21
626.991	18819.81
627.185	18868.96
627.38	18551.52
627.574	18277.1
627.768	18125.55
627.963	17963.76
628.157	18148.08
628.352	18133.74
628.546	17971.95
628.74	17707.76
628.935	17787.63
629.129	17916.65
629.323	17533.68
629.517	17554.16
629.712	17279.74
629.906	17375.99
630.1	17029.88
630.294	16999.16
630.489	16900.86
630.683	16952.06
630.877	16579.33
631.071	16532.23
631.265	16657.15
631.459	16464.64
631.653	16216.84
631.848	16397.06
632.042	16421.64
632.236	16108.3
632.43	16220.94
632.624	16270.09
632.818	15907.6
633.012	15590.16
633.206	15831.82
633.4	15833.87
633.594	15268.63
633.788	15727.38
633.982	15432.47
634.176	15440.66
634.369	15278.87
634.563	15137.56
634.757	15106.84
634.951	15020.83
635.145	14951.2
635.339	15041.31
635.533	14760.73
635.726	14662.43
635.92	14605.09
636.114	14623.52
636.308	14230.31
636.501	14801.69
636.695	14349.09
636.889	14205.74
637.083	14232.36
637.276	14246.69
637.47	13962.03
637.664	14193.45
637.857	13968.17
638.051	13775.66
638.244	13654.83
638.438	13775.66
638.632	13671.22
638.825	13665.07
639.019	13282.1
639.212	13210.42
639.406	13407.03
639.599	13460.27
639.793	13409.08
639.986	13169.46
640.18	12997.43
640.373	12909.37
640.567	13019.96
640.76	13108.02
640.954	12641.09
641.147	12553.02
641.34	12528.45
641.534	12528.45
641.727	12565.31
641.92	12348.23
642.114	12311.36
642.307	12378.95
642.5	12438.34
642.694	12045.13
642.887	12038.98
643.08	12387.14
643.273	11983.69
643.467	11932.49
643.66	11758.41
643.853	11739.98
644.046	11645.77
644.239	11791.18
644.432	11486.03
644.626	11477.84
644.819	11418.45
645.012	11590.48
645.205	11236.18
645.398	11406.16
645.591	11096.92
645.784	11209.56
645.977	11045.72
646.17	11062.1
646.363	11004.76
646.556	10752.86
646.749	10994.52
646.942	10767.2
647.135	10722.14
647.328	10584.93
647.521	10453.86
647.714	10562.4
647.907	10472.29
648.099	10513.25
648.292	10361.7
648.485	10408.8
648.678	10113.89
648.871	10120.04
649.064	10232.68
649.256	10204
649.449	10113.89
649.642	9857.9
649.835	10249.06
650.027	9730.92
650.22	9898.86
650.413	9755.5
650.605	9638.76
650.798	9757.55
650.991	9603.95
651.183	9689.96
651.376	9618.29
651.568	9458.54
651.761	9274.23
651.954	9474.93
652.146	9251.7
652.339	9321.33
652.531	9257.84
652.724	9085.81
652.916	8983.41
653.109	9048.95
653.301	8786.81
653.494	9046.9
653.686	8743.8
653.879	8852.34
654.071	8924.02
654.263	8850.3
654.456	8614.78
654.648	8518.53
654.84	8514.43
655.033	8483.71
655.225	8559.49
655.417	8315.78
655.61	8356.74
655.802	8379.26
655.994	8366.98
656.186	8315.78
656.379	8371.07
656.571	8272.77
656.763	8160.13
656.955	7975.81
657.148	8086.4
657.34	8039.3
657.532	7877.51
657.724	7764.87
657.916	7768.97
658.108	7863.18
658.3	7754.63
658.492	7797.64
658.684	7625.61
658.876	7697.29
659.068	7588.75
659.26	7392.14
659.452	7439.25
659.644	7594.89
659.836	7392.14
660.028	7363.47
660.22	7308.18
660.412	7330.7
660.604	7201.68
660.796	7424.91
660.988	7168.91
661.18	7013.27
661.372	7029.65
661.563	7105.43
661.755	6853.53
661.947	7148.43
662.139	6861.72
662.331	6943.64
662.522	6648.73
662.714	6738.84
662.906	6687.64
663.097	6769.56
663.289	6712.22
663.481	6546.33
663.673	6585.24
663.864	6646.68
664.056	6347.68
664.247	6523.8
664.439	6372.25
664.631	6552.48
664.822	6405.02
665.014	6284.19
665.205	6380.45
665.397	6372.25
665.588	6220.71
665.78	6261.66
665.971	6284.19
666.163	6220.71
666.354	6232.99
666.546	6007.72
666.737	6015.91
666.929	6069.16
667.12	6022.05
667.311	5897.13
667.503	5989.28
667.694	5952.42
667.885	5786.54
668.077	5710.76
668.268	5735.34
668.459	5784.49
668.651	5876.65
668.842	5733.29
669.033	5747.62
669.224	5651.37
669.416	5667.75
669.607	5655.47
669.798	5485.48
669.989	5659.56
670.18	5395.37
670.371	5436.33
670.563	5469.1
670.754	5487.53
670.945	5409.71
671.136	5417.9
671.327	5465
671.518	5407.66
671.709	5389.23
671.9	5196.72
672.091	5252.02
672.282	5254.06
672.473	5170.1
672.664	5139.38
672.855	5147.57
673.046	5102.51
673.237	5088.18
673.428	5161.91
673.619	5129.14
673.809	5084.08
674	4987.83
674.191	5110.71
674.382	4891.57
674.573	5073.84
674.764	4899.77
674.954	4883.38
675.145	4912.05
675.336	4934.58
675.527	4899.77
675.717	4834.23
675.908	4905.91
676.099	4975.54
676.289	4881.33
676.48	4795.32
676.671	4823.99
676.861	4752.31
677.052	4690.87
677.243	4727.74
677.433	4629.43
677.624	4803.51
677.814	4719.54
678.005	4557.75
678.195	4797.37
678.386	4572.09
678.576	4567.99
678.767	4580.28
678.957	4682.68
679.148	4611
679.338	4623.29
679.529	4522.94
679.719	4565.95
679.909	4559.8
680.1	4567.99
680.29	4471.74
680.481	4484.03
680.671	4520.89
680.861	4357.05
681.052	4531.13
681.242	4414.4
681.432	4567.99
681.622	4342.72
681.813	4498.36
682.003	4406.2
682.193	4365.25
682.383	4395.96
682.573	4438.97
682.764	4385.73
682.954	4465.6
683.144	4199.36
683.334	4301.76
683.524	4318.14
683.714	4441.02
683.904	4258.75
684.094	4395.96
684.284	4193.22
684.474	4389.82
684.664	4371.39
684.854	4389.82
685.044	4230.08
685.234	4260.8
685.424	4049.86
685.614	4205.5
685.804	4234.18
685.994	4268.99
686.184	4103.11
686.374	4080.58
686.564	4142.02
686.753	4164.54
686.943	4047.81
687.133	4131.78
687.323	4146.11
687.513	4105.15
687.702	4109.25
687.892	4072.39
688.082	4035.52
688.272	3998.66
688.461	3959.75
688.651	4033.47
688.841	3996.61
689.03	3834.82
689.22	3867.59
689.41	3800.01
689.599	4039.62
689.789	3810.25
689.979	3865.54
690.168	3775.43
690.358	3724.23
690.547	3777.48
690.737	3724.23
690.926	3814.34
691.116	3738.57
691.305	3795.91
691.495	3697.61
691.684	3703.75
691.874	3711.94
692.063	3668.94
692.252	3587.02
692.442	3599.31
692.631	3566.54
692.82	3621.83
693.01	3451.85
693.199	3509.19
693.388	3445.71
693.578	3509.19
693.767	3511.24
693.956	3458
694.146	3447.76
694.335	3478.47
694.524	3437.52
694.713	3464.14
694.902	3380.17
695.092	3345.36
695.281	3365.84
695.47	3429.32
695.659	3410.89
695.848	3382.22
696.037	3328.97
696.226	3288.01
696.415	3283.92
696.604	3247.05
696.793	3134.42
696.982	3302.35
697.171	3335.12
697.36	3253.2
697.549	3208.14
697.738	2941.91
697.927	3122.13
698.116	3079.12
698.305	3111.89
698.494	3240.91
698.683	3144.66
698.872	3103.7
699.061	2954.19
699.25	3001.3
699.438	3181.52
699.627	2952.15
699.816	2982.87
700.005	3001.3
700.193	3101.65
700.382	3075.03
700.571	2960.34
700.76	3025.87
700.948	3095.5
701.137	3025.87
701.326	3007.44
701.514	2849.75
701.703	2980.82
701.892	2884.56
702.08	3001.3
702.269	2868.18
702.457	2903
702.646	2927.57
702.834	2755.54
703.023	2761.69
703.212	2833.36
703.4	2939.86
703.589	2825.17
703.777	2790.36
703.965	2663.38
704.154	2853.84
704.342	2749.4
704.531	2855.89
704.719	2739.16
704.907	2735.06
705.096	2747.35
705.284	2784.21
705.472	2696.15
705.661	2706.39
705.849	2722.77
706.037	2675.67
706.226	2825.17
706.414	2728.92
706.602	2798.55
706.79	2716.63
706.979	2612.18
707.167	2585.56
707.355	2763.73
707.543	2745.3
707.731	2716.63
707.919	2517.98
708.107	2681.82
708.296	2685.91
708.484	2708.44
708.672	2620.38
708.86	2524.12
709.048	2581.46
709.236	2733.01
709.424	2577.37
709.612	2712.53
709.8	2651.1
709.988	2606.04
710.176	2677.72
710.364	2499.55
710.551	2532.31
710.739	2624.47
710.927	2565.08
711.115	2563.03
711.303	2563.03
711.491	2474.97
711.679	2493.4
711.866	2591.7
712.054	2630.62
712.242	2560.98
712.43	2575.32
712.617	2528.22
712.805	2524.12
712.993	2661.34
713.181	2497.5
713.368	2454.49
713.556	2579.42
713.744	2477.02
713.931	2454.49
714.119	2411.48
714.306	2427.87
714.494	2548.7
714.682	2468.83
714.869	2503.64
715.057	2581.46
715.244	2470.87
715.432	2589.66
715.619	2511.83
715.807	2466.78
715.994	2436.06
716.182	2354.14
716.369	2454.49
716.556	2462.68
716.744	2608.09
716.931	2497.5
717.119	2462.68
717.306	2474.97
717.493	2444.25
717.681	2472.92
717.868	2460.63
718.055	2440.15
718.242	2472.92
718.43	2477.02
718.617	2321.37
718.804	2436.06
718.991	2360.28
719.179	2511.83
719.366	2503.64
719.553	2452.44
719.74	2462.68
719.927	2362.33
720.114	2458.59
720.301	2386.91
720.488	2333.66
720.676	2382.81
720.863	2520.03
721.05	2415.58
721.237	2405.34
721.424	2495.45
721.611	2403.29
721.798	2374.62
721.985	2350.04
722.172	2325.47
722.358	2401.24
722.545	2454.49
722.732	2348
722.919	2456.54
723.106	2360.28
723.293	2370.52
723.48	2470.87
723.667	2329.56
723.853	2350.04
724.04	2321.37
724.227	2341.85
724.414	2382.81
724.6	2499.55
724.787	2319.32
724.974	2401.24
725.161	2327.52
725.347	2376.67
725.534	2421.72
725.72	2403.29
725.907	2409.44
726.094	2468.83
726.28	2343.9
726.467	2296.8
726.653	2309.08
726.84	2382.81
727.027	2524.12
727.213	2241.5
727.4	2462.68
727.586	2413.53
727.773	2444.25
727.959	2290.65
728.145	2468.83
728.332	2423.77
728.518	2364.38
728.705	2425.82
728.891	2270.17
729.077	2296.8
729.264	2298.84
729.45	2374.62
729.636	2407.39
729.823	2304.99
730.009	2307.04
730.195	2329.56
730.382	2329.56
730.568	2366.43
730.754	2335.71
730.94	2264.03
731.126	2350.04
731.313	2300.89
731.499	2403.29
731.685	2315.23
731.871	2386.91
732.057	2247.65
732.243	2335.71
732.429	2323.42
732.615	2300.89
732.801	2327.52
732.987	2358.24
733.173	2391
733.359	2348
733.545	2325.47
733.731	2280.41
733.917	2280.41
734.103	2247.65
734.289	2239.45
734.475	2243.55
734.661	2239.45
734.847	2235.36
735.033	2259.93
735.219	2288.61
735.404	2288.61
735.59	2171.87
735.776	2327.52
735.962	2280.41
736.148	2327.52
736.333	2255.84
736.519	2247.65
736.705	2249.69
736.89	2313.18
737.076	2147.3
737.262	2116.58
737.447	2309.08
737.633	2214.88
737.819	2341.85
738.004	2241.5
738.19	2247.65
738.375	2173.92
738.561	2268.13
738.747	2302.94
738.932	2114.53
739.118	2186.21
739.303	2178.01
739.489	2227.17
739.674	2159.58
739.859	2216.93
740.045	2235.36
740.23	2104.29
740.416	2124.77
740.601	2227.17
740.786	2130.91
740.972	2075.62
741.157	2147.3
741.342	2022.37
741.528	2075.62
741.713	2044.9
741.898	2038.75
742.084	2112.48
742.269	2034.66
742.454	2110.43
742.639	2012.13
742.824	2038.75
743.01	2106.34
743.195	2042.85
743.38	2038.75
743.565	2008.03
743.75	2087.9
743.935	2026.47
744.12	2001.89
744.305	1942.5
744.49	1993.7
744.675	1987.55
744.86	1889.25
745.045	1991.65
745.23	1956.83
745.415	1958.88
745.6	1985.51
745.785	1909.73
745.97	1948.64
746.155	1801.19
746.34	1876.96
746.525	1891.3
746.71	1854.44
746.895	1944.55
747.079	1862.63
747.264	1846.24
747.449	1803.24
747.634	1778.66
747.819	1809.38
748.003	1764.33
748.188	1692.65
748.373	1776.61
748.557	1719.27
748.742	1831.91
748.927	1870.82
749.111	1633.26
749.296	1700.84
749.481	1758.18
749.665	1702.89
749.85	1715.17
750.034	1698.79
750.219	1666.02
750.404	1625.06
750.588	1610.73
750.773	1580.01
750.957	1565.67
751.141	1631.21
751.326	1567.72
751.51	1575.91
751.695	1633.26
751.879	1580.01
752.064	1614.82
752.248	1461.23
752.432	1604.58
752.617	1506.28
752.801	1569.77
752.985	1493.99
753.17	1543.14
753.354	1450.99
753.538	1483.75
753.722	1508.33
753.907	1455.08
754.091	1424.36
754.275	1399.79
754.459	1399.79
754.643	1348.59
754.828	1397.74
755.012	1567.72
755.196	1407.98
755.38	1362.92
755.564	1395.69
755.748	1350.64
755.932	1305.58
756.116	1268.72
756.3	1428.46
756.484	1395.69
756.668	1338.35
756.852	1199.09
757.036	1248.24
757.22	1229.81
757.404	1240.05
757.588	1274.86
757.772	1215.47
757.956	1264.62
758.14	1233.9
758.323	1160.17
758.507	1233.9
758.691	1264.62
758.875	1108.98
759.059	1240.05
759.242	1262.57
759.426	1233.9
759.61	1162.22
759.794	1098.74
759.977	1199.09
760.161	1172.46
760.345	1125.36
760.528	1227.76
760.712	1174.51
760.895	1174.51
761.079	1035.25
761.263	1070.06
761.446	1102.83
761.63	1068.02
761.813	1104.88
761.997	1133.55
762.18	1063.92
762.364	1100.78
762.547	1020.91
762.731	1129.45
762.914	1108.98
763.098	1090.54
763.281	1043.44
763.464	1092.59
763.648	1045.49
763.831	926.71
764.015	990.19
764.198	1014.77
764.381	1092.59
764.564	1068.02
764.748	1055.73
764.931	1018.86
765.114	943.09
765.297	1041.39
765.481	926.71
765.664	1049.58
765.847	988.14
766.03	1106.93
766.213	875.51
766.397	1051.63
766.58	916.47
766.763	1068.02
766.946	994.29
767.129	1041.39
767.312	908.27
767.495	953.33
767.678	949.23
767.861	936.95
768.044	951.28
768.227	945.14
768.41	936.95
768.593	982
768.776	852.98
768.959	895.99
769.142	1033.2
769.324	861.17
769.507	984.05
769.69	973.81
769.873	959.47
770.056	871.41
770.239	855.03
770.421	953.33
770.604	912.37
770.787	975.86
770.97	863.22
771.152	838.64
771.335	822.26
771.518	857.07
771.7	945.14
771.883	848.88
772.066	785.4
772.248	844.79
772.431	883.7
772.613	840.69
772.796	801.78
772.978	838.64
773.161	818.16
773.343	750.58
773.526	848.88
773.708	826.36
773.891	752.63
774.073	775.16
774.256	766.96
774.438	789.49
774.621	754.68
774.803	740.34
774.985	719.86
775.168	769.01
775.35	766.96
775.532	691.19
775.715	662.52
775.897	785.4
776.079	803.83
776.261	738.29
776.444	734.2
776.626	709.62
776.808	637.94
776.99	695.29
777.173	650.23
777.355	754.68
777.537	801.78
777.719	685.05
777.901	707.57
778.083	660.47
778.265	699.38
778.447	738.29
778.629	580.6
778.811	617.46
778.993	646.13
779.175	648.18
779.357	625.65
779.539	709.62
779.721	668.66
779.903	592.89
780.085	543.74
780.267	590.84
780.449	639.99
780.631	586.74
780.812	637.94
780.994	654.33
781.176	621.56
781.358	568.31
781.54	574.46
781.721	592.89
781.903	543.74
782.085	502.78
782.267	615.41
782.448	531.45
782.63	527.35
782.812	492.54
782.993	488.44
783.175	566.26
783.357	488.44
783.538	519.16
783.72	564.22
783.901	515.06
784.083	504.82
784.264	457.72
784.446	541.69
784.627	478.2
784.809	535.54
784.99	506.87
785.172	543.74
785.353	449.53
785.535	447.48
785.716	424.95
785.897	490.49
786.079	504.82
786.26	420.86
786.441	463.86
786.623	502.78
786.804	406.52
786.985	453.63
787.167	424.95
787.348	422.91
787.529	470.01
787.71	459.77
787.891	476.15
788.073	482.3
788.254	379.9
788.435	412.67
788.616	449.53
788.797	476.15
788.978	435.19
789.159	435.19
789.34	396.28
789.522	416.76
789.703	351.23
789.884	402.43
790.065	361.47
790.246	386.04
790.427	392.19
790.607	324.6
790.788	386.04
790.969	295.93
791.15	351.23
791.331	338.94
791.512	369.66
791.693	304.12
791.874	357.37
792.054	345.08
792.235	318.46
792.416	332.79
792.597	363.51
792.778	345.08
792.958	414.71
793.139	336.89
793.32	343.03
793.5	357.37
793.681	369.66
793.862	392.19
794.042	338.94
794.223	355.32
794.404	371.71
794.584	330.75
794.765	308.22
794.945	300.03
795.126	322.56
795.306	353.27
795.487	293.88
795.667	261.12
795.848	359.42
796.028	242.68
796.209	361.47
796.389	316.41
796.57	291.84
796.75	177.15
796.93	275.45
797.111	295.93
797.291	209.92
797.471	254.97
797.652	289.79
797.832	363.51
798.012	363.51
798.192	228.35
798.373	257.02
798.553	271.36
798.733	281.6
798.913	250.88
799.093	271.36
799.274	248.83
799.454	261.12
799.634	224.25
799.814	293.88
799.994	224.25
800.174	248.83
800.354	279.55
800.534	267.26
800.714	218.11
800.894	173.05
801.074	279.55
801.254	263.16
801.434	197.63
801.614	252.92
801.794	211.96
801.974	615.41
802.154	214.01
802.334	240.64
802.514	216.06
802.693	214.01
802.873	312.32
803.053	185.34
803.233	222.2
803.413	191.49
803.592	158.72
803.772	179.2
803.952	216.06
804.131	261.12
804.311	285.69
804.491	193.53
804.67	181.25
804.85	224.25
805.03	195.58
805.209	242.68
805.389	160.77
805.568	183.29
805.748	168.96
805.928	150.53
806.107	248.83
806.287	138.24
806.466	259.07
806.646	179.2
806.825	177.15
807.004	183.29
807.184	146.43
807.363	195.58
807.543	164.86
807.722	181.25
807.901	222.2
808.081	207.87
808.26	195.58
808.439	177.15
808.619	134.14
808.798	203.77
808.977	185.34
809.156	166.91
809.336	175.1
809.515	209.92
809.694	248.83
809.873	140.29
810.052	191.49
810.231	134.14
810.411	115.71
810.59	150.53
810.769	125.95
810.948	207.87
811.127	166.91
811.306	138.24
811.485	271.36
811.664	175.1
811.843	144.38
812.022	216.06
812.201	216.06
812.38	187.39
812.559	128
812.737	109.57
812.916	72.7
813.095	101.37
813.274	187.39
813.453	181.25
813.632	220.16
813.811	144.38
813.989	134.14
814.168	168.96
814.347	158.72
814.526	164.86
814.704	195.58
814.883	134.14
815.062	109.57
815.24	171.01
815.419	138.24
815.598	191.49
815.776	140.29
815.955	162.81
816.133	123.9
816.312	158.72
816.49	146.43
816.669	111.61
816.847	191.49
817.026	216.06
817.204	125.95
817.383	173.05
817.561	68.61
817.74	93.18
817.918	76.8
818.097	115.71
818.275	148.48
818.453	119.81
818.632	171.01
818.81	117.76
818.988	72.7
819.167	136.19
819.345	160.77
819.523	84.99
819.701	95.23
819.879	166.91
820.058	136.19
820.236	91.13
820.414	177.15
820.592	115.71
820.77	76.8
820.948	123.9
821.127	134.14
821.305	140.29
821.483	3.07
821.661	171.01
821.839	109.57
822.017	97.28
822.195	109.57
822.373	109.57
822.551	109.57
822.729	113.66
822.907	35.84
823.085	109.57
823.262	82.94
823.44	80.89
823.618	132.09
823.796	156.67
823.974	138.24
824.152	125.95
824.329	97.28
824.507	154.62
824.685	84.99
824.863	97.28
825.04	205.82
825.218	93.18
825.396	76.8
825.574	148.48
825.751	25.6
825.929	109.57
826.107	68.61
826.284	74.75
826.462	140.29
826.639	107.52
826.817	66.56
826.994	41.98
827.172	121.85
827.349	150.53
827.527	97.28
827.704	78.85
827.882	152.57
828.059	99.33
828.237	48.13
828.414	89.09
828.591	-9.22
828.769	80.89
828.946	93.18
829.124	101.37
829.301	74.75
829.478	72.7
829.655	109.57
829.833	52.22
830.01	72.7
830.187	128
830.364	64.51
830.542	111.61
830.719	134.14
830.896	99.33
831.073	142.33
831.25	64.51
831.427	46.08
831.604	179.2
831.782	87.04
831.959	37.89
832.136	60.42
832.313	70.65
832.49	82.94
832.667	119.81
832.844	66.56
833.021	91.13
833.198	109.57
833.374	64.51
833.551	89.09
833.728	109.57
833.905	54.27
834.082	50.18
834.259	58.37
834.436	89.09
834.612	58.37
834.789	95.23
834.966	29.7
835.143	15.36
835.319	82.94
835.496	72.7
835.673	103.42
835.85	70.65
836.026	101.37
836.203	150.53
836.38	87.04
836.556	44.03
836.733	31.74
836.909	95.23
837.086	76.8
837.262	33.79
837.439	64.51
837.616	107.52
837.792	58.37
837.968	146.43
838.145	11.26
838.321	89.09
838.498	44.03
838.674	41.98
838.851	54.27
839.027	113.66
839.203	80.89
839.38	21.5
839.556	37.89
839.732	19.46
839.909	33.79
840.085	107.52
840.261	113.66
840.437	91.13
840.614	64.51
840.79	117.76
840.966	68.61
841.142	80.89
841.318	35.84
841.494	19.46
841.671	60.42
841.847	29.7
842.023	-5.12
842.199	15.36
842.375	64.51
842.551	-21.5
842.727	-15.36
842.903	76.8
843.079	54.27
843.255	89.09
843.431	1.02
843.607	105.47
843.783	39.94
843.959	68.61
844.134	97.28
844.31	48.13
844.486	3.07
844.662	64.51
844.838	91.13
845.013	19.46
845.189	39.94
845.365	74.75
845.541	9.22
845.716	56.32
845.892	35.84
846.068	101.37
846.244	17.41
846.419	84.99
846.595	33.79
846.77	44.03
846.946	44.03
847.122	89.09
847.297	64.51
847.473	72.7
847.648	125.95
847.824	72.7
847.999	48.13
848.175	82.94
848.35	17.41
848.526	33.79
848.701	72.7
848.876	109.57
849.052	89.09
849.227	35.84
849.403	68.61
849.578	74.75
849.753	13.31
849.929	44.03
850.104	52.22
850.279	78.85
850.454	-29.7
850.63	76.8
850.805	-25.6
850.98	44.03
851.155	-29.7
851.33	64.51
851.505	3.07
851.681	44.03
851.856	15.36
852.031	78.85
852.206	-3.07
852.381	70.65
852.556	35.84
852.731	52.22
852.906	84.99
853.081	31.74
853.256	1.02
853.431	68.61
853.606	9.22
853.781	50.18
853.956	-35.84
854.131	41.98
854.305	19.46
854.48	48.13
854.655	17.41
854.83	60.42
855.005	80.89
855.18	25.6
855.354	35.84
855.529	33.79
855.704	48.13
855.879	52.22
856.053	17.41
856.228	-21.5
856.403	35.84
856.577	19.46
856.752	-27.65
856.926	31.74
857.101	11.26
857.276	7.17
857.45	60.42
857.625	56.32
857.799	-25.6
857.974	5.12
858.148	-29.7
858.323	21.5
858.497	-48.13
858.672	7.17
858.846	70.65
859.02	80.89
859.195	25.6
859.369	44.03
859.543	-7.17
859.718	-3.07
859.892	50.18
860.066	44.03
860.241	44.03
860.415	15.36
860.589	11.26
860.763	15.36
860.938	66.56
861.112	29.7
861.286	50.18
861.46	-5.12
861.634	-3.07
861.808	23.55
861.982	68.61
862.157	35.84
862.331	-25.6
862.505	11.26
862.679	31.74
862.853	52.22
863.027	-15.36
863.201	66.56
863.375	13.31
863.549	82.94
863.722	9.22
863.896	58.37
864.07	11.26
864.244	5.12
864.418	44.03
864.592	5.12
864.766	-15.36
864.939	29.7
865.113	-39.94
865.287	11.26
865.461	-46.08
865.634	-17.41
865.808	3.07
865.982	9.22
866.156	82.94
866.329	62.46
866.503	25.6
866.676	5.12
866.85	39.94
867.024	66.56
867.197	-7.17
867.371	84.99
867.544	11.26
867.718	-33.79
867.891	27.65
868.065	-3.07
868.238	-13.31
868.412	48.13
868.585	-27.65
868.759	21.5
868.932	-15.36
869.105	-11.26
869.279	-50.18
869.452	52.22
869.625	-39.94
869.799	31.74
869.972	-58.37
870.145	9.22
870.319	-17.41
870.492	21.5
870.665	70.65
870.838	52.22
871.011	-66.56
871.185	-17.41
871.358	25.6
871.531	15.36
871.704	15.36
871.877	21.5
872.05	33.79
872.223	-23.55
872.396	-15.36
872.569	-5.12
872.742	76.8
872.915	44.03
873.088	19.46
873.261	9.22
873.434	56.32
873.607	1.02
873.78	76.8
873.953	-1.02
874.126	37.89
874.299	-29.7
874.471	25.6
874.644	13.31
874.817	35.84
874.99	111.61
875.163	-31.74
875.335	62.46
875.508	-46.08
875.681	52.22
875.853	-56.32
876.026	60.42
876.199	-46.08
876.371	39.94
876.544	31.74
876.717	33.79
876.889	-21.5
877.062	80.89
877.234	19.46
877.407	-33.79
877.579	-15.36
877.752	-37.89
877.924	-50.18
878.097	54.27
878.269	-33.79
878.442	23.55
878.614	62.46
878.786	-25.6
878.959	33.79
879.131	58.37
879.303	80.89
879.476	11.26
879.648	-37.89
879.82	-13.31
879.993	-9.22
880.165	15.36
880.337	-21.5
880.509	-46.08
880.681	-44.03
880.854	3.07
881.026	48.13
881.198	1.02
881.37	-37.89
881.542	68.61
881.714	-93.18
881.886	17.41
882.058	52.22
882.23	44.03
882.402	-33.79
882.574	74.75
882.746	7.17
882.918	25.6
883.09	-23.55
883.262	44.03
883.434	-19.46
883.606	-15.36
883.778	-23.55
883.95	31.74
884.122	-37.89
884.293	1.02
884.465	-1.02
884.637	23.55
884.809	-11.26
884.98	-7.17
885.152	23.55
885.324	101.37
885.496	-23.55
885.667	3.07
885.839	29.7
886.011	31.74
886.182	15.36
886.354	13.31
886.525	13.31
886.697	-46.08
886.869	-3.07
887.04	39.94
887.212	7.17
887.383	17.41
887.555	84.99
887.726	39.94
887.897	9.22
888.069	-37.89
888.24	17.41
888.412	-13.31
888.583	-35.84
888.754	66.56
888.926	25.6
889.097	-17.41
889.268	44.03
889.44	-1.02
889.611	-35.84
889.782	-33.79
889.953	-37.89
890.125	68.61
890.296	117.76
890.467	5.12
890.638	-5.12
890.809	-15.36
890.98	-13.31
891.151	46.08
891.323	-29.7
891.494	-54.27
891.665	17.41
891.836	-21.5
892.007	27.65
892.178	11.26
892.349	23.55
892.52	41.98
892.691	19.46
892.862	-19.46
893.032	-23.55
893.203	3.07
893.374	84.99
893.545	68.61
893.716	-37.89
893.887	-46.08
894.057	1.02
894.228	23.55
894.399	5.12
894.57	-5.12
894.74	-50.18
894.911	-13.31
895.082	-7.17
895.253	-37.89
895.423	68.61
895.594	60.42
895.764	-29.7
895.935	-11.26
896.106	-35.84
896.276	-23.55
896.447	-62.46
896.617	76.8
896.788	-33.79
896.958	-31.74
897.129	-5.12
897.299	-68.61
897.47	-48.13
897.64	-23.55
897.81	21.5
897.981	41.98
898.151	35.84
898.322	-19.46
898.492	13.31
898.662	1.02
898.832	64.51
899.003	39.94
899.173	35.84
899.343	-1.02
899.513	-56.32
