Data from USB4F104151__80__11-37-40-765.txt Node

Date: Fri Mar 14 11:37:40 EDT 2025
User: louis
Spectrometer: USB4F10415
Trigger mode: 4
Integration Time (sec): 2.000000E-2
Scans to average: 1
Electric dark correction enabled: true
Nonlinearity correction enabled: false
Boxcar width: 0
XAxis mode: Wavelengths
Number of Pixels in Spectrum: 3648
>>>>>Begin Spectral Data<<<<<
178.204	-79.36
178.424	-79.36
178.644	-79.36
178.864	-95.74
179.084	-40.45
179.304	-36.35
179.524	12.8
179.744	-42.5
179.964	-1.54
180.184	-22.02
180.404	53.76
180.624	20.99
180.844	-44.54
181.064	-9.73
181.283	-3.58
181.503	12.8
181.723	59.9
181.943	-79.36
182.163	53.76
182.383	-40.45
182.602	41.47
182.822	0.51
183.042	-5.63
183.262	6.66
183.482	33.28
183.701	-3.58
183.921	-11.78
184.141	59.9
184.361	-24.06
184.58	35.33
184.8	37.38
185.02	-32.26
185.239	0.51
185.459	31.23
185.679	4.61
185.898	45.57
186.118	8.7
186.338	27.14
186.557	86.53
186.777	35.33
186.997	-7.68
187.216	47.62
187.436	82.43
187.655	51.71
187.875	35.33
188.095	4.61
188.314	23.04
188.534	102.91
188.753	-9.73
188.973	113.15
189.192	2.56
189.412	49.66
189.631	39.42
189.851	-30.21
190.07	41.47
190.29	45.57
190.509	-17.92
190.729	-52.74
190.948	94.72
191.168	53.76
191.387	80.38
191.607	-9.73
191.826	61.95
192.045	-50.69
192.265	14.85
192.484	12.8
192.704	-46.59
192.923	10.75
193.142	35.33
193.362	98.81
193.581	16.9
193.8	-5.63
194.02	23.04
194.239	25.09
194.458	-1.54
194.678	-65.02
194.897	27.14
195.116	8.7
195.335	16.9
195.555	12.8
195.774	6.66
195.993	31.23
196.212	64
196.432	29.18
196.651	-26.11
196.87	31.23
197.089	102.91
197.308	-11.78
197.528	-1.54
197.747	-44.54
197.966	49.66
198.185	-3.58
198.404	37.38
198.623	-26.11
198.842	41.47
199.062	10.75
199.281	27.14
199.5	-42.5
199.719	113.15
199.938	-44.54
200.157	23.04
200.376	68.09
200.595	-7.68
200.814	8.7
201.033	31.23
201.252	43.52
201.471	72.19
201.69	41.47
201.909	33.28
202.128	76.29
202.347	64
202.566	113.15
202.785	37.38
203.004	-34.3
203.223	27.14
203.442	12.8
203.661	2.56
203.879	-7.68
204.098	-42.5
204.317	-7.68
204.536	-3.58
204.755	66.05
204.974	66.05
205.193	8.7
205.411	25.09
205.63	80.38
205.849	-48.64
206.068	14.85
206.287	-40.45
206.505	33.28
206.724	23.04
206.943	96.77
207.162	-9.73
207.381	20.99
207.599	10.75
207.818	49.66
208.037	-26.11
208.255	35.33
208.474	8.7
208.693	55.81
208.911	66.05
209.13	-5.63
209.349	35.33
209.567	8.7
209.786	78.33
210.005	10.75
210.223	39.42
210.442	-9.73
210.661	94.72
210.879	-30.21
211.098	-19.97
211.316	8.7
211.535	35.33
211.753	61.95
211.972	-26.11
212.191	37.38
212.409	55.81
212.628	6.66
212.846	68.09
213.065	61.95
213.283	80.38
213.502	-48.64
213.72	45.57
213.938	18.94
214.157	68.09
214.375	-11.78
214.594	8.7
214.812	37.38
215.031	64
215.249	33.28
215.467	66.05
215.686	-3.58
215.904	123.39
216.122	37.38
216.341	35.33
216.559	72.19
216.778	104.96
216.996	88.57
217.214	6.66
217.432	-17.92
217.651	49.66
217.869	47.62
218.087	4.61
218.306	35.33
218.524	-24.06
218.742	39.42
218.96	35.33
219.179	51.71
219.397	10.75
219.615	49.66
219.833	80.38
220.051	31.23
220.27	31.23
220.488	-30.21
220.706	10.75
220.924	41.47
221.142	31.23
221.36	45.57
221.578	-7.68
221.796	10.75
222.015	20.99
222.233	100.86
222.451	6.66
222.669	18.94
222.887	-85.5
223.105	41.47
223.323	59.9
223.541	-19.97
223.759	-3.58
223.977	18.94
224.195	59.9
224.413	74.24
224.631	12.8
224.849	-26.11
225.067	94.72
225.285	27.14
225.503	41.47
225.721	27.14
225.939	31.23
226.157	31.23
226.375	121.34
226.592	16.9
226.81	-24.06
227.028	-50.69
227.246	90.62
227.464	-15.87
227.682	88.57
227.9	-58.88
228.117	18.94
228.335	-30.21
228.553	-1.54
228.771	31.23
228.989	-19.97
229.206	72.19
229.424	55.81
229.642	-73.21
229.86	12.8
230.077	61.95
230.295	20.99
230.513	59.9
230.731	61.95
230.948	20.99
231.166	51.71
231.384	41.47
231.601	76.29
231.819	-17.92
232.037	72.19
232.254	14.85
232.472	47.62
232.689	41.47
232.907	70.14
233.125	27.14
233.342	-32.26
233.56	12.8
233.777	72.19
233.995	23.04
234.213	2.56
234.43	20.99
234.648	59.9
234.865	-3.58
235.083	59.9
235.3	41.47
235.518	-17.92
235.735	23.04
235.953	-9.73
236.17	-3.58
236.388	-30.21
236.605	23.04
236.822	57.86
237.04	-13.82
237.257	88.57
237.475	31.23
237.692	20.99
237.909	20.99
238.127	10.75
238.344	47.62
238.562	-7.68
238.779	-56.83
238.996	49.66
239.214	29.18
239.431	18.94
239.648	25.09
239.865	-11.78
240.083	20.99
240.3	82.43
240.517	47.62
240.735	53.76
240.952	92.67
241.169	72.19
241.386	-7.68
241.603	96.77
241.821	-9.73
242.038	-3.58
242.255	70.14
242.472	45.57
242.689	41.47
242.907	20.99
243.124	59.9
243.341	18.94
243.558	16.9
243.775	12.8
243.992	29.18
244.209	29.18
244.426	-11.78
244.643	80.38
244.86	-19.97
245.078	31.23
245.295	82.43
245.512	2.56
245.729	6.66
245.946	61.95
246.163	23.04
246.38	14.85
246.597	78.33
246.814	78.33
247.031	-62.98
247.248	80.38
247.464	64
247.681	6.66
247.898	41.47
248.115	51.71
248.332	25.09
248.549	33.28
248.766	47.62
248.983	82.43
249.2	88.57
249.417	45.57
249.633	57.86
249.85	53.76
250.067	37.38
250.284	8.7
250.501	-3.58
250.717	-17.92
250.934	27.14
251.151	0.51
251.368	61.95
251.585	88.57
251.801	10.75
252.018	33.28
252.235	90.62
252.451	6.66
252.668	64
252.885	100.86
253.102	70.14
253.318	72.19
253.535	47.62
253.752	55.81
253.968	27.14
254.185	-34.3
254.401	18.94
254.618	-26.11
254.835	29.18
255.051	-22.02
255.268	-65.02
255.484	39.42
255.701	-22.02
255.917	61.95
256.134	35.33
256.351	49.66
256.567	20.99
256.784	96.77
257	31.23
257.217	45.57
257.433	-40.45
257.65	39.42
257.866	-28.16
258.082	43.52
258.299	111.1
258.515	25.09
258.732	6.66
258.948	35.33
259.165	18.94
259.381	51.71
259.597	-7.68
259.814	104.96
260.03	35.33
260.246	31.23
260.463	10.75
260.679	84.48
260.895	90.62
261.112	80.38
261.328	39.42
261.544	115.2
261.761	43.52
261.977	-5.63
262.193	61.95
262.409	12.8
262.626	31.23
262.842	53.76
263.058	-22.02
263.274	12.8
263.49	82.43
263.707	2.56
263.923	43.52
264.139	-34.3
264.355	18.94
264.571	55.81
264.787	92.67
265.004	39.42
265.22	88.57
265.436	76.29
265.652	64
265.868	74.24
266.084	107.01
266.3	27.14
266.516	59.9
266.732	72.19
266.948	31.23
267.164	88.57
267.38	53.76
267.596	76.29
267.812	27.14
268.028	76.29
268.244	55.81
268.46	45.57
268.676	53.76
268.892	14.85
269.108	55.81
269.324	23.04
269.54	-9.73
269.756	86.53
269.972	-17.92
270.188	45.57
270.403	39.42
270.619	53.76
270.835	64
271.051	51.71
271.267	-5.63
271.483	70.14
271.698	41.47
271.914	70.14
272.13	66.05
272.346	45.57
272.562	51.71
272.777	37.38
272.993	10.75
273.209	66.05
273.425	66.05
273.64	20.99
273.856	27.14
274.072	35.33
274.287	31.23
274.503	-22.02
274.719	47.62
274.934	-17.92
275.15	-13.82
275.366	39.42
275.581	-5.63
275.797	2.56
276.012	41.47
276.228	39.42
276.444	27.14
276.659	-26.11
276.875	20.99
277.09	55.81
277.306	-48.64
277.521	-3.58
277.737	41.47
277.952	-9.73
278.168	80.38
278.383	-1.54
278.599	16.9
278.814	80.38
279.03	70.14
279.245	25.09
279.461	-22.02
279.676	20.99
279.892	-34.3
280.107	-1.54
280.322	45.57
280.538	45.57
280.753	-30.21
280.969	51.71
281.184	49.66
281.399	113.15
281.615	-32.26
281.83	-19.97
282.045	4.61
282.26	74.24
282.476	0.51
282.691	20.99
282.906	27.14
283.122	-32.26
283.337	-40.45
283.552	96.77
283.767	16.9
283.983	45.57
284.198	14.85
284.413	68.09
284.628	-38.4
284.843	20.99
285.058	37.38
285.274	23.04
285.489	-1.54
285.704	55.81
285.919	20.99
286.134	39.42
286.349	12.8
286.564	-1.54
286.779	29.18
286.995	0.51
287.21	14.85
287.425	23.04
287.64	-9.73
287.855	57.86
288.07	6.66
288.285	45.57
288.5	-13.82
288.715	68.09
288.93	51.71
289.145	18.94
289.36	8.7
289.575	43.52
289.79	82.43
290.004	14.85
290.219	23.04
290.434	51.71
290.649	14.85
290.864	68.09
291.079	53.76
291.294	25.09
291.509	-22.02
291.724	45.57
291.938	-3.58
292.153	45.57
292.368	80.38
292.583	47.62
292.798	88.57
293.012	12.8
293.227	27.14
293.442	59.9
293.657	31.23
293.871	82.43
294.086	12.8
294.301	59.9
294.516	12.8
294.73	-3.58
294.945	72.19
295.16	12.8
295.374	-44.54
295.589	59.9
295.804	18.94
296.018	-7.68
296.233	88.57
296.447	96.77
296.662	51.71
296.877	14.85
297.091	14.85
297.306	-3.58
297.52	0.51
297.735	51.71
297.949	37.38
298.164	12.8
298.378	43.52
298.593	-36.35
298.807	29.18
299.022	39.42
299.236	61.95
299.451	33.28
299.665	57.86
299.88	70.14
300.094	86.53
300.309	23.04
300.523	2.56
300.737	25.09
300.952	6.66
301.166	27.14
301.381	-5.63
301.595	18.94
301.809	-5.63
302.024	20.99
302.238	-34.3
302.452	68.09
302.667	14.85
302.881	96.77
303.095	72.19
303.309	-13.82
303.524	-38.4
303.738	98.81
303.952	14.85
304.166	31.23
304.381	-30.21
304.595	53.76
304.809	-22.02
305.023	53.76
305.237	35.33
305.452	-7.68
305.666	33.28
305.88	-1.54
306.094	84.48
306.308	64
306.522	57.86
306.736	29.18
306.95	29.18
307.164	51.71
307.379	33.28
307.593	72.19
307.807	72.19
308.021	92.67
308.235	31.23
308.449	39.42
308.663	31.23
308.877	51.71
309.091	41.47
309.305	20.99
309.519	12.8
309.733	-46.59
309.947	18.94
310.161	-9.73
310.374	-5.63
310.588	12.8
310.802	72.19
311.016	25.09
311.23	55.81
311.444	55.81
311.658	29.18
311.872	68.09
312.085	20.99
312.299	51.71
312.513	12.8
312.727	88.57
312.941	16.9
313.154	29.18
313.368	-19.97
313.582	14.85
313.796	-1.54
314.009	47.62
314.223	68.09
314.437	18.94
314.651	61.95
314.864	-40.45
315.078	59.9
315.292	23.04
315.505	37.38
315.719	94.72
315.933	39.42
316.146	-46.59
316.36	2.56
316.573	31.23
316.787	141.82
317.001	78.33
317.214	-26.11
317.428	43.52
317.641	70.14
317.855	12.8
318.068	23.04
318.282	82.43
318.495	16.9
318.709	51.71
318.922	37.38
319.136	31.23
319.349	2.56
319.563	23.04
319.776	117.25
319.99	49.66
320.203	55.81
320.417	53.76
320.63	88.57
320.843	49.66
321.057	43.52
321.27	8.7
321.483	111.1
321.697	76.29
321.91	6.66
322.124	141.82
322.337	55.81
322.55	45.57
322.763	27.14
322.977	72.19
323.19	-17.92
323.403	0.51
323.617	-26.11
323.83	27.14
324.043	43.52
324.256	2.56
324.469	10.75
324.683	84.48
324.896	141.82
325.109	31.23
325.322	-13.82
325.535	37.38
325.748	107.01
325.962	20.99
326.175	20.99
326.388	31.23
326.601	23.04
326.814	8.7
327.027	107.01
327.24	53.76
327.453	16.9
327.666	51.71
327.879	35.33
328.092	68.09
328.305	78.33
328.518	127.49
328.731	-32.26
328.944	102.91
329.157	20.99
329.37	4.61
329.583	14.85
329.796	125.44
330.009	-42.5
330.222	92.67
330.435	12.8
330.648	18.94
330.861	76.29
331.073	-9.73
331.286	43.52
331.499	37.38
331.712	41.47
331.925	31.23
332.138	35.33
332.35	-11.78
332.563	6.66
332.776	57.86
332.989	4.61
333.202	29.18
333.414	14.85
333.627	31.23
333.84	45.57
334.053	-24.06
334.265	39.42
334.478	107.01
334.691	57.86
334.903	64
335.116	27.14
335.329	55.81
335.541	25.09
335.754	78.33
335.966	-11.78
336.179	70.14
336.392	49.66
336.604	-26.11
336.817	72.19
337.029	-9.73
337.242	-19.97
337.454	20.99
337.667	64
337.88	100.86
338.092	35.33
338.305	59.9
338.517	-5.63
338.729	43.52
338.942	109.05
339.154	12.8
339.367	25.09
339.579	39.42
339.792	-36.35
340.004	25.09
340.217	80.38
340.429	104.96
340.641	-3.58
340.854	-3.58
341.066	43.52
341.278	29.18
341.491	59.9
341.703	20.99
341.915	23.04
342.128	12.8
342.34	-7.68
342.552	2.56
342.764	-26.11
342.977	4.61
343.189	74.24
343.401	88.57
343.613	61.95
343.826	64
344.038	86.53
344.25	-17.92
344.462	57.86
344.674	78.33
344.886	37.38
345.099	100.86
345.311	6.66
345.523	59.9
345.735	29.18
345.947	33.28
346.159	45.57
346.371	23.04
346.583	35.33
346.795	96.77
347.007	70.14
347.219	86.53
347.431	68.09
347.643	61.95
347.855	55.81
348.067	80.38
348.279	-38.4
348.491	150.01
348.703	12.8
348.915	113.15
349.127	-26.11
349.339	53.76
349.551	35.33
349.763	88.57
349.975	92.67
350.187	78.33
350.399	88.57
350.61	47.62
350.822	45.57
351.034	102.91
351.246	100.86
351.458	51.71
351.669	78.33
351.881	70.14
352.093	47.62
352.305	68.09
352.517	27.14
352.728	88.57
352.94	2.56
353.152	72.19
353.363	-19.97
353.575	86.53
353.787	-13.82
353.999	125.44
354.21	111.1
354.422	57.86
354.633	61.95
354.845	59.9
355.057	37.38
355.268	51.71
355.48	39.42
355.692	4.61
355.903	27.14
356.115	59.9
356.326	68.09
356.538	92.67
356.749	43.52
356.961	84.48
357.172	84.48
357.384	100.86
357.595	154.11
357.807	113.15
358.018	-1.54
358.23	64
358.441	90.62
358.653	121.34
358.864	51.71
359.075	18.94
359.287	43.52
359.498	33.28
359.709	104.96
359.921	88.57
360.132	41.47
360.344	49.66
360.555	6.66
360.766	61.95
360.977	39.42
361.189	29.18
361.4	35.33
361.611	107.01
361.823	61.95
362.034	39.42
362.245	92.67
362.456	61.95
362.667	14.85
362.879	39.42
363.09	-9.73
363.301	27.14
363.512	84.48
363.723	43.52
363.935	107.01
364.146	80.38
364.357	41.47
364.568	55.81
364.779	35.33
364.99	80.38
365.201	68.09
365.412	6.66
365.623	96.77
365.834	41.47
366.045	43.52
366.256	29.18
366.467	53.76
366.678	78.33
366.889	20.99
367.1	2.56
367.311	104.96
367.522	74.24
367.733	61.95
367.944	76.29
368.155	-40.45
368.366	-9.73
368.577	104.96
368.788	78.33
368.999	35.33
369.209	111.1
369.42	43.52
369.631	131.58
369.842	14.85
370.053	41.47
370.264	51.71
370.474	25.09
370.685	117.25
370.896	55.81
371.107	27.14
371.317	133.63
371.528	53.76
371.739	94.72
371.95	88.57
372.16	70.14
372.371	31.23
372.582	94.72
372.792	76.29
373.003	47.62
373.214	51.71
373.424	49.66
373.635	20.99
373.846	39.42
374.056	37.38
374.267	145.92
374.477	68.09
374.688	68.09
374.898	-17.92
375.109	113.15
375.319	35.33
375.53	90.62
375.74	2.56
375.951	-50.69
376.161	31.23
376.372	92.67
376.582	80.38
376.793	25.09
377.003	45.57
377.214	8.7
377.424	88.57
377.635	55.81
377.845	35.33
378.055	100.86
378.266	96.77
378.476	64
378.686	127.49
378.897	37.38
379.107	43.52
379.317	39.42
379.528	-34.3
379.738	61.95
379.948	6.66
380.158	127.49
380.369	25.09
380.579	41.47
380.789	84.48
380.999	57.86
381.21	115.2
381.42	94.72
381.63	64
381.84	23.04
382.05	49.66
382.261	47.62
382.471	23.04
382.681	61.95
382.891	55.81
383.101	20.99
383.311	16.9
383.521	25.09
383.731	121.34
383.941	55.81
384.151	8.7
384.361	-17.92
384.571	23.04
384.781	137.73
384.991	-11.78
385.201	100.86
385.411	64
385.621	37.38
385.831	82.43
386.041	74.24
386.251	47.62
386.461	16.9
386.671	88.57
386.881	74.24
387.091	104.96
387.301	31.23
387.511	74.24
387.72	96.77
387.93	80.38
388.14	27.14
388.35	53.76
388.56	117.25
388.769	94.72
388.979	51.71
389.189	72.19
389.399	37.38
389.609	55.81
389.818	27.14
390.028	35.33
390.238	90.62
390.447	47.62
390.657	59.9
390.867	57.86
391.076	49.66
391.286	43.52
391.496	94.72
391.705	88.57
391.915	139.77
392.125	84.48
392.334	137.73
392.544	88.57
392.753	139.77
392.963	121.34
393.172	41.47
393.382	82.43
393.591	64
393.801	86.53
394.01	109.05
394.22	61.95
394.429	78.33
394.639	68.09
394.848	27.14
395.058	80.38
395.267	72.19
395.477	82.43
395.686	14.85
395.895	115.2
396.105	113.15
396.314	86.53
396.524	18.94
396.733	41.47
396.942	160.25
397.152	55.81
397.361	107.01
397.57	102.91
397.78	172.54
397.989	109.05
398.198	195.07
398.407	82.43
398.617	164.35
398.826	94.72
399.035	117.25
399.244	143.87
399.453	123.39
399.663	100.86
399.872	84.48
400.081	92.67
400.29	205.31
400.499	78.33
400.708	182.78
400.917	166.4
401.127	170.49
401.336	113.15
401.545	129.53
401.754	109.05
401.963	115.2
402.172	166.4
402.381	80.38
402.59	129.53
402.799	96.77
403.008	135.68
403.217	176.64
403.426	145.92
403.635	150.01
403.844	147.97
404.053	137.73
404.262	121.34
404.471	119.29
404.68	104.96
404.888	100.86
405.097	164.35
405.306	162.3
405.515	154.11
405.724	223.74
405.933	203.26
406.142	119.29
406.35	221.69
406.559	113.15
406.768	285.18
406.977	201.21
407.185	172.54
407.394	135.68
407.603	145.92
407.812	276.99
408.02	240.12
408.229	268.8
408.438	223.74
408.646	274.94
408.855	217.6
409.064	301.56
409.272	326.14
409.481	354.81
409.69	190.97
409.898	334.33
410.107	330.23
410.315	309.76
410.524	342.52
410.733	350.71
410.941	348.67
411.15	365.05
411.358	436.73
411.567	375.29
411.775	420.35
411.984	432.63
412.192	387.58
412.401	481.78
412.609	557.56
412.818	549.37
413.026	588.28
413.234	535.03
413.443	614.9
413.651	549.37
413.86	621.05
414.068	606.71
414.276	633.33
414.485	655.86
414.693	655.86
414.901	737.78
415.11	707.06
415.318	670.2
415.526	756.21
415.734	786.93
415.943	821.75
416.151	899.57
416.359	893.43
416.567	928.24
416.776	1006.06
416.984	993.78
417.192	1042.93
417.4	938.48
417.608	971.25
417.817	1092.08
418.025	1118.7
418.233	1221.1
418.441	1200.62
418.649	1298.92
418.857	1288.68
419.065	1276.4
419.273	1374.7
419.481	1460.71
419.689	1442.28
419.897	1507.82
420.105	1647.08
420.313	1626.6
420.521	1683.94
420.729	1663.46
420.937	1659.37
421.145	1796.58
421.353	1927.65
421.561	2025.95
421.769	2046.43
421.977	2085.34
422.185	2173.41
422.393	2333.15
422.601	2478.55
422.809	2464.22
423.017	2423.26
423.224	2513.37
423.432	2595.29
423.64	2660.82
423.848	2810.33
424.056	2763.22
424.263	2976.21
424.471	2980.31
424.679	3058.13
424.887	3230.16
425.094	3297.74
425.302	3312.08
425.51	3461.58
425.718	3635.66
425.925	3525.07
426.133	3725.77
426.341	3953.09
426.548	4073.92
426.756	4094.4
426.964	4129.22
427.171	4475.32
427.379	4618.68
427.586	4710.84
427.794	4714.94
428.001	4985.27
428.209	5220.78
428.417	5112.24
428.624	5327.28
428.832	5431.73
429.039	5380.53
429.247	5484.97
429.454	6019.49
429.662	6226.34
429.869	5833.13
430.076	6269.34
430.284	6146.47
430.491	6470.05
430.699	6820.25
430.906	6717.85
431.114	6828.44
431.321	7182.74
431.528	7164.31
431.736	7666.06
431.943	8235.39
432.15	7821.7
432.358	7809.42
432.565	8384.9
432.772	8288.64
432.979	8747.39
433.187	9136.5
433.394	8989.05
433.601	9585.01
433.808	9789.8
434.016	9400.69
434.223	10109.29
434.43	10492.26
434.637	10234.21
434.844	10991.96
435.052	11270.48
435.259	11088.21
435.466	11368.79
435.673	11034.97
435.88	11764.04
436.087	12546.37
436.294	12497.22
436.501	12101.96
436.708	12566.85
436.915	12824.89
437.122	13357.36
437.329	13265.21
437.537	13769.01
437.743	13990.19
437.95	13822.25
438.157	14532.9
438.364	15112.47
438.571	15182.1
438.778	15347.99
438.985	16697.6
439.192	16036.11
439.399	16388.36
439.606	16048.4
439.813	16900.35
440.02	18088.17
440.227	17809.65
440.433	17289.46
440.64	18219.24
440.847	18137.32
441.054	18694.37
441.261	19454.17
441.467	19493.08
441.674	19742.93
441.881	20498.63
442.088	20637.89
442.294	20582.6
442.501	21205.18
442.708	21215.42
442.914	22050.99
443.121	22988.96
443.328	22784.16
443.534	24080.53
443.741	23449.75
443.948	22800.55
444.154	24840.32
444.361	24459.4
444.568	24766.6
444.774	24744.07
444.981	25196.67
445.187	25471.1
445.394	26517.61
445.6	26163.31
445.807	28913.73
446.013	27701.34
446.22	28203.09
446.426	29554.75
446.633	29642.81
446.839	30529.58
447.046	29409.34
447.252	31053.86
447.459	31115.3
447.665	30867.5
447.871	32301.08
448.078	33636.35
448.284	31909.91
448.491	32847.88
448.697	34336.76
448.903	34963.43
449.11	34830.32
449.316	34357.24
449.522	34838.51
449.728	35876.83
449.935	36405.2
450.141	35911.64
450.347	36655.06
450.553	35702.75
450.76	36102.11
450.966	37273.54
451.172	37074.89
451.378	37867.45
451.584	36861.9
451.791	37803.97
451.997	38002.62
452.203	38539.19
452.409	38543.28
452.615	38272.95
452.821	36837.33
453.027	36437.97
453.233	38533.04
453.44	37160.9
453.646	37445.57
453.852	37494.72
454.058	38346.68
454.264	37001.16
454.47	37963.71
454.676	36450.26
454.882	38148.03
455.088	34742.25
455.294	35473.38
455.5	35958.75
455.705	35987.42
455.911	34887.66
456.117	34152.44
456.323	33964.03
456.529	31631.39
456.735	33153.03
456.941	32325.65
457.147	31821.85
457.352	30681.13
457.558	30496.81
457.764	30900.26
457.97	30496.81
458.176	29446.21
458.381	29478.97
458.587	27813.98
458.793	27723.86
458.999	26237.04
459.204	28561.48
459.41	27490.4
459.616	25901.17
459.821	25718.9
460.027	25737.34
460.233	25157.76
460.438	24232.08
460.644	23931.03
460.85	23124.13
461.055	22622.37
461.261	22700.2
461.466	20986.05
461.672	20535.49
461.878	21807.28
462.083	20404.42
462.289	20302.03
462.494	20009.17
462.7	18899.17
462.905	18544.87
463.111	19060.96
463.316	19388.63
463.522	18852.06
463.727	18933.98
463.932	18684.13
464.138	18704.61
464.343	18530.53
464.549	17885.42
464.754	18757.86
464.959	18333.93
465.165	18403.56
465.37	17404.15
465.575	17072.38
465.781	17617.14
465.986	17897.71
466.191	17299.7
466.397	16984.32
466.602	16255.24
466.807	16609.54
467.012	16666.88
467.218	16654.59
467.423	16429.32
467.628	16630.02
467.833	17193.21
468.038	16525.57
468.244	16099.59
468.449	16603.39
468.654	16060.68
468.859	16249.1
469.064	16040.2
469.269	15343.89
469.474	15587.6
469.679	15866.13
469.885	15284.5
470.09	15214.87
470.295	15460.63
470.5	15094.04
470.705	14909.72
470.91	14971.16
471.115	14504.23
471.32	15032.6
471.525	14772.51
471.73	14485.79
471.935	14342.44
472.139	14184.74
472.344	14121.26
472.549	14070.06
472.754	13723.95
472.959	13527.35
473.164	13119.8
473.369	12980.54
473.574	13535.54
473.778	13160.76
473.983	13160.76
474.188	13443.38
474.393	12732.73
474.598	12740.93
474.802	12554.56
475.007	12429.63
475.212	12372.29
475.417	12007.75
475.621	11919.69
475.826	12044.62
476.031	11909.45
476.235	11692.37
476.44	11938.12
476.645	11323.73
476.849	11610.45
477.054	11512.14
477.259	11342.16
477.463	11309.4
477.668	10975.58
477.872	11235.67
478.077	10819.93
478.282	10789.21
478.486	10602.85
478.691	10602.85
478.895	10412.39
479.1	10297.7
479.304	10553.69
479.509	10266.98
479.713	10344.8
479.918	10094.95
480.122	9865.58
480.326	10201.44
480.531	10086.76
480.735	10033.51
480.94	9900.39
481.144	10203.49
481.348	9775.47
481.553	9902.44
481.757	9591.15
481.961	9738.6
482.166	9769.32
482.37	9814.38
482.574	9576.81
482.778	9734.51
482.983	9836.91
483.187	9716.08
483.391	9619.82
483.595	9623.92
483.8	9433.46
484.004	9722.22
484.208	9695.6
484.412	9826.67
484.616	9480.56
484.821	9967.98
485.025	9333.11
485.229	9841
485.433	9683.31
485.637	9738.6
485.841	9468.27
486.045	9490.8
486.249	9675.12
486.453	9445.74
486.657	9789.8
486.861	9709.93
487.065	9349.49
487.269	9501.04
487.473	9736.56
487.677	9656.68
487.881	9494.9
488.085	9433.46
488.289	9757.04
488.493	9468.27
488.697	9599.34
488.901	9847.15
489.105	9769.32
489.309	9849.19
489.512	9634.16
489.716	9609.58
489.92	9724.27
490.124	9689.45
490.328	9939.3
490.531	9711.98
490.735	10031.46
490.939	9943.4
491.143	9810.28
491.346	9867.63
491.55	9951.59
491.754	10115.43
491.958	9953.64
492.161	10201.44
492.365	10086.76
492.569	10088.81
492.772	10152.29
492.976	10123.62
493.18	10193.25
493.383	10522.98
493.587	10510.69
493.79	10488.16
493.994	10398.05
494.197	10621.28
494.401	10588.51
494.605	10754.4
494.808	10762.59
495.012	10809.69
495.215	10989.91
495.419	11317.59
495.622	11026.78
495.825	11141.46
496.029	11188.57
496.232	11229.52
496.436	11338.07
496.639	11503.95
496.843	11540.82
497.046	11673.93
497.249	11807.05
497.453	11907.4
497.656	11985.23
497.859	12011.85
498.063	12513.6
498.266	12400.96
498.469	12388.67
498.673	12554.56
498.876	12570.94
499.079	12996.92
499.282	12515.65
499.485	13209.91
499.689	13383.99
499.892	13400.37
500.095	13539.63
500.298	13545.78
500.501	13650.22
500.705	14002.47
500.908	14301.48
501.111	14194.98
501.314	14455.08
501.517	14420.26
501.72	14868.77
501.923	14727.46
502.126	14864.67
502.329	15030.55
502.532	15147.29
502.735	15388.95
502.938	15673.62
503.141	15593.75
503.344	16038.16
503.547	15974.67
503.75	16132.36
503.953	16539.91
504.156	16359.69
504.359	16582.91
504.562	16814.34
504.765	17066.24
504.968	17195.26
505.17	17711.35
505.373	17492.21
505.576	17752.31
505.779	17881.33
505.982	18067.69
506.185	18237.67
506.387	18489.57
506.59	18716.9
506.793	19063.01
506.996	18751.71
507.198	19531.99
507.401	19153.12
507.604	19427.54
507.807	19976.4
508.009	20013.26
508.212	20041.93
508.415	20232.4
508.617	21065.92
508.82	20572.36
509.022	20607.17
509.225	20965.57
509.428	21278.91
509.63	21745.84
509.833	21594.29
510.035	22091.95
510.238	21811.38
510.44	22147.25
510.643	22470.83
510.845	22737.06
511.048	22659.24
511.25	23359.64
511.453	23115.94
511.655	23963.79
511.858	23617.69
512.06	23795.86
512.262	23804.05
512.465	24092.82
512.667	24656.01
512.87	24600.71
513.072	24772.74
513.274	25483.39
513.477	25454.72
513.679	25694.33
513.881	26048.63
514.084	26062.96
514.286	25985.14
514.488	26359.92
514.69	26957.92
514.893	26968.16
515.095	26841.19
515.297	27510.88
515.499	27328.61
515.701	27877.46
515.904	28461.13
516.106	28231.76
516.308	28762.19
516.51	28829.77
516.712	28571.72
516.914	28940.36
517.116	29538.37
517.318	29724.73
517.52	30029.88
517.722	29886.52
517.925	30154.8
518.127	30494.77
518.329	30427.18
518.531	30629.93
518.733	31277.09
518.935	31705.12
519.136	31428.64
519.338	31879.19
519.54	32006.17
519.742	32645.13
519.944	32348.18
520.146	32942.09
520.348	32942.09
520.55	32542.74
520.752	33132.55
520.954	33792
521.155	33472.51
521.357	33923.07
521.559	34260.98
521.761	34324.47
521.963	34500.59
522.164	34537.46
522.366	34904.04
522.568	35180.52
522.77	35342.31
522.971	36048.86
523.173	35411.94
523.375	35799.01
523.576	35667.94
523.778	36261.85
523.98	36325.33
524.181	36503.51
524.383	36798.41
524.584	37271.5
524.786	37113.8
524.988	37064.65
525.189	37515.2
525.391	37789.63
525.592	37693.38
525.794	38068.16
525.995	37978.04
526.197	37910.46
526.398	38371.25
526.6	38135.74
526.801	38371.25
527.003	38725.55
527.204	38637.49
527.406	39071.66
527.607	38985.65
527.808	39172.01
528.01	38799.28
528.211	39313.32
528.412	39792.54
528.614	39165.87
528.815	39518.12
529.016	40093.6
529.218	39722.91
529.419	39823.26
529.62	39940
529.822	39972.77
530.023	39833.5
530.224	39851.94
530.425	39976.86
530.626	39870.37
530.828	39612.32
531.029	40578.96
531.23	40404.89
531.431	40345.5
531.632	40443.8
531.833	40660.88
532.035	40683.41
532.236	40648.6
532.437	40267.67
532.638	40447.89
532.839	40972.17
533.04	40763.28
533.241	40368.02
533.442	41152.4
533.643	40597.4
533.844	40595.35
534.045	40552.34
534.246	40093.6
534.447	41043.85
534.648	40761.23
534.849	40544.15
535.05	40648.6
535.251	40949.65
535.451	40310.68
535.652	40933.26
535.853	40865.68
536.054	41043.85
536.255	40935.31
536.456	40492.95
536.657	41187.21
536.857	40732.56
537.058	40845.2
537.259	40873.87
537.46	40601.49
537.66	40443.8
537.861	40826.77
538.062	40744.85
538.263	40445.85
538.463	40406.94
538.664	40963.98
538.865	40720.27
539.065	40906.64
539.266	40652.69
539.466	40966.03
539.667	40572.82
539.868	40894.35
540.068	40624.02
540.269	40830.86
540.469	40505.24
540.67	40550.29
540.87	40486.81
541.071	40730.51
541.271	40845.2
541.472	40468.37
541.672	40396.7
541.873	40355.74
542.073	39813.02
542.274	40857.49
542.474	40378.26
542.675	39802.78
542.875	41052.05
543.075	40675.22
543.276	39884.7
543.476	40609.68
543.676	40251.29
543.877	40587.16
544.077	40261.53
544.277	40359.83
544.478	40652.69
544.678	40392.6
544.878	40372.12
545.078	40738.71
545.279	40114.08
545.479	40118.17
545.679	40574.87
545.879	40566.68
546.079	40247.19
546.28	40269.72
546.48	40069.02
546.68	40218.52
546.88	40216.47
547.08	40083.36
547.28	40472.47
547.48	39913.37
547.68	40157.08
547.88	40265.63
548.081	40122.27
548.281	39989.15
548.481	40376.22
548.681	40284.06
548.881	40570.77
549.081	40177.56
549.28	39978.91
549.48	40218.52
549.68	39870.37
549.88	40421.27
550.08	39890.85
550.28	40136.6
550.48	40030.11
550.68	40126.36
550.88	39825.31
551.08	39755.68
551.279	40097.69
551.479	39751.59
551.679	39896.99
551.879	39536.55
552.079	39790.5
552.278	39792.54
552.478	39677.86
552.678	39952.29
552.878	39804.83
553.077	39698.34
553.277	39370.66
553.477	40181.66
553.676	39442.34
553.876	39989.15
554.076	39569.32
554.275	39602.08
554.475	39464.87
554.674	39798.69
554.874	39759.78
555.074	39399.33
555.273	39694.24
555.473	40163.23
555.672	39108.52
555.872	39083.95
556.071	39724.96
556.271	39436.2
556.47	39241.64
556.67	39274.41
556.869	39194.54
557.068	39577.51
557.268	39155.63
557.467	39475.11
557.667	39356.33
557.866	39176.11
558.065	39169.96
558.265	39004.08
558.464	38782.9
558.663	39172.01
558.863	38842.29
559.062	39303.08
559.261	38344.63
559.461	39182.25
559.66	38406.07
559.859	39163.82
560.058	38193.08
560.258	38528.95
560.457	38299.58
560.656	39096.24
560.855	38471.6
561.054	38631.35
561.253	37857.21
561.453	38250.42
561.652	38338.49
561.851	38408.12
562.05	38115.26
562.249	38049.72
562.448	38363.06
562.647	38139.83
562.846	38178.75
563.045	37953.47
563.244	37767.1
563.443	38268.86
563.642	37298.12
563.841	37969.85
564.04	37586.88
564.239	38117.31
564.438	37664.71
564.637	37367.75
564.836	37791.68
565.035	37302.21
565.234	37025.74
565.432	37275.59
565.631	37423.04
565.83	36966.35
566.029	37033.93
566.228	37201.86
566.427	36693.97
566.625	37392.33
566.824	36642.77
567.023	36898.76
567.222	36093.91
567.42	36638.67
567.619	36648.91
567.818	36442.07
568.016	36526.03
568.215	36640.72
568.414	36265.94
568.612	36818.89
568.811	36257.75
569.01	36407.25
569.208	36098.01
569.407	36497.36
569.605	35520.48
569.804	35964.89
570.002	35491.81
570.201	36126.68
570.4	35354.6
570.598	35616.74
570.797	35600.35
570.995	35831.77
571.193	35069.93
571.392	35631.07
571.59	34676.72
571.789	35461.09
571.987	34906.09
572.186	35217.38
572.384	35057.64
572.582	34951.15
572.781	35006.44
572.979	34781.17
573.177	34734.06
573.376	34801.64
573.574	34308.08
573.772	34826.22
573.971	34271.22
574.169	34197.49
574.367	33976.31
574.565	34435.06
574.763	34134.01
574.962	34246.65
575.16	34009.08
575.358	33779.71
575.556	34041.85
575.754	34140.15
575.952	33775.61
576.151	33863.68
576.349	33153.03
576.547	33546.24
576.745	33605.63
576.943	33660.93
577.141	33482.75
577.339	33329.16
577.537	33318.92
577.735	33277.96
577.933	32684.05
578.131	32796.68
578.329	32794.64
578.527	32546.83
578.725	32505.87
578.923	32722.96
579.121	32491.54
579.319	32497.68
579.516	32579.6
579.714	32624.65
579.912	32313.36
580.11	31942.68
580.308	32280.6
580.506	32100.37
580.704	31467.55
580.901	32026.65
581.099	31995.93
581.297	31658.01
581.495	31485.98
581.692	31846.43
581.89	31356.96
582.088	31436.83
582.285	31275.04
582.483	31289.38
582.681	31344.67
582.878	31227.94
583.076	30799.91
583.274	31223.84
583.471	30879.78
583.669	31084.58
583.866	30543.92
584.064	31121.45
584.262	30320.69
584.459	30933.03
584.657	30509.1
584.854	30431.28
585.052	30146.61
585.249	30324.79
585.447	30300.21
585.644	29861.94
585.841	30253.11
586.039	30265.39
586.236	29646.91
586.434	29470.78
586.631	29851.7
586.828	29712.44
587.026	29603.9
587.223	29360.19
587.42	29605.95
587.618	29509.69
587.815	29116.48
588.012	29292.61
588.21	29112.39
588.407	29435.97
588.604	28944.45
588.801	28899.4
588.999	28786.76
589.196	28883.02
589.393	28706.89
589.59	28753.99
589.787	28440.65
589.984	28409.93
590.182	28317.78
590.379	28350.54
590.576	27897.94
590.773	28250.19
590.97	28006.48
591.167	27705.43
591.364	27660.38
591.561	28233.81
591.758	27514.97
591.955	27588.7
592.152	27854.93
592.349	27252.83
592.546	27527.26
592.743	27517.02
592.94	27166.82
593.137	27353.18
593.334	27332.7
593.531	26949.73
593.727	26794.09
593.924	27187.3
594.121	26581.1
594.318	26884.2
594.515	26314.86
594.712	26912.87
594.908	26812.52
595.105	26673.26
595.302	26323.05
595.499	26286.19
595.696	26445.93
595.892	25964.66
596.089	26208.37
596.286	26445.93
596.482	25716.86
596.679	25714.81
596.876	25690.23
597.072	25868.41
597.269	25745.53
597.466	25481.34
597.662	25700.47
597.859	25524.35
598.055	25616.51
598.252	25229.44
598.448	25278.59
598.645	25299.07
598.841	24846.47
599.038	24889.48
599.234	25172.1
599.431	24774.79
599.627	25102.46
599.824	24879.24
600.02	24709.25
600.217	24488.07
600.413	24297.61
600.609	24234.13
600.806	24279.18
601.002	24357
601.198	24473.74
601.395	23898.26
601.591	23963.79
601.787	24033.43
601.984	23885.97
602.18	23978.13
602.376	23804.05
602.572	23888.02
602.769	23838.87
602.965	23443.61
603.161	23738.52
603.357	23335.07
603.553	22970.53
603.75	23462.04
603.946	23097.5
604.142	23128.22
604.338	22601.9
604.534	23017.63
604.73	23077.02
604.926	23025.82
605.122	23072.93
605.318	22538.41
605.514	22757.54
605.71	22706.34
605.906	22534.31
606.102	22298.8
606.298	22960.29
606.494	22489.26
606.69	22374.57
606.886	22321.32
607.082	22329.52
607.278	22300.84
607.474	21756.08
607.67	22272.17
607.866	22341.8
608.062	21944.5
608.257	21579.96
608.453	21940.4
608.649	21985.46
608.845	21844.15
609.041	21399.74
609.236	21840.05
609.432	21874.87
609.628	21749.94
609.824	21303.48
610.019	21590.2
610.215	21670.07
610.411	21467.32
610.606	21389.5
610.802	21481.66
610.998	21293.24
611.193	21371.07
611.389	21127.36
611.584	21125.31
611.78	21084.35
611.976	21080.25
612.171	21170.36
612.367	21168.32
612.562	20928.7
612.758	20740.29
612.953	20781.25
613.149	20953.28
613.344	20764.87
613.539	21305.53
613.735	20971.71
613.93	20945.09
614.126	20478.15
614.321	20873.41
614.517	20762.82
614.712	20584.65
614.907	20590.79
615.103	20633.8
615.298	20754.63
615.493	20670.66
615.688	20189.39
615.884	20711.62
616.079	20244.68
616.274	20500.68
616.47	20248.78
616.665	20158.67
616.86	20019.41
617.055	20310.22
617.25	20134.09
617.445	19945.68
617.641	19820.75
617.836	20033.74
618.031	19538.13
618.226	19914.96
618.421	19736.79
618.616	19775.7
618.811	19554.52
619.006	19925.2
619.201	19339.48
619.396	19648.72
619.591	19224.79
619.786	19443.93
619.981	19153.12
620.176	19155.16
620.371	18774.24
620.566	19106.01
620.761	19083.48
620.956	19017.95
621.151	18637.03
621.346	18839.78
621.541	18520.29
621.735	18538.73
621.93	18252.01
622.125	18428.13
622.32	18041.07
622.515	18290.92
622.709	18227.43
622.904	18051.31
623.099	18000.11
623.294	18112.75
623.488	17649.91
623.683	17594.61
623.878	17455.35
624.072	17484.02
624.267	17643.76
624.462	17436.92
624.656	17017.08
624.851	17088.76
625.046	17002.75
625.24	17082.62
625.435	16769.28
625.629	16789.76
625.824	16550.15
626.018	16728.32
626.213	16093.45
626.407	16554.24
626.602	16218.38
626.796	16283.91
626.991	16220.42
627.185	16226.57
627.38	15880.46
627.574	15786.26
627.768	16021.77
627.963	15661.33
628.157	15659.28
628.352	15696.14
628.546	15288.6
628.74	15722.77
628.935	15304.98
629.129	15261.98
629.323	15069.47
629.517	14666.02
629.712	14917.92
629.906	14811.42
630.1	14891.29
630.294	14739.74
630.489	14776.61
630.683	14657.82
630.877	14442.79
631.071	14324.01
631.265	14211.37
631.459	14176.55
631.653	14203.18
631.848	14061.87
632.042	14010.67
632.236	14012.71
632.43	13926.7
632.624	14129.45
632.818	13959.47
633.012	13648.18
633.206	13451.57
633.4	13756.72
633.594	13453.62
633.788	13293.88
633.982	13414.71
634.176	13443.38
634.369	13107.51
634.563	13060.41
634.757	12941.63
634.951	12884.28
635.145	13134.14
635.339	12802.36
635.533	12865.85
635.726	12773.69
635.92	12763.45
636.114	12648.77
636.308	12505.41
636.501	12474.69
636.695	12585.28
636.889	12398.91
637.083	12271.94
637.276	12140.87
637.47	12251.46
637.664	12300.61
637.857	12085.58
638.051	12249.41
638.244	11870.54
638.438	11979.08
638.632	11938.12
638.825	11952.46
639.019	11669.84
639.212	11663.69
639.406	11501.9
639.599	11493.71
639.793	11532.62
639.986	11258.2
640.18	11444.56
640.373	11286.87
640.567	11233.62
640.76	11268.44
640.954	10983.77
641.147	11104.6
641.34	10864.99
641.534	11034.97
641.727	10963.29
641.92	10803.55
642.114	10506.59
642.307	10662.24
642.5	10684.76
642.694	10565.98
642.887	10350.95
643.08	10688.86
643.273	10266.98
643.467	10273.12
643.66	10191.2
643.853	10426.72
644.046	10312.03
644.239	10201.44
644.432	10033.51
644.626	10013.03
644.819	10025.32
645.012	10031.46
645.205	10000.74
645.398	9869.67
645.591	9742.7
645.784	9945.45
645.977	9636.2
646.17	9664.88
646.363	9652.59
646.556	9335.15
646.749	9449.84
646.942	9582.96
647.135	9435.5
647.328	9410.93
647.521	9417.07
647.714	9167.22
647.907	9390.45
648.099	9212.28
648.292	9130.36
648.485	9163.12
648.678	8937.85
648.871	8958.33
649.064	8968.57
649.256	9091.45
649.449	8653.18
649.642	8903.03
649.835	8780.15
650.027	8612.22
650.22	8741.24
650.413	8499.58
650.605	8634.75
650.798	8663.42
650.991	8550.78
651.183	8378.75
651.376	8331.65
651.568	8409.47
651.761	8348.03
651.954	8262.02
652.146	8016.26
652.339	8184.2
652.531	8026.5
652.724	8065.41
652.916	7922.06
653.109	7881.1
653.301	8012.17
653.494	7954.82
653.686	7805.32
653.879	7874.95
654.071	7874.95
654.263	7821.7
654.456	7688.59
654.648	7915.91
654.84	7526.8
655.033	7670.15
655.225	7496.08
655.417	7543.18
655.61	7520.65
655.802	7635.34
655.994	7424.4
656.186	7346.58
656.379	7326.1
656.571	7207.31
656.763	7356.82
656.955	7240.08
657.148	7043.48
657.34	7238.03
657.532	7051.67
657.724	6883.73
657.916	7131.54
658.108	6836.63
658.3	6928.79
658.492	6885.78
658.684	6779.29
658.876	6879.64
659.068	6883.73
659.26	6773.14
659.452	6814.1
659.644	6789.53
659.836	6676.89
660.028	6590.88
660.22	6640.03
660.412	6629.79
660.604	6564.25
660.796	6361.5
660.988	6490.52
661.18	6492.57
661.372	6345.12
661.563	6508.96
661.755	6293.92
661.947	6416.8
662.139	6345.12
662.331	6341.02
662.522	6085.03
662.714	6164.9
662.906	6054.31
663.097	6091.17
663.289	6048.16
663.481	6189.47
663.673	6019.49
663.864	5814.7
664.056	5945.77
664.247	5968.29
664.439	5968.29
664.631	5812.65
664.822	5751.21
665.014	5953.96
665.205	5788.07
665.397	5683.63
665.588	5650.86
665.78	5683.63
665.971	5726.63
666.163	5530.03
666.354	5630.38
666.546	5542.32
666.737	5497.26
666.929	5570.99
667.12	5499.31
667.311	5573.03
667.503	5452.2
667.694	5433.77
667.885	5358
668.077	5384.62
668.268	5255.6
668.459	5302.7
668.651	5302.7
668.842	5255.6
669.033	5343.66
669.224	5325.23
669.416	5294.51
669.607	5192.11
669.798	5009.84
669.989	5171.63
670.18	5233.07
670.371	5179.82
670.563	5079.47
670.754	5138.87
670.945	4962.74
671.136	4966.84
671.327	5032.37
671.518	4938.16
671.709	5022.13
671.9	5112.24
672.091	4944.31
672.282	4876.73
672.473	4915.64
672.664	4710.84
672.855	4819.38
673.046	4667.83
673.237	4862.39
673.428	4843.96
673.619	4782.52
673.809	4700.6
674	4821.43
674.191	4610.49
674.382	4614.59
674.573	4710.84
674.764	4669.88
674.954	4653.5
675.145	4555.19
675.336	4585.91
675.527	4585.91
675.717	4561.34
675.908	4620.73
676.099	4471.23
676.289	4626.87
676.48	4458.94
676.671	4422.08
676.861	4409.79
677.052	4340.16
677.243	4327.87
677.433	4309.44
677.624	4530.62
677.814	4387.26
678.005	4417.98
678.195	4231.62
678.386	4428.22
678.576	4309.44
678.767	4272.57
678.957	4311.49
679.148	4340.16
679.338	4317.63
679.529	4266.43
679.719	4268.48
679.909	4321.73
680.1	4286.91
680.29	4166.08
680.481	4307.39
680.671	4204.99
680.861	4100.55
681.052	4184.51
681.242	4243.9
681.432	4194.75
681.622	3967.43
681.813	4176.32
682.003	4153.79
682.193	3922.37
682.383	4104.64
682.573	4135.36
682.764	3983.81
682.954	3981.76
683.144	4057.54
683.334	4125.12
683.524	4176.32
683.714	4090.31
683.904	3903.94
684.094	3975.62
684.284	3875.27
684.474	3865.03
684.664	3975.62
684.854	3971.52
685.044	3899.84
685.234	3783.11
685.424	3901.89
685.614	3815.88
685.804	3738.05
685.994	3897.8
686.184	3914.18
686.374	3854.79
686.564	3787.21
686.753	3783.11
686.943	3658.18
687.133	3803.59
687.323	3711.43
687.513	3549.64
687.702	3613.13
687.892	3611.08
688.082	3570.12
688.272	3631.56
688.461	3559.88
688.651	3602.89
688.841	3475.91
689.03	3559.88
689.22	3531.21
689.41	3510.73
689.599	3643.85
689.789	3459.53
689.979	3305.93
690.168	3365.32
690.358	3320.27
690.547	3363.28
690.737	3330.51
690.926	3437
691.116	3289.55
691.305	3414.48
691.495	3246.54
691.684	3217.87
691.874	3238.35
692.063	3303.89
692.252	3238.35
692.442	3232.21
692.631	3109.33
692.82	3103.18
693.01	3107.28
693.199	3154.38
693.388	3152.34
693.578	3056.08
693.767	3176.91
693.956	3129.81
694.146	3209.68
694.335	3041.75
694.524	2873.81
694.713	3068.37
694.902	3017.17
695.092	3115.47
695.281	2943.44
695.47	2968.02
695.659	2888.15
695.848	2920.92
696.037	2986.45
696.226	2916.82
696.415	2890.2
696.604	2980.31
696.793	2894.29
696.982	2773.46
697.171	2865.62
697.36	2916.82
697.549	2693.59
697.738	2822.61
697.927	2693.59
698.116	2773.46
698.305	2836.95
698.494	2709.97
698.683	2683.35
698.872	2865.62
699.061	2746.84
699.25	2714.07
699.438	2673.11
699.627	2656.73
699.816	2681.3
700.005	2834.9
700.193	2656.73
700.382	2781.65
700.571	2650.58
700.76	2615.77
700.948	2785.75
701.137	2669.02
701.326	2605.53
701.514	2705.88
701.703	2736.6
701.892	2669.02
702.08	2742.74
702.269	2654.68
702.457	2683.35
702.646	2613.72
702.834	2603.48
703.023	2619.86
703.212	2617.82
703.4	2628.06
703.589	2587.1
703.777	2589.14
703.965	2484.7
704.154	2611.67
704.342	2593.24
704.531	2615.77
704.719	2585.05
704.907	2492.89
705.096	2636.25
705.284	2664.92
705.472	2613.72
705.661	2583
705.849	2503.13
706.037	2636.25
706.226	2576.86
706.414	2535.9
706.602	2652.63
706.79	2562.52
706.979	2472.41
707.167	2550.23
707.355	2529.75
707.543	2519.51
707.731	2554.33
707.919	2488.79
708.107	2503.13
708.296	2533.85
708.484	2517.47
708.672	2548.19
708.86	2421.21
709.048	2529.75
709.236	2470.36
709.424	2709.97
709.612	2484.7
709.8	2560.47
709.988	2539.99
710.176	2605.53
710.364	2640.34
710.551	2466.27
710.739	2492.89
710.927	2537.95
711.115	2558.42
711.303	2503.13
711.491	2562.52
711.679	2546.14
711.866	2513.37
712.054	2529.75
712.242	2511.32
712.43	2587.1
712.617	2523.61
712.805	2464.22
712.993	2427.35
713.181	2474.46
713.368	2460.12
713.556	2595.29
713.744	2435.55
713.931	2587.1
714.119	2470.36
714.306	2527.71
714.494	2513.37
714.682	2613.72
714.869	2521.56
715.057	2556.38
715.244	2466.27
715.432	2439.64
715.619	2546.14
715.807	2501.08
715.994	2507.23
716.182	2476.51
716.369	2441.69
716.556	2542.04
716.744	2576.86
716.931	2453.98
717.119	2415.07
717.306	2505.18
717.493	2433.5
717.681	2421.21
717.868	2451.93
718.055	2636.25
718.242	2462.17
718.43	2542.04
718.617	2472.41
718.804	2443.74
718.991	2585.05
719.179	2539.99
719.366	2492.89
719.553	2435.55
719.74	2525.66
719.927	2449.88
720.114	2449.88
720.301	2288.09
720.488	2523.61
720.676	2595.29
720.863	2521.56
721.05	2554.33
721.237	2392.54
721.424	2472.41
721.611	2431.45
721.798	2410.97
721.985	2546.14
722.172	2578.9
722.358	2468.31
722.545	2519.51
722.732	2394.59
722.919	2568.66
723.106	2425.31
723.293	2341.34
723.48	2566.62
723.667	2413.02
723.853	2357.72
724.04	2390.49
724.227	2423.26
724.414	2468.31
724.6	2417.12
724.787	2511.32
724.974	2388.44
725.161	2558.42
725.347	2410.97
725.534	2421.21
725.72	2476.51
725.907	2535.9
726.094	2451.93
726.28	2441.69
726.467	2370.01
726.653	2386.4
726.84	2476.51
727.027	2527.71
727.213	2486.75
727.4	2394.59
727.586	2351.58
727.773	2456.03
727.959	2470.36
728.145	2503.13
728.332	2468.31
728.518	2496.99
728.705	2453.98
728.891	2554.33
729.077	2443.74
729.264	2515.42
729.45	2501.08
729.636	2367.96
729.823	2402.78
730.009	2390.49
730.195	2478.55
730.382	2347.48
730.568	2456.03
730.754	2439.64
730.94	2458.07
731.126	2476.51
731.313	2494.94
731.499	2408.92
731.685	2406.88
731.871	2406.88
732.057	2552.28
732.243	2337.24
732.429	2390.49
732.615	2370.01
732.801	2388.44
732.987	2490.84
733.173	2382.3
733.359	2374.11
733.545	2329.05
733.731	2402.78
733.917	2388.44
734.103	2517.47
734.289	2419.16
734.475	2421.21
734.661	2351.58
734.847	2386.4
735.033	2370.01
735.219	2353.63
735.404	2265.57
735.59	2480.6
735.776	2329.05
735.962	2380.25
736.148	2355.68
736.333	2298.33
736.519	2400.73
736.705	2200.03
736.89	2378.2
737.076	2292.19
737.262	2365.92
737.447	2202.08
737.633	2394.59
737.819	2404.83
738.004	2208.22
738.19	2290.14
738.375	2202.08
738.561	2322.91
738.747	2214.37
738.932	2179.55
739.118	2316.76
739.303	2288.09
739.489	2335.2
739.674	2271.71
739.859	2304.48
740.045	2175.45
740.23	2226.65
740.416	2257.37
740.601	2341.34
740.786	2214.37
740.972	2226.65
741.157	2224.61
741.342	2173.41
741.528	2152.93
741.713	2195.93
741.898	2116.06
742.084	2310.62
742.269	2132.45
742.454	2154.98
742.639	2044.38
742.824	2077.15
743.01	2103.78
743.195	2103.78
743.38	2124.26
743.565	2154.98
743.75	2066.91
743.935	2015.71
744.12	2157.02
744.305	2017.76
744.49	2032.1
744.675	2001.38
744.86	1989.09
745.045	2116.06
745.23	2003.43
745.415	2062.82
745.6	1952.23
745.785	2044.38
745.97	1978.85
746.155	1970.66
746.34	1886.69
746.525	2017.76
746.71	2085.34
746.895	1935.84
747.079	1774.05
747.264	1819.11
747.449	1843.68
747.634	1853.92
747.819	1874.4
748.003	1931.75
748.188	1778.15
748.373	1888.74
748.557	1806.82
748.742	1741.29
748.927	1774.05
749.111	1792.48
749.296	1823.2
749.481	1767.91
749.665	1710.57
749.85	1767.91
750.034	1683.94
750.219	1679.85
750.404	1659.37
750.588	1733.09
750.773	1642.98
750.957	1708.52
751.141	1683.94
751.326	1569.26
751.51	1726.95
751.695	1626.6
751.879	1581.54
752.064	1593.83
752.248	1573.35
752.432	1591.78
752.617	1628.65
752.801	1614.31
752.985	1569.26
753.17	1649.13
753.354	1540.58
753.538	1522.15
753.722	1552.87
753.907	1516.01
754.091	1393.13
754.275	1634.79
754.459	1403.37
754.643	1462.76
754.828	1538.54
755.012	1434.09
755.196	1460.71
755.38	1423.85
755.564	1380.84
755.748	1456.62
755.932	1405.42
756.116	1495.53
756.3	1382.89
756.484	1323.5
756.668	1384.94
756.852	1436.14
757.036	1282.54
757.22	1403.37
757.404	1247.72
757.588	1290.73
757.772	1329.64
757.956	1272.3
758.14	1311.21
758.323	1237.49
758.507	1239.53
758.691	1227.25
758.875	1313.26
759.059	1260.01
759.242	1085.94
759.426	1217.01
759.61	1192.43
759.794	1171.95
759.977	1229.29
760.161	1268.2
760.345	1165.81
760.528	1145.33
760.712	1171.95
760.895	1169.9
761.079	1182.19
761.263	1106.42
761.446	1083.89
761.63	1128.94
761.813	1186.29
761.997	1085.94
762.18	1149.42
762.364	1169.9
762.547	1122.8
762.731	1077.74
762.914	1137.13
763.098	1092.08
763.281	1065.46
763.464	1157.61
763.648	985.58
763.831	1104.37
764.015	1098.22
764.198	1006.06
764.381	1085.94
764.564	973.3
764.748	1092.08
764.931	1024.5
765.114	1135.09
765.297	1069.55
765.481	989.68
765.664	1042.93
765.847	965.11
766.03	1024.5
766.213	977.39
766.397	1030.64
766.58	1006.06
766.763	928.24
766.946	981.49
767.129	1034.74
767.312	1044.98
767.495	1065.46
767.678	965.11
767.861	1044.98
768.044	1008.11
768.227	1022.45
768.41	928.24
768.593	844.28
768.776	956.91
768.959	913.91
769.142	1001.97
769.324	954.87
769.507	979.44
769.69	922.1
769.873	993.78
770.056	952.82
770.239	967.15
770.421	961.01
770.604	963.06
770.787	848.37
770.97	936.43
771.152	889.33
771.335	848.37
771.518	889.33
771.7	963.06
771.883	952.82
772.066	825.84
772.248	877.04
772.431	874.99
772.613	891.38
772.796	924.15
772.978	862.71
773.161	881.14
773.343	791.03
773.526	852.47
773.708	788.98
773.891	786.93
774.073	813.56
774.256	866.8
774.438	932.34
774.621	831.99
774.803	829.94
774.985	768.5
775.168	772.6
775.35	793.08
775.532	846.32
775.715	766.45
775.897	727.54
776.079	739.83
776.261	825.84
776.444	774.64
776.626	831.99
776.808	823.8
776.99	655.86
777.173	774.64
777.355	680.44
777.537	719.35
777.719	729.59
777.901	684.53
778.083	649.72
778.265	715.25
778.447	715.25
778.629	653.81
778.811	633.33
778.993	723.44
779.175	688.63
779.357	610.81
779.539	641.53
779.721	702.97
779.903	707.06
780.085	680.44
780.267	643.57
780.449	698.87
780.631	696.82
780.812	604.66
780.994	602.61
781.176	653.81
781.358	580.09
781.54	551.42
781.721	604.66
781.903	565.75
782.085	563.7
782.267	627.19
782.448	502.26
782.63	596.47
782.812	510.46
782.993	512.5
783.175	545.27
783.357	580.09
783.538	578.04
783.72	516.6
783.901	561.66
784.083	535.03
784.264	496.12
784.446	479.74
784.627	514.55
784.809	528.89
784.99	565.75
785.172	596.47
785.353	551.42
785.535	508.41
785.716	457.21
785.897	438.78
786.079	496.12
786.26	467.45
786.441	514.55
786.623	389.63
786.804	375.29
786.985	403.96
787.167	455.16
787.348	422.39
787.529	432.63
787.71	418.3
787.891	440.83
788.073	432.63
788.254	389.63
788.435	436.73
788.616	438.78
788.797	432.63
788.978	410.11
789.159	451.07
789.34	358.91
789.522	453.11
789.703	326.14
789.884	422.39
790.065	446.97
790.246	475.64
790.427	418.3
790.607	449.02
790.788	389.63
790.969	438.78
791.15	412.15
791.331	373.24
791.512	317.95
791.693	428.54
791.874	391.67
792.054	408.06
792.235	397.82
792.416	397.82
792.597	342.52
792.778	348.67
792.958	291.32
793.139	391.67
793.32	328.19
793.5	297.47
793.681	342.52
793.862	381.43
794.042	377.34
794.223	313.85
794.404	315.9
794.584	326.14
794.765	309.76
794.945	276.99
795.126	371.19
795.306	285.18
795.487	320
795.667	317.95
795.848	301.56
796.028	299.52
796.209	307.71
796.389	430.59
796.57	268.8
796.75	307.71
796.93	299.52
797.111	283.13
797.291	291.32
797.471	199.16
797.652	289.28
797.832	256.51
798.012	297.47
798.192	268.8
798.373	346.62
798.553	363
798.733	311.8
798.913	332.28
799.093	326.14
799.274	184.83
799.454	344.57
799.634	254.46
799.814	328.19
799.994	311.8
800.174	272.89
800.354	246.27
800.534	281.08
800.714	258.56
800.894	215.55
801.074	256.51
801.254	262.65
801.434	199.16
801.614	233.98
801.794	250.36
801.974	602.61
802.154	260.6
802.334	334.33
802.514	260.6
802.693	311.8
802.873	211.45
803.053	254.46
803.233	352.76
803.413	217.6
803.592	248.32
803.772	274.94
803.952	317.95
804.131	248.32
804.311	211.45
804.491	285.18
804.67	272.89
804.85	238.08
805.03	233.98
805.209	305.66
805.389	201.21
805.568	248.32
805.748	256.51
805.928	164.35
806.107	186.88
806.287	217.6
806.466	229.88
806.646	268.8
806.825	217.6
807.004	170.49
807.184	178.69
807.363	205.31
807.543	186.88
807.722	205.31
807.901	174.59
808.081	164.35
808.26	170.49
808.439	195.07
808.619	182.78
808.798	231.93
808.977	199.16
809.156	225.79
809.336	268.8
809.515	156.16
809.694	188.93
809.873	197.12
810.052	231.93
810.231	190.97
810.411	193.02
810.59	150.01
810.769	193.02
810.948	166.4
811.127	115.2
811.306	145.92
811.485	168.45
811.664	256.51
811.843	160.25
812.022	168.45
812.201	137.73
812.38	170.49
812.559	178.69
812.737	174.59
812.916	160.25
813.095	156.16
813.274	147.97
813.453	74.24
813.632	199.16
813.811	203.26
813.989	184.83
814.168	176.64
814.347	123.39
814.526	195.07
814.704	150.01
814.883	166.4
815.062	141.82
815.24	182.78
815.419	119.29
815.598	215.55
815.776	74.24
815.955	121.34
816.133	113.15
816.312	139.77
816.49	195.07
816.669	188.93
816.847	184.83
817.026	227.84
817.204	231.93
817.383	209.4
817.561	49.66
817.74	113.15
817.918	135.68
818.097	135.68
818.275	80.38
818.453	115.2
818.632	156.16
818.81	102.91
818.988	131.58
819.167	133.63
819.345	133.63
819.523	104.96
819.701	139.77
819.879	207.36
820.058	104.96
820.236	145.92
820.414	152.06
820.592	135.68
820.77	96.77
820.948	145.92
821.127	141.82
821.305	47.62
821.483	68.09
821.661	113.15
821.839	147.97
822.017	70.14
822.195	127.49
822.373	129.53
822.551	104.96
822.729	131.58
822.907	70.14
823.085	184.83
823.262	109.05
823.44	88.57
823.618	174.59
823.796	154.11
823.974	102.91
824.152	168.45
824.329	123.39
824.507	209.4
824.685	119.29
824.863	129.53
825.04	127.49
825.218	70.14
825.396	184.83
825.574	104.96
825.751	133.63
825.929	145.92
826.107	88.57
826.284	119.29
826.462	176.64
826.639	47.62
826.817	182.78
826.994	201.21
827.172	57.86
827.349	135.68
827.527	55.81
827.704	90.62
827.882	135.68
828.059	111.1
828.237	109.05
828.414	64
828.591	64
828.769	123.39
828.946	43.52
829.124	104.96
829.301	121.34
829.478	111.1
829.655	88.57
829.833	135.68
830.01	31.23
830.187	137.73
830.364	121.34
830.542	152.06
830.719	133.63
830.896	109.05
831.073	16.9
831.25	47.62
831.427	98.81
831.604	31.23
831.782	41.47
831.959	92.67
832.136	23.04
832.313	61.95
832.49	33.28
832.667	141.82
832.844	86.53
833.021	61.95
833.198	80.38
833.374	131.58
833.551	76.29
833.728	102.91
833.905	47.62
834.082	78.33
834.259	20.99
834.436	131.58
834.612	57.86
834.789	133.63
834.966	-19.97
835.143	53.76
835.319	23.04
835.496	64
835.673	74.24
835.85	78.33
836.026	94.72
836.203	61.95
836.38	121.34
836.556	29.18
836.733	55.81
836.909	100.86
837.086	154.11
837.262	129.53
837.439	104.96
837.616	80.38
837.792	96.77
837.968	45.57
838.145	88.57
838.321	88.57
838.498	47.62
838.674	115.2
838.851	123.39
839.027	47.62
839.203	49.66
839.38	27.14
839.556	72.19
839.732	111.1
839.909	45.57
840.085	147.97
840.261	80.38
840.437	68.09
840.614	47.62
840.79	-11.78
840.966	92.67
841.142	14.85
841.318	-22.02
841.494	88.57
841.671	68.09
841.847	59.9
842.023	10.75
842.199	92.67
842.375	61.95
842.551	37.38
842.727	53.76
842.903	133.63
843.079	43.52
843.255	64
843.431	61.95
843.607	117.25
843.783	-15.87
843.959	92.67
844.134	78.33
844.31	141.82
844.486	51.71
844.662	27.14
844.838	64
845.013	49.66
845.189	125.44
845.365	45.57
845.541	41.47
845.716	47.62
845.892	96.77
846.068	57.86
846.244	59.9
846.419	37.38
846.595	25.09
846.77	47.62
846.946	92.67
847.122	-5.63
847.297	135.68
847.473	31.23
847.648	90.62
847.824	76.29
847.999	29.18
848.175	72.19
848.35	35.33
848.526	72.19
848.701	-15.87
848.876	98.81
849.052	18.94
849.227	-40.45
849.403	20.99
849.578	72.19
849.753	109.05
849.929	-5.63
850.104	57.86
850.279	20.99
850.454	37.38
850.63	59.9
850.805	37.38
850.98	113.15
851.155	61.95
851.33	-11.78
851.505	117.25
851.681	68.09
851.856	18.94
852.031	86.53
852.206	59.9
852.381	100.86
852.556	53.76
852.731	35.33
852.906	51.71
853.081	82.43
853.256	23.04
853.431	25.09
853.606	-9.73
853.781	-34.3
853.956	39.42
854.131	100.86
854.305	0.51
854.48	43.52
854.655	43.52
854.83	86.53
855.005	12.8
855.18	25.09
855.354	-5.63
855.529	10.75
855.704	31.23
855.879	18.94
856.053	-9.73
856.228	57.86
856.403	84.48
856.577	76.29
856.752	23.04
856.926	53.76
857.101	43.52
857.276	-5.63
857.45	76.29
857.625	72.19
857.799	-15.87
857.974	33.28
858.148	23.04
858.323	14.85
858.497	39.42
858.672	70.14
858.846	-26.11
859.02	27.14
859.195	78.33
859.369	47.62
859.543	53.76
859.718	-24.06
859.892	6.66
860.066	53.76
860.241	47.62
860.415	18.94
860.589	-1.54
860.763	55.81
860.938	27.14
861.112	39.42
861.286	72.19
861.46	4.61
861.634	-54.78
861.808	45.57
861.982	78.33
862.157	37.38
862.331	41.47
862.505	-9.73
862.679	-22.02
862.853	8.7
863.027	27.14
863.201	41.47
863.375	8.7
863.549	70.14
863.722	-52.74
863.896	-42.5
864.07	41.47
864.244	4.61
864.418	74.24
864.592	74.24
864.766	10.75
864.939	98.81
865.113	41.47
865.287	96.77
865.461	-1.54
865.634	74.24
865.808	-15.87
865.982	-22.02
866.156	16.9
866.329	16.9
866.503	80.38
866.676	59.9
866.85	14.85
867.024	82.43
867.197	59.9
867.371	31.23
867.544	47.62
867.718	23.04
867.891	27.14
868.065	43.52
868.238	-1.54
868.412	78.33
868.585	35.33
868.759	-5.63
868.932	55.81
869.105	23.04
869.279	64
869.452	-7.68
869.625	10.75
869.799	12.8
869.972	72.19
870.145	100.86
870.319	47.62
870.492	68.09
870.665	33.28
870.838	-58.88
871.011	-60.93
871.185	51.71
871.358	-5.63
871.531	35.33
871.704	51.71
871.877	25.09
872.05	47.62
872.223	-19.97
872.396	59.9
872.569	-28.16
872.742	-54.78
872.915	2.56
873.088	43.52
873.261	6.66
873.434	84.48
873.607	-13.82
873.78	18.94
873.953	84.48
874.126	-9.73
874.299	14.85
874.471	39.42
874.644	23.04
874.817	37.38
874.99	78.33
875.163	-1.54
875.335	82.43
875.508	27.14
875.681	107.01
875.853	-34.3
876.026	8.7
876.199	-38.4
876.371	45.57
876.544	59.9
876.717	31.23
876.889	-3.58
877.062	23.04
877.234	18.94
877.407	-19.97
877.579	74.24
877.752	98.81
877.924	49.66
878.097	59.9
878.269	18.94
878.442	41.47
878.614	47.62
878.786	31.23
878.959	-9.73
879.131	2.56
879.303	-42.5
879.476	-46.59
879.648	-17.92
879.82	64
879.993	-9.73
880.165	-30.21
880.337	2.56
880.509	-3.58
880.681	-34.3
880.854	-9.73
881.026	61.95
881.198	43.52
881.37	12.8
881.542	45.57
881.714	39.42
881.886	2.56
882.058	-9.73
882.23	16.9
882.402	-40.45
882.574	29.18
882.746	31.23
882.918	39.42
883.09	14.85
883.262	-7.68
883.434	84.48
883.606	-32.26
883.778	55.81
883.95	-22.02
884.122	68.09
884.293	8.7
884.465	-15.87
884.637	37.38
884.809	-30.21
884.98	72.19
885.152	-15.87
885.324	33.28
885.496	23.04
885.667	-1.54
885.839	55.81
886.011	68.09
886.182	-22.02
886.354	64
886.525	25.09
886.697	20.99
886.869	-11.78
887.04	23.04
887.212	49.66
887.383	-7.68
887.555	23.04
887.726	70.14
887.897	47.62
888.069	-5.63
888.24	45.57
888.412	61.95
888.583	2.56
888.754	66.05
888.926	-11.78
889.097	-40.45
889.268	16.9
889.44	53.76
889.611	-46.59
889.782	59.9
889.953	2.56
890.125	-22.02
890.296	-40.45
890.467	23.04
890.638	0.51
890.809	-34.3
890.98	-62.98
891.151	20.99
891.323	-11.78
891.494	-30.21
891.665	39.42
891.836	-30.21
892.007	53.76
892.178	78.33
892.349	-3.58
892.52	-42.5
892.691	-28.16
892.862	41.47
893.032	-83.45
893.203	8.7
893.374	16.9
893.545	-22.02
893.716	-3.58
893.887	-22.02
894.057	66.05
894.228	47.62
894.399	-1.54
894.57	-26.11
894.74	59.9
894.911	80.38
895.082	14.85
895.253	-15.87
895.423	-42.5
895.594	27.14
895.764	39.42
895.935	61.95
896.106	45.57
896.276	-46.59
896.447	-17.92
896.617	10.75
896.788	51.71
896.958	33.28
897.129	-1.54
897.299	-26.11
897.47	29.18
897.64	55.81
897.81	49.66
897.981	-3.58
898.151	6.66
898.322	8.7
898.492	10.75
898.662	41.47
898.832	-11.78
899.003	23.04
899.173	14.85
899.343	-36.35
899.513	14.85
