Data from USB4F104151__71__11-37-34-319.txt Node

Date: Fri Mar 14 11:37:34 EDT 2025
User: louis
Spectrometer: USB4F10415
Trigger mode: 4
Integration Time (sec): 2.000000E-2
Scans to average: 1
Electric dark correction enabled: true
Nonlinearity correction enabled: false
Boxcar width: 0
XAxis mode: Wavelengths
Number of Pixels in Spectrum: 3648
>>>>>Begin Spectral Data<<<<<
178.204	-131.58
178.424	-131.58
178.644	-131.58
178.864	-82.43
179.084	-92.67
179.304	-68.09
179.524	11.78
179.744	44.54
179.964	9.73
180.184	-18.94
180.404	-27.14
180.624	5.63
180.844	34.3
181.064	46.59
181.283	-72.19
181.503	-27.14
181.723	60.93
181.943	-23.04
182.163	-8.7
182.383	-8.7
182.602	13.82
182.822	42.5
183.042	13.82
183.262	-0.51
183.482	9.73
183.701	-66.05
183.921	-25.09
184.141	34.3
184.361	-35.33
184.58	13.82
184.8	-88.57
185.02	-45.57
185.239	-6.66
185.459	38.4
185.679	-6.66
185.898	-12.8
186.118	52.74
186.338	34.3
186.557	19.97
186.777	-29.18
186.997	22.02
187.216	-53.76
187.436	52.74
187.655	9.73
187.875	34.3
188.095	-18.94
188.314	58.88
188.534	60.93
188.753	-16.9
188.973	71.17
189.192	50.69
189.412	44.54
189.631	-6.66
189.851	-14.85
190.07	89.6
190.29	69.12
190.509	-57.86
190.729	22.02
190.948	19.97
191.168	75.26
191.387	87.55
191.607	42.5
191.826	34.3
192.045	-4.61
192.265	28.16
192.484	-6.66
192.704	-29.18
192.923	9.73
193.142	120.32
193.362	17.92
193.581	38.4
193.8	-2.56
194.02	40.45
194.239	50.69
194.458	46.59
194.678	38.4
194.897	1.54
195.116	9.73
195.335	-18.94
195.555	22.02
195.774	13.82
195.993	-16.9
196.212	24.06
196.432	-12.8
196.651	28.16
196.87	46.59
197.089	22.02
197.308	-10.75
197.528	50.69
197.747	-59.9
197.966	17.92
198.185	118.27
198.404	28.16
198.623	58.88
198.842	-12.8
199.062	44.54
199.281	50.69
199.5	1.54
199.719	24.06
199.938	67.07
200.157	79.36
200.376	5.63
200.595	15.87
200.814	-12.8
201.033	11.78
201.252	52.74
201.471	1.54
201.69	13.82
201.909	54.78
202.128	19.97
202.347	99.84
202.566	-4.61
202.785	58.88
203.004	-6.66
203.223	32.26
203.442	15.87
203.661	-18.94
203.879	71.17
204.098	75.26
204.317	7.68
204.536	-2.56
204.755	89.6
204.974	26.11
205.193	-35.33
205.411	83.45
205.63	11.78
205.849	34.3
206.068	9.73
206.287	17.92
206.505	13.82
206.724	3.58
206.943	75.26
207.162	-16.9
207.381	-31.23
207.599	-33.28
207.818	48.64
208.037	65.02
208.255	32.26
208.474	5.63
208.693	-4.61
208.911	-107.01
209.13	52.74
209.349	-0.51
209.567	77.31
209.786	28.16
210.005	46.59
210.223	48.64
210.442	1.54
210.661	17.92
210.879	-6.66
211.098	-23.04
211.316	17.92
211.535	11.78
211.753	-27.14
211.972	81.41
212.191	-10.75
212.409	38.4
212.628	-29.18
212.846	-51.71
213.065	-10.75
213.283	73.21
213.502	58.88
213.72	36.35
213.938	-35.33
214.157	73.21
214.375	19.97
214.594	-12.8
214.812	-20.99
215.031	-2.56
215.249	13.82
215.467	62.98
215.686	-0.51
215.904	-29.18
216.122	17.92
216.341	103.93
216.559	-49.66
216.778	30.21
216.996	-6.66
217.214	69.12
217.432	-23.04
217.651	11.78
217.869	-20.99
218.087	46.59
218.306	62.98
218.524	89.6
218.742	-0.51
218.96	5.63
219.179	22.02
219.397	22.02
219.615	54.78
219.833	54.78
220.051	13.82
220.27	62.98
220.488	87.55
220.706	19.97
220.924	46.59
221.142	-10.75
221.36	-12.8
221.578	54.78
221.796	-0.51
222.015	7.68
222.233	17.92
222.451	-0.51
222.669	30.21
222.887	22.02
223.105	1.54
223.323	-6.66
223.541	142.85
223.759	-20.99
223.977	28.16
224.195	62.98
224.413	17.92
224.631	26.11
224.849	77.31
225.067	50.69
225.285	-20.99
225.503	-2.56
225.721	-18.94
225.939	24.06
226.157	11.78
226.375	62.98
226.592	-31.23
226.81	3.58
227.028	42.5
227.246	73.21
227.464	22.02
227.682	-20.99
227.9	75.26
228.117	-2.56
228.335	7.68
228.553	22.02
228.771	5.63
228.989	-2.56
229.206	7.68
229.424	69.12
229.642	-10.75
229.86	-12.8
230.077	30.21
230.295	9.73
230.513	-10.75
230.731	105.98
230.948	52.74
231.166	40.45
231.384	-53.76
231.601	-51.71
231.819	22.02
232.037	-51.71
232.254	19.97
232.472	56.83
232.689	19.97
232.907	77.31
233.125	11.78
233.342	62.98
233.56	1.54
233.777	-25.09
233.995	69.12
234.213	26.11
234.43	24.06
234.648	19.97
234.865	71.17
235.083	103.93
235.3	-10.75
235.518	73.21
235.735	44.54
235.953	5.63
236.17	-27.14
236.388	58.88
236.605	15.87
236.822	81.41
237.04	38.4
237.257	30.21
237.475	30.21
237.692	67.07
237.909	19.97
238.127	17.92
238.344	34.3
238.562	46.59
238.779	44.54
238.996	-0.51
239.214	-47.62
239.431	48.64
239.648	32.26
239.865	42.5
240.083	42.5
240.3	87.55
240.517	36.35
240.735	22.02
240.952	-23.04
241.169	42.5
241.386	42.5
241.603	44.54
241.821	58.88
242.038	-0.51
242.255	-2.56
242.472	17.92
242.689	73.21
242.907	50.69
243.124	28.16
243.341	58.88
243.558	-18.94
243.775	-47.62
243.992	-29.18
244.209	-18.94
244.426	48.64
244.643	-59.9
244.86	-33.28
245.078	56.83
245.295	46.59
245.512	-8.7
245.729	-2.56
245.946	5.63
246.163	13.82
246.38	-25.09
246.597	11.78
246.814	81.41
247.031	26.11
247.248	30.21
247.464	11.78
247.681	93.69
247.898	79.36
248.115	91.65
248.332	-14.85
248.549	79.36
248.766	54.78
248.983	11.78
249.2	38.4
249.417	65.02
249.633	5.63
249.85	17.92
250.067	40.45
250.284	44.54
250.501	22.02
250.717	17.92
250.934	-33.28
251.151	30.21
251.368	3.58
251.585	-45.57
251.801	46.59
252.018	34.3
252.235	11.78
252.451	-0.51
252.668	22.02
252.885	-14.85
253.102	22.02
253.318	112.13
253.535	38.4
253.752	30.21
253.968	-0.51
254.185	-59.9
254.401	-10.75
254.618	24.06
254.835	-18.94
255.051	79.36
255.268	50.69
255.484	-12.8
255.701	5.63
255.917	62.98
256.134	9.73
256.351	5.63
256.567	-27.14
256.784	5.63
257	-16.9
257.217	62.98
257.433	99.84
257.65	101.89
257.866	-4.61
258.082	5.63
258.299	-6.66
258.515	67.07
258.732	-23.04
258.948	9.73
259.165	32.26
259.381	19.97
259.597	19.97
259.814	40.45
260.03	9.73
260.246	103.93
260.463	-0.51
260.679	22.02
260.895	46.59
261.112	-25.09
261.328	-4.61
261.544	22.02
261.761	71.17
261.977	17.92
262.193	-2.56
262.409	71.17
262.626	22.02
262.842	67.07
263.058	60.93
263.274	-27.14
263.49	3.58
263.707	22.02
263.923	13.82
264.139	-8.7
264.355	1.54
264.571	42.5
264.787	-29.18
265.004	103.93
265.22	-20.99
265.436	17.92
265.652	46.59
265.868	-0.51
266.084	15.87
266.3	24.06
266.516	-29.18
266.732	-16.9
266.948	-18.94
267.164	38.4
267.38	85.5
267.596	42.5
267.812	67.07
268.028	42.5
268.244	19.97
268.46	65.02
268.676	-16.9
268.892	73.21
269.108	-14.85
269.324	50.69
269.54	38.4
269.756	44.54
269.972	26.11
270.188	9.73
270.403	34.3
270.619	-6.66
270.835	30.21
271.051	5.63
271.267	11.78
271.483	-10.75
271.698	60.93
271.914	-47.62
272.13	30.21
272.346	-18.94
272.562	-31.23
272.777	-6.66
272.993	3.58
273.209	48.64
273.425	-10.75
273.64	-29.18
273.856	50.69
274.072	-0.51
274.287	54.78
274.503	3.58
274.719	52.74
274.934	7.68
275.15	11.78
275.366	5.63
275.581	48.64
275.797	46.59
276.012	38.4
276.228	-27.14
276.444	36.35
276.659	56.83
276.875	-55.81
277.09	58.88
277.306	19.97
277.521	15.87
277.737	32.26
277.952	67.07
278.168	3.58
278.383	36.35
278.599	17.92
278.814	13.82
279.03	9.73
279.245	54.78
279.461	108.03
279.676	5.63
279.892	11.78
280.107	36.35
280.322	13.82
280.538	44.54
280.753	13.82
280.969	46.59
281.184	58.88
281.399	34.3
281.615	-14.85
281.83	42.5
282.045	28.16
282.26	-10.75
282.476	17.92
282.691	62.98
282.906	60.93
283.122	56.83
283.337	-14.85
283.552	-0.51
283.767	-10.75
283.983	71.17
284.198	69.12
284.413	5.63
284.628	-31.23
284.843	-20.99
285.058	77.31
285.274	36.35
285.489	34.3
285.704	97.79
285.919	40.45
286.134	-4.61
286.349	44.54
286.564	36.35
286.779	1.54
286.995	28.16
287.21	-43.52
287.425	15.87
287.64	-4.61
287.855	7.68
288.07	-29.18
288.285	11.78
288.5	79.36
288.715	32.26
288.93	-27.14
289.145	-2.56
289.36	58.88
289.575	26.11
289.79	101.89
290.004	65.02
290.219	22.02
290.434	91.65
290.649	65.02
290.864	5.63
291.079	71.17
291.294	17.92
291.509	-12.8
291.724	26.11
291.938	62.98
292.153	-23.04
292.368	17.92
292.583	-18.94
292.798	28.16
293.012	30.21
293.227	-23.04
293.442	91.65
293.657	62.98
293.871	30.21
294.086	-35.33
294.301	69.12
294.516	87.55
294.73	58.88
294.945	-29.18
295.16	1.54
295.374	71.17
295.589	58.88
295.804	-6.66
296.018	-4.61
296.233	44.54
296.447	26.11
296.662	-12.8
296.877	15.87
297.091	3.58
297.306	42.5
297.52	-35.33
297.735	19.97
297.949	34.3
298.164	-72.19
298.378	38.4
298.593	69.12
298.807	-12.8
299.022	13.82
299.236	5.63
299.451	75.26
299.665	85.5
299.88	17.92
300.094	69.12
300.309	71.17
300.523	79.36
300.737	-8.7
300.952	-8.7
301.166	-4.61
301.381	22.02
301.595	52.74
301.809	34.3
302.024	-8.7
302.238	60.93
302.452	28.16
302.667	-4.61
302.881	-39.42
303.095	-33.28
303.309	38.4
303.524	81.41
303.738	-25.09
303.952	-4.61
304.166	65.02
304.381	-61.95
304.595	52.74
304.809	60.93
305.023	-2.56
305.237	1.54
305.452	-12.8
305.666	58.88
305.88	30.21
306.094	-16.9
306.308	22.02
306.522	77.31
306.736	-20.99
306.95	22.02
307.164	67.07
307.379	38.4
307.593	87.55
307.807	58.88
308.021	5.63
308.235	79.36
308.449	-10.75
308.663	67.07
308.877	17.92
309.091	13.82
309.305	60.93
309.519	52.74
309.733	19.97
309.947	58.88
310.161	71.17
310.374	85.5
310.588	-8.7
310.802	1.54
311.016	-0.51
311.23	103.93
311.444	32.26
311.658	50.69
311.872	22.02
312.085	75.26
312.299	101.89
312.513	77.31
312.727	-37.38
312.941	26.11
313.154	95.74
313.368	-33.28
313.582	62.98
313.796	46.59
314.009	-23.04
314.223	40.45
314.437	67.07
314.651	50.69
314.864	28.16
315.078	5.63
315.292	71.17
315.505	5.63
315.719	1.54
315.933	-10.75
316.146	83.45
316.36	48.64
316.573	38.4
316.787	17.92
317.001	17.92
317.214	54.78
317.428	-2.56
317.641	32.26
317.855	-2.56
318.068	81.41
318.282	34.3
318.495	60.93
318.709	89.6
318.922	-29.18
319.136	15.87
319.349	93.69
319.563	60.93
319.776	-20.99
319.99	3.58
320.203	71.17
320.417	-23.04
320.63	83.45
320.843	62.98
321.057	34.3
321.27	22.02
321.483	83.45
321.697	69.12
321.91	9.73
322.124	40.45
322.337	67.07
322.55	75.26
322.763	60.93
322.977	40.45
323.19	85.5
323.403	-31.23
323.617	22.02
323.83	24.06
324.043	-23.04
324.256	44.54
324.469	9.73
324.683	60.93
324.896	58.88
325.109	60.93
325.322	-14.85
325.535	-12.8
325.748	34.3
325.962	-10.75
326.175	36.35
326.388	-2.56
326.601	-4.61
326.814	44.54
327.027	48.64
327.24	40.45
327.453	28.16
327.666	-10.75
327.879	60.93
328.092	30.21
328.305	-12.8
328.518	22.02
328.731	77.31
328.944	95.74
329.157	28.16
329.37	28.16
329.583	54.78
329.796	36.35
330.009	15.87
330.222	42.5
330.435	26.11
330.648	44.54
330.861	-18.94
331.073	42.5
331.286	9.73
331.499	34.3
331.712	136.7
331.925	-45.57
332.138	26.11
332.35	54.78
332.563	-27.14
332.776	71.17
332.989	54.78
333.202	60.93
333.414	5.63
333.627	105.98
333.84	-2.56
334.053	17.92
334.265	22.02
334.478	60.93
334.691	24.06
334.903	-0.51
335.116	38.4
335.329	46.59
335.541	95.74
335.754	36.35
335.966	1.54
336.179	-20.99
336.392	48.64
336.604	93.69
336.817	-0.51
337.029	48.64
337.242	7.68
337.454	52.74
337.667	-8.7
337.88	44.54
338.092	40.45
338.305	58.88
338.517	1.54
338.729	132.61
338.942	77.31
339.154	34.3
339.367	-39.42
339.579	7.68
339.792	11.78
340.004	71.17
340.217	93.69
340.429	9.73
340.641	-10.75
340.854	26.11
341.066	56.83
341.278	99.84
341.491	73.21
341.703	-53.76
341.915	3.58
342.128	36.35
342.34	44.54
342.552	50.69
342.764	40.45
342.977	19.97
343.189	28.16
343.401	-10.75
343.613	-68.09
343.826	54.78
344.038	34.3
344.25	9.73
344.462	-14.85
344.674	110.08
344.886	60.93
345.099	44.54
345.311	13.82
345.523	28.16
345.735	-14.85
345.947	30.21
346.159	87.55
346.371	-12.8
346.583	50.69
346.795	79.36
347.007	112.13
347.219	65.02
347.431	28.16
347.643	52.74
347.855	-4.61
348.067	60.93
348.279	-31.23
348.491	50.69
348.703	85.5
348.915	-31.23
349.127	-18.94
349.339	48.64
349.551	-53.76
349.763	136.7
349.975	32.26
350.187	112.13
350.399	-29.18
350.61	89.6
350.822	85.5
351.034	85.5
351.246	-14.85
351.458	65.02
351.669	54.78
351.881	32.26
352.093	54.78
352.305	91.65
352.517	-6.66
352.728	67.07
352.94	62.98
353.152	22.02
353.363	32.26
353.575	40.45
353.787	-2.56
353.999	58.88
354.21	71.17
354.422	-14.85
354.633	-39.42
354.845	58.88
355.057	-37.38
355.268	110.08
355.48	91.65
355.692	13.82
355.903	11.78
356.115	-10.75
356.326	9.73
356.538	54.78
356.749	-2.56
356.961	81.41
357.172	75.26
357.384	13.82
357.595	28.16
357.807	120.32
358.018	19.97
358.23	22.02
358.441	71.17
358.653	69.12
358.864	110.08
359.075	77.31
359.287	69.12
359.498	28.16
359.709	3.58
359.921	40.45
360.132	54.78
360.344	38.4
360.555	62.98
360.766	17.92
360.977	46.59
361.189	5.63
361.4	36.35
361.611	73.21
361.823	22.02
362.034	-8.7
362.245	32.26
362.456	69.12
362.667	28.16
362.879	13.82
363.09	5.63
363.301	46.59
363.512	38.4
363.723	36.35
363.935	13.82
364.146	42.5
364.357	1.54
364.568	73.21
364.779	95.74
364.99	108.03
365.201	30.21
365.412	91.65
365.623	-2.56
365.834	58.88
366.045	-39.42
366.256	87.55
366.467	22.02
366.678	103.93
366.889	24.06
367.1	48.64
367.311	-59.9
367.522	56.83
367.733	-57.86
367.944	89.6
368.155	11.78
368.366	1.54
368.577	71.17
368.788	83.45
368.999	77.31
369.209	13.82
369.42	97.79
369.631	97.79
369.842	22.02
370.053	42.5
370.264	77.31
370.474	-2.56
370.685	157.18
370.896	26.11
371.107	95.74
371.317	110.08
371.528	-6.66
371.739	79.36
371.95	15.87
372.16	62.98
372.371	42.5
372.582	62.98
372.792	62.98
373.003	44.54
373.214	46.59
373.424	177.66
373.635	126.46
373.846	54.78
374.056	85.5
374.267	99.84
374.477	17.92
374.688	-8.7
374.898	56.83
375.109	101.89
375.319	71.17
375.53	112.13
375.74	13.82
375.951	75.26
376.161	38.4
376.372	17.92
376.582	28.16
376.793	81.41
377.003	13.82
377.214	50.69
377.424	-2.56
377.635	40.45
377.845	34.3
378.055	17.92
378.266	48.64
378.476	87.55
378.686	-8.7
378.897	9.73
379.107	103.93
379.317	30.21
379.528	56.83
379.738	42.5
379.948	26.11
380.158	91.65
380.369	52.74
380.579	83.45
380.789	85.5
380.999	3.58
381.21	13.82
381.42	132.61
381.63	126.46
381.84	108.03
382.05	120.32
382.261	91.65
382.471	83.45
382.681	46.59
382.891	-20.99
383.101	85.5
383.311	5.63
383.521	71.17
383.731	36.35
383.941	67.07
384.151	128.51
384.361	71.17
384.571	15.87
384.781	-18.94
384.991	44.54
385.201	71.17
385.411	87.55
385.621	136.7
385.831	30.21
386.041	101.89
386.251	67.07
386.461	83.45
386.671	48.64
386.881	46.59
387.091	116.22
387.301	62.98
387.511	26.11
387.72	36.35
387.93	114.17
388.14	-2.56
388.35	58.88
388.56	56.83
388.769	105.98
388.979	103.93
389.189	-2.56
389.399	71.17
389.609	32.26
389.818	30.21
390.028	58.88
390.238	38.4
390.447	30.21
390.657	60.93
390.867	54.78
391.076	46.59
391.286	73.21
391.496	128.51
391.705	65.02
391.915	87.55
392.125	126.46
392.334	105.98
392.544	58.88
392.753	58.88
392.963	48.64
393.172	85.5
393.382	91.65
393.591	136.7
393.801	108.03
394.01	85.5
394.22	81.41
394.429	75.26
394.639	132.61
394.848	144.89
395.058	120.32
395.267	126.46
395.477	120.32
395.686	67.07
395.895	56.83
396.105	161.28
396.314	97.79
396.524	85.5
396.733	1.54
396.942	122.37
397.152	122.37
397.361	136.7
397.57	136.7
397.78	110.08
397.989	175.61
398.198	93.69
398.407	132.61
398.617	122.37
398.826	122.37
399.035	122.37
399.244	165.37
399.453	103.93
399.663	99.84
399.872	167.42
400.081	108.03
400.29	148.99
400.499	67.07
400.708	177.66
400.917	93.69
401.127	60.93
401.336	83.45
401.545	165.37
401.754	144.89
401.963	128.51
402.172	95.74
402.381	112.13
402.59	144.89
402.799	132.61
403.008	202.24
403.217	140.8
403.426	153.09
403.635	77.31
403.844	99.84
404.053	202.24
404.262	183.81
404.471	212.48
404.68	97.79
404.888	136.7
405.097	140.8
405.306	247.29
405.515	116.22
405.724	212.48
405.933	163.33
406.142	212.48
406.35	292.35
406.559	171.52
406.768	204.28
406.977	247.29
407.185	202.24
407.394	171.52
407.603	230.91
407.812	216.57
408.02	275.96
408.229	232.96
408.438	314.88
408.646	220.67
408.855	202.24
409.064	271.87
409.272	257.53
409.481	286.2
409.69	386.55
409.898	333.31
410.107	341.5
410.315	390.65
410.524	325.12
410.733	435.71
410.941	380.41
411.15	423.42
411.358	404.99
411.567	517.62
411.775	398.84
411.984	464.38
412.192	495.1
412.401	429.56
412.609	562.68
412.818	550.39
413.026	521.72
413.234	560.63
413.443	585.21
413.651	624.12
413.86	620.02
414.068	689.65
414.276	654.84
414.485	693.75
414.693	736.76
414.901	779.76
415.11	816.63
415.318	765.43
415.526	779.76
415.734	845.3
415.943	894.45
416.151	984.56
416.359	982.51
416.567	912.88
416.776	947.7
416.984	998.9
417.192	1127.92
417.4	1127.92
417.608	1123.82
417.817	1113.58
418.025	1187.31
418.233	1256.94
418.441	1197.55
418.649	1414.63
418.857	1435.11
419.065	1521.13
419.273	1412.59
419.481	1517.03
419.689	1572.33
419.897	1676.77
420.105	1672.68
420.313	1717.73
420.521	1756.65
420.729	1904.1
420.937	1895.91
421.145	1932.77
421.353	2053.6
421.561	2110.94
421.769	2127.33
421.977	2307.55
422.185	2301.4
422.393	2422.24
422.601	2643.42
422.809	2563.54
423.017	2661.85
423.224	2758.1
423.432	2813.4
423.64	2975.19
423.848	3098.06
424.056	3034.58
424.263	3200.46
424.471	3282.38
424.679	3429.84
424.887	3573.19
425.094	3481.03
425.302	3638.73
425.51	3743.17
425.718	3898.82
425.925	4036.03
426.133	4031.94
426.341	4326.85
426.548	4498.88
426.756	4582.84
426.964	4525.5
427.171	4652.47
427.379	4951.48
427.586	5002.68
427.794	5213.62
428.001	5477.8
428.209	5629.35
428.417	5539.24
428.624	5928.36
428.832	5981.6
429.039	5924.26
429.247	5866.92
429.454	6430.11
429.662	6847.9
429.869	6446.49
430.076	6919.57
430.284	6645.15
430.491	6946.2
430.699	7372.18
430.906	7333.26
431.114	7503.25
431.321	7765.39
431.528	7921.03
431.736	8537.47
431.943	8840.57
432.15	8564.09
432.358	8725.88
432.565	9160.05
432.772	9260.4
432.979	9579.89
433.187	9749.87
433.394	9956.71
433.601	10446.18
433.808	10583.39
434.016	10507.62
434.223	10712.41
434.43	11574.61
434.637	11253.08
434.844	11742.54
435.052	12223.81
435.259	12203.33
435.466	12485.95
435.673	12191.05
435.88	12897.6
436.087	13616.43
436.294	13487.41
436.501	13321.52
436.708	13630.77
436.915	14089.51
437.122	14617.89
437.329	14529.83
437.537	15076.63
437.743	15316.25
437.95	15209.75
438.157	16119.05
438.364	16614.66
438.571	16325.89
438.778	16506.12
438.985	18377.96
439.192	17480.95
439.399	18115.82
439.606	17630.45
439.813	18595.04
440.02	19707.09
440.227	19367.13
440.433	19096.8
440.64	19836.11
440.847	19567.83
441.054	20339.91
441.261	21302.46
441.467	21091.52
441.674	21492.92
441.881	22564.01
442.088	22234.28
442.294	21912.75
442.501	22863.01
442.708	23186.59
442.914	23895.19
443.121	25037.95
443.328	24611.98
443.534	26309.74
443.741	25615.48
443.948	25130.11
444.154	27188.32
444.361	26969.19
444.568	27155.55
444.774	27165.79
444.981	26934.37
445.187	27794.52
445.394	29510.72
445.6	28861.51
445.807	31826.97
446.013	30426.16
446.22	31040.55
446.426	31759.39
446.633	32363.54
446.839	33522.69
447.046	31919.13
447.252	33895.42
447.459	34081.78
447.665	33790.97
447.871	34739.18
448.078	36561.87
448.284	34585.58
448.491	35705.82
448.697	37258.18
448.903	37919.68
449.11	38026.17
449.316	37313.48
449.522	37952.44
449.728	39050.16
449.935	39117.74
450.141	39230.38
450.347	40221.59
450.553	38964.14
450.76	39879.58
450.966	40747.92
451.172	40289.18
451.378	41276.3
451.584	40260.51
451.791	41259.91
451.997	41167.76
452.203	41563.01
452.409	41796.48
452.615	41683.84
452.821	40197.02
453.027	39543.72
453.233	41778.05
453.44	40113.05
453.646	40653.72
453.852	40489.88
454.058	41753.47
454.264	39828.38
454.47	40967.05
454.676	39934.88
454.882	41274.25
455.088	37678.02
455.294	38202.3
455.5	39056.3
455.705	39383.98
455.911	37600.19
456.117	36862.93
456.323	36289.49
456.529	34702.32
456.735	36031.45
456.941	34991.08
457.147	34503.67
457.352	33735.68
457.558	33041.42
457.764	33170.44
457.97	32543.76
458.176	32132.12
458.381	31542.3
458.587	30311.47
458.793	30374.96
458.999	28965.96
459.204	30954.54
459.41	29758.52
459.616	27991.12
459.821	27935.83
460.027	27935.83
460.233	26971.24
460.438	26086.51
460.644	26125.43
460.85	24886.4
461.055	24767.62
461.261	24863.88
461.466	22768.8
461.672	22420.65
461.878	23798.93
462.083	22052.02
462.289	22074.54
462.494	21535.93
462.7	20786.37
462.905	20065.49
463.111	20636.87
463.316	20536.52
463.522	20573.38
463.727	20364.49
463.932	20243.66
464.138	20284.62
464.343	20233.42
464.549	19719.38
464.754	20270.28
464.959	19961.04
465.165	20051.15
465.37	19311.83
465.575	18558.18
465.781	19535.06
465.986	19295.45
466.191	18834.66
466.397	18570.47
466.602	17394.93
466.807	18042.09
467.012	18144.49
467.218	17919.21
467.423	17839.34
467.628	17976.56
467.833	18701.54
468.038	18105.58
468.244	17530.1
468.449	18400.49
468.654	17708.27
468.859	17341.69
469.064	17167.61
469.269	16536.84
469.474	16835.84
469.679	17216.76
469.885	16518.4
470.09	17106.17
470.295	16633.09
470.5	16334.09
470.705	16430.34
470.91	16299.27
471.115	15756.56
471.32	16096.52
471.525	16096.52
471.73	15752.46
471.935	15623.44
472.139	15185.18
472.344	15375.64
472.549	15367.45
472.754	15064.35
472.959	14726.43
473.164	14480.68
473.369	14343.46
473.574	15000.86
473.778	14634.27
473.983	14413.09
474.188	14335.27
474.393	13675.82
474.598	13767.98
474.802	13819.18
475.007	13462.83
475.212	13563.19
475.417	13106.49
475.621	13124.92
475.826	13022.52
476.031	12922.17
476.235	12811.58
476.44	13116.73
476.645	12471.62
476.849	12297.54
477.054	12549.44
477.259	12266.82
477.463	12201.29
477.668	12098.89
477.872	12086.6
478.077	11842.89
478.282	11433.3
478.486	11453.78
478.691	11431.25
478.895	11453.78
479.1	11281.75
479.304	11275.6
479.509	10964.31
479.713	11150.68
479.918	11103.57
480.122	10816.86
480.326	10947.93
480.531	10984.79
480.735	10913.11
480.94	10898.78
481.144	11076.95
481.348	10376.55
481.553	10798.43
481.757	10560.86
481.961	10628.45
482.166	10745.18
482.37	10452.32
482.574	10501.47
482.778	10458.46
482.983	10745.18
483.187	10509.66
483.391	10581.34
483.595	10538.34
483.8	10423.65
484.004	10351.97
484.208	10610.01
484.412	10480.99
484.616	10517.86
484.821	10491.23
485.025	10321.25
485.229	10546.53
485.433	10427.74
485.637	10474.85
485.841	10265.96
486.045	10423.65
486.249	10474.85
486.453	10231.14
486.657	10302.82
486.861	10554.72
487.065	10161.51
487.269	10290.53
487.473	10276.2
487.677	10550.62
487.881	10517.86
488.085	10411.36
488.289	10454.37
488.493	10304.87
488.697	10548.58
488.901	10503.52
489.105	10476.9
489.309	10601.82
489.512	10618.21
489.716	10646.88
489.92	10648.93
490.124	10478.94
490.328	10392.93
490.531	10581.34
490.735	10696.03
490.939	10798.43
491.143	10642.78
491.346	10634.59
491.55	10806.62
491.754	11011.42
491.958	10765.66
492.161	10734.94
492.365	10962.26
492.569	10937.69
492.772	11099.48
492.976	11165.01
493.18	11330.9
493.383	11144.53
493.587	11257.17
493.79	11560.27
493.994	11089.24
494.197	11519.31
494.401	11447.63
494.605	11449.68
494.808	11722.06
495.012	11906.38
495.215	11611.47
495.419	11857.23
495.622	11754.83
495.825	11980.11
496.029	12115.27
496.232	12414.27
496.436	12223.81
496.639	12551.49
496.843	12520.77
497.046	12660.03
497.249	12821.82
497.453	12744
497.656	12991.8
497.859	12991.8
498.063	13307.19
498.266	13487.41
498.469	13466.93
498.673	13571.38
498.876	13815.09
499.079	13886.76
499.282	13862.19
499.485	14296.36
499.689	14179.62
499.892	14452
500.095	14503.2
500.298	14832.93
500.501	14597.41
500.705	15129.88
500.908	15344.92
501.111	15303.96
501.314	15596.82
501.517	15637.78
501.72	15738.13
501.923	15772.94
502.126	16205.06
502.329	16395.53
502.532	16329.99
502.735	16616.71
502.938	16989.44
503.141	16921.85
503.344	17333.5
503.547	17544.44
503.75	17634.55
503.953	18025.71
504.156	18023.66
504.359	18189.55
504.562	18185.45
504.765	18371.82
504.968	18740.45
505.17	18846.94
505.373	18844.9
505.576	19104.99
505.779	19385.56
505.982	19598.55
506.185	20059.34
506.387	19877.07
506.59	20118.73
506.793	20405.45
506.996	20235.47
507.198	21099.71
507.401	20952.26
507.604	21310.65
507.807	21861.55
508.009	21865.65
508.212	21839.03
508.415	22064.3
508.617	22381.74
508.82	22172.85
509.022	22418.6
509.225	22842.53
509.428	23061.66
509.63	23293.08
509.833	23241.89
510.035	24128.66
510.238	23868.56
510.44	24116.37
510.643	24540.3
510.845	24874.12
511.048	24638.6
511.25	24859.78
511.453	25226.37
511.655	25789.56
511.858	25513.08
512.06	25795.7
512.262	26317.93
512.465	26205.3
512.667	26494.06
512.87	26803.3
513.072	26627.18
513.274	27280.48
513.477	27649.11
513.679	27470.94
513.881	27905.11
514.084	28263.5
514.286	28089.43
514.488	28591.18
514.69	29168.71
514.893	29097.03
515.095	28877.9
515.297	29602.88
515.499	29893.69
515.701	29787.19
515.904	30137.4
516.106	30317.62
516.308	30655.53
516.51	31183.91
516.712	31042.6
516.914	31515.68
517.116	31951.9
517.318	32087.06
517.52	32209.94
517.722	32429.07
517.925	32463.89
518.127	32924.68
518.329	33403.91
518.531	32736.27
518.733	33672.19
518.935	34229.24
519.136	34120.7
519.338	34827.24
519.54	34763.76
519.742	34903.02
519.944	34831.34
520.146	35507.17
520.348	35578.85
520.55	35689.44
520.752	35847.13
520.954	36303.83
521.155	36228.06
521.357	36387.8
521.559	36703.18
521.761	37184.46
521.963	37493.7
522.164	37585.86
522.366	37485.51
522.568	37858.24
522.77	38003.64
522.971	38988.72
523.173	38202.3
523.375	38828.98
523.576	38755.25
523.778	38718.39
523.98	39381.93
524.181	39601.06
524.383	39629.73
524.584	39652.26
524.786	39824.29
524.988	39779.23
525.189	40674.2
525.391	40721.3
525.592	40999.82
525.794	40958.86
525.995	40805.27
526.197	41071.5
526.398	41374.6
526.6	41145.23
526.801	41427.85
527.003	42021.76
527.204	41614.21
527.406	41769.86
527.607	42523.51
527.808	42378.11
528.01	41839.49
528.211	42230.65
528.412	43285.36
528.614	42847.09
528.815	42898.29
529.016	43068.27
529.218	42740.6
529.419	43025.26
529.62	43033.46
529.822	42814.32
530.023	43029.36
530.224	43088.75
530.425	42797.94
530.626	42754.93
530.828	42687.35
531.029	43983.71
531.23	43172.72
531.431	43187.05
531.632	43322.22
531.833	43887.46
532.035	43551.59
532.236	43885.41
532.437	43688.81
532.638	43506.54
532.839	43768.68
533.04	43547.5
533.241	43334.51
533.442	44677.97
533.643	43469.67
533.844	43596.65
534.045	43641.7
534.246	43705.19
534.447	44151.65
534.648	43705.19
534.849	44170.08
535.05	44057.44
535.251	43981.66
535.451	44008.29
535.652	43983.71
535.853	43842.4
536.054	44165.98
536.255	44153.69
536.456	43395.95
536.657	44118.88
536.857	43780.96
537.058	43600.74
537.259	44022.62
537.46	44096.35
537.66	43694.95
537.861	43666.28
538.062	43656.04
538.263	44155.74
538.463	43690.85
538.664	43733.86
538.865	44094.3
539.065	44039.01
539.266	43314.03
539.466	44454.75
539.667	43277.16
539.868	44041.06
540.068	43723.62
540.269	43666.28
540.469	44325.72
540.67	43402.09
540.87	43774.82
541.071	43475.82
541.271	43987.81
541.472	43803.49
541.672	43338.6
541.873	43826.02
542.073	43078.51
542.274	44026.72
542.474	43785.06
542.675	43324.27
542.875	43854.69
543.075	43547.5
543.276	43416.43
543.476	43606.89
543.676	43332.46
543.877	43783.01
544.077	43367.27
544.277	43686.76
544.478	43834.21
544.678	43842.4
544.878	43350.89
545.078	43418.47
545.279	43346.79
545.479	43441
545.679	43723.62
545.879	43377.51
546.079	43686.76
546.28	43391.85
546.48	43297.64
546.68	43719.52
546.88	43273.07
547.08	43647.85
547.28	43037.55
547.48	43174.77
547.68	43492.2
547.88	43074.41
548.081	43324.27
548.281	43498.34
548.481	43049.84
548.681	43043.7
548.881	43402.09
549.081	43123.57
549.28	42812.27
549.48	43127.66
549.68	43324.27
549.88	43545.45
550.08	43135.85
550.28	42937.2
550.48	42861.43
550.68	43486.06
550.88	42957.68
551.08	43129.71
551.279	43346.79
551.479	42705.78
551.679	43047.79
551.879	42668.92
552.079	42810.23
552.278	43180.91
552.478	42929.01
552.678	43045.74
552.878	43015.02
553.077	43080.56
553.277	42619.77
553.477	43078.51
553.676	42613.62
553.876	42922.87
554.076	42685.3
554.275	42541.94
554.475	42222.46
554.674	42507.13
554.874	42818.42
555.074	42765.17
555.273	42484.6
555.473	42851.19
555.672	42220.41
555.872	42521.46
556.071	42302.33
556.271	42552.18
556.47	42353.53
556.67	41966.46
556.869	42095.49
557.068	42482.55
557.268	42034.05
557.467	42181.5
557.667	42122.11
557.866	42054.53
558.065	42412.92
558.265	42265.47
558.464	41913.22
558.663	42523.51
558.863	41552.77
559.062	42228.6
559.261	41800.58
559.461	41984.9
559.66	41589.64
559.859	41618.31
560.058	41452.42
560.258	41411.46
560.457	40930.19
560.656	41835.39
560.855	41118.6
561.054	41614.21
561.253	41415.56
561.453	41165.71
561.652	41292.68
561.851	41472.9
562.05	40987.53
562.249	41091.98
562.448	41264.01
562.647	41235.34
562.846	40835.98
563.045	41118.6
563.244	40369.05
563.443	40831.89
563.642	40483.73
563.841	40645.52
564.04	40035.23
564.239	40819.6
564.438	40483.73
564.637	40168.35
564.836	40369.05
565.035	39996.32
565.234	40055.71
565.432	40010.65
565.631	39660.45
565.83	40070.04
566.029	40082.33
566.228	39463.85
566.427	39889.82
566.625	39418.79
566.824	39150.51
567.023	39635.88
567.222	39162.79
567.42	39648.16
567.619	39359.4
567.818	39134.12
568.016	39009.2
568.215	39457.7
568.414	39111.6
568.612	39328.68
568.811	38900.65
569.01	39232.43
569.208	38452.15
569.407	39015.34
569.605	38394.81
569.804	38755.25
570.002	38405.05
570.201	38656.95
570.4	38306.74
570.598	38233.02
570.797	37979.07
570.995	38251.45
571.193	37788.61
571.392	38198.2
571.59	37712.83
571.789	38030.27
571.987	37915.58
572.186	37821.37
572.384	37624.77
572.582	37620.67
572.781	37508.04
572.979	37157.83
573.177	37286.86
573.376	37598.15
573.574	37153.74
573.772	37434.31
573.971	36959.18
574.169	37086.15
574.367	36588.5
574.565	36989.9
574.763	36682.7
574.962	36428.76
575.16	36256.73
575.358	36328.41
575.556	35908.57
575.754	36864.97
575.952	36158.42
576.151	36502.48
576.349	35580.9
576.547	35902.43
576.745	35963.87
576.943	35671.01
577.141	35992.54
577.339	36029.4
577.537	35693.54
577.735	35894.24
577.933	35118.06
578.131	35455.97
578.329	35304.42
578.527	34962.41
578.725	35060.71
578.923	35640.29
579.121	34927.6
579.319	34972.65
579.516	35163.11
579.714	34724.85
579.912	34665.46
580.11	34651.12
580.308	34823.15
580.506	34606.06
580.704	33995.77
580.901	34675.69
581.099	34335.73
581.297	34157.56
581.495	34294.77
581.692	34354.16
581.89	33741.82
582.088	34171.89
582.285	33563.65
582.483	34102.26
582.681	33754.11
582.878	33631.23
583.076	33252.36
583.274	33528.83
583.471	33135.62
583.669	33395.71
583.866	32979.98
584.064	32996.36
584.262	32631.82
584.459	33352.71
584.657	32717.84
584.854	32818.19
585.052	32304.15
585.249	32805.9
585.447	32676.88
585.644	32472.08
585.841	32336.91
586.039	32650.25
586.236	32095.25
586.434	31855.64
586.631	31796.25
586.828	31779.87
587.026	32013.34
587.223	31767.58
587.42	31560.73
587.618	31925.27
587.815	31319.07
588.012	31378.47
588.21	31276.07
588.407	31544.35
588.604	31030.31
588.801	30751.79
588.999	31276.07
589.196	30979.11
589.393	30870.57
589.59	30839.85
589.787	30807.08
589.984	30858.28
590.182	30290.99
590.379	30759.98
590.576	30342.19
590.773	30344.24
590.97	30153.78
591.167	30334
591.364	30098.48
591.561	30125.11
591.758	29701.18
591.955	29776.95
592.152	30110.77
592.349	29625.4
592.546	29613.12
592.743	29318.21
592.94	29174.85
593.137	29350.98
593.334	28980.29
593.531	29058.12
593.727	29207.62
593.924	29027.4
594.121	28611.66
594.318	28988.49
594.515	28288.08
594.712	29154.37
594.908	28548.17
595.105	28941.38
595.302	28148.82
595.499	28535.88
595.696	27962.45
595.892	28191.83
596.089	28355.66
596.286	27909.21
596.482	28179.54
596.679	27980.89
596.876	27786.33
597.072	28023.89
597.269	27771.99
597.466	27434.08
597.662	27561.05
597.859	27309.15
598.055	27438.17
598.252	27044.96
598.448	26999.91
598.645	27397.21
598.841	26745.96
599.038	27200.61
599.234	26975.33
599.431	26637.42
599.627	26983.52
599.824	26653.8
600.02	26422.38
600.217	26723.43
600.413	26569.83
600.609	26084.47
600.806	26276.98
601.002	26225.78
601.198	26442.86
601.395	25947.25
601.591	26072.18
601.787	25863.29
601.984	25934.96
602.18	26008.69
602.376	25613.43
602.572	25834.61
602.769	25035.91
602.965	25320.57
603.161	25638.01
603.357	25058.43
603.553	25134.21
603.75	24988.8
603.946	25054.34
604.142	24827.01
604.338	24581.26
604.534	24763.53
604.73	24493.19
604.926	24855.68
605.122	24824.97
605.318	24267.92
605.514	24177.81
605.71	24151.18
605.906	24245.39
606.102	24315.02
606.298	24534.15
606.494	24267.92
606.69	24114.32
606.886	24091.79
607.082	23923.86
607.278	23975.06
607.474	23858.32
607.67	23891.09
607.866	23692.44
608.062	24126.61
608.257	23411.87
608.453	23626.9
608.649	23575.7
608.845	23534.74
609.041	23530.65
609.236	23608.47
609.432	23497.88
609.628	23397.53
609.824	23069.86
610.019	23137.44
610.215	23309.47
610.411	23274.65
610.606	22918.31
610.802	23188.64
610.998	23037.09
611.193	23164.06
611.389	22848.68
611.584	22469.8
611.78	22760.61
611.976	22969.51
612.171	22733.99
612.367	22832.29
612.562	22469.8
612.758	22234.28
612.953	22328.49
613.149	22615.21
613.344	22361.26
613.539	22688.93
613.735	22346.92
613.93	22535.34
614.126	22244.52
614.321	22398.12
614.517	22185.13
614.712	22244.52
614.907	21828.79
615.103	22293.68
615.298	21824.69
615.493	22592.68
615.688	21824.69
615.884	22027.44
616.079	21757.11
616.274	22056.11
616.47	21929.14
616.665	21830.83
616.86	21669.05
617.055	21687.48
617.25	21736.63
617.445	21984.43
617.641	21249.21
617.836	21759.16
618.031	21138.62
618.226	21449.91
618.421	21249.21
618.616	21431.48
618.811	21103.81
619.006	21333.18
619.201	20749.51
619.396	21036.22
619.591	20755.65
619.786	20835.52
619.981	20735.17
620.176	20929.73
620.371	20313.29
620.566	20565.19
620.761	20403.4
620.956	20276.43
621.151	20088.01
621.346	20108.49
621.541	20092.11
621.735	20135.12
621.93	19805.39
622.125	19791.06
622.32	19586.26
622.515	19492.05
622.709	19565.78
622.904	19481.81
623.099	19461.34
623.294	19285.21
623.488	19250.39
623.683	19037.41
623.878	18701.54
624.072	19014.88
624.267	18619.62
624.462	18713.83
624.656	18552.04
624.851	18523.37
625.046	18429.16
625.24	18267.37
625.435	17988.85
625.629	18173.16
625.824	17886.45
626.018	18185.45
626.213	17439.99
626.407	17636.59
626.602	17243.38
626.796	17521.91
626.991	17341.69
627.185	17345.78
627.38	17124.6
627.574	17124.6
627.768	17059.07
627.963	16674.05
628.157	16467.2
628.352	16989.44
628.546	16389.38
628.74	16561.41
628.935	16461.06
629.129	16432.39
629.323	16037.13
629.517	16145.67
629.712	16051.47
629.906	16037.13
630.1	15891.73
630.294	15693.07
630.489	15576.34
630.683	15809.81
630.877	15211.8
631.071	15551.76
631.265	15648.02
631.459	15381.78
631.653	15340.82
631.848	15187.22
632.042	15201.56
632.236	15078.68
632.43	15082.78
632.624	15060.25
632.818	14871.84
633.012	14591.27
633.206	14925.08
633.4	14652.7
633.594	14460.2
633.788	14361.89
633.982	14535.97
634.176	14288.17
634.369	14155.05
634.563	14269.73
634.757	13954.35
634.951	14226.73
635.145	14007.59
635.339	14097.7
635.533	13497.65
635.726	13892.91
635.92	13491.51
636.114	13579.57
636.308	13532.47
636.501	13534.51
636.695	13561.14
636.889	13323.57
637.083	13389.11
637.276	12971.32
637.47	12926.27
637.664	12889.4
637.857	13192.5
638.051	12989.75
638.244	12932.41
638.438	12956.99
638.632	12907.84
638.825	12768.57
639.019	12592.45
639.212	12389.7
639.406	12397.89
639.599	12227.91
639.793	12463.43
639.986	12264.77
640.18	12107.08
640.373	12006.73
640.567	12053.83
640.76	12246.34
640.954	11894.09
641.147	11844.94
641.34	11601.23
641.534	11963.72
641.727	11771.21
641.92	11816.27
642.114	11601.23
642.307	11681.1
642.5	11300.18
642.694	11355.47
642.887	11283.8
643.08	11453.78
643.273	11330.9
643.467	11005.27
643.66	11111.77
643.853	11248.98
644.046	10790.24
644.239	10954.07
644.432	10917.21
644.626	10775.9
644.819	10810.72
645.012	10788.19
645.205	10831.19
645.398	10704.22
645.591	10589.53
645.784	10478.94
645.977	10384.74
646.17	10429.79
646.363	10311.01
646.556	10173.8
646.749	10222.95
646.942	10319.2
647.135	10173.8
647.328	10073.45
647.521	10251.62
647.714	9991.53
647.907	9979.24
648.099	9731.44
648.292	9930.09
648.485	9866.6
648.678	9620.85
648.871	9510.25
649.064	9508.21
649.256	9620.85
649.449	9459.06
649.642	9401.71
649.835	9495.92
650.027	9346.42
650.22	9229.68
650.413	9291.12
650.605	9389.42
650.798	9209.2
650.991	9018.74
651.183	9278.83
651.376	8938.87
651.568	9014.65
651.761	8936.82
651.954	9006.45
652.146	8807.8
652.339	8924.54
652.531	8850.81
652.724	8635.77
652.916	8734.07
653.109	8693.12
653.301	8646.01
653.494	8533.37
653.686	8375.68
653.879	8488.32
654.071	8537.47
654.263	8410.5
654.456	8336.77
654.648	8332.67
654.84	8357.25
655.033	8146.31
655.225	8160.64
655.417	7947.65
655.61	7994.76
655.802	8111.49
655.994	8037.77
656.186	8076.68
656.379	7875.98
656.571	8080.77
656.763	7892.36
656.955	7710.09
657.148	7558.54
657.34	7720.33
657.532	7662.99
657.724	7550.35
657.916	7505.29
658.108	7603.6
658.3	7851.4
658.492	7493.01
658.684	7417.23
658.876	7267.73
659.068	7329.17
659.26	7292.3
659.452	7370.13
659.644	7327.12
659.836	7136.66
660.028	7218.58
660.22	6991.25
660.412	7196.05
660.604	6886.81
660.796	7064.98
660.988	7132.56
661.18	6821.27
661.372	6761.88
661.563	6655.39
661.755	6813.08
661.947	6874.52
662.139	6718.87
662.331	6575.52
662.522	6612.38
662.714	6698.39
662.906	6581.66
663.097	6573.47
663.289	6567.32
663.481	6493.6
663.673	6618.52
663.864	6393.25
664.056	6305.18
664.247	6452.64
664.439	6340
664.631	6188.45
664.822	6155.68
665.014	6274.46
665.205	6258.08
665.397	6147.49
665.588	6151.59
665.78	6090.15
665.971	6120.87
666.163	6100.39
666.354	5995.94
666.546	6147.49
666.737	5889.45
666.929	5985.7
667.12	5903.78
667.311	5887.4
667.503	5920.17
667.694	5772.71
667.885	5637.55
668.077	5778.86
668.268	5813.67
668.459	5768.62
668.651	5772.71
668.842	5670.31
669.033	5561.77
669.224	5610.92
669.416	5674.41
669.607	5500.33
669.798	5486
669.989	5369.26
670.18	5516.72
670.371	5430.7
670.563	5275.06
670.754	5514.67
670.945	5324.21
671.136	5518.76
671.327	5270.96
671.518	5440.94
671.709	5213.62
671.9	5260.72
672.091	5158.32
672.282	5158.32
672.473	5203.38
672.664	5189.04
672.855	5223.86
673.046	5215.66
673.237	5164.47
673.428	5129.65
673.619	5008.82
673.809	4986.29
674	4894.13
674.191	5078.45
674.382	4971.96
674.573	4883.89
674.764	5090.74
674.954	4855.22
675.145	4877.75
675.336	4953.52
675.527	4961.72
675.717	4916.66
675.908	4732.34
676.099	4830.65
676.289	4658.62
676.48	4664.76
676.671	4646.33
676.861	4816.31
677.052	4679.1
677.243	4648.38
677.433	4691.38
677.624	4761.02
677.814	4670.9
678.005	4728.25
678.195	4560.31
678.386	4642.23
678.576	4586.94
678.767	4607.42
678.957	4650.43
679.148	4715.96
679.338	4431.29
679.529	4482.49
679.719	4548.03
679.909	4486.59
680.1	4406.72
680.29	4570.55
680.481	4451.77
680.671	4285.89
680.861	4363.71
681.052	4437.44
681.242	4378.05
681.432	4402.62
681.622	4363.71
681.813	4236.74
682.003	4267.45
682.193	4179.39
682.383	4363.71
682.573	4263.36
682.764	4322.75
682.954	4206.02
683.144	4142.53
683.334	4183.49
683.524	4169.15
683.714	4201.92
683.904	4105.67
684.094	4156.86
684.284	4122.05
684.474	4101.57
684.664	4169.15
684.854	4160.96
685.044	4068.8
685.234	4101.57
685.424	3911.11
685.614	4025.79
685.804	4013.51
685.994	3999.17
686.184	3843.53
686.374	3976.64
686.564	3935.68
686.753	4081.09
686.943	3962.31
687.133	3876.29
687.323	3907.01
687.513	3864.01
687.702	3882.44
687.892	3880.39
688.082	3800.52
688.272	3632.58
688.461	3626.44
688.651	3777.99
688.841	3661.26
689.03	3757.51
689.22	3796.42
689.41	3632.58
689.599	3534.28
689.789	3648.97
689.979	3667.4
690.168	3509.71
690.358	3392.97
690.547	3558.86
690.737	3575.24
690.926	3509.71
691.116	3509.71
691.305	3358.16
691.495	3255.76
691.684	3452.36
691.874	3444.17
692.063	3376.59
692.252	3368.4
692.442	3382.73
692.631	3288.53
692.82	3249.61
693.01	3278.29
693.199	3352.01
693.388	3413.45
693.578	3339.73
693.767	3198.42
693.956	3237.33
694.146	3245.52
694.335	3167.7
694.524	3093.97
694.713	3188.18
694.902	3003.86
695.092	3198.42
695.281	2958.8
695.47	2997.71
695.659	3077.59
695.848	3020.24
696.037	3085.78
696.226	3018.19
696.415	3028.43
696.604	3130.83
696.793	3091.92
696.982	2844.12
697.171	3055.06
697.36	2989.52
697.549	2756.05
697.738	2885.08
697.927	2946.52
698.116	3100.11
698.305	2876.88
698.494	2995.67
698.683	2889.17
698.872	2987.47
699.061	2936.28
699.25	2950.61
699.438	2889.17
699.627	2774.49
699.816	2807.25
700.005	2876.88
700.193	2893.27
700.382	2860.5
700.571	2827.73
700.76	2833.88
700.948	2797.01
701.137	2694.61
701.326	2776.53
701.514	2733.53
701.703	2862.55
701.892	2794.97
702.08	2864.6
702.269	2760.15
702.457	2741.72
702.646	2704.85
702.834	2784.73
703.023	2672.09
703.212	2698.71
703.4	2690.52
703.589	2655.7
703.777	2715.09
703.965	2745.81
704.154	2702.81
704.342	2774.49
704.531	2743.77
704.719	2739.67
704.907	2618.84
705.096	2633.18
705.284	2663.9
705.472	2627.03
705.661	2653.66
705.849	2821.59
706.037	2602.46
706.226	2725.33
706.414	2674.14
706.602	2659.8
706.79	2565.59
706.979	2717.14
707.167	2592.22
707.355	2696.66
707.543	2731.48
707.731	2700.76
707.919	2627.03
708.107	2541.02
708.296	2665.94
708.484	2569.69
708.672	2756.05
708.86	2639.32
709.048	2610.65
709.236	2641.37
709.424	2571.74
709.612	2762.2
709.8	2487.77
709.988	2543.07
710.176	2665.94
710.364	2723.29
710.551	2661.85
710.739	2667.99
710.927	2631.13
711.115	2532.83
711.303	2598.36
711.491	2549.21
711.679	2655.7
711.866	2571.74
712.054	2594.26
712.242	2602.46
712.43	2708.95
712.617	2594.26
712.805	2649.56
712.993	2651.61
713.181	2577.88
713.368	2440.67
713.556	2635.22
713.744	2639.32
713.931	2586.07
714.119	2608.6
714.306	2500.06
714.494	2627.03
714.682	2567.64
714.869	2594.26
715.057	2633.18
715.244	2577.88
715.432	2725.33
715.619	2516.44
715.807	2549.21
715.994	2518.49
716.182	2567.64
716.369	2590.17
716.556	2514.39
716.744	2485.72
716.931	2553.31
717.119	2684.38
717.306	2624.98
717.493	2555.35
717.681	2627.03
717.868	2526.68
718.055	2700.76
718.242	2590.17
718.43	2647.51
718.617	2553.31
718.804	2594.26
718.991	2670.04
719.179	2715.09
719.366	2575.83
719.553	2545.11
719.74	2579.93
719.927	2739.67
720.114	2655.7
720.301	2584.02
720.488	2586.07
720.676	2680.28
720.863	2442.71
721.05	2516.44
721.237	2663.9
721.424	2667.99
721.611	2616.79
721.798	2459.1
721.985	2545.11
722.172	2524.63
722.358	2514.39
722.545	2586.07
722.732	2629.08
722.919	2518.49
723.106	2481.63
723.293	2663.9
723.48	2534.87
723.667	2526.68
723.853	2541.02
724.04	2567.64
724.227	2573.78
724.414	2524.63
724.6	2618.84
724.787	2672.09
724.974	2569.69
725.161	2616.79
725.347	2545.11
725.534	2448.86
725.72	2541.02
725.907	2592.22
726.094	2399.71
726.28	2477.53
726.467	2639.32
726.653	2473.43
726.84	2428.38
727.027	2622.94
727.213	2483.67
727.4	2567.64
727.586	2694.61
727.773	2610.65
727.959	2555.35
728.145	2545.11
728.332	2502.11
728.518	2493.91
728.705	2424.28
728.891	2545.11
729.077	2608.6
729.264	2377.18
729.45	2514.39
729.636	2528.73
729.823	2489.82
730.009	2543.07
730.195	2536.92
730.382	2397.66
730.568	2512.35
730.754	2557.4
730.94	2561.5
731.126	2526.68
731.313	2508.25
731.499	2594.26
731.685	2444.76
731.871	2551.26
732.057	2502.11
732.243	2424.28
732.429	2432.47
732.615	2457.05
732.801	2397.66
732.987	2510.3
733.173	2414.04
733.359	2547.16
733.545	2444.76
733.731	2522.59
733.917	2561.5
734.103	2455
734.289	2569.69
734.475	2440.67
734.661	2512.35
734.847	2340.32
735.033	2444.76
735.219	2514.39
735.404	2485.72
735.59	2420.19
735.776	2428.38
735.962	2387.42
736.148	2536.92
736.333	2317.79
736.519	2366.94
736.705	2430.43
736.89	2323.93
737.076	2344.41
737.262	2266.59
737.447	2409.95
737.633	2311.64
737.819	2344.41
738.004	2395.61
738.19	2270.69
738.375	2364.89
738.561	2262.49
738.747	2303.45
738.932	2412
739.118	2311.64
739.303	2336.22
739.489	2309.6
739.674	2217.44
739.859	2182.62
740.045	2332.12
740.23	2192.86
740.416	2248.16
740.601	2338.27
740.786	2256.35
740.972	2266.59
741.157	2260.45
741.342	2170.33
741.528	2256.35
741.713	2108.9
741.898	2244.06
742.084	2166.24
742.269	2190.81
742.454	2223.58
742.639	2176.48
742.824	2188.77
743.01	2199.01
743.195	2115.04
743.38	2127.33
743.565	2160.1
743.75	2143.71
743.935	2090.46
744.12	2248.16
744.305	2102.75
744.49	2182.62
744.675	2008.55
744.86	2078.18
745.045	2029.03
745.23	2156
745.415	2014.69
745.6	1959.39
745.785	2112.99
745.97	2010.59
746.155	1998.31
746.34	2074.08
746.525	1875.43
746.71	2000.35
746.895	1916.39
747.079	1895.91
747.264	1973.73
747.449	1918.43
747.634	1953.25
747.819	1873.38
748.003	1971.68
748.188	1857
748.373	1848.8
748.557	1748.45
748.742	1873.38
748.927	1789.41
749.111	1834.47
749.296	1807.84
749.481	1789.41
749.665	1727.97
749.85	1672.68
750.034	1828.32
750.219	1707.49
750.404	1756.65
750.588	1613.29
750.773	1672.68
750.957	1676.77
751.141	1570.28
751.326	1672.68
751.51	1773.03
751.695	1732.07
751.879	1621.48
752.064	1732.07
752.248	1727.97
752.432	1619.43
752.617	1529.32
752.801	1629.67
752.985	1582.57
753.17	1580.52
753.354	1633.77
753.538	1541.61
753.722	1562.09
753.907	1471.98
754.091	1471.98
754.275	1498.6
754.459	1484.27
754.643	1533.42
754.828	1398.25
755.012	1508.84
755.196	1394.15
755.38	1445.35
755.564	1345
755.748	1447.4
755.932	1406.44
756.116	1402.35
756.3	1435.11
756.484	1375.72
756.668	1308.14
756.852	1338.86
757.036	1414.63
757.22	1279.47
757.404	1322.48
757.588	1310.19
757.772	1308.14
757.956	1410.54
758.14	1275.37
758.323	1322.48
758.507	1304.04
758.691	1207.79
758.875	1312.24
759.059	1295.85
759.242	1244.65
759.426	1258.99
759.61	1275.37
759.794	1242.61
759.977	1273.32
760.161	1177.07
760.345	1119.73
760.528	1267.18
760.712	1142.25
760.895	1179.12
761.079	1209.84
761.263	1172.97
761.446	1177.07
761.63	1150.45
761.813	1215.98
761.997	1095.15
762.18	1084.91
762.364	1160.69
762.547	1105.39
762.731	1158.64
762.914	1015.28
763.098	1062.38
763.281	1093.1
763.464	1084.91
763.648	1046
763.831	1140.21
764.015	1179.12
764.198	1099.25
764.381	1080.82
764.564	1072.62
764.748	1019.38
764.931	1095.15
765.114	1066.48
765.297	994.8
765.481	914.93
765.664	996.85
765.847	1035.76
766.03	1082.86
766.213	1048.05
766.397	1033.71
766.58	1035.76
766.763	974.32
766.946	1041.9
767.129	1074.67
767.312	1017.33
767.495	966.13
767.678	970.23
767.861	998.9
768.044	1021.42
768.227	939.51
768.41	1041.9
768.593	1011.18
768.776	982.51
768.959	941.55
769.142	970.23
769.324	947.7
769.507	939.51
769.69	1005.04
769.873	896.5
770.056	929.27
770.239	906.74
770.421	910.83
770.604	839.16
770.787	886.26
770.97	945.65
771.152	929.27
771.335	873.97
771.518	919.03
771.7	976.37
771.883	910.83
772.066	953.84
772.248	933.36
772.431	830.96
772.613	849.4
772.796	876.02
772.978	753.14
773.161	808.44
773.343	910.83
773.526	835.06
773.708	818.68
773.891	796.15
774.073	759.28
774.256	841.2
774.438	882.16
774.621	783.86
774.803	722.42
774.985	818.68
775.168	810.48
775.35	681.46
775.532	814.58
775.715	738.8
775.897	720.37
776.079	773.62
776.261	798.2
776.444	757.24
776.626	759.28
776.808	765.43
776.99	787.96
777.173	667.13
777.355	687.61
777.537	689.65
777.719	798.2
777.901	716.28
778.083	761.33
778.265	706.04
778.447	751.09
778.629	722.42
778.811	660.98
778.993	628.21
779.175	767.48
779.357	685.56
779.539	693.75
779.721	628.21
779.903	648.69
780.085	546.3
780.267	599.54
780.449	701.94
780.631	654.84
780.812	675.32
780.994	599.54
781.176	574.97
781.358	525.82
781.54	568.82
781.721	632.31
781.903	656.89
782.085	566.78
782.267	593.4
782.448	617.97
782.63	644.6
782.812	587.26
782.993	501.24
783.175	499.19
783.357	585.21
783.538	550.39
783.72	456.19
783.901	536.06
784.083	658.93
784.264	544.25
784.446	521.72
784.627	439.8
784.809	488.95
784.99	478.71
785.172	574.97
785.353	493.05
785.535	538.1
785.716	456.19
785.897	521.72
786.079	517.62
786.26	454.14
786.441	474.62
786.623	472.57
786.804	452.09
786.985	480.76
787.167	486.9
787.348	472.57
787.529	501.24
787.71	503.29
787.891	441.85
788.073	423.42
788.254	447.99
788.435	486.9
788.616	327.16
788.797	421.37
788.978	400.89
789.159	462.33
789.34	464.38
789.522	394.75
789.703	380.41
789.884	357.88
790.065	419.32
790.246	413.18
790.427	386.55
790.607	445.95
790.788	341.5
790.969	321.02
791.15	390.65
791.331	314.88
791.512	460.28
791.693	407.03
791.874	400.89
792.054	415.23
792.235	425.47
792.416	310.78
792.597	390.65
792.778	327.16
792.958	331.26
793.139	304.64
793.32	435.71
793.5	357.88
793.681	396.79
793.862	380.41
794.042	347.64
794.223	282.11
794.404	380.41
794.584	384.51
794.765	296.44
794.945	278.01
795.126	318.97
795.306	380.41
795.487	296.44
795.667	251.39
795.848	325.12
796.028	298.49
796.209	304.64
796.389	359.93
796.57	312.83
796.75	273.92
796.93	308.73
797.111	273.92
797.291	286.2
797.471	241.15
797.652	284.16
797.832	280.06
798.012	339.45
798.192	280.06
798.373	300.54
798.553	300.54
798.733	351.74
798.913	310.78
799.093	263.68
799.274	372.22
799.454	247.29
799.634	304.64
799.814	275.96
799.994	347.64
800.174	325.12
800.354	341.5
800.534	275.96
800.714	204.28
800.894	200.19
801.074	210.43
801.254	228.86
801.434	198.14
801.614	251.39
801.794	257.53
801.974	632.31
802.154	259.58
802.334	343.55
802.514	218.62
802.693	247.29
802.873	202.24
803.053	273.92
803.233	235
803.413	222.72
803.592	175.61
803.772	245.24
803.952	175.61
804.131	202.24
804.311	173.57
804.491	192
804.67	212.48
804.85	237.05
805.03	216.57
805.209	218.62
805.389	159.23
805.568	138.75
805.748	214.52
805.928	173.57
806.107	138.75
806.287	212.48
806.466	130.56
806.646	179.71
806.825	210.43
807.004	212.48
807.184	200.19
807.363	222.72
807.543	179.71
807.722	161.28
807.901	232.96
808.081	157.18
808.26	95.74
808.439	249.34
808.619	194.05
808.798	212.48
808.977	214.52
809.156	196.09
809.336	208.38
809.515	282.11
809.694	200.19
809.873	185.85
810.052	138.75
810.231	251.39
810.411	120.32
810.59	192
810.769	175.61
810.948	151.04
811.127	134.65
811.306	183.81
811.485	216.57
811.664	165.37
811.843	261.63
812.022	196.09
812.201	108.03
812.38	163.33
812.559	157.18
812.737	87.55
812.916	132.61
813.095	118.27
813.274	75.26
813.453	126.46
813.632	181.76
813.811	181.76
813.989	112.13
814.168	212.48
814.347	134.65
814.526	87.55
814.704	194.05
814.883	120.32
815.062	144.89
815.24	163.33
815.419	146.94
815.598	218.62
815.776	185.85
815.955	148.99
816.133	116.22
816.312	161.28
816.49	185.85
816.669	124.41
816.847	146.94
817.026	157.18
817.204	101.89
817.383	189.95
817.561	130.56
817.74	181.76
817.918	128.51
818.097	198.14
818.275	112.13
818.453	38.4
818.632	85.5
818.81	157.18
818.988	67.07
819.167	132.61
819.345	165.37
819.523	103.93
819.701	124.41
819.879	140.8
820.058	85.5
820.236	99.84
820.414	112.13
820.592	87.55
820.77	179.71
820.948	138.75
821.127	101.89
821.305	194.05
821.483	128.51
821.661	136.7
821.839	103.93
822.017	93.69
822.195	99.84
822.373	101.89
822.551	122.37
822.729	200.19
822.907	151.04
823.085	101.89
823.262	169.47
823.44	85.5
823.618	71.17
823.796	136.7
823.974	38.4
824.152	142.85
824.329	108.03
824.507	136.7
824.685	93.69
824.863	132.61
825.04	110.08
825.218	161.28
825.396	175.61
825.574	124.41
825.751	89.6
825.929	97.79
826.107	71.17
826.284	87.55
826.462	93.69
826.639	93.69
826.817	71.17
826.994	142.85
827.172	5.63
827.349	73.21
827.527	44.54
827.704	77.31
827.882	73.21
828.059	56.83
828.237	110.08
828.414	126.46
828.591	87.55
828.769	99.84
828.946	138.75
829.124	62.98
829.301	79.36
829.478	38.4
829.655	93.69
829.833	77.31
830.01	118.27
830.187	52.74
830.364	132.61
830.542	97.79
830.719	95.74
830.896	81.41
831.073	5.63
831.25	138.75
831.427	101.89
831.604	83.45
831.782	52.74
831.959	108.03
832.136	93.69
832.313	83.45
832.49	9.73
832.667	73.21
832.844	87.55
833.021	60.93
833.198	60.93
833.374	-0.51
833.551	69.12
833.728	77.31
833.905	89.6
834.082	40.45
834.259	50.69
834.436	89.6
834.612	69.12
834.789	114.17
834.966	65.02
835.143	46.59
835.319	87.55
835.496	110.08
835.673	58.88
835.85	122.37
836.026	87.55
836.203	89.6
836.38	69.12
836.556	73.21
836.733	81.41
836.909	99.84
837.086	134.65
837.262	62.98
837.439	95.74
837.616	105.98
837.792	99.84
837.968	95.74
838.145	62.98
838.321	54.78
838.498	7.68
838.674	5.63
838.851	38.4
839.027	91.65
839.203	30.21
839.38	83.45
839.556	30.21
839.732	103.93
839.909	34.3
840.085	85.5
840.261	32.26
840.437	108.03
840.614	60.93
840.79	22.02
840.966	9.73
841.142	103.93
841.318	97.79
841.494	48.64
841.671	65.02
841.847	44.54
842.023	42.5
842.199	52.74
842.375	56.83
842.551	50.69
842.727	13.82
842.903	50.69
843.079	65.02
843.255	15.87
843.431	67.07
843.607	56.83
843.783	32.26
843.959	108.03
844.134	54.78
844.31	13.82
844.486	-0.51
844.662	-2.56
844.838	32.26
845.013	46.59
845.189	9.73
845.365	165.37
845.541	46.59
845.716	46.59
845.892	69.12
846.068	22.02
846.244	-47.62
846.419	103.93
846.595	85.5
846.77	75.26
846.946	-41.47
847.122	48.64
847.297	71.17
847.473	73.21
847.648	81.41
847.824	15.87
847.999	11.78
848.175	99.84
848.35	11.78
848.526	30.21
848.701	22.02
848.876	75.26
849.052	-0.51
849.227	99.84
849.403	30.21
849.578	36.35
849.753	46.59
849.929	83.45
850.104	17.92
850.279	97.79
850.454	95.74
850.63	110.08
850.805	-10.75
850.98	48.64
851.155	-29.18
851.33	50.69
851.505	3.58
851.681	40.45
851.856	15.87
852.031	54.78
852.206	26.11
852.381	46.59
852.556	7.68
852.731	-23.04
852.906	89.6
853.081	85.5
853.256	-2.56
853.431	32.26
853.606	95.74
853.781	1.54
853.956	50.69
854.131	52.74
854.305	7.68
854.48	1.54
854.655	34.3
854.83	38.4
855.005	-27.14
855.18	32.26
855.354	24.06
855.529	77.31
855.704	19.97
855.879	62.98
856.053	-2.56
856.228	48.64
856.403	54.78
856.577	-0.51
856.752	38.4
856.926	-8.7
857.101	3.58
857.276	34.3
857.45	-10.75
857.625	62.98
857.799	62.98
857.974	-35.33
858.148	40.45
858.323	34.3
858.497	22.02
858.672	34.3
858.846	-33.28
859.02	17.92
859.195	-90.62
859.369	19.97
859.543	17.92
859.718	71.17
859.892	105.98
860.066	30.21
860.241	58.88
860.415	30.21
860.589	65.02
860.763	73.21
860.938	-49.66
861.112	30.21
861.286	7.68
861.46	58.88
861.634	22.02
861.808	13.82
861.982	17.92
862.157	-33.28
862.331	-57.86
862.505	-23.04
862.679	71.17
862.853	-8.7
863.027	-8.7
863.201	54.78
863.375	54.78
863.549	5.63
863.722	67.07
863.896	52.74
864.07	-12.8
864.244	32.26
864.418	58.88
864.592	24.06
864.766	69.12
864.939	42.5
865.113	52.74
865.287	26.11
865.461	-6.66
865.634	42.5
865.808	-12.8
865.982	62.98
866.156	28.16
866.329	-45.57
866.503	46.59
866.676	-76.29
866.85	13.82
867.024	26.11
867.197	50.69
867.371	19.97
867.544	36.35
867.718	7.68
867.891	42.5
868.065	65.02
868.238	-43.52
868.412	60.93
868.585	1.54
868.759	11.78
868.932	38.4
869.105	-53.76
869.279	22.02
869.452	30.21
869.625	60.93
869.799	-41.47
869.972	-27.14
870.145	34.3
870.319	-27.14
870.492	-29.18
870.665	11.78
870.838	11.78
871.011	-35.33
871.185	26.11
871.358	24.06
871.531	3.58
871.704	13.82
871.877	34.3
872.05	-16.9
872.223	28.16
872.396	81.41
872.569	-72.19
872.742	5.63
872.915	22.02
873.088	40.45
873.261	34.3
873.434	52.74
873.607	58.88
873.78	22.02
873.953	11.78
874.126	-20.99
874.299	46.59
874.471	17.92
874.644	40.45
874.817	75.26
874.99	56.83
875.163	9.73
875.335	-20.99
875.508	-0.51
875.681	-35.33
875.853	28.16
876.026	13.82
876.199	44.54
876.371	124.41
876.544	-41.47
876.717	-25.09
876.889	-111.1
877.062	-66.05
877.234	-6.66
877.407	7.68
877.579	95.74
877.752	26.11
877.924	22.02
878.097	-27.14
878.269	9.73
878.442	1.54
878.614	-35.33
878.786	30.21
878.959	-20.99
879.131	-2.56
879.303	-18.94
879.476	50.69
879.648	-8.7
879.82	54.78
879.993	54.78
880.165	-25.09
880.337	30.21
880.509	9.73
880.681	-4.61
880.854	13.82
881.026	83.45
881.198	95.74
881.37	17.92
881.542	-2.56
881.714	56.83
881.886	-18.94
882.058	28.16
882.23	-10.75
882.402	44.54
882.574	-29.18
882.746	112.13
882.918	11.78
883.09	-4.61
883.262	42.5
883.434	26.11
883.606	95.74
883.778	7.68
883.95	77.31
884.122	-80.38
884.293	34.3
884.465	17.92
884.637	17.92
884.809	5.63
884.98	60.93
885.152	15.87
885.324	46.59
885.496	-20.99
885.667	3.58
885.839	7.68
886.011	54.78
886.182	-55.81
886.354	-0.51
886.525	-43.52
886.697	58.88
886.869	-41.47
887.04	-4.61
887.212	5.63
887.383	40.45
887.555	11.78
887.726	-49.66
887.897	-29.18
888.069	-31.23
888.24	-8.7
888.412	7.68
888.583	13.82
888.754	13.82
888.926	-4.61
889.097	-8.7
889.268	-20.99
889.44	-39.42
889.611	5.63
889.782	-59.9
889.953	-45.57
890.125	40.45
890.296	30.21
890.467	-64
890.638	-45.57
890.809	-23.04
890.98	-35.33
891.151	5.63
891.323	1.54
891.494	-68.09
891.665	-18.94
891.836	17.92
892.007	69.12
892.178	60.93
892.349	32.26
892.52	56.83
892.691	-29.18
892.862	1.54
893.032	-33.28
893.203	24.06
893.374	19.97
893.545	11.78
893.716	-55.81
893.887	-2.56
894.057	15.87
894.228	-2.56
894.399	-51.71
894.57	11.78
894.74	22.02
894.911	44.54
895.082	-20.99
895.253	-2.56
895.423	-47.62
895.594	-6.66
895.764	-59.9
895.935	-0.51
896.106	69.12
896.276	54.78
896.447	93.69
896.617	22.02
896.788	40.45
896.958	-27.14
897.129	-51.71
897.299	-16.9
897.47	-27.14
897.64	79.36
897.81	71.17
897.981	-61.95
898.151	-4.61
898.322	24.06
898.492	22.02
898.662	-37.38
898.832	-29.18
899.003	-43.52
899.173	-18.94
899.343	17.92
899.513	-6.66
