Data from USB4F104151__44__11-36-59-224.txt Node

Date: Fri Mar 14 11:36:59 EDT 2025
User: louis
Spectrometer: USB4F10415
Trigger mode: 4
Integration Time (sec): 2.000000E-2
Scans to average: 1
Electric dark correction enabled: true
Nonlinearity correction enabled: false
Boxcar width: 0
XAxis mode: Wavelengths
Number of Pixels in Spectrum: 3648
>>>>>Begin Spectral Data<<<<<
178.204	-44.88
178.424	-44.88
178.644	-44.88
178.864	-67.41
179.084	-38.74
179.304	-26.45
179.524	-8.02
179.744	0.17
179.964	47.27
180.184	53.42
180.404	24.75
180.624	-38.74
180.844	12.46
181.064	-73.56
181.283	-16.21
181.503	6.31
181.723	18.6
181.943	-44.88
182.163	53.42
182.383	4.27
182.602	51.37
182.822	90.28
183.042	-8.02
183.262	49.32
183.482	73.9
183.701	92.33
183.921	71.85
184.141	-12.12
184.361	51.37
184.58	55.47
184.8	47.27
185.02	-12.12
185.239	57.51
185.459	67.75
185.679	65.71
185.898	28.84
186.118	34.99
186.338	96.43
186.557	6.31
186.777	-40.79
186.997	67.75
187.216	30.89
187.436	37.03
187.655	51.37
187.875	28.84
188.095	43.18
188.314	59.56
188.534	67.75
188.753	22.7
188.973	4.27
189.192	77.99
189.412	106.67
189.631	8.36
189.851	6.31
190.07	8.36
190.29	16.55
190.509	4.27
190.729	43.18
190.948	104.62
191.168	69.8
191.387	59.56
191.607	43.18
191.826	34.99
192.045	-5.97
192.265	41.13
192.484	4.27
192.704	-38.74
192.923	-22.36
193.142	-1.88
193.362	90.28
193.581	49.32
193.8	98.47
194.02	2.22
194.239	-30.55
194.458	8.36
194.678	34.99
194.897	-30.55
195.116	2.22
195.335	73.9
195.555	63.66
195.774	96.43
195.993	18.6
196.212	59.56
196.432	84.14
196.651	49.32
196.87	-16.21
197.089	106.67
197.308	71.85
197.528	53.42
197.747	-1.88
197.966	-5.97
198.185	77.99
198.404	55.47
198.623	41.13
198.842	77.99
199.062	2.22
199.281	-14.17
199.5	41.13
199.719	0.17
199.938	63.66
200.157	-5.97
200.376	-46.93
200.595	75.95
200.814	32.94
201.033	80.04
201.252	100.52
201.471	-5.97
201.69	-5.97
201.909	16.55
202.128	14.51
202.347	67.75
202.566	16.55
202.785	8.36
203.004	-34.64
203.223	90.28
203.442	67.75
203.661	59.56
203.879	43.18
204.098	75.95
204.317	26.79
204.536	14.51
204.755	18.6
204.974	39.08
205.193	-3.93
205.411	69.8
205.63	39.08
205.849	125.1
206.068	20.65
206.287	-10.07
206.505	20.65
206.724	-30.55
206.943	41.13
207.162	-5.97
207.381	16.55
207.599	53.42
207.818	10.41
208.037	45.23
208.255	84.14
208.474	26.79
208.693	59.56
208.911	6.31
209.13	34.99
209.349	88.23
209.567	6.31
209.786	14.51
210.005	20.65
210.223	39.08
210.442	-5.97
210.661	41.13
210.879	26.79
211.098	53.42
211.316	14.51
211.535	98.47
211.753	82.09
211.972	14.51
212.191	43.18
212.409	26.79
212.628	26.79
212.846	57.51
213.065	12.46
213.283	59.56
213.502	53.42
213.72	73.9
213.938	67.75
214.157	16.55
214.375	34.99
214.594	80.04
214.812	2.22
215.031	102.57
215.249	-14.17
215.467	20.65
215.686	26.79
215.904	75.95
216.122	16.55
216.341	26.79
216.559	-12.12
216.778	28.84
216.996	-5.97
217.214	10.41
217.432	98.47
217.651	-1.88
217.869	-51.03
218.087	49.32
218.306	20.65
218.524	71.85
218.742	8.36
218.96	73.9
219.179	-1.88
219.397	18.6
219.615	84.14
219.833	65.71
220.051	49.32
220.27	65.71
220.488	18.6
220.706	65.71
220.924	18.6
221.142	22.7
221.36	26.79
221.578	61.61
221.796	41.13
222.015	26.79
222.233	14.51
222.451	57.51
222.669	8.36
222.887	75.95
223.105	-1.88
223.323	67.75
223.541	47.27
223.759	65.71
223.977	47.27
224.195	75.95
224.413	2.22
224.631	71.85
224.849	-22.36
225.067	77.99
225.285	16.55
225.503	32.94
225.721	-3.93
225.939	39.08
226.157	14.51
226.375	108.71
226.592	37.03
226.81	67.75
227.028	2.22
227.246	77.99
227.464	69.8
227.682	49.32
227.9	41.13
228.117	88.23
228.335	-24.4
228.553	-34.64
228.771	26.79
228.989	88.23
229.206	73.9
229.424	30.89
229.642	-22.36
229.86	45.23
230.077	26.79
230.295	37.03
230.513	16.55
230.731	67.75
230.948	43.18
231.166	12.46
231.384	12.46
231.601	125.1
231.819	92.33
232.037	51.37
232.254	57.51
232.472	86.19
232.689	-8.02
232.907	67.75
233.125	84.14
233.342	-55.12
233.56	-65.36
233.777	43.18
233.995	32.94
234.213	39.08
234.43	-34.64
234.648	49.32
234.865	65.71
235.083	71.85
235.3	55.47
235.518	-14.17
235.735	88.23
235.953	84.14
236.17	75.95
236.388	24.75
236.605	14.51
236.822	65.71
237.04	49.32
237.257	43.18
237.475	2.22
237.692	88.23
237.909	69.8
238.127	32.94
238.344	-12.12
238.562	43.18
238.779	6.31
238.996	45.23
239.214	4.27
239.431	71.85
239.648	-30.55
239.865	4.27
240.083	57.51
240.3	4.27
240.517	4.27
240.735	-1.88
240.952	22.7
241.169	65.71
241.386	14.51
241.603	51.37
241.821	14.51
242.038	73.9
242.255	-24.4
242.472	90.28
242.689	49.32
242.907	102.57
243.124	2.22
243.341	67.75
243.558	28.84
243.775	82.09
243.992	47.27
244.209	34.99
244.426	37.03
244.643	106.67
244.86	6.31
245.078	90.28
245.295	-53.08
245.512	6.31
245.729	24.75
245.946	43.18
246.163	53.42
246.38	51.37
246.597	10.41
246.814	73.9
247.031	18.6
247.248	80.04
247.464	18.6
247.681	10.41
247.898	47.27
248.115	-22.36
248.332	67.75
248.549	43.18
248.766	53.42
248.983	41.13
249.2	32.94
249.417	18.6
249.633	30.89
249.85	55.47
250.067	59.56
250.284	20.65
250.501	108.71
250.717	43.18
250.934	8.36
251.151	-5.97
251.368	28.84
251.585	41.13
251.801	32.94
252.018	16.55
252.235	26.79
252.451	8.36
252.668	53.42
252.885	67.75
253.102	69.8
253.318	28.84
253.535	18.6
253.752	43.18
253.968	49.32
254.185	-10.07
254.401	16.55
254.618	121
254.835	-18.26
255.051	94.38
255.268	41.13
255.484	84.14
255.701	4.27
255.917	82.09
256.134	12.46
256.351	37.03
256.567	-61.27
256.784	32.94
257	6.31
257.217	75.95
257.433	2.22
257.65	6.31
257.866	20.65
258.082	49.32
258.299	8.36
258.515	-20.31
258.732	10.41
258.948	26.79
259.165	39.08
259.381	24.75
259.597	116.9
259.814	73.9
260.03	43.18
260.246	90.28
260.463	22.7
260.679	10.41
260.895	20.65
261.112	-1.88
261.328	137.38
261.544	39.08
261.761	90.28
261.977	-24.4
262.193	-8.02
262.409	51.37
262.626	57.51
262.842	24.75
263.058	26.79
263.274	75.95
263.49	18.6
263.707	71.85
263.923	43.18
264.139	39.08
264.355	49.32
264.571	67.75
264.787	67.75
265.004	39.08
265.22	20.65
265.436	75.95
265.652	10.41
265.868	63.66
266.084	10.41
266.3	57.51
266.516	-61.27
266.732	57.51
266.948	32.94
267.164	32.94
267.38	55.47
267.596	73.9
267.812	-38.74
268.028	8.36
268.244	112.81
268.46	18.6
268.676	28.84
268.892	39.08
269.108	88.23
269.324	47.27
269.54	39.08
269.756	102.57
269.972	51.37
270.188	24.75
270.403	-59.22
270.619	86.19
270.835	69.8
271.051	90.28
271.267	67.75
271.483	12.46
271.698	26.79
271.914	57.51
272.13	-12.12
272.346	82.09
272.562	34.99
272.777	65.71
272.993	-22.36
273.209	47.27
273.425	43.18
273.64	14.51
273.856	-1.88
274.072	-28.5
274.287	34.99
274.503	-69.46
274.719	34.99
274.934	-18.26
275.15	-38.74
275.366	86.19
275.581	37.03
275.797	51.37
276.012	43.18
276.228	77.99
276.444	8.36
276.659	53.42
276.875	6.31
277.09	41.13
277.306	43.18
277.521	41.13
277.737	8.36
277.952	94.38
278.168	-34.64
278.383	-22.36
278.599	30.89
278.814	-44.88
279.03	22.7
279.245	47.27
279.461	-8.02
279.676	6.31
279.892	-53.08
280.107	10.41
280.322	51.37
280.538	43.18
280.753	-57.17
280.969	67.75
281.184	0.17
281.399	-5.97
281.615	41.13
281.83	57.51
282.045	-1.88
282.26	6.31
282.476	51.37
282.691	63.66
282.906	63.66
283.122	73.9
283.337	2.22
283.552	30.89
283.767	-16.21
283.983	73.9
284.198	-3.93
284.413	61.61
284.628	47.27
284.843	41.13
285.058	24.75
285.274	67.75
285.489	-5.97
285.704	-24.4
285.919	-1.88
286.134	55.47
286.349	0.17
286.564	116.9
286.779	73.9
286.995	47.27
287.21	47.27
287.425	53.42
287.64	59.56
287.855	45.23
288.07	-18.26
288.285	45.23
288.5	67.75
288.715	59.56
288.93	16.55
289.145	-30.55
289.36	65.71
289.575	53.42
289.79	-14.17
290.004	39.08
290.219	-10.07
290.434	2.22
290.649	6.31
290.864	-10.07
291.079	-22.36
291.294	10.41
291.509	55.47
291.724	8.36
291.938	47.27
292.153	-63.32
292.368	39.08
292.583	6.31
292.798	20.65
293.012	4.27
293.227	-16.21
293.442	14.51
293.657	108.71
293.871	77.99
294.086	53.42
294.301	75.95
294.516	41.13
294.73	75.95
294.945	63.66
295.16	77.99
295.374	73.9
295.589	108.71
295.804	-8.02
296.018	69.8
296.233	28.84
296.447	43.18
296.662	37.03
296.877	-32.6
297.091	75.95
297.306	2.22
297.52	-18.26
297.735	-1.88
297.949	43.18
298.164	22.7
298.378	34.99
298.593	-10.07
298.807	16.55
299.022	22.7
299.236	51.37
299.451	34.99
299.665	30.89
299.88	63.66
300.094	28.84
300.309	80.04
300.523	12.46
300.737	-18.26
300.952	43.18
301.166	43.18
301.381	51.37
301.595	86.19
301.809	-26.45
302.024	67.75
302.238	32.94
302.452	82.09
302.667	0.17
302.881	73.9
303.095	73.9
303.309	80.04
303.524	-16.21
303.738	24.75
303.952	69.8
304.166	47.27
304.381	24.75
304.595	24.75
304.809	-14.17
305.023	10.41
305.237	47.27
305.452	98.47
305.666	43.18
305.88	51.37
306.094	67.75
306.308	34.99
306.522	-22.36
306.736	-10.07
306.95	30.89
307.164	141.48
307.379	47.27
307.593	34.99
307.807	-1.88
308.021	14.51
308.235	71.85
308.449	55.47
308.663	16.55
308.877	84.14
309.091	57.51
309.305	75.95
309.519	-3.93
309.733	43.18
309.947	55.47
310.161	67.75
310.374	41.13
310.588	47.27
310.802	34.99
311.016	22.7
311.23	63.66
311.444	94.38
311.658	-22.36
311.872	59.56
312.085	18.6
312.299	20.65
312.513	37.03
312.727	65.71
312.941	24.75
313.154	8.36
313.368	106.67
313.582	57.51
313.796	49.32
314.009	-10.07
314.223	49.32
314.437	2.22
314.651	-14.17
314.864	14.51
315.078	-32.6
315.292	71.85
315.505	14.51
315.719	20.65
315.933	-12.12
316.146	4.27
316.36	8.36
316.573	137.38
316.787	53.42
317.001	18.6
317.214	43.18
317.428	45.23
317.641	-59.22
317.855	10.41
318.068	57.51
318.282	14.51
318.495	100.52
318.709	-3.93
318.922	45.23
319.136	28.84
319.349	14.51
319.563	2.22
319.776	22.7
319.99	12.46
320.203	2.22
320.417	41.13
320.63	0.17
320.843	75.95
321.057	80.04
321.27	96.43
321.483	14.51
321.697	26.79
321.91	18.6
322.124	-10.07
322.337	16.55
322.55	14.51
322.763	51.37
322.977	-26.45
323.19	39.08
323.403	26.79
323.617	34.99
323.83	32.94
324.043	14.51
324.256	34.99
324.469	34.99
324.683	47.27
324.896	6.31
325.109	18.6
325.322	30.89
325.535	47.27
325.748	22.7
325.962	-32.6
326.175	112.81
326.388	170.15
326.601	34.99
326.814	45.23
327.027	8.36
327.24	61.61
327.453	-14.17
327.666	71.85
327.879	65.71
328.092	51.37
328.305	131.24
328.518	34.99
328.731	10.41
328.944	90.28
329.157	63.66
329.37	-3.93
329.583	69.8
329.796	90.28
330.009	-1.88
330.222	47.27
330.435	24.75
330.648	47.27
330.861	-20.31
331.073	28.84
331.286	43.18
331.499	8.36
331.712	34.99
331.925	-40.79
332.138	26.79
332.35	131.24
332.563	24.75
332.776	82.09
332.989	6.31
333.202	104.62
333.414	2.22
333.627	63.66
333.84	10.41
334.053	94.38
334.265	63.66
334.478	18.6
334.691	30.89
334.903	-12.12
335.116	-14.17
335.329	-1.88
335.541	-8.02
335.754	92.33
335.966	-8.02
336.179	47.27
336.392	-46.93
336.604	39.08
336.817	73.9
337.029	51.37
337.242	73.9
337.454	67.75
337.667	20.65
337.88	82.09
338.092	59.56
338.305	100.52
338.517	-5.97
338.729	49.32
338.942	63.66
339.154	32.94
339.367	69.8
339.579	77.99
339.792	26.79
340.004	14.51
340.217	18.6
340.429	24.75
340.641	39.08
340.854	12.46
341.066	45.23
341.278	71.85
341.491	73.9
341.703	39.08
341.915	30.89
342.128	41.13
342.34	41.13
342.552	61.61
342.764	53.42
342.977	20.65
343.189	-5.97
343.401	80.04
343.613	-14.17
343.826	75.95
344.038	39.08
344.25	69.8
344.462	32.94
344.674	26.79
344.886	-18.26
345.099	24.75
345.311	41.13
345.523	67.75
345.735	18.6
345.947	0.17
346.159	84.14
346.371	34.99
346.583	8.36
346.795	69.8
347.007	47.27
347.219	-38.74
347.431	-8.02
347.643	39.08
347.855	-8.02
348.067	88.23
348.279	4.27
348.491	65.71
348.703	-14.17
348.915	69.8
349.127	75.95
349.339	75.95
349.551	-46.93
349.763	65.71
349.975	63.66
350.187	133.29
350.399	84.14
350.61	32.94
350.822	49.32
351.034	59.56
351.246	-14.17
351.458	82.09
351.669	147.62
351.881	65.71
352.093	96.43
352.305	30.89
352.517	24.75
352.728	106.67
352.94	43.18
353.152	41.13
353.363	4.27
353.575	-12.12
353.787	-42.84
353.999	129.19
354.21	32.94
354.422	57.51
354.633	-5.97
354.845	6.31
355.057	53.42
355.268	53.42
355.48	88.23
355.692	12.46
355.903	55.47
356.115	41.13
356.326	49.32
356.538	67.75
356.749	88.23
356.961	116.9
357.172	2.22
357.384	32.94
357.595	84.14
357.807	34.99
358.018	49.32
358.23	-22.36
358.441	110.76
358.653	67.75
358.864	75.95
359.075	96.43
359.287	39.08
359.498	0.17
359.709	67.75
359.921	-30.55
360.132	4.27
360.344	84.14
360.555	41.13
360.766	16.55
360.977	26.79
361.189	63.66
361.4	80.04
361.611	73.9
361.823	43.18
362.034	-18.26
362.245	-3.93
362.456	14.51
362.667	37.03
362.879	6.31
363.09	41.13
363.301	77.99
363.512	59.56
363.723	0.17
363.935	8.36
364.146	108.71
364.357	-5.97
364.568	84.14
364.779	34.99
364.99	-24.4
365.201	57.51
365.412	16.55
365.623	34.99
365.834	-24.4
366.045	73.9
366.256	100.52
366.467	32.94
366.678	123.05
366.889	63.66
367.1	37.03
367.311	-22.36
367.522	49.32
367.733	84.14
367.944	55.47
368.155	75.95
368.366	30.89
368.577	41.13
368.788	108.71
368.999	14.51
369.209	18.6
369.42	45.23
369.631	75.95
369.842	39.08
370.053	24.75
370.264	55.47
370.474	57.51
370.685	51.37
370.896	12.46
371.107	98.47
371.317	59.56
371.528	-14.17
371.739	65.71
371.95	2.22
372.16	73.9
372.371	57.51
372.582	217.26
372.792	-30.55
373.003	32.94
373.214	6.31
373.424	37.03
373.635	-36.69
373.846	77.99
374.056	92.33
374.267	84.14
374.477	71.85
374.688	20.65
374.898	24.75
375.109	28.84
375.319	59.56
375.53	65.71
375.74	28.84
375.951	-20.31
376.161	45.23
376.372	51.37
376.582	16.55
376.793	65.71
377.003	-5.97
377.214	4.27
377.424	59.56
377.635	61.61
377.845	104.62
378.055	125.1
378.266	57.51
378.476	112.81
378.686	75.95
378.897	43.18
379.107	131.24
379.317	88.23
379.528	49.32
379.738	77.99
379.948	43.18
380.158	14.51
380.369	57.51
380.579	12.46
380.789	125.1
380.999	59.56
381.21	22.7
381.42	57.51
381.63	8.36
381.84	61.61
382.05	63.66
382.261	96.43
382.471	80.04
382.681	45.23
382.891	84.14
383.101	37.03
383.311	26.79
383.521	57.51
383.731	98.47
383.941	20.65
384.151	8.36
384.361	67.75
384.571	98.47
384.781	30.89
384.991	67.75
385.201	118.95
385.411	-20.31
385.621	26.79
385.831	-5.97
386.041	73.9
386.251	-5.97
386.461	67.75
386.671	8.36
386.881	92.33
387.091	71.85
387.301	75.95
387.511	26.79
387.72	26.79
387.93	53.42
388.14	43.18
388.35	26.79
388.56	108.71
388.769	59.56
388.979	-10.07
389.189	32.94
389.399	96.43
389.609	80.04
389.818	69.8
390.028	49.32
390.238	18.6
390.447	30.89
390.657	57.51
390.867	41.13
391.076	8.36
391.286	98.47
391.496	18.6
391.705	51.37
391.915	133.29
392.125	94.38
392.334	57.51
392.544	51.37
392.753	88.23
392.963	57.51
393.172	-12.12
393.382	88.23
393.591	98.47
393.801	2.22
394.01	98.47
394.22	96.43
394.429	12.46
394.639	41.13
394.848	80.04
395.058	61.61
395.267	0.17
395.477	34.99
395.686	47.27
395.895	30.89
396.105	55.47
396.314	102.57
396.524	88.23
396.733	75.95
396.942	102.57
397.152	84.14
397.361	80.04
397.57	84.14
397.78	59.56
397.989	84.14
398.198	59.56
398.407	61.61
398.617	92.33
398.826	102.57
399.035	116.9
399.244	63.66
399.453	30.89
399.663	106.67
399.872	59.56
400.081	18.6
400.29	73.9
400.499	34.99
400.708	149.67
400.917	30.89
401.127	127.14
401.336	-48.98
401.545	135.34
401.754	133.29
401.963	127.14
402.172	32.94
402.381	82.09
402.59	123.05
402.799	88.23
403.008	106.67
403.217	129.19
403.426	121
403.635	110.76
403.844	129.19
404.053	86.19
404.262	67.75
404.471	231.59
404.68	170.15
404.888	84.14
405.097	92.33
405.306	106.67
405.515	108.71
405.724	114.86
405.933	143.53
406.142	174.25
406.35	114.86
406.559	145.58
406.768	118.95
406.977	153.77
407.185	149.67
407.394	102.57
407.603	149.67
407.812	211.11
408.02	166.06
408.229	143.53
408.438	143.53
408.646	161.96
408.855	180.39
409.064	229.54
409.272	170.15
409.481	268.45
409.69	188.58
409.898	247.97
410.107	164.01
410.315	225.45
410.524	235.69
410.733	254.12
410.941	297.13
411.15	239.78
411.358	268.45
411.567	329.89
411.775	207.02
411.984	237.74
412.192	346.28
412.401	317.61
412.609	317.61
412.818	317.61
413.026	321.7
413.234	374.95
413.443	354.47
413.651	348.33
413.86	393.38
414.068	465.06
414.276	422.05
414.485	409.76
414.693	362.66
414.901	436.39
415.11	465.06
415.318	409.76
415.526	487.59
415.734	534.69
415.943	530.59
416.151	555.17
416.359	538.79
416.567	608.42
416.776	587.94
416.984	612.51
417.192	714.91
417.4	653.47
417.608	671.9
417.817	659.62
418.025	743.58
418.233	782.49
418.441	698.53
418.649	850.08
418.857	874.65
419.065	903.32
419.273	888.99
419.481	893.09
419.689	979.1
419.897	991.39
420.105	1063.07
420.313	977.05
420.521	1169.56
420.729	1151.13
420.937	1155.23
421.145	1118.36
421.353	1187.99
421.561	1224.86
421.769	1271.96
421.977	1306.77
422.185	1302.68
422.393	1390.74
422.601	1566.87
422.809	1581.2
423.017	1431.7
423.224	1568.91
423.432	1695.89
423.64	1689.74
423.848	1775.76
424.056	1751.18
424.263	1927.31
424.471	1888.4
424.679	1869.97
424.887	1900.69
425.094	2023.56
425.302	2066.57
425.51	2070.67
425.718	2285.7
425.925	2279.56
426.133	2216.07
426.341	2443.4
426.548	2551.94
426.756	2513.03
426.964	2592.9
427.171	2744.45
427.379	2742.4
427.586	2842.75
427.794	2879.61
428.001	3143.8
428.209	3055.74
428.417	3090.56
428.624	3373.18
428.832	3467.38
429.039	3358.84
429.247	3399.8
429.454	3768.43
429.662	3831.92
429.869	3729.52
430.076	3917.93
430.284	3905.65
430.491	3864.69
430.699	4145.26
430.906	4298.86
431.114	4253.8
431.321	4321.38
431.528	4421.74
431.736	4671.59
431.943	5159
432.15	4982.88
432.358	5009.5
432.565	5034.08
432.772	5111.9
432.979	5439.58
433.187	5431.38
433.394	5380.18
433.601	5939.28
433.808	5865.55
434.016	5777.49
434.223	6209.61
434.43	6586.44
434.637	6461.51
434.844	6737.99
435.052	6975.55
435.259	6830.15
435.466	7077.95
435.673	6901.83
435.88	7276.6
436.087	7669.81
436.294	7821.36
436.501	7546.94
436.708	7821.36
436.915	7927.86
437.122	8548.39
437.329	8214.57
437.537	8249.39
437.743	8587.3
437.95	8542.25
438.157	9044
438.364	9353.24
438.571	9123.87
438.778	9377.82
438.985	10274.83
439.192	9852.95
439.399	10266.64
439.606	10192.91
439.813	10676.23
440.02	10989.57
440.227	11120.64
440.433	11026.43
440.64	11264
440.847	10999.81
441.054	11390.97
441.261	12294.13
441.467	12097.52
441.674	12582.89
441.881	12666.86
442.088	12482.54
442.294	12488.68
442.501	12767.21
442.708	13002.72
442.914	13600.73
443.121	14161.87
443.328	13776.86
443.534	14675.91
443.741	14426.06
443.948	14268.37
444.154	15427.52
444.361	15245.25
444.568	15472.57
444.774	15335.36
444.981	15515.58
445.187	15869.88
445.394	16619.44
445.6	16451.5
445.807	17774.49
446.013	17309.6
446.22	17436.58
446.426	18194.33
446.633	18110.36
446.839	19031.94
447.046	18079.64
447.252	19150.73
447.459	19001.22
447.665	19048.33
447.871	20156.28
448.078	20936.56
448.284	19894.14
448.491	20346.74
448.697	21131.11
448.903	21589.86
449.11	21788.51
449.316	21403.49
449.522	21761.89
449.728	22185.82
449.935	22282.07
450.141	22531.92
450.347	22978.38
450.553	22187.86
450.76	22404.95
450.966	22853.45
451.172	22763.34
451.378	23689.03
451.584	23205.7
451.791	23326.53
451.997	23517
452.203	23881.53
452.409	23977.79
452.615	23828.29
452.821	22824.78
453.027	22486.87
453.233	23830.34
453.44	22957.9
453.646	22990.67
453.852	23713.6
454.058	23506.76
454.264	22927.18
454.47	23283.53
454.676	22912.85
454.882	23633.73
455.088	21698.4
455.294	21829.47
455.5	22404.95
455.705	22454.1
455.911	21530.47
456.117	20997.99
456.323	20854.64
456.529	19545.98
456.735	20522.87
456.941	20359.03
457.147	19810.17
457.352	18960.27
457.558	19095.43
457.764	18941.83
457.97	18700.17
458.176	18204.56
458.381	18352.02
458.587	17403.81
458.793	17110.95
458.999	16537.52
459.204	17555.36
459.41	16893.86
459.616	15886.26
459.821	16027.57
460.027	16080.82
460.233	15640.51
460.438	15038.41
460.644	14968.77
460.85	14309.33
461.055	13973.46
461.261	14129.11
461.466	13019.11
461.672	12775.4
461.878	13631.45
462.083	12552.17
462.289	12470.25
462.494	12232.69
462.7	11495.42
462.905	11454.46
463.111	11999.22
463.316	11937.78
463.522	11804.66
463.727	11573.24
463.932	11450.36
464.138	11366.4
464.343	11472.89
464.549	11241.47
464.754	11509.76
464.959	11382.78
465.165	11251.71
465.37	10958.85
465.575	10665.99
465.781	11001.86
465.986	11266.05
466.191	10756.1
466.397	10364.94
466.602	9951.25
466.807	10618.89
467.012	10405.9
467.218	10469.39
467.423	10123.28
467.628	10412.04
467.833	10651.66
468.038	10205.2
468.244	9889.81
468.449	10197.01
468.654	9992.21
468.859	10041.36
469.064	9998.35
469.269	9572.38
469.474	9633.82
469.679	9881.62
469.885	9482.27
470.09	9648.15
470.295	9639.96
470.5	9394.2
470.705	9367.58
470.91	9213.98
471.115	9117.73
471.32	9234.46
471.525	9285.66
471.73	9000.99
471.935	8876.07
472.139	8622.12
472.344	8822.82
472.549	8507.43
472.754	8554.54
472.959	8419.37
473.164	8353.84
473.369	8251.44
473.574	8296.49
473.778	8212.53
473.983	8175.66
474.188	8128.56
474.393	8007.73
474.598	7870.51
474.802	7774.26
475.007	7743.54
475.212	7901.23
475.417	7596.09
475.621	7553.08
475.826	7524.41
476.031	7280.7
476.235	7282.75
476.44	7544.89
476.645	7139.39
476.849	7120.96
477.054	7237.69
477.259	7147.58
477.463	7010.37
477.668	6819.91
477.872	6953.02
478.077	6713.41
478.282	6608.97
478.486	6625.35
478.691	6572.1
478.895	6584.39
479.1	6451.27
479.304	6576.2
479.509	6496.33
479.713	6219.85
479.918	6432.84
480.122	6238.28
480.326	6289.48
480.531	6330.44
480.735	6101.07
480.94	6025.29
481.144	6404.17
481.348	6090.83
481.553	6107.21
481.757	6101.07
481.961	6182.99
482.166	6191.18
482.37	6004.82
482.574	5935.18
482.778	6090.83
482.983	6207.56
483.187	6006.86
483.391	6146.12
483.595	6076.49
483.8	6021.2
484.004	6015.05
484.208	6115.41
484.412	5816.4
484.616	6053.97
484.821	6002.77
485.025	6051.92
485.229	6152.27
485.433	5996.62
485.637	5974.1
485.841	5986.38
486.045	5883.98
486.249	6103.12
486.453	6070.35
486.657	6064.21
486.861	5890.13
487.065	5990.48
487.269	5847.12
487.473	5935.18
487.677	5988.43
487.881	6025.29
488.085	6066.25
488.289	6017.1
488.493	5986.38
488.697	6070.35
488.901	6105.17
489.105	6045.77
489.309	6119.5
489.512	6068.3
489.716	5953.62
489.92	6146.12
490.124	6115.41
490.328	6226
490.531	6191.18
490.735	6193.23
490.939	6201.42
491.143	6152.27
491.346	6139.98
491.55	6297.67
491.754	6307.91
491.958	6316.11
492.161	6307.91
492.365	6414.41
492.569	6381.64
492.772	6219.85
492.976	6391.88
493.18	6447.18
493.383	6543.43
493.587	6473.8
493.79	6504.52
493.994	6565.96
494.197	6594.63
494.401	6545.48
494.605	6731.84
494.808	6723.65
495.012	6789.19
495.215	6881.35
495.419	6836.29
495.622	6907.97
495.825	6834.24
496.029	6957.12
496.232	7104.57
496.436	6998.08
496.639	7198.78
496.843	7303.23
497.046	7460.92
497.249	7467.06
497.453	7331.9
497.656	7491.64
497.859	7462.97
498.063	7669.81
498.266	7802.93
498.469	7870.51
498.673	7936.05
498.876	7888.95
499.079	7948.34
499.282	7893.04
499.485	8228.91
499.689	8257.58
499.892	8345.64
500.095	8527.91
500.298	8480.81
500.501	8697.89
500.705	8728.61
500.908	8675.37
501.111	8853.54
501.314	9019.43
501.517	9019.43
501.72	9252.89
501.923	9019.43
502.126	9318.43
502.329	9478.17
502.532	9744.41
502.735	9730.07
502.938	9807.89
503.141	9775.13
503.344	9988.11
503.547	10074.13
503.75	9977.87
503.953	10297.36
504.156	10256.4
504.359	10371.08
504.562	10506.25
504.765	10754.05
504.968	10956.8
505.17	10901.51
505.373	10909.7
505.576	11085.83
505.779	11302.91
505.982	11294.72
506.185	11327.49
506.387	11427.84
506.59	11546.62
506.793	11724.79
506.996	11878.39
507.198	12423.15
507.401	12132.34
507.604	12335.09
507.807	12785.64
508.009	12625.9
508.212	12574.7
508.415	12648.43
508.617	12679.15
508.82	12931.05
509.022	12996.58
509.225	13404.13
509.428	13369.31
509.63	13340.64
509.833	13498.33
510.035	14036.95
510.238	13869.02
510.44	14131.16
510.643	14127.06
510.845	14110.68
511.048	14360.53
511.25	14464.97
511.453	14716.87
511.655	15202.24
511.858	14677.96
512.06	15087.56
512.262	15134.66
512.465	15239.11
512.667	15218.63
512.87	15667.13
513.072	15402.94
513.274	15767.48
513.477	15896.5
513.679	16197.56
513.881	16404.4
514.084	16586.67
514.286	16390.06
514.488	16519.09
514.69	17000.36
514.893	16850.86
515.095	16930.73
515.297	17162.15
515.499	17291.17
515.701	17495.97
515.904	17649.57
516.106	17678.24
516.308	17862.55
516.51	18161.56
516.712	18319.25
516.914	18401.17
517.116	18724.75
517.318	18814.86
517.52	19089.29
517.722	18700.17
517.925	19226.5
518.127	19459.97
518.329	19322.76
518.531	19597.18
518.733	19627.9
518.935	19935.1
519.136	19785.6
519.338	20117.37
519.54	20529.01
519.742	20279.16
519.944	20586.35
520.146	20731.76
520.348	20780.91
520.55	21198.7
520.752	21190.5
520.954	21466.98
521.155	21333.86
521.357	21798.75
521.559	21692.26
521.761	21917.53
521.963	22226.78
522.164	22263.64
522.366	22445.91
522.568	22298.45
522.77	22427.48
522.971	22802.25
523.173	22908.75
523.375	22835.02
523.576	22830.93
523.778	23344.97
523.98	23379.78
524.181	23242.57
524.383	23453.51
524.584	23650.11
524.786	23791.42
524.988	23930.69
525.189	24102.71
525.391	24235.83
525.592	24377.14
525.794	24211.26
525.995	24448.82
526.197	24485.69
526.398	24645.43
526.6	24737.59
526.801	25116.46
527.003	24780.59
527.204	25022.25
527.406	25198.38
527.607	25032.49
527.808	25358.12
528.01	24813.36
528.211	25280.3
528.412	25663.27
528.614	25300.78
528.815	25902.88
529.016	25906.98
529.218	25786.15
529.419	25655.08
529.62	25755.43
529.822	25861.92
530.023	25771.81
530.224	26007.33
530.425	26015.52
530.626	25974.56
530.828	25878.3
531.029	26603.28
531.23	26158.88
531.431	26197.79
531.632	26025.76
531.833	26670.87
532.035	26199.83
532.236	26232.6
532.437	26472.21
532.638	26294.04
532.839	26595.09
533.04	26558.23
533.241	26119.96
533.442	26881.81
533.643	26760.98
533.844	26478.36
534.045	26591
534.246	26560.28
534.447	26812.18
534.648	26515.22
534.849	26777.36
535.05	26783.51
535.251	26656.53
535.451	26382.1
535.652	26654.48
535.853	26279.71
536.054	26603.28
536.255	26844.95
536.456	26588.95
536.657	27025.17
536.857	26742.55
537.058	26799.89
537.259	26955.54
537.46	26957.58
537.66	26468.12
537.861	26810.13
538.062	26969.87
538.263	26666.77
538.463	26699.54
538.664	26787.6
538.865	26832.66
539.065	26990.35
539.266	26545.94
539.466	26902.29
539.667	26615.57
539.868	26869.52
540.068	26656.53
540.269	26830.61
540.469	26693.4
540.67	26611.48
540.87	26840.85
541.071	26754.83
541.271	26623.76
541.472	26916.62
541.672	26537.75
541.873	26785.55
542.073	26433.3
542.274	26957.58
542.474	26939.15
542.675	26513.17
542.875	26926.86
543.075	26674.96
543.276	26652.44
543.476	26703.64
543.676	26355.48
543.877	26693.4
544.077	26556.18
544.277	26695.44
544.478	26367.77
544.678	26625.81
544.878	26414.87
545.078	26758.93
545.279	26388.25
545.479	26461.97
545.679	26429.21
545.879	26545.94
546.079	26734.35
546.28	26439.45
546.48	26187.55
546.68	26674.96
546.88	26406.68
547.08	26648.34
547.28	26601.24
547.48	26277.66
547.68	26453.78
547.88	26257.18
548.081	26756.88
548.281	26257.18
548.481	26117.92
548.681	26726.16
548.881	26291.99
549.081	26466.07
549.28	26040.09
549.48	26578.71
549.68	26267.42
549.88	26767.12
550.08	26158.88
550.28	26365.72
550.48	26109.72
550.68	26742.55
550.88	26410.78
551.08	26160.92
551.279	26480.41
551.479	26359.58
551.679	26519.32
551.879	25978.65
552.079	26423.06
552.278	26363.67
552.478	26464.02
552.678	26259.23
552.878	26490.65
553.077	26318.62
553.277	26296.09
553.477	26320.67
553.676	26070.81
553.876	26300.19
554.076	25974.56
554.275	26105.63
554.475	25956.13
554.674	26271.51
554.874	26142.49
555.074	25968.41
555.273	26302.23
555.473	25902.88
555.672	26081.05
555.872	25945.89
556.071	25857.82
556.271	26212.12
556.47	26040.09
556.67	25706.27
556.869	25700.13
557.068	26038.05
557.268	25380.65
557.467	25716.51
557.667	26036
557.866	25669.41
558.065	25759.52
558.265	25693.99
558.464	25425.7
558.663	25544.48
558.863	25351.98
559.062	25927.46
559.261	25360.17
559.461	26015.52
559.66	25085.74
559.859	25317.16
560.058	25255.72
560.258	25413.41
560.457	25212.71
560.656	25462.57
560.855	25073.45
561.054	24979.25
561.253	24993.58
561.453	25169.71
561.652	24917.81
561.851	25390.89
562.05	24962.86
562.249	24583.99
562.448	25218.86
562.647	25014.06
562.846	24612.66
563.045	24915.76
563.244	24579.89
563.443	24803.12
563.642	24520.5
563.841	24438.58
564.04	24452.92
564.239	24612.66
564.438	24270.65
564.637	24450.87
564.836	24581.94
565.035	24137.53
565.234	24528.69
565.432	24182.59
565.631	23908.16
565.83	24020.8
566.029	24061.76
566.228	23955.26
566.427	23975.74
566.625	23834.43
566.824	23390.02
567.023	23783.23
567.222	23537.48
567.42	23785.28
567.619	23803.71
567.818	23570.24
568.016	23650.11
568.215	23689.03
568.414	23572.29
568.612	23619.39
568.811	23310.15
569.01	23392.07
569.208	23076.68
569.407	23234.38
569.605	23084.87
569.804	23340.87
570.002	22763.34
570.201	23052.11
570.4	22906.7
570.598	22636.37
570.797	22802.25
570.995	22880.08
571.193	22398.8
571.392	22951.76
571.59	22505.3
571.789	22515.54
571.987	22689.62
572.186	22583.12
572.384	22392.66
572.582	22484.82
572.781	22632.27
572.979	22183.77
573.177	22226.78
573.376	22067.03
573.574	22126.43
573.772	22181.72
573.971	22007.64
574.169	21972.83
574.367	21604.19
574.565	21825.37
574.763	21618.53
574.962	21935.96
575.16	21725.02
575.358	21931.87
575.556	21331.81
575.754	21829.47
575.952	21489.51
576.151	21577.57
576.349	21239.65
576.547	21059.43
576.745	21520.23
576.943	21131.11
577.141	21043.05
577.339	21280.61
577.537	20920.17
577.735	20897.64
577.933	20977.51
578.131	20932.46
578.329	20729.71
578.527	20676.46
578.725	20725.61
578.923	20588.4
579.121	20629.36
579.319	20481.91
579.516	20580.21
579.714	20719.47
579.912	20529.01
580.11	20283.25
580.308	20529.01
580.506	20410.23
580.704	20039.54
580.901	20240.25
581.099	20387.7
581.297	20146.04
581.495	20189.05
581.692	20189.05
581.89	20150.14
582.088	20191.09
582.285	19898.24
582.483	20078.46
582.681	19617.66
582.878	19957.63
583.076	19539.84
583.274	19867.52
583.471	19398.53
583.669	19652.48
583.866	19500.93
584.064	19453.83
584.262	19533.7
584.459	19629.95
584.657	19148.68
584.854	19636.1
585.052	19099.53
585.249	19173.25
585.447	19472.26
585.644	18907.02
585.841	19222.41
586.039	19175.3
586.236	18710.41
586.434	18687.89
586.631	18841.48
586.828	18814.86
587.026	18734.99
587.223	18790.28
587.42	18556.82
587.618	18843.53
587.815	18446.23
588.012	18583.44
588.21	18196.37
588.407	18599.82
588.604	18268.05
588.801	18280.34
588.999	18083.73
589.196	18110.36
589.393	18251.67
589.59	17921.95
589.787	18093.97
589.984	18110.36
590.182	18059.16
590.379	18007.96
590.576	17917.85
590.773	17817.5
590.97	17594.27
591.167	17934.23
591.364	17299.36
591.561	17823.64
591.758	17371.04
591.955	17412
592.152	17641.37
592.349	17481.63
592.546	17246.12
592.743	17416.1
592.94	17145.77
593.137	17215.4
593.334	17219.49
593.531	16994.22
593.727	17190.82
593.924	17035.17
594.121	16908.2
594.318	17078.18
594.515	16734.12
594.712	16838.57
594.908	16801.71
595.105	16857
595.302	16455.6
595.499	16709.55
595.696	16680.88
595.892	16345.01
596.089	16697.26
596.286	16852.91
596.482	16363.44
596.679	16355.25
596.876	16547.76
597.072	16261.04
597.269	16310.19
597.466	16316.34
597.662	15982.52
597.859	15888.31
598.055	16005.05
598.252	15890.36
598.448	15994.81
598.645	16011.19
598.841	16035.77
599.038	15824.83
599.234	15847.35
599.431	15663.04
599.627	15753.15
599.824	15650.75
600.02	15615.93
600.217	15710.14
600.413	15398.85
600.609	15368.13
600.806	15306.69
601.002	15617.98
601.198	15222.72
601.395	15200.19
601.591	15292.35
601.787	15202.24
601.984	14909.38
602.18	15339.46
602.376	15085.51
602.572	14870.47
602.769	15192
602.965	14843.85
603.161	15022.02
603.357	14725.07
603.553	14968.77
603.75	14725.07
603.946	14559.18
604.142	14751.69
604.338	14546.89
604.534	14598.09
604.73	14714.83
604.926	14387.15
605.122	14389.2
605.318	14372.82
605.514	14442.45
605.71	14215.12
605.906	14165.97
606.102	14307.28
606.298	14507.98
606.494	14213.07
606.69	14385.1
606.886	14022.61
607.082	13922.26
607.278	14096.34
607.474	14051.28
607.67	13991.89
607.866	13774.81
608.062	14000.09
608.257	13635.55
608.453	13836.25
608.649	13873.11
608.845	13674.46
609.041	13776.86
609.236	13795.29
609.432	13658.07
609.628	13457.37
609.824	13463.52
610.019	13615.07
610.215	13737.95
610.411	13557.72
610.606	13379.55
610.802	13586.4
610.998	13504.48
611.193	13496.28
611.389	13256.67
611.584	13307.87
611.78	13473.76
611.976	13250.53
612.171	13422.56
612.367	13201.38
612.562	13359.07
612.758	12933.09
612.953	13176.8
613.149	13240.29
613.344	13017.06
613.539	13404.13
613.735	13256.67
613.93	13248.48
614.126	12984.29
614.321	13156.32
614.517	13262.82
614.712	13078.5
614.907	12926.95
615.103	13017.06
615.298	12888.04
615.493	12965.86
615.688	12601.32
615.884	13080.55
616.079	12609.51
616.274	12812.26
616.47	12812.26
616.665	12668.91
616.86	12816.36
617.055	12666.86
617.25	12632.04
617.445	12722.15
617.641	12586.99
617.836	12412.91
618.031	12312.56
618.226	12732.39
618.421	12269.55
618.616	12478.44
618.811	12382.19
619.006	12402.67
619.201	12044.27
619.396	12433.39
619.591	11988.98
619.786	12261.36
619.981	12146.67
620.176	12255.22
620.371	12103.67
620.566	11927.54
620.761	11962.36
620.956	11968.5
621.151	11632.63
621.346	11786.23
621.541	11714.55
621.735	11872.25
621.93	11499.52
622.125	11759.61
622.32	11347.97
622.515	11495.42
622.709	11284.48
622.904	11362.3
623.099	11362.3
623.294	11292.67
623.488	11194.37
623.683	11337.73
623.878	11024.39
624.072	11173.89
624.267	11116.55
624.462	10842.12
624.656	10745.86
624.851	10760.2
625.046	10745.86
625.24	10831.88
625.435	10514.44
625.629	10676.23
625.824	10520.59
626.018	10334.22
626.213	10557.45
626.407	10430.48
626.602	10221.58
626.796	10328.08
626.991	10229.77
627.185	10080.27
627.38	10121.23
627.574	9994.26
627.768	9934.87
627.963	10020.88
628.157	10070.03
628.352	9996.31
628.546	9746.45
628.74	9715.73
628.935	9734.17
629.129	9504.79
629.323	9512.99
629.517	9545.75
629.712	9627.67
629.906	9435.16
630.1	9322.52
630.294	9273.37
630.489	9164.83
630.683	9326.62
630.877	9062.43
631.071	9097.25
631.265	8996.9
631.459	8949.79
631.653	8970.27
631.848	8943.65
632.042	8771.62
632.236	8671.27
632.43	8683.56
632.624	8767.52
632.818	8568.87
633.012	8718.37
633.206	8640.55
633.4	8650.79
633.594	8462.38
633.788	8466.47
633.982	8407.08
634.176	8456.23
634.369	8316.97
634.563	8235.05
634.757	8308.78
634.951	8339.5
635.145	8249.39
635.339	8173.61
635.533	8052.78
635.726	8056.88
635.92	7907.38
636.114	7958.58
636.308	8103.98
636.501	7804.98
636.695	7780.4
636.889	7911.47
637.083	7796.79
637.276	7671.86
637.47	7649.33
637.664	7682.1
637.857	7563.32
638.051	7721.01
638.244	7516.22
638.438	7514.17
638.632	7587.89
638.825	7426.11
639.019	7389.24
639.212	7297.08
639.406	7403.58
639.599	7454.78
639.793	7362.62
639.986	7131.2
640.18	7217.21
640.373	7211.07
640.567	6969.41
640.76	7102.53
640.954	6916.16
641.147	6836.29
641.34	7069.76
641.534	6912.07
641.727	7071.81
641.92	6881.35
642.114	6674.5
642.307	6875.2
642.5	6631.49
642.694	6762.56
642.887	6625.35
643.08	6617.16
643.273	6506.57
643.467	6594.63
643.66	6568.01
643.853	6568.01
644.046	6584.39
644.239	6449.22
644.432	6393.93
644.626	6383.69
644.819	6428.74
645.012	6178.89
645.205	6359.11
645.398	6312.01
645.591	6211.66
645.784	6041.68
645.977	6197.32
646.17	6318.15
646.363	6064.21
646.556	6094.93
646.749	6015.05
646.942	5986.38
647.135	5965.9
647.328	5982.29
647.521	6021.2
647.714	5857.36
647.907	5902.42
648.099	5832.79
648.292	5863.51
648.485	5871.7
648.678	5797.97
648.871	5707.86
649.064	5822.55
649.256	5689.43
649.449	5707.86
649.642	5597.27
649.835	5384.28
650.027	5462.1
650.22	5470.3
650.413	5425.24
650.605	5308.51
650.798	5443.67
650.991	5398.62
651.183	5519.45
651.376	5318.75
651.568	5335.13
651.761	5204.06
651.954	5214.3
652.146	5265.5
652.339	5173.34
652.531	5210.2
652.724	5136.48
652.916	5128.28
653.109	5048.41
653.301	5025.89
653.494	5134.43
653.686	4989.02
653.879	5093.47
654.071	4984.93
654.263	5005.41
654.456	4960.35
654.648	4831.33
654.84	4816.99
655.033	4757.6
655.225	4816.99
655.417	4753.51
655.61	4790.37
655.802	4786.27
655.994	4839.52
656.186	4765.79
656.379	4710.5
656.571	4667.49
656.763	4538.47
656.955	4679.78
657.148	4468.84
657.34	4651.11
657.532	4548.71
657.724	4466.79
657.916	4407.4
658.108	4575.33
658.3	4419.69
658.492	4444.26
658.684	4368.49
658.876	4415.59
659.068	4415.59
659.26	4284.52
659.452	4298.86
659.644	4366.44
659.836	4286.57
660.028	4278.38
660.22	4192.36
660.412	4102.25
660.604	4237.42
660.796	4335.72
660.988	4331.62
661.18	4065.39
661.372	4147.31
661.563	4182.12
661.755	4032.62
661.947	4120.68
662.139	3993.71
662.331	4020.33
662.522	3936.37
662.714	4006
662.906	4049
663.097	4040.81
663.289	3913.84
663.481	3909.74
663.673	3866.74
663.864	3897.46
664.056	3993.71
664.247	3750
664.439	3768.43
664.631	3860.59
664.822	3793.01
665.014	3850.35
665.205	3836.02
665.397	3844.21
665.588	3780.72
665.78	3717.23
665.971	3649.65
666.163	3776.63
666.354	3635.32
666.546	3760.24
666.737	3653.75
666.929	3635.32
667.12	3719.28
667.311	3541.11
667.503	3623.03
667.694	3426.42
667.885	3580.02
668.077	3557.49
668.268	3500.15
668.459	3459.19
668.651	3620.98
668.842	3571.83
669.033	3356.79
669.224	3455.09
669.416	3489.91
669.607	3420.28
669.798	3418.23
669.989	3473.53
670.18	3483.77
670.371	3371.13
670.563	3418.23
670.754	3391.61
670.945	3438.71
671.136	3467.38
671.327	3129.47
671.518	3364.98
671.709	3391.61
671.9	3240.06
672.091	3391.61
672.282	3346.55
672.473	3219.58
672.664	3149.95
672.855	3283.06
673.046	3295.35
673.237	3289.21
673.428	3178.62
673.619	3190.91
673.809	3278.97
674	3285.11
674.191	3166.33
674.382	3186.81
674.573	3137.66
674.764	3205.24
674.954	3176.57
675.145	3174.52
675.336	3221.63
675.527	3235.96
675.717	3278.97
675.908	3086.46
676.099	3102.84
676.289	3145.85
676.48	3076.22
676.671	3270.78
676.861	3143.8
677.052	3053.69
677.243	2936.96
677.433	3115.13
677.624	3170.43
677.814	3047.55
678.005	3102.84
678.195	3061.88
678.386	3108.99
678.576	3045.5
678.767	3111.04
678.957	3090.56
679.148	3154.04
679.338	3061.88
679.529	3072.12
679.719	3121.28
679.909	3090.56
680.1	3098.75
680.29	3045.5
680.481	3051.64
680.671	2943.1
680.861	2941.05
681.052	3172.47
681.242	2979.97
681.432	3072.12
681.622	3016.83
681.813	3129.47
682.003	3070.08
682.193	2939.01
682.383	2951.29
682.573	2930.81
682.764	3072.12
682.954	2916.48
683.144	3025.02
683.334	3012.73
683.524	2928.77
683.714	2963.58
683.904	3012.73
684.094	2992.25
684.284	2904.19
684.474	2900.09
684.664	2994.3
684.854	2971.77
685.044	2865.28
685.234	2898.05
685.424	2975.87
685.614	2816.13
685.804	2830.46
685.994	2926.72
686.184	2867.33
686.374	2779.26
686.564	2764.93
686.753	2824.32
686.943	2842.75
687.133	2863.23
687.323	2787.46
687.513	2814.08
687.702	2865.28
687.892	2781.31
688.082	2771.07
688.272	2697.35
688.461	2648.19
688.651	2631.81
688.841	2560.13
689.03	2740.35
689.22	2617.47
689.41	2621.57
689.599	2533.51
689.789	2564.23
689.979	2642.05
690.168	2728.07
690.358	2566.28
690.547	2615.43
690.737	2564.23
690.926	2490.5
691.116	2566.28
691.305	2531.46
691.495	2459.78
691.684	2424.97
691.874	2435.21
692.063	2508.93
692.252	2486.4
692.442	2441.35
692.631	2410.63
692.82	2476.16
693.01	2250.89
693.199	2402.44
693.388	2394.25
693.578	2338.95
693.767	2236.55
693.956	2269.32
694.146	2297.99
694.335	2433.16
694.524	2322.57
694.713	2392.2
694.902	2246.79
695.092	2345.09
695.281	2197.64
695.47	2316.42
695.659	2191.5
695.848	2271.37
696.037	2295.94
696.226	2162.83
696.415	2267.27
696.604	2140.3
696.793	2199.69
696.982	2164.87
697.171	2179.21
697.36	2001.04
697.549	2125.96
697.738	2162.83
697.927	2093.19
698.116	2199.69
698.305	2064.52
698.494	2185.35
698.683	2154.63
698.872	2095.24
699.061	2205.83
699.25	2185.35
699.438	2183.31
699.627	2062.48
699.816	2144.39
700.005	2128.01
700.193	2125.96
700.382	2105.48
700.571	2001.04
700.76	2050.19
700.948	2027.66
701.137	2072.72
701.326	2044.04
701.514	2123.91
701.703	2031.76
701.892	2058.38
702.08	2166.92
702.269	2072.72
702.457	2019.47
702.646	2017.42
702.834	1980.56
703.023	2001.04
703.212	2070.67
703.4	1925.26
703.589	2029.71
703.777	2113.67
703.965	2015.37
704.154	2105.48
704.342	2052.24
704.531	1937.55
704.719	2025.61
704.907	2058.38
705.096	2058.38
705.284	1988.75
705.472	1935.5
705.661	2017.42
705.849	2050.19
706.037	2033.8
706.226	2052.24
706.414	2099.34
706.602	2095.24
706.79	1982.6
706.979	2130.06
707.167	2001.04
707.355	2162.83
707.543	1966.22
707.731	2152.59
707.919	2048.14
708.107	1988.75
708.296	2115.72
708.484	2052.24
708.672	2021.52
708.86	2072.72
709.048	2089.1
709.236	2058.38
709.424	2056.33
709.612	2011.28
709.8	2009.23
709.988	1992.84
710.176	2130.06
710.364	2082.95
710.551	2037.9
710.739	2105.48
710.927	2025.61
711.115	1976.46
711.303	2033.8
711.491	2101.39
711.679	2062.48
711.866	1992.84
712.054	2242.7
712.242	2091.15
712.43	2085
712.617	2144.39
712.805	2250.89
712.993	2111.63
713.181	2136.2
713.368	2136.2
713.556	2168.97
713.744	2064.52
713.931	2218.12
714.119	2175.11
714.306	2195.59
714.494	2207.88
714.682	2218.12
714.869	2103.43
715.057	2197.64
715.244	2095.24
715.432	2203.79
715.619	2173.07
715.807	2181.26
715.994	2164.87
716.182	2224.26
716.369	2285.7
716.556	2220.17
716.744	2300.04
716.931	2132.11
717.119	2246.79
717.306	2261.13
717.493	2263.18
717.681	2300.04
717.868	2275.46
718.055	2351.24
718.242	2316.42
718.43	2330.76
718.617	2162.83
718.804	2338.95
718.991	2365.57
719.179	2363.53
719.366	2267.27
719.553	2252.94
719.74	2273.42
719.927	2287.75
720.114	2218.12
720.301	2367.62
720.488	2201.74
720.676	2369.67
720.863	2306.18
721.05	2373.77
721.237	2381.96
721.424	2365.57
721.611	2338.95
721.798	2291.85
721.985	2338.95
722.172	2295.94
722.358	2422.92
722.545	2447.49
722.732	2439.3
722.919	2367.62
723.106	2263.18
723.293	2359.43
723.48	2484.36
723.667	2379.91
723.853	2416.77
724.04	2285.7
724.227	2271.37
724.414	2318.47
724.6	2398.34
724.787	2455.69
724.974	2484.36
725.161	2541.7
725.347	2355.33
725.534	2521.22
725.72	2437.25
725.907	2519.17
726.094	2451.59
726.28	2353.29
726.467	2566.28
726.653	2437.25
726.84	2496.64
727.027	2508.93
727.213	2353.29
727.4	2459.78
727.586	2435.21
727.773	2400.39
727.959	2527.36
728.145	2531.46
728.332	2480.26
728.518	2523.27
728.705	2453.64
728.891	2601.09
729.077	2619.52
729.264	2408.58
729.45	2582.66
729.636	2537.6
729.823	2566.28
730.009	2431.11
730.195	2519.17
730.382	2588.8
730.568	2597
730.754	2543.75
730.94	2574.47
731.126	2500.74
731.313	2543.75
731.499	2521.22
731.685	2498.69
731.871	2459.78
732.057	2441.35
732.243	2590.85
732.429	2582.66
732.615	2650.24
732.801	2463.88
732.987	2447.49
733.173	2451.59
733.359	2394.25
733.545	2517.12
733.731	2566.28
733.917	2529.41
734.103	2453.64
734.289	2553.99
734.475	2474.12
734.661	2556.04
734.847	2576.52
735.033	2533.51
735.219	2662.53
735.404	2484.36
735.59	2513.03
735.776	2603.14
735.962	2697.35
736.148	2566.28
736.333	2515.08
736.519	2562.18
736.705	2594.95
736.89	2410.63
737.076	2545.8
737.262	2457.73
737.447	2480.26
737.633	2568.32
737.819	2582.66
738.004	2470.02
738.19	2537.6
738.375	2586.76
738.561	2545.8
738.747	2543.75
738.932	2498.69
739.118	2529.41
739.303	2539.65
739.489	2590.85
739.674	2435.21
739.859	2455.69
740.045	2500.74
740.23	2549.89
740.416	2465.93
740.601	2525.32
740.786	2371.72
740.972	2510.98
741.157	2400.39
741.342	2359.43
741.528	2279.56
741.713	2463.88
741.898	2379.91
742.084	2332.81
742.269	2451.59
742.454	2386.05
742.639	2418.82
742.824	2349.19
743.01	2207.88
743.195	2488.45
743.38	2396.29
743.565	2433.16
743.75	2445.45
743.935	2185.35
744.12	2349.19
744.305	2275.46
744.49	2394.25
744.675	2279.56
744.86	2295.94
745.045	2361.48
745.23	2322.57
745.415	2377.86
745.6	2283.66
745.785	2222.22
745.97	2283.66
746.155	2183.31
746.34	2269.32
746.525	2142.35
746.71	2238.6
746.895	2123.91
747.079	2150.54
747.264	2048.14
747.449	2117.77
747.634	2117.77
747.819	2181.26
748.003	2097.29
748.188	2005.13
748.373	2007.18
748.557	2111.63
748.742	2070.67
748.927	2168.97
749.111	2060.43
749.296	1986.7
749.481	2046.09
749.665	2042
749.85	1974.41
750.034	1925.26
750.219	2011.28
750.404	1894.54
750.588	1980.56
750.773	1910.93
750.957	1878.16
751.141	2017.42
751.326	1804.43
751.51	1900.69
751.695	1886.35
751.879	1904.78
752.064	1872.01
752.248	1910.93
752.432	1800.34
752.617	1792.14
752.801	1786
752.985	1745.04
753.17	1761.42
753.354	1736.85
753.538	1773.71
753.722	1773.71
753.907	1648.79
754.091	1695.89
754.275	1669.27
754.459	1720.46
754.643	1673.36
754.828	1640.59
755.012	1720.46
755.196	1632.4
755.38	1589.39
755.564	1628.31
755.748	1620.11
755.932	1562.77
756.116	1558.67
756.3	1607.83
756.484	1534.1
756.668	1482.9
756.852	1534.1
757.036	1464.47
757.22	1411.22
757.404	1493.14
757.588	1482.9
757.772	1540.24
757.956	1464.47
758.14	1466.52
758.323	1409.17
758.507	1450.13
758.691	1370.26
758.875	1345.69
759.059	1427.6
759.242	1464.47
759.426	1376.41
759.61	1435.8
759.794	1364.12
759.977	1370.26
760.161	1443.99
760.345	1312.92
760.528	1312.92
760.712	1259.67
760.895	1259.67
761.079	1325.21
761.263	1304.73
761.446	1286.3
761.63	1231
761.813	1298.58
761.997	1245.34
762.18	1341.59
762.364	1259.67
762.547	1169.56
762.731	1243.29
762.914	1165.46
763.098	1271.96
763.281	1214.62
763.464	1124.51
763.648	1185.94
763.831	1128.6
764.015	1083.55
764.198	1210.52
764.381	1220.76
764.564	1163.42
764.748	1130.65
764.931	1224.86
765.114	1149.08
765.297	1157.27
765.481	1108.12
765.664	1161.37
765.847	1085.59
766.03	1120.41
766.213	1087.64
766.397	1181.85
766.58	1095.83
766.763	1101.98
766.946	1187.99
767.129	1108.12
767.312	1075.35
767.495	1044.63
767.678	1052.83
767.861	1087.64
768.044	1089.69
768.227	1075.35
768.41	1013.92
768.593	1114.27
768.776	1108.12
768.959	991.39
769.142	1034.39
769.324	1042.59
769.507	1030.3
769.69	1034.39
769.873	1009.82
770.056	1007.77
770.239	1075.35
770.421	1034.39
770.604	1056.92
770.787	977.05
770.97	925.85
771.152	1036.44
771.335	1034.39
771.518	1015.96
771.7	886.94
771.883	825.5
772.066	958.62
772.248	923.8
772.431	929.95
772.613	940.19
772.796	901.28
772.978	964.76
773.161	970.91
773.343	925.85
773.526	915.61
773.708	833.69
773.891	852.13
774.073	895.13
774.256	958.62
774.438	833.69
774.621	862.37
774.803	841.89
774.985	893.09
775.168	958.62
775.35	833.69
775.532	807.07
775.715	764.06
775.897	852.13
776.079	817.31
776.261	782.49
776.444	825.5
776.626	768.16
776.808	843.93
776.99	780.45
777.173	782.49
777.355	762.02
777.537	690.34
777.719	766.11
777.901	712.86
778.083	770.21
778.265	686.24
778.447	710.82
778.629	696.48
778.811	706.72
778.993	698.53
779.175	731.3
779.357	753.82
779.539	743.58
779.721	723.1
779.903	768.16
780.085	618.66
780.267	673.95
780.449	671.9
780.631	686.24
780.812	665.76
780.994	581.79
781.176	620.71
781.358	673.95
781.54	649.38
781.721	635.04
781.903	637.09
782.085	649.38
782.267	622.75
782.448	632.99
782.63	596.13
782.812	571.55
782.993	690.34
783.175	561.31
783.357	600.23
783.538	610.47
783.72	577.7
783.901	538.79
784.083	516.26
784.264	469.16
784.446	479.4
784.627	499.88
784.809	546.98
784.99	569.51
785.172	544.93
785.353	561.31
785.535	563.36
785.716	493.73
785.897	460.96
786.079	540.83
786.26	493.73
786.441	573.6
786.623	446.63
786.804	456.87
786.985	473.25
787.167	446.63
787.348	544.93
787.529	417.96
787.71	518.31
787.891	510.11
788.073	405.67
788.254	479.4
788.435	467.11
788.616	463.01
788.797	448.68
788.978	469.16
789.159	393.38
789.34	485.54
789.522	424.1
789.703	331.94
789.884	471.2
790.065	399.52
790.246	508.07
790.427	331.94
790.607	426.15
790.788	426.15
790.969	325.8
791.15	387.24
791.331	344.23
791.512	327.85
791.693	432.29
791.874	456.87
792.054	295.08
792.235	401.57
792.416	331.94
792.597	442.53
792.778	442.53
792.958	370.85
793.139	444.58
793.32	420
793.5	393.38
793.681	405.67
793.862	413.86
794.042	333.99
794.223	389.28
794.404	301.22
794.584	313.51
794.765	321.7
794.945	397.48
795.126	348.33
795.306	329.89
795.487	309.41
795.667	286.89
795.848	278.69
796.028	311.46
796.209	366.76
796.389	377
796.57	331.94
796.75	325.8
796.93	217.26
797.111	276.65
797.291	358.57
797.471	329.89
797.652	311.46
797.832	307.37
798.012	346.28
798.192	311.46
798.373	284.84
798.553	327.85
798.733	336.04
798.913	282.79
799.093	342.18
799.274	295.08
799.454	278.69
799.634	252.07
799.814	241.83
799.994	333.99
800.174	256.17
800.354	325.8
800.534	202.92
800.714	243.88
800.894	172.2
801.074	344.23
801.254	243.88
801.434	307.37
801.614	245.93
801.794	245.93
801.974	620.71
802.154	278.69
802.334	223.4
802.514	219.3
802.693	264.36
802.873	247.97
803.053	252.07
803.233	360.61
803.413	260.26
803.592	297.13
803.772	290.98
803.952	219.3
804.131	256.17
804.311	131.24
804.491	297.13
804.67	184.49
804.85	276.65
805.03	270.5
805.209	231.59
805.389	252.07
805.568	225.45
805.748	219.3
805.928	252.07
806.107	276.65
806.287	168.1
806.466	272.55
806.646	202.92
806.825	290.98
807.004	192.68
807.184	221.35
807.363	243.88
807.543	243.88
807.722	182.44
807.901	211.11
808.081	229.54
808.26	207.02
808.439	247.97
808.619	157.86
808.798	252.07
808.977	172.2
809.156	204.97
809.336	186.54
809.515	256.17
809.694	243.88
809.873	188.58
810.052	80.04
810.231	225.45
810.411	207.02
810.59	252.07
810.769	221.35
810.948	327.85
811.127	176.3
811.306	170.15
811.485	153.77
811.664	233.64
811.843	161.96
812.022	225.45
812.201	194.73
812.38	186.54
812.559	202.92
812.737	186.54
812.916	182.44
813.095	209.06
813.274	180.39
813.453	157.86
813.632	127.14
813.811	225.45
813.989	237.74
814.168	135.34
814.347	125.1
814.526	270.5
814.704	176.3
814.883	213.16
815.062	155.82
815.24	198.82
815.419	143.53
815.598	190.63
815.776	161.96
815.955	137.38
816.133	202.92
816.312	164.01
816.49	108.71
816.669	190.63
816.847	92.33
817.026	172.2
817.204	151.72
817.383	121
817.561	211.11
817.74	166.06
817.918	106.67
818.097	135.34
818.275	166.06
818.453	196.78
818.632	145.58
818.81	139.43
818.988	176.3
819.167	116.9
819.345	237.74
819.523	229.54
819.701	157.86
819.879	125.1
820.058	186.54
820.236	127.14
820.414	114.86
820.592	157.86
820.77	159.91
820.948	153.77
821.127	143.53
821.305	80.04
821.483	118.95
821.661	102.57
821.839	96.43
822.017	92.33
822.195	131.24
822.373	182.44
822.551	151.72
822.729	77.99
822.907	133.29
823.085	149.67
823.262	147.62
823.44	157.86
823.618	153.77
823.796	198.82
823.974	98.47
824.152	75.95
824.329	114.86
824.507	164.01
824.685	108.71
824.863	155.82
825.04	131.24
825.218	129.19
825.396	131.24
825.574	118.95
825.751	182.44
825.929	172.2
826.107	104.62
826.284	149.67
826.462	174.25
826.639	139.43
826.817	166.06
826.994	84.14
827.172	41.13
827.349	202.92
827.527	104.62
827.704	121
827.882	92.33
828.059	139.43
828.237	84.14
828.414	131.24
828.591	155.82
828.769	153.77
828.946	77.99
829.124	125.1
829.301	166.06
829.478	96.43
829.655	145.58
829.833	96.43
830.01	106.67
830.187	125.1
830.364	65.71
830.542	65.71
830.719	14.51
830.896	164.01
831.073	77.99
831.25	196.78
831.427	63.66
831.604	98.47
831.782	102.57
831.959	166.06
832.136	63.66
832.313	80.04
832.49	39.08
832.667	65.71
832.844	57.51
833.021	161.96
833.198	75.95
833.374	114.86
833.551	114.86
833.728	112.81
833.905	59.56
834.082	63.66
834.259	116.9
834.436	131.24
834.612	26.79
834.789	137.38
834.966	63.66
835.143	53.42
835.319	51.37
835.496	92.33
835.673	88.23
835.85	73.9
836.026	106.67
836.203	137.38
836.38	86.19
836.556	108.71
836.733	100.52
836.909	69.8
837.086	24.75
837.262	61.61
837.439	112.81
837.616	145.58
837.792	8.36
837.968	57.51
838.145	71.85
838.321	149.67
838.498	57.51
838.674	77.99
838.851	2.22
839.027	116.9
839.203	57.51
839.38	67.75
839.556	73.9
839.732	149.67
839.909	77.99
840.085	61.61
840.261	69.8
840.437	92.33
840.614	67.75
840.79	100.52
840.966	129.19
841.142	96.43
841.318	51.37
841.494	98.47
841.671	125.1
841.847	49.32
842.023	45.23
842.199	71.85
842.375	73.9
842.551	90.28
842.727	98.47
842.903	39.08
843.079	53.42
843.255	84.14
843.431	65.71
843.607	73.9
843.783	12.46
843.959	80.04
844.134	71.85
844.31	80.04
844.486	47.27
844.662	118.95
844.838	59.56
845.013	71.85
845.189	-10.07
845.365	37.03
845.541	75.95
845.716	88.23
845.892	49.32
846.068	53.42
846.244	-5.97
846.419	127.14
846.595	155.82
846.77	67.75
846.946	63.66
847.122	104.62
847.297	43.18
847.473	55.47
847.648	92.33
847.824	22.7
847.999	-36.69
848.175	8.36
848.35	63.66
848.526	34.99
848.701	41.13
848.876	139.43
849.052	92.33
849.227	82.09
849.403	59.56
849.578	75.95
849.753	16.55
849.929	30.89
850.104	-36.69
850.279	73.9
850.454	65.71
850.63	41.13
850.805	-1.88
850.98	75.95
851.155	26.79
851.33	80.04
851.505	34.99
851.681	34.99
851.856	80.04
852.031	84.14
852.206	43.18
852.381	16.55
852.556	26.79
852.731	94.38
852.906	123.05
853.081	69.8
853.256	108.71
853.431	18.6
853.606	55.47
853.781	112.81
853.956	82.09
854.131	108.71
854.305	41.13
854.48	10.41
854.655	49.32
854.83	67.75
855.005	75.95
855.18	43.18
855.354	45.23
855.529	-1.88
855.704	18.6
855.879	45.23
856.053	10.41
856.228	14.51
856.403	49.32
856.577	104.62
856.752	-10.07
856.926	-44.88
857.101	39.08
857.276	73.9
857.45	59.56
857.625	80.04
857.799	30.89
857.974	28.84
858.148	41.13
858.323	45.23
858.497	73.9
858.672	84.14
858.846	45.23
859.02	69.8
859.195	71.85
859.369	26.79
859.543	59.56
859.718	106.67
859.892	16.55
860.066	92.33
860.241	82.09
860.415	16.55
860.589	-8.02
860.763	51.37
860.938	2.22
861.112	37.03
861.286	114.86
861.46	34.99
861.634	12.46
861.808	86.19
861.982	28.84
862.157	45.23
862.331	30.89
862.505	96.43
862.679	37.03
862.853	16.55
863.027	94.38
863.201	104.62
863.375	47.27
863.549	32.94
863.722	-16.21
863.896	47.27
864.07	118.95
864.244	-51.03
864.418	-40.79
864.592	39.08
864.766	82.09
864.939	-1.88
865.113	59.56
865.287	47.27
865.461	-3.93
865.634	61.61
865.808	73.9
865.982	0.17
866.156	-61.27
866.329	30.89
866.503	28.84
866.676	37.03
866.85	57.51
867.024	14.51
867.197	75.95
867.371	104.62
867.544	32.94
867.718	-14.17
867.891	-1.88
868.065	12.46
868.238	77.99
868.412	49.32
868.585	67.75
868.759	-48.98
868.932	-20.31
869.105	-3.93
869.279	65.71
869.452	-40.79
869.625	26.79
869.799	39.08
869.972	26.79
870.145	2.22
870.319	133.29
870.492	28.84
870.665	22.7
870.838	-8.02
871.011	34.99
871.185	26.79
871.358	45.23
871.531	-16.21
871.704	14.51
871.877	98.47
872.05	8.36
872.223	32.94
872.396	67.75
872.569	59.56
872.742	-65.36
872.915	41.13
873.088	37.03
873.261	6.31
873.434	86.19
873.607	12.46
873.78	71.85
873.953	-16.21
874.126	61.61
874.299	69.8
874.471	22.7
874.644	-5.97
874.817	2.22
874.99	39.08
875.163	24.75
875.335	14.51
875.508	45.23
875.681	53.42
875.853	4.27
876.026	41.13
876.199	-3.93
876.371	112.81
876.544	30.89
876.717	26.79
876.889	10.41
877.062	104.62
877.234	55.47
877.407	26.79
877.579	0.17
877.752	-24.4
877.924	43.18
878.097	-40.79
878.269	14.51
878.442	-14.17
878.614	65.71
878.786	80.04
878.959	-51.03
879.131	39.08
879.303	16.55
879.476	-32.6
879.648	-14.17
879.82	-24.4
879.993	6.31
880.165	-10.07
880.337	26.79
880.509	37.03
880.681	67.75
880.854	10.41
881.026	24.75
881.198	45.23
881.37	2.22
881.542	-59.22
881.714	-3.93
881.886	4.27
882.058	75.95
882.23	12.46
882.402	-14.17
882.574	43.18
882.746	96.43
882.918	104.62
883.09	26.79
883.262	39.08
883.434	30.89
883.606	37.03
883.778	4.27
883.95	51.37
884.122	34.99
884.293	14.51
884.465	32.94
884.637	71.85
884.809	-34.64
884.98	26.79
885.152	51.37
885.324	-40.79
885.496	51.37
885.667	-34.64
885.839	63.66
886.011	53.42
886.182	22.7
886.354	65.71
886.525	30.89
886.697	82.09
886.869	18.6
887.04	-12.12
887.212	88.23
887.383	39.08
887.555	8.36
887.726	82.09
887.897	-38.74
888.069	-22.36
888.24	-10.07
888.412	6.31
888.583	22.7
888.754	26.79
888.926	-20.31
889.097	18.6
889.268	-32.6
889.44	59.56
889.611	39.08
889.782	2.22
889.953	-28.5
890.125	34.99
890.296	-55.12
890.467	63.66
890.638	55.47
890.809	43.18
890.98	-18.26
891.151	18.6
891.323	39.08
891.494	-8.02
891.665	-26.45
891.836	94.38
892.007	-8.02
892.178	32.94
892.349	100.52
892.52	-24.4
892.691	-22.36
892.862	-30.55
893.032	28.84
893.203	34.99
893.374	-5.97
893.545	135.34
893.716	4.27
893.887	-16.21
894.057	-22.36
894.228	41.13
894.399	20.65
894.57	24.75
894.74	-8.02
894.911	6.31
895.082	37.03
895.253	98.47
895.423	129.19
895.594	6.31
895.764	47.27
895.935	-73.56
896.106	26.79
896.276	24.75
896.447	80.04
896.617	39.08
896.788	-18.26
896.958	20.65
897.129	-38.74
897.299	-51.03
897.47	34.99
897.64	55.47
897.81	-71.51
897.981	26.79
898.151	16.55
898.322	28.84
898.492	71.85
898.662	-34.64
898.832	57.51
899.003	34.99
899.173	41.13
899.343	37.03
899.513	14.51
