Data from USB4F104151__76__11-37-38-799.txt Node

Date: Fri Mar 14 11:37:38 EDT 2025
User: louis
Spectrometer: USB4F10415
Trigger mode: 4
Integration Time (sec): 2.000000E-2
Scans to average: 1
Electric dark correction enabled: true
Nonlinearity correction enabled: false
Boxcar width: 0
XAxis mode: Wavelengths
Number of Pixels in Spectrum: 3648
>>>>>Begin Spectral Data<<<<<
178.204	-78.16
178.424	-78.16
178.644	-78.16
178.864	-98.64
179.084	-59.73
179.304	-67.92
179.524	5.8
179.744	67.24
179.964	36.52
180.184	-31.06
180.404	40.62
180.624	-63.83
180.844	-74.07
181.064	-29.01
181.283	42.67
181.503	46.76
181.723	26.28
181.943	-82.26
182.163	9.9
182.383	24.23
182.602	75.43
182.822	7.85
183.042	-16.73
183.262	13.99
183.482	13.99
183.701	46.76
183.921	-65.88
184.141	-12.63
184.361	57
184.58	-24.92
184.8	-33.11
185.02	65.19
185.239	-29.01
185.459	9.9
185.679	42.67
185.898	11.95
186.118	-29.01
186.338	-49.49
186.557	7.85
186.777	-51.54
186.997	-49.49
187.216	13.99
187.436	28.33
187.655	5.8
187.875	13.99
188.095	-2.39
188.314	3.75
188.534	63.15
188.753	-18.77
188.973	-74.07
189.192	7.85
189.412	40.62
189.631	26.28
189.851	57
190.07	-47.44
190.29	-20.82
190.509	79.53
190.729	40.62
190.948	40.62
191.168	116.39
191.387	-2.39
191.607	38.57
191.826	-4.44
192.045	-22.87
192.265	20.14
192.484	16.04
192.704	5.8
192.923	-26.96
193.142	-16.73
193.362	-45.4
193.581	61.1
193.8	26.28
194.02	26.28
194.239	11.95
194.458	75.43
194.678	9.9
194.897	20.14
195.116	26.28
195.335	28.33
195.555	-49.49
195.774	-8.53
195.993	13.99
196.212	-41.3
196.432	79.53
196.651	5.8
196.87	-43.35
197.089	97.96
197.308	-8.53
197.528	-20.82
197.747	-16.73
197.966	48.81
198.185	22.19
198.404	57
198.623	24.23
198.842	-29.01
199.062	30.38
199.281	11.95
199.5	-33.11
199.719	67.24
199.938	22.19
200.157	-2.39
200.376	67.24
200.595	46.76
200.814	69.29
201.033	44.71
201.252	7.85
201.471	30.38
201.69	9.9
201.909	5.8
202.128	-84.31
202.347	22.19
202.566	-12.63
202.785	11.95
203.004	-35.16
203.223	18.09
203.442	93.87
203.661	22.19
203.879	-37.2
204.098	13.99
204.317	-12.63
204.536	28.33
204.755	42.67
204.974	-4.44
205.193	-59.73
205.411	79.53
205.63	42.67
205.849	-33.11
206.068	32.43
206.287	-10.58
206.505	16.04
206.724	-53.59
206.943	79.53
207.162	-37.2
207.381	-33.11
207.599	-14.68
207.818	26.28
208.037	28.33
208.255	24.23
208.474	34.47
208.693	89.77
208.911	11.95
209.13	-16.73
209.349	28.33
209.567	48.81
209.786	40.62
210.005	7.85
210.223	143.02
210.442	-35.16
210.661	30.38
210.879	3.75
211.098	-39.25
211.316	11.95
211.535	40.62
211.753	30.38
211.972	40.62
212.191	40.62
212.409	16.04
212.628	34.47
212.846	-47.44
213.065	40.62
213.283	63.15
213.502	-55.64
213.72	30.38
213.938	11.95
214.157	-31.06
214.375	65.19
214.594	9.9
214.812	16.04
215.031	-53.59
215.249	9.9
215.467	-37.2
215.686	-39.25
215.904	9.9
216.122	-10.58
216.341	36.52
216.559	50.86
216.778	-33.11
216.996	40.62
217.214	-24.92
217.432	-26.96
217.651	-10.58
217.869	-47.44
218.087	36.52
218.306	-33.11
218.524	120.49
218.742	-63.83
218.96	26.28
219.179	48.81
219.397	3.75
219.615	71.34
219.833	52.91
220.051	50.86
220.27	42.67
220.488	-0.34
220.706	44.71
220.924	18.09
221.142	24.23
221.36	16.04
221.578	16.04
221.796	5.8
222.015	40.62
222.233	50.86
222.451	46.76
222.669	-33.11
222.887	16.04
223.105	-24.92
223.323	28.33
223.541	28.33
223.759	38.57
223.977	-22.87
224.195	28.33
224.413	48.81
224.631	106.15
224.849	-57.68
225.067	114.34
225.285	3.75
225.503	-37.2
225.721	18.09
225.939	5.8
226.157	24.23
226.375	63.15
226.592	13.99
226.81	52.91
227.028	-4.44
227.246	79.53
227.464	-16.73
227.682	69.29
227.9	52.91
228.117	30.38
228.335	-16.73
228.553	24.23
228.771	100.01
228.989	100.01
229.206	-82.26
229.424	5.8
229.642	-29.01
229.86	-41.3
230.077	81.58
230.295	30.38
230.513	57
230.731	36.52
230.948	28.33
231.166	50.86
231.384	28.33
231.601	-49.49
231.819	73.39
232.037	32.43
232.254	-4.44
232.472	-65.88
232.689	28.33
232.907	46.76
233.125	-4.44
233.342	26.28
233.56	26.28
233.777	30.38
233.995	-41.3
234.213	38.57
234.43	20.14
234.648	-37.2
234.865	-14.68
235.083	11.95
235.3	5.8
235.518	34.47
235.735	-41.3
235.953	7.85
236.17	3.75
236.388	-20.82
236.605	30.38
236.822	16.04
237.04	34.47
237.257	73.39
237.475	-6.49
237.692	-43.35
237.909	-2.39
238.127	9.9
238.344	42.67
238.562	-14.68
238.779	-12.63
238.996	-20.82
239.214	-2.39
239.431	22.19
239.648	-6.49
239.865	65.19
240.083	24.23
240.3	67.24
240.517	20.14
240.735	13.99
240.952	48.81
241.169	81.58
241.386	57
241.603	20.14
241.821	7.85
242.038	30.38
242.255	-8.53
242.472	-16.73
242.689	-2.39
242.907	28.33
243.124	16.04
243.341	40.62
243.558	20.14
243.775	13.99
243.992	16.04
244.209	81.58
244.426	65.19
244.643	-0.34
244.86	1.71
245.078	89.77
245.295	77.48
245.512	11.95
245.729	-24.92
245.946	102.06
246.163	40.62
246.38	16.04
246.597	-14.68
246.814	44.71
247.031	13.99
247.248	81.58
247.464	7.85
247.681	26.28
247.898	-65.88
248.115	-78.16
248.332	36.52
248.549	-24.92
248.766	132.78
248.983	-2.39
249.2	-39.25
249.417	54.95
249.633	102.06
249.85	-47.44
250.067	-8.53
250.284	-2.39
250.501	106.15
250.717	57
250.934	1.71
251.151	40.62
251.368	-18.77
251.585	46.76
251.801	-8.53
252.018	13.99
252.235	32.43
252.451	54.95
252.668	46.76
252.885	61.1
253.102	40.62
253.318	-14.68
253.535	34.47
253.752	-2.39
253.968	-35.16
254.185	-33.11
254.401	24.23
254.618	9.9
254.835	-0.34
255.051	32.43
255.268	46.76
255.484	-16.73
255.701	50.86
255.917	13.99
256.134	24.23
256.351	20.14
256.567	69.29
256.784	16.04
257	-53.59
257.217	-39.25
257.433	-0.34
257.65	7.85
257.866	3.75
258.082	11.95
258.299	48.81
258.515	-24.92
258.732	24.23
258.948	-18.77
259.165	40.62
259.381	-0.34
259.597	61.1
259.814	-10.58
260.03	-4.44
260.246	50.86
260.463	73.39
260.679	59.05
260.895	40.62
261.112	36.52
261.328	-18.77
261.544	26.28
261.761	26.28
261.977	54.95
262.193	-20.82
262.409	32.43
262.626	-47.44
262.842	61.1
263.058	-63.83
263.274	16.04
263.49	-4.44
263.707	52.91
263.923	-35.16
264.139	11.95
264.355	3.75
264.571	34.47
264.787	46.76
265.004	57
265.22	-51.54
265.436	-29.01
265.652	-43.35
265.868	-10.58
266.084	22.19
266.3	61.1
266.516	52.91
266.732	-26.96
266.948	7.85
267.164	97.96
267.38	16.04
267.596	-4.44
267.812	32.43
268.028	-35.16
268.244	-12.63
268.46	-16.73
268.676	26.28
268.892	1.71
269.108	-12.63
269.324	24.23
269.54	-6.49
269.756	44.71
269.972	-4.44
270.188	-20.82
270.403	22.19
270.619	-4.44
270.835	65.19
271.051	5.8
271.267	36.52
271.483	24.23
271.698	48.81
271.914	-16.73
272.13	36.52
272.346	-37.2
272.562	-20.82
272.777	5.8
272.993	16.04
273.209	26.28
273.425	79.53
273.64	50.86
273.856	-8.53
274.072	11.95
274.287	18.09
274.503	16.04
274.719	3.75
274.934	32.43
275.15	7.85
275.366	-35.16
275.581	16.04
275.797	104.11
276.012	20.14
276.228	13.99
276.444	-29.01
276.659	13.99
276.875	-2.39
277.09	114.34
277.306	11.95
277.521	16.04
277.737	-24.92
277.952	-33.11
278.168	11.95
278.383	-41.3
278.599	44.71
278.814	13.99
279.03	-37.2
279.245	48.81
279.461	7.85
279.676	42.67
279.892	40.62
280.107	26.28
280.322	30.38
280.538	-35.16
280.753	42.67
280.969	81.58
281.184	1.71
281.399	57
281.615	13.99
281.83	42.67
282.045	22.19
282.26	79.53
282.476	5.8
282.691	18.09
282.906	71.34
283.122	91.82
283.337	40.62
283.552	-47.44
283.767	-0.34
283.983	-45.4
284.198	61.1
284.413	-31.06
284.628	122.54
284.843	11.95
285.058	-0.34
285.274	-26.96
285.489	18.09
285.704	67.24
285.919	91.82
286.134	67.24
286.349	-31.06
286.564	16.04
286.779	24.23
286.995	-76.12
287.21	5.8
287.425	38.57
287.64	-14.68
287.855	11.95
288.07	-26.96
288.285	89.77
288.5	30.38
288.715	18.09
288.93	54.95
289.145	-63.83
289.36	130.73
289.575	-16.73
289.79	79.53
290.004	-4.44
290.219	1.71
290.434	24.23
290.649	7.85
290.864	48.81
291.079	-12.63
291.294	77.48
291.509	-4.44
291.724	48.81
291.938	-12.63
292.153	57
292.368	18.09
292.583	-2.39
292.798	13.99
293.012	63.15
293.227	42.67
293.442	-49.49
293.657	57
293.871	85.67
294.086	42.67
294.301	9.9
294.516	11.95
294.73	16.04
294.945	18.09
295.16	63.15
295.374	13.99
295.589	38.57
295.804	7.85
296.018	28.33
296.233	-4.44
296.447	59.05
296.662	-14.68
296.877	69.29
297.091	97.96
297.306	24.23
297.52	63.15
297.735	59.05
297.949	-10.58
298.164	48.81
298.378	-2.39
298.593	-43.35
298.807	-10.58
299.022	5.8
299.236	61.1
299.451	-29.01
299.665	-29.01
299.88	16.04
300.094	-10.58
300.309	100.01
300.523	28.33
300.737	-2.39
300.952	40.62
301.166	-55.64
301.381	-8.53
301.595	-26.96
301.809	44.71
302.024	48.81
302.238	18.09
302.452	44.71
302.667	108.2
302.881	1.71
303.095	16.04
303.309	97.96
303.524	3.75
303.738	16.04
303.952	-41.3
304.166	54.95
304.381	-0.34
304.595	65.19
304.809	40.62
305.023	50.86
305.237	108.2
305.452	11.95
305.666	40.62
305.88	44.71
306.094	30.38
306.308	59.05
306.522	9.9
306.736	48.81
306.95	63.15
307.164	40.62
307.379	-37.2
307.593	54.95
307.807	24.23
308.021	-2.39
308.235	42.67
308.449	22.19
308.663	75.43
308.877	13.99
309.091	9.9
309.305	38.57
309.519	-33.11
309.733	22.19
309.947	3.75
310.161	61.1
310.374	-20.82
310.588	126.63
310.802	52.91
311.016	9.9
311.23	54.95
311.444	-24.92
311.658	13.99
311.872	-78.16
312.085	32.43
312.299	54.95
312.513	-55.64
312.727	97.96
312.941	13.99
313.154	-10.58
313.368	-0.34
313.582	32.43
313.796	5.8
314.009	-6.49
314.223	61.1
314.437	69.29
314.651	-4.44
314.864	65.19
315.078	81.58
315.292	-24.92
315.505	-41.3
315.719	-0.34
315.933	61.1
316.146	-37.2
316.36	75.43
316.573	-37.2
316.787	91.82
317.001	77.48
317.214	67.24
317.428	-14.68
317.641	36.52
317.855	20.14
318.068	16.04
318.282	-2.39
318.495	57
318.709	54.95
318.922	13.99
319.136	13.99
319.349	44.71
319.563	7.85
319.776	65.19
319.99	3.75
320.203	30.38
320.417	30.38
320.63	16.04
320.843	61.1
321.057	-45.4
321.27	-4.44
321.483	36.52
321.697	38.57
321.91	46.76
322.124	52.91
322.337	-43.35
322.55	-4.44
322.763	-16.73
322.977	38.57
323.19	61.1
323.403	71.34
323.617	28.33
323.83	32.43
324.043	36.52
324.256	36.52
324.469	11.95
324.683	65.19
324.896	26.28
325.109	30.38
325.322	-8.53
325.535	104.11
325.748	24.23
325.962	32.43
326.175	44.71
326.388	89.77
326.601	-6.49
326.814	-33.11
327.027	54.95
327.24	22.19
327.453	-2.39
327.666	57
327.879	-8.53
328.092	65.19
328.305	-12.63
328.518	46.76
328.731	7.85
328.944	5.8
329.157	24.23
329.37	-8.53
329.583	-29.01
329.796	40.62
330.009	28.33
330.222	-10.58
330.435	28.33
330.648	77.48
330.861	48.81
331.073	-4.44
331.286	16.04
331.499	79.53
331.712	44.71
331.925	-2.39
332.138	20.14
332.35	67.24
332.563	34.47
332.776	118.44
332.989	57
333.202	20.14
333.414	-80.21
333.627	69.29
333.84	-14.68
334.053	36.52
334.265	48.81
334.478	22.19
334.691	3.75
334.903	-0.34
335.116	-14.68
335.329	7.85
335.541	32.43
335.754	114.34
335.966	7.85
336.179	46.76
336.392	-6.49
336.604	11.95
336.817	-2.39
337.029	18.09
337.242	38.57
337.454	50.86
337.667	-8.53
337.88	79.53
338.092	54.95
338.305	81.58
338.517	22.19
338.729	42.67
338.942	67.24
339.154	50.86
339.367	11.95
339.579	44.71
339.792	18.09
340.004	48.81
340.217	46.76
340.429	38.57
340.641	-26.96
340.854	-8.53
341.066	20.14
341.278	73.39
341.491	52.91
341.703	-14.68
341.915	-57.68
342.128	32.43
342.34	40.62
342.552	79.53
342.764	42.67
342.977	52.91
343.189	20.14
343.401	69.29
343.613	-6.49
343.826	28.33
344.038	-47.44
344.25	-4.44
344.462	114.34
344.674	63.15
344.886	38.57
345.099	52.91
345.311	-12.63
345.523	42.67
345.735	-8.53
345.947	36.52
346.159	81.58
346.371	18.09
346.583	-16.73
346.795	65.19
347.007	22.19
347.219	11.95
347.431	-31.06
347.643	52.91
347.855	-29.01
348.067	40.62
348.279	-18.77
348.491	-20.82
348.703	1.71
348.915	61.1
349.127	20.14
349.339	-26.96
349.551	5.8
349.763	83.63
349.975	38.57
350.187	30.38
350.399	40.62
350.61	-0.34
350.822	46.76
351.034	48.81
351.246	67.24
351.458	93.87
351.669	130.73
351.881	46.76
352.093	81.58
352.305	34.47
352.517	-4.44
352.728	36.52
352.94	-61.78
353.152	-18.77
353.363	28.33
353.575	-16.73
353.787	97.96
353.999	36.52
354.21	7.85
354.422	85.67
354.633	32.43
354.845	9.9
355.057	145.06
355.268	7.85
355.48	79.53
355.692	63.15
355.903	5.8
356.115	-31.06
356.326	13.99
356.538	128.68
356.749	32.43
356.961	52.91
357.172	-26.96
357.384	26.28
357.595	48.81
357.807	38.57
358.018	-12.63
358.23	34.47
358.441	38.57
358.653	87.72
358.864	30.38
359.075	52.91
359.287	122.54
359.498	22.19
359.709	54.95
359.921	52.91
360.132	-8.53
360.344	18.09
360.555	65.19
360.766	57
360.977	26.28
361.189	95.91
361.4	3.75
361.611	54.95
361.823	28.33
362.034	13.99
362.245	30.38
362.456	-8.53
362.667	-16.73
362.879	24.23
363.09	91.82
363.301	22.19
363.512	-14.68
363.723	-24.92
363.935	73.39
364.146	85.67
364.357	-6.49
364.568	38.57
364.779	-18.77
364.99	104.11
365.201	-31.06
365.412	79.53
365.623	7.85
365.834	7.85
366.045	-6.49
366.256	52.91
366.467	112.3
366.678	24.23
366.889	-8.53
367.1	28.33
367.311	122.54
367.522	50.86
367.733	65.19
367.944	-4.44
368.155	36.52
368.366	9.9
368.577	38.57
368.788	38.57
368.999	-12.63
369.209	46.76
369.42	57
369.631	116.39
369.842	61.1
370.053	-45.4
370.264	20.14
370.474	11.95
370.685	22.19
370.896	-18.77
371.107	18.09
371.317	61.1
371.528	-37.2
371.739	65.19
371.95	61.1
372.16	95.91
372.371	26.28
372.582	16.04
372.792	-22.87
373.003	106.15
373.214	32.43
373.424	-10.58
373.635	-33.11
373.846	95.91
374.056	77.48
374.267	18.09
374.477	48.81
374.688	-37.2
374.898	32.43
375.109	42.67
375.319	38.57
375.53	91.82
375.74	54.95
375.951	77.48
376.161	26.28
376.372	77.48
376.582	69.29
376.793	57
377.003	-4.44
377.214	36.52
377.424	24.23
377.635	69.29
377.845	24.23
378.055	24.23
378.266	34.47
378.476	-0.34
378.686	38.57
378.897	-14.68
379.107	11.95
379.317	59.05
379.528	89.77
379.738	61.1
379.948	-0.34
380.158	22.19
380.369	46.76
380.579	52.91
380.789	48.81
380.999	34.47
381.21	54.95
381.42	147.11
381.63	93.87
381.84	57
382.05	9.9
382.261	48.81
382.471	36.52
382.681	48.81
382.891	7.85
383.101	-33.11
383.311	-18.77
383.521	16.04
383.731	81.58
383.941	93.87
384.151	-29.01
384.361	-8.53
384.571	97.96
384.781	69.29
384.991	95.91
385.201	83.63
385.411	77.48
385.621	73.39
385.831	85.67
386.041	126.63
386.251	95.91
386.461	38.57
386.671	134.82
386.881	77.48
387.091	42.67
387.301	85.67
387.511	73.39
387.72	-2.39
387.93	79.53
388.14	9.9
388.35	102.06
388.56	40.62
388.769	20.14
388.979	145.06
389.189	11.95
389.399	40.62
389.609	73.39
389.818	59.05
390.028	83.63
390.238	9.9
390.447	67.24
390.657	87.72
390.867	18.09
391.076	-2.39
391.286	-8.53
391.496	124.58
391.705	85.67
391.915	155.3
392.125	73.39
392.334	-45.4
392.544	48.81
392.753	102.06
392.963	42.67
393.172	122.54
393.382	81.58
393.591	110.25
393.801	32.43
394.01	34.47
394.22	46.76
394.429	65.19
394.639	73.39
394.848	95.91
395.058	91.82
395.267	48.81
395.477	120.49
395.686	110.25
395.895	124.58
396.105	42.67
396.314	44.71
396.524	59.05
396.733	73.39
396.942	104.11
397.152	89.77
397.361	69.29
397.57	114.34
397.78	46.76
397.989	81.58
398.198	143.02
398.407	132.78
398.617	130.73
398.826	46.76
399.035	67.24
399.244	24.23
399.453	57
399.663	73.39
399.872	122.54
400.081	95.91
400.29	177.83
400.499	18.09
400.708	87.72
400.917	54.95
401.127	77.48
401.336	-0.34
401.545	83.63
401.754	75.43
401.963	108.2
402.172	136.87
402.381	145.06
402.59	124.58
402.799	153.26
403.008	81.58
403.217	81.58
403.426	192.17
403.635	177.83
403.844	183.98
404.053	75.43
404.262	147.11
404.471	171.69
404.68	147.11
404.888	93.87
405.097	169.64
405.306	138.92
405.515	104.11
405.724	116.39
405.933	175.78
406.142	108.2
406.35	169.64
406.559	181.93
406.768	147.11
406.977	202.41
407.185	229.03
407.394	153.26
407.603	175.78
407.812	204.46
408.02	206.5
408.229	186.02
408.438	222.89
408.646	245.41
408.855	251.56
409.064	257.7
409.272	274.09
409.481	308.9
409.69	243.37
409.898	280.23
410.107	333.48
410.315	417.44
410.524	269.99
410.733	306.85
410.941	388.77
411.15	364.2
411.358	384.68
411.567	425.64
411.775	374.44
411.984	429.73
412.192	384.68
412.401	425.64
412.609	474.79
412.818	460.45
413.026	532.13
413.234	554.66
413.443	523.94
413.651	546.47
413.86	585.38
414.068	628.39
414.276	671.39
414.485	667.3
414.693	597.67
414.901	695.97
415.11	761.5
415.318	716.45
415.526	781.98
415.734	728.74
415.943	822.94
416.151	888.48
416.359	947.87
416.567	931.48
416.776	882.33
416.984	915.1
417.192	980.64
417.4	1027.74
417.608	1064.6
417.817	1093.27
418.025	1121.95
418.233	1244.82
418.441	1222.3
418.649	1240.73
418.857	1250.97
419.065	1259.16
419.273	1334.93
419.481	1384.09
419.689	1552.02
419.897	1601.17
420.105	1502.87
420.313	1646.23
420.521	1740.43
420.729	1805.97
420.937	1797.78
421.145	1822.35
421.353	1898.13
421.561	1990.28
421.769	1982.09
421.977	2188.94
422.185	2094.73
422.393	2186.89
422.601	2467.46
422.809	2442.89
423.017	2426.5
423.224	2360.97
423.432	2596.48
423.64	2567.81
423.848	2797.18
424.056	2805.38
424.263	2913.92
424.471	2905.73
424.679	2961.02
424.887	3208.83
425.094	3391.09
425.302	3339.9
425.51	3473.01
425.718	3561.08
425.925	3686
426.133	3761.78
426.341	3858.03
426.548	4083.31
426.756	4007.53
426.964	4195.95
427.171	4572.77
427.379	4517.48
427.586	4521.57
427.794	4550.25
428.001	4839.01
428.209	5092.96
428.417	5047.9
428.624	5490.26
428.832	5525.08
429.039	5428.82
429.247	5434.97
429.454	5756.5
429.662	6174.28
429.869	5688.92
430.076	6227.53
430.284	6065.74
430.491	6391.37
430.699	6733.38
430.906	6684.23
431.114	6858.31
431.321	7116.35
431.528	7200.32
431.736	7806.52
431.943	8046.13
432.15	7808.56
432.358	7913.01
432.565	8478.25
432.772	8298.03
432.979	8752.68
433.187	8918.56
433.394	8949.28
433.601	9459.23
433.808	9698.84
434.016	9467.42
434.223	9786.9
434.43	10389
434.637	10452.49
434.844	10931.72
435.052	11343.36
435.259	11173.38
435.466	11159.04
435.673	10933.76
435.88	11779.57
436.087	12576.23
436.294	12539.37
436.501	12180.98
436.708	12340.72
436.915	12953.06
437.122	13389.28
437.329	13200.87
437.537	13702.62
437.743	14165.46
437.95	13747.67
438.157	14437.84
438.364	15154.63
438.571	15230.4
438.778	15029.7
438.985	16725.42
439.192	15996.34
439.399	16342.45
439.606	15928.76
439.813	16868.78
440.02	17905.05
440.227	17673.63
440.433	17483.17
440.64	18156.95
440.847	17917.34
441.054	18462.1
441.261	19699.07
441.467	19481.99
441.674	19922.3
441.881	20422
442.088	20473.2
442.294	20424.05
442.501	21024.11
442.708	21118.31
442.914	22054.23
443.121	22916.43
443.328	22545.75
443.534	24286.52
443.741	23174.47
443.948	22879.57
444.154	24732.98
444.361	24448.31
444.568	24931.63
444.774	24497.46
444.981	24767.79
445.187	25664.8
445.394	26531.09
445.6	26445.08
445.807	28943.6
446.013	27981.06
446.22	28251.39
446.426	29560.04
446.633	29508.84
446.839	30323.93
447.046	29162.73
447.252	30661.85
447.459	30905.56
447.665	31225.04
447.871	32339.13
448.078	33381.55
448.284	31751.37
448.491	32634.04
448.697	34004.13
448.903	34628.76
449.11	34768.02
449.316	34370.72
449.522	34493.6
449.728	35628.17
449.935	36390.02
450.141	35613.84
450.347	36660.35
450.553	35576.97
450.76	36316.29
450.966	37631.08
451.172	36953.21
451.378	37792.87
451.584	37203.06
451.791	37919.85
451.997	37551.21
452.203	38151.27
452.409	38376.55
452.615	38171.75
452.821	36435.07
453.027	36392.06
453.233	38528.09
453.44	37166.2
453.646	37235.83
453.852	37135.48
454.058	38149.22
454.264	36949.11
454.47	37813.35
454.676	37061.75
454.882	38042.73
455.088	34696.35
455.294	35175.57
455.5	35792.01
455.705	36273.28
455.911	34477.21
456.117	34276.51
456.323	34086.05
456.529	32302.27
456.735	33244.34
456.941	32277.69
457.147	31812.81
457.352	31194.32
457.558	30291.16
457.764	30829.78
457.97	30153.95
458.176	29439.21
458.381	29631.72
458.587	27905.28
458.793	27997.44
458.999	26250.52
459.204	28417.27
459.41	27313.42
459.616	26010.91
459.821	26127.64
460.027	25611.56
460.233	25287.98
460.438	23887.17
460.644	24188.22
460.85	23131.47
461.055	22707.54
461.261	22412.63
461.466	20936.04
461.672	20313.46
461.878	21908.83
462.083	20436.34
462.289	20147.58
462.494	19717.5
462.7	19051.91
462.905	18324.88
463.111	19166.6
463.316	19137.93
463.522	18412.95
463.727	18793.87
463.932	18795.92
464.138	18253.2
464.343	18621.84
464.549	17970.58
464.754	18693.52
464.959	18466.19
465.165	18111.89
465.37	17546.65
465.575	16938.41
465.781	17845.66
465.986	17780.12
466.191	17278.37
466.397	16911.78
466.602	16418.22
466.807	16891.3
467.012	16557.49
467.218	16801.19
467.423	16434.61
467.628	16686.51
467.833	17124.77
468.038	16494
468.244	15951.29
468.449	16725.42
468.654	16463.28
468.859	16438.7
469.064	15994.29
469.269	15216.07
469.474	15285.7
469.679	15971.77
469.885	15267.27
470.09	15678.91
470.295	15283.65
470.5	15052.23
470.705	15115.72
470.91	15191.49
471.115	14550.48
471.32	15216.07
471.525	14636.49
471.73	14364.11
471.935	14261.71
472.139	14147.03
472.344	14161.36
472.549	13909.46
472.754	13729.24
472.959	13331.94
473.164	13037.03
473.369	13108.71
473.574	13682.14
473.778	13432.29
473.983	13237.73
474.188	13069.8
474.393	12828.13
474.598	12584.43
474.802	12584.43
475.007	12506.6
475.212	12475.88
475.417	11894.26
475.621	11978.23
475.826	12172.78
476.031	11775.48
476.235	11677.18
476.44	11791.86
476.645	11539.96
476.849	11632.12
477.054	11499
477.259	10974.72
477.463	11181.57
477.668	11017.73
477.872	10806.79
478.077	10909.19
478.282	10372.62
478.486	10495.5
478.691	10599.94
478.895	10405.39
479.1	10403.34
479.304	10323.47
479.509	10167.82
479.713	10210.83
479.918	9977.36
480.122	9831.96
480.326	10087.95
480.531	10180.11
480.735	9924.12
480.94	9766.42
481.144	10210.83
481.348	9784.85
481.553	9666.07
481.757	9393.69
481.961	9784.85
482.166	9709.08
482.37	9788.95
482.574	9657.88
482.778	9694.74
482.983	9848.34
483.187	9750.04
483.391	9625.11
483.595	9555.48
483.8	9397.79
484.004	9649.69
484.208	9623.06
484.412	9741.85
484.616	9565.72
484.821	9692.69
485.025	9510.43
485.229	9629.21
485.433	9516.57
485.637	9702.93
485.841	9834
486.045	9442.84
486.249	9614.87
486.453	9459.23
486.657	9621.02
486.861	9670.17
487.065	9395.74
487.269	9487.9
487.473	9420.31
487.677	9600.54
487.881	9596.44
488.085	9526.81
488.289	9604.63
488.493	9686.55
488.697	9700.89
488.901	9715.22
489.105	9688.6
489.309	9799.19
489.512	9917.97
489.716	9698.84
489.92	9682.45
490.124	9735.7
490.328	9821.72
490.531	9852.44
490.735	10034.71
490.939	9870.87
491.143	9891.35
491.346	9956.88
491.55	9897.49
491.754	10141.2
491.958	10161.68
492.161	10024.47
492.365	10042.9
492.569	9805.33
492.772	9997.84
492.976	10292.75
493.18	10280.46
493.383	10522.12
493.587	10307.09
493.79	10579.47
493.994	10558.99
494.197	10477.07
494.401	10581.51
494.605	10583.56
494.808	10575.37
495.012	10624.52
495.215	10843.65
495.419	11042.31
495.622	10788.36
495.825	11075.07
496.029	11134.46
496.232	11202.05
496.436	11089.41
496.639	11851.25
496.843	11511.29
497.046	11806.2
497.249	11771.38
497.453	11990.52
497.656	11916.79
497.859	12023.28
498.063	12260.85
498.266	12406.25
498.469	12402.16
498.673	12516.84
498.876	12572.14
499.079	12699.11
499.282	12783.08
499.485	13010.4
499.689	13129.19
499.892	13415.9
500.095	13458.91
500.298	13669.85
500.501	13585.88
500.705	13768.15
500.908	14128.6
501.111	14276.05
501.314	14243.28
501.517	14390.74
501.72	14947.78
501.923	14550.48
502.126	14941.64
502.329	15125.96
502.532	15379.9
502.735	15189.44
502.938	15732.15
503.141	15402.43
503.344	16184.76
503.547	15787.45
503.75	16561.58
503.953	16227.76
504.156	16682.41
504.359	16690.6
504.562	16819.63
504.765	17208.74
504.968	17153.44
505.17	17466.78
505.373	17649.05
505.576	17556.89
505.779	17941.91
505.982	18058.65
506.185	18349.46
506.387	18523.54
506.59	18570.64
506.793	19080.58
506.996	18965.9
507.198	19469.7
507.401	19105.16
507.604	19500.42
507.807	19957.11
508.009	20028.79
508.212	20489.59
508.415	20479.35
508.617	20516.21
508.82	20934
509.022	20882.8
509.225	21423.46
509.428	21230.95
509.63	21464.42
509.833	21435.75
510.035	22134.1
510.238	21910.88
510.44	21933.4
510.643	22635.86
510.845	22601.04
511.048	22668.62
511.25	22963.53
511.453	23057.74
511.655	23749.95
511.858	23565.64
512.06	23960.89
512.262	24128.83
512.465	24263.99
512.667	24755.5
512.87	24622.39
513.072	24798.51
513.274	25066.8
513.477	25392.42
513.679	25548.07
513.881	25742.63
514.084	26045.73
514.286	26078.49
514.488	25931.04
514.69	27016.46
514.893	27065.61
515.095	27346.19
515.297	27190.54
515.499	27569.41
515.701	27602.18
515.904	27780.35
516.106	28155.13
516.308	28488.95
516.51	28560.63
516.712	28665.08
516.914	29209.84
517.116	29766.88
517.318	29787.36
517.52	29680.87
517.722	29910.24
517.925	30196.96
518.127	30385.37
518.329	30817.49
518.531	30641.37
518.733	31290.57
518.935	31497.42
519.136	31247.57
519.338	31640.78
519.54	31720.65
519.742	32138.43
519.944	32427.2
520.146	32838.84
520.348	32781.49
520.55	33150.13
520.752	33119.41
520.954	33649.83
521.155	33567.91
521.357	34120.87
521.559	34262.18
521.761	34430.11
521.963	34669.72
522.164	34616.47
522.366	34704.54
522.568	35024.02
522.77	35267.73
522.971	36084.87
523.173	35484.81
523.375	36246.66
523.576	35812.49
523.778	35851.4
523.98	36476.03
524.181	36480.13
524.383	36603
524.584	37088.37
524.786	37323.89
524.988	37139.57
525.189	37364.85
525.391	37655.66
525.592	37645.42
525.794	37649.52
525.995	37827.69
526.197	37848.17
526.398	37921.9
526.6	38372.45
526.801	38161.51
527.003	38567.01
527.204	38507.62
527.406	38970.46
527.607	38708.32
527.808	39038.04
528.01	38349.92
528.211	39070.81
528.412	39742.54
528.614	39238.74
528.815	39539.79
529.016	39935.05
529.218	39752.78
529.419	39566.41
529.62	39539.79
529.822	40107.08
530.023	39906.38
530.224	40021.06
530.425	39631.95
530.626	39826.51
530.828	39429.2
531.029	40657.98
531.23	40320.07
531.431	39816.27
531.632	40281.16
531.833	40324.16
532.035	40301.64
532.236	40238.15
532.437	40592.45
532.638	40131.65
532.839	40633.41
533.04	40643.65
533.241	40213.57
533.442	41075.77
533.643	40543.3
533.844	40428.61
534.045	40666.17
534.246	40232
534.447	40834.11
534.648	40479.81
534.849	40698.94
535.05	40301.64
535.251	41036.86
535.451	40913.98
535.652	41040.95
535.853	40621.12
536.054	41102.39
536.255	40856.64
536.456	39879.75
536.657	41190.45
536.857	40561.73
537.058	40739.9
537.259	40940.6
537.46	40686.65
537.66	40905.79
537.861	40623.17
538.062	40428.61
538.263	40608.83
538.463	40315.97
538.664	40543.3
538.865	40922.17
539.065	41024.57
539.266	40164.42
539.466	40926.27
539.667	40256.58
539.868	40930.36
540.068	40629.31
540.269	40709.18
540.469	41176.12
540.67	40375.36
540.87	40567.87
541.071	40504.38
541.271	40432.71
541.472	40739.9
541.672	40432.71
541.873	40098.89
542.073	40176.71
542.274	40637.5
542.474	40395.84
542.675	40422.47
542.875	40633.41
543.075	40592.45
543.276	39855.18
543.476	40639.55
543.676	40078.41
543.877	40584.26
544.077	40150.09
544.277	40260.68
544.478	39959.62
544.678	40666.17
544.878	40307.78
545.078	40260.68
545.279	40291.4
545.479	40182.85
545.679	40582.21
545.879	40635.45
546.079	40625.21
546.28	40531.01
546.48	40111.17
546.68	39801.93
546.88	40475.71
547.08	40172.61
547.28	40148.04
547.48	40193.09
547.68	40035.4
547.88	40053.83
548.081	40524.86
548.281	40232
548.481	39916.62
548.681	40117.32
548.881	40113.22
549.081	39859.27
549.28	40160.33
549.48	40133.7
549.68	39691.34
549.88	40672.32
550.08	39752.78
550.28	40078.41
550.48	39889.99
550.68	40283.2
550.88	39838.79
551.08	39898.19
551.279	40064.07
551.479	39855.18
551.679	40051.78
551.879	39765.07
552.079	40125.51
552.278	39908.43
552.478	39992.39
552.678	40062.02
552.878	39990.34
553.077	39748.68
553.277	39357.52
553.477	40293.44
553.676	39439.44
553.876	39867.47
554.076	39529.55
554.275	39740.49
554.475	39130.2
554.674	40125.51
554.874	39619.66
555.074	39253.08
555.273	39451.73
555.473	39650.38
555.672	39134.29
555.872	39318.61
556.071	39208.02
556.271	39447.63
556.47	39087.19
556.67	38917.21
556.869	38945.88
557.068	39441.49
557.268	39306.32
557.467	38941.78
557.667	38898.78
557.866	39197.78
558.065	38880.35
558.265	39308.37
558.464	38685.79
558.663	39132.25
558.863	38450.27
559.062	39648.33
559.261	38323.3
559.461	39140.44
559.66	38640.73
559.859	38503.52
560.058	38556.77
560.258	38966.36
560.457	38204.52
560.656	38327.39
560.855	38274.15
561.054	38374.5
561.253	38052.97
561.453	38454.37
561.652	38274.15
561.851	38644.83
562.05	37913.7
562.249	37764.2
562.448	38313.06
562.647	37997.67
562.846	37934.18
563.045	37891.18
563.244	37684.33
563.443	38380.64
563.642	37540.97
563.841	38003.81
564.04	37557.36
564.239	38016.1
564.438	37536.88
564.637	37643.37
564.836	37672.04
565.035	36908.15
565.234	37362.8
565.432	37370.99
565.631	37295.22
565.83	37612.65
566.029	37084.28
566.228	36768.89
566.427	37031.03
566.625	36899.96
566.824	36467.84
567.023	37016.69
567.222	36111.49
567.42	37020.79
567.619	36873.34
567.818	36377.73
568.016	36582.52
568.215	36543.61
568.414	36258.95
568.612	36183.17
568.811	36297.86
569.01	36324.48
569.208	36009.09
569.407	35968.13
569.605	35818.63
569.804	36091.01
570.002	35517.58
570.201	35687.56
570.4	35568.78
570.598	35699.85
570.797	35316.88
570.995	35576.97
571.193	35196.05
571.392	35261.58
571.59	34942.1
571.789	35194
571.987	35372.17
572.186	35105.94
572.384	34921.62
572.582	35069.08
572.781	35005.59
572.979	34251.94
573.177	34882.71
573.376	34870.42
573.574	34755.74
573.772	34522.27
573.971	34368.67
574.169	34161.83
574.367	33938.6
574.565	34317.47
574.763	34452.64
574.962	34063.52
575.16	33858.73
575.358	34022.56
575.556	33287.34
575.754	33891.49
575.952	33739.94
576.151	33731.75
576.349	33303.73
576.547	33719.46
576.745	33121.46
576.943	33285.29
577.141	33074.35
577.339	33649.83
577.537	33320.11
577.735	32810.17
577.933	32799.93
578.131	32945.33
578.329	32695.48
578.527	32521.4
578.725	32584.89
578.923	32615.61
579.121	32365.76
579.319	32537.79
579.516	32459.96
579.714	32550.07
579.912	32328.89
580.11	32431.29
580.308	31980.74
580.506	32156.86
580.704	31718.6
580.901	31876.29
581.099	32177.34
581.297	31888.58
581.495	31775.94
581.692	31771.85
581.89	31407.31
582.088	31732.93
582.285	31485.13
582.483	31296.72
582.681	31179.98
582.878	30960.85
583.076	30950.61
583.274	30940.37
583.471	30958.8
583.669	31110.35
583.866	30674.13
584.064	30911.7
584.262	30424.28
584.459	30649.56
584.657	30069.98
584.854	30428.38
585.052	29803.75
585.249	30444.76
585.447	30291.16
585.644	29818.08
585.841	30043.36
586.039	30383.32
586.236	29678.82
586.434	29560.04
586.631	29617.38
586.828	29416.68
587.026	29512.94
587.223	29555.94
587.42	29314.28
587.618	29449.45
587.815	29136.11
588.012	29101.29
588.21	28822.77
588.407	29134.06
588.604	28882.16
588.801	28779.76
588.999	28892.4
589.196	28587.25
589.393	28370.17
589.59	28253.44
589.787	28259.58
589.984	28323.07
590.182	28077.31
590.379	28640.5
590.576	27995.39
590.773	28351.74
590.97	27649.28
591.167	28071.17
591.364	27596.04
591.561	27956.48
591.758	27444.49
591.955	27542.79
592.152	28022.02
592.349	27387.14
592.546	27637
592.743	27217.16
592.94	27051.28
593.137	26975.5
593.334	27096.33
593.531	27038.99
593.727	27075.85
593.924	26967.31
594.121	27118.86
594.318	26826
594.515	26344.73
594.712	26901.78
594.908	26457.37
595.105	26690.84
595.302	26262.81
595.499	26418.46
595.696	26041.63
595.892	25949.47
596.089	26004.77
596.286	26064.16
596.482	25863.46
596.679	25849.12
596.876	25775.39
597.072	25662.76
597.269	25916.7
597.466	25335.08
597.662	25333.03
597.859	25406.76
598.055	25589.03
598.252	25359.66
598.448	25111.85
598.645	25242.92
598.841	25029.93
599.038	25216.3
599.234	25150.76
599.431	24579.38
599.627	24900.91
599.824	24902.96
600.02	24718.64
600.217	24556.85
600.413	24251.7
600.609	24679.73
600.806	24042.81
601.002	24094.01
601.198	24145.21
601.395	23915.84
601.591	23905.6
601.787	24122.68
601.984	23893.31
602.18	23928.13
602.376	23766.34
602.572	23496
602.769	23711.04
602.965	23485.76
603.161	23764.29
603.357	23483.72
603.553	23311.69
603.75	23377.22
603.946	23166.28
604.142	23254.34
604.338	22852.94
604.534	23235.91
604.73	22762.83
604.926	22891.85
605.122	23043.4
605.318	22457.68
605.514	22723.92
605.71	22259.03
605.906	22650.19
606.102	22422.87
606.298	22650.19
606.494	22639.95
606.69	22476.12
606.886	22506.84
607.082	21960.03
607.278	22398.29
607.474	22052.19
607.67	22203.74
607.866	21673.31
608.062	21880.16
608.257	21855.58
608.453	22019.42
608.649	22154.58
608.845	21738.85
609.041	21818.72
609.236	21871.96
609.432	21792.09
609.628	21491.04
609.824	21585.25
610.019	21523.81
610.215	21568.87
610.411	21542.24
610.606	21386.6
610.802	21347.68
610.998	21245.29
611.193	21613.92
611.389	21187.94
611.584	21169.51
611.78	20966.76
611.976	21081.45
612.171	21335.4
612.367	20897.13
612.562	20893.04
612.758	20667.76
612.953	20753.77
613.149	20899.18
613.344	20858.22
613.539	21067.11
613.735	21065.07
613.93	20856.17
614.126	20698.48
614.321	20999.53
614.517	20436.34
614.712	20774.25
614.907	20393.33
615.103	20733.29
615.298	20479.35
615.493	20338.04
615.688	20538.74
615.884	20936.04
616.079	20022.65
616.274	20194.68
616.47	20127.1
616.665	20301.17
616.86	19948.92
617.055	20059.51
617.25	20200.82
617.445	20346.23
617.641	19885.44
617.836	20166.01
618.031	19635.58
618.226	19985.79
618.421	19692.93
618.616	19682.69
618.811	19328.39
619.006	19928.44
619.201	19383.68
619.396	19627.39
619.591	19445.12
619.786	19772.8
619.981	18910.6
620.176	19162.5
620.371	18886.03
620.566	19172.74
620.761	18584.98
620.956	19246.47
621.151	18664.85
621.346	18793.87
621.541	18525.58
621.735	18640.27
621.93	18156.95
622.125	18470.29
622.32	18007.45
622.515	18347.41
622.709	18034.07
622.904	17995.16
623.099	18099.61
623.294	17937.82
623.488	17526.18
623.683	17825.18
623.878	17403.3
624.072	17587.61
624.267	17286.56
624.462	17098.15
624.656	17450.4
624.851	17206.69
625.046	16809.39
625.24	16860.59
625.435	16825.77
625.629	16575.92
625.824	16563.63
626.018	16360.88
626.213	16295.35
626.407	16268.72
626.602	16360.88
626.796	16246.19
626.991	16108.98
627.185	16065.97
627.38	15758.78
627.574	16074.17
627.768	15486.4
627.963	15662.52
628.157	15455.68
628.352	15658.43
628.546	15314.37
628.74	15390.14
628.935	15244.74
629.129	15353.28
629.323	15142.34
629.517	14994.89
629.712	15050.18
629.906	15093.19
630.1	14702.03
630.294	14693.83
630.489	14650.83
630.683	14845.38
630.877	14099.92
631.071	14355.92
631.265	14362.06
631.459	14020.05
631.653	14181.84
631.848	14134.74
632.042	14255.57
632.236	14220.75
632.43	13944.28
632.624	13794.78
632.818	13774.3
633.012	13549.02
633.206	13409.76
633.4	13544.92
633.594	13247.97
633.788	13311.46
633.982	13508.06
634.176	13088.23
634.369	13293.02
634.563	13252.06
634.757	13258.21
634.951	12994.02
635.145	13063.65
635.339	12852.71
635.533	12789.22
635.726	12715.5
635.92	12496.36
636.114	12535.28
636.308	12400.11
636.501	12402.16
636.695	12656.11
636.889	12107.25
637.083	12266.99
637.276	12299.76
637.47	12101.11
637.664	12260.85
637.857	11902.45
638.051	11945.46
638.244	12060.15
638.438	11886.07
638.632	11791.86
638.825	11812.34
639.019	11771.38
639.212	11738.62
639.406	11609.59
639.599	11509.24
639.793	11425.28
639.986	11296.25
640.18	11423.23
640.373	11410.94
640.567	11013.63
640.76	11146.75
640.954	11046.4
641.147	10790.41
641.34	11017.73
641.534	10884.61
641.727	10827.27
641.92	10790.41
642.114	10583.56
642.307	10626.57
642.5	10645
642.694	10472.97
642.887	10683.91
643.08	10692.1
643.273	10403.34
643.467	10538.51
643.66	10294.8
643.853	10235.41
644.046	10069.52
644.239	10208.78
644.432	10128.91
644.626	10034.71
644.819	9915.92
645.012	10063.38
645.205	9995.79
645.398	9866.77
645.591	9575.96
645.784	9793.05
645.977	9623.06
646.17	9696.79
646.363	9571.86
646.556	9358.88
646.749	9422.36
646.942	9375.26
647.135	9571.86
647.328	9412.12
647.521	9342.49
647.714	9248.29
647.907	9387.55
648.099	9051.68
648.292	8930.85
648.485	9117.22
648.678	8838.69
648.871	8947.23
649.064	8914.47
649.256	9043.49
649.449	8939.04
649.642	8584.74
649.835	8629.8
650.027	8814.12
650.22	8607.27
650.413	8576.55
650.605	8556.07
650.798	8574.5
650.991	8584.74
651.183	8142.38
651.376	8334.89
651.568	8318.51
651.761	8298.03
651.954	8279.6
652.146	8476.2
652.339	8156.72
652.531	8298.03
652.724	8183.34
652.916	7749.17
653.109	8003.12
653.301	8021.55
653.494	8033.84
653.686	7783.99
653.879	8007.22
654.071	7806.52
654.263	7683.64
654.456	7763.51
654.648	7681.59
654.84	7546.42
655.033	7446.07
655.225	7564.86
655.417	7577.14
655.61	7468.6
655.802	7495.22
655.994	7341.63
656.186	7347.77
656.379	7128.64
656.571	7183.93
656.763	7265.85
656.955	7312.96
657.148	7126.59
657.34	7048.77
657.532	7097.92
657.724	6848.07
657.916	7095.87
658.108	6960.7
658.3	6938.18
658.492	6950.46
658.684	6919.75
658.876	6991.42
659.068	6821.44
659.26	6766.15
659.452	6786.63
659.644	6725.19
659.836	6610.5
660.028	6604.36
660.22	6432.33
660.412	6596.17
660.604	6501.96
660.796	6544.97
660.988	6532.68
661.18	6301.26
661.372	6352.46
661.563	6366.79
661.755	6278.73
661.947	6323.79
662.139	6385.23
662.331	6223.44
662.522	6172.24
662.714	6264.4
662.906	6106.7
663.097	6248.01
663.289	6123.09
663.481	5979.73
663.673	5985.87
663.864	5865.04
664.056	5961.3
664.247	5756.5
664.439	5824.08
664.631	6004.3
664.822	5811.79
665.014	5883.47
665.205	5895.76
665.397	5807.7
665.588	5725.78
665.78	5609.05
665.971	5674.58
666.163	5740.12
666.354	5584.47
666.546	5623.38
666.737	5482.07
666.929	5615.19
667.12	5529.17
667.311	5381.72
667.503	5299.8
667.694	5373.53
667.885	5324.38
668.077	5484.12
668.268	5391.96
668.459	5377.62
668.651	5119.58
668.842	5140.06
669.033	5217.88
669.224	4994.65
669.416	5086.81
669.607	5203.55
669.798	5113.44
669.989	5234.27
670.18	5035.61
670.371	5019.23
670.563	5062.24
670.754	5084.77
670.945	4994.65
671.136	5031.52
671.327	4929.12
671.518	4841.06
671.709	4904.54
671.9	4949.6
672.091	4974.17
672.282	4722.27
672.473	4677.22
672.664	4873.82
672.855	4826.72
673.046	4738.66
673.237	4732.51
673.428	4873.82
673.619	4707.94
673.809	4822.63
674	4566.63
674.191	4691.56
674.382	4691.56
674.573	4654.69
674.764	4607.59
674.954	4564.58
675.145	4460.13
675.336	4589.16
675.527	4632.16
675.717	4462.18
675.908	4406.89
676.099	4456.04
676.289	4652.64
676.48	4486.76
676.671	4316.78
676.861	4492.9
677.052	4316.78
677.243	4390.5
677.433	4353.64
677.624	4429.42
677.814	4331.11
678.005	4421.22
678.195	4255.34
678.386	4236.91
678.576	4230.76
678.767	4212.33
678.957	4386.41
679.148	4232.81
679.338	4279.91
679.529	4159.08
679.719	4165.23
679.909	4277.87
680.1	4296.3
680.29	4218.47
680.481	4161.13
680.671	4138.6
680.861	4091.5
681.052	4169.32
681.242	4136.56
681.432	4093.55
681.622	4083.31
681.813	4054.64
682.003	4038.25
682.193	4085.36
682.383	4079.21
682.573	3954.29
682.764	3929.71
682.954	4099.69
683.144	3972.72
683.334	3944.05
683.524	3987.05
683.714	3995.25
683.904	3972.72
684.094	4015.73
684.284	3933.81
684.474	3896.94
684.664	3874.42
684.854	3870.32
685.044	3821.17
685.234	3911.28
685.424	3919.47
685.614	3810.93
685.804	3712.63
685.994	3780.21
686.184	3739.25
686.374	3751.54
686.564	3632.76
686.753	3735.15
686.943	3839.6
687.133	3495.54
687.323	3571.32
687.513	3616.37
687.702	3569.27
687.892	3626.61
688.082	3571.32
688.272	3452.53
688.461	3444.34
688.651	3479.16
688.841	3479.16
689.03	3440.25
689.22	3378.81
689.41	3438.2
689.599	3303.03
689.789	3387
689.979	3348.09
690.168	3473.01
690.358	3362.42
690.547	3206.78
690.737	3311.22
690.926	3190.39
691.116	3292.79
691.305	3255.93
691.495	3284.6
691.684	3104.38
691.874	3196.54
692.063	3192.44
692.252	3114.62
692.442	3161.72
692.631	3169.91
692.82	3145.34
693.01	3024.51
693.199	3085.95
693.388	2961.02
693.578	3106.43
693.767	2999.93
693.956	2963.07
694.146	3094.14
694.335	3001.98
694.524	2940.54
694.713	2911.87
694.902	2842.24
695.092	3075.71
695.281	2909.82
695.47	3012.22
695.659	2922.11
695.848	2924.16
696.037	2956.93
696.226	2870.91
696.415	2838.14
696.604	2899.58
696.793	2813.57
696.982	2907.77
697.171	2711.17
697.36	2926.21
697.549	2864.77
697.738	2731.65
697.927	2682.5
698.116	2760.32
698.305	2692.74
698.494	2791.04
698.683	2942.59
698.872	2715.27
699.061	2713.22
699.25	2737.79
699.438	2817.66
699.627	2688.64
699.816	2725.51
700.005	2764.42
700.193	2688.64
700.382	2672.26
700.571	2696.83
700.76	2678.4
700.948	2725.51
701.137	2680.45
701.326	2731.65
701.514	2584.2
701.703	2551.43
701.892	2625.15
702.08	2526.85
702.269	2676.35
702.457	2698.88
702.646	2498.18
702.834	2543.24
703.023	2537.09
703.212	2696.83
703.4	2639.49
703.589	2524.8
703.777	2631.3
703.965	2565.76
704.154	2582.15
704.342	2524.8
704.531	2590.34
704.719	2563.72
704.907	2559.62
705.096	2487.94
705.284	2674.31
705.472	2543.24
705.661	2582.15
705.849	2530.95
706.037	2608.77
706.226	2569.86
706.414	2657.92
706.602	2508.42
706.79	2606.72
706.979	2512.52
707.167	2557.57
707.355	2537.09
707.543	2588.29
707.731	2604.67
707.919	2553.48
708.107	2469.51
708.296	2518.66
708.484	2551.43
708.672	2455.17
708.86	2586.24
709.048	2424.45
709.236	2621.06
709.424	2477.7
709.612	2547.33
709.8	2395.78
709.988	2432.65
710.176	2432.65
710.364	2543.24
710.551	2557.57
710.739	2506.37
710.927	2426.5
711.115	2453.13
711.303	2530.95
711.491	2418.31
711.679	2412.17
711.866	2551.43
712.054	2508.42
712.242	2408.07
712.43	2573.96
712.617	2477.7
712.805	2487.94
712.993	2432.65
713.181	2438.79
713.368	2573.96
713.556	2414.21
713.744	2373.25
713.931	2541.19
714.119	2510.47
714.306	2473.6
714.494	2530.95
714.682	2391.69
714.869	2449.03
715.057	2326.15
715.244	2457.22
715.432	2473.6
715.619	2510.47
715.807	2584.2
715.994	2623.11
716.182	2487.94
716.369	2383.49
716.556	2516.61
716.744	2498.18
716.931	2442.89
717.119	2510.47
717.306	2459.27
717.493	2389.64
717.681	2428.55
717.868	2401.93
718.055	2492.04
718.242	2487.94
718.43	2373.25
718.617	2569.86
718.804	2440.84
718.991	2520.71
719.179	2428.55
719.366	2506.37
719.553	2533
719.74	2389.64
719.927	2539.14
720.114	2535.04
720.301	2420.36
720.488	2426.5
720.676	2344.58
720.863	2420.36
721.05	2528.9
721.237	2567.81
721.424	2438.79
721.611	2469.51
721.798	2453.13
721.985	2457.22
722.172	2477.7
722.358	2414.21
722.545	2492.04
722.732	2399.88
722.919	2440.84
723.106	2485.89
723.293	2463.37
723.48	2434.69
723.667	2346.63
723.853	2401.93
724.04	2430.6
724.227	2561.67
724.414	2412.17
724.6	2373.25
724.787	2414.21
724.974	2354.82
725.161	2449.03
725.347	2369.16
725.534	2346.63
725.72	2449.03
725.907	2410.12
726.094	2410.12
726.28	2262.66
726.467	2406.02
726.653	2346.63
726.84	2303.62
727.027	2432.65
727.213	2322.06
727.4	2326.15
727.586	2432.65
727.773	2393.73
727.959	2428.55
728.145	2469.51
728.332	2328.2
728.518	2489.99
728.705	2403.97
728.891	2463.37
729.077	2266.76
729.264	2463.37
729.45	2397.83
729.636	2512.52
729.823	2375.3
730.009	2444.93
730.195	2250.38
730.382	2350.73
730.568	2385.54
730.754	2395.78
730.94	2397.83
731.126	2487.94
731.313	2401.93
731.499	2432.65
731.685	2463.37
731.871	2379.4
732.057	2363.01
732.243	2279.05
732.429	2391.69
732.615	2262.66
732.801	2418.31
732.987	2350.73
733.173	2399.88
733.359	2315.91
733.545	2369.16
733.731	2307.72
733.917	2399.88
734.103	2418.31
734.289	2293.38
734.475	2277
734.661	2248.33
734.847	2381.45
735.033	2375.3
735.219	2322.06
735.404	2393.73
735.59	2277
735.776	2236.04
735.962	2352.77
736.148	2213.51
736.333	2305.67
736.519	2270.86
736.705	2182.79
736.89	2268.81
737.076	2299.53
737.262	2360.97
737.447	2217.61
737.633	2207.37
737.819	2326.15
738.004	2260.62
738.19	2207.37
738.375	2213.51
738.561	2289.29
738.747	2277
738.932	2193.03
739.118	2211.46
739.303	2211.46
739.489	2223.75
739.674	2176.65
739.859	2088.59
740.045	2262.66
740.23	2160.27
740.416	2176.65
740.601	2049.68
740.786	2053.77
740.972	2141.83
741.157	2166.41
741.342	2113.16
741.528	2125.45
741.713	2117.26
741.898	2162.31
742.084	2092.68
742.269	2190.99
742.454	2154.12
742.639	2039.44
742.824	2002.57
743.01	2031.24
743.195	1982.09
743.38	2047.63
743.565	2086.54
743.75	2047.63
743.935	2072.2
744.12	2084.49
744.305	1982.09
744.49	2021
744.675	1914.51
744.86	1973.9
745.045	1949.32
745.23	1947.28
745.415	1986.19
745.6	1939.09
745.785	1808.02
745.97	1842.83
746.155	1883.79
746.34	1918.61
746.525	1781.39
746.71	1846.93
746.895	1836.69
747.079	1842.83
747.264	1787.54
747.449	1982.09
747.634	1838.73
747.819	1756.82
748.003	1826.45
748.188	1742.48
748.373	1814.16
748.557	1799.82
748.742	1695.38
748.927	1781.39
749.111	1697.42
749.296	1695.38
749.481	1707.66
749.665	1744.53
749.85	1674.9
750.034	1658.51
750.219	1705.62
750.404	1697.42
750.588	1711.76
750.773	1607.31
750.957	1674.9
751.141	1529.49
751.326	1631.89
751.51	1562.26
751.695	1472.15
751.879	1578.64
752.064	1621.65
752.248	1547.92
752.432	1547.92
752.617	1568.4
752.801	1584.79
752.985	1531.54
753.17	1466
753.354	1523.35
753.538	1496.72
753.722	1453.72
753.907	1468.05
754.091	1396.37
754.275	1384.09
754.459	1318.55
754.643	1414.81
754.828	1371.8
755.012	1400.47
755.196	1347.22
755.38	1318.55
755.564	1365.65
755.748	1433.24
755.932	1351.32
756.116	1359.51
756.3	1228.44
756.484	1289.88
756.668	1334.93
756.852	1207.96
757.036	1326.74
757.22	1302.17
757.404	1281.69
757.588	1250.97
757.772	1334.93
757.956	1203.86
758.14	1228.44
758.323	1181.34
758.507	1277.59
758.691	1218.2
758.875	1330.84
759.059	1164.95
759.242	1142.43
759.426	1257.11
759.61	1123.99
759.794	1119.9
759.977	1142.43
760.161	1240.73
760.345	1203.86
760.528	1134.23
760.712	1107.61
760.895	1173.14
761.079	1097.37
761.263	1154.71
761.446	1128.09
761.63	1246.87
761.813	1019.55
761.997	992.92
762.18	1007.26
762.364	1027.74
762.547	1013.4
762.731	1072.79
762.914	1042.07
763.098	1023.64
763.281	1005.21
763.464	1142.43
763.648	1064.6
763.831	1126.04
764.015	1046.17
764.198	898.72
764.381	962.2
764.564	945.82
764.748	1064.6
764.931	982.68
765.114	880.29
765.297	994.97
765.481	1011.36
765.664	908.96
765.847	964.25
766.03	976.54
766.213	956.06
766.397	999.07
766.58	968.35
766.763	947.87
766.946	939.68
767.129	964.25
767.312	872.09
767.495	917.15
767.678	976.54
767.861	968.35
768.044	976.54
768.227	962.2
768.41	982.68
768.593	1001.12
768.776	937.63
768.959	857.76
769.142	857.76
769.324	937.63
769.507	917.15
769.69	874.14
769.873	818.85
770.056	966.3
770.239	841.37
770.421	927.39
770.604	833.18
770.787	954.01
770.97	839.33
771.152	923.29
771.335	763.55
771.518	810.65
771.7	915.1
771.883	833.18
772.066	855.71
772.248	837.28
772.431	865.95
772.613	892.57
772.796	913.05
772.978	818.85
773.161	818.85
773.343	798.37
773.526	730.78
773.708	808.61
773.891	769.69
774.073	810.65
774.256	876.19
774.438	800.41
774.621	798.37
774.803	802.46
774.985	753.31
775.168	786.08
775.35	718.5
775.532	798.37
775.715	661.15
775.897	792.22
776.079	751.26
776.261	667.3
776.444	655.01
776.626	712.35
776.808	648.86
776.99	718.5
777.173	722.59
777.355	700.06
777.537	675.49
777.719	706.21
777.901	700.06
778.083	642.72
778.265	638.62
778.447	628.39
778.629	655.01
778.811	698.02
778.993	603.81
779.175	685.73
779.357	558.75
779.539	552.61
779.721	628.39
779.903	685.73
780.085	648.86
780.267	650.91
780.449	577.19
780.631	599.71
780.812	552.61
780.994	538.27
781.176	577.19
781.358	573.09
781.54	571.04
781.721	587.43
781.903	554.66
782.085	480.93
782.267	495.27
782.448	564.9
782.63	546.47
782.812	564.9
782.993	603.81
783.175	575.14
783.357	532.13
783.538	482.98
783.72	534.18
783.901	536.23
784.083	528.03
784.264	487.08
784.446	605.86
784.627	495.27
784.809	495.27
784.99	503.46
785.172	450.21
785.353	429.73
785.535	491.17
785.716	470.69
785.897	472.74
786.079	538.27
786.26	458.4
786.441	433.83
786.623	433.83
786.804	427.68
786.985	448.16
787.167	470.69
787.348	415.4
787.529	439.97
787.71	444.07
787.891	442.02
788.073	349.86
788.254	437.92
788.435	450.21
788.616	384.68
788.797	425.64
788.978	329.38
789.159	390.82
789.34	464.55
789.522	362.15
789.703	351.91
789.884	345.77
790.065	360.1
790.246	401.06
790.427	339.62
790.607	399.01
790.788	421.54
790.969	351.91
791.15	388.77
791.331	335.53
791.512	343.72
791.693	341.67
791.874	386.72
792.054	386.72
792.235	372.39
792.416	333.48
792.597	339.62
792.778	360.1
792.958	339.62
793.139	358.05
793.32	333.48
793.5	220.84
793.681	319.14
793.862	351.91
794.042	286.37
794.223	300.71
794.404	296.61
794.584	284.33
794.765	327.33
794.945	341.67
795.126	274.09
795.306	298.66
795.487	356.01
795.667	323.24
795.848	308.9
796.028	257.7
796.209	298.66
796.389	360.1
796.57	269.99
796.75	245.41
796.93	317.09
797.111	208.55
797.291	278.18
797.471	214.7
797.652	257.7
797.832	302.76
798.012	263.85
798.192	286.37
798.373	202.41
798.553	267.94
798.733	231.08
798.913	282.28
799.093	294.57
799.274	300.71
799.454	290.47
799.634	300.71
799.814	214.7
799.994	251.56
800.174	231.08
800.354	237.22
800.534	226.98
800.714	226.98
800.894	222.89
801.074	321.19
801.254	294.57
801.434	278.18
801.614	202.41
801.794	292.52
801.974	581.28
802.154	235.18
802.334	255.65
802.514	210.6
802.693	241.32
802.873	147.11
803.053	241.32
803.233	253.61
803.413	231.08
803.592	278.18
803.772	200.36
803.952	208.55
804.131	130.73
804.311	245.41
804.491	208.55
804.67	229.03
804.85	202.41
805.03	179.88
805.209	200.36
805.389	145.06
805.568	157.35
805.748	130.73
805.928	145.06
806.107	216.74
806.287	239.27
806.466	206.5
806.646	159.4
806.825	169.64
807.004	239.27
807.184	220.84
807.363	208.55
807.543	200.36
807.722	220.84
807.901	147.11
808.081	233.13
808.26	143.02
808.439	188.07
808.619	204.46
808.798	188.07
808.977	134.82
809.156	89.77
809.336	169.64
809.515	159.4
809.694	214.7
809.873	100.01
810.052	130.73
810.231	198.31
810.411	186.02
810.59	233.13
810.769	91.82
810.948	192.17
811.127	155.3
811.306	122.54
811.485	186.02
811.664	261.8
811.843	151.21
812.022	140.97
812.201	143.02
812.38	177.83
812.559	126.63
812.737	134.82
812.916	106.15
813.095	122.54
813.274	110.25
813.453	198.31
813.632	179.88
813.811	169.64
813.989	147.11
814.168	163.5
814.347	108.2
814.526	93.87
814.704	110.25
814.883	120.49
815.062	124.58
815.24	151.21
815.419	143.02
815.598	128.68
815.776	73.39
815.955	167.59
816.133	100.01
816.312	126.63
816.49	122.54
816.669	122.54
816.847	77.48
817.026	153.26
817.204	61.1
817.383	140.97
817.561	134.82
817.74	159.4
817.918	169.64
818.097	122.54
818.275	126.63
818.453	143.02
818.632	124.58
818.81	134.82
818.988	89.77
819.167	118.44
819.345	77.48
819.523	75.43
819.701	132.78
819.879	145.06
820.058	151.21
820.236	130.73
820.414	190.12
820.592	28.33
820.77	114.34
820.948	122.54
821.127	108.2
821.305	175.78
821.483	16.04
821.661	116.39
821.839	153.26
822.017	118.44
822.195	77.48
822.373	147.11
822.551	145.06
822.729	167.59
822.907	83.63
823.085	206.5
823.262	110.25
823.44	73.39
823.618	124.58
823.796	132.78
823.974	95.91
824.152	40.62
824.329	120.49
824.507	97.96
824.685	167.59
824.863	30.38
825.04	89.77
825.218	75.43
825.396	13.99
825.574	130.73
825.751	91.82
825.929	110.25
826.107	77.48
826.284	120.49
826.462	95.91
826.639	93.87
826.817	24.23
826.994	95.91
827.172	126.63
827.349	93.87
827.527	73.39
827.704	114.34
827.882	128.68
828.059	183.98
828.237	-14.68
828.414	73.39
828.591	75.43
828.769	44.71
828.946	77.48
829.124	30.38
829.301	38.57
829.478	61.1
829.655	32.43
829.833	75.43
830.01	81.58
830.187	32.43
830.364	120.49
830.542	147.11
830.719	57
830.896	44.71
831.073	95.91
831.25	132.78
831.427	65.19
831.604	110.25
831.782	106.15
831.959	93.87
832.136	67.24
832.313	87.72
832.49	95.91
832.667	81.58
832.844	30.38
833.021	196.26
833.198	38.57
833.374	65.19
833.551	95.91
833.728	110.25
833.905	57
834.082	7.85
834.259	40.62
834.436	89.77
834.612	71.34
834.789	59.05
834.966	102.06
835.143	102.06
835.319	-24.92
835.496	73.39
835.673	3.75
835.85	102.06
836.026	65.19
836.203	81.58
836.38	52.91
836.556	32.43
836.733	89.77
836.909	7.85
837.086	69.29
837.262	69.29
837.439	34.47
837.616	57
837.792	79.53
837.968	22.19
838.145	61.1
838.321	20.14
838.498	38.57
838.674	59.05
838.851	75.43
839.027	48.81
839.203	85.67
839.38	106.15
839.556	69.29
839.732	57
839.909	40.62
840.085	5.8
840.261	104.11
840.437	67.24
840.614	-0.34
840.79	26.28
840.966	77.48
841.142	-2.39
841.318	16.04
841.494	16.04
841.671	89.77
841.847	40.62
842.023	20.14
842.199	95.91
842.375	77.48
842.551	-26.96
842.727	65.19
842.903	57
843.079	-33.11
843.255	83.63
843.431	71.34
843.607	57
843.783	44.71
843.959	11.95
844.134	7.85
844.31	100.01
844.486	57
844.662	20.14
844.838	57
845.013	42.67
845.189	106.15
845.365	75.43
845.541	44.71
845.716	-12.63
845.892	38.57
846.068	91.82
846.244	65.19
846.419	-29.01
846.595	40.62
846.77	63.15
846.946	63.15
847.122	1.71
847.297	24.23
847.473	173.74
847.648	-55.64
847.824	54.95
847.999	16.04
848.175	7.85
848.35	44.71
848.526	44.71
848.701	24.23
848.876	102.06
849.052	13.99
849.227	52.91
849.403	38.57
849.578	-33.11
849.753	36.52
849.929	-8.53
850.104	-29.01
850.279	-61.78
850.454	106.15
850.63	54.95
850.805	112.3
850.98	73.39
851.155	-16.73
851.33	40.62
851.505	-45.4
851.681	40.62
851.856	-26.96
852.031	42.67
852.206	81.58
852.381	30.38
852.556	7.85
852.731	36.52
852.906	-24.92
853.081	26.28
853.256	32.43
853.431	38.57
853.606	-33.11
853.781	-84.31
853.956	-2.39
854.131	102.06
854.305	-0.34
854.48	11.95
854.655	22.19
854.83	-14.68
855.005	-22.87
855.18	57
855.354	73.39
855.529	1.71
855.704	7.85
855.879	18.09
856.053	11.95
856.228	28.33
856.403	-20.82
856.577	75.43
856.752	-33.11
856.926	91.82
857.101	-16.73
857.276	81.58
857.45	3.75
857.625	61.1
857.799	20.14
857.974	11.95
858.148	-0.34
858.323	-31.06
858.497	30.38
858.672	26.28
858.846	20.14
859.02	11.95
859.195	73.39
859.369	7.85
859.543	38.57
859.718	36.52
859.892	16.04
860.066	73.39
860.241	-10.58
860.415	5.8
860.589	-8.53
860.763	-2.39
860.938	-6.49
861.112	54.95
861.286	42.67
861.46	-8.53
861.634	-57.68
861.808	48.81
861.982	16.04
862.157	26.28
862.331	67.24
862.505	-80.21
862.679	30.38
862.853	52.91
863.027	-43.35
863.201	42.67
863.375	85.67
863.549	-16.73
863.722	-45.4
863.896	54.95
864.07	-10.58
864.244	-0.34
864.418	3.75
864.592	30.38
864.766	16.04
864.939	-29.01
865.113	1.71
865.287	36.52
865.461	32.43
865.634	7.85
865.808	5.8
865.982	75.43
866.156	22.19
866.329	13.99
866.503	30.38
866.676	-0.34
866.85	-8.53
867.024	-18.77
867.197	-29.01
867.371	44.71
867.544	-18.77
867.718	-22.87
867.891	16.04
868.065	-47.44
868.238	40.62
868.412	24.23
868.585	22.19
868.759	34.47
868.932	-41.3
869.105	34.47
869.279	46.76
869.452	-4.44
869.625	-22.87
869.799	9.9
869.972	22.19
870.145	-16.73
870.319	-47.44
870.492	48.81
870.665	20.14
870.838	11.95
871.011	-29.01
871.185	3.75
871.358	-29.01
871.531	-10.58
871.704	20.14
871.877	38.57
872.05	34.47
872.223	5.8
872.396	24.23
872.569	34.47
872.742	-51.54
872.915	22.19
873.088	20.14
873.261	40.62
873.434	5.8
873.607	-16.73
873.78	26.28
873.953	-0.34
874.126	28.33
874.299	-57.68
874.471	-29.01
874.644	9.9
874.817	44.71
874.99	46.76
875.163	-90.45
875.335	36.52
875.508	-0.34
875.681	24.23
875.853	-61.78
876.026	-51.54
876.199	-26.96
876.371	-33.11
876.544	-4.44
876.717	7.85
876.889	13.99
877.062	16.04
877.234	-57.68
877.407	11.95
877.579	-8.53
877.752	-16.73
877.924	-0.34
878.097	9.9
878.269	85.67
878.442	11.95
878.614	7.85
878.786	87.72
878.959	65.19
879.131	-88.4
879.303	28.33
879.476	20.14
879.648	36.52
879.82	-16.73
879.993	-4.44
880.165	7.85
880.337	40.62
880.509	-0.34
880.681	-2.39
880.854	-59.73
881.026	114.34
881.198	59.05
881.37	7.85
881.542	-41.3
881.714	-8.53
881.886	26.28
882.058	11.95
882.23	32.43
882.402	-6.49
882.574	-22.87
882.746	-47.44
882.918	28.33
883.09	32.43
883.262	-16.73
883.434	1.71
883.606	-4.44
883.778	11.95
883.95	114.34
884.122	61.1
884.293	34.47
884.465	-67.92
884.637	79.53
884.809	26.28
884.98	-0.34
885.152	-16.73
885.324	40.62
885.496	28.33
885.667	38.57
885.839	5.8
886.011	16.04
886.182	28.33
886.354	13.99
886.525	32.43
886.697	32.43
886.869	-35.16
887.04	-8.53
887.212	16.04
887.383	-82.26
887.555	-57.68
887.726	-12.63
887.897	-45.4
888.069	-0.34
888.24	9.9
888.412	-41.3
888.583	-20.82
888.754	5.8
888.926	-10.58
889.097	46.76
889.268	-0.34
889.44	-12.63
889.611	-26.96
889.782	-45.4
889.953	-6.49
890.125	36.52
890.296	7.85
890.467	26.28
890.638	-33.11
890.809	3.75
890.98	5.8
891.151	3.75
891.323	63.15
891.494	-24.92
891.665	-2.39
891.836	44.71
892.007	7.85
892.178	38.57
892.349	-2.39
892.52	40.62
892.691	-18.77
892.862	-76.12
893.032	-0.34
893.203	57
893.374	40.62
893.545	61.1
893.716	-31.06
893.887	24.23
894.057	-59.73
894.228	-16.73
894.399	50.86
894.57	11.95
894.74	22.19
894.911	40.62
895.082	-4.44
895.253	30.38
895.423	42.67
895.594	63.15
895.764	-0.34
895.935	-6.49
896.106	44.71
896.276	16.04
896.447	-49.49
896.617	-41.3
896.788	-0.34
896.958	-33.11
897.129	7.85
897.299	-6.49
897.47	24.23
897.64	-16.73
897.81	-49.49
897.981	-63.83
898.151	-41.3
898.322	-33.11
898.492	3.75
898.662	28.33
898.832	-16.73
899.003	20.14
899.173	-63.83
899.343	85.67
899.513	-37.2
