Data from USB4F104151__90__11-37-53-158.txt Node

Date: Fri Mar 14 11:37:53 EDT 2025
User: louis
Spectrometer: USB4F10415
Trigger mode: 4
Integration Time (sec): 2.000000E-2
Scans to average: 1
Electric dark correction enabled: true
Nonlinearity correction enabled: false
Boxcar width: 0
XAxis mode: Wavelengths
Number of Pixels in Spectrum: 3648
>>>>>Begin Spectral Data<<<<<
178.204	9.73
178.424	9.73
178.644	9.73
178.864	-80.38
179.084	-61.95
179.304	32.26
179.524	60.93
179.744	15.87
179.964	13.82
180.184	-43.52
180.404	-18.94
180.624	-45.57
180.844	-4.61
181.064	-29.18
181.283	24.06
181.503	-12.8
181.723	7.68
181.943	-4.61
182.163	24.06
182.383	3.58
182.602	-16.9
182.822	-37.38
183.042	-25.09
183.262	-33.28
183.482	34.3
183.701	56.83
183.921	48.64
184.141	9.73
184.361	48.64
184.58	-6.66
184.8	69.12
185.02	56.83
185.239	42.5
185.459	-25.09
185.679	69.12
185.898	-27.14
186.118	5.63
186.338	-0.51
186.557	9.73
186.777	11.78
186.997	50.69
187.216	46.59
187.436	155.13
187.655	124.41
187.875	7.68
188.095	3.58
188.314	3.58
188.534	108.03
188.753	-18.94
188.973	15.87
189.192	42.5
189.412	110.08
189.631	85.5
189.851	44.54
190.07	13.82
190.29	3.58
190.509	87.55
190.729	79.36
190.948	65.02
191.168	108.03
191.387	120.32
191.607	7.68
191.826	36.35
192.045	32.26
192.265	56.83
192.484	11.78
192.704	-18.94
192.923	-94.72
193.142	71.17
193.362	1.54
193.581	22.02
193.8	67.07
194.02	77.31
194.239	-23.04
194.458	85.5
194.678	62.98
194.897	-41.47
195.116	19.97
195.335	58.88
195.555	56.83
195.774	83.45
195.993	3.58
196.212	62.98
196.432	52.74
196.651	65.02
196.87	3.58
197.089	73.21
197.308	36.35
197.528	5.63
197.747	-4.61
197.966	89.6
198.185	36.35
198.404	-2.56
198.623	15.87
198.842	138.75
199.062	-37.38
199.281	26.11
199.5	17.92
199.719	19.97
199.938	17.92
200.157	26.11
200.376	11.78
200.595	19.97
200.814	44.54
201.033	62.98
201.252	79.36
201.471	-14.85
201.69	65.02
201.909	48.64
202.128	58.88
202.347	116.22
202.566	19.97
202.785	42.5
203.004	-23.04
203.223	46.59
203.442	52.74
203.661	11.78
203.879	-6.66
204.098	85.5
204.317	-10.75
204.536	32.26
204.755	60.93
204.974	32.26
205.193	-23.04
205.411	87.55
205.63	-41.47
205.849	54.78
206.068	13.82
206.287	93.69
206.505	65.02
206.724	3.58
206.943	28.16
207.162	-4.61
207.381	97.79
207.599	22.02
207.818	-4.61
208.037	36.35
208.255	110.08
208.474	58.88
208.693	3.58
208.911	26.11
209.13	56.83
209.349	40.45
209.567	3.58
209.786	77.31
210.005	28.16
210.223	19.97
210.442	77.31
210.661	26.11
210.879	-0.51
211.098	-0.51
211.316	28.16
211.535	42.5
211.753	48.64
211.972	58.88
212.191	99.84
212.409	22.02
212.628	44.54
212.846	54.78
213.065	105.98
213.283	15.87
213.502	17.92
213.72	5.63
213.938	36.35
214.157	56.83
214.375	36.35
214.594	-25.09
214.812	58.88
215.031	56.83
215.249	26.11
215.467	38.4
215.686	-29.18
215.904	69.12
216.122	99.84
216.341	44.54
216.559	44.54
216.778	34.3
216.996	-12.8
217.214	22.02
217.432	15.87
217.651	3.58
217.869	7.68
218.087	5.63
218.306	148.99
218.524	97.79
218.742	22.02
218.96	52.74
219.179	17.92
219.397	48.64
219.615	105.98
219.833	75.26
220.051	26.11
220.27	89.6
220.488	-10.75
220.706	-2.56
220.924	13.82
221.142	28.16
221.36	77.31
221.578	15.87
221.796	-0.51
222.015	81.41
222.233	-0.51
222.451	52.74
222.669	-47.62
222.887	15.87
223.105	56.83
223.323	95.74
223.541	-8.7
223.759	108.03
223.977	-6.66
224.195	155.13
224.413	36.35
224.631	48.64
224.849	11.78
225.067	118.27
225.285	19.97
225.503	-41.47
225.721	-10.75
225.939	9.73
226.157	-6.66
226.375	93.69
226.592	11.78
226.81	44.54
227.028	99.84
227.246	69.12
227.464	28.16
227.682	44.54
227.9	42.5
228.117	69.12
228.335	9.73
228.553	69.12
228.771	56.83
228.989	15.87
229.206	73.21
229.424	46.59
229.642	-4.61
229.86	-23.04
230.077	11.78
230.295	34.3
230.513	44.54
230.731	-0.51
230.948	-23.04
231.166	7.68
231.384	30.21
231.601	3.58
231.819	77.31
232.037	28.16
232.254	22.02
232.472	58.88
232.689	58.88
232.907	1.54
233.125	34.3
233.342	52.74
233.56	36.35
233.777	9.73
233.995	44.54
234.213	42.5
234.43	5.63
234.648	110.08
234.865	-25.09
235.083	67.07
235.3	5.63
235.518	85.5
235.735	44.54
235.953	-10.75
236.17	95.74
236.388	-2.56
236.605	-39.42
236.822	91.65
237.04	62.98
237.257	30.21
237.475	1.54
237.692	75.26
237.909	28.16
238.127	75.26
238.344	-20.99
238.562	126.46
238.779	-10.75
238.996	5.63
239.214	32.26
239.431	83.45
239.648	11.78
239.865	26.11
240.083	93.69
240.3	-41.47
240.517	24.06
240.735	-10.75
240.952	30.21
241.169	54.78
241.386	65.02
241.603	28.16
241.821	3.58
242.038	52.74
242.255	9.73
242.472	52.74
242.689	24.06
242.907	93.69
243.124	19.97
243.341	22.02
243.558	77.31
243.775	15.87
243.992	-55.81
244.209	75.26
244.426	48.64
244.643	159.23
244.86	87.55
245.078	60.93
245.295	-25.09
245.512	22.02
245.729	89.6
245.946	36.35
246.163	-4.61
246.38	67.07
246.597	36.35
246.814	62.98
247.031	118.27
247.248	11.78
247.464	-12.8
247.681	65.02
247.898	32.26
248.115	26.11
248.332	36.35
248.549	52.74
248.766	69.12
248.983	52.74
249.2	28.16
249.417	48.64
249.633	13.82
249.85	22.02
250.067	83.45
250.284	81.41
250.501	-37.38
250.717	11.78
250.934	-14.85
251.151	52.74
251.368	32.26
251.585	54.78
251.801	7.68
252.018	46.59
252.235	-2.56
252.451	24.06
252.668	44.54
252.885	24.06
253.102	-76.29
253.318	36.35
253.535	-18.94
253.752	3.58
253.968	105.98
254.185	34.3
254.401	73.21
254.618	44.54
254.835	65.02
255.051	101.89
255.268	65.02
255.484	38.4
255.701	60.93
255.917	52.74
256.134	71.17
256.351	19.97
256.567	42.5
256.784	-0.51
257	1.54
257.217	69.12
257.433	26.11
257.65	19.97
257.866	44.54
258.082	30.21
258.299	58.88
258.515	140.8
258.732	-20.99
258.948	9.73
259.165	40.45
259.381	-8.7
259.597	-4.61
259.814	58.88
260.03	24.06
260.246	91.65
260.463	13.82
260.679	58.88
260.895	101.89
261.112	13.82
261.328	44.54
261.544	58.88
261.761	122.37
261.977	69.12
262.193	44.54
262.409	93.69
262.626	34.3
262.842	48.64
263.058	26.11
263.274	48.64
263.49	-10.75
263.707	36.35
263.923	97.79
264.139	36.35
264.355	-20.99
264.571	101.89
264.787	48.64
265.004	97.79
265.22	75.26
265.436	58.88
265.652	36.35
265.868	101.89
266.084	19.97
266.3	19.97
266.516	42.5
266.732	112.13
266.948	62.98
267.164	120.32
267.38	26.11
267.596	105.98
267.812	81.41
268.028	77.31
268.244	-23.04
268.46	60.93
268.676	-45.57
268.892	54.78
269.108	-6.66
269.324	87.55
269.54	-37.38
269.756	93.69
269.972	-12.8
270.188	40.45
270.403	24.06
270.619	-10.75
270.835	17.92
271.051	15.87
271.267	65.02
271.483	97.79
271.698	50.69
271.914	36.35
272.13	75.26
272.346	-57.86
272.562	52.74
272.777	19.97
272.993	11.78
273.209	22.02
273.425	-12.8
273.64	-29.18
273.856	36.35
274.072	42.5
274.287	71.17
274.503	110.08
274.719	52.74
274.934	93.69
275.15	1.54
275.366	99.84
275.581	-29.18
275.797	69.12
276.012	42.5
276.228	11.78
276.444	71.17
276.659	36.35
276.875	-12.8
277.09	-0.51
277.306	1.54
277.521	114.17
277.737	58.88
277.952	71.17
278.168	65.02
278.383	71.17
278.599	-20.99
278.814	15.87
279.03	52.74
279.245	67.07
279.461	52.74
279.676	-6.66
279.892	-0.51
280.107	-0.51
280.322	19.97
280.538	67.07
280.753	34.3
280.969	26.11
281.184	110.08
281.399	110.08
281.615	38.4
281.83	67.07
282.045	36.35
282.26	34.3
282.476	52.74
282.691	97.79
282.906	-8.7
283.122	3.58
283.337	-8.7
283.552	19.97
283.767	22.02
283.983	89.6
284.198	30.21
284.413	77.31
284.628	71.17
284.843	48.64
285.058	-2.56
285.274	105.98
285.489	-35.33
285.704	62.98
285.919	71.17
286.134	38.4
286.349	77.31
286.564	-27.14
286.779	148.99
286.995	91.65
287.21	52.74
287.425	32.26
287.64	75.26
287.855	110.08
288.07	-16.9
288.285	75.26
288.5	126.46
288.715	36.35
288.93	15.87
289.145	73.21
289.36	7.68
289.575	-25.09
289.79	75.26
290.004	-20.99
290.219	85.5
290.434	24.06
290.649	7.68
290.864	48.64
291.079	5.63
291.294	5.63
291.509	34.3
291.724	11.78
291.938	50.69
292.153	75.26
292.368	34.3
292.583	7.68
292.798	85.5
293.012	46.59
293.227	87.55
293.442	87.55
293.657	77.31
293.871	105.98
294.086	83.45
294.301	50.69
294.516	99.84
294.73	62.98
294.945	15.87
295.16	34.3
295.374	75.26
295.589	24.06
295.804	44.54
296.018	87.55
296.233	58.88
296.447	36.35
296.662	19.97
296.877	52.74
297.091	32.26
297.306	1.54
297.52	44.54
297.735	69.12
297.949	-0.51
298.164	50.69
298.378	34.3
298.593	-25.09
298.807	60.93
299.022	62.98
299.236	124.41
299.451	1.54
299.665	34.3
299.88	30.21
300.094	-12.8
300.309	101.89
300.523	13.82
300.737	95.74
300.952	-16.9
301.166	11.78
301.381	52.74
301.595	-20.99
301.809	52.74
302.024	36.35
302.238	87.55
302.452	85.5
302.667	34.3
302.881	48.64
303.095	19.97
303.309	83.45
303.524	13.82
303.738	13.82
303.952	60.93
304.166	46.59
304.381	50.69
304.595	93.69
304.809	11.78
305.023	11.78
305.237	15.87
305.452	32.26
305.666	-16.9
305.88	97.79
306.094	56.83
306.308	46.59
306.522	60.93
306.736	83.45
306.95	101.89
307.164	81.41
307.379	3.58
307.593	44.54
307.807	138.75
308.021	71.17
308.235	91.65
308.449	50.69
308.663	1.54
308.877	30.21
309.091	28.16
309.305	52.74
309.519	36.35
309.733	77.31
309.947	73.21
310.161	122.37
310.374	67.07
310.588	77.31
310.802	89.6
311.016	32.26
311.23	97.79
311.444	62.98
311.658	-35.33
311.872	34.3
312.085	-2.56
312.299	73.21
312.513	73.21
312.727	34.3
312.941	1.54
313.154	7.68
313.368	44.54
313.582	114.17
313.796	40.45
314.009	101.89
314.223	34.3
314.437	54.78
314.651	-4.61
314.864	19.97
315.078	-29.18
315.292	-18.94
315.505	3.58
315.719	110.08
315.933	93.69
316.146	114.17
316.36	1.54
316.573	60.93
316.787	97.79
317.001	114.17
317.214	54.78
317.428	56.83
317.641	40.45
317.855	34.3
318.068	19.97
318.282	97.79
318.495	60.93
318.709	42.5
318.922	89.6
319.136	-31.23
319.349	42.5
319.563	71.17
319.776	22.02
319.99	36.35
320.203	77.31
320.417	99.84
320.63	50.69
320.843	89.6
321.057	52.74
321.27	65.02
321.483	-6.66
321.697	75.26
321.91	65.02
322.124	38.4
322.337	40.45
322.55	89.6
322.763	-20.99
322.977	28.16
323.19	-12.8
323.403	95.74
323.617	-10.75
323.83	134.65
324.043	38.4
324.256	54.78
324.469	38.4
324.683	11.78
324.896	58.88
325.109	34.3
325.322	87.55
325.535	58.88
325.748	83.45
325.962	13.82
326.175	11.78
326.388	40.45
326.601	50.69
326.814	34.3
327.027	114.17
327.24	124.41
327.453	73.21
327.666	56.83
327.879	62.98
328.092	30.21
328.305	60.93
328.518	95.74
328.731	103.93
328.944	42.5
329.157	54.78
329.37	48.64
329.583	124.41
329.796	46.59
330.009	26.11
330.222	71.17
330.435	15.87
330.648	3.58
330.861	48.64
331.073	32.26
331.286	-0.51
331.499	87.55
331.712	52.74
331.925	108.03
332.138	-4.61
332.35	83.45
332.563	-4.61
332.776	77.31
332.989	28.16
333.202	75.26
333.414	83.45
333.627	1.54
333.84	11.78
334.053	73.21
334.265	99.84
334.478	62.98
334.691	11.78
334.903	44.54
335.116	54.78
335.329	32.26
335.541	69.12
335.754	34.3
335.966	-14.85
336.179	44.54
336.392	26.11
336.604	54.78
336.817	28.16
337.029	1.54
337.242	112.13
337.454	-2.56
337.667	-12.8
337.88	32.26
338.092	9.73
338.305	77.31
338.517	24.06
338.729	7.68
338.942	44.54
339.154	-47.62
339.367	22.02
339.579	3.58
339.792	22.02
340.004	122.37
340.217	85.5
340.429	65.02
340.641	85.5
340.854	-2.56
341.066	118.27
341.278	69.12
341.491	77.31
341.703	13.82
341.915	85.5
342.128	17.92
342.34	3.58
342.552	1.54
342.764	34.3
342.977	79.36
343.189	79.36
343.401	48.64
343.613	48.64
343.826	15.87
344.038	54.78
344.25	40.45
344.462	112.13
344.674	50.69
344.886	67.07
345.099	93.69
345.311	54.78
345.523	114.17
345.735	-2.56
345.947	56.83
346.159	5.63
346.371	79.36
346.583	91.65
346.795	54.78
347.007	50.69
347.219	114.17
347.431	114.17
347.643	48.64
347.855	73.21
348.067	30.21
348.279	-14.85
348.491	65.02
348.703	44.54
348.915	50.69
349.127	114.17
349.339	13.82
349.551	77.31
349.763	-2.56
349.975	69.12
350.187	-4.61
350.399	83.45
350.61	87.55
350.822	15.87
351.034	93.69
351.246	108.03
351.458	48.64
351.669	81.41
351.881	101.89
352.093	9.73
352.305	40.45
352.517	11.78
352.728	87.55
352.94	46.59
353.152	67.07
353.363	15.87
353.575	62.98
353.787	48.64
353.999	67.07
354.21	124.41
354.422	42.5
354.633	60.93
354.845	101.89
355.057	-29.18
355.268	89.6
355.48	122.37
355.692	62.98
355.903	17.92
356.115	110.08
356.326	34.3
356.538	36.35
356.749	9.73
356.961	56.83
357.172	3.58
357.384	36.35
357.595	15.87
357.807	65.02
358.018	99.84
358.23	-6.66
358.441	124.41
358.653	105.98
358.864	60.93
359.075	81.41
359.287	69.12
359.498	30.21
359.709	44.54
359.921	108.03
360.132	85.5
360.344	52.74
360.555	46.59
360.766	73.21
360.977	77.31
361.189	54.78
361.4	140.8
361.611	77.31
361.823	58.88
362.034	24.06
362.245	48.64
362.456	9.73
362.667	-0.51
362.879	36.35
363.09	22.02
363.301	67.07
363.512	128.51
363.723	77.31
363.935	101.89
364.146	7.68
364.357	-4.61
364.568	65.02
364.779	17.92
364.99	167.42
365.201	42.5
365.412	52.74
365.623	58.88
365.834	101.89
366.045	32.26
366.256	138.75
366.467	69.12
366.678	50.69
366.889	81.41
367.1	3.58
367.311	56.83
367.522	97.79
367.733	85.5
367.944	-16.9
368.155	19.97
368.366	34.3
368.577	52.74
368.788	93.69
368.999	81.41
369.209	50.69
369.42	85.5
369.631	89.6
369.842	11.78
370.053	155.13
370.264	77.31
370.474	97.79
370.685	120.32
370.896	26.11
371.107	114.17
371.317	118.27
371.528	60.93
371.739	62.98
371.95	95.74
372.16	163.33
372.371	69.12
372.582	153.09
372.792	85.5
373.003	-16.9
373.214	77.31
373.424	93.69
373.635	3.58
373.846	58.88
374.056	36.35
374.267	71.17
374.477	48.64
374.688	15.87
374.898	15.87
375.109	17.92
375.319	-4.61
375.53	11.78
375.74	26.11
375.951	24.06
376.161	38.4
376.372	36.35
376.582	85.5
376.793	81.41
377.003	19.97
377.214	-23.04
377.424	93.69
377.635	65.02
377.845	28.16
378.055	36.35
378.266	-10.75
378.476	-0.51
378.686	52.74
378.897	54.78
379.107	42.5
379.317	24.06
379.528	101.89
379.738	89.6
379.948	93.69
380.158	136.7
380.369	15.87
380.579	83.45
380.789	-4.61
380.999	58.88
381.21	91.65
381.42	130.56
381.63	42.5
381.84	30.21
382.05	67.07
382.261	67.07
382.471	93.69
382.681	19.97
382.891	60.93
383.101	91.65
383.311	11.78
383.521	36.35
383.731	85.5
383.941	22.02
384.151	48.64
384.361	1.54
384.571	142.85
384.781	44.54
384.991	118.27
385.201	69.12
385.411	60.93
385.621	87.55
385.831	108.03
386.041	97.79
386.251	69.12
386.461	101.89
386.671	87.55
386.881	75.26
387.091	62.98
387.301	67.07
387.511	124.41
387.72	42.5
387.93	116.22
388.14	32.26
388.35	15.87
388.56	110.08
388.769	71.17
388.979	81.41
389.189	15.87
389.399	54.78
389.609	5.63
389.818	52.74
390.028	60.93
390.238	105.98
390.447	67.07
390.657	93.69
390.867	15.87
391.076	-20.99
391.286	85.5
391.496	95.74
391.705	65.02
391.915	122.37
392.125	85.5
392.334	75.26
392.544	136.7
392.753	48.64
392.963	60.93
393.172	77.31
393.382	48.64
393.591	153.09
393.801	52.74
394.01	95.74
394.22	97.79
394.429	112.13
394.639	169.47
394.848	67.07
395.058	140.8
395.267	120.32
395.477	77.31
395.686	144.89
395.895	120.32
396.105	140.8
396.314	91.65
396.524	163.33
396.733	124.41
396.942	126.46
397.152	151.04
397.361	81.41
397.57	151.04
397.78	126.46
397.989	144.89
398.198	165.37
398.407	146.94
398.617	118.27
398.826	148.99
399.035	67.07
399.244	148.99
399.453	93.69
399.663	103.93
399.872	163.33
400.081	144.89
400.29	136.7
400.499	101.89
400.708	118.27
400.917	38.4
401.127	40.45
401.336	103.93
401.545	144.89
401.754	165.37
401.963	187.9
402.172	132.61
402.381	163.33
402.59	91.65
402.799	185.85
403.008	179.71
403.217	171.52
403.426	134.65
403.635	134.65
403.844	73.21
404.053	101.89
404.262	161.28
404.471	189.95
404.68	179.71
404.888	73.21
405.097	114.17
405.306	157.18
405.515	112.13
405.724	237.05
405.933	192
406.142	218.62
406.35	216.57
406.559	198.14
406.768	142.85
406.977	206.33
407.185	189.95
407.394	259.58
407.603	187.9
407.812	261.63
408.02	280.06
408.229	296.44
408.438	194.05
408.646	198.14
408.855	239.1
409.064	245.24
409.272	280.06
409.481	407.03
409.69	290.3
409.898	290.3
410.107	249.34
410.315	302.59
410.524	368.12
410.733	343.55
410.941	382.46
411.15	413.18
411.358	323.07
411.567	511.48
411.775	413.18
411.984	404.99
412.192	437.75
412.401	480.76
412.609	517.62
412.818	470.52
413.026	472.57
413.234	501.24
413.443	585.21
413.651	566.78
413.86	617.97
414.068	597.49
414.276	667.13
414.485	671.22
414.693	626.17
414.901	663.03
415.11	703.99
415.318	744.95
415.526	708.09
415.734	810.48
415.943	869.87
416.151	921.07
416.359	892.4
416.567	878.07
416.776	912.88
416.984	929.27
417.192	955.89
417.4	1058.29
417.608	1048.05
417.817	1046
418.025	1078.77
418.233	1095.15
418.441	1150.45
418.649	1244.65
418.857	1277.42
419.065	1310.19
419.273	1379.82
419.481	1256.94
419.689	1486.31
419.897	1543.66
420.105	1553.9
420.313	1611.24
420.521	1662.44
420.729	1699.3
420.937	1693.16
421.145	1783.27
421.353	1949.15
421.561	1863.14
421.769	2039.26
421.977	2252.25
422.185	2184.67
422.393	2215.39
422.601	2313.69
422.809	2346.46
423.017	2313.69
423.224	2504.15
423.432	2590.17
423.64	2534.87
423.848	2801.11
424.056	2749.91
424.263	3010
424.471	2960.85
424.679	2977.23
424.887	3106.26
425.094	3261.9
425.302	3149.26
425.51	3427.79
425.718	3401.16
425.925	3591.63
426.133	3601.87
426.341	3933.64
426.548	4199.87
426.756	4025.79
426.964	4042.18
427.171	4124.1
427.379	4550.07
427.586	4513.21
427.794	4599.23
428.001	4775.35
428.209	5053.87
428.417	4844.98
428.624	5293.49
428.832	5330.35
429.039	5182.9
429.247	5303.73
429.454	5778.86
429.662	6061.48
429.869	5739.94
430.076	6219.17
430.284	5914.02
430.491	6290.85
430.699	6606.24
430.906	6622.62
431.114	6774.17
431.321	6946.2
431.528	6927.77
431.736	7585.16
431.943	7949.7
432.15	7513.49
432.358	7718.28
432.565	8220.03
432.772	8111.49
432.979	8490.37
433.187	8625.53
433.394	8760.7
433.601	9299.31
433.808	9078.13
434.016	9137.52
434.223	9563.5
434.43	10304.87
434.637	10046.82
434.844	10661.21
435.052	10896.73
435.259	10714.46
435.466	10911.07
435.673	10829.15
435.88	11425.11
436.087	12160.33
436.294	12123.46
436.501	11935.05
436.708	12027.21
436.915	12657.98
437.122	13176.12
437.329	13049.14
437.537	13423.92
437.743	13636.91
437.95	13460.79
438.157	14400.8
438.364	14691.62
438.571	14650.66
438.778	14855.45
438.985	16397.57
439.192	15414.55
439.399	16041.23
439.606	15637.78
439.813	16647.43
440.02	17439.99
440.227	17485.05
440.433	17337.59
440.64	17763.57
440.847	17587.44
441.054	18066.67
441.261	19387.61
441.467	19041.5
441.674	19326.17
441.881	20233.42
442.088	19987.66
442.294	19774.67
442.501	20499.66
442.708	20726.98
442.914	21773.49
443.121	22768.8
443.328	21947.57
443.534	23252.13
443.741	22844.58
443.948	22627.49
444.154	24628.36
444.361	24401.04
444.568	24536.2
444.774	24415.37
444.981	24835.21
445.187	25443.45
445.394	26780.78
445.6	26033.27
445.807	28722.25
446.013	27444.32
446.22	28335.18
446.426	28912.71
446.633	29193.28
446.839	30243.89
447.046	29086.79
447.252	30891.05
447.459	30919.72
447.665	30473.26
447.871	32046.1
448.078	33399.81
448.284	31906.84
448.491	32736.27
448.697	34315.25
448.903	34589.68
449.11	34817
449.316	34190.33
449.522	34831.34
449.728	35681.25
449.935	36262.87
450.141	36060.12
450.347	37217.22
450.553	35939.29
450.76	36504.53
450.966	37587.91
451.172	37166.02
451.378	38103.99
451.584	37493.7
451.791	38329.27
451.997	38089.66
452.203	38683.57
452.409	38560.69
452.615	38775.73
452.821	37229.51
453.027	36832.21
453.233	39009.2
453.44	37405.64
453.646	37444.55
453.852	37841.85
454.058	38077.37
454.264	37067.72
454.47	38349.75
454.676	37278.66
454.882	38310.84
455.088	35490.79
455.294	35711.97
455.5	36133.85
455.705	36762.58
455.911	35415.01
456.117	34483.19
456.323	33733.63
456.529	32736.27
456.735	34016.25
456.941	32793.61
457.147	32701.45
457.352	31515.68
457.558	31011.88
457.764	31241.25
457.97	30364.72
458.176	29637.69
458.381	29619.26
458.587	28281.94
458.793	28492.88
458.999	27114.59
459.204	28875.85
459.41	28175.44
459.616	25982.07
459.821	26428.52
460.027	26211.44
460.233	25631.86
460.438	24249.49
460.644	24919.17
460.85	23567.51
461.055	23164.06
461.261	23112.86
461.466	21642.42
461.672	20841.67
461.878	22174.89
462.083	20690.12
462.289	20403.4
462.494	20452.55
462.7	19350.74
462.905	18816.22
463.111	19434.71
463.316	19412.18
463.522	18969.82
463.727	19057.89
463.932	19303.64
464.138	18994.4
464.343	18939.1
464.549	18482.41
464.754	19074.27
464.959	18857.18
465.165	18549.99
465.37	17997.04
465.575	17368.31
465.781	18199.79
465.986	18171.11
466.191	17448.18
466.397	17503.48
466.602	16174.35
466.807	17157.37
467.012	17069.31
467.218	16962.81
467.423	16655.62
467.628	16790.78
467.833	17364.22
468.038	17196.28
468.244	16276.74
468.449	17235.19
468.654	16721.15
468.859	16416.01
469.064	16368.9
469.269	15602.96
469.474	16047.37
469.679	15942.92
469.885	15605.01
470.09	16065.8
470.295	15770.9
470.5	15301.91
470.705	15617.3
470.91	15082.78
471.115	15013.15
471.32	15338.77
471.525	15113.5
471.73	14814.49
471.935	14814.49
472.139	14210.34
472.344	14456.1
472.549	14075.18
472.754	14048.55
472.959	13806.89
473.164	13710.64
473.369	13397.3
473.574	14001.45
473.778	13845.8
473.983	13614.38
474.188	13505.84
474.393	13090.1
474.598	13018.43
474.802	12952.89
475.007	12737.85
475.212	12881.21
475.417	12455.23
475.621	12397.89
475.826	12397.89
476.031	12279.11
476.235	11853.13
476.44	11994.44
476.645	11744.59
476.849	11984.2
477.054	12004.68
477.259	11689.29
477.463	11732.3
477.668	11470.16
477.872	11715.92
478.077	11449.68
478.282	10947.93
478.486	11193.69
478.691	10771.8
478.895	10806.62
479.1	10657.12
479.304	10816.86
479.509	10661.21
479.713	10687.84
479.918	10427.74
480.122	10351.97
480.326	10493.28
480.531	10571.1
480.735	10431.84
480.94	10268
481.144	10554.72
481.348	10061.16
481.553	10151.27
481.757	10085.73
481.961	10108.26
482.166	10577.25
482.37	10134.89
482.574	9942.38
482.778	10061.16
482.983	10257.76
483.187	10032.49
483.391	10165.6
483.595	10091.88
483.8	9991.53
484.004	10225
484.208	10302.82
484.412	9930.09
484.616	9842.03
484.821	10130.79
485.025	9880.94
485.229	10321.25
485.433	9907.56
485.637	10022.25
485.841	9827.69
486.045	10014.06
486.249	10073.45
486.453	9878.89
486.657	10091.88
486.861	10038.63
487.065	9866.6
487.269	10077.54
487.473	9964.9
487.677	10263.91
487.881	10073.45
488.085	10214.76
488.289	10110.31
488.493	10151.27
488.697	10018.15
488.901	10188.13
489.105	10116.45
489.309	10218.85
489.512	10083.69
489.716	10274.15
489.92	10202.47
490.124	10222.95
490.328	10356.07
490.531	10282.34
490.735	10493.28
490.939	10501.47
491.143	10364.26
491.346	10372.45
491.55	10452.32
491.754	10693.98
491.958	10675.55
492.161	10411.36
492.365	10794.33
492.569	10706.27
492.772	10630.49
492.976	10880.35
493.18	10818.91
493.383	11056.47
493.587	11189.59
493.79	11242.84
493.994	10958.17
494.197	11013.46
494.401	11144.53
494.605	11255.12
494.808	11566.42
495.012	11203.93
495.215	11834.7
495.419	11404.63
495.622	11504.98
495.825	11859.28
496.029	11746.64
496.232	12197.19
496.436	11992.39
496.639	12387.65
496.843	12195.14
497.046	12463.43
497.249	12668.22
497.453	12799.29
497.656	12713.28
497.859	12787
498.063	12993.85
498.266	13243.7
498.469	13243.7
498.673	13438.26
498.876	13516.08
499.079	13784.37
499.282	13720.88
499.485	14257.45
499.689	13962.54
499.892	14247.21
500.095	14517.54
500.298	14787.87
500.501	14527.78
500.705	15183.13
500.908	15484.18
501.111	15336.73
501.314	15277.33
501.517	15906.06
501.72	15971.6
501.923	15959.31
502.126	16086.28
502.329	16450.82
502.532	16518.4
502.735	16889.09
502.938	17134.84
503.141	17194.23
503.344	17403.13
503.547	17292.54
503.75	17657.07
503.953	18023.66
504.156	18308.33
504.359	18523.37
504.562	18289.9
504.765	18732.26
504.968	18955.49
505.17	18980.06
505.373	19113.18
505.576	19520.73
505.779	19678.42
505.982	19655.89
506.185	20319.43
506.387	20692.16
506.59	20561.09
506.793	21034.18
506.996	20966.59
507.198	21634.23
507.401	21431.48
507.604	21540.02
507.807	22299.82
508.009	22174.89
508.212	22416.55
508.415	22502.57
508.617	22975.65
508.82	22840.48
509.022	22936.74
509.225	23626.9
509.428	23782.55
509.63	24026.26
509.833	24118.42
510.035	24618.12
510.238	24482.95
510.44	25037.95
510.643	25140.35
510.845	25273.47
511.048	25470.08
511.25	25912.44
511.453	26141.81
511.655	26754.15
511.858	26647.66
512.06	27044.96
512.262	27094.11
512.465	27223.14
512.667	27661.4
512.87	27884.63
513.072	27860.05
513.274	28447.82
513.477	28918.85
513.679	28843.08
513.881	29058.12
514.084	29424.7
514.286	29496.38
514.488	29815.87
514.69	30460.98
514.893	30762.03
515.095	30714.92
515.297	30889
515.499	31175.72
515.701	30991.4
515.904	32029.72
516.106	32007.19
516.308	32334.87
516.51	32740.36
516.712	32793.61
516.914	33029.13
517.116	33451.01
517.318	33725.44
517.52	33930.23
517.722	34040.82
517.925	34122.74
518.127	34667.5
518.329	35015.66
518.531	34692.08
518.733	35595.23
518.935	35890.14
519.136	35714.02
519.338	36125.66
519.54	36436.95
519.742	37223.37
519.944	37338.05
520.146	37299.14
520.348	37503.94
520.55	37569.47
520.752	37487.56
520.954	38392.76
521.155	38206.39
521.357	38771.63
521.559	39027.63
521.761	39476.13
521.963	39621.54
522.164	39545.76
522.366	39547.81
522.568	40479.64
522.77	40352.66
522.971	41077.65
523.173	40635.28
523.375	40991.63
523.576	41243.53
523.778	41268.11
523.98	41706.37
524.181	41843.59
524.383	41919.36
524.584	42390.39
524.786	42441.59
524.988	42230.65
525.189	43070.32
525.391	43182.96
525.592	43025.26
525.794	43291.5
525.995	43178.86
526.197	43535.21
526.398	43434.86
526.6	44106.59
526.801	43713.38
527.003	44022.62
527.204	44233.57
527.406	44448.6
527.607	44544.86
527.808	44880.72
528.01	44024.67
528.211	44501.85
528.412	45548.36
528.614	45316.94
528.815	45112.14
529.016	45445.96
529.218	44825.43
529.419	45323.08
529.62	45556.55
529.822	45626.18
530.023	45310.8
530.224	45656.9
530.425	45531.98
530.626	45253.45
530.828	45366.09
531.029	46302.01
531.23	45673.29
531.431	45644.62
531.632	46003.01
531.833	46060.35
532.035	46170.94
532.236	46232.38
532.437	46435.13
532.638	46396.22
532.839	46064.45
533.04	46418.75
533.241	45929.28
533.442	46863.16
533.643	46613.3
533.844	46095.17
534.045	46406.46
534.246	45988.67
534.447	46396.22
534.648	46256.96
534.849	46396.22
535.05	46265.15
535.251	46521.15
535.451	46224.19
535.652	46443.32
535.853	46379.84
536.054	46619.45
536.255	46715.7
536.456	46005.06
536.657	47143.73
536.857	46078.78
537.058	45994.82
537.259	46781.24
537.46	46494.52
537.66	46310.21
537.861	46555.96
538.062	46267.2
538.263	46447.42
538.463	46261.05
538.664	46211.9
538.865	46211.9
539.065	46428.99
539.266	46019.39
539.466	46863.16
539.667	45949.76
539.868	47113.01
540.068	46256.96
540.269	46422.84
540.469	46543.67
540.67	46154.56
540.87	46349.12
541.071	46383.93
541.271	46502.71
541.472	46074.69
541.672	46289.73
541.873	45816.64
542.073	45880.13
542.274	46250.81
542.474	46076.74
542.675	45792.07
542.875	46390.08
543.075	46203.71
543.276	45876.04
543.476	46455.61
543.676	46154.56
543.877	46383.93
544.077	46289.73
544.277	46119.74
544.478	46052.16
544.678	46320.45
544.878	45917
545.078	45953.86
545.279	45814.6
545.479	46035.78
545.679	46224.19
545.879	46041.92
546.079	46048.07
546.28	45732.68
546.48	45359.95
546.68	45970.24
546.88	46234.43
547.08	45929.28
547.28	45421.39
547.48	45220.69
547.68	46168.9
547.88	45730.63
548.081	45978.43
548.281	45775.69
548.481	45515.59
548.681	45589.32
548.881	45833.03
549.081	45464.39
549.28	45159.25
549.48	45818.69
549.68	45192.01
549.88	46175.04
550.08	45935.43
550.28	45667.14
550.48	45671.24
550.68	45792.07
550.88	45478.73
551.08	45341.52
551.279	45382.48
551.479	44925.78
551.679	45708.1
551.879	45271.89
552.079	45673.29
552.278	45187.92
552.478	45222.73
552.678	45318.99
552.878	45531.98
553.077	45263.69
553.277	45095.76
553.477	45650.76
553.676	45486.92
553.876	45241.17
554.076	44854.1
554.275	44913.49
554.475	44786.52
554.674	45521.74
554.874	44993.36
555.074	45011.79
555.273	45003.6
555.473	45605.7
555.672	44710.74
555.872	45019.99
556.071	45175.63
556.271	44942.16
556.47	44878.68
556.67	44684.12
556.869	44514.14
557.068	44864.34
557.268	44587.86
557.467	45196.11
557.667	44475.23
557.866	44487.51
558.065	45001.55
558.265	44366.68
558.464	44342.11
558.663	45028.18
558.863	43967.33
559.062	44657.49
559.261	44059.49
559.461	44794.71
559.66	43897.7
559.859	44176.22
560.058	44112.73
560.258	44268.38
560.457	43426.67
560.656	44389.21
560.855	43971.43
561.054	43909.99
561.253	43291.5
561.453	43473.77
561.652	43979.62
561.851	43948.9
562.05	43793.25
562.249	43518.82
562.448	43813.73
562.647	43770.72
562.846	43699.05
563.045	43649.89
563.244	43148.14
563.443	43486.06
563.642	42914.67
563.841	43142
564.04	42992.5
564.239	43185.01
564.438	42988.4
564.637	42967.92
564.836	43123.57
565.035	42646.39
565.234	42916.72
565.432	42865.52
565.631	42636.15
565.83	42589.05
566.029	42374.01
566.228	42457.98
566.427	42445.69
566.625	42455.93
566.824	42089.34
567.023	42898.29
567.222	41683.84
567.42	41866.11
567.619	42163.07
567.818	42005.38
568.016	41706.37
568.215	41710.47
568.414	41722.76
568.612	42034.05
568.811	41448.33
569.01	41841.54
569.208	41196.43
569.407	41692.04
569.605	40706.96
569.804	41374.6
570.002	41350.03
570.201	41540.49
570.4	40698.77
570.598	40760.21
570.797	40410.01
570.995	41042.83
571.193	40024.99
571.392	41096.08
571.59	40274.84
571.789	40534.93
571.987	40577.94
572.186	40536.98
572.384	40147.87
572.582	40401.82
572.781	40588.18
572.979	39723.94
573.177	40092.57
573.376	40293.27
573.574	39953.31
573.772	39881.63
573.971	39793.57
574.169	39492.52
574.367	39375.78
574.565	39564.2
574.763	39396.26
574.962	39373.74
575.16	38679.47
575.358	39015.34
575.556	38724.53
575.754	39080.88
575.952	38536.12
576.151	39404.45
576.349	38658.99
576.547	38501.3
576.745	38943.66
576.943	38851.5
577.141	38818.74
577.339	38568.88
577.537	38269.88
577.735	38296.5
577.933	38253.5
578.131	38206.39
578.329	37831.61
578.527	37696.45
578.725	37913.53
578.923	37649.35
579.121	37413.83
579.319	37499.84
579.516	37880.77
579.714	37436.36
579.912	37508.04
580.11	37651.39
580.308	37499.84
580.506	37401.54
580.704	36709.33
580.901	36885.45
581.099	36824.01
581.297	36791.25
581.495	36709.33
581.692	36889.55
581.89	36314.07
582.088	37084.11
582.285	36465.62
582.483	36492.24
582.681	36553.68
582.878	35976.16
583.076	35603.42
583.274	36133.85
583.471	35261.41
583.669	35640.29
583.866	35750.88
584.064	35496.93
584.262	35242.98
584.459	35746.78
584.657	35161.06
584.854	35648.48
585.052	34845.68
585.249	35009.51
585.447	35126.25
585.644	34595.82
585.841	34659.31
586.039	34925.55
586.236	34425.84
586.434	34757.61
586.631	34255.86
586.828	33948.67
587.026	34186.23
587.223	34274.29
587.42	34325.49
587.618	33989.63
587.815	33737.73
588.012	33661.95
588.21	34098.17
588.407	33960.95
588.604	33309.7
588.801	33344.52
588.999	33195.01
589.196	33254.4
589.393	33233.92
589.59	33016.84
589.787	33176.58
589.984	33033.22
590.182	32703.5
590.379	33061.9
590.576	32494.61
590.773	32742.41
590.97	32369.68
591.167	32621.58
591.364	32347.15
591.561	32510.99
591.758	32234.52
591.955	31884.31
592.152	31872.03
592.349	31863.83
592.546	31884.31
592.743	31622.17
592.94	31337.51
593.137	31444
593.334	31667.23
593.531	31030.31
593.727	31357.99
593.924	31126.57
594.121	31026.21
594.318	31132.71
594.515	30970.92
594.712	31020.07
594.908	30983.21
595.105	30991.4
595.302	30813.23
595.499	30530.61
595.696	30313.52
595.892	30041.14
596.089	30415.92
596.286	30673.96
596.482	29987.89
596.679	30483.5
596.876	29965.37
597.072	30055.48
597.269	29828.15
597.466	29518.91
597.662	29316.16
597.859	29680.7
598.055	29674.56
598.252	29203.52
598.448	29273.15
598.645	29174.85
598.841	28920.9
599.038	29215.81
599.234	29191.23
599.431	28939.33
599.627	29068.36
599.824	29025.35
600.02	28525.64
600.217	28613.71
600.413	28478.54
600.609	28322.9
600.806	28415.05
601.002	28539.98
601.198	28159.06
601.395	28081.24
601.591	28122.19
601.787	27839.58
601.984	27755.61
602.18	27806.81
602.376	28146.77
602.572	27585.63
602.769	27589.72
602.965	26985.57
603.161	27372.64
603.357	27135.07
603.553	27227.23
603.75	27178.08
603.946	27251.81
604.142	26991.72
604.338	26516.59
604.534	26950.76
604.73	26592.36
604.926	26674.28
605.122	26961
605.318	26518.64
605.514	26524.78
605.71	26276.98
605.906	26176.62
606.102	25961.59
606.298	26457.2
606.494	26334.32
606.69	25949.3
606.886	26039.41
607.082	25482.36
607.278	25932.92
607.474	25605.24
607.67	25742.46
607.866	25382.01
608.062	25642.1
608.257	25468.03
608.453	24939.65
608.649	25173.12
608.845	24996.99
609.041	25244.8
609.236	25334.91
609.432	25267.33
609.628	25232.51
609.824	24804.49
610.019	25101.44
610.215	25189.5
610.411	25064.58
610.606	24906.88
610.802	24749.19
610.998	24804.49
611.193	24644.74
611.389	25058.43
611.584	24644.74
611.78	24693.9
611.976	24689.8
612.171	24751.24
612.367	24499.34
612.562	24452.23
612.758	24007.83
612.953	24009.87
613.149	24439.95
613.344	23874.71
613.539	24575.11
613.735	24104.08
613.93	24468.62
614.126	23911.57
614.321	24110.22
614.517	24036.5
614.712	23887
614.907	23428.25
615.103	23717.01
615.298	23581.85
615.493	24210.57
615.688	23379.1
615.884	23899.28
616.079	23346.33
616.274	23585.94
616.47	23583.9
616.665	23618.71
616.86	23309.47
617.055	23387.29
617.25	23446.68
617.445	23301.28
617.641	23047.33
617.836	23219.36
618.031	22535.34
618.226	23215.26
618.421	23022.75
618.616	23035.04
618.811	22434.99
619.006	22838.44
619.201	22717.61
619.396	22437.03
619.591	22371.5
619.786	22494.38
619.981	21904.56
620.176	22400.17
620.371	21890.23
620.566	22039.73
620.761	21566.65
620.956	22166.7
621.151	21556.41
621.346	21759.16
621.541	21353.66
621.735	21290.17
621.93	21267.64
622.125	21245.12
622.32	20821.19
622.515	20960.45
622.709	20806.85
622.904	20819.14
623.099	20376.78
623.294	20950.21
623.488	20108.49
623.683	20665.54
623.878	20108.49
624.072	20245.71
624.267	20186.32
624.462	19911.89
624.656	19678.42
624.851	19797.2
625.046	19608.79
625.24	19485.91
625.435	19168.48
625.629	19539.16
625.824	19107.04
626.018	19365.08
626.213	18644.2
626.407	18980.06
626.602	18728.16
626.796	18838.75
626.991	18554.08
627.185	18500.84
627.38	18265.32
627.574	18107.63
627.768	18033.9
627.963	18050.28
628.157	17939.69
628.352	18013.42
628.546	17612.02
628.74	17933.55
628.935	17638.64
629.129	17560.82
629.323	17190.14
629.517	17405.17
629.712	17245.43
629.906	17237.24
630.1	16995.58
630.294	16758.02
630.489	16966.91
630.683	17114.36
630.877	16848.13
631.071	16741.63
631.265	16663.81
631.459	16383.24
631.653	16514.31
631.848	16215.3
632.042	16018.7
632.236	16321.8
632.43	16239.88
632.624	16010.51
632.818	15764.75
633.012	15899.92
633.206	15725.84
633.4	15559.95
633.594	15349.01
633.788	15738.13
633.982	15523.09
634.176	15531.28
634.369	15349.01
634.563	15113.5
634.757	15099.16
634.951	15181.08
635.145	14892.32
635.339	14910.75
635.533	14828.83
635.726	14896.41
635.92	14755.1
636.114	14587.17
636.308	14427.43
636.501	14406.95
636.695	14417.19
636.889	14222.63
637.083	14169.38
637.276	14107.94
637.47	14058.79
637.664	13720.88
637.857	13950.25
638.051	13810.99
638.244	13667.63
638.438	13626.67
638.632	13481.27
638.825	13481.27
639.019	13516.08
639.212	13147.45
639.406	13477.17
639.599	13364.53
639.793	13204.79
639.986	12819.77
640.18	13079.86
640.373	13063.48
640.567	12772.67
640.76	12784.96
640.954	12870.97
641.147	12496.19
641.34	12578.11
641.534	12436.8
641.727	12627.26
641.92	12391.75
642.114	12324.16
642.307	12389.7
642.5	12277.06
642.694	12160.33
642.887	12074.31
643.08	12059.98
643.273	12148.04
643.467	11732.3
643.66	11826.51
643.853	11816.27
644.046	11677.01
644.239	11605.33
644.432	11889.99
644.626	11623.76
644.819	11496.78
645.012	11167.06
645.205	11562.32
645.398	11205.97
645.591	11031.9
645.784	11103.57
645.977	11124.05
646.17	10925.4
646.363	10786.14
646.556	10861.91
646.749	10679.65
646.942	10894.68
647.135	10671.45
647.328	10788.19
647.521	10564.96
647.714	10507.62
647.907	10429.79
648.099	10317.15
648.292	10409.31
648.485	10188.13
648.678	10356.07
648.871	10087.78
649.064	10018.15
649.256	10272.1
649.449	10124.65
649.642	10075.49
649.835	10059.11
650.027	9964.9
650.22	9723.24
650.413	9813.35
650.605	9620.85
650.798	9657.71
650.991	9639.28
651.183	9500.02
651.376	9293.17
651.568	9618.8
651.761	9432.43
651.954	9479.54
652.146	9325.94
652.339	9112.95
652.531	9196.92
652.724	9231.73
652.916	9035.13
653.109	8938.87
653.301	8912.25
653.494	9047.41
653.686	8744.31
653.879	9014.65
654.071	8875.38
654.263	8881.53
654.456	8818.04
654.648	8666.49
654.84	8396.16
655.033	8519.04
655.225	8531.33
655.417	8371.58
655.61	8449.41
655.802	8521.09
655.994	8191.36
656.186	8349.06
656.379	8326.53
656.571	8226.18
656.763	8117.64
656.955	8146.31
657.148	8048.01
657.34	8119.68
657.532	7910.79
657.724	7880.07
657.916	8048.01
658.108	7904.65
658.3	7751.05
658.492	7861.64
658.684	7695.75
658.876	7562.64
659.068	7812.49
659.26	7642.51
659.452	7497.1
659.644	7474.57
659.836	7507.34
660.028	7445.9
660.22	7245.2
660.412	7361.94
660.604	7069.08
660.796	7343.5
660.988	7161.23
661.18	7239.06
661.372	6915.48
661.563	7036.31
661.755	6997.4
661.947	6966.68
662.139	6972.82
662.331	6802.84
662.522	6835.61
662.714	6907.29
662.906	6737.31
663.097	6780.31
663.289	6737.31
663.481	6725.02
663.673	6737.31
663.864	6688.15
664.056	6636.95
664.247	6548.89
664.439	6419.87
664.631	6536.6
664.822	6352.29
665.014	6327.71
665.205	6383.01
665.397	6172.07
665.588	6292.9
665.78	6249.89
665.971	6163.87
666.163	6249.89
666.354	6210.98
666.546	6182.31
666.737	6122.91
666.929	6069.67
667.12	6147.49
667.311	5889.45
667.503	5948.84
667.694	5914.02
667.885	5836.2
668.077	5846.44
668.268	5793.19
668.459	5623.21
668.651	5690.79
668.842	5848.49
669.033	5631.4
669.224	5563.82
669.416	5762.47
669.607	5559.72
669.798	5494.19
669.989	5488.04
670.18	5606.83
670.371	5430.7
670.563	5322.16
670.754	5438.89
670.945	5336.49
671.136	5451.18
671.327	5463.47
671.518	5418.41
671.709	5322.16
671.9	5320.11
672.091	5328.3
672.282	5375.41
672.473	5211.57
672.664	5096.88
672.855	5156.27
673.046	5230
673.237	5334.45
673.428	5105.07
673.619	5125.55
673.809	4887.99
674	5191.09
674.191	5029.3
674.382	5019.06
674.573	4945.33
674.764	4976.05
674.954	5103.03
675.145	5062.07
675.336	4820.41
675.527	4818.36
675.717	4920.76
675.908	4828.6
676.099	4795.83
676.289	4681.14
676.48	4840.89
676.671	4758.97
676.861	4820.41
677.052	4722.1
677.243	4775.35
677.433	4765.11
677.624	4664.76
677.814	4560.31
678.005	4668.86
678.195	4640.19
678.386	4670.9
678.576	4509.12
678.767	4650.43
678.957	4609.47
679.148	4650.43
679.338	4648.38
679.529	4566.46
679.719	4521.4
679.909	4578.75
680.1	4570.55
680.29	4496.83
680.481	4482.49
680.671	4474.3
680.861	4474.3
681.052	4464.06
681.242	4519.36
681.432	4484.54
681.622	4287.93
681.813	4408.76
682.003	4361.66
682.193	4472.25
682.383	4494.78
682.573	4396.48
682.764	4513.21
682.954	4269.5
683.144	4394.43
683.334	4429.24
683.524	4320.7
683.714	4224.45
683.904	4324.8
684.094	4279.74
684.284	4351.42
684.474	4339.13
684.664	4226.5
684.854	4214.21
685.044	4224.45
685.234	4292.03
685.424	4257.22
685.614	4160.96
685.804	4234.69
685.994	4238.78
686.184	4255.17
686.374	4175.3
686.564	4210.11
686.753	4212.16
686.943	4023.75
687.133	4009.41
687.323	4001.22
687.513	4042.18
687.702	4072.9
687.892	4044.23
688.082	3900.87
688.272	4062.66
688.461	4070.85
688.651	4076.99
688.841	3941.83
689.03	3980.74
689.22	3968.45
689.41	4001.22
689.599	3921.35
689.789	4003.27
689.979	3853.77
690.168	3831.24
690.358	3847.62
690.547	3837.38
690.737	3896.77
690.926	3722.7
691.116	3685.83
691.305	3810.76
691.495	3689.93
691.684	3698.12
691.874	3788.23
692.063	3603.91
692.252	3829.19
692.442	3745.22
692.631	3597.77
692.82	3665.35
693.01	3651.02
693.199	3653.06
693.388	3648.97
693.578	3573.19
693.767	3583.43
693.956	3558.86
694.146	3495.37
694.335	3548.62
694.524	3435.98
694.713	3395.02
694.902	3511.75
695.092	3458.51
695.281	3411.4
695.47	3415.5
695.659	3374.54
695.848	3366.35
696.037	3317.2
696.226	3241.42
696.415	3362.25
696.604	3313.1
696.793	3296.72
696.982	3286.48
697.171	3304.91
697.36	3284.43
697.549	3206.61
697.738	3196.37
697.927	3132.88
698.116	3339.73
698.305	3087.82
698.494	3075.54
698.683	3147.22
698.872	3124.69
699.061	3116.5
699.25	3251.66
699.438	3155.41
699.627	3098.06
699.816	3050.96
700.005	3075.54
700.193	3042.77
700.382	2950.61
700.571	2932.18
700.76	2915.8
700.948	3032.53
701.137	2975.19
701.326	3067.35
701.514	3096.02
701.703	3030.48
701.892	3059.15
702.08	2973.14
702.269	2932.18
702.457	2850.26
702.646	2854.36
702.834	2944.47
703.023	2952.66
703.212	2921.94
703.4	2844.12
703.589	2821.59
703.777	2952.66
703.965	2782.68
704.154	2749.91
704.342	2776.53
704.531	2788.82
704.719	2850.26
704.907	2813.4
705.096	2876.88
705.284	2758.1
705.472	2641.37
705.661	2819.54
705.849	2764.25
706.037	2829.78
706.226	2754.01
706.414	2782.68
706.602	2727.38
706.79	2643.42
706.979	2665.94
707.167	2692.57
707.355	2545.11
707.543	2610.65
707.731	2659.8
707.919	2739.67
708.107	2633.18
708.296	2678.23
708.484	2569.69
708.672	2676.18
708.86	2678.23
709.048	2631.13
709.236	2645.46
709.424	2616.79
709.612	2610.65
709.8	2520.54
709.988	2586.07
710.176	2579.93
710.364	2729.43
710.551	2682.33
710.739	2678.23
710.927	2657.75
711.115	2680.28
711.303	2547.16
711.491	2633.18
711.679	2477.53
711.866	2604.5
712.054	2563.54
712.242	2657.75
712.43	2467.29
712.617	2569.69
712.805	2588.12
712.993	2461.15
713.181	2604.5
713.368	2547.16
713.556	2489.82
713.744	2522.59
713.931	2573.78
714.119	2510.3
714.306	2645.46
714.494	2502.11
714.682	2498.01
714.869	2407.9
715.057	2694.61
715.244	2475.48
715.432	2551.26
715.619	2549.21
715.807	2551.26
715.994	2401.76
716.182	2551.26
716.369	2522.59
716.556	2575.83
716.744	2422.24
716.931	2557.4
717.119	2581.98
717.306	2495.96
717.493	2471.39
717.681	2524.63
717.868	2391.52
718.055	2526.68
718.242	2491.87
718.43	2520.54
718.617	2510.3
718.804	2446.81
718.991	2489.82
719.179	2649.56
719.366	2399.71
719.553	2555.35
719.74	2608.6
719.927	2541.02
720.114	2489.82
720.301	2442.71
720.488	2498.01
720.676	2518.49
720.863	2414.04
721.05	2534.87
721.237	2495.96
721.424	2495.96
721.611	2467.29
721.798	2412
721.985	2471.39
722.172	2512.35
722.358	2485.72
722.545	2452.95
722.732	2375.13
722.919	2532.83
723.106	2375.13
723.293	2418.14
723.48	2500.06
723.667	2424.28
723.853	2371.04
724.04	2428.38
724.227	2360.8
724.414	2366.94
724.6	2434.52
724.787	2291.17
724.974	2450.91
725.161	2461.15
725.347	2473.43
725.534	2426.33
725.72	2461.15
725.907	2426.33
726.094	2489.82
726.28	2418.14
726.467	2391.52
726.653	2377.18
726.84	2330.08
727.027	2362.84
727.213	2514.39
727.4	2457.05
727.586	2477.53
727.773	2362.84
727.959	2450.91
728.145	2461.15
728.332	2239.97
728.518	2420.19
728.705	2293.21
728.891	2422.24
729.077	2362.84
729.264	2387.42
729.45	2432.47
729.636	2334.17
729.823	2428.38
730.009	2516.44
730.195	2446.81
730.382	2553.31
730.568	2485.72
730.754	2373.08
730.94	2379.23
731.126	2473.43
731.313	2371.04
731.499	2383.32
731.685	2571.74
731.871	2520.54
732.057	2348.51
732.243	2401.76
732.429	2377.18
732.615	2381.28
732.801	2250.21
732.987	2416.09
733.173	2270.69
733.359	2344.41
733.545	2368.99
733.731	2377.18
733.917	2391.52
734.103	2457.05
734.289	2268.64
734.475	2328.03
734.661	2424.28
734.847	2432.47
735.033	2368.99
735.219	2315.74
735.404	2424.28
735.59	2358.75
735.776	2393.56
735.962	2330.08
736.148	2346.46
736.333	2289.12
736.519	2264.54
736.705	2258.4
736.89	2395.61
737.076	2278.88
737.262	2209.25
737.447	2258.4
737.633	2319.84
737.819	2348.51
738.004	2199.01
738.19	2188.77
738.375	2295.26
738.561	2342.36
738.747	2330.08
738.932	2258.4
739.118	2156
739.303	2260.45
739.489	2305.5
739.674	2319.84
739.859	2182.62
740.045	2141.66
740.23	2356.7
740.416	2153.95
740.601	2246.11
740.786	2190.81
740.972	2219.49
741.157	2162.14
741.342	2156
741.528	2201.05
741.713	2221.53
741.898	2057.7
742.084	2117.09
742.269	2041.31
742.454	2135.52
742.639	2072.03
742.824	2115.04
743.01	2037.22
743.195	2024.93
743.38	2026.98
743.565	2182.62
743.75	2067.94
743.935	2024.93
744.12	2119.14
744.305	2059.74
744.49	1983.97
744.675	2006.5
744.86	2137.57
745.045	2084.32
745.23	1961.44
745.415	2022.88
745.6	2024.93
745.785	2020.83
745.97	1959.39
746.155	1916.39
746.34	2084.32
746.525	1961.44
746.71	1936.87
746.895	1953.25
747.079	1893.86
747.264	1934.82
747.449	1955.3
747.634	1961.44
747.819	1846.76
748.003	1842.66
748.188	1791.46
748.373	1875.43
748.557	1834.47
748.742	1793.51
748.927	1717.73
749.111	1707.49
749.296	1748.45
749.481	1799.65
749.665	1648.1
749.85	1674.73
750.034	1723.88
750.219	1734.12
750.404	1738.21
750.588	1654.25
750.773	1758.69
750.957	1727.97
751.141	1666.53
751.326	1719.78
751.51	1660.39
751.695	1701.35
751.879	1658.34
752.064	1543.66
752.248	1719.78
752.432	1639.91
752.617	1644.01
752.801	1547.75
752.985	1537.51
753.17	1564.14
753.354	1461.74
753.538	1658.34
753.722	1463.79
753.907	1480.17
754.091	1457.64
754.275	1439.21
754.459	1496.55
754.643	1482.22
754.828	1404.39
755.012	1334.76
755.196	1482.22
755.38	1332.72
755.564	1510.89
755.748	1359.34
755.932	1459.69
756.116	1367.53
756.3	1359.34
756.484	1351.15
756.668	1388.01
756.852	1357.29
757.036	1347.05
757.22	1338.86
757.404	1263.08
757.588	1304.04
757.772	1275.37
757.956	1291.76
758.14	1291.76
758.323	1277.42
758.507	1289.71
758.691	1234.41
758.875	1297.9
759.059	1355.24
759.242	1189.36
759.426	1332.72
759.61	1175.02
759.794	1232.37
759.977	1158.64
760.161	1213.93
760.345	1205.74
760.528	1207.79
760.712	1248.75
760.895	1164.78
761.079	1150.45
761.263	1035.76
761.446	1017.33
761.63	1177.07
761.813	1086.96
761.997	1162.73
762.18	1146.35
762.364	1222.13
762.547	1048.05
762.731	1086.96
762.914	1158.64
763.098	1146.35
763.281	1123.82
763.464	1050.1
763.648	1136.11
763.831	1082.86
764.015	1054.19
764.198	1152.49
764.381	1019.38
764.564	1048.05
764.748	953.84
764.931	1027.57
765.114	1037.81
765.297	1056.24
765.481	949.75
765.664	1074.67
765.847	1027.57
766.03	1076.72
766.213	1072.62
766.397	972.27
766.58	1027.57
766.763	957.94
766.946	1035.76
767.129	1013.23
767.312	986.61
767.495	1027.57
767.678	937.46
767.861	1015.28
768.044	1025.52
768.227	1005.04
768.41	937.46
768.593	1052.14
768.776	1060.34
768.959	982.51
769.142	904.69
769.324	941.55
769.507	968.18
769.69	998.9
769.873	927.22
770.056	931.31
770.239	980.47
770.421	796.15
770.604	869.87
770.787	910.83
770.97	822.77
771.152	841.2
771.335	900.59
771.518	898.55
771.7	921.07
771.883	904.69
772.066	863.73
772.248	892.4
772.431	826.87
772.613	880.11
772.796	882.16
772.978	933.36
773.161	884.21
773.343	845.3
773.526	794.1
773.708	759.28
773.891	742.9
774.073	880.11
774.256	798.2
774.438	790
774.621	833.01
774.803	710.13
774.985	667.13
775.168	841.2
775.35	779.76
775.532	759.28
775.715	812.53
775.897	753.14
776.079	663.03
776.261	765.43
776.444	779.76
776.626	714.23
776.808	777.72
776.99	761.33
777.173	757.24
777.355	710.13
777.537	732.66
777.719	775.67
777.901	781.81
778.083	708.09
778.265	615.93
778.447	628.21
778.629	663.03
778.811	734.71
778.993	703.99
779.175	697.85
779.357	658.93
779.539	591.35
779.721	669.17
779.903	617.97
780.085	620.02
780.267	609.78
780.449	730.61
780.631	566.78
780.812	656.89
780.994	581.11
781.176	648.69
781.358	607.73
781.54	574.97
781.721	542.2
781.903	644.6
782.085	607.73
782.267	572.92
782.448	593.4
782.63	579.06
782.812	593.4
782.993	540.15
783.175	501.24
783.357	511.48
783.538	591.35
783.72	554.49
783.901	476.66
784.083	398.84
784.264	595.45
784.446	499.19
784.627	534.01
784.809	521.72
784.99	599.54
785.172	509.43
785.353	476.66
785.535	470.52
785.716	404.99
785.897	460.28
786.079	472.57
786.26	503.29
786.441	544.25
786.623	474.62
786.804	466.42
786.985	417.27
787.167	499.19
787.348	472.57
787.529	482.81
787.71	505.34
787.891	478.71
788.073	433.66
788.254	486.9
788.435	460.28
788.616	464.38
788.797	421.37
788.978	316.92
789.159	404.99
789.34	491
789.522	370.17
789.703	347.64
789.884	441.85
790.065	339.45
790.246	443.9
790.427	398.84
790.607	376.31
790.788	400.89
790.969	421.37
791.15	450.04
791.331	392.7
791.512	437.75
791.693	421.37
791.874	351.74
792.054	386.55
792.235	392.7
792.416	318.97
792.597	413.18
792.778	390.65
792.958	376.31
793.139	316.92
793.32	331.26
793.5	318.97
793.681	376.31
793.862	372.22
794.042	355.83
794.223	370.17
794.404	366.07
794.584	323.07
794.765	306.68
794.945	374.27
795.126	310.78
795.306	298.49
795.487	323.07
795.667	292.35
795.848	275.96
796.028	314.88
796.209	288.25
796.389	378.36
796.57	273.92
796.75	327.16
796.93	351.74
797.111	368.12
797.291	298.49
797.471	249.34
797.652	339.45
797.832	259.58
798.012	329.21
798.192	257.53
798.373	325.12
798.553	312.83
798.733	292.35
798.913	310.78
799.093	325.12
799.274	321.02
799.454	278.01
799.634	376.31
799.814	241.15
799.994	216.57
800.174	251.39
800.354	257.53
800.534	257.53
800.714	216.57
800.894	388.6
801.074	275.96
801.254	310.78
801.434	273.92
801.614	212.48
801.794	245.24
801.974	548.34
802.154	237.05
802.334	263.68
802.514	198.14
802.693	290.3
802.873	247.29
803.053	230.91
803.233	245.24
803.413	208.38
803.592	337.4
803.772	216.57
803.952	321.02
804.131	216.57
804.311	224.76
804.491	267.77
804.67	175.61
804.85	175.61
805.03	232.96
805.209	280.06
805.389	265.72
805.568	187.9
805.748	222.72
805.928	216.57
806.107	202.24
806.287	255.48
806.466	253.44
806.646	202.24
806.825	220.67
807.004	220.67
807.184	241.15
807.363	259.58
807.543	202.24
807.722	179.71
807.901	232.96
808.081	167.42
808.26	175.61
808.439	189.95
808.619	93.69
808.798	169.47
808.977	218.62
809.156	255.48
809.336	204.28
809.515	157.18
809.694	163.33
809.873	163.33
810.052	261.63
810.231	245.24
810.411	175.61
810.59	222.72
810.769	169.47
810.948	192
811.127	128.51
811.306	202.24
811.485	179.71
811.664	181.76
811.843	171.52
812.022	126.46
812.201	189.95
812.38	206.33
812.559	173.57
812.737	167.42
812.916	245.24
813.095	181.76
813.274	194.05
813.453	224.76
813.632	210.43
813.811	247.29
813.989	124.41
814.168	97.79
814.347	177.66
814.526	171.52
814.704	179.71
814.883	239.1
815.062	114.17
815.24	167.42
815.419	77.31
815.598	212.48
815.776	132.61
815.955	235
816.133	65.02
816.312	169.47
816.49	181.76
816.669	175.61
816.847	151.04
817.026	183.81
817.204	173.57
817.383	181.76
817.561	91.65
817.74	196.09
817.918	198.14
818.097	161.28
818.275	126.46
818.453	173.57
818.632	128.51
818.81	136.7
818.988	192
819.167	142.85
819.345	130.56
819.523	136.7
819.701	161.28
819.879	103.93
820.058	60.93
820.236	118.27
820.414	183.81
820.592	144.89
820.77	173.57
820.948	101.89
821.127	128.51
821.305	134.65
821.483	116.22
821.661	179.71
821.839	136.7
822.017	85.5
822.195	81.41
822.373	112.13
822.551	124.41
822.729	99.84
822.907	38.4
823.085	130.56
823.262	148.99
823.44	179.71
823.618	175.61
823.796	124.41
823.974	122.37
824.152	126.46
824.329	112.13
824.507	192
824.685	155.13
824.863	108.03
825.04	136.7
825.218	99.84
825.396	50.69
825.574	122.37
825.751	130.56
825.929	126.46
826.107	67.07
826.284	171.52
826.462	118.27
826.639	157.18
826.817	71.17
826.994	24.06
827.172	97.79
827.349	134.65
827.527	134.65
827.704	75.26
827.882	79.36
828.059	167.42
828.237	73.21
828.414	101.89
828.591	69.12
828.769	97.79
828.946	40.45
829.124	101.89
829.301	146.94
829.478	124.41
829.655	128.51
829.833	114.17
830.01	34.3
830.187	159.23
830.364	-12.8
830.542	116.22
830.719	69.12
830.896	114.17
831.073	69.12
831.25	140.8
831.427	146.94
831.604	118.27
831.782	44.54
831.959	171.52
832.136	136.7
832.313	126.46
832.49	128.51
832.667	144.89
832.844	11.78
833.021	108.03
833.198	60.93
833.374	44.54
833.551	108.03
833.728	75.26
833.905	79.36
834.082	126.46
834.259	99.84
834.436	46.59
834.612	54.78
834.789	93.69
834.966	54.78
835.143	87.55
835.319	48.64
835.496	87.55
835.673	52.74
835.85	108.03
836.026	132.61
836.203	67.07
836.38	116.22
836.556	103.93
836.733	44.54
836.909	48.64
837.086	85.5
837.262	48.64
837.439	62.98
837.616	120.32
837.792	65.02
837.968	148.99
838.145	52.74
838.321	60.93
838.498	65.02
838.674	36.35
838.851	95.74
839.027	75.26
839.203	108.03
839.38	110.08
839.556	46.59
839.732	177.66
839.909	48.64
840.085	151.04
840.261	136.7
840.437	24.06
840.614	112.13
840.79	130.56
840.966	93.69
841.142	97.79
841.318	146.94
841.494	73.21
841.671	69.12
841.847	58.88
842.023	52.74
842.199	73.21
842.375	163.33
842.551	56.83
842.727	85.5
842.903	101.89
843.079	83.45
843.255	108.03
843.431	103.93
843.607	60.93
843.783	75.26
843.959	60.93
844.134	11.78
844.31	26.11
844.486	110.08
844.662	56.83
844.838	89.6
845.013	99.84
845.189	153.09
845.365	95.74
845.541	48.64
845.716	40.45
845.892	112.13
846.068	75.26
846.244	40.45
846.419	99.84
846.595	52.74
846.77	32.26
846.946	85.5
847.122	71.17
847.297	91.65
847.473	32.26
847.648	26.11
847.824	54.78
847.999	-27.14
848.175	118.27
848.35	81.41
848.526	95.74
848.701	19.97
848.876	-2.56
849.052	101.89
849.227	81.41
849.403	69.12
849.578	3.58
849.753	3.58
849.929	87.55
850.104	54.78
850.279	17.92
850.454	30.21
850.63	48.64
850.805	58.88
850.98	56.83
851.155	42.5
851.33	58.88
851.505	93.69
851.681	120.32
851.856	69.12
852.031	44.54
852.206	126.46
852.381	85.5
852.556	15.87
852.731	36.35
852.906	58.88
853.081	7.68
853.256	40.45
853.431	95.74
853.606	-25.09
853.781	40.45
853.956	-33.28
854.131	83.45
854.305	81.41
854.48	108.03
854.655	-8.7
854.83	13.82
855.005	-0.51
855.18	83.45
855.354	13.82
855.529	62.98
855.704	56.83
855.879	30.21
856.053	44.54
856.228	-12.8
856.403	-0.51
856.577	85.5
856.752	32.26
856.926	-18.94
857.101	-4.61
857.276	40.45
857.45	54.78
857.625	56.83
857.799	52.74
857.974	-41.47
858.148	3.58
858.323	69.12
858.497	-80.38
858.672	19.97
858.846	-4.61
859.02	56.83
859.195	28.16
859.369	7.68
859.543	-23.04
859.718	67.07
859.892	-41.47
860.066	73.21
860.241	11.78
860.415	22.02
860.589	46.59
860.763	-35.33
860.938	48.64
861.112	-2.56
861.286	58.88
861.46	60.93
861.634	32.26
861.808	15.87
861.982	32.26
862.157	69.12
862.331	15.87
862.505	9.73
862.679	3.58
862.853	50.69
863.027	126.46
863.201	48.64
863.375	-18.94
863.549	28.16
863.722	-45.57
863.896	89.6
864.07	28.16
864.244	83.45
864.418	60.93
864.592	52.74
864.766	17.92
864.939	5.63
865.113	-2.56
865.287	24.06
865.461	112.13
865.634	17.92
865.808	17.92
865.982	32.26
866.156	26.11
866.329	48.64
866.503	91.65
866.676	48.64
866.85	-4.61
867.024	48.64
867.197	81.41
867.371	77.31
867.544	24.06
867.718	3.58
867.891	73.21
868.065	71.17
868.238	93.69
868.412	48.64
868.585	1.54
868.759	73.21
868.932	-12.8
869.105	95.74
869.279	38.4
869.452	-4.61
869.625	28.16
869.799	81.41
869.972	3.58
870.145	22.02
870.319	56.83
870.492	77.31
870.665	11.78
870.838	65.02
871.011	75.26
871.185	-10.75
871.358	75.26
871.531	73.21
871.704	1.54
871.877	36.35
872.05	-2.56
872.223	9.73
872.396	54.78
872.569	-27.14
872.742	-37.38
872.915	81.41
873.088	11.78
873.261	-25.09
873.434	3.58
873.607	28.16
873.78	11.78
873.953	1.54
874.126	67.07
874.299	46.59
874.471	79.36
874.644	32.26
874.817	75.26
874.99	40.45
875.163	9.73
875.335	32.26
875.508	54.78
875.681	110.08
875.853	38.4
876.026	62.98
876.199	-6.66
876.371	69.12
876.544	50.69
876.717	56.83
876.889	36.35
877.062	67.07
877.234	-25.09
877.407	13.82
877.579	-25.09
877.752	46.59
877.924	7.68
878.097	19.97
878.269	44.54
878.442	9.73
878.614	36.35
878.786	50.69
878.959	48.64
879.131	1.54
879.303	-49.66
879.476	26.11
879.648	-16.9
879.82	-25.09
879.993	24.06
880.165	62.98
880.337	-16.9
880.509	32.26
880.681	-12.8
880.854	11.78
881.026	9.73
881.198	89.6
881.37	71.17
881.542	-20.99
881.714	17.92
881.886	44.54
882.058	-16.9
882.23	65.02
882.402	22.02
882.574	91.65
882.746	46.59
882.918	17.92
883.09	26.11
883.262	48.64
883.434	65.02
883.606	5.63
883.778	15.87
883.95	32.26
884.122	19.97
884.293	5.63
884.465	1.54
884.637	75.26
884.809	30.21
884.98	19.97
885.152	17.92
885.324	40.45
885.496	85.5
885.667	40.45
885.839	15.87
886.011	60.93
886.182	67.07
886.354	19.97
886.525	42.5
886.697	-45.57
886.869	24.06
887.04	11.78
887.212	65.02
887.383	93.69
887.555	50.69
887.726	1.54
887.897	28.16
888.069	42.5
888.24	-39.42
888.412	5.63
888.583	42.5
888.754	26.11
888.926	-20.99
889.097	22.02
889.268	-23.04
889.44	58.88
889.611	-31.23
889.782	-2.56
889.953	-33.28
890.125	52.74
890.296	-6.66
890.467	60.93
890.638	62.98
890.809	36.35
890.98	-23.04
891.151	-49.66
891.323	7.68
891.494	7.68
891.665	-18.94
891.836	99.84
892.007	-10.75
892.178	42.5
892.349	-23.04
892.52	-16.9
892.691	19.97
892.862	-31.23
893.032	28.16
893.203	-29.18
893.374	38.4
893.545	-18.94
893.716	-0.51
893.887	-33.28
894.057	24.06
894.228	54.78
894.399	11.78
894.57	60.93
894.74	11.78
894.911	58.88
895.082	46.59
895.253	44.54
895.423	-12.8
895.594	15.87
895.764	-29.18
895.935	-27.14
896.106	52.74
896.276	-2.56
896.447	65.02
896.617	54.78
896.788	-20.99
896.958	3.58
897.129	-4.61
897.299	17.92
897.47	65.02
897.64	44.54
897.81	30.21
897.981	130.56
898.151	-4.61
898.322	19.97
898.492	24.06
898.662	1.54
898.832	60.93
899.003	36.35
899.173	30.21
899.343	-10.75
899.513	11.78
