Data from USB4F104151__49__11-37-03-810.txt Node

Date: Fri Mar 14 11:37:03 EDT 2025
User: louis
Spectrometer: USB4F10415
Trigger mode: 4
Integration Time (sec): 2.000000E-2
Scans to average: 1
Electric dark correction enabled: true
Nonlinearity correction enabled: false
Boxcar width: 0
XAxis mode: Wavelengths
Number of Pixels in Spectrum: 3648
>>>>>Begin Spectral Data<<<<<
178.204	-32.26
178.424	-32.26
178.644	-32.26
178.864	-48.64
179.084	-28.16
179.304	25.09
179.524	-11.78
179.744	-26.11
179.964	53.76
180.184	12.8
180.404	20.99
180.624	-34.3
180.844	-1.54
181.064	-28.16
181.283	-13.82
181.503	12.8
181.723	-9.73
181.943	-24.06
182.163	-5.63
182.383	12.8
182.602	14.85
182.822	41.47
183.042	12.8
183.262	39.42
183.482	27.14
183.701	49.66
183.921	12.8
184.141	-1.54
184.361	100.86
184.58	-19.97
184.8	57.86
185.02	0.51
185.239	6.66
185.459	-9.73
185.679	25.09
185.898	-13.82
186.118	51.71
186.338	-3.58
186.557	23.04
186.777	14.85
186.997	10.75
187.216	-7.68
187.436	90.62
187.655	29.18
187.875	-3.58
188.095	84.48
188.314	27.14
188.534	-11.78
188.753	-77.31
188.973	-11.78
189.192	119.29
189.412	94.72
189.631	41.47
189.851	-9.73
190.07	-15.87
190.29	41.47
190.509	-42.5
190.729	-36.35
190.948	49.66
191.168	135.68
191.387	66.05
191.607	47.62
191.826	53.76
192.045	25.09
192.265	-13.82
192.484	127.49
192.704	94.72
192.923	6.66
193.142	8.7
193.362	55.81
193.581	57.86
193.8	88.57
194.02	90.62
194.239	-7.68
194.458	41.47
194.678	53.76
194.897	64
195.116	82.43
195.335	-17.92
195.555	84.48
195.774	88.57
195.993	70.14
196.212	53.76
196.432	14.85
196.651	82.43
196.87	0.51
197.089	49.66
197.308	100.86
197.528	25.09
197.747	-65.02
197.966	55.81
198.185	88.57
198.404	20.99
198.623	137.73
198.842	29.18
199.062	35.33
199.281	96.77
199.5	-40.45
199.719	64
199.938	98.81
200.157	64
200.376	8.7
200.595	35.33
200.814	123.39
201.033	61.95
201.252	109.05
201.471	53.76
201.69	10.75
201.909	51.71
202.128	31.23
202.347	37.38
202.566	4.61
202.785	-13.82
203.004	18.94
203.223	49.66
203.442	20.99
203.661	49.66
203.879	37.38
204.098	80.38
204.317	-22.02
204.536	-24.06
204.755	-5.63
204.974	12.8
205.193	16.9
205.411	125.44
205.63	12.8
205.849	-22.02
206.068	53.76
206.287	35.33
206.505	-7.68
206.724	96.77
206.943	45.57
207.162	-3.58
207.381	-3.58
207.599	33.28
207.818	47.62
208.037	37.38
208.255	55.81
208.474	2.56
208.693	-13.82
208.911	35.33
209.13	29.18
209.349	-48.64
209.567	18.94
209.786	78.33
210.005	33.28
210.223	16.9
210.442	4.61
210.661	121.34
210.879	-15.87
211.098	37.38
211.316	51.71
211.535	35.33
211.753	49.66
211.972	-3.58
212.191	39.42
212.409	78.33
212.628	86.53
212.846	12.8
213.065	29.18
213.283	57.86
213.502	16.9
213.72	-56.83
213.938	16.9
214.157	-54.78
214.375	70.14
214.594	74.24
214.812	72.19
215.031	51.71
215.249	53.76
215.467	33.28
215.686	20.99
215.904	14.85
216.122	59.9
216.341	14.85
216.559	-28.16
216.778	74.24
216.996	70.14
217.214	27.14
217.432	104.96
217.651	0.51
217.869	-1.54
218.087	10.75
218.306	-44.54
218.524	88.57
218.742	70.14
218.96	12.8
219.179	-28.16
219.397	53.76
219.615	37.38
219.833	70.14
220.051	64
220.27	86.53
220.488	-9.73
220.706	61.95
220.924	35.33
221.142	27.14
221.36	39.42
221.578	18.94
221.796	-9.73
222.015	29.18
222.233	84.48
222.451	8.7
222.669	23.04
222.887	90.62
223.105	6.66
223.323	33.28
223.541	-26.11
223.759	27.14
223.977	57.86
224.195	59.9
224.413	47.62
224.631	43.52
224.849	2.56
225.067	82.43
225.285	53.76
225.503	18.94
225.721	6.66
225.939	2.56
226.157	47.62
226.375	39.42
226.592	-11.78
226.81	37.38
227.028	2.56
227.246	68.09
227.464	70.14
227.682	20.99
227.9	49.66
228.117	37.38
228.335	18.94
228.553	57.86
228.771	29.18
228.989	-22.02
229.206	37.38
229.424	-56.83
229.642	18.94
229.86	27.14
230.077	51.71
230.295	16.9
230.513	-15.87
230.731	53.76
230.948	57.86
231.166	102.91
231.384	37.38
231.601	78.33
231.819	82.43
232.037	51.71
232.254	10.75
232.472	72.19
232.689	-15.87
232.907	20.99
233.125	53.76
233.342	-28.16
233.56	66.05
233.777	12.8
233.995	78.33
234.213	70.14
234.43	45.57
234.648	27.14
234.865	41.47
235.083	-15.87
235.3	-11.78
235.518	53.76
235.735	127.49
235.953	47.62
236.17	2.56
236.388	25.09
236.605	0.51
236.822	84.48
237.04	12.8
237.257	6.66
237.475	2.56
237.692	37.38
237.909	27.14
238.127	-36.35
238.344	43.52
238.562	29.18
238.779	2.56
238.996	18.94
239.214	72.19
239.431	18.94
239.648	0.51
239.865	23.04
240.083	61.95
240.3	0.51
240.517	57.86
240.735	8.7
240.952	90.62
241.169	68.09
241.386	29.18
241.603	86.53
241.821	31.23
242.038	121.34
242.255	27.14
242.472	2.56
242.689	-15.87
242.907	115.2
243.124	20.99
243.341	16.9
243.558	4.61
243.775	86.53
243.992	-38.4
244.209	20.99
244.426	23.04
244.643	90.62
244.86	33.28
245.078	27.14
245.295	53.76
245.512	-3.58
245.729	0.51
245.946	16.9
246.163	86.53
246.38	2.56
246.597	41.47
246.814	41.47
247.031	20.99
247.248	27.14
247.464	57.86
247.681	-9.73
247.898	25.09
248.115	82.43
248.332	31.23
248.549	-13.82
248.766	72.19
248.983	57.86
249.2	35.33
249.417	18.94
249.633	43.52
249.85	45.57
250.067	12.8
250.284	18.94
250.501	25.09
250.717	78.33
250.934	47.62
251.151	78.33
251.368	-9.73
251.585	37.38
251.801	82.43
252.018	14.85
252.235	2.56
252.451	8.7
252.668	51.71
252.885	33.28
253.102	78.33
253.318	-5.63
253.535	18.94
253.752	-28.16
253.968	86.53
254.185	-54.78
254.401	35.33
254.618	16.9
254.835	43.52
255.051	-26.11
255.268	51.71
255.484	107.01
255.701	66.05
255.917	57.86
256.134	10.75
256.351	70.14
256.567	-28.16
256.784	-48.64
257	16.9
257.217	18.94
257.433	74.24
257.65	12.8
257.866	45.57
258.082	-9.73
258.299	20.99
258.515	66.05
258.732	37.38
258.948	90.62
259.165	41.47
259.381	82.43
259.597	-32.26
259.814	61.95
260.03	-34.3
260.246	6.66
260.463	23.04
260.679	-36.35
260.895	53.76
261.112	135.68
261.328	6.66
261.544	-11.78
261.761	64
261.977	57.86
262.193	-11.78
262.409	76.29
262.626	12.8
262.842	61.95
263.058	-15.87
263.274	37.38
263.49	64
263.707	25.09
263.923	37.38
264.139	53.76
264.355	4.61
264.571	86.53
264.787	68.09
265.004	39.42
265.22	66.05
265.436	12.8
265.652	16.9
265.868	-36.35
266.084	45.57
266.3	59.9
266.516	64
266.732	20.99
266.948	-9.73
267.164	57.86
267.38	102.91
267.596	31.23
267.812	37.38
268.028	29.18
268.244	33.28
268.46	-22.02
268.676	29.18
268.892	27.14
269.108	53.76
269.324	76.29
269.54	12.8
269.756	43.52
269.972	68.09
270.188	14.85
270.403	10.75
270.619	49.66
270.835	10.75
271.051	4.61
271.267	55.81
271.483	45.57
271.698	37.38
271.914	113.15
272.13	111.1
272.346	66.05
272.562	20.99
272.777	59.9
272.993	18.94
273.209	20.99
273.425	0.51
273.64	43.52
273.856	33.28
274.072	37.38
274.287	29.18
274.503	4.61
274.719	31.23
274.934	27.14
275.15	25.09
275.366	-13.82
275.581	25.09
275.797	74.24
276.012	8.7
276.228	4.61
276.444	55.81
276.659	49.66
276.875	33.28
277.09	-5.63
277.306	55.81
277.521	37.38
277.737	23.04
277.952	33.28
278.168	4.61
278.383	119.29
278.599	90.62
278.814	107.01
279.03	86.53
279.245	72.19
279.461	82.43
279.676	33.28
279.892	70.14
280.107	45.57
280.322	-30.21
280.538	6.66
280.753	8.7
280.969	70.14
281.184	-7.68
281.399	90.62
281.615	23.04
281.83	4.61
282.045	33.28
282.26	51.71
282.476	35.33
282.691	-7.68
282.906	12.8
283.122	-1.54
283.337	-48.64
283.552	47.62
283.767	-13.82
283.983	-1.54
284.198	37.38
284.413	45.57
284.628	45.57
284.843	35.33
285.058	84.48
285.274	-13.82
285.489	86.53
285.704	90.62
285.919	-9.73
286.134	55.81
286.349	10.75
286.564	66.05
286.779	4.61
286.995	74.24
287.21	6.66
287.425	33.28
287.64	47.62
287.855	8.7
288.07	-67.07
288.285	98.81
288.5	100.86
288.715	43.52
288.93	70.14
289.145	-13.82
289.36	88.57
289.575	12.8
289.79	55.81
290.004	53.76
290.219	61.95
290.434	72.19
290.649	47.62
290.864	41.47
291.079	59.9
291.294	41.47
291.509	61.95
291.724	18.94
291.938	10.75
292.153	78.33
292.368	53.76
292.583	59.9
292.798	66.05
293.012	25.09
293.227	59.9
293.442	51.71
293.657	20.99
293.871	78.33
294.086	-52.74
294.301	70.14
294.516	2.56
294.73	74.24
294.945	-3.58
295.16	-5.63
295.374	4.61
295.589	14.85
295.804	-11.78
296.018	12.8
296.233	59.9
296.447	6.66
296.662	-62.98
296.877	55.81
297.091	70.14
297.306	33.28
297.52	-46.59
297.735	4.61
297.949	4.61
298.164	12.8
298.378	-17.92
298.593	74.24
298.807	57.86
299.022	12.8
299.236	84.48
299.451	10.75
299.665	4.61
299.88	-5.63
300.094	0.51
300.309	16.9
300.523	59.9
300.737	-7.68
300.952	-34.3
301.166	12.8
301.381	23.04
301.595	92.67
301.809	37.38
302.024	35.33
302.238	76.29
302.452	86.53
302.667	76.29
302.881	109.05
303.095	14.85
303.309	37.38
303.524	25.09
303.738	18.94
303.952	27.14
304.166	49.66
304.381	25.09
304.595	117.25
304.809	-13.82
305.023	59.9
305.237	-50.69
305.452	23.04
305.666	37.38
305.88	35.33
306.094	20.99
306.308	37.38
306.522	41.47
306.736	29.18
306.95	18.94
307.164	45.57
307.379	-5.63
307.593	27.14
307.807	61.95
308.021	57.86
308.235	-44.54
308.449	2.56
308.663	76.29
308.877	35.33
309.091	0.51
309.305	80.38
309.519	10.75
309.733	53.76
309.947	-30.21
310.161	68.09
310.374	115.2
310.588	27.14
310.802	-60.93
311.016	18.94
311.23	-11.78
311.444	39.42
311.658	-73.21
311.872	86.53
312.085	-15.87
312.299	37.38
312.513	98.81
312.727	8.7
312.941	8.7
313.154	20.99
313.368	-34.3
313.582	29.18
313.796	57.86
314.009	41.47
314.223	37.38
314.437	29.18
314.651	61.95
314.864	8.7
315.078	12.8
315.292	64
315.505	20.99
315.719	53.76
315.933	-9.73
316.146	57.86
316.36	2.56
316.573	33.28
316.787	6.66
317.001	20.99
317.214	2.56
317.428	16.9
317.641	-62.98
317.855	61.95
318.068	39.42
318.282	84.48
318.495	61.95
318.709	72.19
318.922	55.81
319.136	37.38
319.349	141.82
319.563	-17.92
319.776	12.8
319.99	-19.97
320.203	57.86
320.417	72.19
320.63	84.48
320.843	70.14
321.057	53.76
321.27	64
321.483	12.8
321.697	33.28
321.91	53.76
322.124	76.29
322.337	35.33
322.55	53.76
322.763	72.19
322.977	53.76
323.19	57.86
323.403	115.2
323.617	82.43
323.83	61.95
324.043	45.57
324.256	72.19
324.469	6.66
324.683	6.66
324.896	33.28
325.109	55.81
325.322	-28.16
325.535	-26.11
325.748	-58.88
325.962	45.57
326.175	31.23
326.388	0.51
326.601	35.33
326.814	96.77
327.027	88.57
327.24	57.86
327.453	20.99
327.666	39.42
327.879	86.53
328.092	80.38
328.305	-28.16
328.518	4.61
328.731	33.28
328.944	-3.58
329.157	16.9
329.37	-15.87
329.583	27.14
329.796	53.76
330.009	37.38
330.222	47.62
330.435	43.52
330.648	4.61
330.861	2.56
331.073	102.91
331.286	94.72
331.499	55.81
331.712	14.85
331.925	-103.93
332.138	8.7
332.35	39.42
332.563	-22.02
332.776	33.28
332.989	70.14
333.202	64
333.414	139.77
333.627	61.95
333.84	-28.16
334.053	20.99
334.265	10.75
334.478	37.38
334.691	43.52
334.903	51.71
335.116	74.24
335.329	8.7
335.541	16.9
335.754	68.09
335.966	29.18
336.179	18.94
336.392	53.76
336.604	23.04
336.817	41.47
337.029	76.29
337.242	-24.06
337.454	80.38
337.667	-7.68
337.88	70.14
338.092	41.47
338.305	98.81
338.517	8.7
338.729	55.81
338.942	72.19
339.154	137.73
339.367	35.33
339.579	31.23
339.792	6.66
340.004	107.01
340.217	45.57
340.429	125.44
340.641	4.61
340.854	76.29
341.066	68.09
341.278	49.66
341.491	25.09
341.703	92.67
341.915	4.61
342.128	119.29
342.34	68.09
342.552	57.86
342.764	29.18
342.977	35.33
343.189	8.7
343.401	47.62
343.613	-38.4
343.826	57.86
344.038	49.66
344.25	107.01
344.462	-19.97
344.674	35.33
344.886	39.42
345.099	-1.54
345.311	53.76
345.523	25.09
345.735	18.94
345.947	102.91
346.159	14.85
346.371	107.01
346.583	-13.82
346.795	53.76
347.007	90.62
347.219	113.15
347.431	43.52
347.643	64
347.855	61.95
348.067	41.47
348.279	-5.63
348.491	35.33
348.703	94.72
348.915	41.47
349.127	37.38
349.339	27.14
349.551	80.38
349.763	41.47
349.975	-48.64
350.187	39.42
350.399	57.86
350.61	107.01
350.822	57.86
351.034	33.28
351.246	43.52
351.458	4.61
351.669	18.94
351.881	29.18
352.093	76.29
352.305	27.14
352.517	43.52
352.728	4.61
352.94	29.18
353.152	16.9
353.363	39.42
353.575	66.05
353.787	29.18
353.999	41.47
354.21	49.66
354.422	-5.63
354.633	-32.26
354.845	10.75
355.057	100.86
355.268	84.48
355.48	41.47
355.692	4.61
355.903	86.53
356.115	16.9
356.326	94.72
356.538	8.7
356.749	-13.82
356.961	66.05
357.172	86.53
357.384	-11.78
357.595	-11.78
357.807	31.23
358.018	51.71
358.23	55.81
358.441	68.09
358.653	94.72
358.864	86.53
359.075	37.38
359.287	72.19
359.498	-3.58
359.709	12.8
359.921	47.62
360.132	86.53
360.344	53.76
360.555	-26.11
360.766	29.18
360.977	-38.4
361.189	72.19
361.4	12.8
361.611	111.1
361.823	-26.11
362.034	109.05
362.245	-1.54
362.456	29.18
362.667	14.85
362.879	78.33
363.09	45.57
363.301	57.86
363.512	-5.63
363.723	39.42
363.935	64
364.146	68.09
364.357	55.81
364.568	41.47
364.779	102.91
364.99	76.29
365.201	-5.63
365.412	35.33
365.623	84.48
365.834	82.43
366.045	-3.58
366.256	37.38
366.467	33.28
366.678	70.14
366.889	4.61
367.1	25.09
367.311	51.71
367.522	57.86
367.733	37.38
367.944	86.53
368.155	47.62
368.366	61.95
368.577	92.67
368.788	25.09
368.999	96.77
369.209	10.75
369.42	131.58
369.631	160.25
369.842	68.09
370.053	16.9
370.264	57.86
370.474	98.81
370.685	82.43
370.896	6.66
371.107	55.81
371.317	2.56
371.528	66.05
371.739	102.91
371.95	43.52
372.16	41.47
372.371	86.53
372.582	-3.58
372.792	82.43
373.003	-9.73
373.214	18.94
373.424	64
373.635	20.99
373.846	8.7
374.056	2.56
374.267	41.47
374.477	51.71
374.688	72.19
374.898	90.62
375.109	49.66
375.319	78.33
375.53	51.71
375.74	94.72
375.951	-7.68
376.161	-3.58
376.372	68.09
376.582	12.8
376.793	86.53
377.003	51.71
377.214	-3.58
377.424	41.47
377.635	27.14
377.845	37.38
378.055	98.81
378.266	45.57
378.476	12.8
378.686	84.48
378.897	61.95
379.107	72.19
379.317	33.28
379.528	49.66
379.738	61.95
379.948	10.75
380.158	82.43
380.369	45.57
380.579	33.28
380.789	102.91
380.999	53.76
381.21	78.33
381.42	141.82
381.63	-19.97
381.84	61.95
382.05	59.9
382.261	20.99
382.471	107.01
382.681	14.85
382.891	35.33
383.101	33.28
383.311	51.71
383.521	25.09
383.731	86.53
383.941	84.48
384.151	135.68
384.361	35.33
384.571	47.62
384.781	80.38
384.991	82.43
385.201	-7.68
385.411	96.77
385.621	64
385.831	57.86
386.041	61.95
386.251	37.38
386.461	109.05
386.671	-1.54
386.881	39.42
387.091	33.28
387.301	61.95
387.511	94.72
387.72	-34.3
387.93	25.09
388.14	23.04
388.35	137.73
388.56	107.01
388.769	49.66
388.979	47.62
389.189	76.29
389.399	88.57
389.609	68.09
389.818	117.25
390.028	141.82
390.238	84.48
390.447	47.62
390.657	80.38
390.867	27.14
391.076	0.51
391.286	37.38
391.496	25.09
391.705	78.33
391.915	76.29
392.125	125.44
392.334	76.29
392.544	66.05
392.753	90.62
392.963	90.62
393.172	59.9
393.382	53.76
393.591	31.23
393.801	80.38
394.01	90.62
394.22	102.91
394.429	121.34
394.639	92.67
394.848	37.38
395.058	76.29
395.267	117.25
395.477	4.61
395.686	78.33
395.895	156.16
396.105	72.19
396.314	119.29
396.524	111.1
396.733	94.72
396.942	72.19
397.152	86.53
397.361	39.42
397.57	53.76
397.78	78.33
397.989	72.19
398.198	125.44
398.407	102.91
398.617	20.99
398.826	86.53
399.035	107.01
399.244	133.63
399.453	82.43
399.663	117.25
399.872	158.21
400.081	55.81
400.29	168.45
400.499	64
400.708	70.14
400.917	76.29
401.127	66.05
401.336	182.78
401.545	141.82
401.754	72.19
401.963	180.73
402.172	78.33
402.381	64
402.59	137.73
402.799	158.21
403.008	102.91
403.217	160.25
403.426	100.86
403.635	139.77
403.844	88.57
404.053	135.68
404.262	78.33
404.471	117.25
404.68	119.29
404.888	88.57
405.097	141.82
405.306	164.35
405.515	123.39
405.724	125.44
405.933	125.44
406.142	119.29
406.35	258.56
406.559	33.28
406.768	131.58
406.977	170.49
407.185	92.67
407.394	166.4
407.603	201.21
407.812	182.78
408.02	141.82
408.229	201.21
408.438	102.91
408.646	184.83
408.855	166.4
409.064	217.6
409.272	150.01
409.481	276.99
409.69	305.66
409.898	223.74
410.107	244.22
410.315	262.65
410.524	305.66
410.733	209.4
410.941	291.32
411.15	297.47
411.358	293.37
411.567	334.33
411.775	365.05
411.984	330.23
412.192	363
412.401	322.04
412.609	352.76
412.818	385.53
413.026	360.95
413.234	463.35
413.443	463.35
413.651	449.02
413.86	430.59
414.068	479.74
414.276	455.16
414.485	479.74
414.693	483.83
414.901	608.76
415.11	537.08
415.318	532.98
415.526	559.61
415.734	592.37
415.943	539.13
416.151	680.44
416.359	616.95
416.567	696.82
416.776	715.25
416.984	831.99
417.192	737.78
417.4	778.74
417.608	705.01
417.817	834.04
418.025	864.75
418.233	877.04
418.441	864.75
418.649	842.23
418.857	1053.17
419.065	1040.88
419.273	1047.02
419.481	1077.74
419.689	997.87
419.897	1087.98
420.105	1178.09
420.313	1255.92
420.521	1251.82
420.729	1243.63
420.937	1370.6
421.145	1354.22
421.353	1462.76
421.561	1522.15
421.769	1524.2
421.977	1604.07
422.185	1540.58
422.393	1602.02
422.601	1855.97
422.809	1716.71
423.017	1763.81
423.224	1915.36
423.432	1962.47
423.64	1966.56
423.848	2085.34
424.056	2034.14
424.263	2146.78
424.471	2126.3
424.679	2214.37
424.887	2453.98
425.094	2484.7
425.302	2421.21
425.51	2462.17
425.718	2466.27
425.925	2572.76
426.133	2752.98
426.341	3031.51
426.548	2935.25
426.756	2990.55
426.964	2994.64
427.171	3070.42
427.379	3215.82
427.586	3326.41
427.794	3475.91
428.001	3645.9
428.209	3697.1
428.417	3656.14
428.624	4010.43
428.832	4008.39
429.039	3881.41
429.247	4065.73
429.454	4282.81
429.662	4567.48
429.869	4286.91
430.076	4528.57
430.284	4413.88
430.491	4590.01
430.699	4889.01
430.906	4778.42
431.114	4972.98
431.321	5171.63
431.528	5228.98
431.736	5689.77
431.943	5929.38
432.15	5538.22
432.358	5824.94
432.565	6072.74
432.772	6123.94
432.979	6359.45
433.187	6488.48
433.394	6527.39
433.601	6885.78
433.808	6973.85
434.016	6824.34
434.223	7186.83
434.43	7623.05
434.637	7457.17
434.844	7911.82
435.052	7983.49
435.259	8098.18
435.466	8169.86
435.673	8186.24
435.88	8782.2
436.087	9150.84
436.294	9136.5
436.501	8841.59
436.708	9247.09
436.915	9263.47
437.122	9748.84
437.329	9769.32
437.537	10064.23
437.743	10158.44
437.95	10424.67
438.157	10639.71
438.364	10953.05
438.571	10864.99
438.778	10932.57
438.985	12099.91
439.192	11671.89
439.399	12048.71
439.606	11665.74
439.813	12403.01
440.02	13230.39
440.227	12765.5
440.433	12794.17
440.64	13031.74
440.847	13062.46
441.054	13281.59
441.261	14397.73
441.467	14055.72
441.674	14502.18
441.881	14854.43
442.088	14905.63
442.294	14747.93
442.501	15112.47
442.708	15550.74
442.914	15962.38
443.121	16472.32
443.328	16275.72
443.534	17598.71
443.741	16894.21
443.948	16781.57
444.154	18043.12
444.361	18004.21
444.568	18061.55
444.774	17979.63
444.981	18170.09
445.187	18417.89
445.394	19445.98
445.6	19257.56
445.807	21121.21
446.013	20144.33
446.22	20705.48
446.426	21180.6
446.633	21315.77
446.839	22233.26
447.046	21276.86
447.252	22223.02
447.459	22495.4
447.665	22212.78
447.871	23380.12
448.078	24516.75
448.284	23191.71
448.491	23961.75
448.697	24780.93
448.903	25256.06
449.11	25249.92
449.316	25159.81
449.522	25372.8
449.728	25944.18
449.935	26398.83
450.141	26253.42
450.347	26937.44
450.553	25944.18
450.76	26302.57
450.966	27488.35
451.172	26867.81
451.378	27484.25
451.584	27002.98
451.791	27658.33
451.997	27977.81
452.203	28033.11
452.409	27947.09
452.615	27846.74
452.821	27078.75
453.027	26845.29
453.233	27891.8
453.44	27002.98
453.646	26912.87
453.852	27134.05
454.058	27672.67
454.264	26869.86
454.47	27379.81
454.676	26992.74
454.882	27654.23
455.088	25155.71
455.294	25886.84
455.5	26271.86
455.705	26433.64
455.911	25438.33
456.117	24623.24
456.323	24223.89
456.529	23124.13
456.735	24240.27
456.941	23642.26
457.147	23347.36
457.352	22450.35
457.558	22266.03
457.764	22337.71
457.97	21713.08
458.176	20992.19
458.381	21278.91
458.587	20099.28
458.793	20449.48
458.999	18987.23
459.204	20633.8
459.41	20062.41
459.616	18821.34
459.821	18735.33
460.027	18770.15
460.233	18170.09
460.438	17137.91
460.644	17611
460.85	16945.41
461.055	16541.96
461.261	16453.89
461.466	15085.85
461.672	14784.8
461.878	15776.02
462.083	14760.22
462.289	14489.89
462.494	14725.41
462.7	13570.35
462.905	13492.53
463.111	13740.33
463.316	13926.7
463.522	13680.94
463.727	13576.5
463.932	13541.68
464.138	13357.36
464.343	13369.65
464.549	13064.5
464.754	13740.33
464.959	13400.37
465.165	13447.47
465.37	12638.53
465.575	12462.4
465.781	12927.29
465.986	13203.77
466.191	12439.87
466.397	12357.96
466.602	11811.15
466.807	12419.39
467.012	12347.72
467.218	11915.59
467.423	11989.32
467.628	11841.87
467.833	12484.93
468.038	11903.31
468.244	11901.26
468.449	12101.96
468.654	11768.14
468.859	11518.29
469.064	11581.78
469.269	11059.54
469.474	11163.99
469.679	11309.4
469.885	11098.45
470.09	11401.55
470.295	11075.93
470.5	10920.28
470.705	10953.05
470.91	10662.24
471.115	10654.05
471.32	10979.67
471.525	10778.97
471.73	10600.8
471.935	10527.07
472.139	9955.69
472.344	10074.47
472.549	10070.37
472.754	10078.57
472.959	9671.02
473.164	9830.76
473.369	9517.42
473.574	9738.6
473.778	9703.79
473.983	9681.26
474.188	9511.28
474.393	9118.07
474.598	9318.77
474.802	8835.45
475.007	9306.48
475.212	9068.92
475.417	8626.56
475.621	8796.54
475.826	8798.59
476.031	8634.75
476.235	8638.84
476.44	8567.17
476.645	8647.04
476.849	8257.92
477.054	8354.18
477.259	8149.38
477.463	8049.03
477.668	7979.4
477.872	8010.12
478.077	7770.51
478.282	7629.2
478.486	7506.32
478.691	7653.77
478.895	7649.68
479.1	7559.56
479.304	7573.9
479.509	7272.85
479.713	7487.89
479.918	7256.47
480.122	7182.74
480.326	7287.18
480.531	7238.03
480.735	7377.3
480.94	7190.93
481.144	7430.54
481.348	7014.8
481.553	7166.35
481.757	6846.87
481.961	7043.48
482.166	7244.18
482.37	7141.78
482.574	6859.16
482.778	6863.26
482.983	7176.59
483.187	7102.87
483.391	7076.24
483.595	6975.89
483.8	6896.02
484.004	7166.35
484.208	7016.85
484.412	7049.62
484.616	7123.35
484.821	6992.28
485.025	6820.25
485.229	6977.94
485.433	7199.12
485.637	6998.42
485.841	6988.18
486.045	6822.3
486.249	6998.42
486.453	6900.12
486.657	6984.09
486.861	7309.71
487.065	6789.53
487.269	6928.79
487.473	6891.93
487.677	7080.34
487.881	7190.93
488.085	7135.64
488.289	6982.04
488.493	6918.55
488.697	7164.31
488.901	7137.68
489.105	7145.87
489.309	7051.67
489.512	7066
489.716	7250.32
489.92	7027.09
490.124	6975.89
490.328	7295.38
490.531	7059.86
490.735	7229.84
490.939	7098.77
491.143	7254.42
491.346	7229.84
491.55	7311.76
491.754	7235.99
491.958	7348.62
492.161	7088.53
492.365	7365.01
492.569	7328.14
492.772	7322
492.976	7365.01
493.18	7453.07
493.383	7582.09
493.587	7508.37
493.79	7639.44
493.994	7567.76
494.197	7717.26
494.401	7889.29
494.605	7788.94
494.808	7776.65
495.012	7776.65
495.215	7883.14
495.419	7948.68
495.622	7942.53
495.825	8257.92
496.029	8237.44
496.232	8399.23
496.436	8126.85
496.639	8477.05
496.843	8225.15
497.046	8606.08
497.249	8771.96
497.453	8718.71
497.656	8673.66
497.859	8671.61
498.063	8841.59
498.266	9140.6
498.469	9001.33
498.673	9417.07
498.876	9159.03
499.079	9365.87
499.282	9531.76
499.485	9546.09
499.689	9595.25
499.892	9820.52
500.095	9783.66
500.298	10035.56
500.501	10097
500.705	10236.26
500.908	10121.57
501.111	10332.51
501.314	10578.27
501.517	10615.13
501.72	10443.1
501.923	10785.12
502.126	11163.99
502.329	10973.53
502.532	11225.43
502.735	11276.63
502.938	11342.16
503.141	11571.54
503.344	11790.67
503.547	11649.36
503.75	11872.59
503.953	11948.36
504.156	12249.41
504.359	12220.74
504.562	12304.71
504.765	12482.88
504.968	12693.82
505.17	12890.43
505.373	12708.16
505.576	13095.22
505.779	12994.87
505.982	13347.12
506.185	13543.73
506.387	13320.5
506.59	13553.97
506.793	13822.25
506.996	13910.32
507.198	14225.7
507.401	14174.5
507.604	14328.1
507.807	14586.15
508.009	14635.3
508.212	14674.21
508.415	14946.59
508.617	14967.07
508.82	15229.21
509.022	15096.09
509.225	15501.59
509.428	15659.28
509.63	15896.85
509.833	15819.02
510.035	16193.8
510.238	15927.56
510.44	16627.97
510.643	16400.65
510.845	16781.57
511.048	16501
511.25	16759.04
511.453	17127.67
511.655	17623.28
511.858	17127.67
512.06	17645.81
512.262	18020.59
512.465	17813.74
512.667	17961.2
512.87	18215.15
513.072	18249.96
513.274	18516.2
513.477	18751.71
513.679	18915.55
513.881	18987.23
514.084	19312.86
514.286	19392.73
514.488	19486.93
514.69	19685.59
514.893	20021.45
515.095	19978.45
515.297	20013.26
515.499	20017.36
515.701	20377.8
515.904	20504.78
516.106	20363.47
516.308	20945.09
516.51	21113.02
516.712	20996.29
516.914	21629.11
517.116	21510.33
517.318	21489.85
517.52	21592.25
517.722	21764.28
517.925	21958.83
518.127	22366.38
518.329	22483.11
518.531	22530.22
518.733	22661.29
518.935	23046.3
519.136	22884.51
519.338	23373.98
519.54	23531.67
519.742	23490.71
519.944	24176.78
520.146	24109.2
520.348	24141.97
520.55	24107.15
520.752	24049.81
520.954	25092.23
521.155	24666.25
521.357	25237.63
521.559	25268.35
521.761	25600.12
521.963	25581.69
522.164	25301.12
522.366	25729.14
522.568	26030.19
522.77	26114.16
522.971	26439.79
523.173	26503.28
523.375	26736.74
523.576	26462.32
523.778	26200.18
523.98	27177.06
524.181	26837.09
524.383	27002.98
524.584	27349.09
524.786	27418.72
524.988	26898.53
525.189	27299.94
525.391	27549.79
525.592	27517.02
525.794	28403.79
525.995	28035.16
526.197	28084.31
526.398	28272.72
526.6	28477.52
526.801	28354.64
527.003	28797
527.204	28684.36
527.406	28872.78
527.607	28825.67
527.808	28944.45
528.01	28543.05
528.211	29122.63
528.412	29415.49
528.614	29452.35
528.815	29648.96
529.016	29491.26
529.218	29358.14
529.419	29497.41
529.62	29720.63
529.822	29411.39
530.023	29734.97
530.224	29845.56
530.425	29677.63
530.626	29556.8
530.828	29519.93
531.029	30349.36
531.23	29802.55
531.431	29868.09
531.632	30103.6
531.833	30109.75
532.035	30095.41
532.236	30269.49
532.437	30218.29
532.638	30154.8
532.839	30443.57
533.04	30439.47
533.241	30023.73
533.442	30728.24
533.643	30443.57
533.844	30351.41
534.045	30455.86
534.246	30150.71
534.447	30736.43
534.648	30058.55
534.849	30332.98
535.05	30210.1
535.251	30554.16
535.451	30085.17
535.652	30197.81
535.853	30380.08
536.054	30670.89
536.255	30418.99
536.456	30414.9
536.657	31098.92
536.857	30406.7
537.058	30406.7
537.259	30715.95
537.46	30861.35
537.66	30019.64
537.861	30502.96
538.062	30228.53
538.263	30709.8
538.463	30652.46
538.664	30457.9
538.865	30543.92
539.065	30509.1
539.266	30134.32
539.466	30742.57
539.667	30091.32
539.868	30560.3
540.068	30285.87
540.269	30521.39
540.469	30666.8
540.67	30562.35
540.87	30367.79
541.071	30259.25
541.271	30910.5
541.472	30515.25
541.672	30079.03
541.873	30345.26
542.073	29966.39
542.274	30433.33
542.474	30195.76
542.675	30324.79
542.875	30550.06
543.075	30146.61
543.276	29890.62
543.476	30640.17
543.676	30361.65
543.877	30693.42
544.077	29782.07
544.277	30283.83
544.478	30294.07
544.678	30576.69
544.878	30658.6
545.078	30371.89
545.279	30435.38
545.479	30257.2
545.679	30570.54
545.879	30246.96
546.079	30013.49
546.28	29990.97
546.48	30148.66
546.68	30232.63
546.88	30390.32
547.08	30003.25
547.28	30111.8
547.48	29745.21
547.68	30083.12
547.88	30384.18
548.081	30179.38
548.281	30285.87
548.481	30312.5
548.681	30396.46
548.881	29739.07
549.081	30097.46
549.28	30029.88
549.48	29925.43
549.68	30126.13
549.88	30570.54
550.08	30046.26
550.28	30042.17
550.48	29947.96
550.68	30439.47
550.88	30066.74
551.08	29890.62
551.279	30154.8
551.479	29653.05
551.679	30095.41
551.879	29818.94
552.079	30171.19
552.278	29548.61
552.478	29808.7
552.678	30107.7
552.878	29990.97
553.077	29677.63
553.277	29378.62
553.477	29968.44
553.676	29866.04
553.876	29790.27
554.076	29577.28
554.275	29708.35
554.475	29460.54
554.674	29816.89
554.874	29624.38
555.074	29134.92
555.273	29589.56
555.473	30013.49
555.672	29669.44
555.872	29259.84
556.071	29741.11
556.271	29790.27
556.47	29491.26
556.67	28948.55
556.869	29169.73
557.068	29554.75
557.268	29175.87
557.467	29308.99
557.667	28944.45
557.866	29474.88
558.065	28893.26
558.265	29239.36
558.464	29139.01
558.663	29530.17
558.863	29050.95
559.062	29341.76
559.261	28811.34
559.461	29268.03
559.66	28659.79
559.859	29042.76
560.058	28502.09
560.258	28735.56
560.457	28368.98
560.656	28778.57
560.855	28551.24
561.054	28604.49
561.253	28401.74
561.453	28788.81
561.652	28667.98
561.851	28768.33
562.05	28190.8
562.249	28440.65
562.448	28549.2
562.647	28563.53
562.846	28373.07
563.045	28444.75
563.244	28217.43
563.443	28682.31
563.642	27754.58
563.841	28029.01
564.04	27758.68
564.239	28057.68
564.438	27572.32
564.637	27926.61
564.836	27725.91
565.035	27598.94
565.234	27701.34
565.432	27580.51
565.631	27496.54
565.83	27586.65
566.029	27478.11
566.228	27416.67
566.427	27377.76
566.625	27197.54
566.824	26830.95
567.023	27416.67
567.222	27009.12
567.42	27285.6
567.619	27261.02
567.818	26732.65
568.016	26941.54
568.215	26857.57
568.414	27113.57
568.612	26851.43
568.811	26845.29
569.01	26865.77
569.208	26556.52
569.407	26833
569.605	26421.36
569.804	26816.61
570.002	26374.25
570.201	26787.94
570.4	26138.74
570.598	26296.43
570.797	26130.55
570.995	26099.83
571.193	25940.08
571.392	26216.56
571.59	26175.6
571.789	26298.48
571.987	26126.45
572.186	25698.42
572.384	25604.22
572.582	25897.08
572.781	25612.41
572.979	25454.72
573.177	25475.2
573.376	25727.1
573.574	25374.84
573.772	25397.37
573.971	25385.08
574.169	25354.37
574.367	24961.16
574.565	25307.26
574.763	25303.17
574.962	24744.07
575.16	24838.28
575.358	24924.29
575.556	24502.41
575.754	25100.42
575.952	24623.24
576.151	25145.47
576.349	24424.59
576.547	24473.74
576.745	24483.98
576.943	24623.24
577.141	24369.29
577.339	24391.82
577.537	24369.29
577.735	23871.64
577.933	23984.27
578.131	24154.26
578.329	23885.97
578.527	23746.71
578.725	23849.11
578.923	24051.86
579.121	24090.77
579.319	23859.35
579.516	23912.6
579.714	23597.21
579.912	23566.49
580.11	23828.63
580.308	23595.16
580.506	23566.49
580.704	23060.64
580.901	23269.53
581.099	23208.09
581.297	23298.2
581.495	23279.77
581.692	23431.32
581.89	23023.78
582.088	22890.66
582.285	23056.54
582.483	23216.29
582.681	22855.84
582.878	22962.34
583.076	22526.12
583.274	22966.43
583.471	22499.5
583.669	22714.53
583.866	22421.67
584.064	22427.82
584.262	22243.5
584.459	22507.69
584.657	22251.69
584.854	22552.74
585.052	22161.58
585.249	22169.77
585.447	22202.54
585.644	21745.84
585.841	22255.79
586.039	22108.33
586.236	21856.43
586.434	21743.8
586.631	21723.32
586.828	21676.21
587.026	21827.76
587.223	21659.83
587.42	21430.46
587.618	21590.2
587.815	21506.23
588.012	21450.94
588.21	21283
588.407	21489.85
588.604	21131.45
588.801	20793.54
588.999	21225.66
589.196	21110.97
589.393	21043.39
589.59	20646.08
589.787	20869.31
589.984	20797.63
590.182	20719.81
590.379	20705.48
590.576	20838.59
590.773	20598.98
590.97	20674.76
591.167	20439.24
591.364	19988.69
591.561	20639.94
591.758	20242.64
591.955	20474.06
592.152	20367.56
592.349	20216.01
592.546	20043.98
592.743	20302.03
592.94	19890.38
593.137	20011.21
593.334	19601.62
593.531	19380.44
593.727	20064.46
593.924	19560.66
594.121	19792.08
594.318	19773.65
594.515	19271.9
594.712	19910.86
594.908	19462.36
595.105	19525.85
595.302	19171.55
595.499	19405.02
595.696	19255.51
595.892	18843.87
596.089	19241.18
596.286	19112.16
596.482	19009.76
596.679	19001.57
596.876	18960.61
597.072	18911.46
597.269	19017.95
597.466	18780.39
597.662	18579.68
597.859	18587.88
598.055	18780.39
598.252	18561.25
598.448	18542.82
598.645	18182.38
598.841	18288.87
599.038	18116.84
599.234	18213.1
599.431	18180.33
599.627	18209
599.824	18329.83
600.02	17692.91
600.217	17948.91
600.413	17758.45
600.609	17950.96
600.806	17789.17
601.002	17658.1
601.198	17783.02
601.395	17565.94
601.591	17543.41
601.787	17475.83
601.984	17527.03
602.18	17510.64
602.376	17469.69
602.572	17436.92
602.769	17228.03
602.965	17320.18
603.161	17000.7
603.357	17156.35
603.553	17205.5
603.75	16847.1
603.946	16920.83
604.142	17000.7
604.338	16894.21
604.534	17019.13
604.73	17006.84
604.926	16619.78
605.122	16642.31
605.318	16533.76
605.514	16527.62
605.71	16738.56
605.906	16472.32
606.102	16513.28
606.298	16546.05
606.494	16435.46
606.69	16505.09
606.886	16488.71
607.082	16103.69
607.278	16365.83
607.474	16079.11
607.67	16208.14
607.866	16197.9
608.062	16167.18
608.257	15839.5
608.453	16062.73
608.649	16077.07
608.845	15999.24
609.041	15776.02
609.236	15819.02
609.432	15816.97
609.628	15696.14
609.824	15757.58
610.019	15720.72
610.215	15927.56
610.411	15870.22
610.606	15814.93
610.802	15589.65
610.998	15593.75
611.193	15366.42
611.389	15595.79
611.584	15524.12
611.78	15356.18
611.976	15421.72
612.171	15577.36
612.367	15479.06
612.562	15378.71
612.758	15268.12
612.953	15200.54
613.149	15268.12
613.344	15094.04
613.539	15571.22
613.735	15108.38
613.93	15399.19
614.126	15067.42
614.321	15014.17
614.517	15149.34
614.712	15102.23
614.907	15069.47
615.103	15151.38
615.298	14782.75
615.493	15106.33
615.688	14825.76
615.884	15057.18
616.079	14919.96
616.274	14883.1
616.47	14772.51
616.665	14727.46
616.86	14696.74
617.055	14733.6
617.25	14455.08
617.445	14547.23
617.641	14573.86
617.836	14369.06
618.031	14315.81
618.226	14641.44
618.421	14174.5
618.616	14469.41
618.811	14242.09
619.006	14156.07
619.201	14340.39
619.396	14217.51
619.591	13908.27
619.786	14016.81
619.981	14061.87
620.176	13893.93
620.371	13814.06
620.566	13988.14
620.761	13715.76
620.956	13961.51
621.151	13670.7
621.346	13873.45
621.541	13658.42
621.735	13693.23
621.93	13570.35
622.125	13406.52
622.32	13171
622.515	13158.71
622.709	13320.5
622.904	12908.86
623.099	13029.69
623.294	13082.94
623.488	12966.2
623.683	12872
623.878	12882.24
624.072	12638.53
624.267	12851.52
624.462	12511.55
624.656	12327.24
624.851	12362.05
625.046	12476.74
625.24	12378.44
625.435	12243.27
625.629	12042.57
625.824	12228.93
626.018	11979.08
626.213	11872.59
626.407	12046.66
626.602	11936.07
626.796	11868.49
626.991	11780.43
627.185	11618.64
627.38	11776.33
627.574	11612.49
627.768	11501.9
627.963	11598.16
628.157	11270.48
628.352	11358.55
628.546	11379.03
628.74	11403.6
628.935	11020.63
629.129	11120.98
629.323	11004.25
629.517	11049.3
629.712	10719.58
629.906	10836.31
630.1	10703.2
630.294	10750.3
630.489	10772.83
630.683	10729.82
630.877	10543.46
631.071	10584.41
631.265	10551.65
631.459	10586.46
631.653	10195.3
631.848	10221.92
632.042	10365.28
632.236	10367.33
632.43	10207.59
632.624	10318.18
632.818	10180.96
633.012	9841
633.206	9849.19
633.4	10088.81
633.594	9802.09
633.788	9933.16
633.982	9963.88
634.176	9679.21
634.369	9562.48
634.563	9552.24
634.757	9546.09
634.951	9654.64
635.145	9341.3
635.339	9462.13
635.533	9390.45
635.726	9460.08
635.92	9030.01
636.114	9410.93
636.308	9161.08
636.501	8903.03
636.695	9275.76
636.889	9038.2
637.083	8962.42
637.276	8939.9
637.47	8860.02
637.664	8843.64
637.857	9007.48
638.051	8829.31
638.244	8765.82
638.438	8636.8
638.632	8563.07
638.825	8532.35
639.019	8624.51
639.212	8558.97
639.406	8393.09
639.599	8370.56
639.793	8378.75
639.986	8323.46
640.18	8376.7
640.373	8251.78
640.567	8214.91
640.76	8225.15
640.954	8051.08
641.147	8014.21
641.34	8157.57
641.534	7889.29
641.727	8032.65
641.92	7954.82
642.114	7778.7
642.307	7866.76
642.5	7704.97
642.694	7754.12
642.887	7565.71
643.08	7621
643.273	7672.2
643.467	7573.9
643.66	7498.13
643.853	7414.16
644.046	7375.25
644.239	7420.3
644.432	7301.52
644.626	7352.72
644.819	7332.24
645.012	7360.91
645.205	7379.34
645.398	7180.69
645.591	7172.5
645.784	7049.62
645.977	7158.16
646.17	7278.99
646.363	6977.94
646.556	6777.24
646.749	6984.09
646.942	6955.41
647.135	6967.7
647.328	6875.54
647.521	6728.09
647.714	6832.54
647.907	6709.66
648.099	6775.19
648.292	6740.38
648.485	6760.86
648.678	6756.76
648.871	6547.87
649.064	6500.76
649.256	6730.14
649.449	6603.16
649.642	6492.57
649.835	6545.82
650.027	6332.83
650.22	6402.46
650.413	6285.73
650.605	6244.77
650.798	6197.67
650.991	6330.78
651.183	6201.76
651.376	6240.67
651.568	6216.1
651.761	6085.03
651.954	5972.39
652.146	6031.78
652.339	6111.65
652.531	6062.5
652.724	5986.72
652.916	5968.29
653.109	5913
653.301	5882.28
653.494	5890.47
653.686	5759.4
653.879	5927.33
654.071	5732.78
654.263	5595.56
654.456	5648.81
654.648	5708.2
654.84	5675.43
655.033	5575.08
655.225	5456.3
655.417	5657
655.61	5616.04
655.802	5564.84
655.994	5511.6
656.186	5392.81
656.379	5441.96
656.571	5364.14
656.763	5355.95
656.955	5261.74
657.148	5380.53
657.34	5081.52
657.532	5167.54
657.724	5317.04
657.916	5216.69
658.108	5142.96
658.3	5177.78
658.492	5034.42
658.684	5018.04
658.876	5185.97
659.068	5159.35
659.26	5071.28
659.452	5034.42
659.644	5005.75
659.836	5054.9
660.028	4993.46
660.22	4940.21
660.412	4880.82
660.604	4856.25
660.796	4950.45
660.988	4899.25
661.18	4770.23
661.372	4733.37
661.563	4780.47
661.755	4882.87
661.947	4710.84
662.139	4690.36
662.331	4628.92
662.522	4596.15
662.714	4665.78
662.906	4626.87
663.097	4485.56
663.289	4645.31
663.481	4565.43
663.673	4514.24
663.864	4374.97
664.056	4493.76
664.247	4395.45
664.439	4368.83
664.631	4329.92
664.822	4446.65
665.014	4344.25
665.205	4360.64
665.397	4186.56
665.588	4377.02
665.78	4200.9
665.971	4161.98
666.163	4174.27
666.354	4051.39
666.546	4237.76
666.737	4067.78
666.929	4098.5
667.12	4096.45
667.311	3924.42
667.503	4168.13
667.694	4047.3
667.885	4055.49
668.077	4086.21
668.268	4002.24
668.459	3965.38
668.651	3969.48
668.842	3924.42
669.033	3932.61
669.224	3887.56
669.416	3867.08
669.607	3926.47
669.798	3865.03
669.989	3928.52
670.18	3797.45
670.371	3846.6
670.563	3774.92
670.754	3817.93
670.945	3862.98
671.136	3762.63
671.327	3746.25
671.518	3803.59
671.709	3772.87
671.9	3830.21
672.091	3701.19
672.282	3754.44
672.473	3695.05
672.664	3613.13
672.855	3615.18
673.046	3672.52
673.237	3647.94
673.428	3830.21
673.619	3682.76
673.809	3688.9
674	3604.94
674.191	3664.33
674.382	3574.22
674.573	3480.01
674.764	3486.15
674.954	3541.45
675.145	3463.63
675.336	3465.68
675.527	3453.39
675.717	3705.29
675.908	3574.22
676.099	3547.59
676.289	3520.97
676.48	3629.51
676.671	3541.45
676.861	3518.92
677.052	3592.65
677.243	3303.89
677.433	3459.53
677.624	3549.64
677.814	3461.58
678.005	3342.8
678.195	3414.48
678.386	3502.54
678.576	3350.99
678.767	3346.89
678.957	3283.41
679.148	3385.8
679.338	3455.44
679.529	3437
679.719	3348.94
679.909	3379.66
680.1	3377.61
680.29	3467.72
680.481	3279.31
680.671	3320.27
680.861	3469.77
681.052	3418.57
681.242	3312.08
681.432	3326.41
681.622	3295.69
681.813	3355.08
682.003	3326.41
682.193	3293.65
682.383	3348.94
682.573	3203.54
682.764	3140.05
682.954	3183.06
683.144	3248.59
683.334	3260.88
683.524	3238.35
683.714	3273.17
683.904	3133.9
684.094	3205.58
684.284	3197.39
684.474	3312.08
684.664	3195.34
684.854	3090.9
685.044	3273.17
685.234	3246.54
685.424	3078.61
685.614	3031.51
685.804	3234.25
685.994	3068.37
686.184	3256.78
686.374	3035.6
686.564	3037.65
686.753	3170.77
686.943	3025.36
687.133	3035.6
687.323	2904.53
687.513	2994.64
687.702	3045.84
687.892	2912.72
688.082	3023.31
688.272	2894.29
688.461	3047.89
688.651	2974.16
688.841	2931.16
689.03	2861.52
689.22	2906.58
689.41	2879.96
689.599	2816.47
689.789	2820.56
689.979	2775.51
690.168	2802.13
690.358	2757.08
690.547	2730.45
690.737	2722.26
690.926	2800.09
691.116	2714.07
691.305	2783.7
691.495	2642.39
691.684	2611.67
691.874	2644.44
692.063	2658.78
692.252	2609.62
692.442	2679.26
692.631	2544.09
692.82	2646.49
693.01	2552.28
693.199	2458.07
693.388	2505.18
693.578	2515.42
693.767	2462.17
693.956	2531.8
694.146	2523.61
694.335	2460.12
694.524	2451.93
694.713	2533.85
694.902	2421.21
695.092	2357.72
695.281	2413.02
695.47	2404.83
695.659	2378.2
695.848	2324.96
696.037	2419.16
696.226	2394.59
696.415	2335.2
696.604	2453.98
696.793	2372.06
696.982	2337.24
697.171	2306.52
697.36	2238.94
697.549	2218.46
697.738	2361.82
697.927	2150.88
698.116	2382.3
698.305	2263.52
698.494	2220.51
698.683	2288.09
698.872	2279.9
699.061	2273.76
699.25	2183.65
699.438	2304.48
699.627	2249.18
699.816	2181.6
700.005	2298.33
700.193	2079.2
700.382	2284
700.571	2173.41
700.76	2259.42
700.948	2214.37
701.137	2179.55
701.326	2181.6
701.514	2124.26
701.703	2195.93
701.892	2142.69
702.08	2120.16
702.269	2240.99
702.457	2146.78
702.646	2251.23
702.834	2175.45
703.023	2101.73
703.212	2136.54
703.4	2240.99
703.589	2042.34
703.777	2245.09
703.965	2095.58
704.154	2138.59
704.342	2150.88
704.531	2177.5
704.719	2165.21
704.907	2079.2
705.096	2079.2
705.284	2173.41
705.472	2224.61
705.661	2148.83
705.849	2212.32
706.037	2175.45
706.226	2066.91
706.414	2228.7
706.602	2097.63
706.79	2154.98
706.979	2048.48
707.167	2087.39
707.355	2120.16
707.543	2118.11
707.731	2181.6
707.919	2017.76
708.107	2116.06
708.296	2142.69
708.484	2093.54
708.672	2167.26
708.86	2140.64
709.048	2165.21
709.236	2181.6
709.424	2173.41
709.612	2163.17
709.8	2122.21
709.988	2118.11
710.176	2122.21
710.364	2044.38
710.551	2068.96
710.739	2050.53
710.927	2169.31
711.115	2011.62
711.303	2103.78
711.491	2187.74
711.679	2212.32
711.866	2228.7
712.054	2097.63
712.242	2224.61
712.43	2224.61
712.617	2052.58
712.805	2259.42
712.993	2175.45
713.181	2101.73
713.368	2163.17
713.556	2269.66
713.744	2216.41
713.931	2294.24
714.119	2197.98
714.306	2238.94
714.494	2159.07
714.682	2208.22
714.869	2091.49
715.057	2202.08
715.244	2152.93
715.432	2157.02
715.619	2240.99
715.807	2300.38
715.994	2261.47
716.182	2263.52
716.369	2167.26
716.556	2288.09
716.744	2150.88
716.931	2220.51
717.119	2302.43
717.306	2286.05
717.493	2197.98
717.681	2263.52
717.868	2189.79
718.055	2232.8
718.242	2152.93
718.43	2400.73
718.617	2284
718.804	2413.02
718.991	2257.37
719.179	2208.22
719.366	2347.48
719.553	2374.11
719.74	2365.92
719.927	2292.19
720.114	2236.89
720.301	2331.1
720.488	2144.74
720.676	2269.66
720.863	2329.05
721.05	2392.54
721.237	2435.55
721.424	2277.85
721.611	2447.83
721.798	2320.86
721.985	2341.34
722.172	2331.1
722.358	2380.25
722.545	2441.69
722.732	2273.76
722.919	2425.31
723.106	2351.58
723.293	2339.29
723.48	2398.68
723.667	2339.29
723.853	2435.55
724.04	2396.64
724.227	2367.96
724.414	2404.83
724.6	2300.38
724.787	2398.68
724.974	2480.6
725.161	2478.55
725.347	2392.54
725.534	2431.45
725.72	2392.54
725.907	2413.02
726.094	2259.42
726.28	2357.72
726.467	2386.4
726.653	2505.18
726.84	2568.66
727.027	2486.75
727.213	2294.24
727.4	2462.17
727.586	2484.7
727.773	2525.66
727.959	2439.64
728.145	2427.35
728.332	2458.07
728.518	2429.4
728.705	2488.79
728.891	2558.42
729.077	2482.65
729.264	2421.21
729.45	2423.26
729.636	2490.84
729.823	2507.23
730.009	2445.79
730.195	2384.35
730.382	2501.08
730.568	2613.72
730.754	2462.17
730.94	2406.88
731.126	2531.8
731.313	2523.61
731.499	2460.12
731.685	2431.45
731.871	2486.75
732.057	2451.93
732.243	2423.26
732.429	2494.94
732.615	2507.23
732.801	2456.03
732.987	2560.47
733.173	2525.66
733.359	2499.03
733.545	2445.79
733.731	2482.65
733.917	2597.34
734.103	2472.41
734.289	2494.94
734.475	2439.64
734.661	2566.62
734.847	2539.99
735.033	2380.25
735.219	2447.83
735.404	2574.81
735.59	2587.1
735.776	2492.89
735.962	2544.09
736.148	2464.22
736.333	2638.3
736.519	2462.17
736.705	2542.04
736.89	2443.74
737.076	2476.51
737.262	2208.22
737.447	2341.34
737.633	2550.23
737.819	2468.31
738.004	2482.65
738.19	2394.59
738.375	2476.51
738.561	2478.55
738.747	2470.36
738.932	2449.88
739.118	2382.3
739.303	2462.17
739.489	2365.92
739.674	2306.52
739.859	2335.2
740.045	2400.73
740.23	2419.16
740.416	2400.73
740.601	2263.52
740.786	2359.77
740.972	2431.45
741.157	2390.49
741.342	2347.48
741.528	2437.59
741.713	2421.21
741.898	2300.38
742.084	2329.05
742.269	2384.35
742.454	2349.53
742.639	2361.82
742.824	2370.01
743.01	2294.24
743.195	2339.29
743.38	2333.15
743.565	2161.12
743.75	2343.39
743.935	2267.61
744.12	2308.57
744.305	2200.03
744.49	2261.47
744.675	2189.79
744.86	2175.45
745.045	2163.17
745.23	2146.78
745.415	2181.6
745.6	2263.52
745.785	2197.98
745.97	2095.58
746.155	2040.29
746.34	2165.21
746.525	2062.82
746.71	2138.59
746.895	2093.54
747.079	2025.95
747.264	2075.1
747.449	2068.96
747.634	2040.29
747.819	2054.62
748.003	1974.75
748.188	2111.97
748.373	1982.95
748.557	2001.38
748.742	2048.48
748.927	2068.96
749.111	2003.43
749.296	1937.89
749.481	2003.43
749.665	1921.51
749.85	1909.22
750.034	1847.78
750.219	1927.65
750.404	1872.36
750.588	1917.41
750.773	1888.74
750.957	1804.77
751.141	1905.12
751.326	1843.68
751.51	1876.45
751.695	1767.91
751.879	1774.05
752.064	1821.16
752.248	1796.58
752.432	1808.87
752.617	1763.81
752.801	1747.43
752.985	1749.48
753.17	1737.19
753.354	1653.22
753.538	1782.24
753.722	1620.46
753.907	1698.28
754.091	1606.12
754.275	1663.46
754.459	1597.93
754.643	1651.17
754.828	1786.34
755.012	1593.83
755.196	1536.49
755.38	1556.97
755.564	1540.58
755.748	1499.63
755.932	1556.97
756.116	1532.39
756.3	1532.39
756.484	1538.54
756.668	1448.43
756.852	1434.09
757.036	1413.61
757.22	1448.43
757.404	1487.34
757.588	1376.75
757.772	1485.29
757.956	1417.71
758.14	1413.61
758.323	1409.51
758.507	1417.71
758.691	1370.6
758.875	1343.98
759.059	1401.32
759.242	1303.02
759.426	1397.23
759.61	1341.93
759.794	1339.88
759.977	1262.06
760.161	1364.46
760.345	1337.84
760.528	1225.2
760.712	1321.45
760.895	1251.82
761.079	1198.57
761.263	1200.62
761.446	1208.81
761.63	1147.37
761.813	1157.61
761.997	1237.49
762.18	1180.14
762.364	1196.53
762.547	1227.25
762.731	1208.81
762.914	1247.72
763.098	1208.81
763.281	1190.38
763.464	1159.66
763.648	1180.14
763.831	1184.24
764.015	1204.72
764.198	1212.91
764.381	1096.18
764.564	1190.38
764.748	1245.68
764.931	1143.28
765.114	1290.73
765.297	1135.09
765.481	1100.27
765.664	1044.98
765.847	1182.19
766.03	1245.68
766.213	1036.78
766.397	1130.99
766.58	1112.56
766.763	1116.65
766.946	1026.54
767.129	1008.11
767.312	958.96
767.495	991.73
767.678	995.82
767.861	987.63
768.044	1057.26
768.227	1061.36
768.41	1063.41
768.593	1130.99
768.776	1110.51
768.959	1032.69
769.142	1065.46
769.324	977.39
769.507	1057.26
769.69	1049.07
769.873	1001.97
770.056	1030.64
770.239	1036.78
770.421	1071.6
770.604	975.35
770.787	926.19
770.97	944.63
771.152	965.11
771.335	903.67
771.518	991.73
771.7	936.43
771.883	942.58
772.066	932.34
772.248	999.92
772.431	901.62
772.613	958.96
772.796	940.53
772.978	858.61
773.161	922.1
773.343	754.16
773.526	780.79
773.708	784.88
773.891	909.81
774.073	801.27
774.256	762.36
774.438	922.1
774.621	817.65
774.803	918
774.985	766.45
775.168	879.09
775.35	856.56
775.532	936.43
775.715	799.22
775.897	797.17
776.079	795.12
776.261	799.22
776.444	776.69
776.626	809.46
776.808	690.68
776.99	795.12
777.173	768.5
777.355	797.17
777.537	678.39
777.719	756.21
777.901	741.88
778.083	733.68
778.265	754.16
778.447	711.16
778.629	727.54
778.811	700.92
778.993	684.53
779.175	772.6
779.357	678.39
779.539	637.43
779.721	614.9
779.903	713.21
780.085	631.29
780.267	637.43
780.449	698.87
780.631	678.39
780.812	717.3
780.994	582.14
781.176	709.11
781.358	692.73
781.54	530.94
781.721	578.04
781.903	596.47
782.085	674.29
782.267	584.18
782.448	590.33
782.63	580.09
782.812	580.09
782.993	545.27
783.175	596.47
783.357	602.61
783.538	539.13
783.72	592.37
783.901	547.32
784.083	551.42
784.264	541.18
784.446	483.83
784.627	522.74
784.809	496.12
784.99	455.16
785.172	473.59
785.353	489.98
785.535	526.84
785.716	487.93
785.897	475.64
786.079	557.56
786.26	528.89
786.441	596.47
786.623	487.93
786.804	496.12
786.985	530.94
787.167	457.21
787.348	440.83
787.529	512.5
787.71	453.11
787.891	430.59
788.073	473.59
788.254	467.45
788.435	442.87
788.616	381.43
788.797	393.72
788.978	479.74
789.159	463.35
789.34	369.15
789.522	385.53
789.703	391.67
789.884	420.35
790.065	418.3
790.246	434.68
790.427	352.76
790.607	477.69
790.788	403.96
790.969	418.3
791.15	487.93
791.331	369.15
791.512	395.77
791.693	320
791.874	403.96
792.054	363
792.235	381.43
792.416	371.19
792.597	391.67
792.778	401.91
792.958	354.81
793.139	367.1
793.32	377.34
793.5	356.86
793.681	336.38
793.862	379.39
794.042	291.32
794.223	313.85
794.404	348.67
794.584	373.24
794.765	336.38
794.945	344.57
795.126	229.88
795.306	391.67
795.487	299.52
795.667	389.63
795.848	385.53
796.028	371.19
796.209	309.76
796.389	340.47
796.57	287.23
796.75	272.89
796.93	309.76
797.111	299.52
797.291	287.23
797.471	340.47
797.652	338.43
797.832	250.36
798.012	328.19
798.192	231.93
798.373	260.6
798.553	283.13
798.733	285.18
798.913	311.8
799.093	383.48
799.274	299.52
799.454	281.08
799.634	369.15
799.814	274.94
799.994	283.13
800.174	270.84
800.354	307.71
800.534	270.84
800.714	311.8
800.894	291.32
801.074	266.75
801.254	320
801.434	326.14
801.614	281.08
801.794	238.08
801.974	670.2
802.154	256.51
802.334	229.88
802.514	281.08
802.693	305.66
802.873	221.69
803.053	281.08
803.233	236.03
803.413	283.13
803.592	190.97
803.772	225.79
803.952	303.61
804.131	248.32
804.311	299.52
804.491	283.13
804.67	199.16
804.85	199.16
805.03	203.26
805.209	256.51
805.389	246.27
805.568	240.12
805.748	240.12
805.928	201.21
806.107	203.26
806.287	180.73
806.466	205.31
806.646	201.21
806.825	162.3
807.004	199.16
807.184	256.51
807.363	201.21
807.543	207.36
807.722	184.83
807.901	190.97
808.081	274.94
808.26	195.07
808.439	227.84
808.619	223.74
808.798	150.01
808.977	209.4
809.156	242.17
809.336	178.69
809.515	178.69
809.694	221.69
809.873	127.49
810.052	190.97
810.231	305.66
810.411	166.4
810.59	233.98
810.769	178.69
810.948	147.97
811.127	147.97
811.306	209.4
811.485	182.78
811.664	209.4
811.843	209.4
812.022	137.73
812.201	199.16
812.38	168.45
812.559	160.25
812.737	233.98
812.916	227.84
813.095	125.44
813.274	172.54
813.453	190.97
813.632	127.49
813.811	250.36
813.989	166.4
814.168	223.74
814.347	176.64
814.526	180.73
814.704	143.87
814.883	176.64
815.062	160.25
815.24	125.44
815.419	186.88
815.598	111.1
815.776	61.95
815.955	209.4
816.133	190.97
816.312	168.45
816.49	123.39
816.669	129.53
816.847	174.59
817.026	137.73
817.204	184.83
817.383	92.67
817.561	141.82
817.74	150.01
817.918	152.06
818.097	172.54
818.275	221.69
818.453	107.01
818.632	178.69
818.81	164.35
818.988	147.97
819.167	184.83
819.345	152.06
819.523	129.53
819.701	199.16
819.879	207.36
820.058	143.87
820.236	135.68
820.414	166.4
820.592	225.79
820.77	102.91
820.948	135.68
821.127	135.68
821.305	156.16
821.483	104.96
821.661	111.1
821.839	190.97
822.017	98.81
822.195	33.28
822.373	109.05
822.551	164.35
822.729	160.25
822.907	166.4
823.085	168.45
823.262	147.97
823.44	88.57
823.618	199.16
823.796	107.01
823.974	72.19
824.152	104.96
824.329	133.63
824.507	107.01
824.685	102.91
824.863	182.78
825.04	135.68
825.218	184.83
825.396	109.05
825.574	135.68
825.751	121.34
825.929	150.01
826.107	158.21
826.284	115.2
826.462	152.06
826.639	137.73
826.817	133.63
826.994	86.53
827.172	119.29
827.349	127.49
827.527	152.06
827.704	59.9
827.882	113.15
828.059	51.71
828.237	168.45
828.414	125.44
828.591	119.29
828.769	182.78
828.946	127.49
829.124	164.35
829.301	92.67
829.478	68.09
829.655	117.25
829.833	90.62
830.01	86.53
830.187	78.33
830.364	109.05
830.542	102.91
830.719	80.38
830.896	102.91
831.073	82.43
831.25	184.83
831.427	82.43
831.604	170.49
831.782	104.96
831.959	117.25
832.136	45.57
832.313	8.7
832.49	55.81
832.667	49.66
832.844	78.33
833.021	150.01
833.198	102.91
833.374	119.29
833.551	57.86
833.728	111.1
833.905	53.76
834.082	131.58
834.259	84.48
834.436	51.71
834.612	70.14
834.789	131.58
834.966	57.86
835.143	76.29
835.319	68.09
835.496	90.62
835.673	70.14
835.85	61.95
836.026	143.87
836.203	162.3
836.38	94.72
836.556	70.14
836.733	102.91
836.909	102.91
837.086	96.77
837.262	117.25
837.439	33.28
837.616	70.14
837.792	49.66
837.968	100.86
838.145	18.94
838.321	160.25
838.498	31.23
838.674	78.33
838.851	51.71
839.027	86.53
839.203	43.52
839.38	70.14
839.556	119.29
839.732	51.71
839.909	39.42
840.085	55.81
840.261	-44.54
840.437	70.14
840.614	94.72
840.79	61.95
840.966	104.96
841.142	53.76
841.318	139.77
841.494	90.62
841.671	94.72
841.847	8.7
842.023	84.48
842.199	23.04
842.375	53.76
842.551	2.56
842.727	29.18
842.903	113.15
843.079	-1.54
843.255	102.91
843.431	68.09
843.607	-11.78
843.783	64
843.959	64
844.134	-38.4
844.31	37.38
844.486	37.38
844.662	74.24
844.838	96.77
845.013	45.57
845.189	35.33
845.365	92.67
845.541	53.76
845.716	35.33
845.892	135.68
846.068	70.14
846.244	88.57
846.419	49.66
846.595	35.33
846.77	90.62
846.946	76.29
847.122	45.57
847.297	12.8
847.473	68.09
847.648	25.09
847.824	0.51
847.999	12.8
848.175	-13.82
848.35	84.48
848.526	64
848.701	72.19
848.876	31.23
849.052	133.63
849.227	82.43
849.403	33.28
849.578	133.63
849.753	47.62
849.929	74.24
850.104	47.62
850.279	45.57
850.454	117.25
850.63	76.29
850.805	100.86
850.98	-1.54
851.155	76.29
851.33	55.81
851.505	66.05
851.681	8.7
851.856	33.28
852.031	47.62
852.206	35.33
852.381	51.71
852.556	39.42
852.731	20.99
852.906	100.86
853.081	111.1
853.256	66.05
853.431	94.72
853.606	64
853.781	33.28
853.956	18.94
854.131	31.23
854.305	27.14
854.48	33.28
854.655	10.75
854.83	23.04
855.005	102.91
855.18	37.38
855.354	-7.68
855.529	37.38
855.704	102.91
855.879	41.47
856.053	-36.35
856.228	-11.78
856.403	80.38
856.577	88.57
856.752	14.85
856.926	43.52
857.101	45.57
857.276	78.33
857.45	72.19
857.625	98.81
857.799	82.43
857.974	10.75
858.148	8.7
858.323	53.76
858.497	82.43
858.672	53.76
858.846	0.51
859.02	12.8
859.195	-17.92
859.369	61.95
859.543	123.39
859.718	45.57
859.892	47.62
860.066	59.9
860.241	59.9
860.415	-17.92
860.589	-38.4
860.763	70.14
860.938	104.96
861.112	80.38
861.286	12.8
861.46	-26.11
861.634	16.9
861.808	66.05
861.982	111.1
862.157	-36.35
862.331	76.29
862.505	23.04
862.679	4.61
862.853	39.42
863.027	96.77
863.201	74.24
863.375	41.47
863.549	20.99
863.722	35.33
863.896	135.68
864.07	0.51
864.244	23.04
864.418	61.95
864.592	57.86
864.766	4.61
864.939	-1.54
865.113	53.76
865.287	18.94
865.461	72.19
865.634	33.28
865.808	6.66
865.982	-69.12
866.156	70.14
866.329	51.71
866.503	41.47
866.676	8.7
866.85	31.23
867.024	61.95
867.197	-46.59
867.371	78.33
867.544	10.75
867.718	-26.11
867.891	80.38
868.065	55.81
868.238	49.66
868.412	18.94
868.585	18.94
868.759	-15.87
868.932	10.75
869.105	10.75
869.279	14.85
869.452	-11.78
869.625	35.33
869.799	74.24
869.972	23.04
870.145	86.53
870.319	18.94
870.492	-69.12
870.665	-7.68
870.838	49.66
871.011	70.14
871.185	35.33
871.358	10.75
871.531	70.14
871.704	0.51
871.877	80.38
872.05	100.86
872.223	76.29
872.396	53.76
872.569	41.47
872.742	37.38
872.915	84.48
873.088	66.05
873.261	-11.78
873.434	-32.26
873.607	33.28
873.78	66.05
873.953	8.7
874.126	4.61
874.299	16.9
874.471	-5.63
874.644	10.75
874.817	23.04
874.99	49.66
875.163	20.99
875.335	8.7
875.508	59.9
875.681	98.81
875.853	45.57
876.026	57.86
876.199	86.53
876.371	92.67
876.544	-46.59
876.717	-32.26
876.889	59.9
877.062	64
877.234	49.66
877.407	2.56
877.579	37.38
877.752	-3.58
877.924	-3.58
878.097	31.23
878.269	104.96
878.442	53.76
878.614	33.28
878.786	96.77
878.959	16.9
879.131	61.95
879.303	-105.98
879.476	18.94
879.648	76.29
879.82	78.33
879.993	0.51
880.165	12.8
880.337	-26.11
880.509	-30.21
880.681	-11.78
880.854	33.28
881.026	12.8
881.198	61.95
881.37	-52.74
881.542	-69.12
881.714	57.86
881.886	23.04
882.058	10.75
882.23	12.8
882.402	25.09
882.574	12.8
882.746	18.94
882.918	74.24
883.09	76.29
883.262	41.47
883.434	-3.58
883.606	-3.58
883.778	-28.16
883.95	29.18
884.122	12.8
884.293	8.7
884.465	-1.54
884.637	29.18
884.809	55.81
884.98	-73.21
885.152	-11.78
885.324	23.04
885.496	23.04
885.667	2.56
885.839	16.9
886.011	37.38
886.182	78.33
886.354	94.72
886.525	86.53
886.697	16.9
886.869	0.51
887.04	90.62
887.212	25.09
887.383	55.81
887.555	41.47
887.726	31.23
887.897	-91.65
888.069	4.61
888.24	29.18
888.412	-32.26
888.583	-5.63
888.754	-13.82
888.926	-40.45
889.097	37.38
889.268	45.57
889.44	51.71
889.611	-22.02
889.782	-3.58
889.953	-28.16
890.125	102.91
890.296	-34.3
890.467	0.51
890.638	25.09
890.809	4.61
890.98	-30.21
891.151	49.66
891.323	45.57
891.494	37.38
891.665	41.47
891.836	-36.35
892.007	20.99
892.178	59.9
892.349	8.7
892.52	53.76
892.691	6.66
892.862	90.62
893.032	-38.4
893.203	39.42
893.374	20.99
893.545	4.61
893.716	16.9
893.887	88.57
894.057	20.99
894.228	-9.73
894.399	55.81
894.57	-17.92
894.74	43.52
894.911	76.29
895.082	-32.26
895.253	53.76
895.423	25.09
895.594	-46.59
895.764	35.33
895.935	-77.31
896.106	25.09
896.276	78.33
896.447	4.61
896.617	-17.92
896.788	68.09
896.958	31.23
897.129	35.33
897.299	29.18
897.47	-44.54
897.64	-11.78
897.81	27.14
897.981	27.14
898.151	45.57
898.322	37.38
898.492	2.56
898.662	66.05
898.832	-44.54
899.003	-15.87
899.173	37.38
899.343	20.99
899.513	-56.83
