Data from USB4F104151__67__11-37-30-741.txt Node

Date: Fri Mar 14 11:37:30 EDT 2025
User: louis
Spectrometer: USB4F10415
Trigger mode: 4
Integration Time (sec): 2.000000E-2
Scans to average: 1
Electric dark correction enabled: true
Nonlinearity correction enabled: false
Boxcar width: 0
XAxis mode: Wavelengths
Number of Pixels in Spectrum: 3648
>>>>>Begin Spectral Data<<<<<
178.204	-72.02
178.424	-72.02
178.644	-72.02
178.864	-69.97
179.084	-115.03
179.304	16.04
179.524	-63.83
179.744	-18.77
179.964	71.34
180.184	16.04
180.404	5.8
180.624	-2.39
180.844	20.14
181.064	-35.16
181.283	-22.87
181.503	-10.58
181.723	24.23
181.943	-43.35
182.163	28.33
182.383	5.8
182.602	28.33
182.822	7.85
183.042	69.29
183.262	69.29
183.482	81.58
183.701	54.95
183.921	65.19
184.141	26.28
184.361	9.9
184.58	18.09
184.8	-22.87
185.02	-4.44
185.239	46.76
185.459	30.38
185.679	20.14
185.898	7.85
186.118	42.67
186.338	-14.68
186.557	63.15
186.777	26.28
186.997	-22.87
187.216	116.39
187.436	97.96
187.655	61.1
187.875	11.95
188.095	54.95
188.314	13.99
188.534	24.23
188.753	93.87
188.973	140.97
189.192	85.67
189.412	89.77
189.631	38.57
189.851	-20.82
190.07	5.8
190.29	36.52
190.509	13.99
190.729	46.76
190.948	52.91
191.168	83.63
191.387	87.72
191.607	40.62
191.826	85.67
192.045	48.81
192.265	34.47
192.484	26.28
192.704	48.81
192.923	18.09
193.142	44.71
193.362	65.19
193.581	163.5
193.8	63.15
194.02	32.43
194.239	73.39
194.458	-24.92
194.678	-0.34
194.897	57
195.116	108.2
195.335	69.29
195.555	46.76
195.774	22.19
195.993	-4.44
196.212	-4.44
196.432	11.95
196.651	38.57
196.87	48.81
197.089	79.53
197.308	44.71
197.528	69.29
197.747	-57.68
197.966	52.91
198.185	5.8
198.404	9.9
198.623	61.1
198.842	85.67
199.062	40.62
199.281	-2.39
199.5	5.8
199.719	-18.77
199.938	97.96
200.157	57
200.376	95.91
200.595	20.14
200.814	65.19
201.033	44.71
201.252	97.96
201.471	22.19
201.69	52.91
201.909	-12.63
202.128	40.62
202.347	24.23
202.566	22.19
202.785	46.76
203.004	54.95
203.223	54.95
203.442	85.67
203.661	50.86
203.879	87.72
204.098	48.81
204.317	46.76
204.536	57
204.755	46.76
204.974	28.33
205.193	32.43
205.411	126.63
205.63	24.23
205.849	57
206.068	5.8
206.287	5.8
206.505	120.49
206.724	71.34
206.943	42.67
207.162	65.19
207.381	54.95
207.599	-59.73
207.818	128.68
208.037	22.19
208.255	61.1
208.474	32.43
208.693	-18.77
208.911	32.43
209.13	-16.73
209.349	18.09
209.567	54.95
209.786	81.58
210.005	136.87
210.223	71.34
210.442	-10.58
210.661	32.43
210.879	26.28
211.098	26.28
211.316	26.28
211.535	16.04
211.753	-0.34
211.972	20.14
212.191	30.38
212.409	9.9
212.628	91.82
212.846	44.71
213.065	38.57
213.283	54.95
213.502	-8.53
213.72	126.63
213.938	-4.44
214.157	57
214.375	112.3
214.594	57
214.812	-2.39
215.031	28.33
215.249	1.71
215.467	32.43
215.686	26.28
215.904	71.34
216.122	57
216.341	104.11
216.559	57
216.778	36.52
216.996	48.81
217.214	83.63
217.432	46.76
217.651	-33.11
217.869	114.34
218.087	95.91
218.306	-16.73
218.524	46.76
218.742	75.43
218.96	20.14
219.179	65.19
219.397	52.91
219.615	179.88
219.833	50.86
220.051	-10.58
220.27	67.24
220.488	97.96
220.706	36.52
220.924	-33.11
221.142	11.95
221.36	11.95
221.578	52.91
221.796	-14.68
222.015	22.19
222.233	52.91
222.451	83.63
222.669	20.14
222.887	57
223.105	11.95
223.323	42.67
223.541	16.04
223.759	67.24
223.977	89.77
224.195	57
224.413	44.71
224.631	65.19
224.849	40.62
225.067	71.34
225.285	-8.53
225.503	42.67
225.721	13.99
225.939	-10.58
226.157	63.15
226.375	71.34
226.592	11.95
226.81	79.53
227.028	85.67
227.246	65.19
227.464	-31.06
227.682	52.91
227.9	32.43
228.117	108.2
228.335	34.47
228.553	63.15
228.771	-4.44
228.989	140.97
229.206	20.14
229.424	77.48
229.642	36.52
229.86	7.85
230.077	57
230.295	13.99
230.513	44.71
230.731	93.87
230.948	54.95
231.166	59.05
231.384	63.15
231.601	42.67
231.819	40.62
232.037	5.8
232.254	32.43
232.472	54.95
232.689	-4.44
232.907	44.71
233.125	48.81
233.342	-12.63
233.56	85.67
233.777	69.29
233.995	16.04
234.213	118.44
234.43	73.39
234.648	87.72
234.865	81.58
235.083	120.49
235.3	48.81
235.518	7.85
235.735	44.71
235.953	24.23
236.17	-10.58
236.388	18.09
236.605	-16.73
236.822	83.63
237.04	40.62
237.257	30.38
237.475	30.38
237.692	1.71
237.909	16.04
238.127	46.76
238.344	71.34
238.562	71.34
238.779	-33.11
238.996	57
239.214	7.85
239.431	61.1
239.648	3.75
239.865	30.38
240.083	42.67
240.3	28.33
240.517	-20.82
240.735	38.57
240.952	48.81
241.169	20.14
241.386	3.75
241.603	20.14
241.821	52.91
242.038	114.34
242.255	71.34
242.472	65.19
242.689	-8.53
242.907	134.82
243.124	5.8
243.341	57
243.558	3.75
243.775	9.9
243.992	46.76
244.209	-26.96
244.426	71.34
244.643	104.11
244.86	-2.39
245.078	100.01
245.295	83.63
245.512	73.39
245.729	44.71
245.946	36.52
246.163	59.05
246.38	-6.49
246.597	-12.63
246.814	46.76
247.031	-24.92
247.248	65.19
247.464	48.81
247.681	95.91
247.898	13.99
248.115	7.85
248.332	73.39
248.549	-22.87
248.766	16.04
248.983	24.23
249.2	71.34
249.417	67.24
249.633	40.62
249.85	-14.68
250.067	3.75
250.284	32.43
250.501	48.81
250.717	46.76
250.934	-4.44
251.151	20.14
251.368	5.8
251.585	13.99
251.801	65.19
252.018	65.19
252.235	-0.34
252.451	9.9
252.668	32.43
252.885	-10.58
253.102	52.91
253.318	77.48
253.535	87.72
253.752	28.33
253.968	38.57
254.185	26.28
254.401	24.23
254.618	54.95
254.835	67.24
255.051	36.52
255.268	63.15
255.484	-22.87
255.701	20.14
255.917	22.19
256.134	9.9
256.351	116.39
256.567	73.39
256.784	13.99
257	26.28
257.217	3.75
257.433	38.57
257.65	67.24
257.866	87.72
258.082	28.33
258.299	13.99
258.515	22.19
258.732	32.43
258.948	50.86
259.165	63.15
259.381	24.23
259.597	30.38
259.814	52.91
260.03	28.33
260.246	20.14
260.463	85.67
260.679	79.53
260.895	-6.49
261.112	38.57
261.328	48.81
261.544	52.91
261.761	89.77
261.977	-12.63
262.193	36.52
262.409	34.47
262.626	73.39
262.842	24.23
263.058	30.38
263.274	106.15
263.49	59.05
263.707	11.95
263.923	50.86
264.139	108.2
264.355	46.76
264.571	77.48
264.787	79.53
265.004	85.67
265.22	48.81
265.436	16.04
265.652	54.95
265.868	77.48
266.084	-6.49
266.3	59.05
266.516	34.47
266.732	32.43
266.948	11.95
267.164	46.76
267.38	20.14
267.596	-57.68
267.812	91.82
268.028	46.76
268.244	7.85
268.46	114.34
268.676	42.67
268.892	61.1
269.108	24.23
269.324	-10.58
269.54	30.38
269.756	89.77
269.972	5.8
270.188	65.19
270.403	81.58
270.619	50.86
270.835	97.96
271.051	40.62
271.267	46.76
271.483	24.23
271.698	13.99
271.914	-0.34
272.13	87.72
272.346	26.28
272.562	136.87
272.777	-2.39
272.993	-16.73
273.209	79.53
273.425	104.11
273.64	-6.49
273.856	30.38
274.072	26.28
274.287	20.14
274.503	-0.34
274.719	57
274.934	11.95
275.15	106.15
275.366	36.52
275.581	16.04
275.797	-10.58
276.012	-16.73
276.228	108.2
276.444	73.39
276.659	59.05
276.875	85.67
277.09	48.81
277.306	130.73
277.521	77.48
277.737	18.09
277.952	61.1
278.168	32.43
278.383	134.82
278.599	77.48
278.814	112.3
279.03	26.28
279.245	73.39
279.461	46.76
279.676	46.76
279.892	73.39
280.107	24.23
280.322	63.15
280.538	87.72
280.753	36.52
280.969	128.68
281.184	65.19
281.399	40.62
281.615	77.48
281.83	128.68
282.045	-4.44
282.26	-0.34
282.476	73.39
282.691	52.91
282.906	22.19
283.122	65.19
283.337	48.81
283.552	16.04
283.767	57
283.983	87.72
284.198	40.62
284.413	20.14
284.628	20.14
284.843	40.62
285.058	-31.06
285.274	67.24
285.489	48.81
285.704	93.87
285.919	48.81
286.134	36.52
286.349	40.62
286.564	36.52
286.779	87.72
286.995	79.53
287.21	-35.16
287.425	65.19
287.64	1.71
287.855	30.38
288.07	42.67
288.285	-22.87
288.5	20.14
288.715	102.06
288.93	22.19
289.145	40.62
289.36	91.82
289.575	69.29
289.79	102.06
290.004	32.43
290.219	67.24
290.434	40.62
290.649	16.04
290.864	50.86
291.079	20.14
291.294	61.1
291.509	71.34
291.724	3.75
291.938	79.53
292.153	34.47
292.368	91.82
292.583	79.53
292.798	73.39
293.012	77.48
293.227	67.24
293.442	28.33
293.657	48.81
293.871	69.29
294.086	13.99
294.301	-47.44
294.516	65.19
294.73	24.23
294.945	77.48
295.16	89.77
295.374	42.67
295.589	52.91
295.804	57
296.018	44.71
296.233	3.75
296.447	65.19
296.662	-57.68
296.877	108.2
297.091	48.81
297.306	7.85
297.52	102.06
297.735	48.81
297.949	30.38
298.164	32.43
298.378	95.91
298.593	65.19
298.807	-12.63
299.022	18.09
299.236	93.87
299.451	44.71
299.665	20.14
299.88	48.81
300.094	110.25
300.309	63.15
300.523	87.72
300.737	57
300.952	-0.34
301.166	75.43
301.381	54.95
301.595	48.81
301.809	67.24
302.024	40.62
302.238	61.1
302.452	106.15
302.667	-31.06
302.881	46.76
303.095	3.75
303.309	54.95
303.524	73.39
303.738	22.19
303.952	20.14
304.166	93.87
304.381	-41.3
304.595	65.19
304.809	75.43
305.023	18.09
305.237	-12.63
305.452	89.77
305.666	77.48
305.88	18.09
306.094	81.58
306.308	50.86
306.522	40.62
306.736	63.15
306.95	22.19
307.164	38.57
307.379	-20.82
307.593	95.91
307.807	75.43
308.021	18.09
308.235	57
308.449	30.38
308.663	46.76
308.877	24.23
309.091	48.81
309.305	83.63
309.519	42.67
309.733	26.28
309.947	52.91
310.161	116.39
310.374	50.86
310.588	91.82
310.802	71.34
311.016	38.57
311.23	42.67
311.444	32.43
311.658	-20.82
311.872	52.91
312.085	32.43
312.299	57
312.513	32.43
312.727	95.91
312.941	65.19
313.154	108.2
313.368	36.52
313.582	42.67
313.796	112.3
314.009	18.09
314.223	18.09
314.437	104.11
314.651	20.14
314.864	28.33
315.078	22.19
315.292	85.67
315.505	-0.34
315.719	-39.25
315.933	48.81
316.146	-14.68
316.36	20.14
316.573	83.63
316.787	18.09
317.001	-12.63
317.214	-18.77
317.428	44.71
317.641	32.43
317.855	34.47
318.068	32.43
318.282	102.06
318.495	108.2
318.709	54.95
318.922	-12.63
319.136	-20.82
319.349	77.48
319.563	54.95
319.776	16.04
319.99	57
320.203	28.33
320.417	54.95
320.63	67.24
320.843	151.21
321.057	48.81
321.27	85.67
321.483	48.81
321.697	83.63
321.91	36.52
322.124	122.54
322.337	3.75
322.55	3.75
322.763	11.95
322.977	147.11
323.19	30.38
323.403	65.19
323.617	13.99
323.83	91.82
324.043	79.53
324.256	85.67
324.469	36.52
324.683	-4.44
324.896	-18.77
325.109	69.29
325.322	-29.01
325.535	63.15
325.748	95.91
325.962	126.63
326.175	112.3
326.388	89.77
326.601	57
326.814	-2.39
327.027	40.62
327.24	7.85
327.453	48.81
327.666	52.91
327.879	69.29
328.092	91.82
328.305	26.28
328.518	42.67
328.731	-8.53
328.944	36.52
329.157	110.25
329.37	57
329.583	69.29
329.796	97.96
330.009	65.19
330.222	75.43
330.435	38.57
330.648	40.62
330.861	20.14
331.073	42.67
331.286	79.53
331.499	118.44
331.712	38.57
331.925	63.15
332.138	106.15
332.35	120.49
332.563	16.04
332.776	57
332.989	22.19
333.202	13.99
333.414	81.58
333.627	97.96
333.84	65.19
334.053	85.67
334.265	13.99
334.478	93.87
334.691	32.43
334.903	97.96
335.116	24.23
335.329	63.15
335.541	40.62
335.754	73.39
335.966	13.99
336.179	46.76
336.392	85.67
336.604	24.23
336.817	100.01
337.029	118.44
337.242	57
337.454	85.67
337.667	7.85
337.88	171.69
338.092	54.95
338.305	57
338.517	59.05
338.729	48.81
338.942	38.57
339.154	46.76
339.367	57
339.579	9.9
339.792	63.15
340.004	143.02
340.217	81.58
340.429	100.01
340.641	44.71
340.854	61.1
341.066	100.01
341.278	130.73
341.491	44.71
341.703	44.71
341.915	-20.82
342.128	112.3
342.34	69.29
342.552	124.58
342.764	89.77
342.977	42.67
343.189	26.28
343.401	20.14
343.613	-2.39
343.826	130.73
344.038	24.23
344.25	-2.39
344.462	124.58
344.674	44.71
344.886	85.67
345.099	28.33
345.311	95.91
345.523	100.01
345.735	52.91
345.947	89.77
346.159	65.19
346.371	71.34
346.583	42.67
346.795	40.62
347.007	54.95
347.219	18.09
347.431	52.91
347.643	65.19
347.855	36.52
348.067	114.34
348.279	13.99
348.491	102.06
348.703	163.5
348.915	44.71
349.127	97.96
349.339	95.91
349.551	93.87
349.763	143.02
349.975	81.58
350.187	122.54
350.399	65.19
350.61	63.15
350.822	30.38
351.034	75.43
351.246	54.95
351.458	24.23
351.669	48.81
351.881	38.57
352.093	79.53
352.305	71.34
352.517	5.8
352.728	65.19
352.94	-96.6
353.152	24.23
353.363	67.24
353.575	77.48
353.787	77.48
353.999	112.3
354.21	91.82
354.422	89.77
354.633	46.76
354.845	63.15
355.057	110.25
355.268	24.23
355.48	16.04
355.692	155.3
355.903	11.95
356.115	13.99
356.326	67.24
356.538	73.39
356.749	36.52
356.961	-24.92
357.172	40.62
357.384	40.62
357.595	69.29
357.807	48.81
358.018	83.63
358.23	65.19
358.441	188.07
358.653	85.67
358.864	67.24
359.075	38.57
359.287	59.05
359.498	75.43
359.709	50.86
359.921	67.24
360.132	16.04
360.344	102.06
360.555	57
360.766	22.19
360.977	100.01
361.189	106.15
361.4	61.1
361.611	26.28
361.823	63.15
362.034	67.24
362.245	71.34
362.456	93.87
362.667	-12.63
362.879	75.43
363.09	75.43
363.301	85.67
363.512	40.62
363.723	40.62
363.935	83.63
364.146	48.81
364.357	97.96
364.568	128.68
364.779	-8.53
364.99	97.96
365.201	28.33
365.412	20.14
365.623	48.81
365.834	132.78
366.045	85.67
366.256	134.82
366.467	-35.16
366.678	77.48
366.889	85.67
367.1	85.67
367.311	13.99
367.522	91.82
367.733	91.82
367.944	67.24
368.155	116.39
368.366	114.34
368.577	73.39
368.788	57
368.999	112.3
369.209	24.23
369.42	124.58
369.631	63.15
369.842	145.06
370.053	95.91
370.264	-4.44
370.474	50.86
370.685	69.29
370.896	104.11
371.107	83.63
371.317	36.52
371.528	54.95
371.739	65.19
371.95	100.01
372.16	87.72
372.371	65.19
372.582	73.39
372.792	71.34
373.003	57
373.214	57
373.424	54.95
373.635	-8.53
373.846	130.73
374.056	71.34
374.267	93.87
374.477	110.25
374.688	57
374.898	38.57
375.109	112.3
375.319	130.73
375.53	63.15
375.74	52.91
375.951	16.04
376.161	46.76
376.372	157.35
376.582	52.91
376.793	112.3
377.003	120.49
377.214	71.34
377.424	48.81
377.635	24.23
377.845	59.05
378.055	28.33
378.266	52.91
378.476	79.53
378.686	57
378.897	116.39
379.107	93.87
379.317	102.06
379.528	95.91
379.738	93.87
379.948	-0.34
380.158	48.81
380.369	54.95
380.579	59.05
380.789	32.43
380.999	120.49
381.21	61.1
381.42	112.3
381.63	32.43
381.84	63.15
382.05	116.39
382.261	97.96
382.471	30.38
382.681	48.81
382.891	91.82
383.101	71.34
383.311	93.87
383.521	145.06
383.731	57
383.941	124.58
384.151	11.95
384.361	128.68
384.571	110.25
384.781	79.53
384.991	1.71
385.201	75.43
385.411	44.71
385.621	73.39
385.831	42.67
386.041	67.24
386.251	67.24
386.461	79.53
386.671	11.95
386.881	130.73
387.091	106.15
387.301	100.01
387.511	106.15
387.72	42.67
387.93	48.81
388.14	77.48
388.35	52.91
388.56	106.15
388.769	65.19
388.979	38.57
389.189	77.48
389.399	36.52
389.609	61.1
389.818	40.62
390.028	81.58
390.238	59.05
390.447	85.67
390.657	67.24
390.867	97.96
391.076	13.99
391.286	61.1
391.496	145.06
391.705	79.53
391.915	196.26
392.125	73.39
392.334	112.3
392.544	81.58
392.753	57
392.963	16.04
393.172	61.1
393.382	46.76
393.591	46.76
393.801	118.44
394.01	81.58
394.22	65.19
394.429	169.64
394.639	38.57
394.848	50.86
395.058	79.53
395.267	50.86
395.477	32.43
395.686	147.11
395.895	132.78
396.105	145.06
396.314	120.49
396.524	46.76
396.733	114.34
396.942	140.97
397.152	116.39
397.361	110.25
397.57	134.82
397.78	155.3
397.989	75.43
398.198	222.89
398.407	102.06
398.617	134.82
398.826	106.15
399.035	161.45
399.244	188.07
399.453	110.25
399.663	151.21
399.872	188.07
400.081	143.02
400.29	89.77
400.499	179.88
400.708	186.02
400.917	161.45
401.127	149.16
401.336	155.3
401.545	153.26
401.754	175.78
401.963	222.89
402.172	183.98
402.381	89.77
402.59	194.22
402.799	167.59
403.008	63.15
403.217	181.93
403.426	202.41
403.635	132.78
403.844	167.59
404.053	173.74
404.262	120.49
404.471	190.12
404.68	161.45
404.888	251.56
405.097	175.78
405.306	134.82
405.515	224.94
405.724	237.22
405.933	235.18
406.142	216.74
406.35	308.9
406.559	179.88
406.768	204.46
406.977	233.13
407.185	278.18
407.394	261.8
407.603	284.33
407.812	356.01
408.02	331.43
408.229	245.41
408.438	331.43
408.646	267.94
408.855	313
409.064	290.47
409.272	413.35
409.481	405.16
409.69	265.89
409.898	396.96
410.107	433.83
410.315	421.54
410.524	437.92
410.733	444.07
410.941	411.3
411.15	460.45
411.358	462.5
411.567	634.53
411.775	560.8
411.984	550.56
412.192	634.53
412.401	562.85
412.609	677.54
412.818	663.2
413.026	597.67
413.234	601.76
413.443	650.91
413.651	671.39
413.86	745.12
414.068	749.22
414.276	790.17
414.485	833.18
414.693	865.95
414.901	888.48
415.11	804.51
415.318	917.15
415.526	913.05
415.734	990.88
415.943	1050.27
416.151	1037.98
416.359	1117.85
416.567	1150.62
416.776	1158.81
416.984	1220.25
417.192	1181.34
417.4	1326.74
417.608	1298.07
417.817	1351.32
418.025	1373.85
418.233	1488.53
418.441	1586.83
418.649	1566.35
418.857	1715.86
419.065	1678.99
419.273	1689.23
419.481	1728.14
419.689	1791.63
419.897	1912.46
420.105	1932.94
420.313	2018.96
420.521	2039.44
420.729	2080.39
420.937	2152.07
421.145	2469.51
421.353	2324.1
421.561	2436.74
421.769	2481.8
421.977	2619.01
422.185	2592.39
422.393	2885.25
422.601	2924.16
422.809	2911.87
423.017	3053.18
423.224	3131
423.432	3219.07
423.64	3444.34
423.848	3509.88
424.056	3427.96
424.263	3702.39
424.471	3817.07
424.679	3751.54
424.887	3917.42
425.094	4101.74
425.302	3989.1
425.51	4122.22
425.718	4255.34
425.925	4462.18
426.133	4628.07
426.341	4777.57
426.548	5062.24
426.756	4879.97
426.964	5158.49
427.171	5291.61
427.379	5541.46
427.586	5563.99
427.794	5600.85
428.001	5895.76
428.209	6284.87
428.417	6254.16
428.624	6671.94
428.832	6573.64
429.039	6643.27
429.247	6567.49
429.454	7349.82
429.662	7831.09
429.869	7382.59
430.076	7794.23
430.284	7501.37
430.491	7990.83
430.699	8470.06
430.906	8300.08
431.114	8316.46
431.321	8625.7
431.528	8934.95
431.736	9524.76
431.943	9756.18
432.15	9530.91
432.358	9936.4
432.565	10173.97
432.772	10354.19
432.979	10620.42
433.187	10956.29
433.394	10862.08
433.601	11701.75
433.808	11765.24
434.016	11875.83
434.223	12111.35
434.43	12926.44
434.637	12418.54
434.844	13385.18
435.052	13782.49
435.259	13659.61
435.466	13970.9
435.673	13452.77
435.88	14468.56
436.087	15125.96
436.294	15345.09
436.501	14992.84
436.708	15113.67
436.915	15926.71
437.122	16276.91
437.329	16330.16
437.537	16827.82
437.743	17331.62
437.95	17061.29
438.157	17755.55
438.364	18482.58
438.571	18451.86
438.778	18476.43
438.985	20567.41
439.192	19436.93
439.399	20258.17
439.606	19639.68
439.813	20759.92
440.02	21902.68
440.227	21513.57
440.433	21542.24
440.64	22343
440.847	22054.23
441.054	22482.26
441.261	24358.2
441.467	23833.92
441.674	24229.18
441.881	25296.17
442.088	25220.39
442.294	24814.9
442.501	25531.69
442.708	26424.6
442.914	27088.14
443.121	28136.7
443.328	27503.88
443.534	29607.14
443.741	28419.32
443.948	28095.74
444.154	30182.62
444.361	30149.85
444.568	30471.39
444.774	30430.43
444.981	30491.87
445.187	31657.16
445.394	32588.99
445.6	32259.26
445.807	35390.61
446.013	33840.29
446.22	34587.8
446.426	35914.89
446.633	35871.88
446.839	37547.12
447.046	36043.91
447.252	38425.7
447.459	37700.72
447.665	37749.87
447.871	39511.12
448.078	41313.33
448.284	38986.84
448.491	40195.14
448.697	41720.88
448.903	42591.26
449.11	42355.75
449.316	42026.03
449.522	42632.22
449.728	43539.47
449.935	44008.46
450.141	43801.61
450.347	44938.24
450.553	43537.43
450.76	44049.42
450.966	45540.34
451.172	44663.81
451.378	46205.93
451.584	45093.88
451.791	46087.15
451.997	46255.08
452.203	47055.84
452.409	46990.3
452.615	46590.95
452.821	44395.53
453.027	44762.11
453.233	46945.25
453.44	45153.27
453.646	45839.34
453.852	45380.6
454.058	46582.76
454.264	44755.97
454.47	45605.87
454.676	44923.9
454.882	46044.14
455.088	42038.31
455.294	42738.72
455.5	43637.78
455.705	44016.65
455.911	42157.1
456.117	41378.87
456.323	40758.33
456.529	38710.36
456.735	40772.67
456.941	39423.06
457.147	38845.53
457.352	37907.56
457.558	37172.34
457.764	36795.51
457.97	36549.76
458.176	35701.9
458.381	35898.5
458.587	33721.51
458.793	33934.5
458.999	32128.19
459.204	34763.93
459.41	33871.01
459.616	31538.38
459.821	31739.08
460.027	31392.97
460.233	30842.07
460.438	29435.11
460.644	29627.62
460.85	28128.51
461.055	27723.01
461.261	28132.61
461.466	25607.46
461.672	25115.95
461.878	26514.71
462.083	25042.22
462.289	24814.9
462.494	24018.24
462.7	23131.47
462.905	22453.59
463.111	23184.71
463.316	23424.33
463.522	22832.46
463.727	22908.24
463.932	22824.27
464.138	22687.06
464.343	22547.79
464.549	22234.46
464.754	22654.29
464.959	22412.63
465.165	22316.37
465.37	21847.39
465.575	20997.48
465.781	21693.79
465.986	21622.11
466.191	20893.04
466.397	20645.23
466.602	19713.41
466.807	20596.08
467.012	20374.9
467.218	20417.91
467.423	19809.66
467.628	20041.08
467.833	20968.81
468.038	20348.28
468.244	19842.43
468.449	20370.8
468.654	19893.63
468.859	19723.65
469.064	19398.02
469.269	18785.68
469.474	19103.11
469.679	19117.45
469.885	18670.99
470.09	19074.44
470.295	18922.89
470.5	18171.29
470.705	18570.64
470.91	18165.14
471.115	18113.94
471.32	18247.06
471.525	18290.07
471.73	17798.56
471.935	17755.55
472.139	17153.44
472.344	17427.87
472.549	17151.4
472.754	17012.14
472.959	16620.97
473.164	16160.18
473.369	16184.76
473.574	16846.25
473.778	16487.86
473.983	16467.38
474.188	16356.79
474.393	15547.84
474.598	15521.21
474.802	15148.48
475.007	15199.68
475.212	14998.98
475.417	14906.82
475.621	14728.65
475.826	14876.1
476.031	14513.61
476.235	14116.31
476.44	14314.96
476.645	14069.2
476.849	14247.38
477.054	13962.71
477.259	13520.35
477.463	13831.64
477.668	13303.26
477.872	13387.23
478.077	13200.87
478.282	12994.02
478.486	12971.49
478.691	12944.87
478.895	12930.53
479.1	12799.46
479.304	12735.98
479.509	12477.93
479.713	12434.92
479.918	12377.58
480.122	12205.55
480.326	12410.35
480.531	12269.04
480.735	12209.65
480.94	12117.49
481.144	12355.05
481.348	11980.28
481.553	11820.53
481.757	11566.59
481.961	11824.63
482.166	11845.11
482.37	11865.59
482.574	12004.85
482.778	11785.72
482.983	12068.34
483.187	11881.97
483.391	11795.96
483.595	11867.64
483.8	11587.07
484.004	11841.01
484.208	11927.03
484.412	11775.48
484.616	11802.1
484.821	11943.41
485.025	11619.83
485.229	11892.21
485.433	11593.21
485.637	11748.86
485.841	11623.93
486.045	11648.5
486.249	11800.05
486.453	11558.39
486.657	11873.78
486.861	11951.6
487.065	11554.3
487.269	11693.56
487.473	11638.27
487.677	11767.29
487.881	11711.99
488.085	11492.86
488.289	11558.39
488.493	11445.76
488.697	11978.23
488.901	11904.5
489.105	11707.9
489.309	11888.12
489.512	11693.56
489.716	11931.12
489.92	11916.79
490.124	11939.32
490.328	12082.67
490.531	11914.74
490.735	12062.19
490.939	12221.94
491.143	12049.91
491.346	11959.8
491.55	12127.73
491.754	12129.78
491.958	12385.77
492.161	12310
492.365	12449.26
492.569	12379.63
492.772	12248.56
492.976	12404.21
493.18	12353.01
493.383	12826.09
493.587	12750.31
493.79	12852.71
493.994	12647.91
494.197	12938.73
494.401	13006.31
494.605	12934.63
494.808	13168.1
495.012	12836.33
495.215	13329.89
495.419	13028.84
495.622	13336.03
495.825	13458.91
496.029	13600.22
496.232	13858.26
496.436	13747.67
496.639	14134.74
496.843	13964.76
497.046	14343.63
497.249	14257.62
497.453	14656.97
497.656	14659.02
497.859	14495.18
498.063	14710.22
498.266	15001.03
498.469	15015.37
498.673	15259.07
498.876	15349.18
499.079	15693.24
499.282	15570.37
499.485	16014.77
499.689	16014.77
499.892	16080.31
500.095	16045.49
500.298	16776.62
500.501	16584.11
500.705	16874.92
500.908	16735.66
501.111	17313.19
501.314	17647.01
501.517	17939.86
501.72	18044.31
501.923	17888.67
502.126	18345.36
502.329	18431.38
502.532	18328.98
502.735	18769.29
502.938	18998.66
503.141	19115.4
503.344	19494.27
503.547	19152.26
503.75	19879.29
503.953	20061.56
504.156	20260.21
504.359	20284.79
504.562	20514.16
504.765	20837.74
504.968	21073.26
505.17	21276.01
505.373	21116.26
505.576	21867.87
505.779	21990.75
505.982	21882.2
506.185	22543.7
506.387	22756.69
506.59	22615.38
506.793	23258.44
506.996	23295.3
507.198	23633.22
507.401	23453
507.604	23602.5
507.807	24214.84
508.009	24069.44
508.212	24544.56
508.415	24941.87
508.617	25023.79
508.82	25261.35
509.022	24931.63
509.225	25820.45
509.428	25763.11
509.63	26033.44
509.833	26432.79
510.035	26862.86
510.238	26619.16
510.44	27440.39
510.643	27360.52
510.845	27690.24
511.048	27737.35
511.25	27747.59
511.453	28161.28
511.655	29183.21
511.858	28495.1
512.06	28755.19
512.262	29385.96
512.465	29177.07
512.667	29828.32
512.87	30008.54
513.072	29934.82
513.274	30633.18
513.477	30737.62
513.679	31319.24
513.881	31562.95
514.084	31626.44
514.286	31663.3
514.488	31804.61
514.69	32797.88
514.893	32685.24
515.095	32437.44
515.297	33322.16
515.499	33498.28
515.701	33531.05
515.904	34075.81
516.106	34196.64
516.308	34639
516.51	35081.36
516.712	34649.24
516.914	34987.16
517.116	35697.8
517.318	35673.23
517.52	36363.39
517.722	36308.1
517.925	36760.7
518.127	36719.74
518.329	37344.37
518.531	36973.69
518.733	37790.83
518.935	37790.83
519.136	37803.11
519.338	38741.08
519.54	38759.52
519.742	38872.15
519.944	39201.88
520.146	39756.88
520.348	39545.94
520.55	39949.39
520.752	40150.09
520.954	40969.27
521.155	40574.02
521.357	40848.44
521.559	41395.25
521.761	42075.18
521.963	41757.74
522.164	41819.18
522.366	41796.65
522.568	42398.76
522.77	42509.35
522.971	43242.52
523.173	43041.82
523.375	43201.56
523.576	43508.75
523.778	43025.43
523.98	44305.41
524.181	43906.06
524.383	44235.78
524.584	44903.42
524.786	44749.82
524.988	44119.05
525.189	45009.92
525.391	45108.22
525.592	45210.62
525.794	45384.69
525.995	45407.22
526.197	45716.47
526.398	45560.82
526.6	46146.54
526.801	46156.78
527.003	46164.97
527.204	46152.68
527.406	46889.95
527.607	47178.71
527.808	46822.37
528.01	46154.73
528.211	46642.15
528.412	47352.79
528.614	47449.05
528.815	47231.96
529.016	47784.91
529.218	47092.7
529.419	47707.09
529.62	47719.38
529.822	47576.02
530.023	47596.5
530.224	48294.86
530.425	47895.5
530.626	47641.56
530.828	47305.69
531.029	48612.29
531.23	47760.34
531.431	47604.69
531.632	48059.34
531.833	48059.34
532.035	48407.5
532.236	48083.92
532.437	48358.34
532.638	48042.96
532.839	48352.2
533.04	48610.24
533.241	48221.13
533.442	48815.04
533.643	48591.81
533.844	48346.06
534.045	48595.91
534.246	48276.43
534.447	48651.2
534.648	48810.95
534.849	48354.25
535.05	48186.32
535.251	48655.3
535.451	48016.33
535.652	48997.31
535.853	48534.47
536.054	48317.39
536.255	48567.24
536.456	48274.38
536.657	48729.03
536.857	48380.87
537.058	48516.04
537.259	48554.95
537.46	48581.57
537.66	48407.5
537.861	48964.54
538.062	48640.96
538.263	48761.79
538.463	48225.23
538.664	48194.51
538.865	48880.58
539.065	48622.53
539.266	48298.95
539.466	48497.61
539.667	48135.12
539.868	48960.45
540.068	48415.69
540.269	48356.3
540.469	48892.86
540.67	47952.85
540.87	48438.22
541.071	48421.83
541.271	48651.2
541.472	48317.39
541.672	48038.86
541.873	48313.29
542.073	47803.35
542.274	48389.06
542.474	48251.85
542.675	48036.81
542.875	48552.9
543.075	48214.99
543.276	47817.68
543.476	48677.83
543.676	47442.9
543.877	48227.27
544.077	48485.32
544.277	48532.42
544.478	48030.67
544.678	48384.97
544.878	47875.02
545.078	48034.77
545.279	48053.2
545.479	48024.53
545.679	48266.19
545.879	48030.67
546.079	47903.7
546.28	48026.57
546.48	47727.57
546.68	48133.07
546.88	48014.29
547.08	48186.32
547.28	48227.27
547.48	47395.8
547.68	48131.02
547.88	47662.04
548.081	47967.18
548.281	47756.24
548.481	47469.53
548.681	48016.33
548.881	47713.23
549.081	47573.97
549.28	47514.58
549.48	47727.57
549.68	47207.39
549.88	48067.53
550.08	47592.4
550.28	47733.71
550.48	47598.55
550.68	47997.9
550.88	47279.07
551.08	47866.83
551.279	47588.31
551.479	47229.91
551.679	47664.08
551.879	47506.39
552.079	47649.75
552.278	47395.8
552.478	47533.01
552.678	47741.91
552.878	48047.05
553.077	47393.75
553.277	46855.14
553.477	48272.33
553.676	47162.33
553.876	47107.04
554.076	47004.64
554.275	46853.09
554.475	47203.29
554.674	46955.49
554.874	47174.62
555.074	46984.16
555.273	47223.77
555.473	47326.17
555.672	46646.24
555.872	46957.53
556.071	47080.41
556.271	46853.09
556.47	46681.06
556.67	46248.94
556.869	46998.49
557.068	46883.81
557.268	46072.81
557.467	46603.24
557.667	46707.68
557.866	46494.69
558.065	46640.1
558.265	46466.02
558.464	46271.46
558.663	46654.43
558.863	45679.6
559.062	46650.34
559.261	45802.48
559.461	46377.96
559.66	45835.25
559.859	46203.88
560.058	45724.66
560.258	45816.82
560.457	45640.69
560.656	45753.33
560.855	45872.11
561.054	45718.51
561.253	45540.34
561.453	45638.64
561.652	45960.17
561.851	45728.75
562.05	45437.94
562.249	45925.36
562.448	45452.28
562.647	45003.77
562.846	45333.49
563.045	45173.75
563.244	44837.89
563.443	45536.24
563.642	44510.21
563.841	44915.71
564.04	44827.65
564.239	44954.62
564.438	44379.14
564.637	44848.13
564.836	44782.59
565.035	44641.28
565.234	44352.52
565.432	44585.99
565.631	44248.07
565.83	44561.41
566.029	44368.9
566.228	44123.15
566.427	44061.71
566.625	43834.38
566.824	43486.23
567.023	44108.81
567.222	43324.44
567.42	44241.93
567.619	43525.14
567.818	43510.8
568.016	43461.65
568.215	44135.43
568.414	43097.11
568.612	43918.35
568.811	42720.29
569.01	43795.47
569.208	42771.49
569.407	43656.21
569.605	42675.23
569.804	43383.83
570.002	43029.53
570.201	42816.54
570.4	42501.15
570.598	42175.53
570.797	42310.69
570.995	42488.87
571.193	41753.65
571.392	42484.77
571.59	42066.98
571.789	42339.36
571.987	42079.27
572.186	41980.97
572.384	41794.6
572.582	41958.44
572.781	41468.98
572.979	41403.44
573.177	41546.8
573.376	41948.2
573.574	41288.76
573.772	41456.69
573.971	40885.31
574.169	40797.24
574.367	41030.71
574.565	41380.92
574.763	40836.16
574.962	41159.73
575.16	40770.62
575.358	40627.26
575.556	40410.18
575.754	41006.14
575.952	40459.33
576.151	40444.99
576.349	39978.06
576.547	40172.61
576.745	40076.36
576.943	39803.98
577.141	40125.51
577.339	40129.61
577.537	39556.18
577.735	39545.94
577.933	39418.96
578.131	39765.07
578.329	39320.66
578.527	39205.97
578.725	39443.54
578.923	39324.75
579.121	38941.78
579.319	38992.98
579.516	39175.25
579.714	38564.96
579.912	39019.61
580.11	38433.89
580.308	38685.79
580.506	38880.35
580.704	38239.33
580.901	38650.97
581.099	38392.93
581.297	37850.22
581.495	38022.25
581.692	38069.35
581.89	37536.88
582.088	38018.15
582.285	37446.77
582.483	37864.55
582.681	37604.46
582.878	37354.61
583.076	37069.94
583.274	37366.9
583.471	36959.35
583.669	36863.1
583.866	37205.11
584.064	36953.21
584.262	36893.82
584.459	37244.02
584.657	36621.44
584.854	36676.73
585.052	36209.79
585.249	36566.14
585.447	36340.86
585.644	36015.24
585.841	36076.68
586.039	36281.47
586.236	35552.4
586.434	35851.4
586.631	35796.1
586.828	35849.35
587.026	35638.41
587.223	35619.98
587.42	35374.22
587.618	35159.19
587.815	34997.4
588.012	35001.49
588.21	35353.74
588.407	35595.4
588.604	35009.68
588.801	34505.88
588.999	34946.2
589.196	34555.04
589.393	34442.4
589.59	34497.69
589.787	34129.06
589.984	34661.53
590.182	34092.19
590.379	34096.29
590.576	33965.22
590.773	34172.07
590.97	33465.52
591.167	33766.57
591.364	33486
591.561	33553.58
591.758	33064.11
591.955	33424.56
592.152	33701.03
592.349	33117.36
592.546	33424.56
592.743	33506.48
592.94	32625.85
593.137	32572.6
593.334	32892.08
593.531	32214.21
593.727	32586.94
593.924	32355.52
594.121	32261.31
594.318	32394.43
594.515	32152.77
594.712	32142.53
594.908	32128.19
595.105	31831.24
595.302	31470.79
595.499	31823.05
595.696	31571.14
595.892	31274.19
596.089	31524.04
596.286	31552.71
596.482	31503.56
596.679	31096.02
596.876	31597.77
597.072	31100.11
597.269	30901.46
597.466	30993.62
597.662	30782.68
597.859	30708.95
598.055	30524.63
598.252	30870.74
598.448	30661.85
598.645	30616.79
598.841	30186.72
599.038	30414.04
599.234	30129.37
599.431	29930.72
599.627	30131.42
599.824	30166.24
600.02	29801.7
600.217	29617.38
600.413	29410.54
600.609	29388.01
600.806	29484.26
601.002	29310.19
601.198	29394.15
601.395	29103.34
601.591	29017.33
601.787	29070.58
601.984	28620.02
602.18	29025.52
602.376	29000.94
602.572	28263.68
602.769	28644.6
602.965	28466.42
603.161	28499.19
603.357	28206.33
603.553	28286.2
603.75	28224.76
603.946	28159.23
604.142	28044.54
604.338	28130.56
604.534	28019.97
604.73	27749.64
604.926	27589.89
605.122	27704.58
605.318	27366.67
605.514	27057.42
605.71	27411.72
605.906	27251.98
606.102	27370.76
606.298	27200.78
606.494	27055.37
606.69	27161.87
606.886	27213.07
607.082	26926.35
607.278	26639.64
607.474	26737.94
607.67	27168.01
607.866	26373.4
608.062	26625.3
608.257	26680.6
608.453	26764.56
608.649	26094.88
608.845	26131.74
609.041	26412.31
609.236	26793.23
609.432	25955.61
609.628	26285.34
609.824	26072.35
610.019	25718.05
610.215	26033.44
610.411	26137.88
610.606	25494.82
610.802	25742.63
610.998	26053.92
611.193	25847.07
611.389	25754.91
611.584	25754.91
611.78	25793.83
611.976	25980.19
612.171	25580.84
612.367	25300.26
612.562	25212.2
612.758	25412.9
612.953	24956.21
613.149	25263.4
613.344	25031.98
613.539	25347.37
613.735	25048.36
613.93	25220.39
614.126	25003.31
614.321	24966.45
614.517	24849.71
614.712	25099.56
614.907	24616.24
615.103	24841.52
615.298	24655.15
615.493	24855.86
615.688	24563
615.884	24999.21
616.079	24747.31
616.274	24892.72
616.47	24601.91
616.665	24749.36
616.86	24606
617.055	24481.08
617.25	24358.2
617.445	24442.17
617.641	23862.59
617.836	24388.92
618.031	24032.57
618.226	23833.92
618.421	23838.01
618.616	23844.16
618.811	23629.12
619.006	23979.32
619.201	23409.99
619.396	23561.54
619.591	23246.15
619.786	23373.13
619.981	23102.79
620.176	23391.56
620.371	22908.24
620.566	23223.62
620.761	23020.88
620.956	23053.64
621.151	22826.32
621.346	22848.85
621.541	22369.62
621.735	22758.74
621.93	22365.53
622.125	22388.05
622.32	22011.23
622.515	22132.06
622.709	21904.73
622.904	21935.45
623.099	21785.95
623.294	21761.37
623.488	21552.48
623.683	21321.06
623.878	21235.05
624.072	21308.77
624.267	21323.11
624.462	20878.7
624.656	20809.07
624.851	20876.65
625.046	20563.31
625.24	20475.25
625.435	20192.63
625.629	20282.74
625.824	20219.25
626.018	20282.74
626.213	19770.75
626.407	19850.62
626.602	19852.67
626.796	19824
626.991	19457.41
627.185	19576.19
627.38	19324.29
627.574	19512.7
627.768	19174.79
627.963	18836.88
628.157	18601.36
628.352	19096.97
628.546	18484.62
628.74	18584.98
628.935	18515.34
629.129	18763.15
629.323	17993.11
629.517	18386.32
629.712	18081.17
629.906	18085.27
630.1	17841.56
630.294	17958.3
630.489	17667.49
630.683	17917.34
630.877	17200.55
631.071	17597.85
631.265	17472.93
631.459	17274.28
631.653	17446.3
631.848	17192.36
632.042	17057.19
632.236	17235.36
632.43	16651.69
632.624	16680.36
632.818	16557.49
633.012	16590.25
633.206	16354.74
633.4	16469.42
633.594	16223.67
633.788	16215.48
633.982	16289.2
634.176	16248.24
634.369	16244.15
634.563	16092.6
634.757	15744.44
634.951	15898.04
635.145	15728.06
635.339	15961.53
635.533	15431.1
635.726	15564.22
635.92	15424.96
636.114	15531.45
636.308	15287.75
636.501	14953.93
636.695	15166.92
636.889	15029.7
637.083	15091.14
637.276	15091.14
637.47	14988.74
637.664	14740.94
637.857	14673.35
638.051	14454.22
638.244	14495.18
638.438	14360.02
638.632	14230.99
638.825	14511.57
639.019	14212.56
639.212	14110.16
639.406	14304.72
639.599	13884.89
639.793	13876.69
639.986	13624.79
640.18	13919.7
640.373	13790.68
640.567	13626.84
640.76	13360.61
640.954	13225.44
641.147	13311.46
641.34	13522.4
641.534	13131.23
641.727	13231.58
641.92	13098.47
642.114	13069.8
642.307	12957.16
642.5	12666.35
642.694	12760.55
642.887	12590.57
643.08	13084.13
643.273	12672.49
643.467	12801.51
643.66	12623.34
643.853	12414.45
644.046	12033.52
644.239	12447.21
644.432	12256.75
644.626	12377.58
644.819	12228.08
645.012	12146.16
645.205	12002.8
645.398	12037.62
645.591	11834.87
645.784	12111.35
645.977	11742.71
646.17	11804.15
646.363	11738.62
646.556	11562.49
646.749	11703.8
646.942	11415.04
647.135	11392.51
647.328	11615.74
647.521	11216.38
647.714	10972.68
647.907	11220.48
648.099	10921.48
648.292	11206.14
648.485	11142.66
648.678	10917.38
648.871	10714.63
649.064	10882.56
649.256	10821.13
649.449	10814.98
649.642	10649.1
649.835	10714.63
650.027	10542.6
650.22	10411.53
650.413	10522.12
650.605	10497.55
650.798	10419.72
650.991	10302.99
651.183	10180.11
651.376	10145.3
651.568	10063.38
651.761	10016.27
651.954	10151.44
652.146	9881.11
652.339	9956.88
652.531	9813.52
652.724	9788.95
652.916	9645.59
653.109	9676.31
653.301	9551.38
653.494	9874.96
653.686	9324.06
653.879	9522.71
654.071	9649.69
654.263	9491.99
654.456	9502.23
654.648	9397.79
654.84	9098.78
655.033	9221.66
655.225	8998.43
655.417	9049.63
655.61	9260.57
655.802	9090.59
655.994	8953.38
656.186	8957.47
656.379	8873.51
656.571	9041.44
656.763	8787.49
656.955	8896.03
657.148	8826.4
657.34	8734.25
657.532	8754.73
657.724	8599.08
657.916	8619.56
658.108	8453.67
658.3	8277.55
658.492	8558.12
658.684	8304.17
658.876	8300.08
659.068	8242.73
659.26	8212.01
659.452	8261.16
659.644	8216.11
659.836	8111.66
660.028	8140.33
660.22	8019.5
660.412	8177.2
660.604	8244.78
660.796	7775.8
660.988	7960.11
661.18	7814.71
661.372	7644.73
661.563	7806.52
661.755	7675.45
661.947	7544.38
662.139	7503.42
662.331	7523.9
662.522	7462.46
662.714	7454.26
662.906	7323.19
663.097	7179.84
663.289	7511.61
663.481	7269.95
663.673	7298.62
663.864	7048.77
664.056	7362.11
664.247	7183.93
664.439	7212.6
664.631	6985.28
664.822	7130.69
665.014	7214.65
665.205	6993.47
665.397	7003.71
665.588	6854.21
665.78	6864.45
665.971	6860.35
666.163	6778.44
666.354	6925.89
666.546	6766.15
666.737	6848.07
666.929	6688.32
667.12	6794.82
667.311	6581.83
667.503	6559.3
667.694	6725.19
667.885	6508.1
668.077	6469.19
668.268	6440.52
668.459	6463.05
668.651	6422.09
668.842	6422.09
669.033	6352.46
669.224	6278.73
669.416	6262.35
669.607	6270.54
669.798	6317.64
669.989	6288.97
670.18	6135.37
670.371	6108.75
670.563	5910.1
670.754	6100.56
670.945	5957.2
671.136	5959.25
671.327	5932.62
671.518	6035.02
671.709	5807.7
671.9	5858.9
672.091	5969.49
672.282	5891.66
672.473	5869.14
672.664	5953.1
672.855	5746.26
673.046	5848.66
673.237	5805.65
673.428	5746.26
673.619	5787.22
673.809	5391.96
674	5660.24
674.191	5705.3
674.382	5529.17
674.573	5574.23
674.764	5533.27
674.954	5568.09
675.145	5502.55
675.336	5578.33
675.527	5357.14
675.717	5551.7
675.908	5502.55
676.099	5480.02
676.289	5488.21
676.48	5365.34
676.671	5295.71
676.861	5371.48
677.052	5414.49
677.243	5379.67
677.433	5230.17
677.624	5252.7
677.814	5226.07
678.005	5264.99
678.195	5240.41
678.386	5068.38
678.576	5054.05
678.767	5119.58
678.957	5013.09
679.148	5219.93
679.338	5140.06
679.529	5027.42
679.719	4970.08
679.909	5056.09
680.1	5072.48
680.29	4900.45
680.481	5017.18
680.671	4953.7
680.861	5002.85
681.052	5082.72
681.242	4974.17
681.432	4939.36
681.622	4822.63
681.813	4755.04
682.003	4779.62
682.193	4718.18
682.383	4976.22
682.573	4773.47
682.764	4740.71
682.954	4552.29
683.144	4714.08
683.334	4693.6
683.524	4763.23
683.714	4693.6
683.904	4511.33
684.094	4847.2
684.284	4662.88
684.474	4601.44
684.664	4673.12
684.854	4544.1
685.044	4552.29
685.234	4542.05
685.424	4497
685.614	4429.42
685.804	4499.05
685.994	4453.99
686.184	4429.42
686.374	4398.7
686.564	4361.83
686.753	4292.2
686.943	4312.68
687.133	4324.97
687.323	4347.5
687.513	4132.46
687.702	4173.42
687.892	4214.38
688.082	4257.39
688.272	4255.34
688.461	4204.14
688.651	4044.4
688.841	4087.4
689.03	4208.23
689.22	4075.12
689.41	4148.84
689.599	4165.23
689.789	4175.47
689.979	4060.78
690.168	3915.37
690.358	4056.68
690.547	3890.8
690.737	4013.68
690.926	3962.48
691.116	3831.41
691.305	3950.19
691.495	3950.19
691.684	3862.13
691.874	3845.74
692.063	3853.94
692.252	3714.67
692.442	3776.11
692.631	3710.58
692.82	3712.63
693.01	3704.43
693.199	3581.56
693.388	3671.67
693.578	3649.14
693.767	3556.98
693.956	3561.08
694.146	3563.12
694.335	3518.07
694.524	3518.07
694.713	3522.16
694.902	3446.39
695.092	3458.68
695.281	3450.49
695.47	3452.53
695.659	3540.6
695.848	3485.3
696.037	3513.97
696.226	3397.24
696.415	3409.53
696.604	3333.75
696.793	3313.27
696.982	3387
697.171	3307.13
697.36	3257.98
697.549	3313.27
697.738	3315.32
697.927	3198.59
698.116	3227.26
698.305	3204.73
698.494	3292.79
698.683	3296.89
698.872	3219.07
699.061	3214.97
699.25	3251.83
699.438	3272.31
699.627	3268.22
699.816	3243.64
700.005	3149.43
700.193	3120.76
700.382	3075.71
700.571	3137.15
700.76	3012.22
700.948	2995.84
701.137	3104.38
701.326	3227.26
701.514	3124.86
701.703	2938.49
701.892	3063.42
702.08	2993.79
702.269	3106.43
702.457	3151.48
702.646	2940.54
702.834	2961.02
703.023	2961.02
703.212	2985.6
703.4	2979.45
703.589	3010.17
703.777	3018.36
703.965	3001.98
704.154	2901.63
704.342	2844.29
704.531	2942.59
704.719	2911.87
704.907	2973.31
705.096	2985.6
705.284	2913.92
705.472	2860.67
705.661	2946.69
705.849	2928.25
706.037	2977.41
706.226	2911.87
706.414	2883.2
706.602	2838.14
706.79	2924.16
706.979	2854.53
707.167	2895.49
707.355	2942.59
707.543	2903.68
707.731	2950.78
707.919	2825.86
708.107	2743.94
708.296	2907.77
708.484	2702.98
708.672	2791.04
708.86	2942.59
709.048	2840.19
709.236	2832
709.424	2772.61
709.612	2805.38
709.8	2823.81
709.988	2686.59
710.176	2913.92
710.364	2770.56
710.551	2784.9
710.739	2827.9
710.927	2743.94
711.115	2854.53
711.303	2854.53
711.491	2760.32
711.679	2698.88
711.866	2793.09
712.054	2862.72
712.242	2768.51
712.43	2862.72
712.617	2768.51
712.805	2801.28
712.993	2733.7
713.181	2803.33
713.368	2926.21
713.556	2840.19
713.744	2836.1
713.931	2889.34
714.119	2877.05
714.306	2809.47
714.494	2803.33
714.682	2739.84
714.869	2731.65
715.057	2782.85
715.244	2791.04
715.432	2913.92
715.619	2731.65
715.807	2705.03
715.994	2825.86
716.182	2827.9
716.369	2731.65
716.556	2764.42
716.744	2768.51
716.931	2723.46
717.119	2766.46
717.306	2801.28
717.493	2559.62
717.681	2762.37
717.868	2682.5
718.055	2715.27
718.242	2727.55
718.43	2774.66
718.617	2817.66
718.804	2809.47
718.991	2731.65
719.179	2850.43
719.366	2690.69
719.553	2823.81
719.74	2643.59
719.927	2680.45
720.114	2698.88
720.301	2668.16
720.488	2758.27
720.676	2610.82
720.863	2682.5
721.05	2758.27
721.237	2750.08
721.424	2696.83
721.611	2768.51
721.798	2612.87
721.985	2619.01
722.172	2748.03
722.358	2662.02
722.545	2733.7
722.732	2686.59
722.919	2702.98
723.106	2647.68
723.293	2795.14
723.48	2633.35
723.667	2616.96
723.853	2651.78
724.04	2633.35
724.227	2768.51
724.414	2723.46
724.6	2682.5
724.787	2762.37
724.974	2772.61
725.161	2631.3
725.347	2717.31
725.534	2735.74
725.72	2705.03
725.907	2664.07
726.094	2717.31
726.28	2586.24
726.467	2588.29
726.653	2625.15
726.84	2676.35
727.027	2672.26
727.213	2756.22
727.4	2694.79
727.586	2662.02
727.773	2653.83
727.959	2664.07
728.145	2645.63
728.332	2672.26
728.518	2735.74
728.705	2625.15
728.891	2633.35
729.077	2739.84
729.264	2705.03
729.45	2627.2
729.636	2752.13
729.823	2590.34
730.009	2733.7
730.195	2739.84
730.382	2666.11
730.568	2537.09
730.754	2592.39
730.94	2707.07
731.126	2678.4
731.313	2715.27
731.499	2530.95
731.685	2801.28
731.871	2662.02
732.057	2623.11
732.243	2619.01
732.429	2537.09
732.615	2582.15
732.801	2553.48
732.987	2674.31
733.173	2659.97
733.359	2461.32
733.545	2545.28
733.731	2551.43
733.917	2598.53
734.103	2551.43
734.289	2682.5
734.475	2555.52
734.661	2582.15
734.847	2561.67
735.033	2553.48
735.219	2631.3
735.404	2576
735.59	2633.35
735.776	2530.95
735.962	2475.65
736.148	2473.6
736.333	2545.28
736.519	2498.18
736.705	2533
736.89	2418.31
737.076	2506.37
737.262	2477.7
737.447	2569.86
737.633	2399.88
737.819	2543.24
738.004	2528.9
738.19	2444.93
738.375	2475.65
738.561	2565.76
738.747	2299.53
738.932	2432.65
739.118	2471.56
739.303	2324.1
739.489	2406.02
739.674	2356.87
739.859	2330.25
740.045	2346.63
740.23	2326.15
740.416	2379.4
740.601	2348.68
740.786	2301.58
740.972	2317.96
741.157	2233.99
741.342	2428.55
741.528	2322.06
741.713	2311.82
741.898	2287.24
742.084	2254.47
742.269	2332.3
742.454	2289.29
742.639	2338.44
742.824	2322.06
743.01	2297.48
743.195	2315.91
743.38	2205.32
743.565	2219.66
743.75	2182.79
743.935	2160.27
744.12	2186.89
744.305	2215.56
744.49	2182.79
744.675	2215.56
744.86	2117.26
745.045	2223.75
745.23	2135.69
745.415	2113.16
745.6	2158.22
745.785	2104.97
745.97	2047.63
746.155	2162.31
746.34	2211.46
746.525	2041.48
746.71	2199.18
746.895	2102.92
747.079	2047.63
747.264	1945.23
747.449	2072.2
747.634	2119.31
747.819	1922.7
748.003	2002.57
748.188	1937.04
748.373	1937.04
748.557	1988.24
748.742	1959.56
748.927	1941.13
749.111	1799.82
749.296	1990.28
749.481	1941.13
749.665	1781.39
749.85	1734.29
750.034	1883.79
750.219	1814.16
750.404	1836.69
750.588	1834.64
750.773	1865.36
750.957	1842.83
751.141	1722
751.326	1787.54
751.51	1756.82
751.695	1810.06
751.879	1754.77
752.064	1621.65
752.248	1754.77
752.432	1625.75
752.617	1728.14
752.801	1676.95
752.985	1666.71
753.17	1724.05
753.354	1609.36
753.538	1668.75
753.722	1566.35
753.907	1625.75
754.091	1623.7
754.275	1642.13
754.459	1633.94
754.643	1556.11
754.828	1545.88
755.012	1572.5
755.196	1490.58
755.38	1492.63
755.564	1584.79
755.748	1504.92
755.932	1484.44
756.116	1490.58
756.3	1418.9
756.484	1472.15
756.668	1435.28
756.852	1478.29
757.036	1400.47
757.22	1328.79
757.404	1441.43
757.588	1425.04
757.772	1396.37
757.956	1298.07
758.14	1427.09
758.323	1431.19
758.507	1310.36
758.691	1291.93
758.875	1343.13
759.059	1347.22
759.242	1347.22
759.426	1302.17
759.61	1277.59
759.794	1361.56
759.977	1353.37
760.161	1361.56
760.345	1310.36
760.528	1269.4
760.712	1371.8
760.895	1222.3
761.079	1300.12
761.263	1183.38
761.446	1238.68
761.63	1171.1
761.813	1220.25
761.997	1179.29
762.18	1265.3
762.364	1164.95
762.547	1216.15
762.731	1214.1
762.914	1138.33
763.098	1109.66
763.281	1076.89
763.464	1121.95
763.648	1183.38
763.831	1154.71
764.015	1056.41
764.198	1210.01
764.381	1128.09
764.564	1072.79
764.748	1134.23
764.931	1099.42
765.114	1154.71
765.297	1150.62
765.481	1056.41
765.664	1158.81
765.847	1136.28
766.03	1185.43
766.213	1072.79
766.397	951.96
766.58	1050.27
766.763	1042.07
766.946	1035.93
767.129	1015.45
767.312	1042.07
767.495	1111.71
767.678	1013.4
767.861	988.83
768.044	1015.45
768.227	1001.12
768.41	1023.64
768.593	1031.83
768.776	984.73
768.959	984.73
769.142	990.88
769.324	915.1
769.507	1027.74
769.69	1015.45
769.873	1035.93
770.056	1007.26
770.239	931.48
770.421	954.01
770.604	1093.27
770.787	1058.46
770.97	1003.16
771.152	857.76
771.335	992.92
771.518	913.05
771.7	925.34
771.883	900.76
772.066	892.57
772.248	925.34
772.431	974.49
772.613	980.64
772.796	790.17
772.978	984.73
773.161	921.24
773.343	962.2
773.526	859.81
773.708	906.91
773.891	861.85
774.073	896.67
774.256	884.38
774.438	921.24
774.621	851.61
774.803	831.13
774.985	769.69
775.168	872.09
775.35	863.9
775.532	857.76
775.715	818.85
775.897	728.74
776.079	794.27
776.261	851.61
776.444	812.7
776.626	798.37
776.808	738.98
776.99	722.59
777.173	730.78
777.355	773.79
777.537	771.74
777.719	743.07
777.901	695.97
778.083	831.13
778.265	736.93
778.447	747.17
778.629	710.3
778.811	736.93
778.993	716.45
779.175	712.35
779.357	724.64
779.539	704.16
779.721	706.21
779.903	650.91
780.085	728.74
780.267	734.88
780.449	700.06
780.631	695.97
780.812	769.69
780.994	638.62
781.176	700.06
781.358	685.73
781.54	669.34
781.721	558.75
781.903	626.34
782.085	564.9
782.267	710.3
782.448	577.19
782.63	648.86
782.812	628.39
782.993	542.37
783.175	626.34
783.357	632.48
783.538	566.95
783.72	581.28
783.901	581.28
784.083	546.47
784.264	530.08
784.446	616.1
784.627	521.89
784.809	620.19
784.99	589.47
785.172	573.09
785.353	491.17
785.535	523.94
785.716	603.81
785.897	464.55
786.079	530.08
786.26	499.36
786.441	575.14
786.623	515.75
786.804	523.94
786.985	515.75
787.167	442.02
787.348	480.93
787.529	474.79
787.71	542.37
787.891	466.6
788.073	480.93
788.254	442.02
788.435	495.27
788.616	507.55
788.797	454.31
788.978	413.35
789.159	427.68
789.34	417.44
789.522	460.45
789.703	474.79
789.884	394.92
790.065	415.4
790.246	472.74
790.427	433.83
790.607	413.35
790.788	448.16
790.969	431.78
791.15	454.31
791.331	466.6
791.512	413.35
791.693	343.72
791.874	407.2
792.054	480.93
792.235	448.16
792.416	407.2
792.597	407.2
792.778	401.06
792.958	368.29
793.139	423.59
793.32	358.05
793.5	384.68
793.681	431.78
793.862	421.54
794.042	433.83
794.223	376.48
794.404	331.43
794.584	339.62
794.765	323.24
794.945	382.63
795.126	407.2
795.306	405.16
795.487	327.33
795.667	308.9
795.848	372.39
796.028	376.48
796.209	345.77
796.389	300.71
796.57	339.62
796.75	263.85
796.93	288.42
797.111	263.85
797.291	317.09
797.471	341.67
797.652	239.27
797.832	308.9
798.012	321.19
798.192	335.53
798.373	308.9
798.553	272.04
798.733	327.33
798.913	253.61
799.093	284.33
799.274	319.14
799.454	335.53
799.634	282.28
799.814	327.33
799.994	288.42
800.174	343.72
800.354	335.53
800.534	278.18
800.714	269.99
800.894	224.94
801.074	196.26
801.254	274.09
801.434	333.48
801.614	272.04
801.794	306.85
801.974	663.2
802.154	286.37
802.334	360.1
802.514	257.7
802.693	241.32
802.873	253.61
803.053	347.81
803.233	261.8
803.413	247.46
803.592	265.89
803.772	288.42
803.952	222.89
804.131	298.66
804.311	310.95
804.491	233.13
804.67	298.66
804.85	224.94
805.03	183.98
805.209	302.76
805.389	183.98
805.568	274.09
805.748	249.51
805.928	257.7
806.107	218.79
806.287	237.22
806.466	190.12
806.646	192.17
806.825	210.6
807.004	235.18
807.184	282.28
807.363	251.56
807.543	224.94
807.722	218.79
807.901	259.75
808.081	233.13
808.26	243.37
808.439	233.13
808.619	325.29
808.798	226.98
808.977	222.89
809.156	247.46
809.336	233.13
809.515	290.47
809.694	218.79
809.873	186.02
810.052	231.08
810.231	239.27
810.411	167.59
810.59	208.55
810.769	183.98
810.948	200.36
811.127	165.54
811.306	208.55
811.485	132.78
811.664	229.03
811.843	143.02
812.022	124.58
812.201	175.78
812.38	128.68
812.559	198.31
812.737	167.59
812.916	278.18
813.095	231.08
813.274	183.98
813.453	163.5
813.632	165.54
813.811	259.75
813.989	130.73
814.168	210.6
814.347	118.44
814.526	229.03
814.704	218.79
814.883	257.7
815.062	173.74
815.24	188.07
815.419	171.69
815.598	177.83
815.776	102.06
815.955	181.93
816.133	89.77
816.312	100.01
816.49	149.16
816.669	192.17
816.847	188.07
817.026	229.03
817.204	147.11
817.383	126.63
817.561	173.74
817.74	196.26
817.918	198.31
818.097	85.67
818.275	235.18
818.453	163.5
818.632	179.88
818.81	183.98
818.988	89.77
819.167	169.64
819.345	165.54
819.523	145.06
819.701	89.77
819.879	196.26
820.058	147.11
820.236	167.59
820.414	149.16
820.592	161.45
820.77	120.49
820.948	100.01
821.127	95.91
821.305	151.21
821.483	110.25
821.661	112.3
821.839	155.3
822.017	118.44
822.195	167.59
822.373	130.73
822.551	65.19
822.729	204.46
822.907	114.34
823.085	73.39
823.262	147.11
823.44	120.49
823.618	100.01
823.796	108.2
823.974	128.68
824.152	198.31
824.329	157.35
824.507	163.5
824.685	136.87
824.863	79.53
825.04	106.15
825.218	134.82
825.396	130.73
825.574	104.11
825.751	91.82
825.929	106.15
826.107	73.39
826.284	59.05
826.462	151.21
826.639	108.2
826.817	71.34
826.994	102.06
827.172	147.11
827.349	132.78
827.527	169.64
827.704	149.16
827.882	85.67
828.059	104.11
828.237	87.72
828.414	157.35
828.591	110.25
828.769	153.26
828.946	89.77
829.124	138.92
829.301	87.72
829.478	179.88
829.655	67.24
829.833	163.5
830.01	75.43
830.187	120.49
830.364	57
830.542	106.15
830.719	97.96
830.896	89.77
831.073	155.3
831.25	81.58
831.427	136.87
831.604	97.96
831.782	65.19
831.959	122.54
832.136	87.72
832.313	77.48
832.49	93.87
832.667	159.4
832.844	77.48
833.021	95.91
833.198	140.97
833.374	57
833.551	95.91
833.728	65.19
833.905	114.34
834.082	-4.44
834.259	97.96
834.436	183.98
834.612	153.26
834.789	114.34
834.966	100.01
835.143	167.59
835.319	28.33
835.496	132.78
835.673	122.54
835.85	147.11
836.026	128.68
836.203	97.96
836.38	73.39
836.556	159.4
836.733	44.71
836.909	104.11
837.086	-2.39
837.262	116.39
837.439	106.15
837.616	116.39
837.792	73.39
837.968	136.87
838.145	69.29
838.321	13.99
838.498	97.96
838.674	104.11
838.851	24.23
839.027	136.87
839.203	75.43
839.38	89.77
839.556	40.62
839.732	95.91
839.909	63.15
840.085	104.11
840.261	40.62
840.437	114.34
840.614	9.9
840.79	100.01
840.966	57
841.142	50.86
841.318	112.3
841.494	155.3
841.671	97.96
841.847	5.8
842.023	36.52
842.199	95.91
842.375	114.34
842.551	54.95
842.727	65.19
842.903	83.63
843.079	36.52
843.255	63.15
843.431	97.96
843.607	81.58
843.783	85.67
843.959	63.15
844.134	28.33
844.31	77.48
844.486	79.53
844.662	95.91
844.838	65.19
845.013	112.3
845.189	42.67
845.365	93.87
845.541	81.58
845.716	73.39
845.892	40.62
846.068	-10.58
846.244	97.96
846.419	81.58
846.595	20.14
846.77	116.39
846.946	46.76
847.122	42.67
847.297	-24.92
847.473	161.45
847.648	44.71
847.824	67.24
847.999	57
848.175	104.11
848.35	100.01
848.526	93.87
848.701	28.33
848.876	59.05
849.052	50.86
849.227	59.05
849.403	7.85
849.578	13.99
849.753	163.5
849.929	138.92
850.104	5.8
850.279	71.34
850.454	40.62
850.63	87.72
850.805	42.67
850.98	54.95
851.155	97.96
851.33	91.82
851.505	28.33
851.681	24.23
851.856	32.43
852.031	114.34
852.206	128.68
852.381	30.38
852.556	93.87
852.731	36.52
852.906	38.57
853.081	13.99
853.256	118.44
853.431	81.58
853.606	3.75
853.781	73.39
853.956	13.99
854.131	32.43
854.305	-2.39
854.48	20.14
854.655	22.19
854.83	32.43
855.005	57
855.18	91.82
855.354	87.72
855.529	11.95
855.704	65.19
855.879	89.77
856.053	106.15
856.228	52.91
856.403	44.71
856.577	81.58
856.752	71.34
856.926	75.43
857.101	110.25
857.276	85.67
857.45	87.72
857.625	40.62
857.799	26.28
857.974	61.1
858.148	13.99
858.323	81.58
858.497	22.19
858.672	122.54
858.846	75.43
859.02	120.49
859.195	59.05
859.369	83.63
859.543	32.43
859.718	46.76
859.892	93.87
860.066	110.25
860.241	-0.34
860.415	20.14
860.589	-24.92
860.763	54.95
860.938	-14.68
861.112	71.34
861.286	-29.01
861.46	79.53
861.634	50.86
861.808	13.99
861.982	32.43
862.157	30.38
862.331	20.14
862.505	52.91
862.679	95.91
862.853	-20.82
863.027	44.71
863.201	-10.58
863.375	36.52
863.549	93.87
863.722	44.71
863.896	59.05
864.07	22.19
864.244	24.23
864.418	9.9
864.592	108.2
864.766	65.19
864.939	71.34
865.113	-6.49
865.287	-43.35
865.461	5.8
865.634	134.82
865.808	3.75
865.982	69.29
866.156	44.71
866.329	89.77
866.503	54.95
866.676	16.04
866.85	-2.39
867.024	34.47
867.197	11.95
867.371	75.43
867.544	26.28
867.718	-59.73
867.891	28.33
868.065	20.14
868.238	-0.34
868.412	38.57
868.585	-8.53
868.759	36.52
868.932	32.43
869.105	9.9
869.279	5.8
869.452	73.39
869.625	40.62
869.799	54.95
869.972	-33.11
870.145	100.01
870.319	-24.92
870.492	-33.11
870.665	50.86
870.838	-12.63
871.011	-22.87
871.185	36.52
871.358	-41.3
871.531	54.95
871.704	-12.63
871.877	11.95
872.05	52.91
872.223	-6.49
872.396	87.72
872.569	77.48
872.742	83.63
872.915	57
873.088	-20.82
873.261	11.95
873.434	18.09
873.607	13.99
873.78	5.8
873.953	38.57
874.126	50.86
874.299	26.28
874.471	28.33
874.644	-2.39
874.817	-16.73
874.99	89.77
875.163	-10.58
875.335	79.53
875.508	22.19
875.681	106.15
875.853	30.38
876.026	61.1
876.199	16.04
876.371	71.34
876.544	-20.82
876.717	3.75
876.889	-12.63
877.062	83.63
877.234	7.85
877.407	61.1
877.579	22.19
877.752	11.95
877.924	57
878.097	46.76
878.269	54.95
878.442	40.62
878.614	34.47
878.786	81.58
878.959	36.52
879.131	30.38
879.303	7.85
879.476	79.53
879.648	-47.44
879.82	38.57
879.993	13.99
880.165	13.99
880.337	24.23
880.509	18.09
880.681	38.57
880.854	54.95
881.026	7.85
881.198	57
881.37	-22.87
881.542	28.33
881.714	26.28
881.886	46.76
882.058	71.34
882.23	-65.88
882.402	5.8
882.574	71.34
882.746	67.24
882.918	85.67
883.09	-6.49
883.262	71.34
883.434	22.19
883.606	9.9
883.778	11.95
883.95	59.05
884.122	52.91
884.293	16.04
884.465	69.29
884.637	28.33
884.809	3.75
884.98	3.75
885.152	63.15
885.324	106.15
885.496	-18.77
885.667	52.91
885.839	-33.11
886.011	40.62
886.182	-16.73
886.354	50.86
886.525	48.81
886.697	48.81
886.869	40.62
887.04	95.91
887.212	65.19
887.383	52.91
887.555	57
887.726	24.23
887.897	11.95
888.069	-0.34
888.24	22.19
888.412	69.29
888.583	71.34
888.754	3.75
888.926	-20.82
889.097	-41.3
889.268	24.23
889.44	32.43
889.611	30.38
889.782	16.04
889.953	22.19
890.125	93.87
890.296	87.72
890.467	16.04
890.638	11.95
890.809	44.71
890.98	26.28
891.151	32.43
891.323	-8.53
891.494	-20.82
891.665	26.28
891.836	65.19
892.007	-41.3
892.178	-4.44
892.349	20.14
892.52	40.62
892.691	-29.01
892.862	-29.01
893.032	11.95
893.203	40.62
893.374	-22.87
893.545	9.9
893.716	1.71
893.887	85.67
894.057	42.67
894.228	-0.34
894.399	-16.73
894.57	79.53
894.74	-63.83
894.911	18.09
895.082	-6.49
895.253	71.34
895.423	11.95
895.594	7.85
895.764	46.76
895.935	16.04
896.106	-24.92
896.276	65.19
896.447	57
896.617	-0.34
896.788	89.77
896.958	9.9
897.129	7.85
897.299	-24.92
897.47	-0.34
897.64	38.57
897.81	24.23
897.981	52.91
898.151	18.09
898.322	-26.96
898.492	-29.01
898.662	-45.4
898.832	16.04
899.003	-2.39
899.173	-0.34
899.343	-20.82
899.513	-12.63
