Data from USB4F104151__94__11-37-57-177.txt Node

Date: Fri Mar 14 11:37:57 EDT 2025
User: louis
Spectrometer: USB4F10415
Trigger mode: 4
Integration Time (sec): 2.000000E-2
Scans to average: 1
Electric dark correction enabled: true
Nonlinearity correction enabled: false
Boxcar width: 0
XAxis mode: Wavelengths
Number of Pixels in Spectrum: 3648
>>>>>Begin Spectral Data<<<<<
178.204	-31.74
178.424	-31.74
178.644	-31.74
178.864	-103.42
179.084	-41.98
179.304	21.5
179.524	27.65
179.744	3.07
179.964	13.31
180.184	-29.7
180.404	76.8
180.624	-27.65
180.844	29.7
181.064	-101.37
181.283	-25.6
181.503	-1.02
181.723	13.31
181.943	23.55
182.163	9.22
182.383	27.65
182.602	54.27
182.822	13.31
183.042	19.46
183.262	37.89
183.482	19.46
183.701	17.41
183.921	11.26
184.141	78.85
184.361	70.65
184.58	-19.46
184.8	-3.07
185.02	87.04
185.239	52.22
185.459	33.79
185.679	33.79
185.898	52.22
186.118	5.12
186.338	21.5
186.557	80.89
186.777	52.22
186.997	25.6
187.216	80.89
187.436	60.42
187.655	119.81
187.875	84.99
188.095	91.13
188.314	58.37
188.534	-1.02
188.753	19.46
188.973	60.42
189.192	115.71
189.412	-3.07
189.631	80.89
189.851	-25.6
190.07	58.37
190.29	48.13
190.509	41.98
190.729	15.36
190.948	78.85
191.168	76.8
191.387	54.27
191.607	76.8
191.826	68.61
192.045	33.79
192.265	60.42
192.484	-66.56
192.704	44.03
192.923	-35.84
193.142	160.77
193.362	37.89
193.581	64.51
193.8	5.12
194.02	74.75
194.239	-27.65
194.458	62.46
194.678	68.61
194.897	60.42
195.116	-1.02
195.335	101.37
195.555	74.75
195.774	46.08
195.993	78.85
196.212	7.17
196.432	3.07
196.651	97.28
196.87	46.08
197.089	93.18
197.308	31.74
197.528	52.22
197.747	11.26
197.966	97.28
198.185	48.13
198.404	21.5
198.623	-5.12
198.842	60.42
199.062	48.13
199.281	13.31
199.5	-3.07
199.719	19.46
199.938	-19.46
200.157	31.74
200.376	52.22
200.595	13.31
200.814	-9.22
201.033	29.7
201.252	41.98
201.471	-5.12
201.69	68.61
201.909	-3.07
202.128	11.26
202.347	-13.31
202.566	-5.12
202.785	27.65
203.004	31.74
203.223	48.13
203.442	60.42
203.661	68.61
203.879	31.74
204.098	107.52
204.317	-23.55
204.536	-23.55
204.755	35.84
204.974	25.6
205.193	95.23
205.411	52.22
205.63	9.22
205.849	54.27
206.068	-1.02
206.287	64.51
206.505	44.03
206.724	48.13
206.943	62.46
207.162	68.61
207.381	21.5
207.599	17.41
207.818	41.98
208.037	93.18
208.255	33.79
208.474	33.79
208.693	82.94
208.911	56.32
209.13	78.85
209.349	179.2
209.567	39.94
209.786	74.75
210.005	41.98
210.223	130.05
210.442	64.51
210.661	113.66
210.879	91.13
211.098	29.7
211.316	101.37
211.535	56.32
211.753	56.32
211.972	87.04
212.191	46.08
212.409	35.84
212.628	68.61
212.846	19.46
213.065	46.08
213.283	107.52
213.502	27.65
213.72	27.65
213.938	48.13
214.157	15.36
214.375	68.61
214.594	140.29
214.812	-17.41
215.031	46.08
215.249	3.07
215.467	84.99
215.686	5.12
215.904	148.48
216.122	5.12
216.341	76.8
216.559	23.55
216.778	62.46
216.996	60.42
217.214	74.75
217.432	-3.07
217.651	99.33
217.869	9.22
218.087	66.56
218.306	97.28
218.524	23.55
218.742	82.94
218.96	62.46
219.179	56.32
219.397	87.04
219.615	64.51
219.833	66.56
220.051	48.13
220.27	23.55
220.488	80.89
220.706	78.85
220.924	39.94
221.142	17.41
221.36	84.99
221.578	23.55
221.796	56.32
222.015	91.13
222.233	68.61
222.451	44.03
222.669	-1.02
222.887	68.61
223.105	-17.41
223.323	95.23
223.541	3.07
223.759	107.52
223.977	35.84
224.195	46.08
224.413	54.27
224.631	80.89
224.849	-15.36
225.067	-5.12
225.285	62.46
225.503	41.98
225.721	15.36
225.939	5.12
226.157	19.46
226.375	95.23
226.592	3.07
226.81	80.89
227.028	52.22
227.246	64.51
227.464	25.6
227.682	99.33
227.9	74.75
228.117	111.61
228.335	9.22
228.553	72.7
228.771	-5.12
228.989	11.26
229.206	134.14
229.424	37.89
229.642	17.41
229.86	48.13
230.077	33.79
230.295	15.36
230.513	-35.84
230.731	48.13
230.948	80.89
231.166	113.66
231.384	48.13
231.601	93.18
231.819	37.89
232.037	31.74
232.254	50.18
232.472	31.74
232.689	78.85
232.907	54.27
233.125	27.65
233.342	-35.84
233.56	119.81
233.777	78.85
233.995	107.52
234.213	41.98
234.43	52.22
234.648	46.08
234.865	21.5
235.083	62.46
235.3	105.47
235.518	89.09
235.735	41.98
235.953	121.85
236.17	62.46
236.388	113.66
236.605	82.94
236.822	54.27
237.04	19.46
237.257	68.61
237.475	35.84
237.692	60.42
237.909	64.51
238.127	31.74
238.344	84.99
238.562	62.46
238.779	31.74
238.996	93.18
239.214	9.22
239.431	25.6
239.648	27.65
239.865	-17.41
240.083	-3.07
240.3	-11.26
240.517	72.7
240.735	19.46
240.952	7.17
241.169	80.89
241.386	37.89
241.603	56.32
241.821	68.61
242.038	113.66
242.255	21.5
242.472	60.42
242.689	7.17
242.907	-13.31
243.124	48.13
243.341	52.22
243.558	-3.07
243.775	70.65
243.992	101.37
244.209	48.13
244.426	82.94
244.643	93.18
244.86	5.12
245.078	23.55
245.295	74.75
245.512	17.41
245.729	39.94
245.946	82.94
246.163	1.02
246.38	-3.07
246.597	-27.65
246.814	62.46
247.031	64.51
247.248	27.65
247.464	117.76
247.681	84.99
247.898	25.6
248.115	84.99
248.332	105.47
248.549	82.94
248.766	68.61
248.983	84.99
249.2	74.75
249.417	72.7
249.633	9.22
249.85	78.85
250.067	52.22
250.284	39.94
250.501	5.12
250.717	52.22
250.934	15.36
251.151	33.79
251.368	52.22
251.585	33.79
251.801	37.89
252.018	58.37
252.235	7.17
252.451	60.42
252.668	-25.6
252.885	15.36
253.102	84.99
253.318	15.36
253.535	7.17
253.752	21.5
253.968	68.61
254.185	27.65
254.401	-19.46
254.618	60.42
254.835	23.55
255.051	93.18
255.268	58.37
255.484	-9.22
255.701	89.09
255.917	-13.31
256.134	21.5
256.351	89.09
256.567	-3.07
256.784	48.13
257	23.55
257.217	-9.22
257.433	48.13
257.65	66.56
257.866	33.79
258.082	48.13
258.299	-17.41
258.515	25.6
258.732	11.26
258.948	60.42
259.165	-19.46
259.381	87.04
259.597	48.13
259.814	39.94
260.03	48.13
260.246	56.32
260.463	21.5
260.679	56.32
260.895	107.52
261.112	76.8
261.328	39.94
261.544	48.13
261.761	136.19
261.977	23.55
262.193	35.84
262.409	68.61
262.626	25.6
262.842	-11.26
263.058	-9.22
263.274	5.12
263.49	31.74
263.707	33.79
263.923	74.75
264.139	-17.41
264.355	48.13
264.571	46.08
264.787	37.89
265.004	121.85
265.22	7.17
265.436	27.65
265.652	-9.22
265.868	-3.07
266.084	41.98
266.3	35.84
266.516	76.8
266.732	80.89
266.948	37.89
267.164	74.75
267.38	84.99
267.596	29.7
267.812	19.46
268.028	56.32
268.244	44.03
268.46	52.22
268.676	1.02
268.892	-13.31
269.108	91.13
269.324	99.33
269.54	39.94
269.756	80.89
269.972	-29.7
270.188	31.74
270.403	48.13
270.619	41.98
270.835	91.13
271.051	70.65
271.267	-1.02
271.483	82.94
271.698	44.03
271.914	101.37
272.13	48.13
272.346	76.8
272.562	74.75
272.777	82.94
272.993	70.65
273.209	27.65
273.425	31.74
273.64	5.12
273.856	111.61
274.072	82.94
274.287	17.41
274.503	56.32
274.719	130.05
274.934	87.04
275.15	-33.79
275.366	25.6
275.581	11.26
275.797	66.56
276.012	64.51
276.228	72.7
276.444	21.5
276.659	74.75
276.875	52.22
277.09	1.02
277.306	56.32
277.521	91.13
277.737	62.46
277.952	-15.36
278.168	-5.12
278.383	44.03
278.599	27.65
278.814	5.12
279.03	95.23
279.245	134.14
279.461	31.74
279.676	80.89
279.892	64.51
280.107	19.46
280.322	56.32
280.538	54.27
280.753	91.13
280.969	68.61
281.184	33.79
281.399	37.89
281.615	54.27
281.83	78.85
282.045	21.5
282.26	29.7
282.476	121.85
282.691	58.37
282.906	3.07
283.122	-17.41
283.337	54.27
283.552	56.32
283.767	11.26
283.983	78.85
284.198	52.22
284.413	93.18
284.628	35.84
284.843	3.07
285.058	19.46
285.274	64.51
285.489	17.41
285.704	52.22
285.919	-33.79
286.134	15.36
286.349	39.94
286.564	35.84
286.779	162.81
286.995	44.03
287.21	7.17
287.425	84.99
287.64	54.27
287.855	78.85
288.07	74.75
288.285	7.17
288.5	33.79
288.715	105.47
288.93	39.94
289.145	35.84
289.36	52.22
289.575	80.89
289.79	29.7
290.004	54.27
290.219	15.36
290.434	31.74
290.649	66.56
290.864	35.84
291.079	62.46
291.294	68.61
291.509	11.26
291.724	97.28
291.938	11.26
292.153	31.74
292.368	31.74
292.583	41.98
292.798	52.22
293.012	46.08
293.227	19.46
293.442	48.13
293.657	115.71
293.871	111.61
294.086	5.12
294.301	89.09
294.516	19.46
294.73	-21.5
294.945	-1.02
295.16	56.32
295.374	21.5
295.589	60.42
295.804	-1.02
296.018	15.36
296.233	-17.41
296.447	72.7
296.662	101.37
296.877	72.7
297.091	23.55
297.306	52.22
297.52	37.89
297.735	164.86
297.949	35.84
298.164	35.84
298.378	-13.31
298.593	76.8
298.807	5.12
299.022	99.33
299.236	54.27
299.451	52.22
299.665	62.46
299.88	44.03
300.094	17.41
300.309	64.51
300.523	33.79
300.737	50.18
300.952	-23.55
301.166	27.65
301.381	-29.7
301.595	64.51
301.809	95.23
302.024	76.8
302.238	48.13
302.452	84.99
302.667	33.79
302.881	91.13
303.095	70.65
303.309	44.03
303.524	31.74
303.738	66.56
303.952	9.22
304.166	80.89
304.381	19.46
304.595	56.32
304.809	33.79
305.023	-5.12
305.237	84.99
305.452	-17.41
305.666	76.8
305.88	80.89
306.094	91.13
306.308	68.61
306.522	80.89
306.736	87.04
306.95	62.46
307.164	87.04
307.379	95.23
307.593	138.24
307.807	78.85
308.021	103.42
308.235	48.13
308.449	66.56
308.663	-1.02
308.877	78.85
309.091	-33.79
309.305	27.65
309.519	-5.12
309.733	70.65
309.947	62.46
310.161	64.51
310.374	11.26
310.588	89.09
310.802	54.27
311.016	82.94
311.23	-9.22
311.444	58.37
311.658	97.28
311.872	52.22
312.085	39.94
312.299	3.07
312.513	48.13
312.727	76.8
312.941	64.51
313.154	31.74
313.368	111.61
313.582	58.37
313.796	48.13
314.009	113.66
314.223	87.04
314.437	76.8
314.651	-7.17
314.864	56.32
315.078	62.46
315.292	72.7
315.505	23.55
315.719	60.42
315.933	13.31
316.146	99.33
316.36	17.41
316.573	62.46
316.787	101.37
317.001	148.48
317.214	35.84
317.428	29.7
317.641	111.61
317.855	17.41
318.068	31.74
318.282	162.81
318.495	62.46
318.709	60.42
318.922	80.89
319.136	37.89
319.349	87.04
319.563	89.09
319.776	82.94
319.99	60.42
320.203	68.61
320.417	60.42
320.63	29.7
320.843	82.94
321.057	46.08
321.27	52.22
321.483	39.94
321.697	91.13
321.91	54.27
322.124	39.94
322.337	60.42
322.55	31.74
322.763	15.36
322.977	-19.46
323.19	48.13
323.403	46.08
323.617	54.27
323.83	50.18
324.043	68.61
324.256	21.5
324.469	-70.65
324.683	84.99
324.896	-15.36
325.109	80.89
325.322	39.94
325.535	80.89
325.748	95.23
325.962	35.84
326.175	27.65
326.388	52.22
326.601	87.04
326.814	39.94
327.027	27.65
327.24	84.99
327.453	39.94
327.666	62.46
327.879	117.76
328.092	115.71
328.305	7.17
328.518	60.42
328.731	68.61
328.944	72.7
329.157	89.09
329.37	93.18
329.583	68.61
329.796	48.13
330.009	56.32
330.222	89.09
330.435	64.51
330.648	74.75
330.861	27.65
331.073	60.42
331.286	76.8
331.499	101.37
331.712	56.32
331.925	60.42
332.138	60.42
332.35	140.29
332.563	44.03
332.776	25.6
332.989	119.81
333.202	23.55
333.414	-7.17
333.627	19.46
333.84	97.28
334.053	95.23
334.265	21.5
334.478	58.37
334.691	37.89
334.903	7.17
335.116	66.56
335.329	89.09
335.541	48.13
335.754	9.22
335.966	-25.6
336.179	54.27
336.392	37.89
336.604	101.37
336.817	87.04
337.029	91.13
337.242	144.38
337.454	76.8
337.667	93.18
337.88	23.55
338.092	62.46
338.305	70.65
338.517	19.46
338.729	41.98
338.942	121.85
339.154	35.84
339.367	60.42
339.579	130.05
339.792	64.51
340.004	101.37
340.217	58.37
340.429	101.37
340.641	103.42
340.854	58.37
341.066	39.94
341.278	66.56
341.491	-13.31
341.703	11.26
341.915	64.51
342.128	25.6
342.34	101.37
342.552	99.33
342.764	119.81
342.977	109.57
343.189	37.89
343.401	84.99
343.613	76.8
343.826	64.51
344.038	35.84
344.25	72.7
344.462	35.84
344.674	62.46
344.886	31.74
345.099	33.79
345.311	33.79
345.523	48.13
345.735	15.36
345.947	99.33
346.159	117.76
346.371	109.57
346.583	23.55
346.795	76.8
347.007	60.42
347.219	89.09
347.431	19.46
347.643	54.27
347.855	41.98
348.067	35.84
348.279	64.51
348.491	21.5
348.703	140.29
348.915	91.13
349.127	17.41
349.339	80.89
349.551	46.08
349.763	5.12
349.975	19.46
350.187	74.75
350.399	-9.22
350.61	87.04
350.822	23.55
351.034	87.04
351.246	103.42
351.458	91.13
351.669	-11.26
351.881	68.61
352.093	93.18
352.305	103.42
352.517	50.18
352.728	80.89
352.94	31.74
353.152	39.94
353.363	44.03
353.575	121.85
353.787	89.09
353.999	-11.26
354.21	162.81
354.422	50.18
354.633	39.94
354.845	56.32
355.057	11.26
355.268	21.5
355.48	70.65
355.692	15.36
355.903	113.66
356.115	91.13
356.326	52.22
356.538	91.13
356.749	87.04
356.961	146.43
357.172	56.32
357.384	31.74
357.595	80.89
357.807	31.74
358.018	50.18
358.23	62.46
358.441	68.61
358.653	44.03
358.864	142.33
359.075	68.61
359.287	39.94
359.498	99.33
359.709	27.65
359.921	50.18
360.132	68.61
360.344	60.42
360.555	62.46
360.766	-5.12
360.977	101.37
361.189	115.71
361.4	64.51
361.611	93.18
361.823	27.65
362.034	107.52
362.245	154.62
362.456	48.13
362.667	107.52
362.879	46.08
363.09	70.65
363.301	99.33
363.512	7.17
363.723	70.65
363.935	23.55
364.146	70.65
364.357	23.55
364.568	72.7
364.779	60.42
364.99	76.8
365.201	95.23
365.412	66.56
365.623	21.5
365.834	105.47
366.045	72.7
366.256	7.17
366.467	80.89
366.678	103.42
366.889	111.61
367.1	64.51
367.311	113.66
367.522	74.75
367.733	101.37
367.944	111.61
368.155	-1.02
368.366	87.04
368.577	44.03
368.788	91.13
368.999	35.84
369.209	33.79
369.42	99.33
369.631	134.14
369.842	76.8
370.053	41.98
370.264	25.6
370.474	41.98
370.685	56.32
370.896	37.89
371.107	111.61
371.317	72.7
371.528	76.8
371.739	72.7
371.95	160.77
372.16	84.99
372.371	117.76
372.582	31.74
372.792	64.51
373.003	101.37
373.214	121.85
373.424	115.71
373.635	134.14
373.846	70.65
374.056	62.46
374.267	111.61
374.477	76.8
374.688	27.65
374.898	23.55
375.109	41.98
375.319	125.95
375.53	154.62
375.74	93.18
375.951	74.75
376.161	128
376.372	121.85
376.582	123.9
376.793	84.99
377.003	89.09
377.214	109.57
377.424	-1.02
377.635	107.52
377.845	78.85
378.055	91.13
378.266	-41.98
378.476	111.61
378.686	115.71
378.897	72.7
379.107	31.74
379.317	105.47
379.528	146.43
379.738	119.81
379.948	21.5
380.158	128
380.369	138.24
380.579	158.72
380.789	74.75
380.999	125.95
381.21	84.99
381.42	158.72
381.63	80.89
381.84	44.03
382.05	39.94
382.261	89.09
382.471	162.81
382.681	89.09
382.891	78.85
383.101	76.8
383.311	-25.6
383.521	27.65
383.731	136.19
383.941	97.28
384.151	66.56
384.361	84.99
384.571	134.14
384.781	185.34
384.991	64.51
385.201	130.05
385.411	48.13
385.621	72.7
385.831	13.31
386.041	150.53
386.251	80.89
386.461	101.37
386.671	56.32
386.881	142.33
387.091	87.04
387.301	119.81
387.511	25.6
387.72	121.85
387.93	113.66
388.14	113.66
388.35	93.18
388.56	56.32
388.769	152.57
388.979	138.24
389.189	101.37
389.399	66.56
389.609	185.34
389.818	113.66
390.028	41.98
390.238	121.85
390.447	78.85
390.657	121.85
390.867	19.46
391.076	80.89
391.286	195.58
391.496	78.85
391.705	113.66
391.915	121.85
392.125	84.99
392.334	48.13
392.544	142.33
392.753	60.42
392.963	95.23
393.172	121.85
393.382	41.98
393.591	185.34
393.801	146.43
394.01	140.29
394.22	168.96
394.429	101.37
394.639	80.89
394.848	140.29
395.058	72.7
395.267	115.71
395.477	60.42
395.686	128
395.895	103.42
396.105	171.01
396.314	166.91
396.524	113.66
396.733	123.9
396.942	128
397.152	140.29
397.361	125.95
397.57	138.24
397.78	78.85
397.989	97.28
398.198	119.81
398.407	128
398.617	179.2
398.826	158.72
399.035	99.33
399.244	41.98
399.453	183.29
399.663	123.9
399.872	179.2
400.081	93.18
400.29	130.05
400.499	84.99
400.708	164.86
400.917	123.9
401.127	123.9
401.336	183.29
401.545	146.43
401.754	142.33
401.963	185.34
402.172	136.19
402.381	146.43
402.59	195.58
402.799	164.86
403.008	173.05
403.217	232.44
403.426	156.67
403.635	105.47
403.844	179.2
404.053	220.16
404.262	218.11
404.471	199.68
404.68	211.96
404.888	207.87
405.097	160.77
405.306	187.39
405.515	171.01
405.724	154.62
405.933	187.39
406.142	203.77
406.35	232.44
406.559	226.3
406.768	238.59
406.977	250.88
407.185	226.3
407.394	277.5
407.603	265.21
407.812	265.21
408.02	310.27
408.229	297.98
408.438	281.6
408.646	252.92
408.855	259.07
409.064	236.54
409.272	373.75
409.481	347.13
409.69	355.32
409.898	322.56
410.107	439.29
410.315	470.01
410.524	400.38
410.733	498.68
410.941	414.71
411.15	443.39
411.358	414.71
411.567	418.81
411.775	472.06
411.984	525.3
412.192	543.74
412.401	580.6
412.609	586.74
412.818	572.41
413.026	588.79
413.234	631.8
413.443	625.65
413.651	613.37
413.86	613.37
414.068	715.77
414.276	758.77
414.485	754.68
414.693	816.12
414.901	883.7
415.11	881.65
415.318	848.88
415.526	842.74
415.734	918.51
415.943	965.62
416.151	1022.96
416.359	1055.73
416.567	953.33
416.776	1022.96
416.984	1096.69
417.192	1084.4
417.4	1182.7
417.608	1106.93
417.817	1278.96
418.025	1379.31
418.233	1352.68
418.441	1307.63
418.649	1395.69
418.857	1496.04
419.065	1637.35
419.273	1534.95
419.481	1629.16
419.689	1702.89
419.897	1719.27
420.105	1760.23
420.313	1709.03
420.521	1788.9
420.729	2046.94
420.937	1993.7
421.145	2163.68
421.353	2153.44
421.561	2259.93
421.769	2313.18
421.977	2319.32
422.185	2284.51
422.393	2603.99
422.601	2712.53
422.809	2589.66
423.017	2528.22
423.224	2720.73
423.432	2855.89
423.64	2937.81
423.848	3048.4
424.056	3001.3
424.263	3353.55
424.471	3298.25
424.679	3449.8
424.887	3662.79
425.094	3730.38
425.302	3826.63
425.51	3847.11
425.718	3996.61
425.925	4078.53
426.133	4103.11
426.341	4567.99
426.548	4651.96
426.756	4660.15
426.964	4707.26
427.171	5055.41
427.379	5082.03
427.586	5168.05
427.794	5215.15
428.001	5680.04
428.209	5764.01
428.417	5657.51
428.624	5925.8
428.832	6024.1
429.039	6056.87
429.247	6052.77
429.454	6652.83
429.662	7041.94
429.869	6615.96
430.076	7009.17
430.284	7023.51
430.491	7144.34
430.699	7537.55
430.906	7621.52
431.114	7682.95
431.321	7910.28
431.528	8055.69
431.736	8633.21
431.943	9091.96
432.15	8584.06
432.358	8932.22
432.565	9388.91
432.772	9253.75
432.979	9735.02
433.187	9993.06
433.394	9956.2
433.601	10586.97
433.808	10877.79
434.016	10668.89
434.223	10910.55
434.43	11768.65
434.637	11592.53
434.844	12319.56
435.052	12507.97
435.259	12452.67
435.466	12794.68
435.673	12604.22
435.88	13392.69
436.087	13839.15
436.294	13730.61
436.501	13703.98
436.708	13769.52
436.915	14322.47
437.122	14975.77
437.329	15006.49
437.537	15543.06
437.743	15667.98
437.95	15704.85
438.157	16497.41
438.364	17144.57
438.571	16839.42
438.778	16880.38
438.985	18504.42
439.192	17849.07
439.399	18559.72
439.606	17971.95
439.813	19094.24
440.02	20015.82
440.227	19952.34
440.433	19360.47
440.64	20210.38
440.847	20019.92
441.054	20613.83
441.261	21881.52
441.467	21490.36
441.674	22213.29
441.881	22850.21
442.088	23069.34
442.294	22692.52
442.501	23384.73
442.708	24021.65
442.914	24695.43
443.121	25975.41
443.328	24943.24
443.534	26890.85
443.741	26227.31
443.948	25684.6
444.154	27667.03
444.361	27333.21
444.568	27527.77
444.774	27832.92
444.981	27798.1
445.187	28844.62
445.394	29852.22
445.6	29932.09
445.807	32522.77
446.013	31334.95
446.22	31877.66
446.426	33366.53
446.633	33024.52
446.839	34517.49
447.046	32809.48
447.252	34851.31
447.459	34537.97
447.665	34728.43
447.871	36301.27
448.078	37702.08
448.284	35996.12
448.491	36925.9
448.697	38584.76
448.903	39088.56
449.11	39274.92
449.316	38617.52
449.522	39354.79
449.728	40337.82
449.935	40769.94
450.141	40550.81
450.347	41484.68
450.553	40292.76
450.76	40837.52
450.966	42021.25
451.172	41726.34
451.378	42822
451.584	41714.05
451.791	42578.29
451.997	42985.84
452.203	43254.12
452.409	43786.6
452.615	43032.94
452.821	41476.49
453.027	41132.43
453.233	43661.67
453.44	41712
453.646	42168.7
453.852	42365.31
454.058	43305.32
454.264	41607.56
454.47	42860.91
454.676	41566.6
454.882	43192.68
455.088	39221.67
455.294	40237.47
455.5	40452.5
455.705	40948.11
455.911	39225.77
456.117	38433.21
456.323	38158.78
456.529	36209.11
456.735	38046.14
456.941	36870.61
457.147	36155.86
457.352	35256.81
457.558	34710
457.764	34470.39
457.97	34284.02
458.176	33450.5
458.381	33442.31
458.587	31433.25
458.793	31619.61
458.999	30278.19
459.204	32399.89
459.41	31423.01
459.616	29553.21
459.821	29260.35
460.027	29270.59
460.233	28840.52
460.438	27470.43
460.644	27386.46
460.85	26282.61
461.055	25694.84
461.261	25717.37
461.466	24009.36
461.672	23126.69
461.878	24830.6
462.083	23333.53
462.289	22954.66
462.494	22739.62
462.7	21433.02
462.905	20925.12
463.111	21576.37
463.316	21789.36
463.522	21213.88
463.727	21021.38
463.932	21099.2
464.138	20984.51
464.343	21461.69
464.549	20529.86
464.754	21295.8
464.959	21062.33
465.165	20937.41
465.37	20013.77
465.575	19563.22
465.781	20280.01
465.986	20304.59
466.191	19661.52
466.397	19368.66
466.602	18434.79
466.807	19188.44
467.012	19069.66
467.218	18922.21
467.423	18670.31
467.628	18711.27
467.833	19598.04
468.038	18983.65
468.244	18283.24
468.449	18944.73
468.654	18356.97
468.859	18338.54
469.064	18043.63
469.269	17388.28
469.474	17720.05
469.679	18070.25
469.885	17656.56
470.09	17924.85
470.295	17423.09
470.5	17337.08
470.705	17212.15
470.91	16775.94
471.115	16716.54
471.32	16870.14
471.525	16864
471.73	16470.79
471.935	16382.73
472.139	16091.91
472.344	15952.65
472.549	15887.12
472.754	15788.82
472.959	15381.27
473.164	14893.85
473.369	14914.33
473.574	15670.03
473.778	15391.51
473.983	14912.28
474.188	14959.39
474.393	14222.12
474.598	14437.16
474.802	14324.52
475.007	14242.6
475.212	14218.02
475.417	13552.43
475.621	13957.93
475.826	13806.38
476.031	13476.66
476.235	13151.03
476.44	13527.86
476.645	13103.93
476.849	13355.83
477.054	12981.05
477.259	12966.71
477.463	12940.09
477.668	12442.43
477.872	12688.19
478.077	12485.44
478.282	12172.1
478.486	12352.32
478.691	12069.7
478.895	12159.81
479.1	12047.18
479.304	12067.66
479.509	11619.15
479.713	11907.91
479.918	11375.44
480.122	11326.29
480.326	11570
480.531	11471.7
480.735	11397.97
480.94	11488.08
481.144	11664.21
481.348	11109.21
481.553	11348.82
481.757	11074.39
481.961	11164.5
482.166	11418.45
482.37	11295.57
482.574	10982.23
482.778	11101.01
482.983	11309.91
483.187	11053.91
483.391	11055.96
483.595	11019.1
483.8	11162.45
484.004	11178.84
484.208	11178.84
484.412	11068.25
484.616	11131.73
484.821	10941.27
485.025	10816.35
485.229	11268.95
485.433	11082.58
485.637	11068.25
485.841	11113.3
486.045	10949.46
486.249	11193.17
486.453	11109.21
486.657	10996.57
486.861	11121.49
487.065	10672.99
487.269	11119.45
487.473	10937.18
487.677	10910.55
487.881	11019.1
488.085	11049.82
488.289	11125.59
488.493	10996.57
488.697	11033.43
488.901	11105.11
489.105	11080.53
489.309	11166.55
489.512	11103.06
489.716	11115.35
489.92	11139.93
490.124	11250.52
490.328	11416.4
490.531	11074.39
490.735	11473.74
490.939	11170.65
491.143	11338.58
491.346	11314
491.55	11471.7
491.754	11592.53
491.958	11512.66
492.161	11475.79
492.365	11778.89
492.569	11688.78
492.772	11586.38
492.976	11897.67
493.18	11844.43
493.383	11881.29
493.587	11934.54
493.79	12194.63
493.994	11971.4
494.197	12270.4
494.401	12165.96
494.605	12327.75
494.808	12344.13
495.012	12550.98
495.215	12471.11
495.419	12636.99
495.622	12516.16
495.825	12841.79
496.029	12845.88
496.232	12991.29
496.436	13112.12
496.639	13466.42
496.843	13224.76
497.046	13589.3
497.249	13744.94
497.453	13722.41
497.656	13837.1
497.859	13906.73
498.063	14320.42
498.266	14394.15
498.469	14467.88
498.673	14535.46
498.876	14566.18
499.079	14750.49
499.282	14777.12
499.485	15131.42
499.689	15258.39
499.892	15532.82
500.095	15561.49
500.298	16192.26
500.501	15803.15
500.705	16050.96
500.908	16470.79
501.111	16347.91
501.314	16780.03
501.517	16921.34
501.72	16823.04
501.923	16927.49
502.126	17539.83
502.329	17513.2
502.532	17709.81
502.735	17728.24
502.938	18193.13
503.141	18250.47
503.344	18522.85
503.547	18752.23
503.75	18873.06
503.953	19077.85
504.156	19172.06
504.359	19608.28
504.562	19450.58
504.765	19858.13
504.968	19862.22
505.17	20533.96
505.373	20445.9
505.576	20632.26
505.779	20787.91
505.982	21418.68
506.185	21621.43
506.387	21338.81
506.59	21936.82
506.793	22209.2
506.996	22110.89
507.198	22819.49
507.401	22479.53
507.604	23073.44
507.807	23313.05
508.009	23710.36
508.212	23632.54
508.415	23671.45
508.617	24320.65
508.82	24132.24
509.022	24296.08
509.225	24711.81
509.428	24945.28
509.63	25285.25
509.833	25389.69
510.035	25879.16
510.238	25852.53
510.44	25936.5
510.643	26772.07
510.845	26636.91
511.048	26661.48
511.25	27058.79
511.453	27292.26
511.655	28074.58
511.858	27968.09
512.06	28287.57
512.262	28455.5
512.465	28271.18
512.667	29061.7
512.87	29321.79
513.072	29174.34
513.274	29692.47
513.477	29780.54
513.679	30124.6
513.881	30429.74
514.084	30800.43
514.286	30722.6
514.488	30720.56
514.69	31898.14
514.893	31654.43
515.095	31824.41
515.297	32621.07
515.499	32352.79
515.701	32555.54
515.904	33167.88
516.106	33186.31
516.308	33745.41
516.51	34071.03
516.712	34013.69
516.914	34353.65
517.116	34796.01
517.318	34730.48
517.52	34894.32
517.722	35283.43
517.925	35676.64
518.127	36020.7
518.329	35981.79
518.531	35971.55
518.733	36717.01
518.935	37177.8
519.136	36862.41
519.338	37454.28
519.54	37501.38
519.742	37818.81
519.944	37974.46
520.146	38541.75
520.348	38906.29
520.55	38896.05
520.752	39020.97
520.954	39430.57
521.155	39266.73
521.357	40192.41
521.559	40141.21
521.761	40608.15
521.963	40896.91
522.164	40728.98
522.366	41005.45
522.568	41523.59
522.77	41425.29
522.971	42117.5
523.173	41724.29
523.375	42406.26
523.576	42074.49
523.778	42426.74
523.98	42627.45
524.181	42617.21
524.383	42631.54
524.584	43188.59
524.786	43213.16
524.988	43516.26
525.189	43819.36
525.391	44067.17
525.592	44304.73
525.794	43950.43
525.995	44681.56
526.197	44263.77
526.398	44558.68
526.6	44796.24
526.801	45166.93
527.003	45363.53
527.204	45009.23
527.406	45230.41
527.607	45449.55
527.808	45855.04
528.01	45066.58
528.211	45367.63
528.412	46405.95
528.614	46235.97
528.815	45912.39
529.016	46354.75
529.218	45814.08
529.419	46295.36
529.62	46545.21
529.822	46694.71
530.023	46565.69
530.224	46543.16
530.425	46424.38
530.626	46121.28
530.828	46414.14
531.029	47006
531.23	46778.68
531.431	46758.2
531.632	46803.25
531.833	47448.36
532.035	46821.69
532.236	47137.07
532.437	47161.65
532.638	46786.87
532.839	47262
533.04	47157.55
533.241	46731.57
533.442	47728.94
533.643	47153.46
533.844	47178.03
534.045	47458.6
534.246	46653.75
534.447	47448.36
534.648	47092.02
534.849	46950.71
535.05	47081.78
535.251	47358.25
535.451	47202.61
535.652	47227.18
535.853	47587.63
536.054	47485.23
536.255	47556.91
536.456	46883.12
536.657	47575.34
536.857	47126.83
537.058	47380.78
537.259	47456.56
537.46	47446.32
537.66	47087.92
537.861	47046.96
538.062	46989.62
538.263	47218.99
538.463	47038.77
538.664	46983.48
538.865	47704.36
539.065	47474.99
539.266	46403.9
539.466	47444.27
539.667	46430.52
539.868	47962.4
540.068	46639.42
540.269	46645.56
540.469	47075.63
540.67	47300.91
540.87	47116.59
541.071	47001.91
541.271	47296.81
541.472	47008.05
541.672	46969.14
541.873	46948.66
542.073	46420.28
542.274	47223.09
542.474	46745.91
542.675	46618.94
542.875	47229.23
543.075	46555.45
543.276	46690.62
543.476	47264.05
543.676	46833.97
543.877	46735.67
544.077	46850.36
544.277	46620.98
544.478	46625.08
544.678	46911.8
544.878	46539.07
545.078	46651.7
545.279	46461.24
545.479	46647.61
545.679	46661.94
545.879	46817.59
546.079	46713.14
546.28	46645.56
546.48	46352.7
546.68	46635.32
546.88	46637.37
547.08	46469.43
547.28	46360.89
547.48	46358.84
547.68	46352.7
547.88	46336.32
548.081	46633.27
548.281	46483.77
548.481	46082.37
548.681	46504.25
548.881	46795.06
549.081	46444.86
549.28	46375.23
549.48	46451
549.68	45908.29
549.88	46551.35
550.08	45836.61
550.28	46704.95
550.48	46123.33
550.68	46477.63
550.88	46055.75
551.08	46031.17
551.279	46244.16
551.479	45883.72
551.679	46145.86
551.879	45998.4
552.079	46481.72
552.278	46063.94
552.478	46229.82
552.678	45910.34
552.878	46211.39
553.077	46262.59
553.277	45232.46
553.477	46217.53
553.676	45791.56
553.876	46113.09
554.076	45697.35
554.275	45963.59
554.475	45113.68
554.674	45760.84
554.874	45893.96
555.074	45744.45
555.273	46137.66
555.473	46037.31
555.672	45279.57
555.872	45177.17
556.071	45619.53
556.271	45613.38
556.47	45179.21
556.67	45240.65
556.869	45310.28
557.068	45824.32
557.268	45209.93
557.467	45750.6
557.667	45384.01
557.866	45252.94
558.065	45134.16
558.265	44925.27
558.464	44759.38
558.663	45316.43
558.863	44599.64
559.062	45703.49
559.261	44894.55
559.461	45056.34
559.66	44482.91
559.859	44786
560.058	44419.42
560.258	44896.59
560.457	44243.29
560.656	44851.54
560.855	44337.5
561.054	44761.43
561.253	44151.13
561.453	44462.43
561.652	44583.26
561.851	44568.92
562.05	44044.64
562.249	43968.87
562.448	44669.27
562.647	44222.81
562.846	44210.53
563.045	44720.47
563.244	43663.72
563.443	44396.89
563.642	43362.67
563.841	43848.03
564.04	43655.53
564.239	44118.37
564.438	43434.35
564.637	43911.52
564.836	43886.95
565.035	43434.35
565.234	43352.43
565.432	42963.31
565.631	43311.47
565.83	43491.69
566.029	43116.91
566.228	43538.79
566.427	42905.97
566.625	42619.25
566.824	42525.05
567.023	42987.89
567.222	42387.83
567.42	42991.98
567.619	42826.1
567.818	42492.28
568.016	42537.33
568.215	42807.67
568.414	42426.74
568.612	42701.17
568.811	42473.85
569.01	42180.99
569.208	41712
569.407	42363.26
569.605	41656.71
569.804	42299.77
570.002	41877.89
570.201	41965.95
570.4	41841.03
570.598	41630.08
570.797	41161.1
570.995	41605.51
571.193	41314.7
571.392	41963.9
571.59	41437.58
571.789	41329.03
571.987	40941.97
572.186	41318.79
572.384	40880.53
572.582	41472.39
572.781	41292.17
572.979	40393.11
573.177	40659.35
573.376	40960.4
573.574	40456.6
573.772	40599.96
573.971	40266.14
574.169	40501.65
574.367	40284.57
574.565	40268.19
574.763	40368.54
574.962	40198.55
575.16	39733.67
575.358	40001.95
575.556	39690.66
575.754	40257.95
575.952	39512.49
576.151	39975.33
576.349	39287.21
576.547	39305.64
576.745	39336.36
576.943	39520.68
577.141	39338.41
577.339	39297.45
577.537	38908.33
577.735	39137.71
577.933	38814.13
578.131	38683.06
578.329	38537.65
578.527	38293.94
578.725	38488.5
578.923	38719.92
579.121	38496.69
579.319	38216.12
579.516	38492.6
579.714	38115.77
579.912	38279.61
580.11	38232.5
580.308	37853.63
580.506	37898.69
580.704	37454.28
580.901	37853.63
581.099	37566.91
581.297	37319.11
581.495	37323.21
581.692	37407.17
581.89	37317.06
582.088	37485
582.285	37093.83
582.483	37206.47
582.681	36872.65
582.878	36467.16
583.076	36723.15
583.274	36741.58
583.471	36141.53
583.669	36540.88
583.866	36620.75
584.064	36473.3
584.262	35858.91
584.459	36497.88
584.657	35928.54
584.854	36243.93
585.052	35768.8
585.249	36069.85
585.447	35711.46
585.644	35570.15
585.841	35484.13
586.039	36168.15
586.236	35807.71
586.434	35052.01
586.631	35250.66
586.828	35361.25
587.026	35033.58
587.223	35398.12
587.42	35009
587.618	34882.03
587.815	34671.09
588.012	34320.88
588.21	34611.7
588.407	35025.39
588.604	34462.19
588.801	34093.56
588.999	34052.6
589.196	34013.69
589.393	33960.44
589.59	33536.51
589.787	33722.88
589.984	33845.76
590.182	33305.09
590.379	33913.34
590.576	33434.11
590.773	33442.31
590.97	32932.36
591.167	33071.62
591.364	32864.78
591.561	33141.25
591.758	32748.04
591.955	32508.43
592.152	32606.73
592.349	32829.96
592.546	32756.24
592.743	32559.63
592.94	32281.11
593.137	32778.76
593.334	32426.51
593.531	31834.65
593.727	32338.45
593.924	32201.24
594.121	31752.73
594.318	31943.19
594.515	31463.97
594.712	32004.63
594.908	31453.73
595.105	31433.25
595.302	30800.43
595.499	31427.1
595.696	30962.22
595.892	31341.09
596.089	31031.85
596.286	31150.63
596.482	30990.89
596.679	31142.44
596.876	30716.46
597.072	30349.87
597.269	30804.52
597.466	30394.93
597.662	30095.92
597.859	30286.39
598.055	30161.46
598.252	30145.08
598.448	30177.84
598.645	30155.32
598.841	29686.33
599.038	29944.38
599.234	29880.89
599.431	29403.71
599.627	29467.2
599.824	29717.05
600.02	29438.53
600.217	29332.03
600.413	29256.26
600.609	29221.44
600.806	29055.56
601.002	28994.12
601.198	28928.58
601.395	28566.09
601.591	28392.01
601.787	28709.45
601.984	28301.9
602.18	28697.16
602.376	28340.82
602.572	28127.83
602.769	28244.56
602.965	27716.19
603.161	27834.97
603.357	27892.31
603.553	27630.17
603.75	28168.79
603.946	27503.2
604.142	27560.54
604.338	27345.5
604.534	27576.92
604.73	27318.88
604.926	27359.84
605.122	27249.25
605.318	26948.2
605.514	26780.26
605.71	26915.43
605.906	27093.6
606.102	26749.54
606.298	26956.39
606.494	26557.03
606.69	26784.36
606.886	26729.06
607.082	26104.43
607.278	26810.98
607.474	26262.13
607.67	26329.71
607.866	25985.65
608.062	26524.27
608.257	26126.96
608.453	26245.74
608.649	25997.94
608.845	25993.84
609.041	25997.94
609.236	26114.67
609.432	25760.37
609.628	26169.97
609.824	25676.41
610.019	25342.59
610.215	25647.74
610.411	25807.48
610.606	25563.77
610.802	25520.76
610.998	25494.14
611.193	25514.62
611.389	25258.62
611.584	25287.29
611.78	24933
611.976	25563.77
612.171	25508.47
612.367	25264.77
612.562	24982.15
612.758	24795.78
612.953	24828.55
613.149	24976
613.344	24603.27
613.539	24957.57
613.735	24677
613.93	24976
614.126	24765.06
614.321	24861.32
614.517	24846.98
614.712	24478.35
614.907	24453.77
615.103	24570.51
615.298	24435.34
615.493	24740.49
615.688	24208.01
615.884	24697.48
616.079	24097.42
616.274	24429.2
616.47	24418.96
616.665	24259.21
616.86	23958.16
617.055	24001.17
617.25	24152.72
617.445	24060.56
617.641	23399.07
617.836	23853.72
618.031	23523.99
618.226	23673.49
618.421	23542.42
618.616	23495.32
618.811	23165.6
619.006	23671.45
619.201	23040.67
619.396	23437.98
619.591	22909.6
619.786	23206.56
619.981	22690.47
620.176	23224.99
620.371	22471.34
620.566	22635.17
620.761	22710.95
620.956	22741.67
621.151	22262.44
621.346	22571.69
621.541	21957.3
621.735	22454.95
621.93	21979.82
622.125	22067.89
622.32	21574.33
622.515	21832.37
622.709	21670.58
622.904	21486.26
623.099	21611.19
623.294	21445.3
623.488	20992.7
623.683	21293.76
623.878	20765.38
624.072	20900.55
624.267	20900.55
624.462	20689.6
624.656	20290.25
624.851	20189.9
625.046	20167.37
625.24	19901.14
625.435	20136.65
625.629	19909.33
625.824	19872.46
626.018	20091.6
626.213	19530.45
626.407	19546.84
626.602	19669.72
626.796	19370.71
626.991	19149.53
627.185	18952.93
627.38	19143.39
627.574	18985.69
627.768	18950.88
627.963	18766.56
628.157	18703.07
628.352	18559.72
628.546	18125.55
628.74	18621.16
628.935	18356.97
629.129	18295.53
629.323	18088.68
629.517	18025.2
629.712	17910.51
629.906	18025.2
630.1	17453.81
630.294	17695.47
630.489	17517.3
630.683	17724.15
630.877	17148.67
631.071	17119.99
631.265	17232.63
631.459	17054.46
631.653	16929.53
631.848	16816.9
632.042	16845.57
632.236	16943.87
632.43	16468.74
632.624	16425.73
632.818	16282.38
633.012	16636.67
633.206	16098.06
633.4	16390.92
633.594	15829.77
633.788	16024.33
633.982	15989.52
634.176	16007.95
634.369	15827.73
634.563	15670.03
634.757	15612.69
634.951	15751.95
635.145	15670.03
635.339	15629.07
635.533	15321.88
635.726	15291.16
635.92	14926.62
636.114	14877.47
636.308	14879.52
636.501	15065.88
636.695	14926.62
636.889	14711.58
637.083	14867.23
637.276	14428.96
637.47	14727.97
637.664	14482.21
637.857	14508.83
638.051	14461.73
638.244	14199.59
638.438	14258.98
638.632	14175.02
638.825	14138.15
639.019	13876.01
639.212	13742.89
639.406	13773.61
639.599	13611.82
639.793	13501.23
639.986	13495.09
640.18	13474.61
640.373	13531.95
640.567	13210.42
640.76	13349.68
640.954	13316.92
641.147	13077.3
641.34	13095.74
641.534	13093.69
641.727	13140.79
641.92	12776.25
642.114	12940.09
642.307	12813.12
642.5	12745.53
642.694	12610.37
642.887	12577.6
643.08	12784.44
643.273	12620.61
643.467	12489.54
643.66	12268.36
643.853	12395.33
644.046	12202.82
644.239	12088.14
644.432	11803.47
644.626	12061.51
644.819	11914.06
645.012	11920.2
645.205	11909.96
645.398	11844.43
645.591	11656.01
645.784	11793.23
645.977	11621.2
646.17	11479.89
646.363	11559.76
646.556	11238.23
646.749	11195.22
646.942	11457.36
647.135	11139.93
647.328	10992.47
647.521	11062.1
647.714	10881.88
647.907	11092.82
648.099	10767.2
648.292	10767.2
648.485	10767.2
648.678	10539.87
648.871	10734.43
649.064	10593.12
649.256	10617.69
649.449	10494.82
649.642	10492.77
649.835	10320.74
650.027	10658.65
650.22	10287.97
650.413	10302.31
650.605	10222.44
650.798	10124.13
650.991	10034.02
651.183	10048.36
651.376	9800.55
651.568	9945.96
651.761	9714.54
651.954	9921.38
652.146	9610.09
652.339	9759.6
652.531	9599.85
652.724	9556.85
652.916	9419.63
653.109	9444.21
653.301	9606
653.494	9524.08
653.686	9333.62
653.879	9517.93
654.071	9239.41
654.263	9116.53
654.456	9198.45
654.648	9278.32
654.84	9040.76
655.033	9005.94
655.225	8975.22
655.417	8909.69
655.61	9040.76
655.802	8766.33
655.994	8680.32
656.186	8661.88
656.379	8764.28
656.571	8547.2
656.763	8625.02
656.955	8526.72
657.148	8584.06
657.34	8481.66
657.532	8512.38
657.724	8369.02
657.916	8385.41
658.108	8137.6
658.3	8223.62
658.492	8139.65
658.684	8051.59
658.876	8055.69
659.068	8082.31
659.26	8096.64
659.452	7775.11
659.644	7934.85
659.836	7816.07
660.028	7920.52
660.22	7779.21
660.412	7689.1
660.604	7707.53
660.796	7529.36
660.988	7791.5
661.18	7580.56
661.372	7527.31
661.563	7558.03
661.755	7398.29
661.947	7416.72
662.139	7418.77
662.331	7248.79
662.522	7320.46
662.714	7199.63
662.906	7181.2
663.097	7048.08
663.289	7025.56
663.481	7070.61
663.673	6917.01
663.864	7005.08
664.056	7058.32
664.247	6865.82
664.439	6886.29
664.631	6732.7
664.822	6869.91
665.014	6828.95
665.205	6714.27
665.397	6798.23
665.588	6640.54
665.78	6697.88
665.971	6650.78
666.163	6704.03
666.354	6507.42
666.546	6448.03
666.737	6493.08
666.929	6423.45
667.12	6398.88
667.311	6380.45
667.503	6409.12
667.694	6308.77
667.885	6351.78
668.077	6376.35
668.268	6185.89
668.459	6253.47
668.651	6007.72
668.842	6032.29
669.033	6089.64
669.224	6060.96
669.416	6032.29
669.607	6118.31
669.798	5856.17
669.989	6093.73
670.18	6146.98
670.371	6060.96
670.563	5864.36
670.754	5970.85
670.945	5567.4
671.136	5778.34
671.327	5641.13
671.518	5716.9
671.709	5665.71
671.9	5714.86
672.091	5663.66
672.282	5565.36
672.473	5493.68
672.664	5766.06
672.855	5522.35
673.046	5491.63
673.237	5585.83
673.428	5458.86
673.619	5442.48
673.809	5536.68
674	5606.31
674.191	5432.24
674.382	5356.46
674.573	5378.99
674.764	5209.01
674.954	5415.85
675.145	5299.12
675.336	5235.63
675.527	5170.1
675.717	5290.93
675.908	5186.48
676.099	5266.35
676.289	5266.35
676.48	5110.71
676.671	5014.45
676.861	5110.71
677.052	4946.87
677.243	5032.88
677.433	4953.01
677.624	5061.55
677.814	5002.16
678.005	4961.2
678.195	4936.63
678.386	4881.33
678.576	5067.7
678.767	4998.07
678.957	4977.59
679.148	4907.96
679.338	4854.71
679.529	4961.2
679.719	4864.95
679.909	4985.78
680.1	4697.02
680.29	4789.17
680.481	4729.78
680.671	4793.27
680.861	4748.22
681.052	4641.72
681.242	4723.64
681.432	4805.56
681.622	4676.54
681.813	4813.75
682.003	4615.1
682.193	4606.91
682.383	4938.68
682.573	4697.02
682.764	4697.02
682.954	4606.91
683.144	4416.44
683.334	4512.7
683.524	4522.94
683.714	4606.91
683.904	4518.84
684.094	4606.91
684.284	4717.5
684.474	4633.53
684.664	4453.31
684.854	4418.49
685.044	4463.55
685.234	4398.01
685.424	4553.66
685.614	4385.73
685.804	4406.2
685.994	4314.05
686.184	4279.23
686.374	4162.5
686.564	4264.89
686.753	4213.7
686.943	4131.78
687.133	4281.28
687.323	4264.89
687.513	4303.81
687.702	4238.27
687.892	4221.89
688.082	4082.63
688.272	4197.31
688.461	4170.69
688.651	4305.85
688.841	4045.76
689.03	4135.87
689.22	4053.95
689.41	4037.57
689.599	4021.19
689.789	3994.56
689.979	4002.75
690.168	3916.74
690.358	3947.46
690.547	4029.38
690.737	3990.47
690.926	3888.07
691.116	3709.9
691.305	4002.75
691.495	3644.36
691.684	3720.14
691.874	3738.57
692.063	3830.73
692.252	3738.57
692.442	3691.46
692.631	3738.57
692.82	3767.24
693.01	3591.11
693.199	3613.64
693.388	3640.26
693.578	3501
693.767	3548.11
693.956	3617.74
694.146	3496.91
694.335	3501
694.524	3460.04
694.713	3519.43
694.902	3288.01
695.092	3531.72
695.281	3476.43
695.47	3341.26
695.659	3238.86
695.848	3322.83
696.037	3261.39
696.226	3431.37
696.415	3312.59
696.604	3361.74
696.793	3328.97
696.982	3224.53
697.171	3249.1
697.36	3314.64
697.549	3220.43
697.738	3115.98
697.927	3208.14
698.116	3185.62
698.305	3265.49
698.494	3068.88
698.683	3185.62
698.872	3171.28
699.061	3077.07
699.25	3132.37
699.438	3128.27
699.627	3181.52
699.816	2984.91
700.005	3099.6
700.193	3027.92
700.382	3113.94
700.571	3021.78
700.76	3036.11
700.948	2937.81
701.137	2948.05
701.326	2913.24
701.514	2952.15
701.703	2888.66
701.892	2937.81
702.08	2907.09
702.269	2935.76
702.457	2935.76
702.646	2882.52
702.834	3036.11
703.023	3015.63
703.212	2896.85
703.4	2931.67
703.589	2864.08
703.777	2939.86
703.965	2913.24
704.154	3034.07
704.342	2784.21
704.531	2780.12
704.719	2720.73
704.907	2771.93
705.096	2767.83
705.284	2778.07
705.472	2831.32
705.661	2845.65
705.849	2913.24
706.037	2796.5
706.226	2726.87
706.414	2780.12
706.602	2810.84
706.79	2776.02
706.979	2692.05
707.167	2714.58
707.355	2763.73
707.543	2745.3
707.731	2851.8
707.919	2698.2
708.107	2747.35
708.296	2677.72
708.484	2739.16
708.672	2640.86
708.86	2724.82
709.048	2737.11
709.236	2700.25
709.424	2743.25
709.612	2657.24
709.8	2628.57
709.988	2575.32
710.176	2677.72
710.364	2761.69
710.551	2642.9
710.739	2597.85
710.927	2579.42
711.115	2647
711.303	2612.18
711.491	2567.13
711.679	2554.84
711.866	2624.47
712.054	2593.75
712.242	2616.28
712.43	2640.86
712.617	2481.11
712.805	2581.46
712.993	2634.71
713.181	2642.9
713.368	2534.36
713.556	2571.22
713.744	2595.8
713.931	2651.1
714.119	2657.24
714.306	2683.86
714.494	2669.53
714.682	2610.14
714.869	2497.5
715.057	2624.47
715.244	2540.51
715.432	2577.37
715.619	2595.8
715.807	2573.27
715.994	2622.42
716.182	2438.11
716.369	2530.27
716.556	2468.83
716.744	2575.32
716.931	2438.11
717.119	2560.98
717.306	2626.52
717.493	2571.22
717.681	2567.13
717.868	2675.67
718.055	2522.07
718.242	2540.51
718.43	2548.7
718.617	2571.22
718.804	2511.83
718.991	2536.41
719.179	2481.11
719.366	2534.36
719.553	2567.13
719.74	2509.79
719.927	2458.59
720.114	2536.41
720.301	2513.88
720.488	2540.51
720.676	2456.54
720.863	2546.65
721.05	2513.88
721.237	2589.66
721.424	2522.07
721.611	2442.2
721.798	2464.73
721.985	2538.46
722.172	2524.12
722.358	2458.59
722.545	2530.27
722.732	2489.31
722.919	2538.46
723.106	2464.73
723.293	2495.45
723.48	2513.88
723.667	2470.87
723.853	2499.55
724.04	2569.18
724.227	2479.07
724.414	2491.35
724.6	2536.41
724.787	2558.94
724.974	2524.12
725.161	2489.31
725.347	2382.81
725.534	2384.86
725.72	2569.18
725.907	2423.77
726.094	2454.49
726.28	2640.86
726.467	2413.53
726.653	2407.39
726.84	2458.59
727.027	2544.6
727.213	2491.35
727.4	2391
727.586	2567.13
727.773	2513.88
727.959	2485.21
728.145	2454.49
728.332	2362.33
728.518	2454.49
728.705	2505.69
728.891	2415.58
729.077	2528.22
729.264	2460.63
729.45	2558.94
729.636	2487.26
729.823	2589.66
730.009	2470.87
730.195	2405.34
730.382	2448.35
730.568	2558.94
730.754	2395.1
730.94	2481.11
731.126	2493.4
731.313	2479.07
731.499	2503.64
731.685	2307.04
731.871	2419.68
732.057	2487.26
732.243	2528.22
732.429	2536.41
732.615	2591.7
732.801	2477.02
732.987	2470.87
733.173	2532.31
733.359	2411.48
733.545	2481.11
733.731	2380.76
733.917	2513.88
734.103	2343.9
734.289	2407.39
734.475	2438.11
734.661	2448.35
734.847	2560.98
735.033	2497.5
735.219	2415.58
735.404	2434.01
735.59	2431.96
735.776	2345.95
735.962	2321.37
736.148	2462.68
736.333	2448.35
736.519	2407.39
736.705	2489.31
736.89	2370.52
737.076	2395.1
737.262	2239.45
737.447	2350.04
737.633	2339.8
737.819	2378.72
738.004	2323.42
738.19	2339.8
738.375	2337.76
738.561	2345.95
738.747	2245.6
738.932	2354.14
739.118	2411.48
739.303	2239.45
739.489	2300.89
739.674	2311.13
739.859	2323.42
740.045	2364.38
740.23	2337.76
740.416	2270.17
740.601	2366.43
740.786	2223.07
740.972	2210.78
741.157	2233.31
741.342	2319.32
741.528	2126.82
741.713	2292.7
741.898	2331.61
742.084	2231.26
742.269	2145.25
742.454	2243.55
742.639	2171.87
742.824	2161.63
743.01	2116.58
743.195	2145.25
743.38	2218.97
743.565	2167.77
743.75	2184.16
743.935	2102.24
744.12	2165.73
744.305	2012.13
744.49	2075.62
744.675	2048.99
744.86	2059.23
745.045	2089.95
745.23	2087.9
745.415	2143.2
745.6	2089.95
745.785	2102.24
745.97	1911.78
746.155	1975.27
746.34	2036.7
746.525	2124.77
746.71	1995.75
746.895	2026.47
747.079	1940.45
747.264	1891.3
747.449	1956.83
747.634	1903.59
747.819	1858.53
748.003	1932.26
748.188	1956.83
748.373	1821.67
748.557	1870.82
748.742	1950.69
748.927	1856.48
749.111	1899.49
749.296	1823.72
749.481	1778.66
749.665	1821.67
749.85	1772.52
750.034	1840.1
750.219	1754.09
750.404	1876.96
750.588	1672.17
750.773	1692.65
750.957	1717.22
751.141	1721.32
751.326	1717.22
751.51	1627.11
751.695	1702.89
751.879	1676.26
752.064	1663.97
752.248	1647.59
752.432	1653.73
752.617	1711.08
752.801	1614.82
752.985	1721.32
753.17	1625.06
753.354	1631.21
753.538	1584.1
753.722	1659.88
753.907	1543.14
754.091	1641.45
754.275	1551.34
754.459	1469.42
754.643	1455.08
754.828	1512.42
755.012	1518.57
755.196	1522.66
755.38	1584.1
755.564	1545.19
755.748	1418.22
755.932	1455.08
756.116	1450.99
756.3	1487.85
756.484	1418.22
756.668	1444.84
756.852	1453.03
757.036	1369.07
757.22	1362.92
757.404	1362.92
757.588	1321.96
757.772	1367.02
757.956	1332.2
758.14	1414.12
758.323	1295.34
758.507	1346.54
758.691	1301.48
758.875	1362.92
759.059	1299.44
759.242	1293.29
759.426	1362.92
759.61	1299.44
759.794	1262.57
759.977	1248.24
760.161	1244.14
760.345	1291.24
760.528	1174.51
760.712	1233.9
760.895	1248.24
761.079	1254.38
761.263	1186.8
761.446	1213.42
761.63	1287.15
761.813	1276.91
761.997	1278.96
762.18	1080.3
762.364	1121.26
762.547	1176.56
762.731	1178.61
762.914	1104.88
763.098	1063.92
763.281	1160.17
763.464	1145.84
763.648	1162.22
763.831	1098.74
764.015	1094.64
764.198	1065.97
764.381	1070.06
764.564	1184.75
764.748	1074.16
764.931	1143.79
765.114	971.76
765.297	1121.26
765.481	969.71
765.664	1041.39
765.847	1096.69
766.03	1106.93
766.213	1061.87
766.397	1084.4
766.58	1006.58
766.763	1061.87
766.946	1061.87
767.129	1084.4
767.312	1000.43
767.495	1029.1
767.678	1004.53
767.861	996.34
768.044	984.05
768.227	990.19
768.41	996.34
768.593	1018.86
768.776	1061.87
768.959	949.23
769.142	998.38
769.324	883.7
769.507	945.14
769.69	988.14
769.873	904.18
770.056	973.81
770.239	955.38
770.421	982
770.604	965.62
770.787	947.19
770.97	887.79
771.152	859.12
771.335	891.89
771.518	816.12
771.7	910.32
771.883	926.71
772.066	883.7
772.248	932.85
772.431	826.36
772.613	822.26
772.796	932.85
772.978	893.94
773.161	951.28
773.343	936.95
773.526	885.75
773.708	734.2
773.891	824.31
774.073	859.12
774.256	955.38
774.438	846.84
774.621	785.4
774.803	928.75
774.985	750.58
775.168	836.6
775.35	809.97
775.532	773.11
775.715	859.12
775.897	777.2
776.079	781.3
776.261	838.64
776.444	738.29
776.626	752.63
776.808	746.48
776.99	728.05
777.173	736.24
777.355	723.96
777.537	773.11
777.719	773.11
777.901	771.06
778.083	781.3
778.265	678.9
778.447	734.2
778.629	637.94
778.811	664.57
778.993	678.9
779.175	715.77
779.357	670.71
779.539	637.94
779.721	766.96
779.903	703.48
780.085	711.67
780.267	709.62
780.449	625.65
780.631	701.43
780.812	658.42
780.994	635.89
781.176	547.83
781.358	660.47
781.54	584.7
781.721	642.04
781.903	660.47
782.085	685.05
782.267	613.37
782.448	533.5
782.63	605.17
782.812	613.37
782.993	668.66
783.175	639.99
783.357	576.5
783.538	549.88
783.72	588.79
783.901	539.64
784.083	572.41
784.264	513.02
784.446	547.83
784.627	558.07
784.809	568.31
784.99	547.83
785.172	586.74
785.353	506.87
785.535	476.15
785.716	500.73
785.897	556.02
786.079	584.7
786.26	537.59
786.441	535.54
786.623	457.72
786.804	470.01
786.985	543.74
787.167	431.1
787.348	533.5
787.529	498.68
787.71	513.02
787.891	408.57
788.073	465.91
788.254	519.16
788.435	470.01
788.616	441.34
788.797	463.86
788.978	472.06
789.159	437.24
789.34	445.43
789.522	465.91
789.703	433.15
789.884	478.2
790.065	412.67
790.246	472.06
790.427	420.86
790.607	412.67
790.788	441.34
790.969	412.67
791.15	357.37
791.331	418.81
791.512	332.79
791.693	367.61
791.874	383.99
792.054	445.43
792.235	379.9
792.416	383.99
792.597	377.85
792.778	345.08
792.958	336.89
793.139	363.51
793.32	412.67
793.5	351.23
793.681	400.38
793.862	410.62
794.042	318.46
794.223	383.99
794.404	383.99
794.584	398.33
794.765	367.61
794.945	316.41
795.126	283.64
795.306	326.65
795.487	304.12
795.667	363.51
795.848	367.61
796.028	261.12
796.209	334.84
796.389	390.14
796.57	304.12
796.75	355.32
796.93	326.65
797.111	402.43
797.291	328.7
797.471	390.14
797.652	369.66
797.832	318.46
798.012	365.56
798.192	220.16
798.373	328.7
798.553	234.49
798.733	300.03
798.913	261.12
799.093	310.27
799.274	338.94
799.454	250.88
799.634	326.65
799.814	244.73
799.994	310.27
800.174	291.84
800.354	322.56
800.534	283.64
800.714	306.17
800.894	308.22
801.074	263.16
801.254	328.7
801.434	261.12
801.614	261.12
801.794	214.01
801.974	535.54
802.154	263.16
802.334	283.64
802.514	203.77
802.693	269.31
802.873	285.69
803.053	283.64
803.233	263.16
803.413	279.55
803.592	267.26
803.772	248.83
803.952	191.49
804.131	250.88
804.311	355.32
804.491	277.5
804.67	220.16
804.85	197.63
805.03	265.21
805.209	289.79
805.389	195.58
805.568	240.64
805.748	205.82
805.928	238.59
806.107	332.79
806.287	242.68
806.466	205.82
806.646	238.59
806.825	283.64
807.004	214.01
807.184	195.58
807.363	236.54
807.543	175.1
807.722	166.91
807.901	162.81
808.081	228.35
808.26	310.27
808.439	209.92
808.619	209.92
808.798	181.25
808.977	261.12
809.156	158.72
809.336	207.87
809.515	238.59
809.694	240.64
809.873	173.05
810.052	207.87
810.231	209.92
810.411	191.49
810.59	130.05
810.769	205.82
810.948	248.83
811.127	197.63
811.306	209.92
811.485	177.15
811.664	240.64
811.843	207.87
812.022	191.49
812.201	168.96
812.38	160.77
812.559	89.09
812.737	269.31
812.916	195.58
813.095	171.01
813.274	242.68
813.453	171.01
813.632	128
813.811	158.72
813.989	211.96
814.168	113.66
814.347	119.81
814.526	146.43
814.704	242.68
814.883	179.2
815.062	207.87
815.24	187.39
815.419	166.91
815.598	179.2
815.776	195.58
815.955	181.25
816.133	203.77
816.312	195.58
816.49	240.64
816.669	148.48
816.847	162.81
817.026	164.86
817.204	138.24
817.383	123.9
817.561	195.58
817.74	220.16
817.918	154.62
818.097	207.87
818.275	140.29
818.453	185.34
818.632	128
818.81	193.53
818.988	152.57
819.167	99.33
819.345	179.2
819.523	216.06
819.701	146.43
819.879	158.72
820.058	123.9
820.236	138.24
820.414	203.77
820.592	168.96
820.77	87.04
820.948	150.53
821.127	91.13
821.305	191.49
821.483	142.33
821.661	205.82
821.839	103.42
822.017	140.29
822.195	146.43
822.373	152.57
822.551	125.95
822.729	97.28
822.907	136.19
823.085	56.32
823.262	156.67
823.44	70.65
823.618	115.71
823.796	70.65
823.974	23.55
824.152	68.61
824.329	125.95
824.507	185.34
824.685	64.51
824.863	76.8
825.04	99.33
825.218	105.47
825.396	121.85
825.574	171.01
825.751	101.37
825.929	134.14
826.107	107.52
826.284	115.71
826.462	136.19
826.639	103.42
826.817	113.66
826.994	107.52
827.172	23.55
827.349	123.9
827.527	66.56
827.704	84.99
827.882	136.19
828.059	134.14
828.237	107.52
828.414	154.62
828.591	134.14
828.769	119.81
828.946	117.76
829.124	128
829.301	138.24
829.478	119.81
829.655	113.66
829.833	80.89
830.01	175.1
830.187	91.13
830.364	142.33
830.542	87.04
830.719	68.61
830.896	97.28
831.073	144.38
831.25	117.76
831.427	97.28
831.604	164.86
831.782	74.75
831.959	128
832.136	56.32
832.313	64.51
832.49	101.37
832.667	130.05
832.844	39.94
833.021	132.09
833.198	64.51
833.374	87.04
833.551	115.71
833.728	121.85
833.905	87.04
834.082	97.28
834.259	132.09
834.436	136.19
834.612	101.37
834.789	103.42
834.966	111.61
835.143	74.75
835.319	97.28
835.496	89.09
835.673	74.75
835.85	113.66
836.026	93.18
836.203	119.81
836.38	132.09
836.556	74.75
836.733	50.18
836.909	187.39
837.086	50.18
837.262	70.65
837.439	3.07
837.616	95.23
837.792	70.65
837.968	48.13
838.145	46.08
838.321	84.99
838.498	119.81
838.674	87.04
838.851	66.56
839.027	41.98
839.203	152.57
839.38	66.56
839.556	52.22
839.732	91.13
839.909	60.42
840.085	105.47
840.261	101.37
840.437	111.61
840.614	99.33
840.79	121.85
840.966	56.32
841.142	31.74
841.318	76.8
841.494	89.09
841.671	52.22
841.847	46.08
842.023	76.8
842.199	74.75
842.375	46.08
842.551	29.7
842.727	91.13
842.903	97.28
843.079	109.57
843.255	89.09
843.431	128
843.607	107.52
843.783	-21.5
843.959	115.71
844.134	87.04
844.31	93.18
844.486	37.89
844.662	33.79
844.838	82.94
845.013	138.24
845.189	70.65
845.365	89.09
845.541	76.8
845.716	72.7
845.892	78.85
846.068	105.47
846.244	56.32
846.419	64.51
846.595	11.26
846.77	48.13
846.946	76.8
847.122	109.57
847.297	119.81
847.473	80.89
847.648	130.05
847.824	95.23
847.999	21.5
848.175	37.89
848.35	72.7
848.526	56.32
848.701	91.13
848.876	93.18
849.052	105.47
849.227	-13.31
849.403	87.04
849.578	58.37
849.753	19.46
849.929	27.65
850.104	19.46
850.279	72.7
850.454	29.7
850.63	138.24
850.805	27.65
850.98	11.26
851.155	54.27
851.33	130.05
851.505	5.12
851.681	84.99
851.856	76.8
852.031	68.61
852.206	101.37
852.381	33.79
852.556	-9.22
852.731	82.94
852.906	121.85
853.081	31.74
853.256	27.65
853.431	103.42
853.606	52.22
853.781	78.85
853.956	13.31
854.131	80.89
854.305	66.56
854.48	84.99
854.655	46.08
854.83	121.85
855.005	48.13
855.18	46.08
855.354	72.7
855.529	93.18
855.704	-35.84
855.879	74.75
856.053	23.55
856.228	58.37
856.403	29.7
856.577	29.7
856.752	78.85
856.926	44.03
857.101	44.03
857.276	-11.26
857.45	44.03
857.625	37.89
857.799	27.65
857.974	19.46
858.148	-21.5
858.323	107.52
858.497	111.61
858.672	68.61
858.846	-9.22
859.02	37.89
859.195	44.03
859.369	74.75
859.543	1.02
859.718	52.22
859.892	41.98
860.066	80.89
860.241	74.75
860.415	50.18
860.589	58.37
860.763	41.98
860.938	35.84
861.112	101.37
861.286	48.13
861.46	91.13
861.634	80.89
861.808	76.8
861.982	15.36
862.157	-44.03
862.331	66.56
862.505	-13.31
862.679	-19.46
862.853	9.22
863.027	62.46
863.201	150.53
863.375	99.33
863.549	-58.37
863.722	68.61
863.896	101.37
864.07	31.74
864.244	99.33
864.418	68.61
864.592	58.37
864.766	50.18
864.939	72.7
865.113	46.08
865.287	-46.08
865.461	97.28
865.634	-1.02
865.808	15.36
865.982	-7.17
866.156	-9.22
866.329	37.89
866.503	11.26
866.676	33.79
866.85	27.65
867.024	54.27
867.197	48.13
867.371	60.42
867.544	107.52
867.718	50.18
867.891	33.79
868.065	17.41
868.238	23.55
868.412	72.7
868.585	87.04
868.759	15.36
868.932	15.36
869.105	82.94
869.279	-3.07
869.452	39.94
869.625	64.51
869.799	80.89
869.972	-25.6
870.145	64.51
870.319	-9.22
870.492	-9.22
870.665	15.36
870.838	80.89
871.011	19.46
871.185	13.31
871.358	31.74
871.531	84.99
871.704	-13.31
871.877	46.08
872.05	48.13
872.223	9.22
872.396	70.65
872.569	60.42
872.742	-23.55
872.915	19.46
873.088	-48.13
873.261	84.99
873.434	60.42
873.607	70.65
873.78	7.17
873.953	15.36
874.126	60.42
874.299	9.22
874.471	31.74
874.644	64.51
874.817	21.5
874.99	46.08
875.163	-33.79
875.335	80.89
875.508	37.89
875.681	80.89
875.853	44.03
876.026	5.12
876.199	44.03
876.371	72.7
876.544	64.51
876.717	76.8
876.889	64.51
877.062	17.41
877.234	-1.02
877.407	23.55
877.579	23.55
877.752	74.75
877.924	93.18
878.097	64.51
878.269	62.46
878.442	15.36
878.614	-1.02
878.786	31.74
878.959	17.41
879.131	-5.12
879.303	-1.02
879.476	-3.07
879.648	60.42
879.82	72.7
879.993	7.17
880.165	-5.12
880.337	50.18
880.509	74.75
880.681	70.65
880.854	-1.02
881.026	29.7
881.198	103.42
881.37	19.46
881.542	66.56
881.714	-91.13
881.886	54.27
882.058	-1.02
882.23	3.07
882.402	-21.5
882.574	29.7
882.746	29.7
882.918	48.13
883.09	78.85
883.262	87.04
883.434	31.74
883.606	33.79
883.778	-7.17
883.95	70.65
884.122	-9.22
884.293	-50.18
884.465	19.46
884.637	-46.08
884.809	62.46
884.98	31.74
885.152	41.98
885.324	84.99
885.496	-52.22
885.667	-23.55
885.839	39.94
886.011	78.85
886.182	48.13
886.354	13.31
886.525	72.7
886.697	21.5
886.869	-44.03
887.04	13.31
887.212	58.37
887.383	33.79
887.555	11.26
887.726	119.81
887.897	25.6
888.069	48.13
888.24	64.51
888.412	70.65
888.583	-25.6
888.754	-3.07
888.926	48.13
889.097	91.13
889.268	56.32
889.44	-35.84
889.611	-13.31
889.782	15.36
889.953	44.03
890.125	56.32
890.296	-23.55
890.467	62.46
890.638	21.5
890.809	33.79
890.98	29.7
891.151	46.08
891.323	60.42
891.494	23.55
891.665	9.22
891.836	-3.07
892.007	11.26
892.178	70.65
892.349	91.13
892.52	35.84
892.691	23.55
892.862	52.22
893.032	89.09
893.203	-15.36
893.374	3.07
893.545	44.03
893.716	-7.17
893.887	27.65
894.057	39.94
894.228	-64.51
894.399	-13.31
894.57	78.85
894.74	39.94
894.911	35.84
895.082	19.46
895.253	50.18
895.423	84.99
895.594	-19.46
895.764	15.36
895.935	76.8
896.106	58.37
896.276	15.36
896.447	29.7
896.617	-7.17
896.788	-27.65
896.958	5.12
897.129	-3.07
897.299	78.85
897.47	54.27
897.64	62.46
897.81	72.7
897.981	15.36
898.151	119.81
898.322	82.94
898.492	44.03
898.662	58.37
898.832	121.85
899.003	7.17
899.173	46.08
899.343	39.94
899.513	-19.46
