Data from USB4F104151__5__11-36-17-829.txt Node

Date: Fri Mar 14 11:36:17 EDT 2025
User: louis
Spectrometer: USB4F10415
Trigger mode: 4
Integration Time (sec): 2.000000E-2
Scans to average: 1
Electric dark correction enabled: true
Nonlinearity correction enabled: false
Boxcar width: 0
XAxis mode: Wavelengths
Number of Pixels in Spectrum: 3648
>>>>>Begin Spectral Data<<<<<
178.204	-100.18
178.424	-100.18
178.644	-100.18
178.864	-22.36
179.084	-83.8
179.304	-40.79
179.524	84.14
179.744	-10.07
179.964	-1.88
180.184	39.08
180.404	-5.97
180.624	37.03
180.844	-18.26
181.064	-36.69
181.283	-53.08
181.503	6.31
181.723	0.17
181.943	22.7
182.163	-10.07
182.383	18.6
182.602	47.27
182.822	45.23
183.042	4.27
183.262	-36.69
183.482	16.55
183.701	41.13
183.921	12.46
184.141	12.46
184.361	24.75
184.58	-40.79
184.8	43.18
185.02	22.7
185.239	43.18
185.459	63.66
185.679	69.8
185.898	-20.31
186.118	71.85
186.338	39.08
186.557	10.41
186.777	24.75
186.997	14.51
187.216	6.31
187.436	59.56
187.655	45.23
187.875	49.32
188.095	2.22
188.314	121
188.534	14.51
188.753	18.6
188.973	-73.56
189.192	8.36
189.412	-18.26
189.631	92.33
189.851	16.55
190.07	63.66
190.29	-34.64
190.509	20.65
190.729	51.37
190.948	63.66
191.168	63.66
191.387	22.7
191.607	39.08
191.826	12.46
192.045	4.27
192.265	30.89
192.484	16.55
192.704	-18.26
192.923	-73.56
193.142	28.84
193.362	18.6
193.581	8.36
193.8	32.94
194.02	49.32
194.239	80.04
194.458	94.38
194.678	12.46
194.897	14.51
195.116	6.31
195.335	43.18
195.555	12.46
195.774	8.36
195.993	22.7
196.212	2.22
196.432	47.27
196.651	96.43
196.87	-32.6
197.089	45.23
197.308	86.19
197.528	-12.12
197.747	-20.31
197.966	-34.64
198.185	10.41
198.404	34.99
198.623	-63.32
198.842	45.23
199.062	45.23
199.281	47.27
199.5	61.61
199.719	18.6
199.938	0.17
200.157	6.31
200.376	18.6
200.595	-8.02
200.814	37.03
201.033	0.17
201.252	41.13
201.471	45.23
201.69	43.18
201.909	22.7
202.128	61.61
202.347	37.03
202.566	-14.17
202.785	-18.26
203.004	-18.26
203.223	71.85
203.442	-12.12
203.661	16.55
203.879	55.47
204.098	59.56
204.317	10.41
204.536	12.46
204.755	41.13
204.974	84.14
205.193	-28.5
205.411	71.85
205.63	37.03
205.849	6.31
206.068	24.75
206.287	59.56
206.505	32.94
206.724	22.7
206.943	-42.84
207.162	-18.26
207.381	45.23
207.599	-10.07
207.818	-12.12
208.037	-30.55
208.255	2.22
208.474	57.51
208.693	88.23
208.911	2.22
209.13	69.8
209.349	28.84
209.567	-22.36
209.786	0.17
210.005	43.18
210.223	43.18
210.442	94.38
210.661	73.9
210.879	0.17
211.098	-18.26
211.316	43.18
211.535	71.85
211.753	24.75
211.972	28.84
212.191	-34.64
212.409	-18.26
212.628	77.99
212.846	57.51
213.065	26.79
213.283	102.57
213.502	18.6
213.72	63.66
213.938	57.51
214.157	-8.02
214.375	49.32
214.594	26.79
214.812	4.27
215.031	41.13
215.249	26.79
215.467	37.03
215.686	6.31
215.904	-18.26
216.122	84.14
216.341	39.08
216.559	14.51
216.778	47.27
216.996	47.27
217.214	77.99
217.432	32.94
217.651	-18.26
217.869	39.08
218.087	8.36
218.306	6.31
218.524	116.9
218.742	30.89
218.96	71.85
219.179	-20.31
219.397	6.31
219.615	73.9
219.833	14.51
220.051	65.71
220.27	26.79
220.488	22.7
220.706	37.03
220.924	18.6
221.142	22.7
221.36	47.27
221.578	53.42
221.796	69.8
222.015	16.55
222.233	28.84
222.451	104.62
222.669	14.51
222.887	73.9
223.105	10.41
223.323	41.13
223.541	20.65
223.759	45.23
223.977	-59.22
224.195	4.27
224.413	92.33
224.631	20.65
224.849	59.56
225.067	0.17
225.285	61.61
225.503	-22.36
225.721	0.17
225.939	12.46
226.157	53.42
226.375	110.76
226.592	61.61
226.81	41.13
227.028	55.47
227.246	100.52
227.464	-85.84
227.682	88.23
227.9	-20.31
228.117	51.37
228.335	43.18
228.553	102.57
228.771	-24.4
228.989	-5.97
229.206	14.51
229.424	41.13
229.642	-8.02
229.86	86.19
230.077	55.47
230.295	53.42
230.513	71.85
230.731	32.94
230.948	59.56
231.166	37.03
231.384	37.03
231.601	-55.12
231.819	55.47
232.037	94.38
232.254	-63.32
232.472	20.65
232.689	6.31
232.907	-1.88
233.125	59.56
233.342	39.08
233.56	12.46
233.777	45.23
233.995	-44.88
234.213	65.71
234.43	28.84
234.648	45.23
234.865	22.7
235.083	28.84
235.3	98.47
235.518	57.51
235.735	14.51
235.953	75.95
236.17	-8.02
236.388	10.41
236.605	71.85
236.822	57.51
237.04	57.51
237.257	16.55
237.475	22.7
237.692	34.99
237.909	10.41
238.127	12.46
238.344	30.89
238.562	131.24
238.779	-57.17
238.996	73.9
239.214	37.03
239.431	-22.36
239.648	-8.02
239.865	20.65
240.083	53.42
240.3	32.94
240.517	-26.45
240.735	59.56
240.952	71.85
241.169	20.65
241.386	43.18
241.603	47.27
241.821	4.27
242.038	53.42
242.255	-34.64
242.472	43.18
242.689	104.62
242.907	30.89
243.124	37.03
243.341	-22.36
243.558	-12.12
243.775	-30.55
243.992	22.7
244.209	-14.17
244.426	73.9
244.643	118.95
244.86	-14.17
245.078	86.19
245.295	-1.88
245.512	22.7
245.729	-3.93
245.946	65.71
246.163	-34.64
246.38	47.27
246.597	47.27
246.814	102.57
247.031	14.51
247.248	75.95
247.464	-8.02
247.681	55.47
247.898	-8.02
248.115	59.56
248.332	-3.93
248.549	88.23
248.766	118.95
248.983	47.27
249.2	106.67
249.417	106.67
249.633	30.89
249.85	71.85
250.067	-10.07
250.284	51.37
250.501	43.18
250.717	114.86
250.934	55.47
251.151	43.18
251.368	26.79
251.585	-32.6
251.801	-10.07
252.018	41.13
252.235	34.99
252.451	26.79
252.668	26.79
252.885	86.19
253.102	20.65
253.318	0.17
253.535	-20.31
253.752	18.6
253.968	-12.12
254.185	37.03
254.401	18.6
254.618	65.71
254.835	-73.56
255.051	96.43
255.268	14.51
255.484	22.7
255.701	-34.64
255.917	-22.36
256.134	10.41
256.351	53.42
256.567	55.47
256.784	8.36
257	8.36
257.217	10.41
257.433	24.75
257.65	26.79
257.866	2.22
258.082	-10.07
258.299	16.55
258.515	34.99
258.732	2.22
258.948	47.27
259.165	12.46
259.381	61.61
259.597	84.14
259.814	22.7
260.03	12.46
260.246	18.6
260.463	59.56
260.679	82.09
260.895	-20.31
261.112	14.51
261.328	-26.45
261.544	41.13
261.761	69.8
261.977	12.46
262.193	71.85
262.409	-20.31
262.626	51.37
262.842	37.03
263.058	16.55
263.274	69.8
263.49	-32.6
263.707	6.31
263.923	-3.93
264.139	2.22
264.355	22.7
264.571	57.51
264.787	53.42
265.004	43.18
265.22	-24.4
265.436	18.6
265.652	-3.93
265.868	20.65
266.084	55.47
266.3	14.51
266.516	10.41
266.732	-5.97
266.948	63.66
267.164	28.84
267.38	30.89
267.596	28.84
267.812	96.43
268.028	65.71
268.244	39.08
268.46	-14.17
268.676	-30.55
268.892	-20.31
269.108	43.18
269.324	47.27
269.54	14.51
269.756	55.47
269.972	28.84
270.188	67.75
270.403	22.7
270.619	14.51
270.835	-18.26
271.051	37.03
271.267	-59.22
271.483	69.8
271.698	-18.26
271.914	32.94
272.13	55.47
272.346	-26.45
272.562	-28.5
272.777	-18.26
272.993	34.99
273.209	-46.93
273.425	-3.93
273.64	-1.88
273.856	51.37
274.072	37.03
274.287	8.36
274.503	102.57
274.719	-24.4
274.934	22.7
275.15	102.57
275.366	39.08
275.581	10.41
275.797	39.08
276.012	47.27
276.228	10.41
276.444	-28.5
276.659	4.27
276.875	84.14
277.09	92.33
277.306	55.47
277.521	86.19
277.737	-22.36
277.952	26.79
278.168	-24.4
278.383	6.31
278.599	2.22
278.814	86.19
279.03	30.89
279.245	57.51
279.461	90.28
279.676	10.41
279.892	71.85
280.107	39.08
280.322	39.08
280.538	14.51
280.753	30.89
280.969	20.65
281.184	22.7
281.399	26.79
281.615	-3.93
281.83	55.47
282.045	28.84
282.26	4.27
282.476	18.6
282.691	0.17
282.906	43.18
283.122	34.99
283.337	16.55
283.552	18.6
283.767	-1.88
283.983	18.6
284.198	-12.12
284.413	-30.55
284.628	-14.17
284.843	96.43
285.058	51.37
285.274	28.84
285.489	-51.03
285.704	55.47
285.919	49.32
286.134	12.46
286.349	47.27
286.564	14.51
286.779	16.55
286.995	-12.12
287.21	34.99
287.425	28.84
287.64	-14.17
287.855	41.13
288.07	10.41
288.285	-46.93
288.5	67.75
288.715	65.71
288.93	14.51
289.145	34.99
289.36	0.17
289.575	41.13
289.79	-42.84
290.004	18.6
290.219	6.31
290.434	125.1
290.649	-20.31
290.864	-1.88
291.079	22.7
291.294	8.36
291.509	41.13
291.724	-12.12
291.938	67.75
292.153	88.23
292.368	34.99
292.583	118.95
292.798	88.23
293.012	6.31
293.227	57.51
293.442	39.08
293.657	-55.12
293.871	67.75
294.086	86.19
294.301	94.38
294.516	8.36
294.73	75.95
294.945	-20.31
295.16	80.04
295.374	39.08
295.589	75.95
295.804	106.67
296.018	22.7
296.233	-42.84
296.447	6.31
296.662	94.38
296.877	26.79
297.091	53.42
297.306	26.79
297.52	22.7
297.735	10.41
297.949	-16.21
298.164	47.27
298.378	18.6
298.593	28.84
298.807	-8.02
299.022	-3.93
299.236	30.89
299.451	20.65
299.665	-20.31
299.88	92.33
300.094	86.19
300.309	12.46
300.523	14.51
300.737	8.36
300.952	-22.36
301.166	51.37
301.381	2.22
301.595	39.08
301.809	-3.93
302.024	71.85
302.238	24.75
302.452	63.66
302.667	24.75
302.881	4.27
303.095	55.47
303.309	61.61
303.524	55.47
303.738	32.94
303.952	0.17
304.166	51.37
304.381	-30.55
304.595	43.18
304.809	65.71
305.023	-20.31
305.237	26.79
305.452	22.7
305.666	-20.31
305.88	-18.26
306.094	0.17
306.308	-5.97
306.522	45.23
306.736	51.37
306.95	30.89
307.164	34.99
307.379	2.22
307.593	37.03
307.807	-1.88
308.021	28.84
308.235	43.18
308.449	-44.88
308.663	12.46
308.877	63.66
309.091	-46.93
309.305	92.33
309.519	6.31
309.733	61.61
309.947	20.65
310.161	-1.88
310.374	22.7
310.588	108.71
310.802	-46.93
311.016	8.36
311.23	47.27
311.444	-16.21
311.658	39.08
311.872	104.62
312.085	30.89
312.299	75.95
312.513	43.18
312.727	12.46
312.941	-5.97
313.154	53.42
313.368	-26.45
313.582	-3.93
313.796	39.08
314.009	-3.93
314.223	71.85
314.437	37.03
314.651	28.84
314.864	34.99
315.078	43.18
315.292	55.47
315.505	-20.31
315.719	-3.93
315.933	-8.02
316.146	22.7
316.36	-1.88
316.573	8.36
316.787	67.75
317.001	100.52
317.214	-28.5
317.428	43.18
317.641	88.23
317.855	32.94
318.068	-51.03
318.282	10.41
318.495	121
318.709	32.94
318.922	0.17
319.136	108.71
319.349	22.7
319.563	10.41
319.776	28.84
319.99	39.08
320.203	51.37
320.417	-28.5
320.63	34.99
320.843	98.47
321.057	32.94
321.27	20.65
321.483	24.75
321.697	84.14
321.91	94.38
322.124	65.71
322.337	39.08
322.55	80.04
322.763	2.22
322.977	80.04
323.19	57.51
323.403	53.42
323.617	-12.12
323.83	-1.88
324.043	22.7
324.256	55.47
324.469	2.22
324.683	10.41
324.896	-1.88
325.109	6.31
325.322	-26.45
325.535	65.71
325.748	71.85
325.962	55.47
326.175	61.61
326.388	82.09
326.601	43.18
326.814	63.66
327.027	32.94
327.24	127.14
327.453	41.13
327.666	63.66
327.879	57.51
328.092	39.08
328.305	18.6
328.518	88.23
328.731	28.84
328.944	8.36
329.157	-18.26
329.37	34.99
329.583	80.04
329.796	61.61
330.009	45.23
330.222	-8.02
330.435	24.75
330.648	6.31
330.861	14.51
331.073	0.17
331.286	82.09
331.499	63.66
331.712	51.37
331.925	-28.5
332.138	77.99
332.35	55.47
332.563	20.65
332.776	-38.74
332.989	88.23
333.202	26.79
333.414	32.94
333.627	30.89
333.84	26.79
334.053	30.89
334.265	-3.93
334.478	22.7
334.691	30.89
334.903	34.99
335.116	-28.5
335.329	-28.5
335.541	43.18
335.754	32.94
335.966	-14.17
336.179	45.23
336.392	-14.17
336.604	14.51
336.817	39.08
337.029	45.23
337.242	39.08
337.454	63.66
337.667	-10.07
337.88	75.95
338.092	69.8
338.305	67.75
338.517	8.36
338.729	47.27
338.942	-8.02
339.154	37.03
339.367	28.84
339.579	49.32
339.792	4.27
340.004	92.33
340.217	75.95
340.429	4.27
340.641	2.22
340.854	-5.97
341.066	-61.27
341.278	77.99
341.491	-32.6
341.703	75.95
341.915	24.75
342.128	71.85
342.34	112.81
342.552	49.32
342.764	-26.45
342.977	16.55
343.189	108.71
343.401	-20.31
343.613	-63.32
343.826	37.03
344.038	-14.17
344.25	39.08
344.462	-20.31
344.674	-26.45
344.886	6.31
345.099	73.9
345.311	-3.93
345.523	47.27
345.735	18.6
345.947	80.04
346.159	84.14
346.371	8.36
346.583	-26.45
346.795	53.42
347.007	100.52
347.219	0.17
347.431	18.6
347.643	14.51
347.855	-30.55
348.067	71.85
348.279	28.84
348.491	8.36
348.703	84.14
348.915	16.55
349.127	4.27
349.339	-1.88
349.551	-3.93
349.763	2.22
349.975	41.13
350.187	92.33
350.399	65.71
350.61	61.61
350.822	26.79
351.034	69.8
351.246	39.08
351.458	47.27
351.669	55.47
351.881	37.03
352.093	-20.31
352.305	22.7
352.517	20.65
352.728	47.27
352.94	57.51
353.152	92.33
353.363	22.7
353.575	18.6
353.787	127.14
353.999	57.51
354.21	16.55
354.422	-1.88
354.633	28.84
354.845	-40.79
355.057	34.99
355.268	43.18
355.48	6.31
355.692	-24.4
355.903	75.95
356.115	84.14
356.326	61.61
356.538	30.89
356.749	57.51
356.961	75.95
357.172	43.18
357.384	55.47
357.595	30.89
357.807	8.36
358.018	20.65
358.23	22.7
358.441	129.19
358.653	71.85
358.864	28.84
359.075	43.18
359.287	45.23
359.498	-75.6
359.709	41.13
359.921	12.46
360.132	-8.02
360.344	45.23
360.555	-26.45
360.766	30.89
360.977	-18.26
361.189	67.75
361.4	39.08
361.611	55.47
361.823	14.51
362.034	18.6
362.245	-5.97
362.456	47.27
362.667	45.23
362.879	26.79
363.09	-20.31
363.301	14.51
363.512	28.84
363.723	41.13
363.935	32.94
364.146	53.42
364.357	-1.88
364.568	-1.88
364.779	53.42
364.99	28.84
365.201	2.22
365.412	61.61
365.623	-28.5
365.834	55.47
366.045	-14.17
366.256	149.67
366.467	49.32
366.678	41.13
366.889	16.55
367.1	37.03
367.311	41.13
367.522	20.65
367.733	-14.17
367.944	37.03
368.155	39.08
368.366	49.32
368.577	65.71
368.788	-1.88
368.999	32.94
369.209	57.51
369.42	6.31
369.631	92.33
369.842	82.09
370.053	47.27
370.264	-12.12
370.474	71.85
370.685	8.36
370.896	96.43
371.107	30.89
371.317	32.94
371.528	71.85
371.739	45.23
371.95	30.89
372.16	20.65
372.371	-8.02
372.582	8.36
372.792	37.03
373.003	80.04
373.214	86.19
373.424	41.13
373.635	55.47
373.846	98.47
374.056	71.85
374.267	80.04
374.477	114.86
374.688	45.23
374.898	118.95
375.109	67.75
375.319	-26.45
375.53	22.7
375.74	67.75
375.951	30.89
376.161	47.27
376.372	67.75
376.582	55.47
376.793	14.51
377.003	-3.93
377.214	47.27
377.424	22.7
377.635	104.62
377.845	34.99
378.055	24.75
378.266	92.33
378.476	77.99
378.686	-46.93
378.897	63.66
379.107	53.42
379.317	47.27
379.528	47.27
379.738	32.94
379.948	32.94
380.158	41.13
380.369	37.03
380.579	114.86
380.789	59.56
380.999	116.9
381.21	71.85
381.42	141.48
381.63	6.31
381.84	57.51
382.05	28.84
382.261	65.71
382.471	39.08
382.681	61.61
382.891	141.48
383.101	30.89
383.311	45.23
383.521	88.23
383.731	47.27
383.941	55.47
384.151	92.33
384.361	63.66
384.571	69.8
384.781	39.08
384.991	94.38
385.201	18.6
385.411	10.41
385.621	14.51
385.831	-40.79
386.041	22.7
386.251	-24.4
386.461	141.48
386.671	30.89
386.881	51.37
387.091	45.23
387.301	106.67
387.511	4.27
387.72	59.56
387.93	30.89
388.14	14.51
388.35	108.71
388.56	80.04
388.769	71.85
388.979	94.38
389.189	51.37
389.399	24.75
389.609	88.23
389.818	-8.02
390.028	63.66
390.238	22.7
390.447	-16.21
390.657	127.14
390.867	16.55
391.076	22.7
391.286	145.58
391.496	104.62
391.705	12.46
391.915	57.51
392.125	30.89
392.334	59.56
392.544	73.9
392.753	51.37
392.963	34.99
393.172	43.18
393.382	41.13
393.591	92.33
393.801	45.23
394.01	84.14
394.22	61.61
394.429	63.66
394.639	49.32
394.848	45.23
395.058	22.7
395.267	55.47
395.477	-42.84
395.686	63.66
395.895	45.23
396.105	118.95
396.314	153.77
396.524	51.37
396.733	57.51
396.942	30.89
397.152	80.04
397.361	98.47
397.57	75.95
397.78	53.42
397.989	43.18
398.198	96.43
398.407	114.86
398.617	125.1
398.826	67.75
399.035	100.52
399.244	153.77
399.453	82.09
399.663	176.3
399.872	80.04
400.081	0.17
400.29	155.82
400.499	118.95
400.708	104.62
400.917	61.61
401.127	145.58
401.336	22.7
401.545	104.62
401.754	92.33
401.963	77.99
402.172	88.23
402.381	123.05
402.59	90.28
402.799	32.94
403.008	153.77
403.217	102.57
403.426	121
403.635	88.23
403.844	100.52
404.053	100.52
404.262	104.62
404.471	215.21
404.68	96.43
404.888	104.62
405.097	143.53
405.306	108.71
405.515	125.1
405.724	100.52
405.933	170.15
406.142	108.71
406.35	172.2
406.559	176.3
406.768	118.95
406.977	114.86
407.185	149.67
407.394	176.3
407.603	82.09
407.812	215.21
408.02	137.38
408.229	215.21
408.438	168.1
408.646	149.67
408.855	223.4
409.064	250.02
409.272	231.59
409.481	260.26
409.69	157.86
409.898	151.72
410.107	215.21
410.315	241.83
410.524	243.88
410.733	307.37
410.941	215.21
411.15	243.88
411.358	290.98
411.567	264.36
411.775	276.65
411.984	270.5
412.192	303.27
412.401	307.37
412.609	309.41
412.818	446.63
413.026	315.56
413.234	391.33
413.443	346.28
413.651	444.58
413.86	413.86
414.068	499.88
414.276	469.16
414.485	364.71
414.693	520.35
414.901	503.97
415.11	467.11
415.318	542.88
415.526	573.6
415.734	589.99
415.943	526.5
416.151	653.47
416.359	639.14
416.567	639.14
416.776	626.85
416.984	739.49
417.192	708.77
417.4	653.47
417.608	698.53
417.817	747.68
418.025	831.65
418.233	825.5
418.441	809.12
418.649	833.69
418.857	913.56
419.065	913.56
419.273	909.47
419.481	1015.96
419.689	1124.51
419.897	1085.59
420.105	1063.07
420.313	1179.8
420.521	1325.21
420.729	1169.56
420.937	1224.86
421.145	1357.97
421.353	1347.73
421.561	1458.32
421.769	1437.84
421.977	1530
422.185	1501.33
422.393	1581.2
422.601	1714.32
422.809	1607.83
423.017	1683.6
423.224	1767.57
423.432	1742.99
423.64	1886.35
423.848	1906.83
424.056	2046.09
424.263	2060.43
424.471	2068.62
424.679	2136.2
424.887	2297.99
425.094	2228.36
425.302	2273.42
425.51	2472.07
425.718	2455.69
425.925	2519.17
426.133	2668.67
426.341	2826.37
426.548	2850.94
426.756	2871.42
426.964	2982.01
427.171	3045.5
427.379	3102.84
427.586	3231.87
427.794	3356.79
428.001	3479.67
428.209	3635.32
428.417	3506.29
428.624	3874.93
428.832	3743.86
429.039	3776.63
429.247	3719.28
429.454	4044.91
429.662	4532.33
429.869	4188.27
430.076	4415.59
430.284	4270.19
430.491	4505.7
430.699	4821.09
430.906	4683.88
431.114	4804.71
431.321	4972.64
431.528	5140.57
431.736	5363.8
431.943	5589.08
432.15	5570.65
432.358	5511.25
432.565	5926.99
432.772	6002.77
432.979	6307.91
433.187	6275.15
433.394	6326.35
433.601	6819.91
433.808	6809.67
434.016	6539.33
434.223	7010.37
434.43	7438.39
434.637	7321.66
434.844	7737.4
435.052	7817.27
435.259	7950.39
435.466	7911.47
435.673	7727.16
435.88	8349.74
436.087	8689.7
436.294	8806.44
436.501	8532.01
436.708	8697.89
436.915	8945.7
437.122	9418.78
437.329	9555.99
437.537	9676.82
437.743	9957.39
437.95	9697.3
438.157	10266.64
438.364	10725.38
438.571	10700.81
438.778	10622.98
438.985	11802.61
439.192	11472.89
439.399	11550.71
439.606	11388.92
439.813	12001.27
440.02	12673
440.227	12529.64
440.433	12294.13
440.64	12621.8
440.847	12732.39
441.054	13174.75
441.261	13879.25
441.467	13881.3
441.674	14022.61
441.881	14563.28
442.088	14362.58
442.294	14186.45
442.501	14620.62
442.708	15085.51
442.914	15687.61
443.121	16236.47
443.328	15900.6
443.534	16924.58
443.741	16347.06
443.948	16121.78
444.154	17504.16
444.361	17373.09
444.568	17432.48
444.774	17313.7
444.981	17420.19
445.187	18155.41
445.394	18995.08
445.6	18761.61
445.807	20309.88
446.013	19695.49
446.22	19955.58
446.426	20785.01
446.633	20897.64
446.839	21829.47
447.046	20649.84
447.252	21751.65
447.459	21598.05
447.665	21665.63
447.871	22486.87
448.078	23568.2
448.284	22650.71
448.491	23392.07
448.697	24313.66
448.903	24618.8
449.11	24532.79
449.316	24014.65
449.522	24686.39
449.728	25278.25
449.935	25481
450.141	25593.64
450.347	26148.64
450.553	25331.5
450.76	25700.13
450.966	26386.2
451.172	26058.53
451.378	26619.67
451.584	26183.45
451.791	26963.73
451.997	26767.12
452.203	27320.07
452.409	27152.14
452.615	27184.91
452.821	25937.69
453.027	25763.62
453.233	27285.26
453.44	26132.25
453.646	26324.76
453.852	26470.17
454.058	27189
454.264	26074.91
454.47	26550.04
454.676	25818.91
454.882	26855.18
455.088	24467.25
455.294	24846.13
455.5	25044.78
455.705	25390.89
455.911	24561.46
456.117	24223.55
456.323	23830.34
456.529	22277.97
456.735	23359.3
456.941	22863.69
457.147	22339.41
457.352	21591.91
457.558	21524.32
457.764	21606.24
457.97	21127.02
458.176	20844.4
458.381	20559.73
458.587	19574.66
458.793	19840.89
458.999	18575.25
459.204	19875.71
459.41	19404.67
459.616	18050.97
459.821	18118.55
460.027	17786.78
460.233	17680.28
460.438	16809.9
460.644	17321.89
460.85	16271.28
461.055	15992.76
461.261	15900.6
461.466	14876.62
461.672	14129.11
461.878	15042.5
462.083	14344.14
462.289	13961.17
462.494	13785.05
462.7	13430.75
462.905	13015.01
463.111	13193.19
463.316	13297.63
463.522	13129.7
463.727	13066.21
463.932	13062.12
464.138	12908.52
464.343	13172.71
464.549	12607.47
464.754	13047.78
464.959	12933.09
465.165	12881.89
465.37	12292.08
465.575	11870.2
465.781	12648.43
465.986	12548.08
466.191	11988.98
466.397	11939.83
466.602	11317.25
466.807	11802.61
467.012	11657.21
467.218	11507.71
467.423	11331.58
467.628	11397.12
467.833	11849.72
468.038	11468.8
468.244	11165.7
468.449	11667.45
468.654	11284.48
468.859	11171.84
469.064	11202.56
469.269	10696.71
469.474	10797.06
469.679	11210.75
469.885	10694.66
470.09	11051.01
470.295	10756.1
470.5	10629.13
470.705	10735.62
470.91	10389.52
471.115	10074.13
471.32	10393.61
471.525	10184.72
471.73	10010.64
471.935	9973.78
472.139	9705.49
472.344	9871.38
472.549	9932.82
472.754	9697.3
472.959	9480.22
473.164	9246.75
473.369	9263.13
473.574	9504.79
473.778	9429.02
473.983	9164.83
474.188	9213.98
474.393	8599.59
474.598	8806.44
474.802	8849.44
475.007	8681.51
475.212	8718.37
475.417	8484.91
475.621	8394.79
475.826	8396.84
476.031	8304.68
476.235	8101.94
476.44	8290.35
476.645	8271.92
476.849	8112.17
477.054	7911.47
477.259	7790.64
477.463	7723.06
477.668	7770.16
477.872	7755.83
478.077	7635
478.282	7329.85
478.486	7379
478.691	7372.86
478.895	7467.06
479.1	7338.04
479.304	7491.64
479.509	7010.37
479.713	7436.35
479.918	6946.88
480.122	6875.2
480.326	7161.92
480.531	7065.66
480.735	6907.97
480.94	6903.87
481.144	7057.47
481.348	6764.61
481.553	6809.67
481.757	6758.47
481.961	7030.85
482.166	6891.59
482.37	6864.96
482.574	6621.25
482.778	6680.64
482.983	6701.12
483.187	6785.09
483.391	6905.92
483.595	6766.66
483.8	6725.7
484.004	6836.29
484.208	6989.89
484.412	6795.33
484.616	6656.07
484.821	6719.56
485.025	6584.39
485.229	6746.18
485.433	6936.64
485.637	6694.98
485.841	6758.47
486.045	6740.04
486.249	6746.18
486.453	6791.24
486.657	6557.77
486.861	6787.14
487.065	6633.54
487.269	6842.43
487.473	6576.2
487.677	6692.93
487.881	6944.83
488.085	6662.21
488.289	6658.12
488.493	6660.17
488.697	6678.6
488.901	6762.56
489.105	6766.66
489.309	6961.22
489.512	6838.34
489.716	6893.63
489.92	6895.68
490.124	6842.43
490.328	7012.42
490.531	6946.88
490.735	7053.38
490.939	6928.45
491.143	6813.76
491.346	6772.8
491.55	6979.65
491.754	6819.91
491.958	6973.5
492.161	7039.04
492.365	7186.49
492.569	7041.09
492.772	7252.03
492.976	7055.42
493.18	7206.97
493.383	7155.77
493.587	7372.86
493.79	7403.58
493.994	7139.39
494.197	7239.74
494.401	7477.3
494.605	7542.84
494.808	7553.08
495.012	7600.18
495.215	7526.46
495.419	7577.66
495.622	7639.09
495.825	7645.24
496.029	7700.53
496.232	8011.82
496.436	7880.75
496.639	8083.5
496.843	7972.91
497.046	8292.4
497.249	8257.58
497.453	8273.96
497.656	8431.66
497.859	8511.53
498.063	8499.24
498.266	8716.33
498.469	8878.12
498.673	8753.19
498.876	9013.28
499.079	8986.66
499.282	9009.19
499.485	9179.17
499.689	9271.33
499.892	9435.16
500.095	9275.42
500.298	9650.2
500.501	9420.83
500.705	9965.59
500.908	9955.35
501.111	10119.18
501.314	10020.88
501.517	10225.68
501.72	10289.17
501.923	10246.16
502.126	10434.57
502.329	10778.63
502.532	10741.77
502.735	10840.07
502.938	10719.24
503.141	11036.67
503.344	11311.1
503.547	11161.6
503.75	11300.86
503.953	11671.54
504.156	11565.05
504.359	11808.76
504.562	11636.73
504.765	12111.86
504.968	12105.71
505.17	12283.89
505.373	12103.67
505.576	12668.91
505.779	12556.27
505.982	12703.72
506.185	12810.22
506.387	12924.9
506.59	13125.6
506.793	13258.72
506.996	13295.58
507.198	13498.33
507.401	13606.88
507.604	13565.92
507.807	14014.42
508.009	13942.74
508.212	14354.38
508.415	14161.87
508.617	14442.45
508.82	14538.7
509.022	14675.91
509.225	14831.56
509.428	14989.25
509.63	15089.6
509.833	15265.73
510.035	15552.45
510.238	15323.07
510.44	15695.8
510.643	15753.15
510.845	16215.99
511.048	15728.57
511.25	16099.25
511.453	16287.67
511.655	16641.96
511.858	16617.39
512.06	16715.69
512.262	16981.93
512.465	16977.83
512.667	17313.7
512.87	17381.28
513.072	17461.15
513.274	17606.56
513.477	17917.85
513.679	17842.07
513.881	18139.03
514.084	18311.06
514.286	18478.99
514.488	18597.77
514.69	19199.88
514.893	19107.72
515.095	19115.91
515.297	19138.44
515.499	19236.74
515.701	19232.65
515.904	19974.01
516.106	19873.66
516.308	19711.87
516.51	20420.47
516.712	20500.34
516.914	20535.15
517.116	20848.49
517.318	20985.71
517.52	21010.28
517.722	20946.8
517.925	21409.64
518.127	21520.23
518.329	21520.23
518.531	21546.85
518.733	21880.67
518.935	22048.6
519.136	21995.36
519.338	22441.81
519.54	22662.99
519.742	22796.11
519.944	22710.1
520.146	23246.66
520.348	23201.61
520.55	23103.31
520.752	23801.66
520.954	23940.93
521.155	23686.98
521.357	23748.42
521.559	24223.55
521.761	24416.05
521.963	24409.91
522.164	24780.59
522.366	24770.35
522.568	24870.7
522.77	24895.28
522.971	25319.21
523.173	25026.35
523.375	25638.69
523.576	25669.41
523.778	25437.99
523.98	25997.09
524.181	25622.31
524.383	26066.72
524.584	26291.99
524.786	26201.88
524.988	26244.89
525.189	26607.38
525.391	26812.18
525.592	26490.65
525.794	26416.92
525.995	27225.87
526.197	27281.16
526.398	26986.25
526.6	27322.12
526.801	27240.2
527.003	27367.18
527.204	27334.41
527.406	28114.69
527.607	27993.86
527.808	28057.34
528.01	27588.36
528.211	27989.76
528.412	28608.25
528.614	28212.99
528.815	28106.49
529.016	28915.44
529.218	28174.08
529.419	28684.02
529.62	28395.26
529.822	28077.82
530.023	28540.66
530.224	28526.33
530.425	28346.11
530.626	28538.62
530.828	28124.93
531.029	28796.66
531.23	28714.74
531.431	28677.88
531.632	28868.34
531.833	29062.9
532.035	28884.72
532.236	29200.11
532.437	29402.86
532.638	28727.03
532.839	29163.25
533.04	29187.82
533.241	28684.02
533.442	29365.99
533.643	29286.12
533.844	29116.14
534.045	29189.87
534.246	28829.43
534.447	28915.44
534.648	28940.02
534.849	29279.98
535.05	28661.49
535.251	28970.74
535.451	29275.88
535.652	29370.09
535.853	28948.21
536.054	29624.04
536.255	29177.58
536.456	29116.14
536.657	29429.48
536.857	29173.49
537.058	28987.12
537.259	29429.48
537.46	29462.25
537.66	29042.42
537.861	29372.14
538.062	29120.24
538.263	29329.13
538.463	29099.76
538.664	29196.01
538.865	29398.76
539.065	29497.06
539.266	28837.62
539.466	29036.27
539.667	28980.98
539.868	29593.32
540.068	29271.79
540.269	28747.51
540.469	29535.98
540.67	28712.69
540.87	29193.97
541.071	29095.66
541.271	29349.61
541.472	28993.26
541.672	29064.94
541.873	29212.4
542.073	28905.2
542.274	29099.76
542.474	29071.09
542.675	28962.54
542.875	29214.44
543.075	29128.43
543.276	28737.27
543.476	29140.72
543.676	28788.47
543.877	29212.4
544.077	29173.49
544.277	28958.45
544.478	28933.87
544.678	29171.44
544.878	29269.74
545.078	29351.66
545.279	28907.25
545.479	28759.8
545.679	29497.06
545.879	29157.1
546.079	28905.2
546.28	29107.95
546.48	28507.9
546.68	29032.18
546.88	29054.7
547.08	28759.8
547.28	29234.92
547.48	28653.3
547.68	29073.14
547.88	28753.65
548.081	28792.56
548.281	28587.77
548.481	28450.55
548.681	28860.15
548.881	28729.08
549.081	29093.61
549.28	28790.52
549.48	28847.86
549.68	28759.8
549.88	28972.78
550.08	28595.96
550.28	28905.2
550.48	28843.76
550.68	29230.83
550.88	28821.23
551.08	28948.21
551.279	28948.21
551.479	28765.94
551.679	28788.47
551.879	28501.75
552.079	28976.88
552.278	28565.24
552.478	28866.29
552.678	28585.72
552.878	28899.06
553.077	28387.07
553.277	28299
553.477	28854
553.676	28780.28
553.876	28499.7
554.076	28346.11
554.275	28229.37
554.475	28296.95
554.674	28532.47
554.874	28479.22
555.074	28260.09
555.273	28382.97
555.473	28481.27
555.672	28358.39
555.872	28405.5
556.071	28395.26
556.271	28491.51
556.47	28223.23
556.67	27961.09
556.869	28428.02
557.068	28333.82
557.268	27979.52
557.467	27979.52
557.667	28698.36
557.866	27954.94
558.065	28055.29
558.265	27954.94
558.464	28034.81
558.663	27952.9
558.863	27750.15
559.062	28090.11
559.261	27664.13
559.461	28112.64
559.66	27385.61
559.859	27928.32
560.058	27322.12
560.258	27791.11
560.457	27168.52
560.656	27801.35
560.855	27338.51
561.054	27393.8
561.253	27146
561.453	27434.76
561.652	27309.83
561.851	27199.24
562.05	27311.88
562.249	27277.07
562.448	27631.37
562.647	27318.03
562.846	27035.41
563.045	27199.24
563.244	26791.7
563.443	27469.58
563.642	26926.86
563.841	26803.99
564.04	26750.74
564.239	26892.05
564.438	26521.37
564.637	27019.02
564.836	26810.13
565.035	26562.33
565.234	26875.66
565.432	26312.47
565.631	26529.56
565.83	26375.96
566.029	26466.07
566.228	26517.27
566.427	26400.54
566.625	25968.41
566.824	26019.61
567.023	26210.07
567.222	25595.68
567.42	26054.43
567.619	25939.74
567.818	25915.17
568.016	25857.82
568.215	26101.53
568.414	25573.16
568.612	25892.64
568.811	25272.11
569.01	25466.66
569.208	25630.5
569.407	25812.77
569.605	25650.98
569.804	25577.25
570.002	25192.23
570.201	25521.96
570.4	25222.95
570.598	25169.71
570.797	24780.59
570.995	25190.19
571.193	24735.54
571.392	25052.97
571.59	24633.14
571.789	25073.45
571.987	24614.71
572.186	24958.77
572.384	24721.2
572.582	24733.49
572.781	24743.73
572.979	24348.47
573.177	24559.41
573.376	24497.97
573.574	24510.26
573.772	24553.27
573.971	24139.58
574.169	24278.84
574.367	24360.76
574.565	24307.51
574.763	24219.45
574.962	24196.92
575.16	23811.9
575.358	23838.53
575.556	23686.98
575.754	24166.2
575.952	23217.99
576.151	24192.83
576.349	23355.21
576.547	23248.71
576.745	23568.2
576.943	23521.09
577.141	23334.73
577.339	23310.15
577.537	23129.93
577.735	23197.51
577.933	23002.96
578.131	23252.81
578.329	22955.85
578.527	23148.36
578.725	22906.7
578.923	23086.92
579.121	22835.02
579.319	22605.65
579.516	23019.34
579.714	22896.46
579.912	22873.93
580.11	22345.56
580.308	22763.34
580.506	22515.54
580.704	22275.93
580.901	22413.14
581.099	22409.04
581.297	21991.26
581.495	22300.5
581.692	22443.86
581.89	22116.19
582.088	22148.95
582.285	22126.43
582.483	22128.47
582.681	21661.54
582.878	21907.29
583.076	21653.34
583.274	22198.1
583.471	21641.06
583.669	21747.55
583.866	21614.43
584.064	21718.88
584.262	21487.46
584.459	21606.24
584.657	21372.77
584.854	21512.03
585.052	21256.04
585.249	21297
585.447	21145.45
585.644	21219.17
585.841	21155.69
586.039	21151.59
586.236	20776.81
586.434	21024.62
586.631	20887.4
586.828	20649.84
587.026	20676.46
587.223	20584.3
587.42	20533.11
587.618	20760.43
587.815	20371.32
588.012	20420.47
588.21	20277.11
588.407	20438.9
588.604	20311.92
588.801	20217.72
588.999	20051.83
589.196	20414.32
589.393	20191.09
589.59	19937.15
589.787	19890.04
589.984	19982.2
590.182	19777.4
590.379	20000.63
590.576	19638.14
590.773	19728.25
590.97	19709.82
591.167	19761.02
591.364	19326.85
591.561	19644.29
591.758	19425.15
591.955	19746.69
592.152	19550.08
592.349	19249.03
592.546	19148.68
592.743	19271.56
592.94	19160.97
593.137	19003.27
593.334	19140.49
593.531	19345.28
593.727	18843.53
593.924	19167.11
594.121	18747.28
594.318	18747.28
594.515	18356.11
594.712	18655.12
594.908	18444.18
595.105	18595.73
595.302	18478.99
595.499	18599.82
595.696	18208.66
595.892	18378.64
596.089	18309.01
596.286	18155.41
596.482	18007.96
596.679	18032.54
596.876	17934.23
597.072	17979.29
597.269	18110.36
597.466	17674.14
597.662	17764.25
597.859	17696.67
598.055	17930.14
598.252	17739.68
598.448	17579.93
598.645	17461.15
598.841	17516.45
599.038	17227.68
599.234	17610.65
599.431	17424.29
599.627	17201.06
599.824	17602.46
600.02	17510.3
600.217	17379.23
600.413	16996.26
600.609	17096.61
600.806	17115.05
601.002	17164.2
601.198	16816.04
601.395	16760.75
601.591	16902.06
601.787	16842.67
601.984	16603.05
602.18	16818.09
602.376	16543.66
602.572	16717.74
602.769	16670.64
602.965	16201.65
603.161	16639.92
603.357	16269.23
603.553	16302
603.75	16347.06
603.946	16308.15
604.142	16388.02
604.338	15818.68
604.534	16062.39
604.73	16021.43
604.926	16154.55
605.122	16086.97
605.318	15937.46
605.514	15757.24
605.71	15671.23
605.906	15716.28
606.102	15867.83
606.298	15695.8
606.494	15742.91
606.69	15634.36
606.886	15632.32
607.082	15540.16
607.278	15669.18
607.474	15300.55
607.67	15355.84
607.866	15216.58
608.062	15564.73
608.257	15364.03
608.453	15441.86
608.649	15222.72
608.845	15112.13
609.041	15247.3
609.236	15198.15
609.432	15249.35
609.628	14946.25
609.824	15089.6
610.019	14813.13
610.215	14974.92
610.411	15062.98
610.606	14981.06
610.802	14827.46
610.998	14895.05
611.193	14968.77
611.389	14745.55
611.584	14809.03
611.78	14817.22
611.976	14596.04
612.171	14587.85
612.367	14893
612.562	14680.01
612.758	14540.75
612.953	14405.58
613.149	14622.67
613.344	14313.42
613.539	14761.93
613.735	14620.62
613.93	14612.43
614.126	14419.92
614.321	14563.28
614.517	14473.17
614.712	14397.39
614.907	14274.51
615.103	14364.62
615.298	14282.7
615.493	14510.03
615.688	14108.63
615.884	14612.43
616.079	14186.45
616.274	14360.53
616.47	14251.99
616.665	14278.61
616.86	14141.39
617.055	14129.11
617.25	14018.52
617.445	14010.32
617.641	13879.25
617.836	13959.13
618.031	13967.32
618.226	14030.8
618.421	13742.04
618.616	13916.12
618.811	13596.64
619.006	13793.24
619.201	13596.64
619.396	13690.84
619.591	13445.09
619.786	13613.02
619.981	13271.01
620.176	13723.61
620.371	13262.82
620.566	13412.32
620.761	13207.52
620.956	13512.67
621.151	13162.47
621.346	13053.92
621.541	12781.54
621.735	13184.99
621.93	12988.39
622.125	12677.1
622.32	12670.95
622.515	12746.73
622.709	12566.51
622.904	12558.32
623.099	12539.88
623.294	12558.32
623.488	12378.09
623.683	12242.93
623.878	12271.6
624.072	12120.05
624.267	12242.93
624.462	12126.19
624.656	12154.87
624.851	11956.21
625.046	11968.5
625.24	12138.48
625.435	11800.57
625.629	11839.48
625.824	11755.51
626.018	11616.25
626.213	11368.45
626.407	11710.46
626.602	11264
626.796	11540.47
626.991	11231.23
627.185	11155.46
627.38	11065.35
627.574	11231.23
627.768	11143.17
627.963	11028.48
628.157	10938.37
628.352	10926.08
628.546	10678.28
628.74	10913.8
628.935	10711.05
629.129	10618.89
629.323	10545.16
629.517	10672.14
629.712	10287.12
629.906	10369.04
630.1	10297.36
630.294	10448.91
630.489	10180.62
630.683	10342.41
630.877	9988.11
631.071	9932.82
631.265	10035.22
631.459	10039.31
631.653	10039.31
631.848	10049.55
632.042	9879.57
632.236	10014.74
632.43	9721.88
632.624	9797.65
632.818	9797.65
633.012	9469.98
633.206	9482.27
633.4	9465.88
633.594	9287.71
633.788	9359.39
633.982	9271.33
634.176	9310.24
634.369	9050.14
634.563	9234.46
634.757	9072.67
634.951	9084.96
635.145	9054.24
635.339	8972.32
635.533	9015.33
635.726	9005.09
635.92	9013.28
636.114	8706.09
636.308	8808.48
636.501	8671.27
636.695	8689.7
636.889	8462.38
637.083	8738.85
637.276	8542.25
637.47	8622.12
637.664	8402.99
637.857	8384.55
638.051	8486.95
638.244	8302.64
638.438	8243.24
638.632	8255.53
638.825	8091.7
639.019	8364.08
639.212	8112.17
639.406	7972.91
639.599	8093.74
639.793	7964.72
639.986	7809.08
640.18	7723.06
640.373	7856.18
640.567	7669.81
640.76	7909.43
640.954	7575.61
641.147	7751.73
641.34	7788.6
641.534	7501.88
641.727	7557.18
641.92	7620.66
642.114	7448.63
642.307	7426.11
642.5	7452.73
642.694	7264.32
642.887	7422.01
643.08	7542.84
643.273	7460.92
643.467	7323.71
643.66	7180.35
643.853	7161.92
644.046	7008.32
644.239	7063.61
644.432	6983.74
644.626	7016.51
644.819	7030.85
645.012	6936.64
645.205	7139.39
645.398	6912.07
645.591	6756.42
645.784	6781
645.977	6735.94
646.17	6860.87
646.363	6703.17
646.556	6686.79
646.749	6711.36
646.942	6690.88
647.135	6563.91
647.328	6625.35
647.521	6455.37
647.714	6428.74
647.907	6494.28
648.099	6338.63
648.292	6410.31
648.485	6398.03
648.678	6201.42
648.871	6105.17
649.064	6359.11
649.256	6377.55
649.449	6185.04
649.642	6160.46
649.835	6017.1
650.027	6129.74
650.22	6172.75
650.413	6027.34
650.605	5863.51
650.798	5992.53
650.991	6023.25
651.183	5886.03
651.376	5890.13
651.568	5838.93
651.761	5955.66
651.954	5785.68
652.146	5746.77
652.339	5675.09
652.531	5914.7
652.724	5675.09
652.916	5691.48
653.109	5701.72
653.301	5761.11
653.494	5580.89
653.686	5498.97
653.879	5570.65
654.071	5511.25
654.263	5507.16
654.456	5423.19
654.648	5433.43
654.84	5222.49
655.033	5306.46
655.225	5384.28
655.417	5294.17
655.61	5232.73
655.802	5267.55
655.994	5191.77
656.186	5265.5
656.379	5095.52
656.571	5279.83
656.763	5132.38
656.955	5077.09
657.148	5075.04
657.34	5046.37
657.532	4962.4
657.724	5017.69
657.916	4894.82
658.108	5025.89
658.3	4921.44
658.492	5025.89
658.684	4749.41
658.876	4778.08
659.068	4753.51
659.26	4657.25
659.452	4823.14
659.644	4696.16
659.836	4667.49
660.028	4819.04
660.22	4565.09
660.412	4612.2
660.604	4604
660.796	4466.79
660.988	4599.91
661.18	4659.3
661.372	4479.08
661.563	4558.95
661.755	4456.55
661.947	4481.13
662.139	4401.26
662.331	4366.44
662.522	4259.95
662.714	4391.02
662.906	4520.04
663.097	4315.24
663.289	4261.99
663.481	4202.6
663.673	4112.49
663.864	4165.74
664.056	4114.54
664.247	4233.32
664.439	4085.87
664.631	4180.07
664.822	4122.73
665.014	4192.36
665.205	4157.55
665.397	4280.43
665.588	4157.55
665.78	4102.25
665.971	4008.05
666.163	4001.9
666.354	4001.9
666.546	3919.98
666.737	3885.17
666.929	3891.31
667.12	3915.89
667.311	3917.93
667.503	4061.29
667.694	3883.12
667.885	3694.71
668.077	3801.2
668.268	3801.2
668.459	3905.65
668.651	3745.91
668.842	3737.71
669.033	3672.18
669.224	3700.85
669.416	3698.8
669.607	3766.39
669.798	3625.08
669.989	3672.18
670.18	3641.46
670.371	3567.73
670.563	3598.45
670.754	3557.49
670.945	3641.46
671.136	3610.74
671.327	3494.01
671.518	3602.55
671.709	3385.46
671.9	3502.2
672.091	3588.21
672.282	3487.86
672.473	3428.47
672.664	3534.96
672.855	3360.89
673.046	3403.89
673.237	3508.34
673.428	3383.42
673.619	3534.96
673.809	3432.57
674	3389.56
674.191	3315.83
674.382	3399.8
674.573	3389.56
674.764	3270.78
674.954	3211.39
675.145	3362.94
675.336	3315.83
675.527	3295.35
675.717	3373.18
675.908	3221.63
676.099	3295.35
676.289	3266.68
676.48	3311.74
676.671	3225.72
676.861	3387.51
677.052	3213.43
677.243	3250.3
677.433	3195
677.624	3203.19
677.814	3258.49
678.005	3283.06
678.195	3156.09
678.386	3176.57
678.576	3227.77
678.767	3225.72
678.957	3164.28
679.148	3192.95
679.338	3111.04
679.529	3086.46
679.719	3205.24
679.909	3113.08
680.1	3139.71
680.29	3119.23
680.481	3061.88
680.671	3133.56
680.861	3104.89
681.052	3055.74
681.242	3108.99
681.432	3203.19
681.622	3184.76
681.813	3143.8
682.003	3229.82
682.193	2988.16
682.383	3213.43
682.573	3037.31
682.764	3037.31
682.954	3051.64
683.144	3074.17
683.334	2951.29
683.524	2955.39
683.714	2939.01
683.904	2926.72
684.094	2934.91
684.284	2943.1
684.474	2934.91
684.664	2951.29
684.854	3063.93
685.044	2947.2
685.234	2889.85
685.424	2875.52
685.614	2902.14
685.804	2807.94
685.994	2871.42
686.184	2939.01
686.374	2828.42
686.564	2887.81
686.753	2947.2
686.943	2732.16
687.133	2855.04
687.323	2912.38
687.513	2758.78
687.702	2732.16
687.892	2717.83
688.082	2852.99
688.272	2820.22
688.461	2701.44
688.651	2646.15
688.841	2797.7
689.03	2623.62
689.22	2672.77
689.41	2740.35
689.599	2672.77
689.789	2756.74
689.979	2633.86
690.168	2500.74
690.358	2553.99
690.547	2510.98
690.737	2660.48
690.926	2455.69
691.116	2582.66
691.305	2447.49
691.495	2517.12
691.684	2529.41
691.874	2500.74
692.063	2437.25
692.252	2420.87
692.442	2439.3
692.631	2371.72
692.82	2513.03
693.01	2349.19
693.199	2334.86
693.388	2273.42
693.578	2250.89
693.767	2392.2
693.956	2377.86
694.146	2308.23
694.335	2189.45
694.524	2261.13
694.713	2316.42
694.902	2164.87
695.092	2209.93
695.281	2150.54
695.47	2211.98
695.659	2152.59
695.848	2103.43
696.037	2201.74
696.226	2173.07
696.415	2222.22
696.604	2125.96
696.793	2216.07
696.982	2144.39
697.171	2173.07
697.36	2054.28
697.549	2115.72
697.738	2195.59
697.927	2091.15
698.116	2142.35
698.305	2189.45
698.494	2160.78
698.683	2039.95
698.872	2136.2
699.061	2097.29
699.25	1955.98
699.438	2039.95
699.627	2085
699.816	2056.33
700.005	1917.07
700.193	2109.58
700.382	2035.85
700.571	1962.12
700.76	2095.24
700.948	1955.98
701.137	2064.52
701.326	2037.9
701.514	1970.32
701.703	2058.38
701.892	1980.56
702.08	2087.05
702.269	1931.41
702.457	2037.9
702.646	2058.38
702.834	1960.08
703.023	1968.27
703.212	1902.73
703.4	1915.02
703.589	1943.69
703.777	1982.6
703.965	1978.51
704.154	1824.91
704.342	1947.79
704.531	1949.84
704.719	2027.66
704.907	1982.6
705.096	1933.45
705.284	2017.42
705.472	1996.94
705.661	1984.65
705.849	1910.93
706.037	2007.18
706.226	2007.18
706.414	1902.73
706.602	1888.4
706.79	2019.47
706.979	1988.75
707.167	1992.84
707.355	1962.12
707.543	1980.56
707.731	2031.76
707.919	2011.28
708.107	1941.65
708.296	1925.26
708.484	1865.87
708.672	2027.66
708.86	1915.02
709.048	1876.11
709.236	1964.17
709.424	2015.37
709.612	1943.69
709.8	1951.88
709.988	2025.61
710.176	1994.89
710.364	1951.88
710.551	2025.61
710.739	1972.36
710.927	1882.25
711.115	2060.43
711.303	1992.84
711.491	1915.02
711.679	2074.76
711.866	1962.12
712.054	1994.89
712.242	1947.79
712.43	1984.65
712.617	2027.66
712.805	1980.56
712.993	1974.41
713.181	1917.07
713.368	2023.56
713.556	1968.27
713.744	2019.47
713.931	1980.56
714.119	2031.76
714.306	2046.09
714.494	1972.36
714.682	2021.52
714.869	2011.28
715.057	2078.86
715.244	2035.85
715.432	2076.81
715.619	1927.31
715.807	2025.61
715.994	1970.32
716.182	2140.3
716.369	2074.76
716.556	2103.43
716.744	1978.51
716.931	2054.28
717.119	2082.95
717.306	2013.32
717.493	2066.57
717.681	1984.65
717.868	2160.78
718.055	2056.33
718.242	2099.34
718.43	2058.38
718.617	2054.28
718.804	2062.48
718.991	2132.11
719.179	2091.15
719.366	2142.35
719.553	2089.1
719.74	2099.34
719.927	2121.87
720.114	2199.69
720.301	2168.97
720.488	2021.52
720.676	2144.39
720.863	2140.3
721.05	2242.7
721.237	2218.12
721.424	2058.38
721.611	2117.77
721.798	2031.76
721.985	2242.7
722.172	2119.82
722.358	2125.96
722.545	2201.74
722.732	2171.02
722.919	2207.88
723.106	2066.57
723.293	2238.6
723.48	2189.45
723.667	2107.53
723.853	2168.97
724.04	2261.13
724.227	2242.7
724.414	2175.11
724.6	2164.87
724.787	2228.36
724.974	2168.97
725.161	2201.74
725.347	2132.11
725.534	2304.14
725.72	2291.85
725.907	2144.39
726.094	2326.66
726.28	2101.39
726.467	2189.45
726.653	2093.19
726.84	2242.7
727.027	2226.31
727.213	2228.36
727.4	2201.74
727.586	2168.97
727.773	2205.83
727.959	2234.5
728.145	2195.59
728.332	2125.96
728.518	2222.22
728.705	2244.74
728.891	2291.85
729.077	2252.94
729.264	2136.2
729.45	2234.5
729.636	2199.69
729.823	2232.46
730.009	2218.12
730.195	2320.52
730.382	2273.42
730.568	2234.5
730.754	2107.53
730.94	2216.07
731.126	2230.41
731.313	2166.92
731.499	2281.61
731.685	2343.05
731.871	2189.45
732.057	2322.57
732.243	2275.46
732.429	2230.41
732.615	2297.99
732.801	2289.8
732.987	2377.86
733.173	2306.18
733.359	2300.04
733.545	2312.33
733.731	2181.26
733.917	2263.18
734.103	2326.66
734.289	2310.28
734.475	2226.31
734.661	2281.61
734.847	2341
735.033	2244.74
735.219	2201.74
735.404	2197.64
735.59	2275.46
735.776	2306.18
735.962	2265.22
736.148	2267.27
736.333	2195.59
736.519	2222.22
736.705	2218.12
736.89	2203.79
737.076	2238.6
737.262	2222.22
737.447	2285.7
737.633	2138.25
737.819	2205.83
738.004	2234.5
738.19	2209.93
738.375	2173.07
738.561	2154.63
738.747	2267.27
738.932	2119.82
739.118	2326.66
739.303	2263.18
739.489	2250.89
739.674	2158.73
739.859	2236.55
740.045	2142.35
740.23	2162.83
740.416	2154.63
740.601	2158.73
740.786	2171.02
740.972	2076.81
741.157	2177.16
741.342	2224.26
741.528	2130.06
741.713	2089.1
741.898	2121.87
742.084	2031.76
742.269	2017.42
742.454	2134.15
742.639	2087.05
742.824	1996.94
743.01	2095.24
743.195	2101.39
743.38	2140.3
743.565	2023.56
743.75	2003.08
743.935	2054.28
744.12	2109.58
744.305	2003.08
744.49	2087.05
744.675	1994.89
744.86	2017.42
745.045	2009.23
745.23	2037.9
745.415	2058.38
745.6	2115.72
745.785	1947.79
745.97	2015.37
746.155	1933.45
746.34	2021.52
746.525	2001.04
746.71	1960.08
746.895	1943.69
747.079	1994.89
747.264	1912.97
747.449	1923.21
747.634	1863.82
747.819	1962.12
748.003	1894.54
748.188	1880.21
748.373	1853.58
748.557	1786
748.742	1763.47
748.927	1783.95
749.111	1773.71
749.296	1654.93
749.481	1790.1
749.665	1863.82
749.85	1767.57
750.034	1728.66
750.219	1683.6
750.404	1777.81
750.588	1597.59
750.773	1734.8
750.957	1708.18
751.141	1562.77
751.326	1681.55
751.51	1714.32
751.695	1562.77
751.879	1677.46
752.064	1683.6
752.248	1515.67
752.432	1620.11
752.617	1650.83
752.801	1616.02
752.985	1548.44
753.17	1515.67
753.354	1468.56
753.538	1462.42
753.722	1505.43
753.907	1556.63
754.091	1503.38
754.275	1431.7
754.459	1511.57
754.643	1357.97
754.828	1464.47
755.012	1386.65
755.196	1427.6
755.38	1441.94
755.564	1466.52
755.748	1487
755.932	1435.8
756.116	1323.16
756.3	1433.75
756.484	1300.63
756.668	1314.97
756.852	1372.31
757.036	1308.82
757.22	1267.86
757.404	1245.34
757.588	1382.55
757.772	1376.41
757.956	1296.53
758.14	1360.02
758.323	1280.15
758.507	1235.1
758.691	1300.63
758.875	1251.48
759.059	1165.46
759.242	1267.86
759.426	1349.78
759.61	1181.85
759.794	1292.44
759.977	1173.66
760.161	1138.84
760.345	1198.23
760.528	1173.66
760.712	1161.37
760.895	1198.23
761.079	1063.07
761.263	1173.66
761.446	1116.31
761.63	1085.59
761.813	1161.37
761.997	1124.51
762.18	1083.55
762.364	1020.06
762.547	1028.25
762.731	1144.99
762.914	1095.83
763.098	979.1
763.281	1075.35
763.464	1093.79
763.648	1071.26
763.831	1056.92
764.015	1001.63
764.198	1089.69
764.381	1079.45
764.564	1065.11
764.748	1005.72
764.931	1028.25
765.114	1050.78
765.297	1118.36
765.481	948.38
765.664	989.34
765.847	960.67
766.03	968.86
766.213	897.18
766.397	968.86
766.58	932
766.763	864.41
766.946	985.24
767.129	944.28
767.312	1044.63
767.495	944.28
767.678	927.9
767.861	929.95
768.044	981.15
768.227	995.48
768.41	882.85
768.593	901.28
768.776	979.1
768.959	972.96
769.142	1024.16
769.324	936.09
769.507	944.28
769.69	858.27
769.873	852.13
770.056	897.18
770.239	934.04
770.421	932
770.604	960.67
770.787	882.85
770.97	888.99
771.152	925.85
771.335	915.61
771.518	850.08
771.7	921.76
771.883	899.23
772.066	796.83
772.248	952.48
772.431	854.17
772.613	786.59
772.796	891.04
772.978	850.08
773.161	897.18
773.343	782.49
773.526	764.06
773.708	766.11
773.891	792.73
774.073	864.41
774.256	776.35
774.438	762.02
774.621	831.65
774.803	800.93
774.985	776.35
775.168	768.16
775.35	813.21
775.532	770.21
775.715	807.07
775.897	755.87
776.079	673.95
776.261	733.34
776.444	762.02
776.626	739.49
776.808	620.71
776.99	712.86
777.173	686.24
777.355	690.34
777.537	700.58
777.719	690.34
777.901	727.2
778.083	647.33
778.265	569.51
778.447	694.43
778.629	700.58
778.811	632.99
778.993	714.91
779.175	575.65
779.357	719.01
779.539	678.05
779.721	565.41
779.903	635.04
780.085	571.55
780.267	579.75
780.449	563.36
780.631	596.13
780.812	606.37
780.994	639.14
781.176	546.98
781.358	559.27
781.54	501.92
781.721	579.75
781.903	565.41
782.085	551.07
782.267	563.36
782.448	518.31
782.63	604.32
782.812	651.42
782.993	514.21
783.175	555.17
783.357	557.22
783.538	520.35
783.72	460.96
783.901	520.35
784.083	542.88
784.264	602.27
784.446	538.79
784.627	489.64
784.809	518.31
784.99	534.69
785.172	489.64
785.353	477.35
785.535	456.87
785.716	569.51
785.897	448.68
786.079	456.87
786.26	417.96
786.441	446.63
786.623	411.81
786.804	510.11
786.985	389.28
787.167	465.06
787.348	440.48
787.529	481.44
787.71	483.49
787.891	422.05
788.073	407.72
788.254	442.53
788.435	350.37
788.616	420
788.797	403.62
788.978	395.43
789.159	452.77
789.34	391.33
789.522	350.37
789.703	450.72
789.884	346.28
790.065	381.09
790.246	411.81
790.427	420
790.607	407.72
790.788	374.95
790.969	309.41
791.15	383.14
791.331	338.09
791.512	432.29
791.693	389.28
791.874	397.48
792.054	374.95
792.235	307.37
792.416	329.89
792.597	293.03
792.778	315.56
792.958	333.99
793.139	377
793.32	344.23
793.5	370.85
793.681	364.71
793.862	338.09
794.042	309.41
794.223	352.42
794.404	309.41
794.584	303.27
794.765	282.79
794.945	362.66
795.126	325.8
795.306	282.79
795.487	299.17
795.667	301.22
795.848	329.89
796.028	276.65
796.209	309.41
796.389	237.74
796.57	258.21
796.75	284.84
796.93	274.6
797.111	207.02
797.291	288.93
797.471	323.75
797.652	311.46
797.832	247.97
798.012	338.09
798.192	237.74
798.373	260.26
798.553	280.74
798.733	219.3
798.913	288.93
799.093	288.93
799.274	247.97
799.454	323.75
799.634	299.17
799.814	325.8
799.994	305.32
800.174	278.69
800.354	243.88
800.534	256.17
800.714	241.83
800.894	278.69
801.074	180.39
801.254	270.5
801.434	245.93
801.614	239.78
801.794	196.78
801.974	475.3
802.154	211.11
802.334	184.49
802.514	231.59
802.693	207.02
802.873	196.78
803.053	297.13
803.233	215.21
803.413	217.26
803.592	252.07
803.772	225.45
803.952	231.59
804.131	215.21
804.311	164.01
804.491	116.9
804.67	250.02
804.85	143.53
805.03	192.68
805.209	215.21
805.389	180.39
805.568	211.11
805.748	186.54
805.928	196.78
806.107	135.34
806.287	186.54
806.466	229.54
806.646	260.26
806.825	139.43
807.004	196.78
807.184	256.17
807.363	170.15
807.543	293.03
807.722	235.69
807.901	178.34
808.081	198.82
808.26	215.21
808.439	231.59
808.619	231.59
808.798	233.64
808.977	161.96
809.156	245.93
809.336	157.86
809.515	186.54
809.694	157.86
809.873	198.82
810.052	96.43
810.231	215.21
810.411	223.4
810.59	194.73
810.769	127.14
810.948	170.15
811.127	213.16
811.306	198.82
811.485	172.2
811.664	213.16
811.843	213.16
812.022	131.24
812.201	131.24
812.38	178.34
812.559	190.63
812.737	145.58
812.916	172.2
813.095	149.67
813.274	196.78
813.453	141.48
813.632	147.62
813.811	155.82
813.989	159.91
814.168	196.78
814.347	192.68
814.526	112.81
814.704	133.29
814.883	141.48
815.062	190.63
815.24	96.43
815.419	159.91
815.598	178.34
815.776	161.96
815.955	161.96
816.133	157.86
816.312	114.86
816.49	131.24
816.669	170.15
816.847	168.1
817.026	69.8
817.204	149.67
817.383	125.1
817.561	84.14
817.74	147.62
817.918	170.15
818.097	135.34
818.275	129.19
818.453	96.43
818.632	186.54
818.81	129.19
818.988	159.91
819.167	147.62
819.345	110.76
819.523	39.08
819.701	137.38
819.879	37.03
820.058	131.24
820.236	131.24
820.414	170.15
820.592	114.86
820.77	155.82
820.948	94.38
821.127	202.92
821.305	182.44
821.483	118.95
821.661	196.78
821.839	129.19
822.017	190.63
822.195	116.9
822.373	184.49
822.551	47.27
822.729	147.62
822.907	168.1
823.085	77.99
823.262	112.81
823.44	188.58
823.618	149.67
823.796	135.34
823.974	161.96
824.152	106.67
824.329	114.86
824.507	49.32
824.685	84.14
824.863	94.38
825.04	129.19
825.218	92.33
825.396	88.23
825.574	43.18
825.751	45.23
825.929	157.86
826.107	88.23
826.284	110.76
826.462	45.23
826.639	34.99
826.817	151.72
826.994	100.52
827.172	159.91
827.349	135.34
827.527	100.52
827.704	61.61
827.882	65.71
828.059	153.77
828.237	77.99
828.414	139.43
828.591	59.56
828.769	84.14
828.946	121
829.124	96.43
829.301	43.18
829.478	10.41
829.655	137.38
829.833	77.99
830.01	86.19
830.187	73.9
830.364	65.71
830.542	80.04
830.719	116.9
830.896	86.19
831.073	14.51
831.25	67.75
831.427	55.47
831.604	139.43
831.782	92.33
831.959	61.61
832.136	96.43
832.313	153.77
832.49	157.86
832.667	61.61
832.844	32.94
833.021	123.05
833.198	75.95
833.374	92.33
833.551	127.14
833.728	39.08
833.905	86.19
834.082	63.66
834.259	86.19
834.436	55.47
834.612	37.03
834.789	235.69
834.966	108.71
835.143	157.86
835.319	108.71
835.496	106.67
835.673	45.23
835.85	77.99
836.026	153.77
836.203	16.55
836.38	110.76
836.556	82.09
836.733	39.08
836.909	47.27
837.086	65.71
837.262	51.37
837.439	80.04
837.616	80.04
837.792	43.18
837.968	137.38
838.145	14.51
838.321	110.76
838.498	47.27
838.674	59.56
838.851	82.09
839.027	39.08
839.203	-3.93
839.38	63.66
839.556	45.23
839.732	34.99
839.909	53.42
840.085	94.38
840.261	16.55
840.437	71.85
840.614	39.08
840.79	102.57
840.966	98.47
841.142	45.23
841.318	0.17
841.494	102.57
841.671	55.47
841.847	30.89
842.023	-48.98
842.199	51.37
842.375	80.04
842.551	30.89
842.727	116.9
842.903	131.24
843.079	-14.17
843.255	73.9
843.431	65.71
843.607	59.56
843.783	20.65
843.959	71.85
844.134	75.95
844.31	84.14
844.486	18.6
844.662	96.43
844.838	112.81
845.013	84.14
845.189	71.85
845.365	28.84
845.541	104.62
845.716	30.89
845.892	77.99
846.068	2.22
846.244	57.51
846.419	55.47
846.595	51.37
846.77	-22.36
846.946	86.19
847.122	63.66
847.297	20.65
847.473	121
847.648	71.85
847.824	65.71
847.999	39.08
848.175	77.99
848.35	63.66
848.526	77.99
848.701	110.76
848.876	43.18
849.052	43.18
849.227	18.6
849.403	86.19
849.578	37.03
849.753	14.51
849.929	75.95
850.104	-10.07
850.279	28.84
850.454	92.33
850.63	118.95
850.805	84.14
850.98	43.18
851.155	43.18
851.33	55.47
851.505	63.66
851.681	73.9
851.856	67.75
852.031	10.41
852.206	-18.26
852.381	63.66
852.556	2.22
852.731	47.27
852.906	135.34
853.081	112.81
853.256	108.71
853.431	20.65
853.606	-44.88
853.781	20.65
853.956	-28.5
854.131	53.42
854.305	20.65
854.48	75.95
854.655	65.71
854.83	39.08
855.005	43.18
855.18	12.46
855.354	51.37
855.529	104.62
855.704	18.6
855.879	114.86
856.053	20.65
856.228	51.37
856.403	39.08
856.577	75.95
856.752	51.37
856.926	75.95
857.101	22.7
857.276	69.8
857.45	30.89
857.625	49.32
857.799	-30.55
857.974	16.55
858.148	30.89
858.323	26.79
858.497	39.08
858.672	-34.64
858.846	63.66
859.02	47.27
859.195	-30.55
859.369	28.84
859.543	-18.26
859.718	65.71
859.892	69.8
860.066	82.09
860.241	24.75
860.415	45.23
860.589	63.66
860.763	22.7
860.938	8.36
861.112	6.31
861.286	4.27
861.46	49.32
861.634	61.61
861.808	47.27
861.982	-10.07
862.157	4.27
862.331	53.42
862.505	-22.36
862.679	0.17
862.853	20.65
863.027	69.8
863.201	80.04
863.375	-14.17
863.549	71.85
863.722	-12.12
863.896	32.94
864.07	-26.45
864.244	88.23
864.418	0.17
864.592	96.43
864.766	39.08
864.939	82.09
865.113	-5.97
865.287	14.51
865.461	-16.21
865.634	12.46
865.808	69.8
865.982	32.94
866.156	14.51
866.329	39.08
866.503	43.18
866.676	-48.98
866.85	-32.6
867.024	-16.21
867.197	63.66
867.371	-22.36
867.544	41.13
867.718	-20.31
867.891	63.66
868.065	20.65
868.238	24.75
868.412	32.94
868.585	4.27
868.759	6.31
868.932	-20.31
869.105	18.6
869.279	26.79
869.452	14.51
869.625	59.56
869.799	18.6
869.972	43.18
870.145	82.09
870.319	47.27
870.492	-32.6
870.665	4.27
870.838	16.55
871.011	12.46
871.185	-32.6
871.358	8.36
871.531	63.66
871.704	71.85
871.877	53.42
872.05	30.89
872.223	24.75
872.396	63.66
872.569	98.47
872.742	4.27
872.915	53.42
873.088	-3.93
873.261	55.47
873.434	10.41
873.607	20.65
873.78	-53.08
873.953	-42.84
874.126	41.13
874.299	96.43
874.471	-96.08
874.644	18.6
874.817	45.23
874.99	4.27
875.163	-26.45
875.335	39.08
875.508	49.32
875.681	61.61
875.853	-22.36
876.026	22.7
876.199	-26.45
876.371	6.31
876.544	55.47
876.717	137.38
876.889	32.94
877.062	20.65
877.234	-34.64
877.407	-26.45
877.579	47.27
877.752	-22.36
877.924	39.08
878.097	34.99
878.269	-32.6
878.442	45.23
878.614	37.03
878.786	41.13
878.959	22.7
879.131	18.6
879.303	22.7
879.476	22.7
879.648	-61.27
879.82	26.79
879.993	20.65
880.165	63.66
880.337	73.9
880.509	6.31
880.681	39.08
880.854	24.75
881.026	57.51
881.198	-5.97
881.37	-1.88
881.542	49.32
881.714	20.65
881.886	26.79
882.058	51.37
882.23	47.27
882.402	12.46
882.574	22.7
882.746	-8.02
882.918	47.27
883.09	34.99
883.262	43.18
883.434	34.99
883.606	-67.41
883.778	49.32
883.95	37.03
884.122	37.03
884.293	55.47
884.465	-20.31
884.637	75.95
884.809	-30.55
884.98	14.51
885.152	75.95
885.324	75.95
885.496	-3.93
885.667	37.03
885.839	59.56
886.011	-1.88
886.182	-10.07
886.354	47.27
886.525	43.18
886.697	20.65
886.869	18.6
887.04	49.32
887.212	45.23
887.383	16.55
887.555	67.75
887.726	10.41
887.897	14.51
888.069	-10.07
888.24	18.6
888.412	-5.97
888.583	0.17
888.754	-16.21
888.926	-32.6
889.097	16.55
889.268	22.7
889.44	16.55
889.611	16.55
889.782	55.47
889.953	-8.02
890.125	55.47
890.296	-34.64
890.467	32.94
890.638	-38.74
890.809	14.51
890.98	6.31
891.151	-14.17
891.323	18.6
891.494	0.17
891.665	28.84
891.836	-24.4
892.007	34.99
892.178	14.51
892.349	-36.69
892.52	-8.02
892.691	-48.98
892.862	8.36
893.032	-28.5
893.203	14.51
893.374	-28.5
893.545	-22.36
893.716	-24.4
893.887	20.65
894.057	-26.45
894.228	14.51
894.399	14.51
894.57	96.43
894.74	2.22
894.911	51.37
895.082	-10.07
895.253	34.99
895.423	20.65
895.594	30.89
895.764	20.65
895.935	-14.17
896.106	12.46
896.276	-61.27
896.447	39.08
896.617	45.23
896.788	55.47
896.958	-53.08
897.129	57.51
897.299	63.66
897.47	39.08
897.64	73.9
897.81	16.55
897.981	2.22
898.151	-18.26
898.322	0.17
898.492	-20.31
898.662	-96.08
898.832	26.79
899.003	10.41
899.173	22.7
899.343	-38.74
899.513	-65.36
