Data from USB4F104151__12__11-36-25-368.txt Node

Date: Fri Mar 14 11:36:25 EDT 2025
User: louis
Spectrometer: USB4F10415
Trigger mode: 4
Integration Time (sec): 2.000000E-2
Scans to average: 1
Electric dark correction enabled: true
Nonlinearity correction enabled: false
Boxcar width: 0
XAxis mode: Wavelengths
Number of Pixels in Spectrum: 3648
>>>>>Begin Spectral Data<<<<<
178.204	-52.22
178.424	-52.22
178.644	-52.22
178.864	-50.18
179.084	-52.22
179.304	-9.22
179.524	76.8
179.744	-33.79
179.964	9.22
180.184	33.79
180.404	54.27
180.624	-11.26
180.844	-31.74
181.064	-31.74
181.283	9.22
181.503	-46.08
181.723	-19.46
181.943	-35.84
182.163	-17.41
182.383	31.74
182.602	-33.79
182.822	-15.36
183.042	39.94
183.262	21.5
183.482	27.65
183.701	3.07
183.921	-48.13
184.141	-27.65
184.361	-13.31
184.58	27.65
184.8	-23.55
185.02	64.51
185.239	-31.74
185.459	3.07
185.679	48.13
185.898	-41.98
186.118	-13.31
186.338	56.32
186.557	41.98
186.777	-62.46
186.997	68.61
187.216	56.32
187.436	-33.79
187.655	1.02
187.875	27.65
188.095	35.84
188.314	56.32
188.534	9.22
188.753	15.36
188.973	-5.12
189.192	66.56
189.412	68.61
189.631	3.07
189.851	29.7
190.07	70.65
190.29	-17.41
190.509	-3.07
190.729	-17.41
190.948	41.98
191.168	29.7
191.387	-37.89
191.607	35.84
191.826	17.41
192.045	-17.41
192.265	17.41
192.484	-25.6
192.704	66.56
192.923	-33.79
193.142	48.13
193.362	-15.36
193.581	31.74
193.8	3.07
194.02	80.89
194.239	54.27
194.458	7.17
194.678	9.22
194.897	17.41
195.116	82.94
195.335	27.65
195.555	80.89
195.774	37.89
195.993	-17.41
196.212	-23.55
196.432	31.74
196.651	72.7
196.87	-52.22
197.089	56.32
197.308	-35.84
197.528	17.41
197.747	-52.22
197.966	56.32
198.185	27.65
198.404	27.65
198.623	3.07
198.842	11.26
199.062	44.03
199.281	21.5
199.5	-3.07
199.719	72.7
199.938	37.89
200.157	111.61
200.376	5.12
200.595	-25.6
200.814	-33.79
201.033	17.41
201.252	17.41
201.471	13.31
201.69	111.61
201.909	54.27
202.128	5.12
202.347	25.6
202.566	33.79
202.785	21.5
203.004	-27.65
203.223	37.89
203.442	56.32
203.661	17.41
203.879	5.12
204.098	-7.17
204.317	-84.99
204.536	19.46
204.755	27.65
204.974	-58.37
205.193	7.17
205.411	125.95
205.63	60.42
205.849	33.79
206.068	46.08
206.287	1.02
206.505	39.94
206.724	31.74
206.943	-54.27
207.162	72.7
207.381	-72.7
207.599	-15.36
207.818	25.6
208.037	19.46
208.255	31.74
208.474	11.26
208.693	-25.6
208.911	15.36
209.13	-17.41
209.349	105.47
209.567	35.84
209.786	-3.07
210.005	19.46
210.223	54.27
210.442	-21.5
210.661	39.94
210.879	17.41
211.098	13.31
211.316	-15.36
211.535	-3.07
211.753	1.02
211.972	1.02
212.191	-15.36
212.409	37.89
212.628	44.03
212.846	-1.02
213.065	35.84
213.283	21.5
213.502	-13.31
213.72	70.65
213.938	13.31
214.157	66.56
214.375	9.22
214.594	72.7
214.812	93.18
215.031	23.55
215.249	13.31
215.467	80.89
215.686	9.22
215.904	25.6
216.122	-31.74
216.341	5.12
216.559	48.13
216.778	93.18
216.996	62.46
217.214	-13.31
217.432	101.37
217.651	-27.65
217.869	17.41
218.087	80.89
218.306	25.6
218.524	-3.07
218.742	41.98
218.96	-25.6
219.179	15.36
219.397	-33.79
219.615	60.42
219.833	-35.84
220.051	-44.03
220.27	11.26
220.488	29.7
220.706	-1.02
220.924	-1.02
221.142	31.74
221.36	29.7
221.578	19.46
221.796	31.74
222.015	46.08
222.233	74.75
222.451	-33.79
222.669	21.5
222.887	58.37
223.105	7.17
223.323	5.12
223.541	31.74
223.759	7.17
223.977	-11.26
224.195	93.18
224.413	97.28
224.631	29.7
224.849	-48.13
225.067	19.46
225.285	125.95
225.503	-54.27
225.721	-41.98
225.939	46.08
226.157	44.03
226.375	31.74
226.592	-21.5
226.81	39.94
227.028	-1.02
227.246	-21.5
227.464	84.99
227.682	46.08
227.9	35.84
228.117	-7.17
228.335	70.65
228.553	3.07
228.771	66.56
228.989	46.08
229.206	44.03
229.424	46.08
229.642	-15.36
229.86	72.7
230.077	41.98
230.295	-52.22
230.513	19.46
230.731	48.13
230.948	60.42
231.166	15.36
231.384	9.22
231.601	27.65
231.819	62.46
232.037	11.26
232.254	41.98
232.472	25.6
232.689	17.41
232.907	138.24
233.125	39.94
233.342	76.8
233.56	-17.41
233.777	29.7
233.995	29.7
234.213	52.22
234.43	78.85
234.648	72.7
234.865	-5.12
235.083	44.03
235.3	-17.41
235.518	5.12
235.735	62.46
235.953	78.85
236.17	21.5
236.388	17.41
236.605	56.32
236.822	121.85
237.04	29.7
237.257	48.13
237.475	52.22
237.692	44.03
237.909	-1.02
238.127	-11.26
238.344	13.31
238.562	33.79
238.779	9.22
238.996	27.65
239.214	31.74
239.431	9.22
239.648	5.12
239.865	19.46
240.083	74.75
240.3	-3.07
240.517	19.46
240.735	56.32
240.952	68.61
241.169	87.04
241.386	13.31
241.603	23.55
241.821	25.6
242.038	11.26
242.255	50.18
242.472	-27.65
242.689	48.13
242.907	27.65
243.124	52.22
243.341	11.26
243.558	44.03
243.775	-11.26
243.992	21.5
244.209	27.65
244.426	44.03
244.643	3.07
244.86	-17.41
245.078	27.65
245.295	9.22
245.512	-66.56
245.729	15.36
245.946	-25.6
246.163	-7.17
246.38	25.6
246.597	78.85
246.814	-5.12
247.031	-33.79
247.248	23.55
247.464	17.41
247.681	52.22
247.898	35.84
248.115	74.75
248.332	60.42
248.549	56.32
248.766	-15.36
248.983	54.27
249.2	11.26
249.417	48.13
249.633	-41.98
249.85	121.85
250.067	-13.31
250.284	-33.79
250.501	-9.22
250.717	21.5
250.934	-29.7
251.151	39.94
251.368	-5.12
251.585	48.13
251.801	39.94
252.018	-11.26
252.235	27.65
252.451	29.7
252.668	48.13
252.885	72.7
253.102	9.22
253.318	58.37
253.535	25.6
253.752	1.02
253.968	29.7
254.185	15.36
254.401	-27.65
254.618	-3.07
254.835	44.03
255.051	-46.08
255.268	23.55
255.484	-29.7
255.701	62.46
255.917	23.55
256.134	-1.02
256.351	52.22
256.567	21.5
256.784	3.07
257	-27.65
257.217	62.46
257.433	-15.36
257.65	27.65
257.866	46.08
258.082	23.55
258.299	-25.6
258.515	5.12
258.732	113.66
258.948	-15.36
259.165	19.46
259.381	9.22
259.597	17.41
259.814	-1.02
260.03	-5.12
260.246	-44.03
260.463	84.99
260.679	76.8
260.895	27.65
261.112	25.6
261.328	-56.32
261.544	33.79
261.761	132.09
261.977	-48.13
262.193	29.7
262.409	-15.36
262.626	-3.07
262.842	15.36
263.058	25.6
263.274	-27.65
263.49	-3.07
263.707	52.22
263.923	72.7
264.139	7.17
264.355	11.26
264.571	56.32
264.787	46.08
265.004	35.84
265.22	-50.18
265.436	35.84
265.652	29.7
265.868	-3.07
266.084	31.74
266.3	56.32
266.516	25.6
266.732	-13.31
266.948	5.12
267.164	78.85
267.38	35.84
267.596	21.5
267.812	21.5
268.028	-11.26
268.244	27.65
268.46	-9.22
268.676	-50.18
268.892	19.46
269.108	-29.7
269.324	27.65
269.54	-27.65
269.756	-15.36
269.972	-39.94
270.188	37.89
270.403	-21.5
270.619	3.07
270.835	44.03
271.051	60.42
271.267	31.74
271.483	31.74
271.698	7.17
271.914	-13.31
272.13	-31.74
272.346	105.47
272.562	89.09
272.777	31.74
272.993	15.36
273.209	13.31
273.425	39.94
273.64	-48.13
273.856	60.42
274.072	3.07
274.287	-5.12
274.503	62.46
274.719	74.75
274.934	115.71
275.15	48.13
275.366	29.7
275.581	15.36
275.797	-3.07
276.012	48.13
276.228	84.99
276.444	-15.36
276.659	101.37
276.875	-21.5
277.09	-37.89
277.306	89.09
277.521	60.42
277.737	21.5
277.952	13.31
278.168	58.37
278.383	-39.94
278.599	115.71
278.814	7.17
279.03	21.5
279.245	-17.41
279.461	-35.84
279.676	27.65
279.892	46.08
280.107	37.89
280.322	-35.84
280.538	-76.8
280.753	-60.42
280.969	-33.79
281.184	-39.94
281.399	9.22
281.615	3.07
281.83	50.18
282.045	-9.22
282.26	5.12
282.476	-7.17
282.691	9.22
282.906	-21.5
283.122	56.32
283.337	7.17
283.552	37.89
283.767	31.74
283.983	97.28
284.198	44.03
284.413	58.37
284.628	7.17
284.843	19.46
285.058	76.8
285.274	25.6
285.489	39.94
285.704	82.94
285.919	21.5
286.134	54.27
286.349	56.32
286.564	-5.12
286.779	33.79
286.995	-50.18
287.21	23.55
287.425	-23.55
287.64	35.84
287.855	-33.79
288.07	1.02
288.285	93.18
288.5	11.26
288.715	35.84
288.93	68.61
289.145	15.36
289.36	21.5
289.575	62.46
289.79	31.74
290.004	37.89
290.219	-68.61
290.434	-25.6
290.649	-11.26
290.864	37.89
291.079	19.46
291.294	-29.7
291.509	31.74
291.724	39.94
291.938	64.51
292.153	70.65
292.368	-37.89
292.583	15.36
292.798	62.46
293.012	7.17
293.227	58.37
293.442	15.36
293.657	103.42
293.871	93.18
294.086	11.26
294.301	-3.07
294.516	125.95
294.73	-50.18
294.945	9.22
295.16	15.36
295.374	62.46
295.589	29.7
295.804	-72.7
296.018	39.94
296.233	-15.36
296.447	-5.12
296.662	46.08
296.877	11.26
297.091	50.18
297.306	-9.22
297.52	-1.02
297.735	11.26
297.949	21.5
298.164	66.56
298.378	-5.12
298.593	23.55
298.807	54.27
299.022	23.55
299.236	13.31
299.451	93.18
299.665	39.94
299.88	52.22
300.094	105.47
300.309	21.5
300.523	15.36
300.737	-1.02
300.952	31.74
301.166	60.42
301.381	-21.5
301.595	70.65
301.809	41.98
302.024	21.5
302.238	-21.5
302.452	103.42
302.667	29.7
302.881	76.8
303.095	50.18
303.309	48.13
303.524	15.36
303.738	33.79
303.952	35.84
304.166	50.18
304.381	78.85
304.595	39.94
304.809	91.13
305.023	56.32
305.237	56.32
305.452	105.47
305.666	72.7
305.88	5.12
306.094	87.04
306.308	-9.22
306.522	56.32
306.736	82.94
306.95	101.37
307.164	-25.6
307.379	54.27
307.593	41.98
307.807	25.6
308.021	23.55
308.235	37.89
308.449	21.5
308.663	7.17
308.877	113.66
309.091	-7.17
309.305	113.66
309.519	-21.5
309.733	89.09
309.947	39.94
310.161	15.36
310.374	39.94
310.588	5.12
310.802	-3.07
311.016	46.08
311.23	50.18
311.444	-25.6
311.658	-19.46
311.872	15.36
312.085	54.27
312.299	56.32
312.513	19.46
312.727	-19.46
312.941	48.13
313.154	-15.36
313.368	80.89
313.582	-13.31
313.796	7.17
314.009	48.13
314.223	-29.7
314.437	48.13
314.651	142.33
314.864	9.22
315.078	-21.5
315.292	17.41
315.505	3.07
315.719	84.99
315.933	146.43
316.146	29.7
316.36	21.5
316.573	52.22
316.787	-1.02
317.001	37.89
317.214	-3.07
317.428	-11.26
317.641	-9.22
317.855	44.03
318.068	5.12
318.282	31.74
318.495	97.28
318.709	125.95
318.922	-33.79
319.136	89.09
319.349	7.17
319.563	-9.22
319.776	82.94
319.99	-9.22
320.203	70.65
320.417	68.61
320.63	31.74
320.843	87.04
321.057	37.89
321.27	-1.02
321.483	23.55
321.697	48.13
321.91	84.99
322.124	105.47
322.337	31.74
322.55	27.65
322.763	54.27
322.977	50.18
323.19	-82.94
323.403	-48.13
323.617	27.65
323.83	-1.02
324.043	-7.17
324.256	87.04
324.469	72.7
324.683	97.28
324.896	56.32
325.109	119.81
325.322	35.84
325.535	39.94
325.748	64.51
325.962	33.79
326.175	7.17
326.388	48.13
326.601	56.32
326.814	91.13
327.027	52.22
327.24	101.37
327.453	-37.89
327.666	41.98
327.879	97.28
328.092	-1.02
328.305	11.26
328.518	89.09
328.731	64.51
328.944	56.32
329.157	15.36
329.37	15.36
329.583	136.19
329.796	-13.31
330.009	72.7
330.222	21.5
330.435	39.94
330.648	82.94
330.861	56.32
331.073	7.17
331.286	54.27
331.499	50.18
331.712	29.7
331.925	-13.31
332.138	48.13
332.35	111.61
332.563	39.94
332.776	39.94
332.989	-21.5
333.202	41.98
333.414	-37.89
333.627	52.22
333.84	60.42
334.053	60.42
334.265	15.36
334.478	-5.12
334.691	46.08
334.903	35.84
335.116	84.99
335.329	9.22
335.541	70.65
335.754	52.22
335.966	33.79
336.179	84.99
336.392	23.55
336.604	17.41
336.817	41.98
337.029	56.32
337.242	31.74
337.454	68.61
337.667	-50.18
337.88	21.5
338.092	29.7
338.305	103.42
338.517	76.8
338.729	66.56
338.942	52.22
339.154	54.27
339.367	21.5
339.579	29.7
339.792	-29.7
340.004	39.94
340.217	44.03
340.429	5.12
340.641	15.36
340.854	54.27
341.066	-9.22
341.278	111.61
341.491	87.04
341.703	70.65
341.915	82.94
342.128	84.99
342.34	56.32
342.552	80.89
342.764	29.7
342.977	-11.26
343.189	31.74
343.401	64.51
343.613	-19.46
343.826	31.74
344.038	-9.22
344.25	25.6
344.462	-13.31
344.674	-9.22
344.886	23.55
345.099	72.7
345.311	37.89
345.523	19.46
345.735	39.94
345.947	68.61
346.159	23.55
346.371	7.17
346.583	11.26
346.795	95.23
347.007	9.22
347.219	-5.12
347.431	39.94
347.643	50.18
347.855	-17.41
348.067	74.75
348.279	11.26
348.491	56.32
348.703	87.04
348.915	41.98
349.127	54.27
349.339	25.6
349.551	-21.5
349.763	44.03
349.975	50.18
350.187	82.94
350.399	46.08
350.61	54.27
350.822	31.74
351.034	-19.46
351.246	64.51
351.458	78.85
351.669	-1.02
351.881	78.85
352.093	76.8
352.305	21.5
352.517	13.31
352.728	23.55
352.94	-13.31
353.152	113.66
353.363	70.65
353.575	7.17
353.787	35.84
353.999	-1.02
354.21	70.65
354.422	41.98
354.633	33.79
354.845	29.7
355.057	103.42
355.268	39.94
355.48	46.08
355.692	50.18
355.903	7.17
356.115	35.84
356.326	-1.02
356.538	56.32
356.749	-19.46
356.961	41.98
357.172	39.94
357.384	25.6
357.595	105.47
357.807	56.32
358.018	48.13
358.23	54.27
358.441	39.94
358.653	3.07
358.864	39.94
359.075	-5.12
359.287	19.46
359.498	-23.55
359.709	76.8
359.921	-17.41
360.132	31.74
360.344	64.51
360.555	-7.17
360.766	11.26
360.977	11.26
361.189	-3.07
361.4	89.09
361.611	89.09
361.823	29.7
362.034	31.74
362.245	39.94
362.456	-31.74
362.667	70.65
362.879	15.36
363.09	52.22
363.301	21.5
363.512	35.84
363.723	23.55
363.935	39.94
364.146	44.03
364.357	-17.41
364.568	7.17
364.779	74.75
364.99	109.57
365.201	35.84
365.412	89.09
365.623	31.74
365.834	39.94
366.045	-52.22
366.256	64.51
366.467	60.42
366.678	46.08
366.889	-23.55
367.1	-33.79
367.311	35.84
367.522	48.13
367.733	115.71
367.944	117.76
368.155	46.08
368.366	68.61
368.577	99.33
368.788	66.56
368.999	-1.02
369.209	15.36
369.42	111.61
369.631	113.66
369.842	9.22
370.053	111.61
370.264	64.51
370.474	39.94
370.685	46.08
370.896	3.07
371.107	35.84
371.317	70.65
371.528	27.65
371.739	44.03
371.95	89.09
372.16	125.95
372.371	41.98
372.582	89.09
372.792	37.89
373.003	46.08
373.214	11.26
373.424	121.85
373.635	56.32
373.846	52.22
374.056	1.02
374.267	89.09
374.477	107.52
374.688	29.7
374.898	44.03
375.109	76.8
375.319	19.46
375.53	50.18
375.74	72.7
375.951	1.02
376.161	54.27
376.372	121.85
376.582	46.08
376.793	37.89
377.003	64.51
377.214	31.74
377.424	5.12
377.635	31.74
377.845	33.79
378.055	60.42
378.266	84.99
378.476	76.8
378.686	48.13
378.897	19.46
379.107	50.18
379.317	117.76
379.528	91.13
379.738	58.37
379.948	29.7
380.158	91.13
380.369	97.28
380.579	62.46
380.789	39.94
380.999	82.94
381.21	66.56
381.42	82.94
381.63	5.12
381.84	101.37
382.05	52.22
382.261	29.7
382.471	101.37
382.681	62.46
382.891	23.55
383.101	78.85
383.311	56.32
383.521	39.94
383.731	46.08
383.941	113.66
384.151	39.94
384.361	99.33
384.571	56.32
384.781	-25.6
384.991	130.05
385.201	82.94
385.411	142.33
385.621	50.18
385.831	39.94
386.041	-17.41
386.251	50.18
386.461	48.13
386.671	70.65
386.881	27.65
387.091	66.56
387.301	-15.36
387.511	111.61
387.72	25.6
387.93	97.28
388.14	56.32
388.35	-66.56
388.56	82.94
388.769	48.13
388.979	72.7
389.189	7.17
389.399	95.23
389.609	39.94
389.818	87.04
390.028	46.08
390.238	72.7
390.447	-9.22
390.657	31.74
390.867	23.55
391.076	136.19
391.286	103.42
391.496	103.42
391.705	21.5
391.915	68.61
392.125	62.46
392.334	80.89
392.544	89.09
392.753	-7.17
392.963	54.27
393.172	72.7
393.382	21.5
393.591	44.03
393.801	35.84
394.01	101.37
394.22	70.65
394.429	25.6
394.639	109.57
394.848	-11.26
395.058	29.7
395.267	66.56
395.477	111.61
395.686	23.55
395.895	76.8
396.105	113.66
396.314	39.94
396.524	189.44
396.733	70.65
396.942	128
397.152	107.52
397.361	56.32
397.57	80.89
397.78	62.46
397.989	84.99
398.198	78.85
398.407	50.18
398.617	68.61
398.826	154.62
399.035	68.61
399.244	97.28
399.453	115.71
399.663	48.13
399.872	117.76
400.081	80.89
400.29	70.65
400.499	93.18
400.708	130.05
400.917	76.8
401.127	62.46
401.336	54.27
401.545	93.18
401.754	115.71
401.963	125.95
402.172	84.99
402.381	21.5
402.59	109.57
402.799	91.13
403.008	103.42
403.217	136.19
403.426	103.42
403.635	31.74
403.844	95.23
404.053	115.71
404.262	171.01
404.471	125.95
404.68	154.62
404.888	111.61
405.097	216.06
405.306	84.99
405.515	199.68
405.724	125.95
405.933	105.47
406.142	156.67
406.35	179.2
406.559	191.49
406.768	130.05
406.977	261.12
407.185	224.25
407.394	203.77
407.603	187.39
407.812	248.83
408.02	261.12
408.229	185.34
408.438	234.49
408.646	201.72
408.855	248.83
409.064	242.68
409.272	211.96
409.481	242.68
409.69	328.7
409.898	275.45
410.107	224.25
410.315	300.03
410.524	365.56
410.733	310.27
410.941	289.79
411.15	343.03
411.358	383.99
411.567	455.67
411.775	383.99
411.984	343.03
412.192	398.33
412.401	504.82
412.609	422.91
412.818	539.64
413.026	515.06
413.234	445.43
413.443	515.06
413.651	476.15
413.86	478.2
414.068	607.22
414.276	623.61
414.485	629.75
414.693	683
414.901	695.29
415.11	680.95
415.318	605.17
415.526	728.05
415.734	754.68
415.943	814.07
416.151	771.06
416.359	801.78
416.567	824.31
416.776	797.68
416.984	871.41
417.192	1051.63
417.4	912.37
417.608	930.8
417.817	992.24
418.025	945.14
418.233	1113.07
418.441	1151.98
418.649	1123.31
418.857	1227.76
419.065	1197.04
419.273	1270.76
419.481	1307.63
419.689	1397.74
419.897	1479.66
420.105	1371.12
420.313	1424.36
420.521	1555.43
420.729	1473.51
420.937	1580.01
421.145	1723.37
421.353	1762.28
421.561	1887.2
421.769	1825.76
421.977	2071.52
422.185	1876.96
422.393	2145.25
422.601	2169.82
422.809	2048.99
423.017	2175.97
423.224	2241.5
423.432	2345.95
423.64	2380.76
423.848	2657.24
424.056	2595.8
424.263	2741.21
424.471	2671.58
424.679	2798.55
424.887	2898.9
425.094	2806.74
425.302	2950.1
425.51	3259.34
425.718	3269.58
425.925	3306.45
426.133	3312.59
426.341	3652.55
426.548	3748.81
426.756	3742.66
426.964	3849.16
427.171	4092.87
427.379	4004.8
427.586	4166.59
427.794	4271.04
428.001	4451.26
428.209	4672.44
428.417	4555.71
428.624	4903.86
428.832	4887.48
429.039	4953.01
429.247	5004.21
429.454	5434.29
429.662	5761.96
429.869	5315.5
430.076	5780.39
430.284	5690.28
430.491	5821.35
430.699	6118.31
430.906	6265.76
431.114	6329.25
431.321	6591.39
431.528	6642.59
431.736	7046.04
431.943	7414.67
432.15	7285.65
432.358	7168.91
432.565	7701.39
432.772	7637.9
432.979	8139.65
433.187	8211.33
433.394	8094.6
433.601	8807.29
433.808	8915.83
434.016	8704.89
434.223	9102.2
434.43	9702.25
434.637	9331.57
434.844	9900.9
435.052	10322.79
435.259	10220.39
435.466	10085.22
435.673	10314.59
435.88	11002.71
436.087	11361.11
436.294	11342.67
436.501	11119.45
436.708	11383.63
436.915	11842.38
437.122	12303.17
437.329	12307.27
437.537	12610.37
437.743	12925.75
437.95	12897.08
438.157	13583.15
438.364	13613.87
438.571	13861.68
438.778	14005.03
438.985	15399.7
439.192	14457.64
439.399	15205.14
439.606	14711.58
439.813	15729.42
440.02	16349.96
440.227	16120.59
440.433	16104.2
440.64	16556.8
440.847	16677.63
441.054	16841.47
441.261	17906.41
441.467	17941.23
441.674	18332.39
441.881	18801.38
442.088	18658.02
442.294	18621.16
442.501	19092.19
442.708	19663.57
442.914	20439.75
443.121	21037.76
443.328	20466.38
443.534	22096.56
443.741	21576.37
443.948	21058.24
444.154	22641.32
444.361	22370.99
444.568	22428.33
444.774	22891.17
444.981	23042.72
445.187	23579.29
445.394	24713.86
445.6	24261.26
445.807	26819.17
446.013	25391.74
446.22	26073.71
446.426	27042.4
446.633	27028.07
446.839	28308.05
447.046	26565.23
447.252	28508.75
447.459	28447.31
447.665	28641.87
447.871	29694.52
448.078	30980.65
448.284	29098.56
448.491	30163.51
448.697	31433.25
448.903	32221.72
449.11	32043.54
449.316	31629.85
449.522	32127.51
449.728	32872.97
449.935	33055.24
450.141	33161.73
450.347	33927.67
450.553	32735.76
450.76	33438.21
450.966	34228.73
451.172	33534.46
451.378	34576.88
451.584	33958.39
451.791	34451.95
451.997	34900.46
452.203	34808.3
452.409	35181.03
452.615	35299.81
452.821	33821.18
453.027	33362.43
453.233	35316.2
453.44	33825.28
453.646	34390.52
453.852	34343.41
454.058	35029.48
454.264	34058.74
454.47	34537.97
454.676	34165.24
454.882	35138.02
455.088	31803.93
455.294	31935
455.5	32467.47
455.705	33055.24
455.911	31861.27
456.117	31205.92
456.323	31097.38
456.529	28926.53
456.735	30249.52
456.941	29442.62
457.147	29035.08
457.352	27802.2
457.558	27636.31
457.764	28011.09
457.97	27513.44
458.176	26792.55
458.381	26808.93
458.587	25567.87
458.793	25289.34
458.999	24324.75
459.204	26102.39
459.41	25182.85
459.616	23644.82
459.821	23616.15
460.027	23579.29
460.233	22735.53
460.438	22010.54
460.644	22102.7
460.85	20718.28
461.055	20591.3
461.261	20755.14
461.466	19049.18
461.672	18580.2
461.878	19909.33
462.083	18774.75
462.289	18264.81
462.494	18006.77
462.7	17236.73
462.905	16900.86
463.111	17234.68
463.316	17591.03
463.522	17044.22
463.727	17185.53
463.932	16843.52
464.138	16728.83
464.343	17042.17
464.549	16567.04
464.754	16929.53
464.959	16800.51
465.165	16577.28
465.37	15932.17
465.575	15579.92
465.781	15948.56
465.986	16165.64
466.191	15594.26
466.397	15436.56
466.602	14826.27
466.807	15166.23
467.012	15213.34
467.218	14916.38
467.423	14828.32
467.628	15033.11
467.833	15620.88
468.038	15053.59
468.244	14764.83
468.449	15196.95
468.654	14695.2
468.859	14519.07
469.064	14846.75
469.269	13900.59
469.474	14072.62
469.679	14441.25
469.885	13970.22
470.09	13992.75
470.295	13982.51
470.5	13620.02
470.705	13826.86
470.91	13513.52
471.115	13474.61
471.32	13667.12
471.525	13263.67
471.73	12954.43
471.935	12997.43
472.139	12675.9
472.344	12915.51
472.549	12856.12
472.754	12505.92
472.959	12219.21
473.164	11842.38
473.369	11928.39
473.574	12342.08
473.778	12286.79
473.983	12206.92
474.188	12071.75
474.393	11434.83
474.598	11518.8
474.802	11385.68
475.007	11393.87
475.212	11271
475.417	10916.7
475.621	10871.64
475.826	10822.49
476.031	10845.02
476.235	10556.25
476.44	10910.55
476.645	10161
476.849	10554.21
477.054	10482.53
477.259	10255.2
477.463	10132.33
477.668	10062.69
477.872	9894.76
478.077	9896.81
478.282	9667.44
478.486	9788.27
478.691	9579.37
478.895	9487.22
479.1	9425.78
479.304	9534.32
479.509	9309.04
479.713	9519.98
479.918	9110.39
480.122	9286.51
480.326	8907.64
480.531	9147.25
480.735	8977.27
480.94	8813.43
481.144	9335.67
481.348	8813.43
481.553	8932.22
481.757	8711.04
481.961	8872.82
482.166	8997.75
482.37	8926.07
482.574	8698.75
482.778	8661.88
482.983	8915.83
483.187	8905.59
483.391	9141.11
483.595	8713.08
483.8	8731.51
484.004	8878.97
484.208	8878.97
484.412	8813.43
484.616	8797.05
484.821	8985.46
485.025	8612.73
485.229	8883.06
485.433	8596.35
485.637	8874.87
485.841	8911.74
486.045	8680.32
486.249	8577.92
486.453	8698.75
486.657	8657.79
486.861	8944.5
487.065	8649.6
487.269	8680.32
487.473	8713.08
487.677	8838.01
487.881	8807.29
488.085	8735.61
488.289	8704.89
488.493	8754.04
488.697	8874.87
488.901	8653.69
489.105	8782.71
489.309	8838.01
489.512	8864.63
489.716	8856.44
489.92	8829.82
490.124	8645.5
490.328	9157.49
490.531	8838.01
490.735	8973.18
490.939	8983.41
491.143	8932.22
491.346	8878.97
491.55	9214.84
491.754	9165.68
491.958	9266.03
492.161	9087.86
492.365	9227.12
492.569	9294.71
492.772	9276.27
492.976	9409.39
493.18	9413.49
493.383	9532.27
493.587	9573.23
493.79	9581.42
493.994	9372.53
494.197	9700.2
494.401	9575.28
494.605	9620.33
494.808	9778.03
495.012	9798.51
495.215	9835.37
495.419	9884.52
495.622	9896.81
495.825	10089.32
496.029	10206.05
496.232	10412.9
496.436	10204
496.639	10484.58
496.843	10552.16
497.046	10701.66
497.249	10517.34
497.453	10888.03
497.656	10888.03
497.859	11008.86
498.063	10994.52
498.266	11316.05
498.469	11207.51
498.673	11408.21
498.876	11516.75
499.079	11490.13
499.282	11791.18
499.485	11959.11
499.689	11922.25
499.892	12372.8
500.095	12112.71
500.298	12432.19
500.501	12428.1
500.705	12690.24
500.908	12714.81
501.111	12809.02
501.314	12921.66
501.517	13169.46
501.72	13312.82
501.923	13400.88
502.126	13800.24
502.329	13673.26
502.532	13962.03
502.735	13863.72
502.938	14498.59
503.141	14236.45
503.344	14504.74
503.547	14492.45
503.75	14672.67
503.953	14732.06
504.156	14916.38
504.359	15217.43
504.562	15287.06
504.765	15485.72
504.968	15809.29
505.17	16106.25
505.373	16059.15
505.576	16175.88
505.779	16153.35
505.982	16362.25
506.185	16884.48
506.387	16941.82
506.59	16995.07
506.793	17074.94
506.996	17232.63
507.198	17666.8
507.401	17666.8
507.604	17756.91
507.807	18146.03
508.009	18086.64
508.212	18211.56
508.415	18488.04
508.617	18715.36
508.82	18815.71
509.022	18741.99
509.225	19428.06
509.428	19348.18
509.63	19702.48
509.833	19636.95
510.035	20200.14
510.238	19981.01
510.44	20075.21
510.643	20439.75
510.845	20689.6
511.048	20337.35
511.25	21029.57
511.453	21209.79
511.655	21689.01
511.858	21701.3
512.06	21586.61
512.262	22049.46
512.465	21906.1
512.667	22442.67
512.87	22413.99
513.072	22581.93
513.274	22895.27
513.477	23145.12
513.679	23214.75
513.881	23653.02
514.084	23769.75
514.286	24005.27
514.488	23949.97
514.69	24654.47
514.893	24349.32
515.095	24441.48
515.297	24949.38
515.499	24976
515.701	25313.92
515.904	25336.45
516.106	25361.02
516.308	25780.85
516.51	26364.53
516.712	26255.98
516.914	26600.04
517.116	26804.84
517.318	26677.86
517.52	27001.44
517.722	27134.56
517.925	27413.09
518.127	27773.53
518.329	28215.89
518.531	28090.96
518.733	28312.14
518.935	28645.96
519.136	28594.76
519.338	29000.26
519.54	29035.08
519.742	29139.52
519.944	29266.5
520.146	29768.25
520.348	29903.42
520.55	29971
520.752	29866.55
520.954	30825
521.155	30183.99
521.357	31144.48
521.559	31130.15
521.761	31674.91
521.963	31425.06
522.164	31648.29
522.366	31808.03
522.568	31978.01
522.77	31908.38
522.971	32559.63
523.173	32133.65
523.375	32506.38
523.576	32545.3
523.778	32944.65
523.98	33077.77
524.181	33049.1
524.383	32973.32
524.584	33571.33
524.786	33583.62
524.988	33270.28
525.189	33954.3
525.391	33835.52
525.592	34351.6
525.794	34292.21
525.995	34343.41
526.197	34103.8
526.398	34587.12
526.6	34722.29
526.801	34920.94
527.003	35019.24
527.204	34703.85
527.406	35142.12
527.607	35195.37
527.808	35406.31
528.01	34884.08
528.211	35434.98
528.412	36016.6
528.614	35580.39
528.815	35918.3
529.016	36012.51
529.218	35631.58
529.419	35770.85
529.62	36278.74
529.822	36067.8
530.023	36139.48
530.224	36350.42
530.425	36045.27
530.626	36002.27
530.828	35973.6
531.029	36581.84
531.23	35899.87
531.431	36344.28
531.632	36055.51
531.833	36655.57
532.035	36520.4
532.236	36544.98
532.437	36753.87
532.638	36387.28
532.839	36635.09
533.04	36653.52
533.241	36452.82
533.442	37198.28
533.643	36923.85
533.844	36901.32
534.045	36678.1
534.246	36622.8
534.447	36925.9
534.648	36536.79
534.849	36809.17
535.05	36823.5
535.251	36581.84
535.451	36647.38
535.652	36639.18
535.853	36778.45
536.054	36592.08
536.255	36762.06
536.456	37001.68
536.657	37198.28
536.857	36669.9
537.058	36551.12
537.259	37171.66
537.46	37130.7
537.66	36739.54
537.861	36860.37
538.062	36614.61
538.263	36592.08
538.463	36522.45
538.664	36704.72
538.865	36854.22
539.065	36991.44
539.266	36618.71
539.466	36872.65
539.667	36477.4
539.868	37198.28
540.068	36880.85
540.269	36467.16
540.469	36551.12
540.67	36577.75
540.87	36364.76
541.071	36364.76
541.271	36823.5
541.472	36569.55
541.672	36641.23
541.873	36671.95
542.073	36200.92
542.274	37179.85
542.474	36282.84
542.675	36157.91
542.875	36903.37
543.075	36549.07
543.276	35914.2
543.476	36749.78
543.676	36145.62
543.877	36334.04
544.077	36418
544.277	36405.72
544.478	36096.47
544.678	36434.39
544.878	36331.99
545.078	36458.96
545.279	36057.56
545.479	36366.81
545.679	36368.85
545.879	36475.35
546.079	36372.95
546.28	36182.49
546.48	35983.83
546.68	36561.36
546.88	36237.78
547.08	36121.05
547.28	36182.49
547.48	36024.79
547.68	36581.84
547.88	35828.19
548.081	36309.46
548.281	35967.45
548.481	36121.05
548.681	36481.49
548.881	36471.25
549.081	36544.98
549.28	36063.71
549.48	36151.77
549.68	36086.23
549.88	36520.4
550.08	36006.36
550.28	36325.85
550.48	35846.62
550.68	36413.91
550.88	35699.17
551.08	35746.27
551.279	36110.81
551.479	35731.93
551.679	35987.93
551.879	35744.22
552.079	36190.68
552.278	36166.1
552.478	35856.86
552.678	35932.64
552.878	35848.67
553.077	35733.98
553.277	35447.27
553.477	36252.12
553.676	35406.31
553.876	35959.26
554.076	35719.65
554.275	35856.86
554.475	35131.88
554.674	35957.21
554.874	35697.12
555.074	35228.13
555.273	35543.52
555.473	35766.75
555.672	35213.8
555.872	35052.01
556.071	35289.57
556.271	35578.34
556.47	34974.19
556.67	35045.87
556.869	35152.36
557.068	35283.43
557.268	34951.66
557.467	35123.69
557.667	35039.72
557.866	35101.16
558.065	34593.26
558.265	34892.27
558.464	34806.25
558.663	35359.2
558.863	34886.12
559.062	35041.77
559.261	34380.28
559.461	35373.54
559.66	34511.35
559.859	34589.17
560.058	34585.07
560.258	34666.99
560.457	34083.32
560.656	34419.19
560.855	34216.44
561.054	34544.11
561.253	34122.23
561.453	34519.54
561.652	34664.94
561.851	34435.57
562.05	34212.34
562.249	33837.56
562.448	34497.01
562.647	34394.61
562.846	34128.38
563.045	34028.02
563.244	33597.95
563.443	34038.26
563.642	33237.51
563.841	33817.08
564.04	33575.42
564.239	34091.51
564.438	33448.45
564.637	33780.22
564.836	33640.96
565.035	33378.82
565.234	33767.93
565.432	32995.85
565.631	33380.87
565.83	33569.28
566.029	32825.87
566.228	33178.12
566.427	33116.68
566.625	32938.51
566.824	32821.77
567.023	32834.06
567.222	32561.68
567.42	33186.31
567.619	32627.21
567.818	32977.42
568.016	32682.51
568.215	32956.94
568.414	32784.91
568.612	32690.7
568.811	32455.18
569.01	32481.81
569.208	31943.19
569.407	32455.18
569.605	31822.36
569.804	32160.28
570.002	32047.64
570.201	31963.67
570.4	31832.6
570.598	32119.32
570.797	31494.69
570.995	32207.38
571.193	31599.13
571.392	32010.78
571.59	31656.48
571.789	31552.03
571.987	31638.05
572.186	31320.61
572.384	30859.82
572.582	31226.4
572.781	31730.2
572.979	31267.36
573.177	30841.39
573.376	31238.69
573.574	30876.2
573.772	31068.71
573.971	30829.1
574.169	31140.39
574.367	30415.41
574.565	30958.12
574.763	30403.12
574.962	30540.33
575.16	30411.31
575.358	30591.53
575.556	30165.56
575.754	30474.8
575.952	30249.52
576.151	30419.5
576.349	29663.8
576.547	29692.47
576.745	30198.32
576.943	30054.97
577.141	29780.54
577.339	29860.41
577.537	29696.57
577.735	29590.08
577.933	29354.56
578.131	29600.32
578.329	29479.49
578.527	29878.84
578.725	29295.17
578.923	29948.47
579.121	29192.77
579.319	29096.52
579.516	29418.05
579.714	29203.01
579.912	29149.76
580.11	28996.17
580.308	28918.34
580.506	28654.15
580.704	28392.01
580.901	28377.68
581.099	28795.46
581.297	28500.56
581.495	28521.04
581.692	28693.07
581.89	28103.25
582.088	28463.69
582.285	28250.7
582.483	28621.39
582.681	28369.49
582.878	28129.87
583.076	27707.99
583.274	27978.33
583.471	27767.38
583.669	27701.85
583.866	27382.37
584.064	27814.49
584.262	27140.71
584.459	27564.64
584.657	27021.92
584.854	27658.84
585.052	27036.26
585.249	27138.66
585.447	27105.89
585.644	26829.41
585.841	26841.7
586.039	27075.17
586.236	26731.11
586.434	26798.7
586.631	26698.34
586.828	26471.02
587.026	26718.82
587.223	26462.83
587.42	26385.01
587.618	26489.45
587.815	26124.91
588.012	26333.81
588.21	26180.21
588.407	26282.61
588.604	25989.75
588.801	26088.05
588.999	25920.12
589.196	25924.21
589.393	25926.26
589.59	25825.91
589.787	25666.17
589.984	25588.35
590.182	25608.83
590.379	25533.05
590.576	25213.57
590.773	25442.94
590.97	25420.41
591.167	25229.95
591.364	25029.25
591.561	25283.2
591.758	24967.81
591.955	24605.32
592.152	24787.59
592.349	24826.5
592.546	24851.08
592.743	24914.56
592.94	24234.64
593.137	24386.19
593.334	24447.63
593.531	23884.44
593.727	24443.53
593.924	24085.14
594.121	24046.23
594.318	23818.9
594.515	23851.67
594.712	24152.72
594.908	23952.02
595.105	23847.57
595.302	23544.47
595.499	23511.71
595.696	23935.63
595.892	23306.91
596.089	23734.93
596.286	23542.42
596.482	23128.74
596.679	23427.74
596.876	23141.02
597.072	23061.15
597.269	23325.34
597.466	22968.99
597.662	22866.6
597.859	23012
598.055	22936.23
598.252	22897.31
598.448	22616.74
598.645	22577.83
598.841	22659.75
599.038	22770.34
599.234	22266.54
599.431	22323.88
599.627	22686.37
599.824	22188.72
600.02	22127.28
600.217	22411.95
600.413	21961.39
600.609	22094.51
600.806	21779.12
601.002	21897.91
601.198	21742.26
601.395	21666.49
601.591	21451.45
601.787	21848.75
601.984	21557.94
602.18	21652.15
602.376	21334.71
602.572	21445.3
602.769	21271.23
602.965	21242.56
603.161	21144.25
603.357	21148.35
603.553	21000.9
603.75	21029.57
603.946	20806.34
604.142	20705.99
604.338	20867.78
604.534	20951.74
604.73	20449.99
604.926	20454.09
605.122	20521.67
605.318	20738.76
605.514	20394.7
605.71	20343.5
605.906	20642.5
606.102	20122.32
606.298	20218.57
606.494	20044.49
606.69	20325.07
606.886	20206.28
607.082	20146.89
607.278	20165.32
607.474	19864.27
607.67	20011.73
607.866	19874.51
608.062	20087.5
608.257	19966.67
608.453	19505.88
608.649	19821.27
608.845	19636.95
609.041	19428.06
609.236	19557.08
609.432	19444.44
609.628	19612.37
609.824	19790.55
610.019	19272.41
610.215	19372.76
610.411	19217.11
610.606	19217.11
610.802	19245.79
610.998	19421.91
611.193	19448.54
611.389	18979.55
611.584	19190.49
611.78	18879.2
611.976	19094.24
612.171	19043.04
612.367	19059.42
612.562	19069.66
612.758	19016.41
612.953	18969.31
613.149	19059.42
613.344	18490.09
613.539	19034.85
613.735	18936.54
613.93	19051.23
614.126	18705.12
614.321	18676.45
614.517	18897.63
614.712	18449.13
614.907	18420.45
615.103	18844.38
615.298	18322.15
615.493	18410.22
615.688	18275.05
615.884	18612.96
616.079	18395.88
616.274	18436.84
616.47	18309.86
616.665	18293.48
616.86	18023.15
617.055	18189.03
617.25	18318.06
617.445	18268.91
617.641	17756.91
617.836	18082.54
618.031	17670.9
618.226	18189.03
618.421	17900.27
618.616	17990.38
618.811	17865.46
619.006	18041.58
619.201	17470.2
619.396	17400.57
619.591	17384.18
619.786	17580.79
619.981	17261.3
620.176	17232.63
620.371	17009.4
620.566	17298.17
620.761	17158.91
620.956	17208.06
621.151	16861.95
621.346	17081.08
621.541	16677.63
621.735	16632.58
621.93	16419.59
622.125	16665.35
622.32	16132.87
622.515	16452.36
622.709	16007.95
622.904	16474.88
623.099	16175.88
623.294	16159.5
623.488	15522.58
623.683	16147.21
623.878	15741.71
624.072	15876.88
624.267	15672.08
624.462	15659.79
624.656	15512.34
624.851	15422.23
625.046	15438.61
625.24	15063.83
625.435	15168.28
625.629	15299.35
625.824	15098.65
626.018	15137.56
626.213	14557.99
626.407	14936.86
626.602	14572.32
626.796	14648.1
626.991	14508.83
627.185	14422.82
627.38	14304.04
627.574	14224.17
627.768	14340.9
627.963	14195.5
628.157	14019.37
628.352	14080.81
628.546	13722.41
628.74	14336.81
628.935	13572.91
629.129	13880.11
629.323	13531.95
629.517	13388.6
629.712	13407.03
629.906	13388.6
630.1	13130.55
630.294	13280.05
630.489	13243.19
630.683	13112.12
630.877	12892.99
631.071	12919.61
631.265	13073.21
631.459	12802.88
631.653	12849.98
631.848	12892.99
632.042	12460.87
632.236	12604.22
632.43	12573.5
632.624	12518.21
632.818	12450.63
633.012	12200.77
633.206	12356.42
633.4	12333.89
633.594	12036.94
633.788	12114.76
633.982	12106.57
634.176	11930.44
634.369	11842.38
634.563	11858.76
634.757	11821.9
634.951	11860.81
635.145	11758.41
635.339	11713.36
635.533	11549.52
635.726	11414.35
635.92	11490.13
636.114	11549.52
636.308	11379.54
636.501	11367.25
636.695	11311.96
636.889	11219.8
637.083	11119.45
637.276	11109.21
637.47	10994.52
637.664	10777.44
637.857	11021.14
638.051	10806.11
638.244	10595.17
638.438	10808.16
638.632	10765.15
638.825	10748.76
639.019	10681.18
639.212	10343.27
639.406	10363.75
639.599	10373.99
639.793	10353.51
639.986	10017.64
640.18	10316.64
640.373	10206.05
640.567	10187.62
640.76	10064.74
640.954	10001.26
641.147	9878.38
641.34	9751.4
641.534	10058.6
641.727	9786.22
641.92	10001.26
642.114	9802.6
642.307	9702.25
642.5	9540.46
642.694	9599.85
642.887	9642.86
643.08	9628.53
643.273	9329.52
643.467	9630.57
643.66	9419.63
643.853	9225.08
644.046	9186.16
644.239	9261.94
644.432	9073.53
644.626	8983.41
644.819	9167.73
645.012	8958.84
645.205	9126.77
645.398	8817.53
645.591	8893.3
645.784	8821.63
645.977	8751.99
646.17	8743.8
646.363	8465.28
646.556	8690.56
646.749	8655.74
646.942	8639.36
647.135	8418.18
647.328	8457.09
647.521	8473.47
647.714	8283.01
647.907	8205.19
648.099	8190.85
648.292	8446.85
648.485	8254.34
648.678	8176.52
648.871	8117.12
649.064	7986.05
649.256	8033.16
649.449	8084.36
649.642	7967.62
649.835	7916.42
650.027	7844.74
650.22	7977.86
650.413	7811.98
650.605	7742.35
650.798	7846.79
650.991	7635.85
651.183	7568.27
651.376	7578.51
651.568	7568.27
651.761	7531.41
651.954	7412.62
652.146	7404.43
652.339	7326.61
652.531	7336.85
652.724	7271.31
652.916	7357.33
653.109	7107.48
653.301	7185.3
653.494	7168.91
653.686	7070.61
653.879	7087
654.071	7064.47
654.263	6947.73
654.456	6960.02
654.648	7035.8
654.84	6972.31
655.033	6755.22
655.225	6912.92
655.417	6796.18
655.61	6755.22
655.802	6683.55
655.994	6527.9
656.186	6667.16
656.379	6585.24
656.571	6601.63
656.763	6474.65
656.955	6595.48
657.148	6575
657.34	6423.45
657.532	6484.89
657.724	6462.37
657.916	6368.16
658.108	6304.67
658.3	6378.4
658.492	6286.24
658.684	6259.62
658.876	6198.18
659.068	6077.35
659.26	6032.29
659.452	6196.13
659.644	6069.16
659.836	5993.38
660.028	6103.97
660.22	5839.78
660.412	5989.28
660.604	5940.13
660.796	5841.83
660.988	5886.89
661.18	6028.2
661.372	5823.4
661.563	5692.33
661.755	5710.76
661.947	5899.17
662.139	5798.82
662.331	5622.7
662.522	5477.29
662.714	5690.28
662.906	5688.23
663.097	5503.92
663.289	5448.62
663.481	5569.45
663.673	5634.99
663.864	5383.09
664.056	5317.55
664.247	5370.8
664.439	5340.08
664.631	5364.65
664.822	5278.64
665.014	5227.44
665.205	5317.55
665.397	5372.85
665.588	5237.68
665.78	5190.58
665.971	5075.89
666.163	5170.1
666.354	5067.7
666.546	5110.71
666.737	5120.95
666.929	4930.48
667.12	4977.59
667.311	5125.04
667.503	4955.06
667.694	4920.24
667.885	5012.4
668.077	4885.43
668.268	4752.31
668.459	4832.18
668.651	4877.24
668.842	4797.37
669.033	4793.27
669.224	4905.91
669.416	4727.74
669.607	4676.54
669.798	4742.07
669.989	4725.69
670.18	4735.93
670.371	4678.58
670.563	4733.88
670.754	4664.25
670.945	4455.36
671.136	4488.12
671.327	4445.12
671.518	4492.22
671.709	4473.79
671.9	4475.84
672.091	4486.08
672.282	4625.34
672.473	4551.61
672.664	4299.71
672.855	4451.26
673.046	4428.73
673.237	4387.77
673.428	4307.9
673.619	4324.29
673.809	4240.32
674	4303.81
674.191	4352.96
674.382	4322.24
674.573	4107.2
674.764	4254.66
674.954	4258.75
675.145	4199.36
675.336	4234.18
675.527	4189.12
675.717	4385.73
675.908	4148.16
676.099	4187.07
676.289	4185.02
676.48	4037.57
676.671	4283.33
676.861	4135.87
677.052	4115.39
677.243	4178.88
677.433	3922.88
677.624	4021.19
677.814	4066.24
678.005	4041.67
678.195	3886.02
678.386	3879.88
678.576	3963.84
678.767	3974.08
678.957	3894.21
679.148	3877.83
679.338	3976.13
679.529	3980.23
679.719	3894.21
679.909	3843.01
680.1	3922.88
680.29	3859.4
680.481	4064.19
680.671	3877.83
680.861	3847.11
681.052	4000.71
681.242	3871.68
681.432	3777.48
681.622	3697.61
681.813	3789.77
682.003	3761.09
682.193	3713.99
682.383	3820.49
682.573	3785.67
682.764	3877.83
682.954	3695.56
683.144	3767.24
683.334	3691.46
683.524	3699.66
683.714	3668.94
683.904	3685.32
684.094	3752.9
684.284	3787.72
684.474	3718.09
684.664	3634.12
684.854	3646.41
685.044	3627.98
685.234	3625.93
685.424	3595.21
685.614	3609.54
685.804	3455.95
685.994	3666.89
686.184	3357.64
686.374	3279.82
686.564	3449.8
686.753	3533.77
686.943	3453.9
687.133	3501
687.323	3507.15
687.513	3341.26
687.702	3480.52
687.892	3437.52
688.082	3298.25
688.272	3306.45
688.461	3492.81
688.651	3308.49
688.841	3359.69
689.03	3304.4
689.22	3396.56
689.41	3300.3
689.599	3214.29
689.789	3197.9
689.979	3251.15
690.168	3089.36
690.358	3181.52
690.547	3169.23
690.737	3142.61
690.926	3177.42
691.116	3095.5
691.305	3208.14
691.495	3081.17
691.684	2976.72
691.874	3115.98
692.063	3054.55
692.252	2999.25
692.442	3019.73
692.631	3101.65
692.82	2972.63
693.01	2866.13
693.199	2890.71
693.388	2862.04
693.578	2841.56
693.767	2952.15
693.956	2784.21
694.146	2825.17
694.335	2786.26
694.524	2866.13
694.713	2751.45
694.902	2782.17
695.092	2702.29
695.281	2743.25
695.47	2747.35
695.659	2708.44
695.848	2624.47
696.037	2714.58
696.226	2667.48
696.415	2683.86
696.604	2673.62
696.793	2620.38
696.982	2587.61
697.171	2542.55
697.36	2612.18
697.549	2694.1
697.738	2710.49
697.927	2503.64
698.116	2554.84
698.305	2536.41
698.494	2479.07
698.683	2638.81
698.872	2540.51
699.061	2493.4
699.25	2489.31
699.438	2552.79
699.627	2427.87
699.816	2474.97
700.005	2395.1
700.193	2571.22
700.382	2440.15
700.571	2515.93
700.76	2470.87
700.948	2417.63
701.137	2331.61
701.326	2481.11
701.514	2368.48
701.703	2517.98
701.892	2333.66
702.08	2444.25
702.269	2309.08
702.457	2423.77
702.646	2427.87
702.834	2415.58
703.023	2243.55
703.212	2268.13
703.4	2345.95
703.589	2403.29
703.777	2448.35
703.965	2278.37
704.154	2407.39
704.342	2280.41
704.531	2311.13
704.719	2274.27
704.907	2352.09
705.096	2210.78
705.284	2302.94
705.472	2329.56
705.661	2341.85
705.849	2327.52
706.037	2239.45
706.226	2319.32
706.414	2313.18
706.602	2139.1
706.79	2257.89
706.979	2300.89
707.167	2249.69
707.355	2259.93
707.543	2407.39
707.731	2339.8
707.919	2386.91
708.107	2245.6
708.296	2206.69
708.484	2151.39
708.672	2227.17
708.86	2307.04
709.048	2300.89
709.236	2259.93
709.424	2317.28
709.612	2296.8
709.8	2175.97
709.988	2227.17
710.176	2231.26
710.364	2274.27
710.551	2186.21
710.739	2182.11
710.927	2311.13
711.115	2204.64
711.303	2184.16
711.491	2302.94
711.679	2225.12
711.866	2282.46
712.054	2296.8
712.242	2313.18
712.43	2300.89
712.617	2298.84
712.805	2268.13
712.993	2235.36
713.181	2241.5
713.368	2335.71
713.556	2272.22
713.744	2192.35
713.931	2335.71
714.119	2151.39
714.306	2268.13
714.494	2137.06
714.682	2300.89
714.869	2360.28
715.057	2348
715.244	2223.07
715.432	2350.04
715.619	2313.18
715.807	2382.81
715.994	2350.04
716.182	2294.75
716.369	2335.71
716.556	2259.93
716.744	2393.05
716.931	2284.51
717.119	2429.91
717.306	2348
717.493	2268.13
717.681	2292.7
717.868	2429.91
718.055	2276.32
718.242	2350.04
718.43	2296.8
718.617	2356.19
718.804	2296.8
718.991	2333.66
719.179	2391
719.366	2493.4
719.553	2380.76
719.74	2380.76
719.927	2325.47
720.114	2362.33
720.301	2354.14
720.488	2354.14
720.676	2309.08
720.863	2315.23
721.05	2460.63
721.237	2360.28
721.424	2354.14
721.611	2407.39
721.798	2341.85
721.985	2409.44
722.172	2374.62
722.358	2380.76
722.545	2366.43
722.732	2360.28
722.919	2378.72
723.106	2356.19
723.293	2339.8
723.48	2483.16
723.667	2388.96
723.853	2405.34
724.04	2413.53
724.227	2505.69
724.414	2382.81
724.6	2460.63
724.787	2427.87
724.974	2429.91
725.161	2448.35
725.347	2468.83
725.534	2485.21
725.72	2399.2
725.907	2507.74
726.094	2526.17
726.28	2388.96
726.467	2372.57
726.653	2454.49
726.84	2481.11
727.027	2575.32
727.213	2366.43
727.4	2454.49
727.586	2497.5
727.773	2391
727.959	2362.33
728.145	2350.04
728.332	2505.69
728.518	2511.83
728.705	2567.13
728.891	2505.69
729.077	2522.07
729.264	2505.69
729.45	2374.62
729.636	2370.52
729.823	2544.6
730.009	2546.65
730.195	2456.54
730.382	2526.17
730.568	2509.79
730.754	2485.21
730.94	2487.26
731.126	2517.98
731.313	2530.27
731.499	2536.41
731.685	2487.26
731.871	2493.4
732.057	2450.39
732.243	2513.88
732.429	2509.79
732.615	2513.88
732.801	2620.38
732.987	2532.31
733.173	2520.03
733.359	2563.03
733.545	2552.79
733.731	2544.6
733.917	2569.18
734.103	2530.27
734.289	2587.61
734.475	2444.25
734.661	2552.79
734.847	2466.78
735.033	2511.83
735.219	2626.52
735.404	2448.35
735.59	2560.98
735.776	2544.6
735.962	2573.27
736.148	2456.54
736.333	2546.65
736.519	2399.2
736.705	2405.34
736.89	2468.83
737.076	2452.44
737.262	2456.54
737.447	2407.39
737.633	2413.53
737.819	2474.97
738.004	2485.21
738.19	2358.24
738.375	2372.57
738.561	2546.65
738.747	2517.98
738.932	2456.54
739.118	2472.92
739.303	2444.25
739.489	2374.62
739.674	2380.76
739.859	2497.5
740.045	2362.33
740.23	2257.89
740.416	2368.48
740.601	2423.77
740.786	2345.95
740.972	2356.19
741.157	2386.91
741.342	2329.56
741.528	2374.62
741.713	2481.11
741.898	2366.43
742.084	2350.04
742.269	2325.47
742.454	2425.82
742.639	2370.52
742.824	2302.94
743.01	2350.04
743.195	2288.61
743.38	2280.41
743.565	2247.65
743.75	2350.04
743.935	2255.84
744.12	2309.08
744.305	2126.82
744.49	2227.17
744.675	2284.51
744.86	2184.16
745.045	2169.82
745.23	2169.82
745.415	2175.97
745.6	2147.3
745.785	2149.34
745.97	2178.01
746.155	2083.81
746.34	2151.39
746.525	2098.14
746.71	2100.19
746.895	1965.03
747.079	2053.09
747.264	2087.9
747.449	2100.19
747.634	2016.23
747.819	2079.71
748.003	2065.38
748.188	1899.49
748.373	1995.75
748.557	2069.47
748.742	2003.94
748.927	1942.5
749.111	1940.45
749.296	1997.79
749.481	1932.26
749.665	1813.48
749.85	1909.73
750.034	1938.4
750.219	1985.51
750.404	1948.64
750.588	1840.1
750.773	1772.52
750.957	1831.91
751.141	1745.89
751.326	1766.37
751.51	1801.19
751.695	1885.16
751.879	1788.9
752.064	1784.8
752.248	1735.65
752.432	1768.42
752.617	1811.43
752.801	1688.55
752.985	1692.65
753.17	1629.16
753.354	1709.03
753.538	1698.79
753.722	1604.58
753.907	1563.62
754.091	1653.73
754.275	1684.45
754.459	1614.82
754.643	1616.87
754.828	1510.38
755.012	1586.15
755.196	1561.58
755.38	1549.29
755.564	1553.38
755.748	1610.73
755.932	1571.82
756.116	1580.01
756.3	1555.43
756.484	1524.71
756.668	1463.27
756.852	1469.42
757.036	1491.95
757.22	1461.23
757.404	1381.35
757.588	1362.92
757.772	1496.04
757.956	1399.79
758.14	1395.69
758.323	1387.5
758.507	1477.61
758.691	1356.78
758.875	1373.16
759.059	1315.82
759.242	1244.14
759.426	1305.58
759.61	1268.72
759.794	1242.09
759.977	1373.16
760.161	1362.92
760.345	1373.16
760.528	1194.99
760.712	1281
760.895	1192.94
761.079	1252.33
761.263	1235.95
761.446	1205.23
761.63	1227.76
761.813	1289.2
761.997	1168.37
762.18	1268.72
762.364	1244.14
762.547	1180.65
762.731	1205.23
762.914	1217.52
763.098	1240.05
763.281	1260.52
763.464	1174.51
763.648	1039.34
763.831	1211.37
764.015	1106.93
764.198	1209.33
764.381	1256.43
764.564	1123.31
764.748	1053.68
764.931	1045.49
765.114	1096.69
765.297	1123.31
765.481	1137.65
765.664	1129.45
765.847	1149.93
766.03	1145.84
766.213	1068.02
766.397	1176.56
766.58	1061.87
766.763	1170.41
766.946	1049.58
767.129	1006.58
767.312	1057.78
767.495	1113.07
767.678	1029.1
767.861	1133.55
768.044	1072.11
768.227	1018.86
768.41	1047.54
768.593	963.57
768.776	992.24
768.959	1037.3
769.142	1006.58
769.324	1047.54
769.507	965.62
769.69	1022.96
769.873	953.33
770.056	957.43
770.239	1094.64
770.421	1059.82
770.604	963.57
770.787	971.76
770.97	924.66
771.152	1043.44
771.335	965.62
771.518	949.23
771.7	957.43
771.883	955.38
772.066	893.94
772.248	801.78
772.431	965.62
772.613	1045.49
772.796	943.09
772.978	947.19
773.161	936.95
773.343	916.47
773.526	936.95
773.708	908.27
773.891	875.51
774.073	816.12
774.256	832.5
774.438	941.04
774.621	832.5
774.803	963.57
774.985	855.03
775.168	838.64
775.35	818.16
775.532	881.65
775.715	795.64
775.897	873.46
776.079	783.35
776.261	758.77
776.444	744.44
776.626	775.16
776.808	787.44
776.99	769.01
777.173	814.07
777.355	711.67
777.537	775.16
777.719	723.96
777.901	680.95
778.083	773.11
778.265	658.42
778.447	711.67
778.629	699.38
778.811	689.14
778.993	668.66
779.175	734.2
779.357	658.42
779.539	697.33
779.721	613.37
779.903	728.05
780.085	625.65
780.267	730.1
780.449	689.14
780.631	625.65
780.812	703.48
780.994	609.27
781.176	736.24
781.358	605.17
781.54	553.98
781.721	678.9
781.903	707.57
782.085	621.56
782.267	666.61
782.448	596.98
782.63	621.56
782.812	625.65
782.993	654.33
783.175	613.37
783.357	523.26
783.538	613.37
783.72	533.5
783.901	556.02
784.083	588.79
784.264	625.65
784.446	443.39
784.627	465.91
784.809	603.13
784.99	556.02
785.172	549.88
785.353	459.77
785.535	519.16
785.716	574.46
785.897	457.72
786.079	545.78
786.26	478.2
786.441	510.97
786.623	439.29
786.804	502.78
786.985	404.47
787.167	463.86
787.348	441.34
787.529	470.01
787.71	498.68
787.891	402.43
788.073	441.34
788.254	463.86
788.435	447.48
788.616	441.34
788.797	420.86
788.978	537.59
789.159	351.23
789.34	510.97
789.522	453.63
789.703	398.33
789.884	441.34
790.065	404.47
790.246	392.19
790.427	429.05
790.607	494.58
790.788	404.47
790.969	314.36
791.15	347.13
791.331	336.89
791.512	453.63
791.693	357.37
791.874	351.23
792.054	484.34
792.235	324.6
792.416	338.94
792.597	410.62
792.778	357.37
792.958	355.32
793.139	334.84
793.32	347.13
793.5	359.42
793.681	400.38
793.862	433.15
794.042	398.33
794.223	320.51
794.404	322.56
794.584	330.75
794.765	316.41
794.945	375.8
795.126	377.85
795.306	312.32
795.487	390.14
795.667	201.72
795.848	312.32
796.028	359.42
796.209	355.32
796.389	316.41
796.57	388.09
796.75	222.2
796.93	345.08
797.111	310.27
797.291	277.5
797.471	281.6
797.652	340.99
797.832	340.99
798.012	273.4
798.192	355.32
798.373	277.5
798.553	261.12
798.733	285.69
798.913	334.84
799.093	300.03
799.274	336.89
799.454	259.07
799.634	259.07
799.814	277.5
799.994	261.12
800.174	355.32
800.354	248.83
800.534	287.74
800.714	244.73
800.894	297.98
801.074	220.16
801.254	267.26
801.434	259.07
801.614	306.17
801.794	211.96
801.974	480.25
802.154	316.41
802.334	250.88
802.514	154.62
802.693	250.88
802.873	199.68
803.053	183.29
803.233	271.36
803.413	232.44
803.592	246.78
803.772	257.02
803.952	248.83
804.131	224.25
804.311	283.64
804.491	238.59
804.67	142.33
804.85	261.12
805.03	226.3
805.209	207.87
805.389	216.06
805.568	216.06
805.748	269.31
805.928	308.22
806.107	218.11
806.287	248.83
806.466	203.77
806.646	285.69
806.825	224.25
807.004	277.5
807.184	175.1
807.363	273.4
807.543	201.72
807.722	193.53
807.901	234.49
808.081	171.01
808.26	158.72
808.439	242.68
808.619	248.83
808.798	261.12
808.977	189.44
809.156	252.92
809.336	201.72
809.515	265.21
809.694	158.72
809.873	261.12
810.052	222.2
810.231	136.19
810.411	154.62
810.59	142.33
810.769	197.63
810.948	150.53
811.127	228.35
811.306	222.2
811.485	160.77
811.664	203.77
811.843	181.25
812.022	185.34
812.201	195.58
812.38	146.43
812.559	113.66
812.737	183.29
812.916	189.44
813.095	113.66
813.274	166.91
813.453	177.15
813.632	216.06
813.811	203.77
813.989	150.53
814.168	166.91
814.347	162.81
814.526	123.9
814.704	142.33
814.883	175.1
815.062	216.06
815.24	117.76
815.419	52.22
815.598	193.53
815.776	91.13
815.955	150.53
816.133	101.37
816.312	195.58
816.49	193.53
816.669	166.91
816.847	171.01
817.026	117.76
817.204	142.33
817.383	179.2
817.561	220.16
817.74	175.1
817.918	152.57
818.097	166.91
818.275	136.19
818.453	87.04
818.632	150.53
818.81	119.81
818.988	62.46
819.167	78.85
819.345	168.96
819.523	103.42
819.701	97.28
819.879	101.37
820.058	152.57
820.236	164.86
820.414	154.62
820.592	166.91
820.77	113.66
820.948	103.42
821.127	78.85
821.305	134.14
821.483	146.43
821.661	154.62
821.839	132.09
822.017	111.61
822.195	123.9
822.373	189.44
822.551	74.75
822.729	177.15
822.907	203.77
823.085	72.7
823.262	136.19
823.44	148.48
823.618	138.24
823.796	70.65
823.974	82.94
824.152	68.61
824.329	80.89
824.507	93.18
824.685	144.38
824.863	109.57
825.04	76.8
825.218	113.66
825.396	111.61
825.574	144.38
825.751	142.33
825.929	156.67
826.107	103.42
826.284	123.9
826.462	95.23
826.639	60.42
826.817	58.37
826.994	130.05
827.172	80.89
827.349	91.13
827.527	166.91
827.704	54.27
827.882	128
828.059	52.22
828.237	31.74
828.414	134.14
828.591	173.05
828.769	74.75
828.946	95.23
829.124	46.08
829.301	89.09
829.478	168.96
829.655	64.51
829.833	105.47
830.01	82.94
830.187	101.37
830.364	103.42
830.542	146.43
830.719	134.14
830.896	166.91
831.073	134.14
831.25	64.51
831.427	44.03
831.604	80.89
831.782	58.37
831.959	117.76
832.136	7.17
832.313	54.27
832.49	99.33
832.667	58.37
832.844	117.76
833.021	35.84
833.198	113.66
833.374	35.84
833.551	46.08
833.728	91.13
833.905	50.18
834.082	37.89
834.259	105.47
834.436	158.72
834.612	3.07
834.789	56.32
834.966	82.94
835.143	111.61
835.319	68.61
835.496	91.13
835.673	64.51
835.85	105.47
836.026	82.94
836.203	87.04
836.38	21.5
836.556	97.28
836.733	93.18
836.909	99.33
837.086	3.07
837.262	-5.12
837.439	39.94
837.616	37.89
837.792	150.53
837.968	125.95
838.145	48.13
838.321	1.02
838.498	107.52
838.674	95.23
838.851	58.37
839.027	13.31
839.203	60.42
839.38	52.22
839.556	39.94
839.732	82.94
839.909	97.28
840.085	64.51
840.261	35.84
840.437	140.29
840.614	56.32
840.79	119.81
840.966	56.32
841.142	84.99
841.318	66.56
841.494	70.65
841.671	93.18
841.847	37.89
842.023	11.26
842.199	56.32
842.375	66.56
842.551	78.85
842.727	-3.07
842.903	119.81
843.079	84.99
843.255	123.9
843.431	76.8
843.607	93.18
843.783	56.32
843.959	123.9
844.134	35.84
844.31	33.79
844.486	113.66
844.662	46.08
844.838	66.56
845.013	209.92
845.189	84.99
845.365	25.6
845.541	130.05
845.716	78.85
845.892	101.37
846.068	97.28
846.244	99.33
846.419	7.17
846.595	-5.12
846.77	138.24
846.946	46.08
847.122	68.61
847.297	72.7
847.473	168.96
847.648	62.46
847.824	66.56
847.999	23.55
848.175	19.46
848.35	62.46
848.526	125.95
848.701	113.66
848.876	70.65
849.052	70.65
849.227	113.66
849.403	31.74
849.578	97.28
849.753	1.02
849.929	35.84
850.104	50.18
850.279	50.18
850.454	72.7
850.63	31.74
850.805	48.13
850.98	37.89
851.155	13.31
851.33	99.33
851.505	7.17
851.681	46.08
851.856	64.51
852.031	29.7
852.206	101.37
852.381	54.27
852.556	31.74
852.731	-9.22
852.906	-39.94
853.081	54.27
853.256	7.17
853.431	-3.07
853.606	48.13
853.781	52.22
853.956	78.85
854.131	78.85
854.305	121.85
854.48	39.94
854.655	76.8
854.83	9.22
855.005	68.61
855.18	62.46
855.354	76.8
855.529	37.89
855.704	70.65
855.879	123.9
856.053	-1.02
856.228	11.26
856.403	31.74
856.577	107.52
856.752	-31.74
856.926	58.37
857.101	-1.02
857.276	15.36
857.45	80.89
857.625	84.99
857.799	-35.84
857.974	62.46
858.148	58.37
858.323	25.6
858.497	58.37
858.672	119.81
858.846	56.32
859.02	7.17
859.195	-13.31
859.369	68.61
859.543	27.65
859.718	82.94
859.892	107.52
860.066	-25.6
860.241	13.31
860.415	37.89
860.589	-13.31
860.763	-15.36
860.938	-5.12
861.112	97.28
861.286	-9.22
861.46	3.07
861.634	37.89
861.808	44.03
861.982	19.46
862.157	41.98
862.331	56.32
862.505	11.26
862.679	15.36
862.853	35.84
863.027	48.13
863.201	27.65
863.375	15.36
863.549	27.65
863.722	60.42
863.896	41.98
864.07	15.36
864.244	7.17
864.418	7.17
864.592	44.03
864.766	25.6
864.939	33.79
865.113	7.17
865.287	56.32
865.461	23.55
865.634	-5.12
865.808	17.41
865.982	23.55
866.156	31.74
866.329	27.65
866.503	11.26
866.676	60.42
866.85	19.46
867.024	1.02
867.197	-11.26
867.371	41.98
867.544	7.17
867.718	31.74
867.891	-1.02
868.065	50.18
868.238	-23.55
868.412	52.22
868.585	1.02
868.759	84.99
868.932	11.26
869.105	33.79
869.279	-31.74
869.452	17.41
869.625	11.26
869.799	23.55
869.972	-11.26
870.145	5.12
870.319	39.94
870.492	-11.26
870.665	23.55
870.838	9.22
871.011	-3.07
871.185	68.61
871.358	5.12
871.531	27.65
871.704	76.8
871.877	80.89
872.05	-13.31
872.223	7.17
872.396	-41.98
872.569	48.13
872.742	52.22
872.915	17.41
873.088	76.8
873.261	13.31
873.434	-3.07
873.607	60.42
873.78	62.46
873.953	-27.65
874.126	-27.65
874.299	15.36
874.471	111.61
874.644	7.17
874.817	48.13
874.99	166.91
875.163	-13.31
875.335	-9.22
875.508	-5.12
875.681	58.37
875.853	-62.46
876.026	44.03
876.199	31.74
876.371	-44.03
876.544	48.13
876.717	-41.98
876.889	11.26
877.062	11.26
877.234	-50.18
877.407	23.55
877.579	23.55
877.752	46.08
877.924	-29.7
878.097	50.18
878.269	39.94
878.442	-9.22
878.614	-33.79
878.786	29.7
878.959	-13.31
879.131	-46.08
879.303	-54.27
879.476	15.36
879.648	27.65
879.82	48.13
879.993	-82.94
880.165	23.55
880.337	-1.02
880.509	23.55
880.681	5.12
880.854	70.65
881.026	76.8
881.198	33.79
881.37	-39.94
881.542	7.17
881.714	9.22
881.886	5.12
882.058	-21.5
882.23	60.42
882.402	74.75
882.574	9.22
882.746	-15.36
882.918	54.27
883.09	-25.6
883.262	27.65
883.434	-52.22
883.606	-1.02
883.778	-70.65
883.95	84.99
884.122	-50.18
884.293	-21.5
884.465	39.94
884.637	27.65
884.809	-91.13
884.98	15.36
885.152	21.5
885.324	3.07
885.496	-1.02
885.667	-17.41
885.839	-66.56
886.011	58.37
886.182	7.17
886.354	33.79
886.525	19.46
886.697	7.17
886.869	-48.13
887.04	-52.22
887.212	13.31
887.383	72.7
887.555	-15.36
887.726	39.94
887.897	7.17
888.069	39.94
888.24	41.98
888.412	37.89
888.583	-21.5
888.754	1.02
888.926	60.42
889.097	93.18
889.268	60.42
889.44	62.46
889.611	19.46
889.782	13.31
889.953	-9.22
890.125	39.94
890.296	7.17
890.467	-9.22
890.638	41.98
890.809	39.94
890.98	-19.46
891.151	-1.02
891.323	23.55
891.494	5.12
891.665	21.5
891.836	-62.46
892.007	56.32
892.178	25.6
892.349	7.17
892.52	41.98
892.691	-21.5
892.862	5.12
893.032	-19.46
893.203	5.12
893.374	66.56
893.545	19.46
893.716	15.36
893.887	91.13
894.057	31.74
894.228	-7.17
894.399	-3.07
894.57	21.5
894.74	-27.65
894.911	11.26
895.082	52.22
895.253	31.74
895.423	27.65
895.594	-60.42
895.764	-52.22
895.935	7.17
896.106	15.36
896.276	-1.02
896.447	-21.5
896.617	35.84
896.788	-74.75
896.958	-64.51
897.129	-11.26
897.299	37.89
897.47	5.12
897.64	58.37
897.81	3.07
897.981	60.42
898.151	11.26
898.322	-66.56
898.492	-13.31
898.662	-25.6
898.832	29.7
899.003	27.65
899.173	17.41
899.343	-50.18
899.513	1.02
