Data from USB4F104151__47__11-37-02-803.txt Node

Date: Fri Mar 14 11:37:02 EDT 2025
User: louis
Spectrometer: USB4F10415
Trigger mode: 4
Integration Time (sec): 2.000000E-2
Scans to average: 1
Electric dark correction enabled: true
Nonlinearity correction enabled: false
Boxcar width: 0
XAxis mode: Wavelengths
Number of Pixels in Spectrum: 3648
>>>>>Begin Spectral Data<<<<<
178.204	-13.14
178.424	-13.14
178.644	-13.14
178.864	-56.15
179.084	-101.2
179.304	-58.2
179.524	-68.44
179.744	1.19
179.964	1.19
180.184	-31.57
180.404	5.29
180.624	70.83
180.844	62.63
181.064	29.87
181.283	25.77
181.503	-68.44
181.723	29.87
181.943	15.53
182.163	42.15
182.383	5.29
182.602	72.87
182.822	50.35
183.042	36.01
183.262	-31.57
183.482	-11.09
183.701	-39.76
183.921	44.2
184.141	-9.05
184.361	-45.91
184.58	79.02
184.8	81.07
185.02	-11.09
185.239	46.25
185.459	-37.72
185.679	95.4
185.898	-54.1
186.118	-2.9
186.338	9.39
186.557	-2.9
186.777	52.39
186.997	-47.96
187.216	15.53
187.436	97.45
187.655	44.2
187.875	15.53
188.095	54.44
188.314	38.06
188.534	42.15
188.753	-0.85
188.973	15.53
189.192	3.24
189.412	50.35
189.631	5.29
189.851	-25.43
190.07	62.63
190.29	31.91
190.509	-4.95
190.729	38.06
190.948	-7
191.168	136.36
191.387	5.29
191.607	13.48
191.826	5.29
192.045	-0.85
192.265	48.3
192.484	64.68
192.704	1.19
192.923	1.19
193.142	48.3
193.362	1.19
193.581	7.34
193.8	-4.95
194.02	27.82
194.239	56.49
194.458	15.53
194.678	62.63
194.897	15.53
195.116	5.29
195.335	11.43
195.555	-4.95
195.774	42.15
195.993	19.63
196.212	11.43
196.432	23.72
196.651	31.91
196.87	-56.15
197.089	7.34
197.308	50.35
197.528	-15.19
197.747	-15.19
197.966	38.06
198.185	23.72
198.404	-33.62
198.623	-27.48
198.842	46.25
199.062	17.58
199.281	29.87
199.5	66.73
199.719	85.16
199.938	42.15
200.157	52.39
200.376	58.54
200.595	46.25
200.814	33.96
201.033	33.96
201.252	36.01
201.471	48.3
201.69	89.26
201.909	-21.33
202.128	15.53
202.347	29.87
202.566	19.63
202.785	-2.9
203.004	38.06
203.223	85.16
203.442	11.43
203.661	-90.96
203.879	11.43
204.098	-15.19
204.317	31.91
204.536	13.48
204.755	36.01
204.974	-23.38
205.193	-64.34
205.411	81.07
205.63	101.55
205.849	50.35
206.068	15.53
206.287	21.67
206.505	1.19
206.724	44.2
206.943	-9.05
207.162	83.11
207.381	-37.72
207.599	23.72
207.818	70.83
208.037	105.64
208.255	21.67
208.474	33.96
208.693	83.11
208.911	21.67
209.13	105.64
209.349	70.83
209.567	52.39
209.786	66.73
210.005	99.5
210.223	-9.05
210.442	-72.53
210.661	46.25
210.879	3.24
211.098	7.34
211.316	58.54
211.535	50.35
211.753	50.35
211.972	-56.15
212.191	11.43
212.409	-43.86
212.628	15.53
212.846	-9.05
213.065	29.87
213.283	93.35
213.502	13.48
213.72	15.53
213.938	5.29
214.157	29.87
214.375	-23.38
214.594	25.77
214.812	-7
215.031	60.59
215.249	42.15
215.467	48.3
215.686	81.07
215.904	-15.19
216.122	33.96
216.341	66.73
216.559	-17.24
216.778	25.77
216.996	81.07
217.214	-15.19
217.432	76.97
217.651	-19.29
217.869	1.19
218.087	-70.48
218.306	-4.95
218.524	91.31
218.742	-60.24
218.96	7.34
219.179	50.35
219.397	-39.76
219.615	25.77
219.833	1.19
220.051	76.97
220.27	58.54
220.488	56.49
220.706	62.63
220.924	11.43
221.142	70.83
221.36	42.15
221.578	132.26
221.796	7.34
222.015	25.77
222.233	42.15
222.451	7.34
222.669	-50
222.887	52.39
223.105	25.77
223.323	89.26
223.541	74.92
223.759	33.96
223.977	40.11
224.195	21.67
224.413	74.92
224.631	5.29
224.849	33.96
225.067	25.77
225.285	15.53
225.503	56.49
225.721	-76.63
225.939	29.87
226.157	62.63
226.375	40.11
226.592	3.24
226.81	1.19
227.028	-4.95
227.246	54.44
227.464	3.24
227.682	5.29
227.9	17.58
228.117	46.25
228.335	-78.68
228.553	89.26
228.771	11.43
228.989	33.96
229.206	1.19
229.424	-39.76
229.642	5.29
229.86	3.24
230.077	9.39
230.295	25.77
230.513	-15.19
230.731	21.67
230.948	15.53
231.166	13.48
231.384	7.34
231.601	-31.57
231.819	46.25
232.037	107.69
232.254	-15.19
232.472	9.39
232.689	-35.67
232.907	21.67
233.125	19.63
233.342	9.39
233.56	50.35
233.777	9.39
233.995	21.67
234.213	81.07
234.43	-62.29
234.648	23.72
234.865	9.39
235.083	42.15
235.3	54.44
235.518	-37.72
235.735	11.43
235.953	42.15
236.17	1.19
236.388	-0.85
236.605	97.45
236.822	79.02
237.04	58.54
237.257	52.39
237.475	-19.29
237.692	5.29
237.909	29.87
238.127	-7
238.344	3.24
238.562	70.83
238.779	-9.05
238.996	-7
239.214	5.29
239.431	38.06
239.648	3.24
239.865	7.34
240.083	31.91
240.3	-15.19
240.517	23.72
240.735	33.96
240.952	-25.43
241.169	58.54
241.386	50.35
241.603	-15.19
241.821	15.53
242.038	83.11
242.255	7.34
242.472	50.35
242.689	111.78
242.907	111.78
243.124	11.43
243.341	-13.14
243.558	-33.62
243.775	27.82
243.992	-33.62
244.209	17.58
244.426	48.3
244.643	48.3
244.86	40.11
245.078	-33.62
245.295	15.53
245.512	21.67
245.729	-23.38
245.946	68.78
246.163	44.2
246.38	64.68
246.597	58.54
246.814	13.48
247.031	15.53
247.248	-19.29
247.464	58.54
247.681	97.45
247.898	42.15
248.115	46.25
248.332	13.48
248.549	23.72
248.766	5.29
248.983	13.48
249.2	-27.48
249.417	-7
249.633	5.29
249.85	83.11
250.067	36.01
250.284	36.01
250.501	-9.05
250.717	113.83
250.934	-54.1
251.151	48.3
251.368	3.24
251.585	27.82
251.801	21.67
252.018	-0.85
252.235	-15.19
252.451	76.97
252.668	-0.85
252.885	33.96
253.102	33.96
253.318	40.11
253.535	-25.43
253.752	1.19
253.968	74.92
254.185	-27.48
254.401	9.39
254.618	44.2
254.835	56.49
255.051	74.92
255.268	42.15
255.484	17.58
255.701	-2.9
255.917	56.49
256.134	-0.85
256.351	1.19
256.567	11.43
256.784	-0.85
257	29.87
257.217	42.15
257.433	21.67
257.65	21.67
257.866	5.29
258.082	-15.19
258.299	-11.09
258.515	46.25
258.732	13.48
258.948	21.67
259.165	-2.9
259.381	11.43
259.597	23.72
259.814	46.25
260.03	-4.95
260.246	-11.09
260.463	62.63
260.679	44.2
260.895	31.91
261.112	9.39
261.328	74.92
261.544	15.53
261.761	66.73
261.977	-31.57
262.193	1.19
262.409	15.53
262.626	29.87
262.842	-0.85
263.058	-19.29
263.274	58.54
263.49	11.43
263.707	-9.05
263.923	-11.09
264.139	3.24
264.355	87.21
264.571	74.92
264.787	83.11
265.004	33.96
265.22	29.87
265.436	64.68
265.652	-27.48
265.868	31.91
266.084	29.87
266.3	-39.76
266.516	-41.81
266.732	27.82
266.948	56.49
267.164	97.45
267.38	-31.57
267.596	31.91
267.812	7.34
268.028	33.96
268.244	54.44
268.46	44.2
268.676	-23.38
268.892	-13.14
269.108	-45.91
269.324	-33.62
269.54	3.24
269.756	-39.76
269.972	70.83
270.188	40.11
270.403	-2.9
270.619	66.73
270.835	-7
271.051	66.73
271.267	79.02
271.483	81.07
271.698	93.35
271.914	52.39
272.13	-2.9
272.346	1.19
272.562	76.97
272.777	70.83
272.993	9.39
273.209	62.63
273.425	9.39
273.64	27.82
273.856	-35.67
274.072	13.48
274.287	31.91
274.503	38.06
274.719	-74.58
274.934	33.96
275.15	25.77
275.366	-25.43
275.581	-25.43
275.797	3.24
276.012	-29.52
276.228	52.39
276.444	7.34
276.659	46.25
276.875	-17.24
277.09	31.91
277.306	-9.05
277.521	42.15
277.737	-54.1
277.952	36.01
278.168	62.63
278.383	50.35
278.599	17.58
278.814	54.44
279.03	-58.2
279.245	46.25
279.461	5.29
279.676	-19.29
279.892	-7
280.107	66.73
280.322	1.19
280.538	-13.14
280.753	-2.9
280.969	50.35
281.184	25.77
281.399	60.59
281.615	-2.9
281.83	29.87
282.045	58.54
282.26	36.01
282.476	-17.24
282.691	154.79
282.906	44.2
283.122	44.2
283.337	21.67
283.552	68.78
283.767	-27.48
283.983	58.54
284.198	93.35
284.413	54.44
284.628	-86.87
284.843	9.39
285.058	93.35
285.274	5.29
285.489	15.53
285.704	-0.85
285.919	-60.24
286.134	60.59
286.349	17.58
286.564	42.15
286.779	-7
286.995	-11.09
287.21	40.11
287.425	52.39
287.64	-19.29
287.855	23.72
288.07	-39.76
288.285	38.06
288.5	25.77
288.715	36.01
288.93	44.2
289.145	3.24
289.36	68.78
289.575	48.3
289.79	89.26
290.004	19.63
290.219	56.49
290.434	54.44
290.649	23.72
290.864	-2.9
291.079	-2.9
291.294	3.24
291.509	-13.14
291.724	13.48
291.938	5.29
292.153	25.77
292.368	46.25
292.583	33.96
292.798	-31.57
293.012	-17.24
293.227	38.06
293.442	15.53
293.657	9.39
293.871	74.92
294.086	-0.85
294.301	66.73
294.516	7.34
294.73	17.58
294.945	72.87
295.16	5.29
295.374	21.67
295.589	60.59
295.804	9.39
296.018	-82.77
296.233	17.58
296.447	54.44
296.662	5.29
296.877	58.54
297.091	62.63
297.306	25.77
297.52	1.19
297.735	64.68
297.949	-25.43
298.164	42.15
298.378	9.39
298.593	17.58
298.807	42.15
299.022	11.43
299.236	21.67
299.451	-54.1
299.665	74.92
299.88	21.67
300.094	31.91
300.309	33.96
300.523	46.25
300.737	44.2
300.952	21.67
301.166	50.35
301.381	31.91
301.595	132.26
301.809	-2.9
302.024	-0.85
302.238	-23.38
302.452	31.91
302.667	-11.09
302.881	13.48
303.095	17.58
303.309	33.96
303.524	11.43
303.738	17.58
303.952	-33.62
304.166	68.78
304.381	-0.85
304.595	87.21
304.809	40.11
305.023	33.96
305.237	-25.43
305.452	52.39
305.666	42.15
305.88	15.53
306.094	85.16
306.308	50.35
306.522	68.78
306.736	52.39
306.95	21.67
307.164	-9.05
307.379	-13.14
307.593	21.67
307.807	66.73
308.021	5.29
308.235	58.54
308.449	21.67
308.663	-64.34
308.877	17.58
309.091	-7
309.305	99.5
309.519	-19.29
309.733	11.43
309.947	42.15
310.161	66.73
310.374	66.73
310.588	33.96
310.802	-9.05
311.016	9.39
311.23	33.96
311.444	11.43
311.658	-66.39
311.872	38.06
312.085	31.91
312.299	3.24
312.513	29.87
312.727	64.68
312.941	11.43
313.154	70.83
313.368	64.68
313.582	31.91
313.796	29.87
314.009	58.54
314.223	31.91
314.437	48.3
314.651	19.63
314.864	115.88
315.078	-4.95
315.292	13.48
315.505	7.34
315.719	66.73
315.933	-9.05
316.146	56.49
316.36	13.48
316.573	72.87
316.787	-4.95
317.001	52.39
317.214	70.83
317.428	33.96
317.641	48.3
317.855	-11.09
318.068	54.44
318.282	17.58
318.495	-9.05
318.709	87.21
318.922	-35.67
319.136	19.63
319.349	-21.33
319.563	33.96
319.776	-19.29
319.99	29.87
320.203	1.19
320.417	31.91
320.63	107.69
320.843	21.67
321.057	54.44
321.27	54.44
321.483	58.54
321.697	72.87
321.91	56.49
322.124	5.29
322.337	5.29
322.55	-27.48
322.763	1.19
322.977	11.43
323.19	29.87
323.403	38.06
323.617	-15.19
323.83	79.02
324.043	-41.81
324.256	109.74
324.469	44.2
324.683	17.58
324.896	-9.05
325.109	46.25
325.322	11.43
325.535	38.06
325.748	11.43
325.962	-0.85
326.175	42.15
326.388	54.44
326.601	-50
326.814	42.15
327.027	11.43
327.24	54.44
327.453	17.58
327.666	40.11
327.879	83.11
328.092	66.73
328.305	-35.67
328.518	15.53
328.731	17.58
328.944	-21.33
329.157	40.11
329.37	5.29
329.583	1.19
329.796	17.58
330.009	17.58
330.222	31.91
330.435	97.45
330.648	33.96
330.861	17.58
331.073	3.24
331.286	33.96
331.499	89.26
331.712	21.67
331.925	46.25
332.138	85.16
332.35	46.25
332.563	-9.05
332.776	107.69
332.989	148.65
333.202	-17.24
333.414	48.3
333.627	107.69
333.84	40.11
334.053	33.96
334.265	-31.57
334.478	1.19
334.691	25.77
334.903	27.82
335.116	-43.86
335.329	21.67
335.541	-25.43
335.754	60.59
335.966	-19.29
336.179	5.29
336.392	27.82
336.604	40.11
336.817	-7
337.029	-0.85
337.242	25.77
337.454	58.54
337.667	9.39
337.88	66.73
338.092	54.44
338.305	54.44
338.517	70.83
338.729	56.49
338.942	54.44
339.154	-39.76
339.367	17.58
339.579	23.72
339.792	-27.48
340.004	15.53
340.217	-39.76
340.429	136.36
340.641	-39.76
340.854	-13.14
341.066	7.34
341.278	74.92
341.491	46.25
341.703	42.15
341.915	91.31
342.128	17.58
342.34	103.59
342.552	-27.48
342.764	-0.85
342.977	5.29
343.189	-2.9
343.401	17.58
343.613	-45.91
343.826	50.35
344.038	-0.85
344.25	25.77
344.462	13.48
344.674	91.31
344.886	89.26
345.099	-9.05
345.311	66.73
345.523	40.11
345.735	9.39
345.947	42.15
346.159	-0.85
346.371	36.01
346.583	-7
346.795	66.73
347.007	-11.09
347.219	23.72
347.431	-74.58
347.643	124.07
347.855	-60.24
348.067	72.87
348.279	21.67
348.491	36.01
348.703	-37.72
348.915	19.63
349.127	36.01
349.339	-9.05
349.551	81.07
349.763	29.87
349.975	-45.91
350.187	40.11
350.399	126.12
350.61	83.11
350.822	111.78
351.034	56.49
351.246	-33.62
351.458	3.24
351.669	13.48
351.881	81.07
352.093	-7
352.305	-0.85
352.517	-19.29
352.728	103.59
352.94	48.3
353.152	-4.95
353.363	21.67
353.575	103.59
353.787	1.19
353.999	-82.77
354.21	42.15
354.422	27.82
354.633	17.58
354.845	74.92
355.057	38.06
355.268	144.55
355.48	13.48
355.692	9.39
355.903	21.67
356.115	56.49
356.326	13.48
356.538	1.19
356.749	50.35
356.961	-4.95
357.172	79.02
357.384	76.97
357.595	46.25
357.807	68.78
358.018	9.39
358.23	13.48
358.441	122.02
358.653	72.87
358.864	70.83
359.075	23.72
359.287	79.02
359.498	25.77
359.709	21.67
359.921	-2.9
360.132	60.59
360.344	50.35
360.555	93.35
360.766	13.48
360.977	1.19
361.189	124.07
361.4	-37.72
361.611	29.87
361.823	13.48
362.034	83.11
362.245	-35.67
362.456	25.77
362.667	46.25
362.879	1.19
363.09	23.72
363.301	95.4
363.512	-7
363.723	17.58
363.935	15.53
364.146	103.59
364.357	85.16
364.568	46.25
364.779	-25.43
364.99	87.21
365.201	-11.09
365.412	42.15
365.623	25.77
365.834	44.2
366.045	-33.62
366.256	48.3
366.467	40.11
366.678	13.48
366.889	52.39
367.1	42.15
367.311	44.2
367.522	64.68
367.733	46.25
367.944	7.34
368.155	11.43
368.366	-2.9
368.577	-19.29
368.788	62.63
368.999	17.58
369.209	-52.05
369.42	122.02
369.631	101.55
369.842	13.48
370.053	113.83
370.264	70.83
370.474	-9.05
370.685	-2.9
370.896	101.55
371.107	72.87
371.317	58.54
371.528	-11.09
371.739	48.3
371.95	56.49
372.16	38.06
372.371	40.11
372.582	29.87
372.792	23.72
373.003	3.24
373.214	54.44
373.424	9.39
373.635	58.54
373.846	117.93
374.056	74.92
374.267	44.2
374.477	1.19
374.688	1.19
374.898	48.3
375.109	103.59
375.319	13.48
375.53	115.88
375.74	-2.9
375.951	36.01
376.161	46.25
376.372	87.21
376.582	-7
376.793	50.35
377.003	-39.76
377.214	-31.57
377.424	66.73
377.635	52.39
377.845	29.87
378.055	58.54
378.266	70.83
378.476	70.83
378.686	31.91
378.897	-4.95
379.107	44.2
379.317	52.39
379.528	58.54
379.738	81.07
379.948	33.96
380.158	-27.48
380.369	64.68
380.579	36.01
380.789	50.35
380.999	3.24
381.21	56.49
381.42	132.26
381.63	-31.57
381.84	83.11
382.05	33.96
382.261	33.96
382.471	87.21
382.681	7.34
382.891	74.92
383.101	85.16
383.311	-7
383.521	27.82
383.731	17.58
383.941	70.83
384.151	29.87
384.361	25.77
384.571	79.02
384.781	5.29
384.991	113.83
385.201	107.69
385.411	40.11
385.621	46.25
385.831	-31.57
386.041	64.68
386.251	83.11
386.461	83.11
386.671	48.3
386.881	7.34
387.091	19.63
387.301	72.87
387.511	31.91
387.72	76.97
387.93	111.78
388.14	25.77
388.35	87.21
388.56	27.82
388.769	5.29
388.979	-2.9
389.189	-7
389.399	33.96
389.609	105.64
389.818	40.11
390.028	29.87
390.238	64.68
390.447	15.53
390.657	124.07
390.867	46.25
391.076	113.83
391.286	99.5
391.496	66.73
391.705	1.19
391.915	68.78
392.125	44.2
392.334	27.82
392.544	56.49
392.753	83.11
392.963	48.3
393.172	85.16
393.382	48.3
393.591	29.87
393.801	87.21
394.01	33.96
394.22	81.07
394.429	62.63
394.639	42.15
394.848	87.21
395.058	54.44
395.267	91.31
395.477	11.43
395.686	29.87
395.895	70.83
396.105	85.16
396.314	60.59
396.524	9.39
396.733	-9.05
396.942	42.15
397.152	72.87
397.361	105.64
397.57	72.87
397.78	83.11
397.989	64.68
398.198	38.06
398.407	70.83
398.617	74.92
398.826	54.44
399.035	87.21
399.244	81.07
399.453	72.87
399.663	105.64
399.872	144.55
400.081	19.63
400.29	124.07
400.499	54.44
400.708	66.73
400.917	119.98
401.127	76.97
401.336	72.87
401.545	107.69
401.754	136.36
401.963	109.74
402.172	113.83
402.381	95.4
402.59	56.49
402.799	50.35
403.008	91.31
403.217	13.48
403.426	42.15
403.635	99.5
403.844	101.55
404.053	48.3
404.262	148.65
404.471	79.02
404.68	107.69
404.888	113.83
405.097	119.98
405.306	72.87
405.515	191.66
405.724	64.68
405.933	134.31
406.142	152.74
406.35	124.07
406.559	95.4
406.768	189.61
406.977	144.55
407.185	218.28
407.394	89.26
407.603	132.26
407.812	201.9
408.02	203.94
408.229	128.17
408.438	236.71
408.646	115.88
408.855	279.72
409.064	179.37
409.272	203.94
409.481	255.14
409.69	226.47
409.898	171.18
410.107	271.53
410.315	253.09
410.524	304.29
410.733	285.86
410.941	208.04
411.15	273.57
411.358	287.91
411.567	234.66
411.775	304.29
411.984	302.25
412.192	285.86
412.401	337.06
412.609	361.64
412.818	398.5
413.026	400.55
413.234	392.36
413.443	351.4
413.651	375.97
413.86	394.4
414.068	404.64
414.276	453.8
414.485	480.42
414.693	529.57
414.901	480.42
415.11	441.51
415.318	541.86
415.526	554.15
415.734	674.98
415.943	570.53
416.151	631.97
416.359	646.3
416.567	617.63
416.776	738.46
416.984	742.56
417.192	717.98
417.4	775.33
417.608	722.08
417.817	799.9
418.025	812.19
418.233	865.44
418.441	877.73
418.649	875.68
418.857	994.46
419.065	1029.27
419.273	1016.99
419.481	988.32
419.689	1078.43
419.897	1168.54
420.105	1152.15
420.313	1275.03
420.521	1217.69
420.729	1189.02
420.937	1246.36
421.145	1369.24
421.353	1348.76
421.561	1461.4
421.769	1500.31
421.977	1547.41
422.185	1528.98
422.393	1713.3
422.601	1799.31
422.809	1748.11
423.017	1629.33
423.224	1954.96
423.432	1852.56
423.64	1942.67
423.848	2116.75
424.056	2059.4
424.263	2198.67
424.471	2145.42
424.679	2155.66
424.887	2360.45
425.094	2321.54
425.302	2409.61
425.51	2489.48
425.718	2540.68
425.925	2585.73
426.133	2722.95
426.341	2823.3
426.548	2929.79
426.756	2983.04
426.964	3042.43
427.171	3325.05
427.379	3222.65
427.586	3359.86
427.794	3433.59
428.001	3425.4
428.209	3761.27
428.417	3523.7
428.624	3998.83
428.832	3873.9
429.039	4002.93
429.247	3845.23
429.454	4293.74
429.662	4691.04
429.869	4375.66
430.076	4617.32
430.284	4496.49
430.491	4703.33
430.699	4975.71
430.906	4879.46
431.114	4893.79
431.321	5225.56
431.528	5356.63
431.736	5516.37
431.943	5831.76
432.15	5760.08
432.358	5798.99
432.565	6014.03
432.772	6112.33
432.979	6231.12
433.187	6399.05
433.394	6421.58
433.601	6923.33
433.808	6970.43
434.016	6868.03
434.223	7234.62
434.43	7722.04
434.637	7562.3
434.844	7963.7
435.052	8047.66
435.259	8012.85
435.466	8152.11
435.673	8102.96
435.88	8590.38
436.087	9047.07
436.294	9102.37
436.501	8805.41
436.708	8725.54
436.915	9483.29
437.122	9669.66
437.329	9774.1
437.537	10009.62
437.743	10118.16
437.95	10044.43
438.157	10609.67
438.364	10857.48
438.571	10951.68
438.778	10986.5
438.985	12016.63
439.192	11531.26
439.399	11969.52
439.606	11621.37
439.813	12348.4
440.02	13007.84
440.227	12635.11
440.433	13034.47
440.64	13231.07
440.847	13171.68
441.054	13503.45
441.261	14326.74
441.467	14359.5
441.674	14216.15
441.881	14955.46
442.088	14787.53
442.294	14707.66
442.501	15250.37
442.708	15383.49
442.914	16079.8
443.121	16796.59
443.328	16139.19
443.534	17513.38
443.741	16716.72
443.948	16884.65
444.154	17912.73
444.361	17728.41
444.568	17943.45
444.774	17750.94
444.981	18131.86
445.187	18764.68
445.394	19383.17
445.6	19116.93
445.807	20976.49
446.013	19997.56
446.22	20403.06
446.426	21082.98
446.633	21508.96
446.839	22526.8
447.046	21037.93
447.252	22451.03
447.459	22621.01
447.665	22541.14
447.871	23522.12
448.078	24386.36
448.284	23200.58
448.491	23915.33
448.697	25295.66
448.903	25406.25
449.11	25420.58
449.316	24994.61
449.522	25193.26
449.728	26102.56
449.935	26276.63
450.141	26037.02
450.347	27038.48
450.553	25963.29
450.76	26440.47
450.966	26913.55
451.172	26682.13
451.378	27644.68
451.584	27263.75
451.791	27525.89
451.997	27675.4
452.203	28078.85
452.409	28023.55
452.615	27798.27
452.821	26913.55
453.027	26641.17
453.233	27960.06
453.44	27024.14
453.646	27423.5
453.852	27267.85
454.058	27771.65
454.264	26596.12
454.47	27335.43
454.676	26557.21
454.882	27486.98
455.088	25314.09
455.294	25496.36
455.5	26104.6
455.705	26321.69
455.911	24990.51
456.117	24654.64
456.323	24226.62
456.529	22795.09
456.735	23882.56
456.941	23399.24
457.147	23001.93
457.352	22467.41
457.558	22469.46
457.764	22319.96
457.97	21672.8
458.176	21410.66
458.381	21146.47
458.587	20331.38
458.793	20018.04
458.999	19344.26
459.204	20783.98
459.41	19983.23
459.616	18946.95
459.821	18490.26
460.027	18703.25
460.233	17994.65
460.438	17306.53
460.644	17712.03
460.85	16620.46
461.055	16485.3
461.261	16454.58
461.466	15322.05
461.672	14791.62
461.878	15784.89
462.083	14635.98
462.289	14556.11
462.494	14377.94
462.7	13865.94
462.905	13362.14
463.111	13886.42
463.316	13941.72
463.522	13552.6
463.727	13716.44
463.932	13642.71
464.138	13503.45
464.343	13495.26
464.549	13102.05
464.754	13511.64
464.959	13468.64
465.165	13251.55
465.37	12680.17
465.575	12706.79
465.781	13061.09
465.986	12833.77
466.191	12393.45
466.397	12344.3
466.602	11658.23
466.807	12284.91
467.012	12184.56
467.218	11981.81
467.423	11740.15
467.628	11918.32
467.833	12671.98
468.038	12012.53
468.244	11588.6
468.449	12188.66
468.654	11602.94
468.859	11592.7
469.064	11625.47
469.269	10996.74
469.474	11136
469.679	11512.83
469.885	11123.71
470.09	11271.17
470.295	11340.8
470.5	10869.76
470.705	11101.19
470.91	10746.89
471.115	10640.39
471.32	10892.29
471.525	10636.3
471.73	10335.24
471.935	10386.44
472.139	10073.1
472.344	10173.46
472.549	10290.19
472.754	9847.83
472.959	9778.2
473.164	9643.03
473.369	9462.81
473.574	9745.43
473.778	9741.33
473.983	9640.98
474.188	9624.6
474.393	9165.85
474.598	9401.37
474.802	9092.13
475.007	9004.07
475.212	9344.03
475.417	8774.69
475.621	8758.31
475.826	8684.58
476.031	8666.15
476.235	8578.09
476.44	8672.29
476.645	8467.5
476.849	8567.85
477.054	8250.41
477.259	8098.86
477.463	8264.75
477.668	7947.31
477.872	8105.01
478.077	7957.55
478.282	7906.35
478.486	7574.58
478.691	7644.21
478.895	7738.42
479.1	7654.45
479.304	7619.64
479.509	7357.5
479.713	7511.1
479.918	7318.59
480.122	7191.61
480.326	7435.32
480.531	7425.08
480.735	7150.65
480.94	7076.93
481.144	7396.41
481.348	6956.1
481.553	7111.74
481.757	6999.1
481.961	6960.19
482.166	7205.95
482.37	7138.37
482.574	7111.74
482.778	6857.79
482.983	7283.77
483.187	6984.77
483.391	6988.86
483.595	7040.06
483.8	6865.99
484.004	7042.11
484.208	7087.17
484.412	7058.49
484.616	7246.91
484.821	7070.78
485.025	6831.17
485.229	7005.25
485.433	6908.99
485.637	7158.85
485.841	7121.98
486.045	6988.86
486.249	7019.58
486.453	6882.37
486.657	7058.49
486.861	7142.46
487.065	6898.75
487.269	7066.69
487.473	6892.61
487.677	7021.63
487.881	7164.99
488.085	7021.63
488.289	7038.02
488.493	7029.82
488.697	6962.24
488.901	7042.11
489.105	7074.88
489.309	7175.23
489.512	7078.97
489.716	7060.54
489.92	7035.97
490.124	7140.41
490.328	7291.96
490.531	7177.28
490.735	7150.65
490.939	7310.4
491.143	7314.49
491.346	7208
491.55	7279.68
491.754	7373.88
491.958	7341.11
492.161	7275.58
492.365	7443.51
492.569	7447.61
492.772	7527.48
492.976	7601.21
493.18	7717.94
493.383	7566.39
493.587	7525.43
493.79	7517.24
493.994	7570.49
494.197	7580.73
494.401	7744.56
494.605	7894.07
494.808	7644.21
495.012	7806
495.215	7849.01
495.419	7904.31
495.622	7889.97
495.825	8078.38
496.029	8221.74
496.232	8174.64
496.436	8252.46
496.639	8424.49
496.843	8348.72
497.046	8643.62
497.249	8651.81
497.453	8696.87
497.656	8623.14
497.859	8709.16
498.063	8870.95
498.266	9092.13
498.469	9020.45
498.673	8973.35
498.876	9258.01
499.079	9468.95
499.282	9247.77
499.485	9638.94
499.689	9483.29
499.892	9645.08
500.095	9876.5
500.298	10021.91
500.501	9923.6
500.705	10210.32
500.908	10167.31
501.111	10435.6
501.314	10599.43
501.517	10355.72
501.72	10779.65
501.923	10703.88
502.126	11041.79
502.329	11101.19
502.532	11176.96
502.735	11219.97
502.938	11351.04
503.141	11422.72
503.344	11588.6
503.547	11604.99
503.75	11551.74
503.953	11797.49
504.156	12217.33
504.359	12336.11
504.562	12258.29
504.765	12395.5
504.968	12540.91
505.17	12979.17
505.373	12776.42
505.576	13048.8
505.779	13069.28
505.982	13396.96
506.185	13546.46
506.387	13687.77
506.59	13622.23
506.793	13898.71
506.996	13962.2
507.198	14179.28
507.401	14164.95
507.604	14195.67
507.807	14615.5
508.009	14816.2
508.212	14818.25
508.415	14812.1
508.617	15029.19
508.82	15059.91
509.022	15137.73
509.225	15664.06
509.428	15713.21
509.63	15741.88
509.833	15809.47
510.035	16212.92
510.238	16141.24
510.44	16356.27
510.643	16602.03
510.845	16577.45
511.048	16608.17
511.25	16911.27
511.453	17075.11
511.655	17697.69
511.858	16931.75
512.06	17435.55
512.262	17554.33
512.465	17744.8
512.667	17851.29
512.87	18054.04
513.072	18183.06
513.274	18602.89
513.477	18561.94
513.679	18951.05
513.881	18779.02
514.084	19225.48
514.286	19059.59
514.488	19207.05
514.69	19553.15
514.893	19798.91
515.095	19895.16
515.297	20226.93
515.499	20032.38
515.701	20390.77
515.904	20636.53
516.106	20833.13
516.308	20745.07
516.51	20906.86
516.712	20945.77
516.914	21228.39
517.116	21597.03
517.318	21603.17
517.52	21861.21
517.722	21834.59
517.925	22192.98
518.127	22537.04
518.329	22510.42
518.531	22358.87
518.733	22807.37
518.935	23161.67
519.136	22952.78
519.338	23407.43
519.54	23649.09
519.742	23620.42
519.944	23554.88
520.146	23917.37
520.348	23968.57
520.55	24439.61
520.752	24445.75
520.954	24681.27
521.155	24664.88
521.357	24984.37
521.559	25385.77
521.761	25563.94
521.963	25285.42
522.164	25606.95
522.366	25477.93
522.568	25887.52
522.77	26215.19
522.971	26671.89
523.173	25994.01
523.375	26376.98
523.576	26884.88
523.778	26448.66
523.98	26815.25
524.181	26989.33
524.383	27171.6
524.584	27392.78
524.786	27282.19
524.988	27394.82
525.189	27587.33
525.391	27915.01
525.592	28140.29
525.794	28154.62
525.995	27933.44
526.197	28138.24
526.398	28193.53
526.6	28400.38
526.801	28678.9
527.003	28760.82
527.204	28830.45
527.406	28912.37
527.607	28898.03
527.808	29297.39
528.01	28852.98
528.211	29039.34
528.412	29905.63
528.614	29135.6
528.815	29446.89
529.016	29569.77
529.218	29651.69
529.419	29369.07
529.62	29788.9
529.822	29440.75
530.023	29362.92
530.224	29944.55
530.425	29606.63
530.626	29729.51
530.828	29623.01
531.029	30143.2
531.23	29840.1
531.431	29582.06
531.632	30040.8
531.833	30288.6
532.035	30135.01
532.236	29922.02
532.437	30257.88
532.638	30206.69
532.839	30200.54
533.04	30194.4
533.241	30210.78
533.442	30653.14
533.643	29967.07
533.844	30597.85
534.045	30268.12
534.246	30290.65
534.447	30329.56
534.648	30386.91
534.849	30382.81
535.05	30528.22
535.251	30626.52
535.451	30233.31
535.652	30327.52
535.853	30536.41
536.054	30503.64
536.255	30382.81
536.456	30212.83
536.657	30554.84
536.857	30401.24
537.058	30194.4
537.259	30579.42
537.46	30493.4
537.66	30427.87
537.861	30786.26
538.062	30515.93
538.263	30724.82
538.463	30173.92
538.664	30403.29
538.865	30569.18
539.065	30606.04
539.266	30520.02
539.466	30599.9
539.667	29973.22
539.868	30700.25
540.068	30474.97
540.269	30552.79
540.469	30550.74
540.67	30073.57
540.87	30601.94
541.071	30298.84
541.271	30493.4
541.472	30485.21
541.672	30114.53
541.873	30401.24
542.073	29762.28
542.274	30421.72
542.474	30425.82
542.675	30175.97
542.875	30321.37
543.075	30468.83
543.276	30085.86
543.476	30448.35
543.676	29922.02
543.877	30302.94
544.077	30167.77
544.277	30462.68
544.478	30239.45
544.678	30542.55
544.878	29848.29
545.078	30427.87
545.279	30194.4
545.479	30112.48
545.679	30268.12
545.879	30278.36
546.079	30165.73
546.28	30307.04
546.48	29909.73
546.68	30188.25
546.88	30190.3
547.08	30204.64
547.28	30192.35
547.48	30057.18
547.68	30376.67
547.88	29842.15
548.081	30161.63
548.281	30188.25
548.481	29862.63
548.681	30384.86
548.881	30034.66
549.081	29969.12
549.28	29985.51
549.48	30348
549.68	30186.21
549.88	30481.11
550.08	29610.73
550.28	29952.74
550.48	30077.66
550.68	30227.17
550.88	30089.95
551.08	30155.49
551.279	30069.47
551.479	30059.23
551.679	30149.34
551.879	29659.88
552.079	29684.45
552.278	30030.56
552.478	30018.27
552.678	29557.48
552.878	30157.53
553.077	29870.82
553.277	29756.13
553.477	29565.67
553.676	29797.09
553.876	29709.03
554.076	29526.76
554.275	29483.75
554.475	29694.69
554.674	29563.62
554.874	29768.42
555.074	29653.73
555.273	29631.21
555.473	29917.92
555.672	29362.92
555.872	29706.98
556.071	29582.06
556.271	29711.08
556.47	29455.08
556.67	29364.97
556.869	29328.11
557.068	29395.69
557.268	29137.65
557.467	29174.51
557.667	29100.78
557.866	29504.23
558.065	28992.24
558.265	28924.66
558.464	28900.08
558.663	29391.59
558.863	28627.7
559.062	29211.37
559.261	28627.7
559.461	29045.49
559.66	28508.92
559.859	28848.88
560.058	28578.55
560.258	28680.95
560.457	28394.23
560.656	28898.03
560.855	28549.88
561.054	28574.45
561.253	28476.15
561.453	28455.67
561.652	28582.65
561.851	28717.81
562.05	28349.18
562.249	28265.21
562.448	28660.47
562.647	28650.23
562.846	28523.26
563.045	28138.24
563.244	28056.32
563.443	28214.01
563.642	27820.8
563.841	28232.44
564.04	28087.04
564.239	28191.48
564.438	27773.7
564.637	28242.68
564.836	27949.82
565.035	27738.88
565.234	28003.07
565.432	27589.38
565.631	27689.73
565.83	27788.03
566.029	27583.24
566.228	27306.76
566.427	27202.32
566.625	27187.98
566.824	27267.85
567.023	27390.73
567.222	26817.3
567.42	27486.98
567.619	27020.05
567.818	27028.24
568.016	27196.17
568.215	27009.81
568.414	26753.81
568.612	27169.55
568.811	26620.69
569.01	26686.23
569.208	26278.68
569.407	26729.23
569.605	26440.47
569.804	26592.02
570.002	26250.01
570.201	26612.5
570.4	26419.99
570.598	26010.4
570.797	26014.49
570.995	26239.77
571.193	25885.47
571.392	26241.82
571.59	25838.37
571.789	26127.13
571.987	25783.07
572.186	26227.48
572.384	25565.99
572.582	26002.21
572.781	25887.52
572.979	25477.93
573.177	25686.82
573.376	25633.57
573.574	25332.52
573.772	25279.27
573.971	25064.24
574.169	25365.29
574.367	24918.83
574.565	25303.85
574.763	25178.92
574.962	25051.95
575.16	24771.38
575.358	25152.3
575.556	24724.27
575.754	24939.31
575.952	24482.61
576.151	24732.47
576.349	24423.22
576.547	24552.24
576.745	24609.59
576.943	24566.58
577.141	24496.95
577.339	24367.93
577.537	24216.38
577.735	24150.84
577.933	23987
578.131	24683.31
578.329	23980.86
578.527	24134.46
578.725	24081.21
578.923	24034.11
579.121	24054.59
579.319	23708.48
579.516	23917.37
579.714	23714.62
579.912	23757.63
580.11	23702.34
580.308	23620.42
580.506	23493.44
580.704	23335.75
580.901	23511.88
581.099	23399.24
581.297	23135.05
581.495	23137.1
581.692	23206.73
581.89	22993.74
582.088	23249.74
582.285	23073.61
582.483	22885.2
582.681	23133
582.878	22950.73
583.076	22592.34
583.274	22932.3
583.471	22541.14
583.669	22459.22
583.866	22383.45
584.064	22655.82
584.262	22448.98
584.459	22332.25
584.657	22375.25
584.854	22487.89
585.052	22018.91
585.249	22250.33
585.447	21939.04
585.644	21793.63
585.841	21896.03
586.039	22074.2
586.236	21848.93
586.434	21777.25
586.631	21750.62
586.828	21726.05
587.026	21754.72
587.223	21597.03
587.42	21482.34
587.618	21539.68
587.815	21042.03
588.012	21320.55
588.21	21216.1
588.407	21390.18
588.604	21019.5
588.801	20945.77
588.999	21144.42
589.196	21066.6
589.393	20878.19
589.59	20927.34
589.787	20810.61
589.984	21044.07
590.182	20491.12
590.379	20820.84
590.576	20532.08
590.773	20652.91
590.97	20431.73
591.167	20566.9
591.364	20298.61
591.561	20501.36
591.758	20335.48
591.955	20257.65
592.152	20163.45
592.349	20061.05
592.546	20288.37
592.743	20284.28
592.94	19872.64
593.137	19762.05
593.334	19962.75
593.531	19665.79
593.727	19645.31
593.924	19583.87
594.121	19581.82
594.318	19612.54
594.515	19307.4
594.712	19571.58
594.908	19219.33
595.105	19684.22
595.302	19422.08
595.499	19383.17
595.696	19037.06
595.892	18766.73
596.089	19309.44
596.286	19170.18
596.482	19383.17
596.679	18840.46
596.876	18930.57
597.072	18627.47
597.269	18850.7
597.466	18371.47
597.662	18428.82
597.859	18621.33
598.055	18586.51
598.252	18490.26
598.448	18420.63
598.645	18537.36
598.841	18140.05
599.038	18348.95
599.234	18260.88
599.431	17908.63
599.627	18281.36
599.824	18191.25
600.02	17941.4
600.217	18066.33
600.413	17922.97
600.609	17898.39
600.806	17812.38
601.002	17955.74
601.198	17521.57
601.395	17714.08
601.591	17552.29
601.787	17470.37
601.984	17351.59
602.18	17603.49
602.376	17339.3
602.572	17193.89
602.769	17271.72
602.965	16911.27
603.161	17273.76
603.357	16776.11
603.553	17107.88
603.75	17046.44
603.946	16989.1
604.142	16939.94
604.338	16954.28
604.534	17136.55
604.73	16767.91
604.926	16573.36
605.122	16743.34
605.318	16546.73
605.514	16624.56
605.71	16528.3
605.906	16593.84
606.102	16505.77
606.298	16532.4
606.494	16540.59
606.69	16487.34
606.886	16569.26
607.082	16165.81
607.278	16296.88
607.474	16149.43
607.67	16325.55
607.866	15965.11
608.062	16257.97
608.257	16202.68
608.453	16233.39
608.649	15897.53
608.845	15758.27
609.041	15961.02
609.236	16055.22
609.432	15838.14
609.628	15762.36
609.824	15776.7
610.019	15682.49
610.215	15532.99
610.411	15655.87
610.606	15813.56
610.802	15813.56
610.998	15782.84
611.193	15592.38
611.389	15592.38
611.584	15465.41
611.78	15576
611.976	15406.02
612.171	15477.69
612.367	15424.45
612.562	15461.31
612.758	15043.53
612.953	14947.27
613.149	15354.82
613.344	15289.28
613.539	15250.37
613.735	15334.34
613.93	15524.8
614.126	15129.54
614.321	15080.39
614.517	14885.83
614.712	14928.84
614.907	14943.17
615.103	15072.2
615.298	14941.13
615.493	15094.72
615.688	14779.34
615.884	15076.29
616.079	14642.12
616.274	14734.28
616.47	14982.09
616.665	14791.62
616.86	14676.94
617.055	14656.46
617.25	14660.55
617.445	14691.27
617.641	14566.35
617.836	14783.43
618.031	14457.81
618.226	14535.63
618.421	14222.29
618.616	14498.77
618.811	14107.6
619.006	14744.52
619.201	13790.17
619.396	14214.1
619.591	14095.32
619.786	14287.82
619.981	13943.77
620.176	14121.94
620.371	13577.18
620.566	13720.54
620.761	13747.16
620.956	13784.02
621.151	13702.11
621.346	13714.39
621.541	13523.93
621.735	13591.52
621.93	13229.02
622.125	13421.53
622.32	13079.52
622.515	13126.63
622.709	12923.88
622.904	13188.07
623.099	13020.13
623.294	12903.4
623.488	12975.08
623.683	13069.28
623.878	12796.9
624.072	12678.12
624.267	12653.55
624.462	12522.48
624.656	12319.73
624.851	12452.84
625.046	12428.27
625.24	12293.1
625.435	12399.6
625.629	12573.67
625.824	12246
626.018	12114.93
626.213	11881.46
626.407	12192.75
626.602	11695.1
626.796	11918.32
626.991	11947
627.185	11582.46
627.38	11500.54
627.574	11660.28
627.768	11371.52
627.963	11662.33
628.157	11471.87
628.352	11236.35
628.546	11027.46
628.74	11279.36
628.935	10963.97
629.129	11154.43
629.323	10824.71
629.517	10920.96
629.712	11033.6
629.906	10765.32
630.1	10564.62
630.294	10834.95
630.489	10781.7
630.683	10707.98
630.877	10447.88
631.071	10327.05
631.265	10707.98
631.459	10284.05
631.653	10335.24
631.848	10290.19
632.042	10228.75
632.236	10372.11
632.43	10036.24
632.624	10218.51
632.818	10023.95
633.012	9841.68
633.206	10058.77
633.4	9950.23
633.594	9923.6
633.788	9806.87
633.982	9851.92
634.176	9776.15
634.369	9610.26
634.563	9606.17
634.757	9571.35
634.951	9583.64
635.145	9581.59
635.339	9395.23
635.533	9333.79
635.726	9337.88
635.92	9411.61
636.114	9215.01
636.308	9319.45
636.501	9002.02
636.695	9264.16
636.889	9049.12
637.083	9100.32
637.276	8782.88
637.47	8889.38
637.664	8864.8
637.857	8856.61
638.051	8647.72
638.244	8733.73
638.438	8610.86
638.632	8758.31
638.825	8526.89
639.019	8559.66
639.212	8459.31
639.406	8657.96
639.599	8307.76
639.793	8352.81
639.986	8178.73
640.18	8371.24
640.373	8141.87
640.567	8184.88
640.76	8195.12
640.954	8023.09
641.147	7996.46
641.34	7988.27
641.534	7943.22
641.727	7818.29
641.92	8008.75
642.114	7869.49
642.307	7836.72
642.5	7717.94
642.694	7640.12
642.887	7541.82
643.08	7783.48
643.273	7679.03
643.467	7488.57
643.66	7341.11
643.853	7543.86
644.046	7474.23
644.239	7541.82
644.432	7210.04
644.626	7324.73
644.819	7357.5
645.012	7287.87
645.205	7318.59
645.398	7130.17
645.591	7179.33
645.784	7179.33
645.977	7072.83
646.17	7072.83
646.363	6980.67
646.556	6986.82
646.749	6872.13
646.942	6972.48
647.135	7105.6
647.328	6874.18
647.521	6917.19
647.714	6593.61
647.907	6782.02
648.099	6689.86
648.292	6708.29
648.485	6579.27
648.678	6673.48
648.871	6554.69
649.064	6454.34
649.256	6577.22
649.449	6415.43
649.642	6366.28
649.835	6374.47
650.027	6452.3
650.22	6321.23
650.413	6313.03
650.605	6153.29
650.798	6304.84
650.991	6173.77
651.183	6204.49
651.376	6257.74
651.568	6054.99
651.761	6091.85
651.954	6075.47
652.146	6126.67
652.339	6065.23
652.531	6030.41
652.724	5923.92
652.916	5774.42
653.109	5735.51
653.301	5776.47
653.494	5612.63
653.686	5600.34
653.879	5829.71
654.071	5839.95
654.263	5608.53
654.456	5557.33
654.648	5706.84
654.84	5518.42
655.033	5456.98
655.225	5592.15
655.417	5463.13
655.61	5446.74
655.802	5598.29
655.994	5399.64
656.186	5522.52
656.379	5287
656.571	5260.38
656.763	5356.63
656.955	5215.32
657.148	5227.61
657.34	5317.72
657.532	5225.56
657.724	5237.85
657.916	5264.47
658.108	5145.69
658.3	5100.64
658.492	5094.49
658.684	5076.06
658.876	5028.96
659.068	5031.01
659.26	5010.53
659.452	5071.97
659.644	4944.99
659.836	4908.13
660.028	4996.19
660.22	4811.87
660.412	4854.88
660.604	4863.07
660.796	4795.49
660.988	4858.98
661.18	4764.77
661.372	4596.84
661.563	4746.34
661.755	4693.09
661.947	4768.87
662.139	4559.97
662.331	4676.71
662.522	4611.17
662.714	4648.04
662.906	4539.49
663.097	4484.2
663.289	4500.58
663.481	4457.57
663.673	4514.92
663.864	4332.65
664.056	4361.32
664.247	4355.18
664.439	4359.27
664.631	4375.66
664.822	4404.33
665.014	4312.17
665.205	4363.37
665.397	4273.26
665.588	4187.24
665.78	4248.68
665.971	4228.2
666.163	4228.2
666.354	4037.74
666.546	4111.47
666.737	4113.52
666.929	4095.08
667.12	4103.28
667.311	4144.24
667.503	4027.5
667.694	4136.04
667.885	3976.3
668.077	4134
668.268	4047.98
668.459	4097.13
668.651	4054.12
668.842	3841.14
669.033	3957.87
669.224	3998.83
669.416	3939.44
669.607	3867.76
669.798	3855.47
669.989	3947.63
670.18	3867.76
670.371	3863.66
670.563	3826.8
670.754	3951.73
670.945	3902.58
671.136	3791.98
671.327	3822.7
671.518	3832.94
671.709	3656.82
671.9	3775.6
672.091	3689.59
672.282	3597.43
672.473	3654.77
672.664	3699.83
672.855	3716.21
673.046	3716.21
673.237	3808.37
673.428	3662.96
673.619	3734.64
673.809	3605.62
674	3730.55
674.191	3642.48
674.382	3476.6
674.573	3499.13
674.764	3495.03
674.954	3490.93
675.145	3579
675.336	3425.4
675.527	3605.62
675.717	3603.57
675.908	3515.51
676.099	3499.13
676.289	3513.46
676.48	3460.21
676.671	3415.16
676.861	3495.03
677.052	3415.16
677.243	3404.92
677.433	3396.73
677.624	3445.88
677.814	3325.05
678.005	3482.74
678.195	3286.14
678.386	3402.87
678.576	3339.38
678.767	3357.82
678.957	3476.6
679.148	3525.75
679.338	3284.09
679.529	3341.43
679.719	3216.51
679.909	3374.2
680.1	3382.39
680.29	3363.96
680.481	3357.82
680.671	3202.17
680.861	3245.18
681.052	3337.34
681.242	3296.38
681.432	3357.82
681.622	3208.31
681.813	3386.49
682.003	3396.73
682.193	3183.74
682.383	3206.27
682.573	3245.18
682.764	3220.6
682.954	3234.94
683.144	3185.79
683.334	3171.45
683.524	3249.27
683.714	3155.07
683.904	3202.17
684.094	3138.68
684.284	3191.93
684.474	3226.75
684.664	3142.78
684.854	3239.03
685.044	3126.39
685.234	3069.05
685.424	3028.09
685.614	3146.87
685.804	3062.91
685.994	3232.89
686.184	3089.53
686.374	3036.28
686.564	2987.13
686.753	3067
686.943	2876.54
687.133	3052.67
687.323	3038.33
687.513	3015.8
687.702	2864.25
687.892	2899.07
688.082	3030.14
688.272	3024
688.461	3085.44
688.651	2837.63
688.841	2804.86
689.03	2923.65
689.22	2751.62
689.41	2806.91
689.599	2860.16
689.789	2774.14
689.979	2778.24
690.168	2784.38
690.358	2698.37
690.547	2774.14
690.737	2831.49
690.926	2749.57
691.116	2768
691.305	2606.21
691.495	2729.09
691.684	2745.47
691.874	2583.68
692.063	2708.61
692.252	2675.84
692.442	2509.96
692.631	2649.22
692.82	2557.06
693.01	2606.21
693.199	2593.92
693.388	2446.47
693.578	2526.34
693.767	2434.18
693.956	2440.33
694.146	2411.65
694.335	2368.65
694.524	2428.04
694.713	2442.37
694.902	2325.64
695.092	2403.46
695.281	2403.46
695.47	2380.93
695.659	2231.43
695.848	2438.28
696.037	2372.74
696.226	2380.93
696.415	2309.26
696.604	2317.45
696.793	2251.91
696.982	2278.54
697.171	2251.91
697.36	2311.3
697.549	2303.11
697.738	2260.1
697.927	2245.77
698.116	2292.87
698.305	2237.58
698.494	2364.55
698.683	2159.75
698.872	2350.21
699.061	2172.04
699.25	2139.27
699.438	2229.38
699.627	2139.27
699.816	2313.35
700.005	2155.66
700.193	2139.27
700.382	2233.48
700.571	2172.04
700.76	2163.85
700.948	2184.33
701.137	2225.29
701.326	2161.8
701.514	2102.41
701.703	2122.89
701.892	2118.79
702.08	2206.86
702.269	2213
702.457	2165.9
702.646	2239.62
702.834	2167.95
703.023	2135.18
703.212	2133.13
703.4	2151.56
703.589	2172.04
703.777	2055.31
703.965	2155.66
704.154	2176.14
704.342	2092.17
704.531	2116.75
704.719	2051.21
704.907	2096.27
705.096	2153.61
705.284	2059.4
705.472	2079.88
705.661	2073.74
705.849	2145.42
706.037	2114.7
706.226	2213
706.414	2153.61
706.602	1987.72
706.79	2086.03
706.979	1967.24
707.167	2126.99
707.355	2114.7
707.543	2139.27
707.731	2159.75
707.919	2186.38
708.107	2090.12
708.296	2098.31
708.484	2088.07
708.672	2204.81
708.86	2108.55
709.048	2223.24
709.236	2061.45
709.424	2118.79
709.612	2077.83
709.8	2143.37
709.988	2030.73
710.176	2086.03
710.364	2124.94
710.551	2010.25
710.739	2040.97
710.927	2022.54
711.115	2071.69
711.303	2059.4
711.491	2045.07
711.679	2126.99
711.866	2124.94
712.054	2184.33
712.242	2077.83
712.43	2192.52
712.617	2180.23
712.805	2258.06
712.993	2104.46
713.181	2174.09
713.368	2151.56
713.556	2202.76
713.744	2153.61
713.931	2299.02
714.119	2208.9
714.306	2172.04
714.494	2213
714.682	2262.15
714.869	2174.09
715.057	2163.85
715.244	2194.57
715.432	2073.74
715.619	2145.42
715.807	2169.99
715.994	2274.44
716.182	2311.3
716.369	2155.66
716.556	2215.05
716.744	2294.92
716.931	2096.27
717.119	2227.34
717.306	2296.97
717.493	2180.23
717.681	2227.34
717.868	2143.37
718.055	2215.05
718.242	2247.82
718.43	2276.49
718.617	2133.13
718.804	2241.67
718.991	2331.78
719.179	2262.15
719.366	2301.06
719.553	2270.34
719.74	2147.47
719.927	2208.9
720.114	2327.69
720.301	2387.08
720.488	2282.63
720.676	2401.41
720.863	2288.78
721.05	2290.82
721.237	2239.62
721.424	2253.96
721.611	2278.54
721.798	2237.58
721.985	2282.63
722.172	2325.64
722.358	2372.74
722.545	2266.25
722.732	2282.63
722.919	2356.36
723.106	2315.4
723.293	2292.87
723.48	2358.41
723.667	2356.36
723.853	2358.41
724.04	2229.38
724.227	2280.58
724.414	2317.45
724.6	2411.65
724.787	2393.22
724.974	2350.21
725.161	2360.45
725.347	2407.56
725.534	2438.28
725.72	2393.22
725.907	2385.03
726.094	2503.81
726.28	2313.35
726.467	2339.97
726.653	2501.76
726.84	2393.22
727.027	2382.98
727.213	2272.39
727.4	2362.5
727.586	2382.98
727.773	2430.09
727.959	2403.46
728.145	2350.21
728.332	2423.94
728.518	2368.65
728.705	2608.26
728.891	2452.61
729.077	2456.71
729.264	2436.23
729.45	2430.09
729.636	2499.72
729.823	2350.21
730.009	2532.48
730.195	2380.93
730.382	2493.57
730.568	2434.18
730.754	2438.28
730.94	2514.05
731.126	2385.03
731.313	2538.63
731.499	2450.57
731.685	2440.33
731.871	2446.47
732.057	2387.08
732.243	2442.37
732.429	2432.13
732.615	2491.52
732.801	2536.58
732.987	2563.2
733.173	2466.95
733.359	2425.99
733.545	2505.86
733.731	2395.27
733.917	2444.42
734.103	2598.02
734.289	2458.76
734.475	2405.51
734.661	2518.15
734.847	2438.28
735.033	2430.09
735.219	2397.32
735.404	2391.17
735.59	2442.37
735.776	2524.29
735.962	2321.54
736.148	2462.85
736.333	2389.13
736.519	2446.47
736.705	2499.72
736.89	2493.57
737.076	2454.66
737.262	2374.79
737.447	2532.48
737.633	2512
737.819	2380.93
738.004	2270.34
738.19	2460.81
738.375	2413.7
738.561	2489.48
738.747	2362.5
738.932	2372.74
739.118	2509.96
739.303	2538.63
739.489	2337.93
739.674	2413.7
739.859	2274.44
740.045	2413.7
740.23	2413.7
740.416	2284.68
740.601	2362.5
740.786	2417.8
740.972	2376.84
741.157	2366.6
741.342	2385.03
741.528	2235.53
741.713	2352.26
741.898	2307.21
742.084	2282.63
742.269	2344.07
742.454	2270.34
742.639	2317.45
742.824	2241.67
743.01	2327.69
743.195	2264.2
743.38	2282.63
743.565	2362.5
743.75	2262.15
743.935	2221.19
744.12	2243.72
744.305	2088.07
744.49	2235.53
744.675	2208.9
744.86	2233.48
745.045	2274.44
745.23	2204.81
745.415	2145.42
745.6	2251.91
745.785	2067.6
745.97	2221.19
746.155	2145.42
746.34	2161.8
746.525	2065.55
746.71	2067.6
746.895	2196.62
747.079	2157.71
747.264	2147.47
747.449	2002.06
747.634	2059.4
747.819	1977.48
748.003	2053.26
748.188	2034.83
748.373	1924.24
748.557	2040.97
748.742	2135.18
748.927	1989.77
749.111	1895.57
749.296	1887.37
749.481	1893.52
749.665	1809.55
749.85	1938.57
750.034	1973.39
750.219	2000.01
750.404	1946.76
750.588	1848.46
750.773	1864.85
750.957	1914
751.141	1799.31
751.326	1883.28
751.51	1801.36
751.695	1827.98
751.879	1750.16
752.064	1758.35
752.248	1764.5
752.432	1782.93
752.617	1690.77
752.801	1787.02
752.985	1709.2
753.17	1678.48
753.354	1639.57
753.538	1733.78
753.722	1586.32
753.907	1678.48
754.091	1637.52
754.275	1477.78
754.459	1651.86
754.643	1631.38
754.828	1629.33
755.012	1485.97
755.196	1574.03
755.38	1551.51
755.564	1455.25
755.748	1442.96
755.932	1531.03
756.116	1508.5
756.3	1410.2
756.484	1469.59
756.668	1442.96
756.852	1506.45
757.036	1483.92
757.22	1418.39
757.404	1430.68
757.588	1418.39
757.772	1451.16
757.956	1379.48
758.14	1442.96
758.323	1352.85
758.507	1436.82
758.691	1361.05
758.875	1393.81
759.059	1252.5
759.242	1336.47
759.426	1365.14
759.61	1324.18
759.794	1270.94
759.977	1367.19
760.161	1336.47
760.345	1315.99
760.528	1305.75
760.712	1215.64
760.895	1295.51
761.079	1254.55
761.263	1227.93
761.446	1254.55
761.63	1242.26
761.813	1219.74
761.997	1236.12
762.18	1180.82
762.364	1227.93
762.547	1057.95
762.731	1148.06
762.914	1258.65
763.098	1201.3
763.281	1164.44
763.464	1221.78
763.648	1096.86
763.831	1006.75
764.015	1096.86
764.198	1105.05
764.381	1096.86
764.564	1254.55
764.748	1127.58
764.931	1174.68
765.114	1107.1
765.297	1115.29
765.481	1000.6
765.664	1068.19
765.847	1059.99
766.03	1160.34
766.213	1113.24
766.397	1154.2
766.58	982.17
766.763	1068.19
766.946	1135.77
767.129	1098.91
767.312	1035.42
767.495	943.26
767.678	1045.66
767.861	945.31
768.044	1074.33
768.227	1010.84
768.41	1012.89
768.593	1076.38
768.776	1029.27
768.959	1033.37
769.142	990.36
769.324	916.64
769.507	1076.38
769.69	963.74
769.873	873.63
770.056	971.93
770.239	1014.94
770.421	957.6
770.604	947.36
770.787	949.4
770.97	943.26
771.152	871.58
771.335	906.4
771.518	945.31
771.7	883.87
771.883	916.64
772.066	861.34
772.248	939.16
772.431	894.11
772.613	935.07
772.796	945.31
772.978	844.96
773.161	865.44
773.343	871.58
773.526	861.34
773.708	814.24
773.891	861.34
774.073	863.39
774.256	851.1
774.438	836.77
774.621	789.66
774.803	851.1
774.985	828.57
775.168	892.06
775.35	847.01
775.532	871.58
775.715	801.95
775.897	820.38
776.079	861.34
776.261	781.47
776.444	806.05
776.626	689.31
776.808	791.71
776.99	677.02
777.173	695.46
777.355	695.46
777.537	689.31
777.719	758.94
777.901	722.08
778.083	703.65
778.265	687.26
778.447	746.66
778.629	713.89
778.811	572.58
778.993	728.22
779.175	769.18
779.357	615.59
779.539	687.26
779.721	617.63
779.903	670.88
780.085	586.91
780.267	683.17
780.449	627.87
780.631	677.02
780.812	586.91
780.994	595.11
781.176	595.11
781.358	644.26
781.54	611.49
781.721	570.53
781.903	625.83
782.085	576.67
782.267	533.67
782.448	543.91
782.63	552.1
782.812	578.72
782.993	548
783.175	490.66
783.357	562.34
783.538	631.97
783.72	482.47
783.901	509.09
784.083	492.71
784.264	498.85
784.446	552.1
784.627	416.93
784.809	556.19
784.99	464.04
785.172	439.46
785.353	550.05
785.535	517.28
785.716	500.9
785.897	580.77
786.079	472.23
786.26	441.51
786.441	476.32
786.623	421.03
786.804	461.99
786.985	451.75
787.167	513.19
787.348	453.8
787.529	500.9
787.71	494.76
787.891	476.32
788.073	480.42
788.254	400.55
788.435	494.76
788.616	451.75
788.797	496.8
788.978	416.93
789.159	365.73
789.34	402.6
789.522	402.6
789.703	427.17
789.884	427.17
790.065	427.17
790.246	408.74
790.427	369.83
790.607	406.69
790.788	396.45
790.969	402.6
791.15	451.75
791.331	341.16
791.512	378.02
791.693	392.36
791.874	392.36
792.054	349.35
792.235	339.11
792.416	341.16
792.597	330.92
792.778	369.83
792.958	341.16
793.139	275.62
793.32	423.08
793.5	404.64
793.681	404.64
793.862	371.88
794.042	302.25
794.223	310.44
794.404	277.67
794.584	353.45
794.765	249
794.945	269.48
795.126	265.38
795.306	355.49
795.487	367.78
795.667	335.01
795.848	257.19
796.028	222.38
796.209	244.9
796.389	285.86
796.57	335.01
796.75	287.91
796.93	378.02
797.111	367.78
797.291	306.34
797.471	281.77
797.652	316.58
797.832	277.67
798.012	316.58
798.192	296.1
798.373	244.9
798.553	281.77
798.733	326.82
798.913	287.91
799.093	220.33
799.274	285.86
799.454	332.97
799.634	304.29
799.814	292.01
799.994	320.68
800.174	292.01
800.354	269.48
800.534	271.53
800.714	244.9
800.894	324.77
801.074	220.33
801.254	218.28
801.434	253.09
801.614	208.04
801.794	242.85
801.974	578.72
802.154	199.85
802.334	222.38
802.514	300.2
802.693	230.57
802.873	195.75
803.053	218.28
803.233	197.8
803.413	294.05
803.592	222.38
803.772	181.42
803.952	238.76
804.131	230.57
804.311	253.09
804.491	226.47
804.67	255.14
804.85	269.48
805.03	246.95
805.209	255.14
805.389	177.32
805.568	244.9
805.748	214.18
805.928	212.14
806.107	195.75
806.287	222.38
806.466	201.9
806.646	165.03
806.825	238.76
807.004	214.18
807.184	195.75
807.363	220.33
807.543	216.23
807.722	130.22
807.901	222.38
808.081	193.7
808.26	171.18
808.439	222.38
808.619	132.26
808.798	189.61
808.977	185.51
809.156	234.66
809.336	140.46
809.515	142.5
809.694	134.31
809.873	165.03
810.052	244.9
810.231	275.62
810.411	212.14
810.59	218.28
810.769	158.89
810.948	142.5
811.127	193.7
811.306	205.99
811.485	111.78
811.664	214.18
811.843	93.35
812.022	216.23
812.201	203.94
812.38	177.32
812.559	156.84
812.737	259.24
812.916	148.65
813.095	197.8
813.274	199.85
813.453	179.37
813.632	175.27
813.811	122.02
813.989	146.6
814.168	199.85
814.347	140.46
814.526	173.22
814.704	251.05
814.883	128.17
815.062	134.31
815.24	144.55
815.419	148.65
815.598	148.65
815.776	109.74
815.955	177.32
816.133	124.07
816.312	124.07
816.49	177.32
816.669	140.46
816.847	124.07
817.026	171.18
817.204	115.88
817.383	171.18
817.561	111.78
817.74	130.22
817.918	148.65
818.097	107.69
818.275	89.26
818.453	230.57
818.632	203.94
818.81	130.22
818.988	169.13
819.167	107.69
819.345	156.84
819.523	122.02
819.701	162.98
819.879	195.75
820.058	134.31
820.236	189.61
820.414	160.94
820.592	119.98
820.77	162.98
820.948	107.69
821.127	165.03
821.305	171.18
821.483	44.2
821.661	148.65
821.839	154.79
822.017	111.78
822.195	144.55
822.373	83.11
822.551	58.54
822.729	95.4
822.907	122.02
823.085	93.35
823.262	160.94
823.44	156.84
823.618	134.31
823.796	169.13
823.974	99.5
824.152	105.64
824.329	70.83
824.507	119.98
824.685	185.51
824.863	146.6
825.04	152.74
825.218	187.56
825.396	23.72
825.574	173.22
825.751	83.11
825.929	50.35
826.107	130.22
826.284	142.5
826.462	146.6
826.639	74.92
826.817	117.93
826.994	130.22
827.172	93.35
827.349	128.17
827.527	197.8
827.704	119.98
827.882	103.59
828.059	99.5
828.237	46.25
828.414	142.5
828.591	48.3
828.769	122.02
828.946	130.22
829.124	162.98
829.301	111.78
829.478	128.17
829.655	122.02
829.833	56.49
830.01	23.72
830.187	124.07
830.364	101.55
830.542	68.78
830.719	87.21
830.896	148.65
831.073	89.26
831.25	144.55
831.427	148.65
831.604	76.97
831.782	107.69
831.959	101.55
832.136	130.22
832.313	81.07
832.49	122.02
832.667	7.34
832.844	91.31
833.021	93.35
833.198	85.16
833.374	83.11
833.551	136.36
833.728	113.83
833.905	142.5
834.082	83.11
834.259	74.92
834.436	56.49
834.612	70.83
834.789	146.6
834.966	74.92
835.143	58.54
835.319	64.68
835.496	132.26
835.673	42.15
835.85	111.78
836.026	64.68
836.203	103.59
836.38	52.39
836.556	79.02
836.733	66.73
836.909	103.59
837.086	97.45
837.262	124.07
837.439	62.63
837.616	93.35
837.792	138.41
837.968	79.02
838.145	29.87
838.321	87.21
838.498	60.59
838.674	42.15
838.851	132.26
839.027	93.35
839.203	33.96
839.38	72.87
839.556	38.06
839.732	64.68
839.909	-7
840.085	1.19
840.261	50.35
840.437	79.02
840.614	79.02
840.79	105.64
840.966	91.31
841.142	70.83
841.318	91.31
841.494	42.15
841.671	93.35
841.847	17.58
842.023	58.54
842.199	21.67
842.375	91.31
842.551	87.21
842.727	44.2
842.903	126.12
843.079	25.77
843.255	124.07
843.431	72.87
843.607	9.39
843.783	64.68
843.959	58.54
844.134	17.58
844.31	54.44
844.486	54.44
844.662	-11.09
844.838	46.25
845.013	87.21
845.189	79.02
845.365	46.25
845.541	-7
845.716	-7
845.892	85.16
846.068	33.96
846.244	111.78
846.419	48.3
846.595	101.55
846.77	58.54
846.946	111.78
847.122	83.11
847.297	66.73
847.473	15.53
847.648	64.68
847.824	23.72
847.999	89.26
848.175	48.3
848.35	74.92
848.526	54.44
848.701	66.73
848.876	95.4
849.052	29.87
849.227	79.02
849.403	40.11
849.578	1.19
849.753	17.58
849.929	107.69
850.104	46.25
850.279	50.35
850.454	81.07
850.63	99.5
850.805	9.39
850.98	19.63
851.155	36.01
851.33	70.83
851.505	72.87
851.681	101.55
851.856	46.25
852.031	91.31
852.206	25.77
852.381	1.19
852.556	46.25
852.731	42.15
852.906	-17.24
853.081	-11.09
853.256	140.46
853.431	31.91
853.606	-11.09
853.781	-2.9
853.956	-21.33
854.131	85.16
854.305	-107.35
854.48	101.55
854.655	-19.29
854.83	29.87
855.005	60.59
855.18	17.58
855.354	62.63
855.529	17.58
855.704	54.44
855.879	-35.67
856.053	19.63
856.228	99.5
856.403	83.11
856.577	38.06
856.752	-15.19
856.926	36.01
857.101	46.25
857.276	-17.24
857.45	50.35
857.625	-33.62
857.799	48.3
857.974	50.35
858.148	48.3
858.323	48.3
858.497	54.44
858.672	13.48
858.846	36.01
859.02	-15.19
859.195	29.87
859.369	-4.95
859.543	1.19
859.718	56.49
859.892	23.72
860.066	9.39
860.241	-13.14
860.415	70.83
860.589	-31.57
860.763	5.29
860.938	13.48
861.112	36.01
861.286	-19.29
861.46	46.25
861.634	-33.62
861.808	72.87
861.982	85.16
862.157	25.77
862.331	50.35
862.505	-52.05
862.679	-9.05
862.853	17.58
863.027	-29.52
863.201	56.49
863.375	-9.05
863.549	23.72
863.722	36.01
863.896	27.82
864.07	15.53
864.244	17.58
864.418	46.25
864.592	76.97
864.766	3.24
864.939	27.82
865.113	-21.33
865.287	42.15
865.461	27.82
865.634	33.96
865.808	-27.48
865.982	56.49
866.156	-37.72
866.329	-9.05
866.503	44.2
866.676	-9.05
866.85	-23.38
867.024	-7
867.197	38.06
867.371	42.15
867.544	19.63
867.718	-17.24
867.891	-7
868.065	-11.09
868.238	3.24
868.412	60.59
868.585	105.64
868.759	56.49
868.932	13.48
869.105	5.29
869.279	-9.05
869.452	89.26
869.625	-2.9
869.799	-43.86
869.972	17.58
870.145	38.06
870.319	62.63
870.492	46.25
870.665	-19.29
870.838	-35.67
871.011	46.25
871.185	9.39
871.358	-7
871.531	48.3
871.704	-35.67
871.877	46.25
872.05	13.48
872.223	-4.95
872.396	58.54
872.569	-45.91
872.742	-56.15
872.915	-31.57
873.088	25.77
873.261	33.96
873.434	-39.76
873.607	119.98
873.78	50.35
873.953	40.11
874.126	83.11
874.299	50.35
874.471	1.19
874.644	-47.96
874.817	33.96
874.99	91.31
875.163	42.15
875.335	33.96
875.508	19.63
875.681	17.58
875.853	27.82
876.026	-7
876.199	-17.24
876.371	36.01
876.544	21.67
876.717	79.02
876.889	-47.96
877.062	52.39
877.234	-15.19
877.407	70.83
877.579	-15.19
877.752	52.39
877.924	109.74
878.097	42.15
878.269	27.82
878.442	46.25
878.614	13.48
878.786	66.73
878.959	-11.09
879.131	68.78
879.303	42.15
879.476	54.44
879.648	46.25
879.82	5.29
879.993	-0.85
880.165	-0.85
880.337	17.58
880.509	56.49
880.681	-7
880.854	21.67
881.026	-7
881.198	-2.9
881.37	40.11
881.542	17.58
881.714	-66.39
881.886	33.96
882.058	23.72
882.23	1.19
882.402	-56.15
882.574	15.53
882.746	-27.48
882.918	62.63
883.09	-11.09
883.262	5.29
883.434	42.15
883.606	27.82
883.778	29.87
883.95	124.07
884.122	-17.24
884.293	13.48
884.465	66.73
884.637	79.02
884.809	-78.68
884.98	-0.85
885.152	-52.05
885.324	-27.48
885.496	23.72
885.667	25.77
885.839	56.49
886.011	-7
886.182	25.77
886.354	5.29
886.525	25.77
886.697	64.68
886.869	-60.24
887.04	3.24
887.212	-13.14
887.383	103.59
887.555	21.67
887.726	-37.72
887.897	91.31
888.069	31.91
888.24	-21.33
888.412	48.3
888.583	-0.85
888.754	74.92
888.926	-23.38
889.097	-2.9
889.268	-0.85
889.44	-23.38
889.611	-39.76
889.782	79.02
889.953	38.06
890.125	103.59
890.296	54.44
890.467	17.58
890.638	13.48
890.809	-7
890.98	54.44
891.151	5.29
891.323	7.34
891.494	9.39
891.665	29.87
891.836	-11.09
892.007	5.29
892.178	70.83
892.349	7.34
892.52	-7
892.691	-23.38
892.862	7.34
893.032	-25.43
893.203	9.39
893.374	-25.43
893.545	19.63
893.716	-21.33
893.887	29.87
894.057	58.54
894.228	-60.24
894.399	-11.09
894.57	-29.52
894.74	29.87
894.911	89.26
895.082	25.77
895.253	54.44
895.423	-21.33
895.594	19.63
895.764	-2.9
895.935	-105.3
896.106	-15.19
896.276	13.48
896.447	-0.85
896.617	15.53
896.788	-21.33
896.958	-23.38
897.129	-15.19
897.299	-13.14
897.47	9.39
897.64	-19.29
897.81	1.19
897.981	36.01
898.151	-19.29
898.322	64.68
898.492	1.19
898.662	3.24
898.832	-27.48
899.003	-31.57
899.173	33.96
899.343	-7
899.513	-19.29
