Data from USB4F104151__43__11-36-58-723.txt Node

Date: Fri Mar 14 11:36:58 EDT 2025
User: louis
Spectrometer: USB4F10415
Trigger mode: 4
Integration Time (sec): 2.000000E-2
Scans to average: 1
Electric dark correction enabled: true
Nonlinearity correction enabled: false
Boxcar width: 0
XAxis mode: Wavelengths
Number of Pixels in Spectrum: 3648
>>>>>Begin Spectral Data<<<<<
178.204	-33.28
178.424	-33.28
178.644	-33.28
178.864	-59.9
179.084	-57.86
179.304	17.92
179.524	-45.57
179.744	-49.66
179.964	34.3
180.184	-23.04
180.404	-29.18
180.624	-41.47
180.844	40.45
181.064	-27.14
181.283	75.26
181.503	24.06
181.723	24.06
181.943	9.73
182.163	97.79
182.383	42.5
182.602	65.02
182.822	44.54
183.042	46.59
183.262	42.5
183.482	-29.18
183.701	11.78
183.921	58.88
184.141	11.78
184.361	32.26
184.58	7.68
184.8	7.68
185.02	79.36
185.239	105.98
185.459	36.35
185.679	40.45
185.898	-25.09
186.118	56.83
186.338	22.02
186.557	11.78
186.777	-20.99
186.997	-12.8
187.216	60.93
187.436	73.21
187.655	22.02
187.875	-0.51
188.095	24.06
188.314	54.78
188.534	-2.56
188.753	11.78
188.973	-8.7
189.192	7.68
189.412	-14.85
189.631	52.74
189.851	3.58
190.07	89.6
190.29	-0.51
190.509	-2.56
190.729	-45.57
190.948	56.83
191.168	101.89
191.387	56.83
191.607	83.45
191.826	24.06
192.045	22.02
192.265	50.69
192.484	-20.99
192.704	69.12
192.923	-18.94
193.142	85.5
193.362	40.45
193.581	62.98
193.8	65.02
194.02	44.54
194.239	-14.85
194.458	-0.51
194.678	28.16
194.897	89.6
195.116	32.26
195.335	87.55
195.555	26.11
195.774	-25.09
195.993	-8.7
196.212	60.93
196.432	-4.61
196.651	-0.51
196.87	81.41
197.089	97.79
197.308	32.26
197.528	19.97
197.747	-2.56
197.966	-8.7
198.185	77.31
198.404	-2.56
198.623	81.41
198.842	62.98
199.062	5.63
199.281	11.78
199.5	91.65
199.719	15.87
199.938	67.07
200.157	101.89
200.376	13.82
200.595	60.93
200.814	13.82
201.033	58.88
201.252	-12.8
201.471	56.83
201.69	58.88
201.909	62.98
202.128	54.78
202.347	97.79
202.566	65.02
202.785	40.45
203.004	11.78
203.223	89.6
203.442	-33.28
203.661	-25.09
203.879	34.3
204.098	65.02
204.317	48.64
204.536	24.06
204.755	-4.61
204.974	17.92
205.193	-33.28
205.411	1.54
205.63	81.41
205.849	77.31
206.068	3.58
206.287	-20.99
206.505	77.31
206.724	-18.94
206.943	65.02
207.162	17.92
207.381	11.78
207.599	-0.51
207.818	28.16
208.037	7.68
208.255	30.21
208.474	54.78
208.693	-37.38
208.911	71.17
209.13	-20.99
209.349	83.45
209.567	46.59
209.786	146.94
210.005	77.31
210.223	71.17
210.442	-47.62
210.661	3.58
210.879	15.87
211.098	24.06
211.316	30.21
211.535	48.64
211.753	-6.66
211.972	-20.99
212.191	28.16
212.409	81.41
212.628	52.74
212.846	60.93
213.065	38.4
213.283	91.65
213.502	95.74
213.72	-16.9
213.938	-10.75
214.157	144.89
214.375	7.68
214.594	7.68
214.812	40.45
215.031	26.11
215.249	60.93
215.467	5.63
215.686	91.65
215.904	-4.61
216.122	22.02
216.341	60.93
216.559	24.06
216.778	30.21
216.996	34.3
217.214	22.02
217.432	-33.28
217.651	17.92
217.869	173.57
218.087	52.74
218.306	26.11
218.524	122.37
218.742	-4.61
218.96	60.93
219.179	-68.09
219.397	69.12
219.615	71.17
219.833	44.54
220.051	-10.75
220.27	52.74
220.488	17.92
220.706	101.89
220.924	32.26
221.142	56.83
221.36	71.17
221.578	11.78
221.796	44.54
222.015	46.59
222.233	42.5
222.451	95.74
222.669	65.02
222.887	3.58
223.105	36.35
223.323	108.03
223.541	75.26
223.759	81.41
223.977	26.11
224.195	73.21
224.413	-61.95
224.631	93.69
224.849	77.31
225.067	50.69
225.285	1.54
225.503	52.74
225.721	-57.86
225.939	32.26
226.157	-39.42
226.375	56.83
226.592	36.35
226.81	30.21
227.028	7.68
227.246	-25.09
227.464	36.35
227.682	22.02
227.9	40.45
228.117	-20.99
228.335	19.97
228.553	-0.51
228.771	24.06
228.989	99.84
229.206	-4.61
229.424	46.59
229.642	19.97
229.86	-16.9
230.077	-0.51
230.295	48.64
230.513	44.54
230.731	69.12
230.948	5.63
231.166	67.07
231.384	17.92
231.601	22.02
231.819	85.5
232.037	38.4
232.254	5.63
232.472	60.93
232.689	11.78
232.907	79.36
233.125	17.92
233.342	-14.85
233.56	62.98
233.777	60.93
233.995	30.21
234.213	7.68
234.43	13.82
234.648	9.73
234.865	28.16
235.083	54.78
235.3	30.21
235.518	54.78
235.735	22.02
235.953	60.93
236.17	67.07
236.388	24.06
236.605	48.64
236.822	30.21
237.04	17.92
237.257	15.87
237.475	24.06
237.692	26.11
237.909	79.36
238.127	24.06
238.344	1.54
238.562	32.26
238.779	-0.51
238.996	-20.99
239.214	-2.56
239.431	34.3
239.648	-41.47
239.865	77.31
240.083	56.83
240.3	73.21
240.517	19.97
240.735	32.26
240.952	52.74
241.169	83.45
241.386	85.5
241.603	-6.66
241.821	24.06
242.038	7.68
242.255	-29.18
242.472	24.06
242.689	50.69
242.907	11.78
243.124	93.69
243.341	40.45
243.558	-14.85
243.775	-2.56
243.992	44.54
244.209	50.69
244.426	52.74
244.643	30.21
244.86	52.74
245.078	62.98
245.295	22.02
245.512	9.73
245.729	83.45
245.946	40.45
246.163	52.74
246.38	93.69
246.597	28.16
246.814	-41.47
247.031	62.98
247.248	65.02
247.464	48.64
247.681	50.69
247.898	3.58
248.115	65.02
248.332	79.36
248.549	105.98
248.766	120.32
248.983	28.16
249.2	-4.61
249.417	101.89
249.633	19.97
249.85	15.87
250.067	30.21
250.284	28.16
250.501	9.73
250.717	-0.51
250.934	-25.09
251.151	30.21
251.368	85.5
251.585	79.36
251.801	54.78
252.018	60.93
252.235	11.78
252.451	60.93
252.668	44.54
252.885	-8.7
253.102	-23.04
253.318	105.98
253.535	15.87
253.752	118.27
253.968	77.31
254.185	-49.66
254.401	-20.99
254.618	103.93
254.835	11.78
255.051	42.5
255.268	77.31
255.484	69.12
255.701	28.16
255.917	1.54
256.134	17.92
256.351	81.41
256.567	-6.66
256.784	54.78
257	22.02
257.217	15.87
257.433	32.26
257.65	22.02
257.866	38.4
258.082	19.97
258.299	15.87
258.515	9.73
258.732	17.92
258.948	46.59
259.165	19.97
259.381	11.78
259.597	-8.7
259.814	42.5
260.03	32.26
260.246	-18.94
260.463	40.45
260.679	87.55
260.895	38.4
261.112	71.17
261.328	44.54
261.544	79.36
261.761	48.64
261.977	-27.14
262.193	-8.7
262.409	58.88
262.626	-68.09
262.842	-18.94
263.058	-4.61
263.274	5.63
263.49	-82.43
263.707	87.55
263.923	26.11
264.139	-14.85
264.355	36.35
264.571	58.88
264.787	34.3
265.004	110.08
265.22	73.21
265.436	9.73
265.652	-43.52
265.868	42.5
266.084	-12.8
266.3	36.35
266.516	26.11
266.732	73.21
266.948	-27.14
267.164	5.63
267.38	-31.23
267.596	-12.8
267.812	46.59
268.028	3.58
268.244	38.4
268.46	7.68
268.676	1.54
268.892	38.4
269.108	54.78
269.324	40.45
269.54	3.58
269.756	85.5
269.972	73.21
270.188	101.89
270.403	44.54
270.619	-2.56
270.835	65.02
271.051	-43.52
271.267	32.26
271.483	87.55
271.698	50.69
271.914	19.97
272.13	9.73
272.346	-6.66
272.562	3.58
272.777	79.36
272.993	71.17
273.209	56.83
273.425	52.74
273.64	77.31
273.856	13.82
274.072	17.92
274.287	-37.38
274.503	50.69
274.719	93.69
274.934	-61.95
275.15	-25.09
275.366	62.98
275.581	62.98
275.797	44.54
276.012	52.74
276.228	52.74
276.444	71.17
276.659	46.59
276.875	81.41
277.09	52.74
277.306	-12.8
277.521	83.45
277.737	-0.51
277.952	89.6
278.168	40.45
278.383	87.55
278.599	13.82
278.814	32.26
279.03	71.17
279.245	114.17
279.461	75.26
279.676	36.35
279.892	7.68
280.107	22.02
280.322	5.63
280.538	34.3
280.753	58.88
280.969	46.59
281.184	9.73
281.399	79.36
281.615	62.98
281.83	50.69
282.045	32.26
282.26	-14.85
282.476	71.17
282.691	-0.51
282.906	65.02
283.122	22.02
283.337	-10.75
283.552	89.6
283.767	-0.51
283.983	91.65
284.198	19.97
284.413	-27.14
284.628	11.78
284.843	52.74
285.058	30.21
285.274	26.11
285.489	71.17
285.704	48.64
285.919	-33.28
286.134	101.89
286.349	19.97
286.564	89.6
286.779	-35.33
286.995	15.87
287.21	40.45
287.425	50.69
287.64	44.54
287.855	9.73
288.07	50.69
288.285	65.02
288.5	89.6
288.715	77.31
288.93	28.16
289.145	38.4
289.36	48.64
289.575	3.58
289.79	67.07
290.004	34.3
290.219	91.65
290.434	-0.51
290.649	5.63
290.864	-61.95
291.079	-18.94
291.294	60.93
291.509	36.35
291.724	5.63
291.938	5.63
292.153	71.17
292.368	44.54
292.583	26.11
292.798	9.73
293.012	69.12
293.227	89.6
293.442	30.21
293.657	122.37
293.871	77.31
294.086	69.12
294.301	108.03
294.516	24.06
294.73	128.51
294.945	36.35
295.16	40.45
295.374	60.93
295.589	3.58
295.804	-8.7
296.018	79.36
296.233	93.69
296.447	81.41
296.662	-27.14
296.877	50.69
297.091	50.69
297.306	83.45
297.52	91.65
297.735	48.64
297.949	56.83
298.164	19.97
298.378	40.45
298.593	50.69
298.807	24.06
299.022	48.64
299.236	19.97
299.451	93.69
299.665	13.82
299.88	67.07
300.094	1.54
300.309	89.6
300.523	11.78
300.737	-0.51
300.952	95.74
301.166	28.16
301.381	-8.7
301.595	5.63
301.809	-12.8
302.024	26.11
302.238	-43.52
302.452	83.45
302.667	22.02
302.881	28.16
303.095	-0.51
303.309	103.93
303.524	60.93
303.738	5.63
303.952	40.45
304.166	42.5
304.381	7.68
304.595	138.75
304.809	52.74
305.023	65.02
305.237	-8.7
305.452	50.69
305.666	56.83
305.88	65.02
306.094	67.07
306.308	79.36
306.522	9.73
306.736	28.16
306.95	81.41
307.164	1.54
307.379	42.5
307.593	93.69
307.807	13.82
308.021	28.16
308.235	83.45
308.449	-33.28
308.663	26.11
308.877	19.97
309.091	15.87
309.305	40.45
309.519	17.92
309.733	77.31
309.947	7.68
310.161	11.78
310.374	73.21
310.588	73.21
310.802	79.36
311.016	79.36
311.23	-35.33
311.444	52.74
311.658	36.35
311.872	36.35
312.085	56.83
312.299	62.98
312.513	9.73
312.727	105.98
312.941	75.26
313.154	60.93
313.368	-23.04
313.582	28.16
313.796	-59.9
314.009	30.21
314.223	52.74
314.437	11.78
314.651	46.59
314.864	50.69
315.078	52.74
315.292	13.82
315.505	7.68
315.719	36.35
315.933	52.74
316.146	79.36
316.36	5.63
316.573	40.45
316.787	128.51
317.001	65.02
317.214	71.17
317.428	28.16
317.641	85.5
317.855	-43.52
318.068	15.87
318.282	56.83
318.495	46.59
318.709	81.41
318.922	44.54
319.136	-0.51
319.349	52.74
319.563	120.32
319.776	40.45
319.99	19.97
320.203	54.78
320.417	110.08
320.63	52.74
320.843	26.11
321.057	132.61
321.27	52.74
321.483	26.11
321.697	-12.8
321.91	48.64
322.124	-16.9
322.337	44.54
322.55	81.41
322.763	15.87
322.977	36.35
323.19	54.78
323.403	24.06
323.617	83.45
323.83	58.88
324.043	9.73
324.256	22.02
324.469	46.59
324.683	9.73
324.896	-0.51
325.109	46.59
325.322	7.68
325.535	9.73
325.748	38.4
325.962	24.06
326.175	54.78
326.388	71.17
326.601	50.69
326.814	40.45
327.027	34.3
327.24	58.88
327.453	-80.38
327.666	50.69
327.879	44.54
328.092	56.83
328.305	58.88
328.518	-10.75
328.731	32.26
328.944	13.82
329.157	36.35
329.37	44.54
329.583	36.35
329.796	26.11
330.009	-0.51
330.222	110.08
330.435	50.69
330.648	38.4
330.861	56.83
331.073	65.02
331.286	56.83
331.499	75.26
331.712	60.93
331.925	97.79
332.138	50.69
332.35	60.93
332.563	30.21
332.776	71.17
332.989	60.93
333.202	56.83
333.414	56.83
333.627	89.6
333.84	65.02
334.053	60.93
334.265	17.92
334.478	26.11
334.691	-0.51
334.903	128.51
335.116	34.3
335.329	26.11
335.541	19.97
335.754	46.59
335.966	-27.14
336.179	-4.61
336.392	42.5
336.604	26.11
336.817	36.35
337.029	101.89
337.242	50.69
337.454	40.45
337.667	85.5
337.88	17.92
338.092	54.78
338.305	52.74
338.517	7.68
338.729	52.74
338.942	40.45
339.154	-10.75
339.367	28.16
339.579	73.21
339.792	22.02
340.004	101.89
340.217	17.92
340.429	5.63
340.641	5.63
340.854	46.59
341.066	65.02
341.278	128.51
341.491	81.41
341.703	56.83
341.915	38.4
342.128	1.54
342.34	32.26
342.552	87.55
342.764	-29.18
342.977	3.58
343.189	114.17
343.401	60.93
343.613	7.68
343.826	73.21
344.038	32.26
344.25	-14.85
344.462	-0.51
344.674	91.65
344.886	34.3
345.099	60.93
345.311	60.93
345.523	-12.8
345.735	52.74
345.947	73.21
346.159	54.78
346.371	81.41
346.583	56.83
346.795	99.84
347.007	11.78
347.219	30.21
347.431	42.5
347.643	48.64
347.855	-8.7
348.067	118.27
348.279	50.69
348.491	22.02
348.703	38.4
348.915	7.68
349.127	52.74
349.339	87.55
349.551	-4.61
349.763	81.41
349.975	54.78
350.187	17.92
350.399	85.5
350.61	60.93
350.822	46.59
351.034	75.26
351.246	3.58
351.458	130.56
351.669	-16.9
351.881	105.98
352.093	48.64
352.305	85.5
352.517	60.93
352.728	-10.75
352.94	95.74
353.152	34.3
353.363	22.02
353.575	101.89
353.787	60.93
353.999	-16.9
354.21	56.83
354.422	17.92
354.633	67.07
354.845	34.3
355.057	5.63
355.268	73.21
355.48	101.89
355.692	5.63
355.903	11.78
356.115	1.54
356.326	-2.56
356.538	85.5
356.749	52.74
356.961	65.02
357.172	1.54
357.384	87.55
357.595	30.21
357.807	58.88
358.018	-59.9
358.23	60.93
358.441	60.93
358.653	28.16
358.864	5.63
359.075	-29.18
359.287	-8.7
359.498	48.64
359.709	19.97
359.921	30.21
360.132	-25.09
360.344	40.45
360.555	40.45
360.766	-10.75
360.977	62.98
361.189	91.65
361.4	40.45
361.611	-0.51
361.823	114.17
362.034	58.88
362.245	56.83
362.456	-31.23
362.667	22.02
362.879	50.69
363.09	24.06
363.301	48.64
363.512	24.06
363.723	-2.56
363.935	-16.9
364.146	69.12
364.357	46.59
364.568	36.35
364.779	-29.18
364.99	60.93
365.201	5.63
365.412	48.64
365.623	-29.18
365.834	73.21
366.045	15.87
366.256	60.93
366.467	54.78
366.678	40.45
366.889	5.63
367.1	73.21
367.311	-14.85
367.522	19.97
367.733	24.06
367.944	75.26
368.155	75.26
368.366	56.83
368.577	79.36
368.788	85.5
368.999	-45.57
369.209	99.84
369.42	81.41
369.631	56.83
369.842	42.5
370.053	44.54
370.264	97.79
370.474	56.83
370.685	3.58
370.896	24.06
371.107	69.12
371.317	56.83
371.528	85.5
371.739	65.02
371.95	58.88
372.16	79.36
372.371	85.5
372.582	89.6
372.792	95.74
373.003	40.45
373.214	89.6
373.424	75.26
373.635	-39.42
373.846	36.35
374.056	-0.51
374.267	65.02
374.477	77.31
374.688	54.78
374.898	30.21
375.109	15.87
375.319	38.4
375.53	112.13
375.74	30.21
375.951	89.6
376.161	24.06
376.372	75.26
376.582	5.63
376.793	9.73
377.003	-31.23
377.214	91.65
377.424	3.58
377.635	93.69
377.845	73.21
378.055	97.79
378.266	-10.75
378.476	40.45
378.686	40.45
378.897	28.16
379.107	28.16
379.317	24.06
379.528	13.82
379.738	114.17
379.948	28.16
380.158	36.35
380.369	58.88
380.579	118.27
380.789	3.58
380.999	52.74
381.21	52.74
381.42	105.98
381.63	-4.61
381.84	62.98
382.05	83.45
382.261	44.54
382.471	99.84
382.681	-12.8
382.891	69.12
383.101	52.74
383.311	42.5
383.521	28.16
383.731	60.93
383.941	48.64
384.151	3.58
384.361	28.16
384.571	48.64
384.781	89.6
384.991	58.88
385.201	75.26
385.411	65.02
385.621	81.41
385.831	52.74
386.041	54.78
386.251	42.5
386.461	-10.75
386.671	79.36
386.881	19.97
387.091	81.41
387.301	-8.7
387.511	40.45
387.72	99.84
387.93	79.36
388.14	-2.56
388.35	73.21
388.56	132.61
388.769	93.69
388.979	81.41
389.189	-12.8
389.399	19.97
389.609	69.12
389.818	-45.57
390.028	-0.51
390.238	-8.7
390.447	71.17
390.657	7.68
390.867	26.11
391.076	22.02
391.286	-0.51
391.496	85.5
391.705	110.08
391.915	95.74
392.125	65.02
392.334	114.17
392.544	71.17
392.753	52.74
392.963	32.26
393.172	62.98
393.382	24.06
393.591	58.88
393.801	11.78
394.01	75.26
394.22	69.12
394.429	-0.51
394.639	69.12
394.848	58.88
395.058	28.16
395.267	95.74
395.477	93.69
395.686	126.46
395.895	118.27
396.105	85.5
396.314	93.69
396.524	93.69
396.733	50.69
396.942	87.55
397.152	11.78
397.361	93.69
397.57	71.17
397.78	73.21
397.989	65.02
398.198	146.94
398.407	151.04
398.617	69.12
398.826	19.97
399.035	65.02
399.244	93.69
399.453	103.93
399.663	138.75
399.872	146.94
400.081	34.3
400.29	103.93
400.499	81.41
400.708	54.78
400.917	120.32
401.127	97.79
401.336	108.03
401.545	126.46
401.754	69.12
401.963	144.89
402.172	83.45
402.381	118.27
402.59	77.31
402.799	132.61
403.008	142.85
403.217	91.65
403.426	40.45
403.635	103.93
403.844	130.56
404.053	105.98
404.262	99.84
404.471	73.21
404.68	138.75
404.888	44.54
405.097	93.69
405.306	116.22
405.515	151.04
405.724	75.26
405.933	114.17
406.142	157.18
406.35	185.85
406.559	120.32
406.768	151.04
406.977	138.75
407.185	128.51
407.394	159.23
407.603	167.42
407.812	189.95
408.02	151.04
408.229	159.23
408.438	165.37
408.646	140.8
408.855	253.44
409.064	243.2
409.272	179.71
409.481	271.87
409.69	267.77
409.898	208.38
410.107	171.52
410.315	153.09
410.524	298.49
410.733	224.76
410.941	161.28
411.15	306.68
411.358	230.91
411.567	220.67
411.775	220.67
411.984	318.97
412.192	275.96
412.401	253.44
412.609	331.26
412.818	380.41
413.026	269.82
413.234	333.31
413.443	345.59
413.651	400.89
413.86	347.64
414.068	396.79
414.276	470.52
414.485	447.99
414.693	447.99
414.901	458.23
415.11	464.38
415.318	427.51
415.526	540.15
415.734	484.86
415.943	531.96
416.151	534.01
416.359	597.49
416.567	572.92
416.776	597.49
416.984	638.45
417.192	636.41
417.4	615.93
417.608	611.83
417.817	714.23
418.025	761.33
418.233	822.77
418.441	734.71
418.649	792.05
418.857	847.35
419.065	867.83
419.273	759.28
419.481	841.2
419.689	900.59
419.897	925.17
420.105	1048.05
420.313	1054.19
420.521	1072.62
420.729	1125.87
420.937	1121.77
421.145	1129.97
421.353	1215.98
421.561	1228.27
421.769	1277.42
421.977	1342.96
422.185	1238.51
422.393	1390.06
422.601	1447.4
422.809	1580.52
423.017	1519.08
423.224	1572.33
423.432	1654.25
423.64	1711.59
423.848	1740.26
424.056	1603.05
424.263	1957.35
424.471	1801.7
424.679	1869.28
424.887	2112.99
425.094	2065.89
425.302	2037.22
425.51	2242.01
425.718	2147.81
425.925	2213.34
426.133	2336.22
426.341	2485.72
426.548	2510.3
426.756	2604.5
426.964	2598.36
427.171	2682.33
427.379	2801.11
427.586	2807.25
427.794	2837.97
428.001	2928.08
428.209	3145.17
428.417	3118.54
428.624	3292.62
428.832	3214.8
429.039	3372.49
429.247	3448.27
429.454	3714.5
429.662	3956.16
429.869	3669.45
430.076	3734.98
430.284	3792.33
430.491	3962.31
430.699	4152.77
430.906	4294.08
431.114	4199.87
431.321	4330.94
431.528	4451.77
431.736	4744.63
431.943	4986.29
432.15	4797.88
432.358	4758.97
432.565	5133.75
432.772	5103.03
432.979	5477.8
433.187	5393.84
433.394	5522.86
433.601	5871.01
433.808	5846.44
434.016	5903.78
434.223	6100.39
434.43	6391.2
434.637	6141.35
434.844	6790.55
435.052	6737.31
435.259	6952.34
435.466	6919.57
435.673	6921.62
435.88	7484.81
436.087	7820.68
436.294	7630.22
436.501	7681.42
436.708	7638.41
436.915	7835.02
437.122	8144.26
437.329	8166.79
437.537	8560
437.743	8738.17
437.95	8605.05
438.157	9076.09
438.364	9348.47
438.571	9538.93
438.778	9450.86
438.985	10198.37
439.192	9772.39
439.399	10098.02
439.606	9917.8
439.813	10345.83
440.02	11308.37
440.227	10863.96
440.433	10741.08
440.64	11122.01
440.847	11005.27
441.054	11511.12
441.261	12051.78
441.467	12092.74
441.674	12391.75
441.881	12629.31
442.088	12596.54
442.294	12686.65
442.501	13169.98
442.708	13096.25
442.914	13489.46
443.121	14167.34
443.328	13864.24
443.534	14755.1
443.741	14548.26
443.948	14196.01
444.154	15318.29
444.361	15283.48
444.568	15385.88
444.774	15195.42
444.981	15387.93
445.187	15785.23
445.394	16841.98
445.6	16321.8
445.807	17839.34
446.013	17251.58
446.22	17270.01
446.426	18216.17
446.633	18423.01
446.839	18998.49
447.046	18064.62
447.252	19330.27
447.459	19199.2
447.665	19180.76
447.871	19934.42
448.078	20628.68
448.284	19860.69
448.491	20227.28
448.697	21327.03
448.903	21568.69
449.11	21474.49
449.316	21073.09
449.522	21683.38
449.728	22477.99
449.935	22267.05
450.141	22318.25
450.347	22967.46
450.553	22281.39
450.76	22623.4
450.966	23192.73
451.172	22949.03
451.378	23387.29
451.584	23174.3
451.791	23581.85
451.997	23393.44
452.203	23829.65
452.409	23946.39
452.615	23592.09
452.821	22977.7
453.027	22545.58
453.233	23950.48
453.44	22697.13
453.646	23342.24
453.852	23213.21
454.058	23403.67
454.264	22723.75
454.47	23489.69
454.676	22908.07
454.882	23889.04
455.088	21566.65
455.294	21912.75
455.5	22205.61
455.705	22660.26
455.911	21382.33
456.117	21136.57
456.323	20925.63
456.529	19786.96
456.735	20765.89
456.941	20065.49
457.147	19725.52
457.352	19137.76
457.558	18611.43
457.764	18726.11
457.97	18654.44
458.176	18238.7
458.381	18261.23
458.587	17179.9
458.793	17401.08
458.999	16655.62
459.204	17532.15
459.41	16991.48
459.616	16157.96
459.821	16006.41
460.027	16053.52
460.233	15639.83
460.438	14851.36
460.644	15039.77
460.85	14144.81
461.055	14073.13
461.261	13964.59
461.466	13069.62
461.672	12621.12
461.878	13610.29
462.083	12856.64
462.289	12643.65
462.494	12201.29
462.7	11857.23
462.905	11402.58
463.111	11943.24
463.316	11853.13
463.522	11482.45
463.727	11769.16
463.932	11328.85
464.138	11644.24
464.343	11539.79
464.549	10968.41
464.754	11410.77
464.959	11418.96
465.165	11353.43
465.37	10784.09
465.575	10638.69
465.781	11142.49
465.986	11281.75
466.191	10708.32
466.397	10460.51
466.602	9950.57
466.807	10462.56
467.012	10265.96
467.218	10222.95
467.423	10198.37
467.628	10394.98
467.833	10810.72
468.038	10198.37
468.244	9936.23
468.449	10591.58
468.654	10141.03
468.859	10042.73
469.064	10147.17
469.269	9524.59
469.474	9588.08
469.679	9506.16
469.885	9530.73
470.09	9639.28
470.295	9678.19
470.5	9182.58
470.705	9403.76
470.91	9067.89
471.115	8977.78
471.32	9158
471.525	9020.79
471.73	9018.74
471.935	8945.02
472.139	8689.02
472.344	8785.27
472.549	8697.21
472.754	8658.3
472.959	8428.93
473.164	8166.79
473.369	8265.09
473.574	8572.29
473.778	8359.3
473.983	8205.7
474.188	8207.75
474.393	7900.55
474.598	8009.09
474.802	7763.34
475.007	7732.62
475.212	7710.09
475.417	7607.69
475.621	7286.16
475.826	7593.36
476.031	7499.15
476.235	7230.87
476.44	7271.83
476.645	7159.19
476.849	7114.13
477.054	7226.77
477.259	6952.34
477.463	6927.77
477.668	6784.41
477.872	6970.77
478.077	6837.66
478.282	6473.12
478.486	6546.84
478.691	6675.87
478.895	6628.76
479.1	6555.04
479.304	6512.03
479.509	6432.16
479.713	6485.41
479.918	6233.5
480.122	6249.89
480.326	6272.42
480.531	6348.19
480.735	6065.57
480.94	6135.2
481.144	6313.38
481.348	6206.88
481.553	6086.05
481.757	6094.24
481.961	6063.52
482.166	6274.46
482.37	6071.72
482.574	5922.21
482.778	5887.4
482.983	6120.87
483.187	6137.25
483.391	6086.05
483.595	6116.77
483.8	5922.21
484.004	6051.24
484.208	5977.51
484.412	6012.32
484.616	6020.52
484.821	5979.56
485.025	5989.8
485.229	6116.77
485.433	6030.76
485.637	5997.99
485.841	5957.03
486.045	6090.15
486.249	6053.28
486.453	5979.56
486.657	5948.84
486.861	6002.08
487.065	6022.56
487.269	5965.22
487.473	6006.18
487.677	6032.8
487.881	6135.2
488.085	6012.32
488.289	5905.83
488.493	6034.85
488.697	6047.14
488.901	6071.72
489.105	6036.9
489.309	6049.19
489.512	6137.25
489.716	6045.09
489.92	6004.13
490.124	6057.38
490.328	6096.29
490.531	6094.24
490.735	6073.76
490.939	6249.89
491.143	6215.07
491.346	6176.16
491.55	6206.88
491.754	6172.07
491.958	6335.9
492.161	6190.5
492.365	6368.67
492.569	6309.28
492.772	6337.95
492.976	6360.48
493.18	6458.78
493.383	6362.53
493.587	6608.28
493.79	6622.62
493.994	6714.78
494.197	6659.48
494.401	6534.56
494.605	6682.01
494.808	6733.21
495.012	6956.44
495.215	6606.24
495.419	6946.2
495.622	6929.81
495.825	6759.83
496.029	7015.83
496.232	7075.22
496.436	7097.75
496.639	7218.58
496.843	7216.53
497.046	7411.09
497.249	7462.29
497.453	7450
497.656	7556.49
497.859	7624.08
498.063	7476.62
498.266	7781.77
498.469	7916.94
498.673	7781.77
498.876	7839.11
499.079	8088.96
499.282	7970.18
499.485	8322.43
499.689	8244.61
499.892	8453.5
500.095	8516.99
500.298	8592.76
500.501	8459.65
500.705	8801.66
500.908	8959.35
501.111	8801.66
501.314	9117.04
501.517	9045.37
501.72	9129.33
501.923	9188.72
502.126	9217.4
502.329	9815.4
502.532	9799.02
502.735	9375.09
502.938	9622.89
503.141	9897.32
503.344	9983.34
503.547	9934.18
503.75	10149.22
503.953	10288.48
504.156	10437.98
504.359	10462.56
504.562	10521.95
504.765	10835.29
504.968	10792.28
505.17	11013.46
505.373	10859.87
505.576	11142.49
505.779	11072.86
505.982	11433.3
506.185	11523.41
506.387	11525.46
506.59	11859.28
506.793	11773.26
506.996	11873.61
507.198	12195.14
507.401	12090.7
507.604	12426.56
507.807	12399.94
508.009	12473.67
508.212	12641.6
508.415	12541.25
508.617	12918.07
508.82	13120.82
509.022	12827.96
509.225	13573.42
509.428	13344.05
509.63	13487.41
509.833	13395.25
510.035	13798.7
510.238	13946.16
510.44	14069.03
510.643	14019.88
510.845	14335.27
511.048	13966.63
511.25	14302.5
511.453	14417.19
511.655	14947.61
511.858	14714.14
512.06	14998.81
512.262	15324.44
512.465	15217.94
512.667	15488.28
512.87	15631.63
513.072	15555.86
513.274	16026.89
513.477	15895.82
513.679	16057.61
513.881	16196.87
514.084	16286.98
514.286	16430.34
514.488	16575.75
514.69	16833.79
514.893	16956.67
515.095	16936.19
515.297	17296.63
515.499	17446.13
515.701	17435.89
515.904	17800.43
516.106	17870.06
516.308	17947.89
516.51	18031.85
516.712	18015.47
516.914	18392.3
517.116	18549.99
517.318	18816.22
517.52	18736.35
517.722	18791.65
517.925	19152.09
518.127	19176.67
518.329	19238.11
518.531	19358.94
518.733	19649.75
518.935	19938.51
519.136	19750.1
519.338	20323.53
519.54	20296.91
519.742	20434.12
519.944	20434.12
520.146	20722.88
520.348	20950.21
520.55	20909.25
520.752	20995.26
520.954	21425.34
521.155	21224.64
521.357	21605.56
521.559	21734.58
521.761	22142.13
521.963	21877.94
522.164	22271.15
522.366	22209.71
522.568	22363.31
522.77	22504.62
522.971	22903.97
523.173	22766.76
523.375	22983.84
523.576	22795.43
523.778	22918.31
523.98	23286.94
524.181	23313.56
524.383	23624.86
524.584	23815.32
524.786	23563.42
524.988	23776.41
525.189	23796.88
525.391	24253.58
525.592	24177.81
525.794	24325.26
525.995	24423.56
526.197	24333.45
526.398	24700.04
526.6	25111.68
526.801	24743.05
527.003	24888.45
527.204	25050.24
527.406	25267.33
527.607	25140.35
527.808	25187.46
528.01	25199.74
528.211	25123.97
528.412	25543.8
528.614	25781.37
528.815	25529.47
529.016	26090.61
529.218	25578.62
529.419	25803.89
529.62	25953.4
529.822	26037.36
530.023	25961.59
530.224	25914.48
530.425	25902.2
530.626	25953.4
530.828	25814.13
531.029	26252.4
531.23	26084.47
531.431	26106.99
531.632	26080.37
531.833	26178.67
532.035	26225.78
532.236	26301.55
532.437	26723.43
532.638	26076.27
532.839	26197.1
533.04	26453.1
533.241	25965.68
533.442	26993.76
533.643	26889.32
533.844	26649.71
534.045	26592.36
534.246	26469.48
534.447	26793.06
534.648	26362.99
534.849	26602.6
535.05	26526.83
535.251	26793.06
535.451	26684.52
535.652	26778.73
535.853	26791.02
536.054	26657.9
536.255	26739.82
536.456	26432.62
536.657	27178.08
536.857	26674.28
537.058	26743.91
537.259	26922.09
537.46	26917.99
537.66	26672.23
537.861	26840.17
538.062	26596.46
538.263	26985.57
538.463	26774.63
538.664	26547.31
538.865	26897.51
539.065	26754.15
539.266	26707.05
539.466	26897.51
539.667	26700.9
539.868	26856.55
540.068	26569.83
540.269	26836.07
540.469	26917.99
540.67	26539.12
540.87	26709.1
541.071	26905.7
541.271	26641.51
541.472	26485.87
541.672	26645.61
541.873	26535.02
542.073	26604.65
542.274	27133.03
542.474	26426.48
542.675	26213.49
542.875	26846.31
543.075	26907.75
543.276	26514.54
543.476	26797.16
543.676	26498.16
543.877	26840.17
544.077	26666.09
544.277	26653.8
544.478	26356.85
544.678	26848.36
544.878	26545.26
545.078	26940.52
545.279	26690.66
545.479	26350.7
545.679	26610.79
545.879	26387.57
546.079	26489.96
546.28	26774.63
546.48	26293.36
546.68	26551.4
546.88	26731.62
547.08	26494.06
547.28	26436.72
547.48	26119.28
547.68	26446.96
547.88	26492.01
548.081	26567.79
548.281	26436.72
548.481	26242.16
548.681	26524.78
548.881	26420.33
549.081	26475.63
549.28	26260.59
549.48	26539.12
549.68	26358.89
549.88	26512.49
550.08	26092.66
550.28	26328.17
550.48	26504.3
550.68	26272.88
550.88	25916.53
551.08	26520.68
551.279	26608.75
551.479	26223.73
551.679	26510.44
551.879	26367.09
552.079	26461.29
552.278	26387.57
552.478	26260.59
552.678	26242.16
552.878	26297.45
553.077	26160.24
553.277	26121.33
553.477	26475.63
553.676	26264.69
553.876	25830.52
554.076	25928.82
554.275	26055.79
554.475	26135.67
554.674	26106.99
554.874	26008.69
555.074	26195.06
555.273	26145.91
555.473	26049.65
555.672	25992.31
555.872	26047.6
556.071	26086.51
556.271	26252.4
556.47	26023.03
556.67	25689.21
556.869	25877.62
557.068	25877.62
557.268	25515.13
557.467	25699.45
557.667	25545.85
557.866	25750.65
558.065	25891.96
558.265	25590.91
558.464	25896.05
558.663	25650.3
558.863	25212.03
559.062	25842.81
559.261	25351.29
559.461	25465.98
559.66	25332.86
559.859	25472.12
560.058	25173.12
560.258	25232.51
560.457	24870.02
560.656	25175.17
560.855	25048.19
561.054	25472.12
561.253	24851.59
561.453	25021.57
561.652	25230.46
561.851	25048.19
562.05	24941.7
562.249	24927.36
562.448	24931.46
562.647	24534.15
562.846	24691.85
563.045	24556.68
563.244	24925.32
563.443	24614.02
563.642	24468.62
563.841	24521.87
564.04	24790.15
564.239	24730.76
564.438	24450.19
564.637	24194.19
564.836	24515.72
565.035	24282.25
565.234	24437.9
565.432	24239.25
565.631	24251.53
565.83	24243.34
566.029	24095.89
566.228	24016.02
566.427	24077.46
566.625	23792.79
566.824	23735.45
567.023	24097.94
567.222	23284.89
567.42	23774.36
567.619	23612.57
567.818	23413.91
568.016	23745.69
568.215	23843.99
568.414	23575.7
568.612	23604.38
568.811	23252.13
569.01	23141.53
569.208	23014.56
569.407	23385.24
569.605	23065.76
569.804	23100.58
570.002	22969.51
570.201	23100.58
570.4	22777
570.598	22602.92
570.797	22568.1
570.995	22629.54
571.193	22693.03
571.392	22914.21
571.59	22385.83
571.789	22467.75
571.987	22674.6
572.186	22424.75
572.384	22281.39
572.582	22652.07
572.781	22555.82
572.979	22346.92
573.177	22013.1
573.376	22432.94
573.574	22316.2
573.772	21890.23
573.971	21931.19
574.169	21941.43
574.367	21630.13
574.565	22095.02
574.763	21859.51
574.962	21888.18
575.16	21288.12
575.358	21421.24
575.556	21408.95
575.754	21789.88
575.952	21568.69
576.151	21284.03
576.349	20993.22
576.547	21216.44
576.745	21433.53
576.943	21124.29
577.141	21046.46
577.339	21175.48
577.537	21124.29
577.735	20972.74
577.933	21028.03
578.131	20989.12
578.329	20901.06
578.527	20665.54
578.725	21062.85
578.923	21048.51
579.121	20542.66
579.319	20724.93
579.516	20665.54
579.714	20751.56
579.912	20632.77
580.11	20202.7
580.308	20319.43
580.506	20507.85
580.704	20397.26
580.901	20190.41
581.099	20378.83
581.297	20241.61
581.495	19963.09
581.692	20307.15
581.89	19803.35
582.088	20055.25
582.285	19909.84
582.483	20145.36
582.681	19774.67
582.878	19825.87
583.076	19528.92
583.274	20133.07
583.471	19549.4
583.669	19924.18
583.866	19541.21
584.064	19651.8
584.262	19137.76
584.459	19805.39
584.657	19172.57
584.854	19166.43
585.052	18986.21
585.249	18801.89
585.447	19508.44
585.644	18939.1
585.841	18963.68
586.039	19076.32
586.236	18998.49
586.434	18935.01
586.631	18713.83
586.828	18705.63
587.026	18824.42
587.223	18674.92
587.42	18515.17
587.618	18734.31
587.815	18898.14
588.012	18683.11
588.21	18375.91
588.407	18386.15
588.604	18420.97
588.801	18273.51
588.999	18124.01
589.196	18212.07
589.393	17800.43
589.59	17872.11
589.787	17890.54
589.984	17984.75
590.182	17745.14
590.379	18085.1
590.576	17992.94
590.773	17691.89
590.97	17573.11
591.167	17497.33
591.364	17673.46
591.561	17734.9
591.758	17376.5
591.955	17612.02
592.152	17562.87
592.349	17220.86
592.546	17343.74
592.743	17609.97
592.94	17073.4
593.137	17272.06
593.334	17081.6
593.531	17034.49
593.727	17054.97
593.924	17059.07
594.121	16706.82
594.318	16936.19
594.515	16760.06
594.712	16848.13
594.908	16852.22
595.105	17114.36
595.302	16622.85
595.499	16710.91
595.696	16628.99
595.892	16309.51
596.089	16549.12
596.286	16469.25
596.482	16329.99
596.679	16370.95
596.876	16405.77
597.072	16192.78
597.269	16416.01
597.466	16106.76
597.662	15889.68
597.859	16168.2
598.055	16321.8
598.252	16090.38
598.448	16184.59
598.645	15944.97
598.841	15840.53
599.038	15731.98
599.234	15774.99
599.431	15555.86
599.627	15543.57
599.824	15697.17
600.02	15510.8
600.217	15383.83
600.413	15359.25
600.609	15375.64
600.806	15217.94
601.002	15306.01
601.198	15105.31
601.395	15252.76
601.591	15115.55
601.787	15176.98
601.984	15181.08
602.18	15326.49
602.376	14880.03
602.572	14863.65
602.769	15007
602.965	14785.82
603.161	14910.75
603.357	14939.42
603.553	14869.79
603.75	14693.66
603.946	14527.78
604.142	15107.35
604.338	14624.03
604.534	14757.15
604.73	14466.34
604.926	14452
605.122	14611.75
605.318	14261.54
605.514	14187.82
605.71	14382.37
605.906	14339.37
606.102	14263.59
606.298	14148.9
606.494	14290.21
606.69	14456.1
606.886	14073.13
607.082	13899.05
607.278	14251.3
607.474	13761.84
607.67	14071.08
607.866	13655.34
608.062	14015.79
608.257	13944.11
608.453	13710.64
608.649	13903.15
608.845	13569.33
609.041	13847.85
609.236	13821.23
609.432	13634.86
609.628	13819.18
609.824	13808.94
610.019	13520.18
610.215	13505.84
610.411	13565.23
610.606	13503.79
610.802	13493.55
610.998	13380.92
611.193	13710.64
611.389	13368.63
611.584	13497.65
611.78	13274.42
611.976	13409.59
612.171	13473.07
612.367	13270.33
612.562	13331.76
612.758	13120.82
612.953	13114.68
613.149	13278.52
613.344	13249.85
613.539	13188.41
613.735	13145.4
613.93	13129.02
614.126	13061.43
614.321	13008.19
614.517	13299
614.712	13053.24
614.907	12954.94
615.103	13067.58
615.298	13077.82
615.493	13045.05
615.688	12739.9
615.884	13110.58
616.079	12623.17
616.274	12805.44
616.47	12696.89
616.665	12735.81
616.86	12641.6
617.055	12680.51
617.25	12774.72
617.445	12784.96
617.641	12485.95
617.836	12651.84
618.031	12485.95
618.226	12553.54
618.421	12488
618.616	12735.81
618.811	12289.35
619.006	12442.95
619.201	12191.05
619.396	12197.19
619.591	12068.17
619.786	12215.62
619.981	12105.03
620.176	12215.62
620.371	11844.94
620.566	12010.82
620.761	12074.31
620.956	12016.97
621.151	11887.95
621.346	11933
621.541	11930.95
621.735	11887.95
621.93	11605.33
622.125	11760.97
622.32	11294.04
622.515	11615.57
622.709	11697.49
622.904	11343.19
623.099	11341.14
623.294	11283.8
623.488	11099.48
623.683	11222.36
623.878	10978.65
624.072	11046.23
624.267	11142.49
624.462	11060.57
624.656	10976.6
624.851	10925.4
625.046	10739.04
625.24	10708.32
625.435	10827.1
625.629	10605.92
625.824	10581.34
626.018	10605.92
626.213	10190.18
626.407	10386.79
626.602	10241.38
626.796	10354.02
626.991	10210.66
627.185	10380.64
627.38	10095.97
627.574	10012.01
627.768	9995.62
627.963	9784.68
628.157	9678.19
628.352	9811.31
628.546	9600.37
628.74	9702.76
628.935	9428.34
629.129	9674.09
629.323	9489.78
629.517	9532.78
629.712	9360.75
629.906	9401.71
630.1	9209.2
630.294	9465.2
630.489	9174.39
630.683	9313.65
630.877	9174.39
631.071	8998.26
631.265	9123.19
631.459	9139.57
631.653	8916.34
631.848	8863.1
632.042	8740.22
632.236	8938.87
632.43	8850.81
632.624	8721.79
632.818	8488.32
633.012	8713.6
633.206	8533.37
633.4	8570.24
633.594	8557.95
633.788	8734.07
633.982	8545.66
634.176	8416.64
634.369	8355.2
634.563	8363.39
634.757	8248.71
634.951	8195.46
635.145	8177.03
635.339	8160.64
635.533	8113.54
635.726	8019.33
635.92	7978.37
636.114	8007.05
636.308	7931.27
636.501	7929.22
636.695	7849.35
636.889	7751.05
637.083	7900.55
637.276	7634.32
637.47	7693.71
637.664	7646.6
637.857	7705.99
638.051	7531.92
638.244	7605.64
638.438	7536.01
638.632	7429.52
638.825	7411.09
639.019	7263.63
639.212	7280.02
639.406	7216.53
639.599	7312.78
639.793	7298.45
639.986	7122.32
640.18	7183.76
640.373	7191.95
640.567	7060.88
640.76	6968.73
640.954	7052.69
641.147	6989.21
641.34	7032.21
641.534	6874.52
641.727	6792.6
641.92	6960.53
642.114	6770.07
642.307	6880.66
642.5	6755.74
642.694	6696.35
642.887	6641.05
643.08	6653.34
643.273	6765.98
643.467	6522.27
643.66	6460.83
643.853	6407.58
644.046	6383.01
644.239	6487.45
644.432	6235.55
644.626	6399.39
644.819	6225.31
645.012	6567.32
645.205	6206.88
645.398	6194.59
645.591	6337.95
645.784	6116.77
645.977	6034.85
646.17	6225.31
646.363	6151.59
646.556	6135.2
646.749	6102.43
646.942	6084
647.135	5934.5
647.328	6053.28
647.521	5907.88
647.714	5770.66
647.907	5940.65
648.099	5830.06
648.292	5811.62
648.485	5893.54
648.678	5762.47
648.871	5713.32
649.064	5637.55
649.256	5705.13
649.449	5651.88
649.642	5596.59
649.835	5625.26
650.027	5557.68
650.22	5596.59
650.413	5541.29
650.605	5604.78
650.798	5543.34
650.991	5436.85
651.183	5352.88
651.376	5422.51
651.568	5424.56
651.761	5318.06
651.954	5311.92
652.146	5289.39
652.339	5152.18
652.531	5197.23
652.724	5123.51
652.916	5080.5
653.109	5133.75
653.301	5092.79
653.494	5057.97
653.686	5027.25
653.879	4996.53
654.071	5017.01
654.263	4996.53
654.456	5012.92
654.648	4926.9
654.84	4816.31
655.033	4887.99
655.225	4847.03
655.417	4834.74
655.61	4928.95
655.802	4801.97
655.994	4765.11
656.186	4773.3
656.379	4853.17
656.571	4652.47
656.763	4664.76
656.955	4566.46
657.148	4548.03
657.34	4562.36
657.532	4697.53
657.724	4408.76
657.916	4406.72
658.108	4595.13
658.3	4492.73
658.492	4435.39
658.684	4445.63
658.876	4457.92
659.068	4468.16
659.26	4378.05
659.452	4476.35
659.644	4283.84
659.836	4146.62
660.028	4412.86
660.22	4234.69
660.412	4238.78
660.604	4220.35
660.796	4163.01
660.988	4275.65
661.18	4109.76
661.372	4054.47
661.563	4066.75
661.755	4029.89
661.947	4076.99
662.139	4036.03
662.331	4126.15
662.522	4099.52
662.714	4021.7
662.906	4046.27
663.097	4019.65
663.289	3790.28
663.481	4003.27
663.673	3907.01
663.864	3966.4
664.056	3798.47
664.247	3818.95
664.439	3847.62
664.631	3829.19
664.822	3825.09
665.014	3833.29
665.205	3966.4
665.397	3909.06
665.588	3708.36
665.78	3788.23
665.971	3872.2
666.163	3722.7
666.354	3689.93
666.546	3653.06
666.737	3603.91
666.929	3646.92
667.12	3784.13
667.311	3620.3
667.503	3720.65
667.694	3595.72
667.885	3536.33
668.077	3552.71
668.268	3513.8
668.459	3616.2
668.651	3565
668.842	3542.47
669.033	3388.88
669.224	3321.29
669.416	3538.38
669.607	3366.35
669.798	3528.14
669.989	3429.84
670.18	3390.92
670.371	3511.75
670.563	3470.8
670.754	3364.3
670.945	3407.31
671.136	3411.4
671.327	3337.68
671.518	3403.21
671.709	3395.02
671.9	3374.54
672.091	3354.06
672.282	3266
672.473	3202.51
672.664	3167.7
672.855	3306.96
673.046	3317.2
673.237	3335.63
673.428	3159.5
673.619	3182.03
673.809	3161.55
674	3229.13
674.191	3182.03
674.382	3116.5
674.573	3098.06
674.764	3280.33
674.954	3147.22
675.145	3116.5
675.336	3038.67
675.527	3145.17
675.717	3200.46
675.908	3233.23
676.099	3169.74
676.289	3096.02
676.48	3120.59
676.671	3114.45
676.861	3159.5
677.052	3143.12
677.243	3079.63
677.433	3079.63
677.624	3055.06
677.814	3139.02
678.005	3083.73
678.195	3130.83
678.386	3036.63
678.576	3085.78
678.767	3055.06
678.957	3100.11
679.148	3083.73
679.338	3016.15
679.529	2991.57
679.719	3081.68
679.909	3010
680.1	2956.75
680.29	3096.02
680.481	3104.21
680.671	2942.42
680.861	2944.47
681.052	2973.14
681.242	2774.49
681.432	3198.42
681.622	2981.33
681.813	3071.44
682.003	3141.07
682.193	2971.09
682.383	2989.52
682.573	3067.35
682.764	2903.51
682.954	2932.18
683.144	2915.8
683.334	2977.23
683.524	2915.8
683.714	3022.29
683.904	2934.23
684.094	2891.22
684.284	2903.51
684.474	2901.46
684.664	2864.6
684.854	2995.67
685.044	2792.92
685.234	2926.04
685.424	2942.42
685.614	2848.21
685.804	2938.32
685.994	2776.53
686.184	2788.82
686.374	2745.81
686.564	2682.33
686.753	2758.1
686.943	2762.2
687.133	2676.18
687.323	2786.77
687.513	2825.68
687.702	2803.16
687.892	2862.55
688.082	2694.61
688.272	2723.29
688.461	2805.21
688.651	2799.06
688.841	2692.57
689.03	2706.9
689.22	2678.23
689.41	2715.09
689.599	2543.07
689.789	2655.7
689.979	2633.18
690.168	2663.9
690.358	2561.5
690.547	2545.11
690.737	2627.03
690.926	2594.26
691.116	2399.71
691.305	2481.63
691.495	2479.58
691.684	2518.49
691.874	2434.52
692.063	2389.47
692.252	2414.04
692.442	2434.52
692.631	2301.4
692.82	2428.38
693.01	2414.04
693.199	2336.22
693.388	2285.02
693.578	2319.84
693.767	2364.89
693.956	2379.23
694.146	2285.02
694.335	2233.82
694.524	2190.81
694.713	2393.56
694.902	2334.17
695.092	2162.14
695.281	2250.21
695.47	2332.12
695.659	2203.1
695.848	2129.38
696.037	2151.9
696.226	2272.73
696.415	2199.01
696.604	2219.49
696.793	2100.7
696.982	2199.01
697.171	2080.22
697.36	2180.57
697.549	2141.66
697.738	2127.33
697.927	2151.9
698.116	2125.28
698.305	2147.81
698.494	2221.53
698.683	2096.61
698.872	2094.56
699.061	2129.38
699.25	2039.26
699.438	2084.32
699.627	2098.66
699.816	2078.18
700.005	2078.18
700.193	2092.51
700.382	2082.27
700.571	2074.08
700.76	2147.81
700.948	2063.84
701.137	2014.69
701.326	2108.9
701.514	2018.79
701.703	2092.51
701.892	2039.26
702.08	2112.99
702.269	2051.55
702.457	1945.06
702.646	2072.03
702.834	1963.49
703.023	2018.79
703.212	1998.31
703.4	1953.25
703.589	1963.49
703.777	2035.17
703.965	2031.07
704.154	2090.46
704.342	1969.63
704.531	2014.69
704.719	2047.46
704.907	2123.23
705.096	2047.46
705.284	2063.84
705.472	1990.11
705.661	2006.5
705.849	1983.97
706.037	2008.55
706.226	1957.35
706.414	2053.6
706.602	2074.08
706.79	1961.44
706.979	1992.16
707.167	1955.3
707.355	2031.07
707.543	1922.53
707.731	2020.83
707.919	2061.79
708.107	2110.94
708.296	1932.77
708.484	1963.49
708.672	2082.27
708.86	2031.07
709.048	2096.61
709.236	2086.37
709.424	1973.73
709.612	2129.38
709.8	2047.46
709.988	1973.73
710.176	2080.22
710.364	1983.97
710.551	2108.9
710.739	2072.03
710.927	2024.93
711.115	2029.03
711.303	2078.18
711.491	2149.86
711.679	2063.84
711.866	2164.19
712.054	2123.23
712.242	2084.32
712.43	2133.47
712.617	2067.94
712.805	2143.71
712.993	2092.51
713.181	2096.61
713.368	2194.91
713.556	2176.48
713.744	2119.14
713.931	2215.39
714.119	2192.86
714.306	2213.34
714.494	2211.29
714.682	2176.48
714.869	2115.04
715.057	2186.72
715.244	2166.24
715.432	2098.66
715.619	2231.77
715.807	2299.36
715.994	2276.83
716.182	2170.33
716.369	2246.11
716.556	2194.91
716.744	2123.23
716.931	2153.95
717.119	2319.84
717.306	2160.1
717.493	2233.82
717.681	2190.81
717.868	2252.25
718.055	2104.8
718.242	2305.5
718.43	2350.56
718.617	2332.12
718.804	2276.83
718.991	2264.54
719.179	2299.36
719.366	2219.49
719.553	2207.2
719.74	2287.07
719.927	2301.4
720.114	2297.31
720.301	2358.75
720.488	2141.66
720.676	2319.84
720.863	2221.53
721.05	2375.13
721.237	2340.32
721.424	2389.47
721.611	2399.71
721.798	2272.73
721.985	2366.94
722.172	2299.36
722.358	2270.69
722.545	2344.41
722.732	2336.22
722.919	2371.04
723.106	2430.43
723.293	2430.43
723.48	2323.93
723.667	2282.97
723.853	2379.23
724.04	2438.62
724.227	2387.42
724.414	2328.03
724.6	2373.08
724.787	2416.09
724.974	2424.28
725.161	2424.28
725.347	2291.17
725.534	2438.62
725.72	2444.76
725.907	2473.43
726.094	2391.52
726.28	2401.76
726.467	2475.48
726.653	2334.17
726.84	2424.28
727.027	2389.47
727.213	2489.82
727.4	2381.28
727.586	2465.24
727.773	2299.36
727.959	2426.33
728.145	2465.24
728.332	2432.47
728.518	2426.33
728.705	2612.7
728.891	2428.38
729.077	2514.39
729.264	2475.48
729.45	2479.58
729.636	2461.15
729.823	2489.82
730.009	2678.23
730.195	2465.24
730.382	2502.11
730.568	2508.25
730.754	2502.11
730.94	2528.73
731.126	2598.36
731.313	2368.99
731.499	2547.16
731.685	2440.67
731.871	2481.63
732.057	2463.19
732.243	2516.44
732.429	2553.31
732.615	2588.12
732.801	2512.35
732.987	2641.37
733.173	2504.15
733.359	2471.39
733.545	2547.16
733.731	2520.54
733.917	2577.88
734.103	2588.12
734.289	2448.86
734.475	2629.08
734.661	2536.92
734.847	2633.18
735.033	2618.84
735.219	2534.87
735.404	2526.68
735.59	2596.31
735.776	2450.91
735.962	2508.25
736.148	2498.01
736.333	2412
736.519	2479.58
736.705	2559.45
736.89	2581.98
737.076	2481.63
737.262	2432.47
737.447	2498.01
737.633	2391.52
737.819	2457.05
738.004	2463.19
738.19	2512.35
738.375	2584.02
738.561	2498.01
738.747	2547.16
738.932	2418.14
739.118	2522.59
739.303	2538.97
739.489	2498.01
739.674	2477.53
739.859	2463.19
740.045	2389.47
740.23	2377.18
740.416	2457.05
740.601	2452.95
740.786	2401.76
740.972	2260.45
741.157	2481.63
741.342	2305.5
741.528	2389.47
741.713	2461.15
741.898	2483.67
742.084	2307.55
742.269	2473.43
742.454	2338.27
742.639	2397.66
742.824	2358.75
743.01	2360.8
743.195	2368.99
743.38	2371.04
743.565	2375.13
743.75	2285.02
743.935	2377.18
744.12	2291.17
744.305	2254.3
744.49	2192.86
744.675	2305.5
744.86	2325.98
745.045	2385.37
745.23	2201.05
745.415	2176.48
745.6	2258.4
745.785	2211.29
745.97	2266.59
746.155	2102.75
746.34	2254.3
746.525	2237.92
746.71	2110.94
746.895	2090.46
747.079	2063.84
747.264	2112.99
747.449	2053.6
747.634	2190.81
747.819	2088.42
748.003	2074.08
748.188	1998.31
748.373	2010.59
748.557	2100.7
748.742	2110.94
748.927	2094.56
749.111	2037.22
749.296	1981.92
749.481	2006.5
749.665	1969.63
749.85	2035.17
750.034	2002.4
750.219	1953.25
750.404	1869.28
750.588	1859.04
750.773	1760.74
750.957	1822.18
751.141	1920.48
751.326	1928.67
751.51	1797.6
751.695	1887.72
751.879	1826.28
752.064	1750.5
752.248	1811.94
752.432	1705.45
752.617	1846.76
752.801	1838.56
752.985	1758.69
753.17	1830.37
753.354	1732.07
753.538	1644.01
753.722	1689.06
753.907	1738.21
754.091	1699.3
754.275	1779.17
754.459	1576.42
754.643	1560.04
754.828	1684.97
755.012	1611.24
755.196	1570.28
755.38	1564.14
755.564	1617.38
755.748	1576.42
755.932	1611.24
756.116	1482.22
756.3	1596.9
756.484	1465.83
756.668	1510.89
756.852	1496.55
757.036	1504.75
757.22	1467.88
757.404	1543.66
757.588	1543.66
757.772	1396.2
757.956	1433.07
758.14	1484.27
758.323	1383.91
758.507	1422.83
758.691	1361.39
758.875	1428.97
759.059	1320.43
759.242	1345
759.426	1390.06
759.61	1269.23
759.794	1422.83
759.977	1334.76
760.161	1359.34
760.345	1404.39
760.528	1471.98
760.712	1420.78
760.895	1304.04
761.079	1203.69
761.263	1250.8
761.446	1258.99
761.63	1244.65
761.813	1209.84
761.997	1258.99
762.18	1275.37
762.364	1166.83
762.547	1170.93
762.731	1275.37
762.914	1082.86
763.098	1181.17
763.281	1238.51
763.464	1101.3
763.648	1250.8
763.831	1187.31
764.015	1211.89
764.198	1265.13
764.381	1232.37
764.564	1127.92
764.748	1179.12
764.931	1213.93
765.114	1109.49
765.297	1134.06
765.481	1078.77
765.664	1136.11
765.847	1117.68
766.03	1146.35
766.213	1062.38
766.397	1177.07
766.58	1177.07
766.763	1211.89
766.946	1021.42
767.129	1029.62
767.312	1072.62
767.495	1111.54
767.678	1095.15
767.861	1166.83
768.044	1070.58
768.227	1015.28
768.41	949.75
768.593	976.37
768.776	1027.57
768.959	990.7
769.142	1013.23
769.324	986.61
769.507	935.41
769.69	974.32
769.873	937.46
770.056	998.9
770.239	1054.19
770.421	1027.57
770.604	982.51
770.787	949.75
770.97	980.47
771.152	933.36
771.335	974.32
771.518	970.23
771.7	898.55
771.883	998.9
772.066	957.94
772.248	880.11
772.431	976.37
772.613	892.4
772.796	865.78
772.978	882.16
773.161	933.36
773.343	833.01
773.526	855.54
773.708	984.56
773.891	906.74
774.073	820.72
774.256	892.4
774.438	826.87
774.621	880.11
774.803	945.65
774.985	740.85
775.168	818.68
775.35	847.35
775.532	843.25
775.715	759.28
775.897	826.87
776.079	814.58
776.261	855.54
776.444	828.92
776.626	790
776.808	804.34
776.99	847.35
777.173	820.72
777.355	728.56
777.537	796.15
777.719	783.86
777.901	820.72
778.083	681.46
778.265	685.56
778.447	761.33
778.629	675.32
778.811	736.76
778.993	681.46
779.175	785.91
779.357	574.97
779.539	722.42
779.721	665.08
779.903	650.74
780.085	712.18
780.267	669.17
780.449	648.69
780.631	663.03
780.812	646.65
780.994	679.41
781.176	570.87
781.358	654.84
781.54	628.21
781.721	646.65
781.903	652.79
782.085	620.02
782.267	607.73
782.448	540.15
782.63	654.84
782.812	568.82
782.993	523.77
783.175	605.69
783.357	597.49
783.538	572.92
783.72	603.64
783.901	570.87
784.083	548.34
784.264	499.19
784.446	511.48
784.627	552.44
784.809	577.02
784.99	511.48
785.172	521.72
785.353	536.06
785.535	464.38
785.716	501.24
785.897	581.11
786.079	513.53
786.26	482.81
786.441	486.9
786.623	493.05
786.804	464.38
786.985	423.42
787.167	470.52
787.348	441.85
787.529	407.03
787.71	540.15
787.891	521.72
788.073	452.09
788.254	433.66
788.435	493.05
788.616	519.67
788.797	386.55
788.978	458.23
789.159	366.07
789.34	435.71
789.522	466.42
789.703	415.23
789.884	429.56
790.065	474.62
790.246	417.27
790.427	458.23
790.607	384.51
790.788	423.42
790.969	423.42
791.15	407.03
791.331	335.35
791.512	437.75
791.693	415.23
791.874	443.9
792.054	495.1
792.235	409.08
792.416	413.18
792.597	304.64
792.778	413.18
792.958	392.7
793.139	402.94
793.32	329.21
793.5	275.96
793.681	419.32
793.862	378.36
794.042	368.12
794.223	302.59
794.404	304.64
794.584	359.93
794.765	288.25
794.945	343.55
795.126	415.23
795.306	353.79
795.487	351.74
795.667	323.07
795.848	372.22
796.028	312.83
796.209	339.45
796.389	314.88
796.57	345.59
796.75	294.4
796.93	241.15
797.111	267.77
797.291	419.32
797.471	392.7
797.652	341.5
797.832	259.58
798.012	296.44
798.192	300.54
798.373	353.79
798.553	312.83
798.733	310.78
798.913	325.12
799.093	216.57
799.274	267.77
799.454	331.26
799.634	278.01
799.814	212.48
799.994	224.76
800.174	251.39
800.354	284.16
800.534	237.05
800.714	284.16
800.894	212.48
801.074	292.35
801.254	259.58
801.434	196.09
801.614	310.78
801.794	286.2
801.974	665.08
802.154	282.11
802.334	257.53
802.514	265.72
802.693	273.92
802.873	292.35
803.053	261.63
803.233	226.81
803.413	306.68
803.592	292.35
803.772	251.39
803.952	271.87
804.131	239.1
804.311	261.63
804.491	323.07
804.67	228.86
804.85	228.86
805.03	245.24
805.209	230.91
805.389	165.37
805.568	183.81
805.748	235
805.928	232.96
806.107	177.66
806.287	288.25
806.466	243.2
806.646	232.96
806.825	310.78
807.004	202.24
807.184	185.85
807.363	237.05
807.543	208.38
807.722	155.13
807.901	335.35
808.081	237.05
808.26	179.71
808.439	212.48
808.619	185.85
808.798	192
808.977	212.48
809.156	196.09
809.336	169.47
809.515	198.14
809.694	114.17
809.873	235
810.052	218.62
810.231	202.24
810.411	228.86
810.59	255.48
810.769	177.66
810.948	218.62
811.127	228.86
811.306	208.38
811.485	257.53
811.664	206.33
811.843	216.57
812.022	165.37
812.201	124.41
812.38	161.28
812.559	243.2
812.737	284.16
812.916	97.79
813.095	161.28
813.274	114.17
813.453	245.24
813.632	144.89
813.811	187.9
813.989	251.39
814.168	161.28
814.347	278.01
814.526	97.79
814.704	163.33
814.883	267.77
815.062	196.09
815.24	171.52
815.419	97.79
815.598	167.42
815.776	116.22
815.955	120.32
816.133	146.94
816.312	212.48
816.49	187.9
816.669	146.94
816.847	130.56
817.026	128.51
817.204	105.98
817.383	155.13
817.561	226.81
817.74	81.41
817.918	108.03
818.097	200.19
818.275	183.81
818.453	167.42
818.632	163.33
818.81	130.56
818.988	179.71
819.167	144.89
819.345	159.23
819.523	132.61
819.701	175.61
819.879	189.95
820.058	120.32
820.236	187.9
820.414	101.89
820.592	153.09
820.77	112.13
820.948	155.13
821.127	85.5
821.305	163.33
821.483	112.13
821.661	200.19
821.839	216.57
822.017	124.41
822.195	140.8
822.373	110.08
822.551	169.47
822.729	181.76
822.907	124.41
823.085	235
823.262	122.37
823.44	153.09
823.618	134.65
823.796	163.33
823.974	60.93
824.152	122.37
824.329	132.61
824.507	165.37
824.685	146.94
824.863	75.26
825.04	151.04
825.218	130.56
825.396	83.45
825.574	146.94
825.751	118.27
825.929	212.48
826.107	13.82
826.284	112.13
826.462	128.51
826.639	46.59
826.817	108.03
826.994	110.08
827.172	120.32
827.349	159.23
827.527	159.23
827.704	161.28
827.882	83.45
828.059	120.32
828.237	136.7
828.414	155.13
828.591	48.64
828.769	40.45
828.946	142.85
829.124	95.74
829.301	151.04
829.478	124.41
829.655	44.54
829.833	185.85
830.01	108.03
830.187	65.02
830.364	95.74
830.542	112.13
830.719	177.66
830.896	175.61
831.073	142.85
831.25	93.69
831.427	89.6
831.604	97.79
831.782	118.27
831.959	116.22
832.136	130.56
832.313	151.04
832.49	58.88
832.667	95.74
832.844	198.14
833.021	85.5
833.198	62.98
833.374	81.41
833.551	28.16
833.728	101.89
833.905	56.83
834.082	52.74
834.259	110.08
834.436	103.93
834.612	73.21
834.789	122.37
834.966	122.37
835.143	110.08
835.319	71.17
835.496	128.51
835.673	171.52
835.85	69.12
836.026	112.13
836.203	71.17
836.38	73.21
836.556	140.8
836.733	60.93
836.909	110.08
837.086	60.93
837.262	50.69
837.439	163.33
837.616	46.59
837.792	36.35
837.968	71.17
838.145	77.31
838.321	140.8
838.498	19.97
838.674	93.69
838.851	95.74
839.027	89.6
839.203	159.23
839.38	105.98
839.556	108.03
839.732	73.21
839.909	52.74
840.085	42.5
840.261	65.02
840.437	36.35
840.614	73.21
840.79	116.22
840.966	85.5
841.142	56.83
841.318	118.27
841.494	26.11
841.671	54.78
841.847	28.16
842.023	56.83
842.199	52.74
842.375	32.26
842.551	89.6
842.727	75.26
842.903	138.75
843.079	71.17
843.255	42.5
843.431	38.4
843.607	112.13
843.783	85.5
843.959	62.98
844.134	-0.51
844.31	122.37
844.486	103.93
844.662	58.88
844.838	65.02
845.013	40.45
845.189	19.97
845.365	79.36
845.541	67.07
845.716	65.02
845.892	60.93
846.068	73.21
846.244	62.98
846.419	73.21
846.595	32.26
846.77	89.6
846.946	56.83
847.122	-2.56
847.297	167.42
847.473	91.65
847.648	7.68
847.824	91.65
847.999	56.83
848.175	46.59
848.35	101.89
848.526	130.56
848.701	105.98
848.876	91.65
849.052	13.82
849.227	48.64
849.403	38.4
849.578	93.69
849.753	56.83
849.929	46.59
850.104	-20.99
850.279	36.35
850.454	40.45
850.63	52.74
850.805	48.64
850.98	124.41
851.155	93.69
851.33	50.69
851.505	46.59
851.681	69.12
851.856	7.68
852.031	19.97
852.206	89.6
852.381	65.02
852.556	15.87
852.731	30.21
852.906	44.54
853.081	79.36
853.256	73.21
853.431	28.16
853.606	42.5
853.781	52.74
853.956	83.45
854.131	62.98
854.305	56.83
854.48	75.26
854.655	7.68
854.83	42.5
855.005	-25.09
855.18	-0.51
855.354	38.4
855.529	116.22
855.704	56.83
855.879	17.92
856.053	-20.99
856.228	56.83
856.403	44.54
856.577	69.12
856.752	1.54
856.926	24.06
857.101	73.21
857.276	26.11
857.45	75.26
857.625	11.78
857.799	-33.28
857.974	22.02
858.148	42.5
858.323	56.83
858.497	52.74
858.672	85.5
858.846	46.59
859.02	1.54
859.195	11.78
859.369	11.78
859.543	112.13
859.718	-10.75
859.892	65.02
860.066	48.64
860.241	93.69
860.415	36.35
860.589	15.87
860.763	83.45
860.938	34.3
861.112	3.58
861.286	13.82
861.46	11.78
861.634	73.21
861.808	15.87
861.982	-6.66
862.157	69.12
862.331	48.64
862.505	110.08
862.679	-18.94
862.853	91.65
863.027	-12.8
863.201	110.08
863.375	17.92
863.549	79.36
863.722	99.84
863.896	36.35
864.07	79.36
864.244	60.93
864.418	71.17
864.592	62.98
864.766	48.64
864.939	44.54
865.113	32.26
865.287	34.3
865.461	22.02
865.634	-45.57
865.808	15.87
865.982	52.74
866.156	-18.94
866.329	11.78
866.503	40.45
866.676	17.92
866.85	42.5
867.024	5.63
867.197	32.26
867.371	62.98
867.544	81.41
867.718	42.5
867.891	-8.7
868.065	34.3
868.238	34.3
868.412	19.97
868.585	-14.85
868.759	-0.51
868.932	7.68
869.105	-23.04
869.279	75.26
869.452	19.97
869.625	19.97
869.799	67.07
869.972	22.02
870.145	38.4
870.319	38.4
870.492	-31.23
870.665	50.69
870.838	56.83
871.011	22.02
871.185	9.73
871.358	38.4
871.531	87.55
871.704	-27.14
871.877	75.26
872.05	3.58
872.223	13.82
872.396	103.93
872.569	-29.18
872.742	-12.8
872.915	26.11
873.088	65.02
873.261	-0.51
873.434	89.6
873.607	77.31
873.78	75.26
873.953	58.88
874.126	58.88
874.299	69.12
874.471	40.45
874.644	7.68
874.817	36.35
874.99	54.78
875.163	24.06
875.335	101.89
875.508	15.87
875.681	60.93
875.853	-14.85
876.026	48.64
876.199	40.45
876.371	87.55
876.544	-25.09
876.717	36.35
876.889	56.83
877.062	7.68
877.234	19.97
877.407	-59.9
877.579	48.64
877.752	93.69
877.924	-16.9
878.097	3.58
878.269	48.64
878.442	7.68
878.614	44.54
878.786	60.93
878.959	-47.62
879.131	56.83
879.303	7.68
879.476	50.69
879.648	112.13
879.82	108.03
879.993	36.35
880.165	81.41
880.337	24.06
880.509	67.07
880.681	-51.71
880.854	-8.7
881.026	50.69
881.198	48.64
881.37	36.35
881.542	48.64
881.714	7.68
881.886	62.98
882.058	-39.42
882.23	26.11
882.402	48.64
882.574	48.64
882.746	-10.75
882.918	60.93
883.09	46.59
883.262	-8.7
883.434	-10.75
883.606	79.36
883.778	56.83
883.95	69.12
884.122	-14.85
884.293	13.82
884.465	9.73
884.637	5.63
884.809	-39.42
884.98	-2.56
885.152	-8.7
885.324	15.87
885.496	-18.94
885.667	87.55
885.839	9.73
886.011	15.87
886.182	-8.7
886.354	13.82
886.525	73.21
886.697	67.07
886.869	26.11
887.04	32.26
887.212	-25.09
887.383	62.98
887.555	40.45
887.726	-20.99
887.897	15.87
888.069	-23.04
888.24	108.03
888.412	-20.99
888.583	48.64
888.754	22.02
888.926	-18.94
889.097	114.17
889.268	60.93
889.44	7.68
889.611	-12.8
889.782	38.4
889.953	15.87
890.125	65.02
890.296	24.06
890.467	9.73
890.638	-14.85
890.809	-4.61
890.98	-2.56
891.151	22.02
891.323	62.98
891.494	54.78
891.665	-0.51
891.836	22.02
892.007	44.54
892.178	-4.61
892.349	32.26
892.52	24.06
892.691	46.59
892.862	77.31
893.032	22.02
893.203	-29.18
893.374	-10.75
893.545	81.41
893.716	-35.33
893.887	67.07
894.057	30.21
894.228	58.88
894.399	38.4
894.57	85.5
894.74	32.26
894.911	7.68
895.082	54.78
895.253	50.69
895.423	36.35
895.594	22.02
895.764	44.54
895.935	60.93
896.106	56.83
896.276	71.17
896.447	44.54
896.617	34.3
896.788	-25.09
896.958	87.55
897.129	97.79
897.299	11.78
897.47	-23.04
897.64	32.26
897.81	26.11
897.981	-16.9
898.151	24.06
898.322	-10.75
898.492	40.45
898.662	79.36
898.832	22.02
899.003	-10.75
899.173	13.82
899.343	62.98
899.513	28.16
