Data from USB4F104151__16__11-36-29-367.txt Node

Date: Fri Mar 14 11:36:29 EDT 2025
User: louis
Spectrometer: USB4F10415
Trigger mode: 4
Integration Time (sec): 2.000000E-2
Scans to average: 1
Electric dark correction enabled: true
Nonlinearity correction enabled: false
Boxcar width: 0
XAxis mode: Wavelengths
Number of Pixels in Spectrum: 3648
>>>>>Begin Spectral Data<<<<<
178.204	-67.92
178.424	-67.92
178.644	-67.92
178.864	-141.65
179.084	-37.2
179.304	-41.3
179.524	-20.82
179.744	-20.82
179.964	-24.92
180.184	44.71
180.404	-14.68
180.624	28.33
180.844	-6.49
181.064	-8.53
181.283	9.9
181.503	48.81
181.723	5.8
181.943	-12.63
182.163	63.15
182.383	13.99
182.602	30.38
182.822	20.14
183.042	32.43
183.262	22.19
183.482	18.09
183.701	22.19
183.921	22.19
184.141	34.47
184.361	57
184.58	40.62
184.8	48.81
185.02	54.95
185.239	57
185.459	32.43
185.679	79.53
185.898	-0.34
186.118	34.47
186.338	32.43
186.557	28.33
186.777	112.3
186.997	5.8
187.216	30.38
187.436	28.33
187.655	85.67
187.875	11.95
188.095	7.85
188.314	57
188.534	61.1
188.753	-20.82
188.973	-20.82
189.192	24.23
189.412	44.71
189.631	9.9
189.851	-2.39
190.07	16.04
190.29	-4.44
190.509	24.23
190.729	20.14
190.948	44.71
191.168	143.02
191.387	61.1
191.607	5.8
191.826	24.23
192.045	-8.53
192.265	7.85
192.484	13.99
192.704	-4.44
192.923	34.47
193.142	28.33
193.362	36.52
193.581	-4.44
193.8	63.15
194.02	69.29
194.239	-37.2
194.458	46.76
194.678	-22.87
194.897	36.52
195.116	40.62
195.335	1.71
195.555	87.72
195.774	22.19
195.993	57
196.212	32.43
196.432	-22.87
196.651	7.85
196.87	-108.88
197.089	81.58
197.308	73.39
197.528	-0.34
197.747	-35.16
197.966	59.05
198.185	93.87
198.404	-10.58
198.623	63.15
198.842	30.38
199.062	34.47
199.281	28.33
199.5	-14.68
199.719	-29.01
199.938	-2.39
200.157	28.33
200.376	-26.96
200.595	9.9
200.814	11.95
201.033	-14.68
201.252	61.1
201.471	36.52
201.69	-14.68
201.909	42.67
202.128	63.15
202.347	-18.77
202.566	42.67
202.785	11.95
203.004	73.39
203.223	52.91
203.442	5.8
203.661	7.85
203.879	22.19
204.098	79.53
204.317	16.04
204.536	-12.63
204.755	16.04
204.974	32.43
205.193	-24.92
205.411	79.53
205.63	30.38
205.849	-47.44
206.068	-29.01
206.287	38.57
206.505	54.95
206.724	38.57
206.943	5.8
207.162	-8.53
207.381	36.52
207.599	-0.34
207.818	24.23
208.037	42.67
208.255	46.76
208.474	32.43
208.693	-0.34
208.911	-12.63
209.13	83.63
209.349	18.09
209.567	61.1
209.786	48.81
210.005	63.15
210.223	102.06
210.442	28.33
210.661	69.29
210.879	52.91
211.098	28.33
211.316	54.95
211.535	48.81
211.753	61.1
211.972	81.58
212.191	44.71
212.409	-8.53
212.628	11.95
212.846	-16.73
213.065	13.99
213.283	20.14
213.502	-2.39
213.72	40.62
213.938	22.19
214.157	61.1
214.375	44.71
214.594	-39.25
214.812	-26.96
215.031	-8.53
215.249	-47.44
215.467	63.15
215.686	106.15
215.904	122.54
216.122	30.38
216.341	54.95
216.559	57
216.778	48.81
216.996	24.23
217.214	34.47
217.432	22.19
217.651	-8.53
217.869	57
218.087	11.95
218.306	-31.06
218.524	22.19
218.742	3.75
218.96	93.87
219.179	81.58
219.397	54.95
219.615	71.34
219.833	61.1
220.051	63.15
220.27	7.85
220.488	36.52
220.706	3.75
220.924	11.95
221.142	42.67
221.36	32.43
221.578	5.8
221.796	32.43
222.015	61.1
222.233	-18.77
222.451	91.82
222.669	48.81
222.887	32.43
223.105	-63.83
223.323	28.33
223.541	-55.64
223.759	11.95
223.977	63.15
224.195	79.53
224.413	3.75
224.631	-35.16
224.849	5.8
225.067	38.57
225.285	7.85
225.503	7.85
225.721	-35.16
225.939	-33.11
226.157	77.48
226.375	40.62
226.592	-94.55
226.81	61.1
227.028	69.29
227.246	67.24
227.464	40.62
227.682	73.39
227.9	-10.58
228.117	9.9
228.335	67.24
228.553	30.38
228.771	7.85
228.989	61.1
229.206	7.85
229.424	44.71
229.642	57
229.86	-26.96
230.077	32.43
230.295	140.97
230.513	85.67
230.731	-26.96
230.948	13.99
231.166	54.95
231.384	-0.34
231.601	20.14
231.819	52.91
232.037	32.43
232.254	7.85
232.472	77.48
232.689	97.96
232.907	34.47
233.125	-22.87
233.342	52.91
233.56	16.04
233.777	11.95
233.995	-6.49
234.213	95.91
234.43	40.62
234.648	46.76
234.865	57
235.083	-26.96
235.3	32.43
235.518	50.86
235.735	32.43
235.953	13.99
236.17	-51.54
236.388	18.09
236.605	7.85
236.822	1.71
237.04	75.43
237.257	-8.53
237.475	-4.44
237.692	40.62
237.909	-26.96
238.127	30.38
238.344	61.1
238.562	16.04
238.779	-33.11
238.996	87.72
239.214	7.85
239.431	30.38
239.648	-6.49
239.865	67.24
240.083	32.43
240.3	5.8
240.517	26.28
240.735	40.62
240.952	54.95
241.169	11.95
241.386	63.15
241.603	83.63
241.821	-37.2
242.038	-2.39
242.255	48.81
242.472	63.15
242.689	46.76
242.907	-39.25
243.124	-10.58
243.341	36.52
243.558	30.38
243.775	-29.01
243.992	22.19
244.209	-2.39
244.426	83.63
244.643	69.29
244.86	42.67
245.078	59.05
245.295	91.82
245.512	69.29
245.729	83.63
245.946	3.75
246.163	5.8
246.38	24.23
246.597	9.9
246.814	-20.82
247.031	-24.92
247.248	65.19
247.464	30.38
247.681	13.99
247.898	30.38
248.115	69.29
248.332	38.57
248.549	95.91
248.766	95.91
248.983	-0.34
249.2	40.62
249.417	54.95
249.633	-35.16
249.85	65.19
250.067	50.86
250.284	-0.34
250.501	46.76
250.717	11.95
250.934	-35.16
251.151	-26.96
251.368	36.52
251.585	48.81
251.801	57
252.018	13.99
252.235	71.34
252.451	16.04
252.668	-26.96
252.885	83.63
253.102	-6.49
253.318	16.04
253.535	-4.44
253.752	-18.77
253.968	-4.44
254.185	20.14
254.401	18.09
254.618	-4.44
254.835	-8.53
255.051	97.96
255.268	42.67
255.484	-16.73
255.701	89.77
255.917	30.38
256.134	5.8
256.351	38.57
256.567	-10.58
256.784	63.15
257	-55.64
257.217	-2.39
257.433	57
257.65	42.67
257.866	-2.39
258.082	46.76
258.299	36.52
258.515	81.58
258.732	57
258.948	9.9
259.165	46.76
259.381	30.38
259.597	52.91
259.814	40.62
260.03	-26.96
260.246	71.34
260.463	28.33
260.679	50.86
260.895	34.47
261.112	32.43
261.328	-8.53
261.544	40.62
261.761	36.52
261.977	-16.73
262.193	16.04
262.409	-10.58
262.626	81.58
262.842	34.47
263.058	-16.73
263.274	7.85
263.49	71.34
263.707	95.91
263.923	11.95
264.139	-29.01
264.355	32.43
264.571	38.57
264.787	79.53
265.004	7.85
265.22	63.15
265.436	59.05
265.652	65.19
265.868	20.14
266.084	-20.82
266.3	77.48
266.516	104.11
266.732	59.05
266.948	-12.63
267.164	-26.96
267.38	34.47
267.596	32.43
267.812	77.48
268.028	-8.53
268.244	-14.68
268.46	-0.34
268.676	28.33
268.892	32.43
269.108	44.71
269.324	75.43
269.54	59.05
269.756	71.34
269.972	30.38
270.188	40.62
270.403	-33.11
270.619	54.95
270.835	87.72
271.051	-47.44
271.267	30.38
271.483	48.81
271.698	67.24
271.914	87.72
272.13	32.43
272.346	102.06
272.562	32.43
272.777	77.48
272.993	-16.73
273.209	34.47
273.425	63.15
273.64	9.9
273.856	81.58
274.072	59.05
274.287	-35.16
274.503	44.71
274.719	-4.44
274.934	-10.58
275.15	-57.68
275.366	16.04
275.581	-12.63
275.797	-0.34
276.012	11.95
276.228	-51.54
276.444	-20.82
276.659	7.85
276.875	57
277.09	-33.11
277.306	-61.78
277.521	48.81
277.737	57
277.952	95.91
278.168	-8.53
278.383	3.75
278.599	24.23
278.814	22.19
279.03	71.34
279.245	-8.53
279.461	-18.77
279.676	153.26
279.892	63.15
280.107	-16.73
280.322	7.85
280.538	65.19
280.753	32.43
280.969	-4.44
281.184	65.19
281.399	61.1
281.615	54.95
281.83	13.99
282.045	-49.49
282.26	-24.92
282.476	22.19
282.691	89.77
282.906	-0.34
283.122	69.29
283.337	54.95
283.552	-8.53
283.767	-0.34
283.983	38.57
284.198	-45.4
284.413	-16.73
284.628	5.8
284.843	102.06
285.058	-0.34
285.274	61.1
285.489	40.62
285.704	3.75
285.919	-16.73
286.134	-6.49
286.349	-26.96
286.564	16.04
286.779	65.19
286.995	46.76
287.21	-6.49
287.425	20.14
287.64	95.91
287.855	38.57
288.07	30.38
288.285	89.77
288.5	-20.82
288.715	38.57
288.93	22.19
289.145	-16.73
289.36	32.43
289.575	128.68
289.79	42.67
290.004	48.81
290.219	42.67
290.434	7.85
290.649	59.05
290.864	-0.34
291.079	63.15
291.294	-18.77
291.509	32.43
291.724	-8.53
291.938	26.28
292.153	22.19
292.368	85.67
292.583	-12.63
292.798	3.75
293.012	36.52
293.227	-4.44
293.442	-0.34
293.657	-37.2
293.871	-10.58
294.086	36.52
294.301	83.63
294.516	77.48
294.73	-14.68
294.945	28.33
295.16	26.28
295.374	126.63
295.589	20.14
295.804	16.04
296.018	42.67
296.233	-0.34
296.447	48.81
296.662	22.19
296.877	52.91
297.091	46.76
297.306	-10.58
297.52	5.8
297.735	61.1
297.949	36.52
298.164	65.19
298.378	81.58
298.593	-16.73
298.807	36.52
299.022	67.24
299.236	79.53
299.451	46.76
299.665	30.38
299.88	79.53
300.094	28.33
300.309	46.76
300.523	-18.77
300.737	26.28
300.952	28.33
301.166	-0.34
301.381	57
301.595	126.63
301.809	5.8
302.024	-67.92
302.238	54.95
302.452	7.85
302.667	-18.77
302.881	110.25
303.095	24.23
303.309	73.39
303.524	-2.39
303.738	36.52
303.952	54.95
304.166	134.82
304.381	11.95
304.595	50.86
304.809	9.9
305.023	-4.44
305.237	42.67
305.452	32.43
305.666	-8.53
305.88	-10.58
306.094	57
306.308	65.19
306.522	40.62
306.736	100.01
306.95	-18.77
307.164	26.28
307.379	54.95
307.593	44.71
307.807	85.67
308.021	77.48
308.235	26.28
308.449	-12.63
308.663	-0.34
308.877	130.73
309.091	5.8
309.305	93.87
309.519	-0.34
309.733	28.33
309.947	38.57
310.161	57
310.374	13.99
310.588	48.81
310.802	-29.01
311.016	63.15
311.23	22.19
311.444	102.06
311.658	73.39
311.872	16.04
312.085	16.04
312.299	65.19
312.513	40.62
312.727	71.34
312.941	-4.44
313.154	46.76
313.368	-8.53
313.582	-2.39
313.796	54.95
314.009	61.1
314.223	40.62
314.437	16.04
314.651	52.91
314.864	44.71
315.078	40.62
315.292	16.04
315.505	42.67
315.719	83.63
315.933	-31.06
316.146	11.95
316.36	30.38
316.573	28.33
316.787	11.95
317.001	34.47
317.214	-10.58
317.428	42.67
317.641	42.67
317.855	7.85
318.068	57
318.282	38.57
318.495	-2.39
318.709	89.77
318.922	40.62
319.136	114.34
319.349	81.58
319.563	44.71
319.776	-10.58
319.99	-33.11
320.203	91.82
320.417	1.71
320.63	22.19
320.843	50.86
321.057	75.43
321.27	110.25
321.483	57
321.697	-6.49
321.91	-35.16
322.124	42.67
322.337	22.19
322.55	67.24
322.763	-8.53
322.977	24.23
323.19	28.33
323.403	-8.53
323.617	97.96
323.83	48.81
324.043	7.85
324.256	32.43
324.469	42.67
324.683	48.81
324.896	-10.58
325.109	32.43
325.322	-6.49
325.535	69.29
325.748	-24.92
325.962	34.47
326.175	50.86
326.388	-0.34
326.601	44.71
326.814	-2.39
327.027	38.57
327.24	54.95
327.453	69.29
327.666	69.29
327.879	-6.49
328.092	85.67
328.305	-76.12
328.518	16.04
328.731	-16.73
328.944	-0.34
329.157	59.05
329.37	24.23
329.583	75.43
329.796	65.19
330.009	36.52
330.222	28.33
330.435	65.19
330.648	32.43
330.861	11.95
331.073	42.67
331.286	52.91
331.499	38.57
331.712	97.96
331.925	69.29
332.138	-6.49
332.35	44.71
332.563	-10.58
332.776	48.81
332.989	-18.77
333.202	42.67
333.414	11.95
333.627	24.23
333.84	-35.16
334.053	-18.77
334.265	36.52
334.478	-26.96
334.691	54.95
334.903	65.19
335.116	52.91
335.329	75.43
335.541	11.95
335.754	3.75
335.966	40.62
336.179	-10.58
336.392	22.19
336.604	79.53
336.817	-20.82
337.029	-24.92
337.242	42.67
337.454	65.19
337.667	-20.82
337.88	48.81
338.092	28.33
338.305	-31.06
338.517	54.95
338.729	44.71
338.942	32.43
339.154	91.82
339.367	-4.44
339.579	44.71
339.792	-12.63
340.004	50.86
340.217	48.81
340.429	40.62
340.641	-24.92
340.854	52.91
341.066	46.76
341.278	16.04
341.491	3.75
341.703	42.67
341.915	-4.44
342.128	24.23
342.34	40.62
342.552	-16.73
342.764	44.71
342.977	97.96
343.189	81.58
343.401	34.47
343.613	77.48
343.826	13.99
344.038	-16.73
344.25	63.15
344.462	44.71
344.674	63.15
344.886	-24.92
345.099	5.8
345.311	61.1
345.523	61.1
345.735	36.52
345.947	40.62
346.159	-12.63
346.371	48.81
346.583	79.53
346.795	7.85
347.007	40.62
347.219	50.86
347.431	-6.49
347.643	79.53
347.855	-37.2
348.067	71.34
348.279	57
348.491	97.96
348.703	42.67
348.915	34.47
349.127	13.99
349.339	91.82
349.551	30.38
349.763	20.14
349.975	40.62
350.187	97.96
350.399	22.19
350.61	71.34
350.822	1.71
351.034	9.9
351.246	30.38
351.458	32.43
351.669	-59.73
351.881	67.24
352.093	71.34
352.305	104.11
352.517	18.09
352.728	91.82
352.94	-33.11
353.152	28.33
353.363	20.14
353.575	59.05
353.787	77.48
353.999	40.62
354.21	118.44
354.422	52.91
354.633	73.39
354.845	32.43
355.057	-6.49
355.268	40.62
355.48	-4.44
355.692	69.29
355.903	83.63
356.115	42.67
356.326	36.52
356.538	83.63
356.749	24.23
356.961	59.05
357.172	5.8
357.384	16.04
357.595	20.14
357.807	-16.73
358.018	9.9
358.23	-12.63
358.441	132.78
358.653	30.38
358.864	32.43
359.075	79.53
359.287	54.95
359.498	59.05
359.709	32.43
359.921	5.8
360.132	20.14
360.344	95.91
360.555	85.67
360.766	65.19
360.977	75.43
361.189	11.95
361.4	91.82
361.611	-14.68
361.823	16.04
362.034	36.52
362.245	69.29
362.456	57
362.667	48.81
362.879	57
363.09	79.53
363.301	85.67
363.512	-39.25
363.723	44.71
363.935	20.14
364.146	24.23
364.357	61.1
364.568	57
364.779	-49.49
364.99	7.85
365.201	63.15
365.412	118.44
365.623	-4.44
365.834	112.3
366.045	50.86
366.256	73.39
366.467	46.76
366.678	16.04
366.889	28.33
367.1	22.19
367.311	30.38
367.522	22.19
367.733	77.48
367.944	89.77
368.155	83.63
368.366	61.1
368.577	63.15
368.788	9.9
368.999	32.43
369.209	46.76
369.42	100.01
369.631	120.49
369.842	147.11
370.053	52.91
370.264	71.34
370.474	7.85
370.685	-6.49
370.896	-12.63
371.107	124.58
371.317	42.67
371.528	22.19
371.739	77.48
371.95	42.67
372.16	63.15
372.371	-2.39
372.582	59.05
372.792	13.99
373.003	85.67
373.214	28.33
373.424	69.29
373.635	20.14
373.846	104.11
374.056	9.9
374.267	50.86
374.477	32.43
374.688	3.75
374.898	-0.34
375.109	24.23
375.319	73.39
375.53	110.25
375.74	16.04
375.951	85.67
376.161	22.19
376.372	48.81
376.582	3.75
376.793	48.81
377.003	30.38
377.214	81.58
377.424	42.67
377.635	30.38
377.845	-4.44
378.055	63.15
378.266	24.23
378.476	50.86
378.686	40.62
378.897	61.1
379.107	3.75
379.317	124.58
379.528	46.76
379.738	16.04
379.948	20.14
380.158	75.43
380.369	93.87
380.579	93.87
380.789	67.24
380.999	40.62
381.21	-16.73
381.42	67.24
381.63	28.33
381.84	48.81
382.05	95.91
382.261	9.9
382.471	71.34
382.681	89.77
382.891	128.68
383.101	-41.3
383.311	65.19
383.521	95.91
383.731	87.72
383.941	132.78
384.151	7.85
384.361	69.29
384.571	28.33
384.781	79.53
384.991	57
385.201	145.06
385.411	20.14
385.621	81.58
385.831	69.29
386.041	71.34
386.251	54.95
386.461	54.95
386.671	18.09
386.881	52.91
387.091	3.75
387.301	73.39
387.511	118.44
387.72	85.67
387.93	-6.49
388.14	102.06
388.35	63.15
388.56	122.54
388.769	89.77
388.979	61.1
389.189	79.53
389.399	61.1
389.609	52.91
389.818	28.33
390.028	44.71
390.238	91.82
390.447	77.48
390.657	59.05
390.867	22.19
391.076	122.54
391.286	-2.39
391.496	108.2
391.705	3.75
391.915	36.52
392.125	85.67
392.334	5.8
392.544	30.38
392.753	81.58
392.963	95.91
393.172	89.77
393.382	104.11
393.591	69.29
393.801	48.81
394.01	100.01
394.22	65.19
394.429	61.1
394.639	57
394.848	110.25
395.058	81.58
395.267	16.04
395.477	95.91
395.686	124.58
395.895	89.77
396.105	65.19
396.314	79.53
396.524	36.52
396.733	71.34
396.942	100.01
397.152	77.48
397.361	132.78
397.57	134.82
397.78	79.53
397.989	110.25
398.198	163.5
398.407	73.39
398.617	138.92
398.826	89.77
399.035	124.58
399.244	145.06
399.453	114.34
399.663	134.82
399.872	81.58
400.081	71.34
400.29	130.73
400.499	134.82
400.708	169.64
400.917	102.06
401.127	57
401.336	75.43
401.545	177.83
401.754	163.5
401.963	61.1
402.172	118.44
402.381	38.57
402.59	89.77
402.799	155.3
403.008	104.11
403.217	122.54
403.426	85.67
403.635	110.25
403.844	102.06
404.053	151.21
404.262	165.54
404.471	112.3
404.68	118.44
404.888	147.11
405.097	81.58
405.306	155.3
405.515	138.92
405.724	161.45
405.933	241.32
406.142	200.36
406.35	177.83
406.559	212.65
406.768	243.37
406.977	198.31
407.185	151.21
407.394	265.89
407.603	177.83
407.812	153.26
408.02	253.61
408.229	196.26
408.438	259.75
408.646	239.27
408.855	226.98
409.064	288.42
409.272	259.75
409.481	255.65
409.69	243.37
409.898	220.84
410.107	349.86
410.315	315.05
410.524	358.05
410.733	380.58
410.941	292.52
411.15	392.87
411.358	351.91
411.567	362.15
411.775	433.83
411.984	439.97
412.192	421.54
412.401	482.98
412.609	487.08
412.818	579.23
413.026	511.65
413.234	480.93
413.443	427.68
413.651	568.99
413.86	593.57
414.068	530.08
414.276	681.63
414.485	675.49
414.693	638.62
414.901	724.64
415.11	708.26
415.318	698.02
415.526	702.11
415.734	749.22
415.943	728.74
416.151	831.13
416.359	738.98
416.567	806.56
416.776	851.61
416.984	966.3
417.192	849.57
417.4	935.58
417.608	982.68
417.817	1072.79
418.025	1029.79
418.233	1093.27
418.441	1109.66
418.649	1144.47
418.857	1242.78
419.065	1334.93
419.273	1283.74
419.481	1408.66
419.689	1367.7
419.897	1488.53
420.105	1521.3
420.313	1568.4
420.521	1511.06
420.729	1519.25
420.937	1646.23
421.145	1658.51
421.353	1793.68
421.561	1826.45
421.769	1941.13
421.977	1980.04
422.185	1982.09
422.393	2068.11
422.601	2199.18
422.809	2252.42
423.017	2291.34
423.224	2363.01
423.432	2471.56
423.64	2463.37
423.848	2530.95
424.056	2541.19
424.263	2743.94
424.471	2860.67
424.679	2862.72
424.887	2907.77
425.094	3159.67
425.302	3108.48
425.51	3184.25
425.718	3280.5
425.925	3387
426.133	3505.78
426.341	3747.44
426.548	3720.82
426.756	3858.03
426.964	3896.94
427.171	4124.27
427.379	4273.77
427.586	4290.15
427.794	4472.42
428.001	4628.07
428.209	4832.86
428.417	4787.81
428.624	5111.39
428.832	5058.14
429.039	5000.8
429.247	5121.63
429.454	5494.36
429.662	6016.59
429.869	5334.62
430.076	6006.35
430.284	5848.66
430.491	6010.45
430.699	6420.04
430.906	6450.76
431.114	6284.87
431.321	6579.78
431.528	6934.08
431.736	7261.76
431.943	7493.18
432.15	7433.79
432.358	7540.28
432.565	7697.97
432.772	7919.15
432.979	8158.77
433.187	8463.91
433.394	8631.85
433.601	9059.87
433.808	8812.07
434.016	9002.53
434.223	9180.7
434.43	10003.99
434.637	9518.62
434.844	10257.93
435.052	10575.37
435.259	10298.89
435.466	10532.36
435.673	10264.08
435.88	11056.64
436.087	11675.13
436.294	11517.43
436.501	11380.22
436.708	11548.15
436.915	11961.84
437.122	12785.13
437.329	12635.63
437.537	13114.85
437.743	13051.36
437.95	13057.51
438.157	13653.47
438.364	14183.89
438.571	14144.98
438.778	14202.32
438.985	15482.3
439.192	14984.65
439.399	15422.91
439.606	15203.78
439.813	15736.25
440.02	16698.8
440.227	16477.62
440.433	16514.48
440.64	16870.83
440.847	16776.62
441.054	17436.06
441.261	18374.03
441.467	18138.52
441.674	18423.19
441.881	19307.91
442.088	19404.16
442.294	19000.71
442.501	19674.49
442.708	19869.05
442.914	20782.45
443.121	21884.25
443.328	21056.87
443.534	22609.23
443.741	21769.57
443.948	21753.18
444.154	22928.72
444.361	22955.34
444.568	23135.56
444.774	23147.85
444.981	23510.34
445.187	23962.94
445.394	25118
445.6	24816.94
445.807	27065.61
446.013	25662.76
446.22	26680.6
446.426	27274.51
446.633	27569.41
446.839	28667.13
447.046	27569.41
447.252	29113.58
447.459	29041.9
447.665	28962.03
447.871	29998.3
448.078	31493.32
448.284	29740.26
448.491	30866.64
448.697	32062.66
448.903	32677.05
449.11	32429.24
449.316	31935.68
449.522	32304.32
449.728	33268.91
449.935	33555.63
450.141	33545.39
450.347	34354.33
450.553	33557.67
450.76	33637.55
450.966	34950.29
451.172	34477.21
451.378	35404.94
451.584	34591.9
451.791	35325.07
451.997	35392.65
452.203	35851.4
452.409	35974.28
452.615	35816.58
452.821	34280.61
453.027	34315.42
453.233	36107.4
453.44	34604.19
453.646	35011.73
453.852	34882.71
454.058	35697.8
454.264	34538.65
454.47	35116.18
454.676	34174.11
454.882	35927.17
455.088	32490.68
455.294	32812.21
455.5	33045.68
455.705	33746.09
455.911	32107.71
456.117	31675.59
456.323	31339.72
456.529	29498.6
456.735	31026.39
456.941	30067.94
457.147	29443.31
457.352	28824.82
457.558	28474.62
457.764	28368.12
457.97	27567.37
458.176	27319.56
458.381	27387.14
458.587	25998.62
458.793	26158.36
458.999	24671.54
459.204	26258.71
459.41	25539.88
459.616	23893.31
459.821	24132.92
460.027	23811.39
460.233	23561.54
460.438	22218.07
460.644	22633.81
460.85	21720.42
461.055	21237.09
461.261	21286.25
461.466	19344.77
461.672	18926.99
461.878	20270.45
462.083	18851.21
462.289	18668.94
462.494	18253.2
462.7	17565.09
462.905	17325.47
463.111	17599.9
463.316	17816.99
463.522	17266.08
463.727	17456.54
463.932	17411.49
464.138	17059.24
464.343	17575.33
464.549	16960.94
464.754	17294.75
464.959	17194.4
465.165	17083.81
465.37	16424.37
465.575	16233.91
465.781	16405.94
465.986	16731.56
466.191	16170.42
466.397	15607.23
466.602	15037.89
466.807	15322.56
467.012	15463.87
467.218	15596.99
467.423	15195.59
467.628	15500.73
467.833	16176.56
468.038	15269.31
468.244	15085
468.449	15564.22
468.654	14962.12
468.859	14921.16
469.064	14847.43
469.269	14312.91
469.474	14362.06
469.679	14693.83
469.885	14265.81
470.09	14435.79
470.295	14495.18
470.5	13848.02
470.705	14114.26
470.91	13768.15
471.115	13962.71
471.32	13942.23
471.525	13604.32
471.73	13319.65
471.935	13512.16
472.139	12991.97
472.344	13063.65
472.549	12991.97
472.754	12926.44
472.959	12865
473.164	12215.79
473.369	12074.48
473.574	12494.32
473.778	12191.22
473.983	12213.74
474.188	12242.42
474.393	11656.7
474.598	11724.28
474.802	11707.9
475.007	11474.43
475.212	11787.77
475.417	11105.79
475.621	11099.65
475.826	11408.89
476.031	10855.94
476.235	10845.7
476.44	11111.94
476.645	10700.3
476.849	11046.4
477.054	10589.71
477.259	10262.03
477.463	10452.49
477.668	10165.78
477.872	10341.9
478.077	9960.98
478.282	10042.9
478.486	9936.4
478.691	9670.17
478.895	9768.47
479.1	9600.54
479.304	9737.75
479.509	9399.84
479.713	9520.67
479.918	9342.49
480.122	9354.78
480.326	9289.24
480.531	9403.93
480.735	9098.78
480.94	9211.42
481.144	9496.09
481.348	8996.39
481.553	8900.13
481.757	8969.76
481.961	9090.59
482.166	9276.96
482.37	9039.39
482.574	8912.42
482.778	8934.95
482.983	9119.26
483.187	8943.14
483.391	9279.01
483.595	8789.54
483.8	8570.41
484.004	8969.76
484.208	9070.11
484.412	8828.45
484.616	9043.49
484.821	8977.95
485.025	8910.37
485.229	8975.91
485.433	8883.75
485.637	8986.15
485.841	8861.22
486.045	8848.93
486.249	8863.27
486.453	8830.5
486.657	8943.14
486.861	8943.14
487.065	8599.08
487.269	8865.32
487.473	8732.2
487.677	9010.72
487.881	8945.19
488.085	9004.58
488.289	8850.98
488.493	8977.95
488.697	8982.05
488.901	9082.4
489.105	9063.97
489.309	9053.73
489.512	8951.33
489.716	9045.54
489.92	9084.45
490.124	9125.41
490.328	9209.37
490.531	8975.91
490.735	9123.36
490.939	9342.49
491.143	9135.65
491.346	9270.81
491.55	9342.49
491.754	9307.68
491.958	9414.17
492.161	9502.23
492.365	9580.06
492.569	9416.22
492.772	9362.97
492.976	9569.82
493.18	9530.91
493.383	9553.43
493.587	9899.54
493.79	9903.64
493.994	9731.61
494.197	10018.32
494.401	9907.73
494.605	9860.63
494.808	10012.18
495.012	10012.18
495.215	10169.87
495.419	10227.21
495.622	10180.11
495.825	10305.04
496.029	10432.01
496.232	10599.94
496.436	10393.1
496.639	10694.15
496.843	10663.43
497.046	10677.77
497.249	11189.76
497.453	11169.28
497.656	11116.03
497.859	11079.17
498.063	11367.93
498.266	11605.5
498.469	11535.87
498.673	11646.46
498.876	11783.67
499.079	11941.36
499.282	11884.02
499.485	12393.97
499.689	12094.96
499.892	12357.1
500.095	12477.93
500.298	13041.12
500.501	12609
500.705	13077.99
500.908	12918.25
501.111	13200.87
501.314	13100.51
501.517	13260.26
501.72	13579.74
501.923	13274.59
502.126	13938.13
502.329	14112.21
502.532	14276.05
502.735	14292.43
502.938	14591.44
503.141	14474.7
503.344	14863.82
503.547	15041.99
503.75	15177.16
503.953	15113.67
504.156	15410.62
504.359	15539.65
504.562	15470.01
504.765	16092.6
504.968	16141.75
505.17	16395.7
505.373	16178.61
505.576	16557.49
505.779	17049
505.982	16704.94
506.185	17235.36
506.387	17163.68
506.59	17341.86
506.793	17548.7
506.996	17673.63
507.198	18351.51
507.401	17747.36
507.604	18171.29
507.807	18376.08
508.009	18611.6
508.212	18552.21
508.415	18492.82
508.617	19260.8
508.82	19232.13
509.022	19305.86
509.225	19799.42
509.428	19701.12
509.63	20059.51
509.833	20034.94
510.035	20202.87
510.238	20335.99
510.44	20843.88
510.643	21103.98
510.845	21267.81
511.048	21144.94
511.25	21439.84
511.453	21581.15
511.655	22185.3
511.858	21988.7
512.06	21933.4
512.262	22496.6
512.465	22361.43
512.667	22775.12
512.87	22836.56
513.072	22850.89
513.274	23135.56
513.477	23530.82
513.679	23852.35
513.881	23831.87
514.084	24204.6
514.286	23944.51
514.488	24309.05
514.69	25142.57
514.893	24956.21
515.095	25152.81
515.297	25554.21
515.499	25421.09
515.701	25908.51
515.904	26187.04
516.106	26338.58
516.308	26623.25
516.51	26653.97
516.712	26635.54
516.914	26918.16
517.116	27002.13
517.318	27278.6
517.52	27553.03
517.722	27684.1
517.925	28167.42
518.127	28632.31
518.329	28640.5
518.531	28251.39
518.733	29193.45
518.935	29154.54
519.136	29164.78
519.338	29402.35
519.54	29779.17
519.742	29738.21
519.944	29879.52
520.146	30315.74
520.348	30481.63
520.55	30493.91
520.752	30596.31
520.954	31411.4
521.155	30956.75
521.357	31239.37
521.559	31493.32
521.761	32312.51
521.963	32056.51
522.164	32376
522.366	32752.82
522.568	32376
522.77	32537.79
522.971	32898.23
523.173	32980.15
523.375	33164.46
523.576	33307.82
523.778	32976.05
523.98	33318.06
524.181	33617.07
524.383	33608.87
524.584	34110.63
524.786	33991.84
524.988	34051.24
525.189	34561.18
525.391	34653.34
525.592	34698.39
525.794	34542.75
525.995	34976.92
526.197	34901.14
526.398	34776.22
526.6	35214.48
526.801	35452.05
527.003	35538.06
527.204	35638.41
527.406	35736.71
527.607	35587.21
527.808	36115.59
528.01	35390.61
528.211	36021.38
528.412	36971.64
528.614	36086.92
528.815	36408.45
529.016	36820.09
529.218	36299.9
529.419	36672.64
529.62	36588.67
529.822	36392.06
530.023	36355.2
530.224	36641.92
530.425	36826.23
530.626	36299.9
530.828	36631.68
531.029	37545.07
531.23	36811.9
531.431	36621.44
531.632	36854.9
531.833	37381.23
532.035	37088.37
532.236	37170.29
532.437	37352.56
532.638	37102.71
532.839	37452.91
533.04	37330.03
533.241	36514.94
533.442	38159.46
533.643	37399.66
533.844	37102.71
534.045	37561.45
534.246	37057.65
534.447	37565.55
534.648	37061.75
534.849	37235.83
535.05	37616.75
535.251	37440.62
535.451	37219.44
535.652	37657.71
535.853	37403.76
536.054	37809.26
536.255	37246.07
536.456	36799.61
536.657	37893.22
536.857	37575.79
537.058	37438.58
537.259	37358.7
537.46	37602.41
537.66	37454.96
537.861	37065.85
538.062	37315.7
538.263	37530.73
538.463	37221.49
538.664	37276.79
538.865	37600.36
539.065	37282.93
539.266	37031.03
539.466	37803.11
539.667	37061.75
539.868	37626.99
540.068	37364.85
540.269	37260.4
540.469	37143.67
540.67	37313.65
540.87	37192.82
541.071	37188.72
541.271	37383.28
541.472	37375.09
541.672	37043.32
541.873	37127.28
542.073	36801.66
542.274	37676.14
542.474	37002.36
542.675	36799.61
542.875	37571.69
543.075	37198.96
543.276	36725.88
543.476	37440.62
543.676	36844.66
543.877	37041.27
544.077	37041.27
544.277	37174.39
544.478	37080.18
544.678	37069.94
544.878	37119.09
545.078	36723.83
545.279	36703.35
545.479	36897.91
545.679	36922.49
545.879	37254.26
546.079	36916.34
546.28	36897.91
546.48	36850.81
546.68	36902.01
546.88	37217.39
547.08	37071.99
547.28	36416.64
547.48	36459.65
547.68	36793.47
547.88	36705.4
548.081	36930.68
548.281	36766.84
548.481	36486.27
548.681	37194.87
548.881	36678.78
549.081	36701.31
549.28	36570.24
549.48	37026.93
549.68	36672.64
549.88	36965.49
550.08	36435.07
550.28	36643.96
550.48	36627.58
550.68	36770.94
550.88	36684.92
551.08	36529.28
551.279	36215.94
551.479	36060.29
551.679	36428.93
551.879	36430.97
552.079	36785.27
552.278	36242.56
552.478	36553.85
552.678	36584.57
552.878	36512.89
553.077	36234.37
553.277	36076.68
553.477	36768.89
553.676	36490.37
553.876	35869.83
554.076	35787.91
554.275	35949.7
554.475	35751.05
554.674	36367.49
554.874	36234.37
555.074	36007.05
555.273	36062.34
555.473	36504.7
555.672	36328.58
555.872	36250.75
556.071	36232.32
556.271	36445.31
556.47	36109.44
556.67	35812.49
556.869	36146.31
557.068	35959.94
557.268	35411.09
557.467	35685.51
557.667	35804.3
557.866	35884.17
558.065	35705.99
558.265	35357.84
558.464	35464.33
558.663	35767.43
558.863	35153.04
559.062	35882.12
559.261	35450
559.461	35636.36
559.66	34999.44
559.859	35253.39
560.058	35179.67
560.258	35021.97
560.457	34895
560.656	35292.3
560.855	35204.24
561.054	35028.12
561.253	34391.2
561.453	34604.19
561.652	34866.33
561.851	35021.97
562.05	34817.18
562.249	34473.12
562.448	34983.06
562.647	34927.77
562.846	34612.38
563.045	34661.53
563.244	34385.05
563.443	34509.98
563.642	34000.04
563.841	34434.21
564.04	34479.26
564.239	34618.52
564.438	34094.24
564.637	34135.2
564.836	34342.05
565.035	33553.58
565.234	34249.89
565.432	33989.8
565.631	34065.57
565.83	34329.76
566.029	33866.92
566.228	33569.96
566.427	33459.37
566.625	33627.31
566.824	33103.03
567.023	34036.9
567.222	33199.28
567.42	33608.87
567.619	33576.11
567.818	33367.21
568.016	33313.97
568.215	33574.06
568.414	33248.43
568.612	33309.87
568.811	33172.66
569.01	33244.34
569.208	32603.32
569.407	33012.91
569.605	32666.81
569.804	32984.24
570.002	32656.57
570.201	33037.49
570.4	32382.14
570.598	32384.19
570.797	32603.32
570.995	32431.29
571.193	32074.95
571.392	32400.57
571.59	31980.74
571.789	32003.27
571.987	32107.71
572.186	31956.16
572.384	32109.76
572.582	31794.37
572.781	31718.6
572.979	31567.05
573.177	31704.26
573.376	31782.09
573.574	31390.92
573.772	31683.78
573.971	31358.16
574.169	31212.75
574.367	31087.82
574.565	31315.15
574.763	31114.45
574.962	31173.84
575.16	30602.46
575.358	30815.44
575.556	30985.43
575.754	31204.56
575.952	30633.18
576.151	31200.46
576.349	30678.23
576.547	30340.32
576.745	30866.64
576.943	30530.78
577.141	30616.79
577.339	30715.09
577.537	30387.42
577.735	30317.79
577.933	30053.6
578.131	30123.23
578.329	30205.15
578.527	29662.44
578.725	29932.77
578.923	29906.15
579.121	29598.95
579.319	29549.8
579.516	29869.28
579.714	29701.35
579.912	29199.6
580.11	29465.83
580.308	29566.18
580.506	29291.76
580.704	28697.84
580.901	29078.77
581.099	29388.01
581.297	28794.1
581.495	29213.93
581.692	29035.76
581.89	28777.72
582.088	29349.1
582.285	28695.8
582.483	28763.38
582.681	28751.09
582.878	28548.34
583.076	28638.45
583.274	28861.68
583.471	28122.37
583.669	28245.24
583.866	28095.74
584.064	28583.16
584.262	27852.03
584.459	28292.35
584.657	27741.44
584.854	28359.93
585.052	27270.41
585.249	27882.75
585.447	27663.62
585.644	27593.99
585.841	27626.76
586.039	27792.64
586.236	26987.79
586.434	27239.69
586.631	27120.91
586.828	27323.66
587.026	27182.35
587.223	27084.05
587.42	26936.59
587.618	26916.11
587.815	26660.12
588.012	26508.57
588.21	26574.1
588.407	27002.13
588.604	26400.02
588.801	26385.69
588.999	26813.71
589.196	26559.77
589.393	26539.29
589.59	26109.21
589.787	26107.16
589.984	26187.04
590.182	25791.78
590.379	26094.88
590.576	25912.61
590.773	26098.97
590.97	25470.25
591.167	25941.28
591.364	25441.57
591.561	25447.72
591.758	25230.63
591.955	25226.54
592.152	25472.29
592.349	24804.66
592.546	25140.52
592.743	24952.11
592.94	24673.59
593.137	24761.65
593.334	24991.02
593.531	24683.83
593.727	25087.28
593.924	24634.67
594.121	24968.49
594.318	24663.35
594.515	24304.95
594.712	25025.84
594.908	24401.21
595.105	24501.56
595.302	24235.32
595.499	23897.41
595.696	24075.58
595.892	23723.33
596.089	24024.38
596.286	24038.72
596.482	23948.61
596.679	23635.27
596.876	23936.32
597.072	23713.09
597.269	23625.03
597.466	23629.12
597.662	23311.69
597.859	23618.88
598.055	23590.21
598.252	23205.19
598.448	23348.55
598.645	23197
598.841	22857.04
599.038	22916.43
599.234	23104.84
599.431	22687.06
599.627	22426.96
599.824	22893.9
600.02	22816.08
600.217	22740.3
600.413	22619.47
600.609	22297.94
600.806	22400.34
601.002	22287.7
601.198	21994.84
601.395	22142.3
601.591	22078.81
601.787	22130.01
601.984	21935.45
602.18	22150.49
602.376	21646.69
602.572	21755.23
602.769	21734.75
602.965	21499.23
603.161	21562.72
603.357	21714.27
603.553	21341.54
603.75	21542.24
603.946	21321.06
604.142	21581.15
604.338	20915.56
604.534	21181.8
604.73	20890.99
604.926	21093.74
605.122	21118.31
605.318	20798.83
605.514	20764.01
605.71	20929.9
605.906	20837.74
606.102	20594.03
606.298	20991.34
606.494	20624.75
606.69	20467.06
606.886	20807.02
607.082	20424.05
607.278	20243.83
607.474	20030.84
607.67	20102.52
607.866	19991.93
608.062	20514.16
608.257	20415.86
608.453	20188.53
608.649	20063.61
608.845	19975.55
609.041	19852.67
609.236	19930.49
609.432	19996.03
609.628	19979.64
609.824	20020.6
610.019	19725.69
610.215	19811.71
610.411	19764.61
610.606	19611.01
610.802	19633.54
610.998	19654.01
611.193	19590.53
611.389	19512.7
611.584	19537.28
611.78	19400.07
611.976	19615.1
612.171	19570.05
612.367	19422.59
612.562	19144.07
612.758	18779.53
612.953	18967.95
613.149	19373.44
613.344	19066.25
613.539	19385.73
613.735	19207.56
613.93	19176.84
614.126	19037.58
614.321	19352.96
614.517	19000.71
614.712	19109.26
614.907	18752.91
615.103	19023.24
615.298	18822.54
615.493	19197.32
615.688	18619.79
615.884	19105.16
616.079	18460.05
616.274	18726.28
616.47	18724.24
616.665	18627.98
616.86	18597.26
617.055	18492.82
617.25	18414.99
617.445	18656.65
617.641	18443.67
617.836	18245.01
618.031	18107.8
618.226	18636.17
618.421	18165.14
618.616	18263.44
618.811	17632.67
619.006	18285.97
619.201	17814.94
619.396	17788.32
619.591	17749.4
619.786	17802.65
619.981	17550.75
620.176	17900.95
620.371	17233.32
620.566	17444.26
620.761	17567.13
620.956	17335.71
621.151	17245.6
621.346	17130.92
621.541	16883.11
621.735	17169.83
621.93	16874.92
622.125	16766.38
622.32	16457.14
622.515	16891.3
622.709	16565.68
622.904	16469.42
623.099	16530.86
623.294	16397.74
623.488	16076.21
623.683	16487.86
623.878	16145.84
624.072	16219.57
624.267	15994.29
624.462	16094.65
624.656	15850.94
624.851	16076.21
625.046	15537.6
625.24	15537.6
625.435	15455.68
625.629	15533.5
625.824	15336.9
626.018	15492.54
626.213	14904.78
626.407	15230.4
626.602	14874.06
626.796	14962.12
626.991	14923.21
627.185	14728.65
627.38	14763.47
627.574	14577.1
627.768	14388.69
627.963	14468.56
628.157	14306.77
628.352	14507.47
628.546	14206.42
628.74	14136.79
628.935	14038.48
629.129	14046.68
629.323	13741.53
629.517	13821.4
629.712	13694.43
629.906	13602.27
630.1	13293.02
630.294	13393.37
630.489	13481.44
630.683	13510.11
630.877	13098.47
631.071	13233.63
631.265	13409.76
631.459	13110.75
631.653	13045.22
631.848	13008.36
632.042	12768.74
632.236	13016.55
632.43	12793.32
632.624	12828.13
632.818	12658.15
633.012	12471.79
633.206	12541.42
633.4	12510.7
633.594	12293.62
633.788	12355.05
633.982	12432.88
634.176	12250.61
634.369	12293.62
634.563	12162.55
634.757	12142.07
634.951	12054
635.145	11992.56
635.339	11947.51
635.533	11755
635.726	11838.97
635.92	11470.33
636.114	11718.14
636.308	11474.43
636.501	11752.95
636.695	11595.26
636.889	11429.37
637.083	11224.58
637.276	11363.84
637.47	11290.11
637.664	11191.81
637.857	11156.99
638.051	11005.44
638.244	11081.22
638.438	10874.37
638.632	10968.58
638.825	10681.86
639.019	10767.88
639.212	10620.42
639.406	10804.74
639.599	10659.34
639.793	10771.97
639.986	10292.75
640.18	10530.31
640.373	10509.83
640.567	10133.01
640.76	10346
640.954	10155.54
641.147	10100.24
641.34	9997.84
641.534	9922.07
641.727	10212.88
641.92	9913.88
642.114	9928.21
642.307	9797.14
642.5	9885.2
642.694	9559.58
642.887	9719.32
643.08	9770.52
643.273	9682.45
643.467	9629.21
643.66	9639.45
643.853	9297.44
644.046	9416.22
644.239	9330.2
644.432	9346.59
644.626	9100.83
644.819	9231.9
645.012	9297.44
645.205	9338.4
645.398	9149.98
645.591	9057.82
645.784	9000.48
645.977	8812.07
646.17	8957.47
646.363	8855.08
646.556	8805.92
646.749	8832.55
646.942	8869.41
647.135	8685.09
647.328	8750.63
647.521	8705.57
647.714	8508.97
647.907	8476.2
648.099	8576.55
648.292	8486.44
648.485	8517.16
648.678	8422.95
648.871	8453.67
649.064	8386.09
649.256	8328.75
649.449	8281.64
649.642	7935.54
649.835	8019.5
650.027	8009.26
650.22	7939.63
650.413	7990.83
650.605	8091.18
650.798	8009.26
650.991	7800.37
651.183	7859.76
651.376	7773.75
651.568	7591.48
651.761	7700.02
651.954	7706.17
652.146	7509.56
652.339	7681.59
652.531	7704.12
652.724	7468.6
652.916	7388.73
653.109	7415.35
653.301	7372.35
653.494	7298.62
653.686	7237.18
653.879	7140.93
654.071	7208.51
654.263	7155.26
654.456	7222.84
654.648	7142.97
654.84	7040.58
655.033	6917.7
655.225	6907.46
655.417	6876.74
655.61	7192.12
655.802	6966.85
655.994	6725.19
656.186	6968.9
656.379	6866.5
656.571	6886.98
656.763	6815.3
656.955	6792.77
657.148	6616.65
657.34	6616.65
657.532	6510.15
657.724	6590.02
657.916	6645.32
658.108	6510.15
658.3	6448.71
658.492	6442.57
658.684	6526.54
658.876	6377.03
659.068	6209.1
659.26	6389.32
659.452	6415.94
659.644	6403.66
659.836	6225.48
660.028	6229.58
660.22	6006.35
660.412	6100.56
660.604	5875.28
660.796	6059.6
660.988	6063.69
661.18	6053.45
661.372	5764.69
661.563	5914.19
661.755	5779.03
661.947	5969.49
662.139	5803.6
662.331	5703.25
662.522	5633.62
662.714	5746.26
662.906	5510.74
663.097	5656.15
663.289	5572.18
663.481	5539.41
663.673	5568.09
663.864	5514.84
664.056	5441.11
664.247	5508.69
664.439	5316.19
664.631	5291.61
664.822	5365.34
665.014	5488.21
665.205	5484.12
665.397	5383.77
665.588	5287.51
665.78	5242.46
665.971	5242.46
666.163	5332.57
666.354	5185.12
666.546	5176.92
666.737	5076.57
666.929	5160.54
667.12	5150.3
667.311	5168.73
667.503	4945.5
667.694	4933.22
667.885	5084.77
668.077	5082.72
668.268	4902.5
668.459	4978.27
668.651	5013.09
668.842	4888.16
669.033	4933.22
669.224	4818.53
669.416	4884.06
669.607	4830.82
669.798	4791.91
669.989	4728.42
670.18	4722.27
670.371	4724.32
670.563	4593.25
670.754	4712.03
670.945	4572.77
671.136	4791.91
671.327	4634.21
671.518	4589.16
671.709	4556.39
671.9	4599.4
672.091	4669.03
672.282	4597.35
672.473	4460.13
672.664	4462.18
672.855	4394.6
673.046	4521.57
673.237	4544.1
673.428	4484.71
673.619	4433.51
673.809	4464.23
674	4456.04
674.191	4421.22
674.382	4236.91
674.573	4298.35
674.764	4363.88
674.954	4384.36
675.145	4259.43
675.336	4255.34
675.527	4339.3
675.717	4329.06
675.908	4130.41
676.099	4134.51
676.289	4169.32
676.48	4247.15
676.671	4095.6
676.861	4120.17
677.052	4120.17
677.243	4087.4
677.433	4097.64
677.624	4251.24
677.814	4138.6
678.005	3978.86
678.195	4169.32
678.386	3919.47
678.576	4099.69
678.767	4040.3
678.957	3999.34
679.148	4011.63
679.338	3995.25
679.529	3939.95
679.719	3958.38
679.909	4048.49
680.1	3868.27
680.29	3989.1
680.481	3843.7
680.671	3901.04
680.861	3939.95
681.052	4021.87
681.242	3821.17
681.432	3767.92
681.622	3888.75
681.813	3812.98
682.003	3800.69
682.193	3731.06
682.383	3950.19
682.573	3913.33
682.764	3802.74
682.954	3937.9
683.144	3673.71
683.334	3882.61
683.524	3706.48
683.714	3694.19
683.904	3694.19
684.094	3718.77
684.284	3675.76
684.474	3677.81
684.664	3763.83
684.854	3681.91
685.044	3772.02
685.234	3767.92
685.424	3591.8
685.614	3589.75
685.804	3563.12
685.994	3643
686.184	3655.28
686.374	3552.88
686.564	3575.41
686.753	3554.93
686.943	3534.45
687.133	3530.36
687.323	3520.12
687.513	3389.05
687.702	3612.28
687.892	3481.21
688.082	3479.16
688.272	3530.36
688.461	3169.91
688.651	3370.62
688.841	3284.6
689.03	3335.8
689.22	3391.09
689.41	3286.65
689.599	3372.66
689.789	3339.9
689.979	3219.07
690.168	3223.16
690.358	3200.63
690.547	3202.68
690.737	3221.11
690.926	3153.53
691.116	3106.43
691.305	3096.19
691.495	2987.65
691.684	2993.79
691.874	3223.16
692.063	3042.94
692.252	3022.46
692.442	3032.7
692.631	2975.36
692.82	3018.36
693.01	2934.4
693.199	2924.16
693.388	2985.6
693.578	2920.06
693.767	2870.91
693.956	2920.06
694.146	2899.58
694.335	2879.1
694.524	2813.57
694.713	2809.47
694.902	2745.98
695.092	2782.85
695.281	2809.47
695.47	2678.4
695.659	2858.62
695.848	2664.07
696.037	2729.6
696.226	2741.89
696.415	2649.73
696.604	2698.88
696.793	2668.16
696.982	2674.31
697.171	2571.91
697.36	2696.83
697.549	2686.59
697.738	2582.15
697.927	2565.76
698.116	2616.96
698.305	2526.85
698.494	2686.59
698.683	2502.28
698.872	2522.76
699.061	2569.86
699.25	2471.56
699.438	2537.09
699.627	2533
699.816	2432.65
700.005	2457.22
700.193	2612.87
700.382	2446.98
700.571	2473.6
700.76	2342.53
700.948	2459.27
701.137	2375.3
701.326	2354.82
701.514	2506.37
701.703	2467.46
701.892	2311.82
702.08	2459.27
702.269	2358.92
702.457	2291.34
702.646	2363.01
702.834	2371.21
703.023	2459.27
703.212	2408.07
703.4	2309.77
703.589	2309.77
703.777	2303.62
703.965	2190.99
704.154	2469.51
704.342	2277
704.531	2281.1
704.719	2285.19
704.907	2397.83
705.096	2246.28
705.284	2455.17
705.472	2297.48
705.661	2264.71
705.849	2274.95
706.037	2381.45
706.226	2311.82
706.414	2334.34
706.602	2317.96
706.79	2342.53
706.979	2389.64
707.167	2135.69
707.355	2197.13
707.543	2309.77
707.731	2373.25
707.919	2350.73
708.107	2215.56
708.296	2358.92
708.484	2342.53
708.672	2174.6
708.86	2150.03
709.048	2328.2
709.236	2258.57
709.424	2307.72
709.612	2346.63
709.8	2326.15
709.988	2279.05
710.176	2262.66
710.364	2147.98
710.551	2254.47
710.739	2279.05
710.927	2311.82
711.115	2266.76
711.303	2133.64
711.491	2274.95
711.679	2266.76
711.866	2338.44
712.054	2301.58
712.242	2326.15
712.43	2412.17
712.617	2242.18
712.805	2242.18
712.993	2233.99
713.181	2258.57
713.368	2236.04
713.556	2326.15
713.744	2281.1
713.931	2252.42
714.119	2207.37
714.306	2406.02
714.494	2354.82
714.682	2197.13
714.869	2225.8
715.057	2311.82
715.244	2209.42
715.432	2274.95
715.619	2264.71
715.807	2219.66
715.994	2428.55
716.182	2274.95
716.369	2227.85
716.556	2277
716.744	2365.06
716.931	2432.65
717.119	2395.78
717.306	2283.14
717.493	2375.3
717.681	2240.14
717.868	2252.42
718.055	2283.14
718.242	2320.01
718.43	2414.21
718.617	2340.49
718.804	2258.57
718.991	2338.44
719.179	2340.49
719.366	2250.38
719.553	2352.77
719.74	2340.49
719.927	2365.06
720.114	2225.8
720.301	2483.84
720.488	2240.14
720.676	2236.04
720.863	2209.42
721.05	2403.97
721.237	2446.98
721.424	2371.21
721.611	2293.38
721.798	2311.82
721.985	2250.38
722.172	2260.62
722.358	2356.87
722.545	2424.45
722.732	2430.6
722.919	2481.8
723.106	2358.92
723.293	2383.49
723.48	2285.19
723.667	2324.1
723.853	2365.06
724.04	2305.67
724.227	2272.9
724.414	2371.21
724.6	2487.94
724.787	2530.95
724.974	2442.89
725.161	2430.6
725.347	2449.03
725.534	2340.49
725.72	2414.21
725.907	2367.11
726.094	2465.41
726.28	2313.86
726.467	2375.3
726.653	2313.86
726.84	2391.69
727.027	2514.56
727.213	2383.49
727.4	2406.02
727.586	2553.48
727.773	2528.9
727.959	2461.32
728.145	2485.89
728.332	2408.07
728.518	2430.6
728.705	2383.49
728.891	2371.21
729.077	2489.99
729.264	2506.37
729.45	2504.32
729.636	2422.41
729.823	2358.92
730.009	2336.39
730.195	2489.99
730.382	2592.39
730.568	2473.6
730.754	2510.47
730.94	2395.78
731.126	2555.52
731.313	2504.32
731.499	2457.22
731.685	2520.71
731.871	2455.17
732.057	2477.7
732.243	2375.3
732.429	2446.98
732.615	2520.71
732.801	2508.42
732.987	2485.89
733.173	2526.85
733.359	2539.14
733.545	2451.08
733.731	2416.26
733.917	2508.42
734.103	2512.52
734.289	2530.95
734.475	2455.17
734.661	2516.61
734.847	2543.24
735.033	2469.51
735.219	2436.74
735.404	2487.94
735.59	2473.6
735.776	2391.69
735.962	2418.31
736.148	2410.12
736.333	2528.9
736.519	2385.54
736.705	2403.97
736.89	2360.97
737.076	2446.98
737.262	2399.88
737.447	2377.35
737.633	2403.97
737.819	2365.06
738.004	2391.69
738.19	2506.37
738.375	2401.93
738.561	2410.12
738.747	2375.3
738.932	2440.84
739.118	2471.56
739.303	2416.26
739.489	2477.7
739.674	2338.44
739.859	2307.72
740.045	2358.92
740.23	2358.92
740.416	2424.45
740.601	2420.36
740.786	2254.47
740.972	2328.2
741.157	2332.3
741.342	2297.48
741.528	2190.99
741.713	2324.1
741.898	2326.15
742.084	2274.95
742.269	2317.96
742.454	2320.01
742.639	2311.82
742.824	2377.35
743.01	2391.69
743.195	2352.77
743.38	2283.14
743.565	2162.31
743.75	2268.81
743.935	2244.23
744.12	2350.73
744.305	2178.7
744.49	2221.7
744.675	2168.46
744.86	2244.23
745.045	2133.64
745.23	2178.7
745.415	2145.93
745.6	2172.55
745.785	2201.23
745.97	2199.18
746.155	2176.65
746.34	2178.7
746.525	2090.63
746.71	2109.07
746.895	2039.44
747.079	2074.25
747.264	2021
747.449	2201.23
747.634	2037.39
747.819	2064.01
748.003	2027.15
748.188	1982.09
748.373	1963.66
748.557	1963.66
748.742	2002.57
748.927	1939.09
749.111	2016.91
749.296	1894.03
749.481	1928.85
749.665	1932.94
749.85	1894.03
750.034	1947.28
750.219	1922.7
750.404	1724.05
750.588	1875.6
750.773	1859.21
750.957	1810.06
751.141	1736.34
751.326	1762.96
751.51	1846.93
751.695	1777.3
751.879	1771.15
752.064	1787.54
752.248	1767.06
752.432	1715.86
752.617	1799.82
752.801	1732.24
752.985	1744.53
753.17	1695.38
753.354	1635.99
753.538	1756.82
753.722	1660.56
753.907	1513.11
754.091	1642.13
754.275	1572.5
754.459	1562.26
754.643	1476.24
754.828	1678.99
755.012	1605.27
755.196	1535.64
755.38	1531.54
755.564	1541.78
755.748	1545.88
755.932	1429.14
756.116	1527.44
756.3	1461.91
756.484	1404.57
756.668	1486.48
756.852	1408.66
757.036	1388.18
757.22	1418.9
757.404	1420.95
757.588	1324.69
757.772	1408.66
757.956	1482.39
758.14	1496.72
758.323	1408.66
758.507	1357.46
758.691	1377.94
758.875	1431.19
759.059	1365.65
759.242	1271.45
759.426	1199.77
759.61	1367.7
759.794	1363.61
759.977	1271.45
760.161	1259.16
760.345	1302.17
760.528	1257.11
760.712	1269.4
760.895	1365.65
761.079	1291.93
761.263	1269.4
761.446	1302.17
761.63	1160.86
761.813	1267.35
761.997	1248.92
762.18	1212.06
762.364	1171.1
762.547	1212.06
762.731	1191.58
762.914	1240.73
763.098	1191.58
763.281	1111.71
763.464	1160.86
763.648	1169.05
763.831	1177.24
764.015	1095.32
764.198	1224.34
764.381	1212.06
764.564	1185.43
764.748	1058.46
764.931	1099.42
765.114	1138.33
765.297	1113.75
765.481	1040.03
765.664	1101.47
765.847	1052.31
766.03	1164.95
766.213	1130.14
766.397	1056.41
766.58	1031.83
766.763	1080.99
766.946	1062.55
767.129	1113.75
767.312	1066.65
767.495	1091.23
767.678	1076.89
767.861	1027.74
768.044	1115.8
768.227	1095.32
768.41	945.82
768.593	1042.07
768.776	1101.47
768.959	1021.6
769.142	1105.56
769.324	921.24
769.507	892.57
769.69	1044.12
769.873	917.15
770.056	978.59
770.239	1068.7
770.421	1062.55
770.604	974.49
770.787	884.38
770.97	949.92
771.152	857.76
771.335	972.44
771.518	868
771.7	958.11
771.883	1044.12
772.066	896.67
772.248	925.34
772.431	874.14
772.613	888.48
772.796	929.44
772.978	847.52
773.161	1031.83
773.343	886.43
773.526	841.37
773.708	857.76
773.891	802.46
774.073	816.8
774.256	855.71
774.438	937.63
774.621	827.04
774.803	868
774.985	931.48
775.168	861.85
775.35	863.9
775.532	818.85
775.715	759.46
775.897	786.08
776.079	802.46
776.261	855.71
776.444	818.85
776.626	833.18
776.808	761.5
776.99	849.57
777.173	784.03
777.355	761.5
777.537	781.98
777.719	884.38
777.901	720.54
778.083	761.5
778.265	657.06
778.447	714.4
778.629	786.08
778.811	675.49
778.993	720.54
779.175	706.21
779.357	657.06
779.539	681.63
779.721	663.2
779.903	695.97
780.085	601.76
780.267	657.06
780.449	718.5
780.631	554.66
780.812	794.27
780.994	638.62
781.176	626.34
781.358	595.62
781.54	591.52
781.721	595.62
781.903	581.28
782.085	626.34
782.267	577.19
782.448	528.03
782.63	575.14
782.812	568.99
782.993	640.67
783.175	554.66
783.357	568.99
783.538	562.85
783.72	548.51
783.901	495.27
784.083	566.95
784.264	573.09
784.446	532.13
784.627	515.75
784.809	550.56
784.99	538.27
785.172	525.99
785.353	528.03
785.535	528.03
785.716	581.28
785.897	491.17
786.079	464.55
786.26	525.99
786.441	485.03
786.623	474.79
786.804	509.6
786.985	466.6
787.167	530.08
787.348	489.12
787.529	464.55
787.71	544.42
787.891	392.87
788.073	401.06
788.254	485.03
788.435	472.74
788.616	450.21
788.797	429.73
788.978	401.06
789.159	437.92
789.34	487.08
789.522	345.77
789.703	396.96
789.884	482.98
790.065	446.12
790.246	487.08
790.427	378.53
790.607	421.54
790.788	474.79
790.969	399.01
791.15	421.54
791.331	345.77
791.512	376.48
791.693	392.87
791.874	372.39
792.054	327.33
792.235	458.4
792.416	405.16
792.597	413.35
792.778	390.82
792.958	407.2
793.139	372.39
793.32	386.72
793.5	409.25
793.681	337.57
793.862	446.12
794.042	333.48
794.223	310.95
794.404	378.53
794.584	384.68
794.765	362.15
794.945	339.62
795.126	308.9
795.306	310.95
795.487	349.86
795.667	276.13
795.848	310.95
796.028	261.8
796.209	341.67
796.389	310.95
796.57	294.57
796.75	274.09
796.93	343.72
797.111	290.47
797.291	370.34
797.471	325.29
797.652	247.46
797.832	288.42
798.012	286.37
798.192	366.25
798.373	263.85
798.553	296.61
798.733	286.37
798.913	253.61
799.093	255.65
799.274	286.37
799.454	243.37
799.634	222.89
799.814	315.05
799.994	335.53
800.174	298.66
800.354	261.8
800.534	335.53
800.714	218.79
800.894	204.46
801.074	208.55
801.254	329.38
801.434	269.99
801.614	296.61
801.794	231.08
801.974	568.99
802.154	294.57
802.334	233.13
802.514	286.37
802.693	364.2
802.873	226.98
803.053	294.57
803.233	282.28
803.413	257.7
803.592	177.83
803.772	243.37
803.952	241.32
804.131	224.94
804.311	224.94
804.491	241.32
804.67	218.79
804.85	302.76
805.03	233.13
805.209	245.41
805.389	243.37
805.568	198.31
805.748	136.87
805.928	216.74
806.107	276.13
806.287	263.85
806.466	233.13
806.646	222.89
806.825	247.46
807.004	145.06
807.184	259.75
807.363	229.03
807.543	237.22
807.722	237.22
807.901	222.89
808.081	206.5
808.26	145.06
808.439	183.98
808.619	214.7
808.798	163.5
808.977	192.17
809.156	202.41
809.336	159.4
809.515	183.98
809.694	214.7
809.873	167.59
810.052	226.98
810.231	220.84
810.411	235.18
810.59	192.17
810.769	200.36
810.948	179.88
811.127	175.78
811.306	163.5
811.485	134.82
811.664	186.02
811.843	155.3
812.022	263.85
812.201	167.59
812.38	143.02
812.559	145.06
812.737	192.17
812.916	183.98
813.095	175.78
813.274	196.26
813.453	147.11
813.632	196.26
813.811	145.06
813.989	159.4
814.168	186.02
814.347	145.06
814.526	171.69
814.704	179.88
814.883	202.41
815.062	136.87
815.24	159.4
815.419	186.02
815.598	190.12
815.776	122.54
815.955	75.43
816.133	112.3
816.312	136.87
816.49	136.87
816.669	114.34
816.847	145.06
817.026	226.98
817.204	165.54
817.383	140.97
817.561	130.73
817.74	237.22
817.918	173.74
818.097	110.25
818.275	204.46
818.453	102.06
818.632	110.25
818.81	216.74
818.988	161.45
819.167	147.11
819.345	171.69
819.523	153.26
819.701	102.06
819.879	151.21
820.058	175.78
820.236	151.21
820.414	106.15
820.592	122.54
820.77	73.39
820.948	177.83
821.127	155.3
821.305	143.02
821.483	104.11
821.661	198.31
821.839	118.44
822.017	77.48
822.195	97.96
822.373	186.02
822.551	91.82
822.729	188.07
822.907	147.11
823.085	73.39
823.262	122.54
823.44	122.54
823.618	104.11
823.796	151.21
823.974	77.48
824.152	79.53
824.329	77.48
824.507	93.87
824.685	136.87
824.863	89.77
825.04	69.29
825.218	169.64
825.396	81.58
825.574	149.16
825.751	126.63
825.929	153.26
826.107	124.58
826.284	136.87
826.462	138.92
826.639	153.26
826.817	30.38
826.994	132.78
827.172	40.62
827.349	126.63
827.527	93.87
827.704	104.11
827.882	77.48
828.059	138.92
828.237	122.54
828.414	38.57
828.591	165.54
828.769	145.06
828.946	85.67
829.124	75.43
829.301	48.81
829.478	104.11
829.655	87.72
829.833	102.06
830.01	44.71
830.187	95.91
830.364	97.96
830.542	106.15
830.719	71.34
830.896	151.21
831.073	48.81
831.25	122.54
831.427	20.14
831.604	91.82
831.782	155.3
831.959	61.1
832.136	114.34
832.313	120.49
832.49	130.73
832.667	122.54
832.844	93.87
833.021	138.92
833.198	69.29
833.374	112.3
833.551	106.15
833.728	48.81
833.905	167.59
834.082	61.1
834.259	63.15
834.436	65.19
834.612	63.15
834.789	77.48
834.966	36.52
835.143	155.3
835.319	97.96
835.496	50.86
835.673	102.06
835.85	85.67
836.026	147.11
836.203	159.4
836.38	120.49
836.556	22.19
836.733	36.52
836.909	108.2
837.086	104.11
837.262	145.06
837.439	85.67
837.616	63.15
837.792	81.58
837.968	38.57
838.145	54.95
838.321	73.39
838.498	50.86
838.674	28.33
838.851	63.15
839.027	75.43
839.203	36.52
839.38	124.58
839.556	95.91
839.732	71.34
839.909	5.8
840.085	130.73
840.261	97.96
840.437	114.34
840.614	134.82
840.79	104.11
840.966	81.58
841.142	77.48
841.318	54.95
841.494	50.86
841.671	79.53
841.847	151.21
842.023	108.2
842.199	75.43
842.375	128.68
842.551	40.62
842.727	87.72
842.903	57
843.079	46.76
843.255	138.92
843.431	20.14
843.607	40.62
843.783	18.09
843.959	128.68
844.134	110.25
844.31	89.77
844.486	97.96
844.662	85.67
844.838	32.43
845.013	102.06
845.189	87.72
845.365	93.87
845.541	38.57
845.716	38.57
845.892	112.3
846.068	40.62
846.244	69.29
846.419	-33.11
846.595	32.43
846.77	38.57
846.946	-0.34
847.122	-26.96
847.297	61.1
847.473	40.62
847.648	48.81
847.824	59.05
847.999	-45.4
848.175	59.05
848.35	65.19
848.526	114.34
848.701	89.77
848.876	87.72
849.052	63.15
849.227	9.9
849.403	36.52
849.578	16.04
849.753	85.67
849.929	34.47
850.104	71.34
850.279	26.28
850.454	36.52
850.63	24.23
850.805	34.47
850.98	116.39
851.155	52.91
851.33	81.58
851.505	36.52
851.681	75.43
851.856	73.39
852.031	61.1
852.206	16.04
852.381	50.86
852.556	-16.73
852.731	-6.49
852.906	30.38
853.081	36.52
853.256	-47.44
853.431	40.62
853.606	1.71
853.781	40.62
853.956	83.63
854.131	50.86
854.305	57
854.48	9.9
854.655	67.24
854.83	30.38
855.005	61.1
855.18	3.75
855.354	28.33
855.529	95.91
855.704	28.33
855.879	-22.87
856.053	11.95
856.228	28.33
856.403	16.04
856.577	132.78
856.752	13.99
856.926	-35.16
857.101	69.29
857.276	11.95
857.45	16.04
857.625	69.29
857.799	42.67
857.974	36.52
858.148	-0.34
858.323	52.91
858.497	11.95
858.672	73.39
858.846	-16.73
859.02	24.23
859.195	20.14
859.369	-8.53
859.543	16.04
859.718	100.01
859.892	-16.73
860.066	-6.49
860.241	34.47
860.415	20.14
860.589	-8.53
860.763	9.9
860.938	50.86
861.112	-49.49
861.286	-18.77
861.46	63.15
861.634	63.15
861.808	7.85
861.982	75.43
862.157	50.86
862.331	52.91
862.505	85.67
862.679	-2.39
862.853	54.95
863.027	85.67
863.201	-35.16
863.375	63.15
863.549	104.11
863.722	-24.92
863.896	50.86
864.07	32.43
864.244	63.15
864.418	40.62
864.592	13.99
864.766	87.72
864.939	44.71
865.113	20.14
865.287	-18.77
865.461	-29.01
865.634	63.15
865.808	26.28
865.982	-0.34
866.156	63.15
866.329	7.85
866.503	71.34
866.676	97.96
866.85	-8.53
867.024	-4.44
867.197	79.53
867.371	-84.31
867.544	83.63
867.718	11.95
867.891	7.85
868.065	104.11
868.238	1.71
868.412	46.76
868.585	81.58
868.759	102.06
868.932	32.43
869.105	-53.59
869.279	40.62
869.452	-57.68
869.625	5.8
869.799	32.43
869.972	-41.3
870.145	-6.49
870.319	36.52
870.492	36.52
870.665	32.43
870.838	-0.34
871.011	-45.4
871.185	28.33
871.358	-51.54
871.531	57
871.704	-0.34
871.877	-8.53
872.05	-129.36
872.223	1.71
872.396	-10.58
872.569	57
872.742	28.33
872.915	63.15
873.088	-10.58
873.261	-20.82
873.434	26.28
873.607	-26.96
873.78	-63.83
873.953	34.47
874.126	32.43
874.299	13.99
874.471	-0.34
874.644	-29.01
874.817	-16.73
874.99	26.28
875.163	65.19
875.335	-20.82
875.508	42.67
875.681	-0.34
875.853	-6.49
876.026	38.57
876.199	114.34
876.371	5.8
876.544	24.23
876.717	73.39
876.889	-26.96
877.062	30.38
877.234	-22.87
877.407	-33.11
877.579	73.39
877.752	-18.77
877.924	32.43
878.097	65.19
878.269	-8.53
878.442	-10.58
878.614	-26.96
878.786	36.52
878.959	32.43
879.131	36.52
879.303	-2.39
879.476	7.85
879.648	3.75
879.82	11.95
879.993	11.95
880.165	-33.11
880.337	7.85
880.509	30.38
880.681	-8.53
880.854	24.23
881.026	11.95
881.198	46.76
881.37	-20.82
881.542	-43.35
881.714	7.85
881.886	95.91
882.058	34.47
882.23	-2.39
882.402	7.85
882.574	54.95
882.746	5.8
882.918	57
883.09	-24.92
883.262	-33.11
883.434	-0.34
883.606	18.09
883.778	73.39
883.95	24.23
884.122	-8.53
884.293	-26.96
884.465	63.15
884.637	46.76
884.809	24.23
884.98	34.47
885.152	61.1
885.324	48.81
885.496	48.81
885.667	13.99
885.839	28.33
886.011	-2.39
886.182	13.99
886.354	18.09
886.525	-59.73
886.697	18.09
886.869	-14.68
887.04	36.52
887.212	42.67
887.383	3.75
887.555	-22.87
887.726	-2.39
887.897	34.47
888.069	-51.54
888.24	26.28
888.412	-18.77
888.583	52.91
888.754	5.8
888.926	-41.3
889.097	-18.77
889.268	-41.3
889.44	18.09
889.611	73.39
889.782	-12.63
889.953	-8.53
890.125	-22.87
890.296	-47.44
890.467	57
890.638	38.57
890.809	73.39
890.98	-61.78
891.151	5.8
891.323	61.1
891.494	46.76
891.665	48.81
891.836	11.95
892.007	-18.77
892.178	18.09
892.349	-12.63
892.52	63.15
892.691	65.19
892.862	-26.96
893.032	52.91
893.203	-41.3
893.374	18.09
893.545	16.04
893.716	5.8
893.887	-12.63
894.057	-8.53
894.228	24.23
894.399	-43.35
894.57	85.67
894.74	-41.3
894.911	22.19
895.082	9.9
895.253	-26.96
895.423	40.62
895.594	40.62
895.764	11.95
895.935	13.99
896.106	-0.34
896.276	7.85
896.447	-16.73
896.617	54.95
896.788	30.38
896.958	24.23
897.129	22.19
897.299	3.75
897.47	18.09
897.64	71.34
897.81	20.14
897.981	-6.49
898.151	-67.92
898.322	13.99
898.492	-43.35
898.662	-39.25
898.832	22.19
899.003	83.63
899.173	16.04
899.343	26.28
899.513	34.47
