Data from USB4F104151__28__11-36-43-424.txt Node

Date: Fri Mar 14 11:36:43 EDT 2025
User: louis
Spectrometer: USB4F10415
Trigger mode: 4
Integration Time (sec): 2.000000E-2
Scans to average: 1
Electric dark correction enabled: true
Nonlinearity correction enabled: false
Boxcar width: 0
XAxis mode: Wavelengths
Number of Pixels in Spectrum: 3648
>>>>>Begin Spectral Data<<<<<
178.204	-155.47
178.424	-155.47
178.644	-155.47
178.864	-75.6
179.084	-63.32
179.304	-77.65
179.524	-28.5
179.744	-20.31
179.964	24.75
180.184	-3.93
180.404	-34.64
180.624	12.46
180.844	45.23
181.064	-32.6
181.283	16.55
181.503	16.55
181.723	82.09
181.943	-75.6
182.163	-57.17
182.383	6.31
182.602	28.84
182.822	-8.02
183.042	-65.36
183.262	-8.02
183.482	-26.45
183.701	-5.97
183.921	-12.12
184.141	4.27
184.361	0.17
184.58	-18.26
184.8	-32.6
185.02	-20.31
185.239	-28.5
185.459	57.51
185.679	10.41
185.898	-85.84
186.118	57.51
186.338	-24.4
186.557	14.51
186.777	75.95
186.997	-28.5
187.216	-32.6
187.436	18.6
187.655	-26.45
187.875	63.66
188.095	69.8
188.314	32.94
188.534	73.9
188.753	-5.97
188.973	12.46
189.192	-20.31
189.412	-14.17
189.631	30.89
189.851	-55.12
190.07	55.47
190.29	43.18
190.509	-36.69
190.729	-20.31
190.948	75.95
191.168	59.56
191.387	92.33
191.607	14.51
191.826	34.99
192.045	4.27
192.265	-3.93
192.484	-10.07
192.704	0.17
192.923	37.03
193.142	71.85
193.362	41.13
193.581	45.23
193.8	45.23
194.02	84.14
194.239	20.65
194.458	24.75
194.678	-26.45
194.897	-14.17
195.116	20.65
195.335	-8.02
195.555	4.27
195.774	-16.21
195.993	6.31
196.212	-8.02
196.432	-57.17
196.651	-14.17
196.87	-46.93
197.089	22.7
197.308	-65.36
197.528	2.22
197.747	-34.64
197.966	-8.02
198.185	57.51
198.404	57.51
198.623	49.32
198.842	-12.12
199.062	0.17
199.281	57.51
199.5	30.89
199.719	-53.08
199.938	30.89
200.157	32.94
200.376	-3.93
200.595	37.03
200.814	-1.88
201.033	-26.45
201.252	32.94
201.471	-3.93
201.69	32.94
201.909	12.46
202.128	30.89
202.347	0.17
202.566	32.94
202.785	-28.5
203.004	-65.36
203.223	16.55
203.442	-10.07
203.661	-26.45
203.879	41.13
204.098	4.27
204.317	-30.55
204.536	37.03
204.755	53.42
204.974	61.61
205.193	2.22
205.411	127.14
205.63	-18.26
205.849	43.18
206.068	24.75
206.287	-10.07
206.505	18.6
206.724	32.94
206.943	28.84
207.162	47.27
207.381	-1.88
207.599	39.08
207.818	30.89
208.037	-24.4
208.255	98.47
208.474	-8.02
208.693	-12.12
208.911	37.03
209.13	16.55
209.349	37.03
209.567	41.13
209.786	-32.6
210.005	-5.97
210.223	108.71
210.442	49.32
210.661	2.22
210.879	32.94
211.098	-16.21
211.316	-26.45
211.535	39.08
211.753	12.46
211.972	-8.02
212.191	-8.02
212.409	-18.26
212.628	-14.17
212.846	20.65
213.065	73.9
213.283	2.22
213.502	-28.5
213.72	45.23
213.938	32.94
214.157	-20.31
214.375	2.22
214.594	26.79
214.812	30.89
215.031	-32.6
215.249	-14.17
215.467	98.47
215.686	-34.64
215.904	8.36
216.122	-3.93
216.341	98.47
216.559	-3.93
216.778	37.03
216.996	-16.21
217.214	51.37
217.432	0.17
217.651	-8.02
217.869	-28.5
218.087	-63.32
218.306	53.42
218.524	88.23
218.742	37.03
218.96	-48.98
219.179	10.41
219.397	20.65
219.615	55.47
219.833	24.75
220.051	45.23
220.27	-3.93
220.488	16.55
220.706	-12.12
220.924	32.94
221.142	10.41
221.36	34.99
221.578	-28.5
221.796	-12.12
222.015	-28.5
222.233	32.94
222.451	45.23
222.669	55.47
222.887	2.22
223.105	-5.97
223.323	18.6
223.541	6.31
223.759	63.66
223.977	26.79
224.195	34.99
224.413	24.75
224.631	-24.4
224.849	37.03
225.067	-57.17
225.285	-12.12
225.503	12.46
225.721	45.23
225.939	-40.79
226.157	32.94
226.375	32.94
226.592	-36.69
226.81	-44.88
227.028	-20.31
227.246	39.08
227.464	41.13
227.682	32.94
227.9	26.79
228.117	-10.07
228.335	2.22
228.553	0.17
228.771	47.27
228.989	8.36
229.206	12.46
229.424	-16.21
229.642	6.31
229.86	73.9
230.077	59.56
230.295	4.27
230.513	8.36
230.731	55.47
230.948	41.13
231.166	98.47
231.384	32.94
231.601	-24.4
231.819	80.04
232.037	-1.88
232.254	26.79
232.472	22.7
232.689	24.75
232.907	-28.5
233.125	10.41
233.342	77.99
233.56	57.51
233.777	106.67
233.995	-57.17
234.213	34.99
234.43	51.37
234.648	-73.56
234.865	-1.88
235.083	16.55
235.3	-10.07
235.518	16.55
235.735	-36.69
235.953	-1.88
236.17	16.55
236.388	-12.12
236.605	20.65
236.822	-10.07
237.04	28.84
237.257	24.75
237.475	-42.84
237.692	-24.4
237.909	24.75
238.127	-32.6
238.344	-28.5
238.562	0.17
238.779	0.17
238.996	4.27
239.214	20.65
239.431	32.94
239.648	-34.64
239.865	-77.65
240.083	-40.79
240.3	2.22
240.517	43.18
240.735	6.31
240.952	73.9
241.169	-30.55
241.386	14.51
241.603	55.47
241.821	-8.02
242.038	86.19
242.255	12.46
242.472	-20.31
242.689	61.61
242.907	-20.31
243.124	-26.45
243.341	39.08
243.558	-81.75
243.775	-44.88
243.992	24.75
244.209	53.42
244.426	-10.07
244.643	-3.93
244.86	8.36
245.078	41.13
245.295	24.75
245.512	6.31
245.729	24.75
245.946	12.46
246.163	57.51
246.38	14.51
246.597	4.27
246.814	41.13
247.031	-3.93
247.248	57.51
247.464	41.13
247.681	8.36
247.898	26.79
248.115	12.46
248.332	-28.5
248.549	102.57
248.766	41.13
248.983	16.55
249.2	63.66
249.417	-30.55
249.633	4.27
249.85	-30.55
250.067	-8.02
250.284	65.71
250.501	12.46
250.717	77.99
250.934	-40.79
251.151	-10.07
251.368	59.56
251.585	8.36
251.801	-48.98
252.018	53.42
252.235	57.51
252.451	16.55
252.668	10.41
252.885	51.37
253.102	100.52
253.318	-12.12
253.535	-14.17
253.752	39.08
253.968	4.27
254.185	-51.03
254.401	24.75
254.618	57.51
254.835	-57.17
255.051	4.27
255.268	6.31
255.484	-53.08
255.701	49.32
255.917	43.18
256.134	37.03
256.351	16.55
256.567	-48.98
256.784	22.7
257	-8.02
257.217	53.42
257.433	-18.26
257.65	8.36
257.866	-20.31
258.082	-24.4
258.299	12.46
258.515	67.75
258.732	0.17
258.948	8.36
259.165	8.36
259.381	-30.55
259.597	-61.27
259.814	0.17
260.03	37.03
260.246	-22.36
260.463	-32.6
260.679	73.9
260.895	59.56
261.112	75.95
261.328	0.17
261.544	-34.64
261.761	-12.12
261.977	8.36
262.193	6.31
262.409	98.47
262.626	22.7
262.842	-38.74
263.058	-18.26
263.274	-34.64
263.49	55.47
263.707	16.55
263.923	41.13
264.139	59.56
264.355	47.27
264.571	12.46
264.787	-36.69
265.004	16.55
265.22	-3.93
265.436	-14.17
265.652	-34.64
265.868	49.32
266.084	0.17
266.3	20.65
266.516	-34.64
266.732	98.47
266.948	-3.93
267.164	71.85
267.38	-30.55
267.596	69.8
267.812	-18.26
268.028	-8.02
268.244	-20.31
268.46	24.75
268.676	49.32
268.892	2.22
269.108	20.65
269.324	-32.6
269.54	10.41
269.756	24.75
269.972	12.46
270.188	37.03
270.403	-28.5
270.619	28.84
270.835	51.37
271.051	30.89
271.267	-59.22
271.483	-18.26
271.698	96.43
271.914	39.08
272.13	8.36
272.346	28.84
272.562	-42.84
272.777	41.13
272.993	20.65
273.209	-48.98
273.425	57.51
273.64	-16.21
273.856	82.09
274.072	8.36
274.287	12.46
274.503	28.84
274.719	12.46
274.934	-30.55
275.15	6.31
275.366	37.03
275.581	-40.79
275.797	30.89
276.012	53.42
276.228	-69.46
276.444	-22.36
276.659	16.55
276.875	0.17
277.09	-44.88
277.306	43.18
277.521	53.42
277.737	37.03
277.952	59.56
278.168	20.65
278.383	24.75
278.599	-14.17
278.814	39.08
279.03	-12.12
279.245	-8.02
279.461	45.23
279.676	45.23
279.892	-40.79
280.107	-40.79
280.322	65.71
280.538	30.89
280.753	16.55
280.969	26.79
281.184	43.18
281.399	47.27
281.615	32.94
281.83	69.8
282.045	86.19
282.26	-20.31
282.476	69.8
282.691	41.13
282.906	22.7
283.122	30.89
283.337	-22.36
283.552	57.51
283.767	-16.21
283.983	65.71
284.198	-20.31
284.413	57.51
284.628	-16.21
284.843	2.22
285.058	45.23
285.274	71.85
285.489	22.7
285.704	-16.21
285.919	-55.12
286.134	-14.17
286.349	172.2
286.564	39.08
286.779	14.51
286.995	-44.88
287.21	-28.5
287.425	59.56
287.64	8.36
287.855	41.13
288.07	-28.5
288.285	28.84
288.5	-63.32
288.715	22.7
288.93	-40.79
289.145	14.51
289.36	-28.5
289.575	8.36
289.79	39.08
290.004	6.31
290.219	65.71
290.434	47.27
290.649	-5.97
290.864	2.22
291.079	20.65
291.294	30.89
291.509	24.75
291.724	0.17
291.938	8.36
292.153	116.9
292.368	-44.88
292.583	20.65
292.798	61.61
293.012	2.22
293.227	2.22
293.442	49.32
293.657	24.75
293.871	104.62
294.086	20.65
294.301	32.94
294.516	0.17
294.73	12.46
294.945	30.89
295.16	43.18
295.374	-18.26
295.589	41.13
295.804	61.61
296.018	34.99
296.233	18.6
296.447	59.56
296.662	-57.17
296.877	39.08
297.091	10.41
297.306	53.42
297.52	73.9
297.735	0.17
297.949	-8.02
298.164	16.55
298.378	32.94
298.593	65.71
298.807	65.71
299.022	49.32
299.236	10.41
299.451	28.84
299.665	24.75
299.88	6.31
300.094	-32.6
300.309	32.94
300.523	0.17
300.737	45.23
300.952	32.94
301.166	-65.36
301.381	65.71
301.595	34.99
301.809	41.13
302.024	63.66
302.238	-3.93
302.452	32.94
302.667	30.89
302.881	18.6
303.095	69.8
303.309	41.13
303.524	32.94
303.738	75.95
303.952	-1.88
304.166	32.94
304.381	30.89
304.595	30.89
304.809	-10.07
305.023	39.08
305.237	34.99
305.452	0.17
305.666	57.51
305.88	59.56
306.094	73.9
306.308	43.18
306.522	24.75
306.736	45.23
306.95	10.41
307.164	2.22
307.379	47.27
307.593	43.18
307.807	10.41
308.021	-16.21
308.235	88.23
308.449	37.03
308.663	16.55
308.877	51.37
309.091	41.13
309.305	75.95
309.519	-42.84
309.733	37.03
309.947	43.18
310.161	6.31
310.374	32.94
310.588	75.95
310.802	20.65
311.016	61.61
311.23	14.51
311.444	-3.93
311.658	102.57
311.872	24.75
312.085	28.84
312.299	102.57
312.513	37.03
312.727	12.46
312.941	6.31
313.154	80.04
313.368	49.32
313.582	69.8
313.796	-34.64
314.009	47.27
314.223	49.32
314.437	-22.36
314.651	47.27
314.864	69.8
315.078	-61.27
315.292	53.42
315.505	24.75
315.719	32.94
315.933	90.28
316.146	-12.12
316.36	0.17
316.573	14.51
316.787	22.7
317.001	45.23
317.214	20.65
317.428	51.37
317.641	57.51
317.855	30.89
318.068	-24.4
318.282	4.27
318.495	-5.97
318.709	37.03
318.922	-36.69
319.136	100.52
319.349	102.57
319.563	28.84
319.776	32.94
319.99	32.94
320.203	8.36
320.417	80.04
320.63	-32.6
320.843	39.08
321.057	37.03
321.27	65.71
321.483	49.32
321.697	-18.26
321.91	96.43
322.124	30.89
322.337	37.03
322.55	-14.17
322.763	0.17
322.977	51.37
323.19	98.47
323.403	-3.93
323.617	4.27
323.83	63.66
324.043	-18.26
324.256	77.99
324.469	2.22
324.683	4.27
324.896	53.42
325.109	73.9
325.322	14.51
325.535	41.13
325.748	-3.93
325.962	-1.88
326.175	82.09
326.388	-59.22
326.601	30.89
326.814	39.08
327.027	80.04
327.24	32.94
327.453	20.65
327.666	49.32
327.879	65.71
328.092	86.19
328.305	14.51
328.518	63.66
328.731	6.31
328.944	-1.88
329.157	39.08
329.37	26.79
329.583	41.13
329.796	84.14
330.009	-34.64
330.222	102.57
330.435	-14.17
330.648	77.99
330.861	53.42
331.073	28.84
331.286	55.47
331.499	34.99
331.712	-12.12
331.925	-1.88
332.138	73.9
332.35	53.42
332.563	-3.93
332.776	49.32
332.989	10.41
333.202	65.71
333.414	-57.17
333.627	73.9
333.84	30.89
334.053	151.72
334.265	55.47
334.478	24.75
334.691	-8.02
334.903	-36.69
335.116	30.89
335.329	-34.64
335.541	137.38
335.754	18.6
335.966	-24.4
336.179	53.42
336.392	30.89
336.604	-26.45
336.817	53.42
337.029	-59.22
337.242	0.17
337.454	102.57
337.667	22.7
337.88	57.51
338.092	-61.27
338.305	32.94
338.517	18.6
338.729	6.31
338.942	55.47
339.154	41.13
339.367	2.22
339.579	104.62
339.792	90.28
340.004	6.31
340.217	10.41
340.429	32.94
340.641	-20.31
340.854	8.36
341.066	69.8
341.278	-14.17
341.491	82.09
341.703	2.22
341.915	57.51
342.128	30.89
342.34	6.31
342.552	-22.36
342.764	-28.5
342.977	41.13
343.189	71.85
343.401	12.46
343.613	16.55
343.826	57.51
344.038	12.46
344.25	-1.88
344.462	6.31
344.674	45.23
344.886	28.84
345.099	100.52
345.311	24.75
345.523	69.8
345.735	-57.17
345.947	8.36
346.159	55.47
346.371	-3.93
346.583	-16.21
346.795	45.23
347.007	6.31
347.219	51.37
347.431	-1.88
347.643	61.61
347.855	-30.55
348.067	39.08
348.279	-1.88
348.491	84.14
348.703	16.55
348.915	55.47
349.127	-12.12
349.339	65.71
349.551	10.41
349.763	65.71
349.975	24.75
350.187	10.41
350.399	22.7
350.61	57.51
350.822	14.51
351.034	53.42
351.246	65.71
351.458	65.71
351.669	86.19
351.881	0.17
352.093	65.71
352.305	39.08
352.517	22.7
352.728	43.18
352.94	57.51
353.152	63.66
353.363	39.08
353.575	26.79
353.787	16.55
353.999	37.03
354.21	123.05
354.422	2.22
354.633	32.94
354.845	20.65
355.057	-44.88
355.268	18.6
355.48	22.7
355.692	-8.02
355.903	8.36
356.115	69.8
356.326	-46.93
356.538	90.28
356.749	26.79
356.961	194.73
357.172	77.99
357.384	30.89
357.595	-12.12
357.807	37.03
358.018	-36.69
358.23	-42.84
358.441	45.23
358.653	22.7
358.864	22.7
359.075	24.75
359.287	39.08
359.498	73.9
359.709	30.89
359.921	77.99
360.132	90.28
360.344	98.47
360.555	63.66
360.766	53.42
360.977	59.56
361.189	59.56
361.4	24.75
361.611	118.95
361.823	37.03
362.034	88.23
362.245	63.66
362.456	96.43
362.667	75.95
362.879	69.8
363.09	-40.79
363.301	82.09
363.512	-3.93
363.723	41.13
363.935	59.56
364.146	41.13
364.357	14.51
364.568	37.03
364.779	-20.31
364.99	61.61
365.201	41.13
365.412	94.38
365.623	4.27
365.834	-20.31
366.045	14.51
366.256	53.42
366.467	57.51
366.678	55.47
366.889	8.36
367.1	102.57
367.311	73.9
367.522	-51.03
367.733	-20.31
367.944	28.84
368.155	51.37
368.366	12.46
368.577	16.55
368.788	90.28
368.999	4.27
369.209	92.33
369.42	80.04
369.631	24.75
369.842	-1.88
370.053	34.99
370.264	20.65
370.474	61.61
370.685	65.71
370.896	57.51
371.107	-26.45
371.317	90.28
371.528	-10.07
371.739	28.84
371.95	30.89
372.16	22.7
372.371	14.51
372.582	73.9
372.792	4.27
373.003	43.18
373.214	110.76
373.424	98.47
373.635	47.27
373.846	39.08
374.056	16.55
374.267	43.18
374.477	96.43
374.688	53.42
374.898	67.75
375.109	6.31
375.319	30.89
375.53	125.1
375.74	49.32
375.951	-8.02
376.161	43.18
376.372	4.27
376.582	-8.02
376.793	41.13
377.003	28.84
377.214	57.51
377.424	2.22
377.635	45.23
377.845	24.75
378.055	16.55
378.266	49.32
378.476	63.66
378.686	75.95
378.897	14.51
379.107	88.23
379.317	28.84
379.528	51.37
379.738	34.99
379.948	32.94
380.158	24.75
380.369	-1.88
380.579	73.9
380.789	41.13
380.999	51.37
381.21	41.13
381.42	77.99
381.63	-28.5
381.84	18.6
382.05	6.31
382.261	28.84
382.471	65.71
382.681	67.75
382.891	49.32
383.101	51.37
383.311	-1.88
383.521	71.85
383.731	86.19
383.941	55.47
384.151	6.31
384.361	67.75
384.571	6.31
384.781	16.55
384.991	59.56
385.201	73.9
385.411	112.81
385.621	61.61
385.831	102.57
386.041	102.57
386.251	73.9
386.461	47.27
386.671	20.65
386.881	57.51
387.091	4.27
387.301	61.61
387.511	51.37
387.72	47.27
387.93	45.23
388.14	-42.84
388.35	65.71
388.56	26.79
388.769	84.14
388.979	-8.02
389.189	12.46
389.399	10.41
389.609	0.17
389.818	45.23
390.028	-18.26
390.238	90.28
390.447	102.57
390.657	-1.88
390.867	8.36
391.076	53.42
391.286	24.75
391.496	98.47
391.705	47.27
391.915	30.89
392.125	86.19
392.334	106.67
392.544	37.03
392.753	55.47
392.963	69.8
393.172	53.42
393.382	-20.31
393.591	47.27
393.801	53.42
394.01	102.57
394.22	61.61
394.429	61.61
394.639	55.47
394.848	96.43
395.058	49.32
395.267	28.84
395.477	80.04
395.686	110.76
395.895	69.8
396.105	155.82
396.314	73.9
396.524	-1.88
396.733	45.23
396.942	104.62
397.152	45.23
397.361	80.04
397.57	73.9
397.78	90.28
397.989	75.95
398.198	127.14
398.407	0.17
398.617	86.19
398.826	106.67
399.035	67.75
399.244	161.96
399.453	53.42
399.663	45.23
399.872	108.71
400.081	153.77
400.29	112.81
400.499	69.8
400.708	84.14
400.917	125.1
401.127	116.9
401.336	106.67
401.545	121
401.754	155.82
401.963	164.01
402.172	86.19
402.381	176.3
402.59	118.95
402.799	88.23
403.008	143.53
403.217	49.32
403.426	65.71
403.635	102.57
403.844	123.05
404.053	57.51
404.262	106.67
404.471	118.95
404.68	145.58
404.888	202.92
405.097	157.86
405.306	200.87
405.515	147.62
405.724	133.29
405.933	164.01
406.142	176.3
406.35	164.01
406.559	135.34
406.768	192.68
406.977	229.54
407.185	200.87
407.394	145.58
407.603	155.82
407.812	237.74
408.02	194.73
408.229	147.62
408.438	178.34
408.646	241.83
408.855	196.78
409.064	250.02
409.272	209.06
409.481	299.17
409.69	295.08
409.898	307.37
410.107	237.74
410.315	315.56
410.524	295.08
410.733	319.65
410.941	307.37
411.15	428.2
411.358	401.57
411.567	360.61
411.775	454.82
411.984	424.1
412.192	366.76
412.401	434.34
412.609	440.48
412.818	508.07
413.026	479.4
413.234	495.78
413.443	557.22
413.651	506.02
413.86	563.36
414.068	571.55
414.276	524.45
414.485	606.37
414.693	630.95
414.901	606.37
415.11	704.67
415.318	688.29
415.526	721.06
415.734	694.43
415.943	823.45
416.151	770.21
416.359	800.93
416.567	843.93
416.776	872.61
416.984	913.56
417.192	958.62
417.4	999.58
417.608	950.43
417.817	1028.25
418.025	1040.54
418.233	1161.37
418.441	1061.02
418.649	1179.8
418.857	1196.18
419.065	1130.65
419.273	1263.77
419.481	1327.25
419.689	1450.13
419.897	1376.41
420.105	1474.71
420.313	1579.15
420.521	1656.98
420.729	1530
420.937	1704.08
421.145	1765.52
421.353	1908.88
421.561	1874.06
421.769	1929.36
421.977	1988.75
422.185	2001.04
422.393	2070.67
422.601	2273.42
422.809	2297.99
423.017	2312.33
423.224	2427.01
423.432	2400.39
423.64	2474.12
423.848	2726.02
424.056	2580.61
424.263	2963.58
424.471	2898.05
424.679	2902.14
424.887	3043.45
425.094	3074.17
425.302	3178.62
425.51	3309.69
425.718	3360.89
425.925	3455.09
426.133	3547.25
426.341	3743.86
426.548	3870.83
426.756	3825.78
426.964	3989.61
427.171	4216.94
427.379	4319.34
427.586	4419.69
427.794	4472.93
428.001	4722.79
428.209	4935.78
428.417	4841.57
428.624	5259.35
428.832	5079.13
429.039	5134.43
429.247	5298.27
429.454	5595.22
429.662	6094.93
429.869	5742.68
430.076	6074.45
430.284	5816.4
430.491	6199.37
430.699	6594.63
430.906	6510.66
431.114	6559.81
431.321	6713.41
431.528	6940.74
431.736	7417.91
431.943	7589.94
432.15	7307.32
432.358	7649.33
432.565	8114.22
432.772	7934
432.979	8532.01
433.187	8724.52
433.394	8630.31
433.601	9265.18
433.808	9183.26
434.016	9289.76
434.223	9420.83
434.43	10223.63
434.637	9830.42
434.844	10436.62
435.052	10610.7
435.259	10821.64
435.466	10958.85
435.673	10655.75
435.88	11577.34
436.087	11841.53
436.294	12034.04
436.501	11775.99
436.708	11671.54
436.915	12101.62
437.122	12924.9
437.329	12673
437.537	13430.75
437.743	13385.69
437.95	13361.12
438.157	13899.73
438.364	14278.61
438.571	14653.39
438.778	14542.8
438.985	16007.09
439.192	15175.62
439.399	15757.24
439.606	15347.65
439.813	16373.68
440.02	17151.91
440.227	17004.46
440.433	16777.13
440.64	17545.12
440.847	17563.55
441.054	17768.35
441.261	19015.56
441.467	18696.08
441.674	19263.36
441.881	19638.14
442.088	19779.45
442.294	19793.79
442.501	20133.75
442.708	20338.55
442.914	20973.42
443.121	22155.1
443.328	21755.74
443.534	22990.67
443.741	22370.13
443.948	22081.37
444.154	24112.95
444.361	23539.52
444.568	24065.85
444.774	24004.41
444.981	24153.91
445.187	25081.64
445.394	25757.47
445.6	25843.49
445.807	27823.87
446.013	26736.4
446.22	27250.44
446.426	28665.59
446.633	28503.8
446.839	29409
447.046	28329.72
447.252	30109.41
447.459	30033.63
447.665	29927.14
447.871	30889.68
448.078	32556.73
448.284	30826.2
448.491	31930.05
448.697	33506.99
448.903	33410.73
449.11	33715.88
449.316	33195.7
449.522	33797.8
449.728	34518.68
449.935	34809.5
450.141	34895.51
450.347	35800.71
450.553	34518.68
450.76	34571.93
450.966	36060.8
451.172	35548.81
451.378	36750.97
451.584	36054.66
451.791	36703.87
451.997	36636.28
452.203	37074.55
452.409	37213.81
452.615	37430.9
452.821	35518.09
453.027	35421.84
453.233	37373.55
453.44	35944.07
453.646	36130.44
453.852	36202.11
454.058	36753.02
454.264	35720.84
454.47	36632.19
454.676	35663.5
454.882	36861.56
455.088	33867.43
455.294	34025.12
455.5	34862.74
455.705	34954.9
455.911	33814.18
456.117	32777.91
456.323	32556.73
456.529	30869.2
456.735	32122.56
456.941	31407.82
457.147	31067.86
457.352	30121.7
457.558	29773.54
457.764	29482.73
457.97	29077.23
458.176	28215.04
458.381	28393.21
458.587	26861.33
458.793	27256.59
458.999	25665.32
459.204	27766.53
459.41	26679.06
459.616	24794.93
459.821	25095.98
460.027	25028.4
460.233	24532.79
460.438	22970.19
460.644	23793.47
460.85	22480.72
461.055	21931.87
461.261	22151
461.466	20281.21
461.672	19742.59
461.878	21174.12
462.083	19926.91
462.289	19308.42
462.494	19267.46
462.7	18167.7
462.905	17784.73
463.111	18616.21
463.316	18722.7
463.522	18280.34
463.727	18218.9
463.932	17930.14
464.138	18061.21
464.343	18069.4
464.549	17616.8
464.754	18231.19
464.959	17926.04
465.165	17547.17
465.37	16779.18
465.575	16715.69
465.781	17362.85
465.986	17463.2
466.191	16775.08
466.397	16398.26
466.602	15663.04
466.807	16234.42
467.012	16375.73
467.218	16078.77
467.423	15914.94
467.628	16015.29
467.833	16568.24
468.038	16318.39
468.244	15417.28
468.449	16375.73
468.654	15470.53
468.859	15486.91
469.064	15529.92
469.269	14915.53
469.474	14919.62
469.679	15460.29
469.885	14700.49
470.09	15245.25
470.295	15138.76
470.5	14755.79
470.705	14755.79
470.91	14325.71
471.115	14364.62
471.32	14450.64
471.525	14360.53
471.73	14190.55
471.935	13924.31
472.139	13529.05
472.344	13600.73
472.549	13580.25
472.754	13359.07
472.959	13113.31
473.164	12896.23
473.369	12961.76
473.574	13131.75
473.778	12898.28
473.983	12840.93
474.188	12914.66
474.393	12300.27
474.598	12343.28
474.802	12140.53
475.007	12234.74
475.212	12013.56
475.417	11876.34
475.621	11829.24
475.826	11653.11
476.031	11671.54
476.235	11354.11
476.44	11542.52
476.645	11190.27
476.849	11268.09
477.054	11100.16
477.259	11042.82
477.463	10985.48
477.668	10629.13
477.872	10809.35
478.077	10827.78
478.282	10260.49
478.486	10448.91
478.691	10061.84
478.895	10231.82
479.1	10223.63
479.304	10260.49
479.509	9926.68
479.713	10147.86
479.918	9857.04
480.122	9797.65
480.326	9766.93
480.531	9717.78
480.735	9826.32
480.94	9674.78
481.144	9965.59
481.348	9373.72
481.553	9646.1
481.757	9343
481.961	9717.78
482.166	9381.92
482.37	9555.99
482.574	9207.84
482.778	9467.93
482.983	9465.88
483.187	9420.83
483.391	9588.76
483.595	9472.03
483.8	9347.1
484.004	9486.36
484.208	9406.49
484.412	9297.95
484.616	9502.75
484.821	9429.02
485.025	9254.94
485.229	9549.85
485.433	9347.1
485.637	9637.91
485.841	9291.8
486.045	9218.08
486.249	9564.18
486.453	9365.53
486.657	9447.45
486.861	9424.92
487.065	9099.3
487.269	9306.14
487.473	9170.97
487.677	9523.23
487.881	9455.64
488.085	9469.98
488.289	9439.26
488.493	9338.91
488.697	9512.99
488.901	9461.79
489.105	9375.77
489.309	9474.07
489.512	9576.47
489.716	9422.87
489.92	9435.16
490.124	9484.31
490.328	9576.47
490.531	9633.82
490.735	9654.3
490.939	9736.21
491.143	9701.4
491.346	9529.37
491.55	9893.91
491.754	9994.26
491.958	9756.69
492.161	9936.92
492.365	10059.79
492.569	9926.68
492.772	9885.72
492.976	10229.77
493.18	10225.68
493.383	10199.06
493.587	10203.15
493.79	10268.69
493.994	10182.67
494.197	10391.56
494.401	10516.49
494.605	10373.13
494.808	10721.29
495.012	10709
495.215	10733.57
495.419	10719.24
495.622	10625.03
495.825	10971.14
496.029	11059.2
496.232	11177.98
496.436	10987.52
496.639	11288.57
496.843	11362.3
497.046	11397.12
497.249	11347.97
497.453	11765.75
497.656	11829.24
497.859	11921.4
498.063	11696.12
498.266	12335.09
498.469	12077.04
498.673	12263.41
498.876	12728.3
499.079	12634.09
499.282	12826.6
499.485	12769.26
499.689	13123.55
499.892	12980.2
500.095	13201.38
500.298	13590.49
500.501	13367.26
500.705	13662.17
500.908	14172.11
501.111	13918.17
501.314	14243.79
501.517	14483.41
501.72	14712.78
501.923	14376.91
502.126	15022.02
502.329	15165.38
502.532	15189.95
502.735	15288.26
502.938	15433.66
503.141	15747
503.344	15687.61
503.547	15761.34
503.75	15974.33
503.953	16480.18
504.156	16496.56
504.359	16715.69
504.562	16637.87
504.765	17315.75
504.968	17199.01
505.17	17596.32
505.373	17346.47
505.576	17573.79
505.779	17952.66
505.982	17813.4
506.185	18206.61
506.387	18327.44
506.59	18638.73
506.793	18773.9
506.996	18714.51
507.198	19214.21
507.401	19189.64
507.604	19523.46
507.807	19994.49
508.009	19920.76
508.212	20107.13
508.415	20215.67
508.617	20780.91
508.82	20522.87
509.022	20688.75
509.225	21102.44
509.428	21305.19
509.63	21391.2
509.833	21538.66
510.035	22034.27
510.238	21811.04
510.44	22382.42
510.643	22429.52
510.845	22865.74
511.048	22773.58
511.25	23109.45
511.453	23314.25
511.655	23779.14
511.858	23539.52
512.06	23850.81
512.262	24110.91
512.465	24092.48
512.667	24618.8
512.87	24532.79
513.072	24778.54
513.274	25212.71
513.477	25493.29
513.679	25749.28
513.881	26046.24
514.084	26335
514.286	25943.84
514.488	26185.5
514.69	26803.99
514.893	27098.89
515.095	27172.62
515.297	27649.8
515.499	27633.41
515.701	28077.82
515.904	28006.14
516.106	28329.72
516.308	28536.57
516.51	29026.03
516.712	28714.74
516.914	29118.19
517.116	29621.99
517.318	29607.65
517.52	29685.48
517.722	29716.2
517.925	30592.73
518.127	30539.48
518.329	30557.91
518.531	30332.64
518.733	31618.76
518.935	31350.48
519.136	31389.39
519.338	31864.52
519.54	31895.24
519.742	32155.33
519.944	32528.06
520.146	32894.64
520.348	32915.12
520.55	33296.05
520.752	33201.84
520.954	33767.08
521.155	33443.5
521.357	34121.38
521.559	34260.64
521.761	34612.89
521.963	34416.29
522.164	34739.86
522.366	34731.67
522.568	35108.5
522.77	35581.58
522.971	35909.25
523.173	35692.17
523.375	36087.43
523.576	36062.85
523.778	36032.13
523.98	36544.13
524.181	36580.99
524.383	36869.75
524.584	37000.82
524.786	37135.99
524.988	37054.07
525.189	37693.04
525.391	37662.32
525.592	38106.73
525.794	38035.05
525.995	38205.03
526.197	37928.55
526.398	38301.28
526.6	38569.57
526.801	38135.4
527.003	39011.93
527.204	38962.78
527.406	39222.87
527.607	38897.24
527.808	39255.64
528.01	38614.62
528.211	38968.92
528.412	39812.68
528.614	39552.59
528.815	39134.81
529.016	39960.14
529.218	39306.83
529.419	39769.68
529.62	39458.38
529.822	39415.38
530.023	40134.21
530.224	39607.89
530.425	40085.06
530.626	39753.29
530.828	39585.36
531.029	40799.8
531.23	39769.68
531.431	39986.76
531.632	40187.46
531.833	40447.55
532.035	40242.76
532.236	40504.9
532.437	40863.29
532.638	40449.6
532.839	40455.75
533.04	40605.25
533.241	40357.44
533.442	40859.2
533.643	40320.58
533.844	40119.88
534.045	41025.08
534.246	40056.39
534.447	40767.04
534.648	40640.06
534.849	40877.63
535.05	40576.58
535.251	40721.98
535.451	40853.05
535.652	40814.14
535.853	40554.05
536.054	41293.36
536.255	40937.02
536.456	40400.45
536.657	41053.75
536.857	40830.52
537.058	40410.69
537.259	40945.21
537.46	40816.19
537.66	40506.94
537.861	40748.6
538.062	40621.63
538.263	40672.83
538.463	40138.31
538.664	40332.87
538.865	41051.7
539.065	40564.29
539.266	40195.65
539.466	40748.6
539.667	40048.2
539.868	40650.3
540.068	40537.66
540.269	40355.39
540.469	40949.31
540.67	40500.8
540.87	40808
541.071	40830.52
541.271	40830.52
541.472	40535.62
541.672	39988.81
541.873	40386.11
542.073	40191.56
542.274	40926.78
542.474	40126.02
542.675	40097.35
542.875	40742.46
543.075	40320.58
543.276	39915.08
543.476	40283.72
543.676	39902.79
543.877	40482.37
544.077	40564.29
544.277	40113.73
544.478	40060.49
544.678	40527.42
544.878	39900.75
545.078	40404.55
545.279	40296
545.479	40017.48
545.679	40513.09
545.879	40209.99
546.079	40103.49
546.28	40093.25
546.48	39814.73
546.68	40175.17
546.88	40066.63
547.08	40222.28
547.28	40324.68
547.48	40105.54
547.68	40064.58
547.88	39970.38
548.081	40293.96
548.281	39640.65
548.481	39792.2
548.681	39999.05
548.881	39986.76
549.081	40007.24
549.28	40169.03
549.48	40203.85
549.68	39937.61
549.88	40224.32
550.08	39798.35
550.28	39945.8
550.48	39982.66
550.68	40316.48
550.88	39560.78
551.08	39628.37
551.279	40001.1
551.479	39777.87
551.679	39876.17
551.879	39415.38
552.079	40212.04
552.278	39349.84
552.478	39519.82
552.678	39638.61
552.878	40275.52
553.077	39822.92
553.277	39306.83
553.477	40062.54
553.676	39149.14
553.876	39347.79
554.076	39257.68
554.275	39597.65
554.475	39028.31
554.674	39810.64
554.874	39757.39
555.074	39249.49
555.273	39689.81
555.473	39888.46
555.672	39269.97
555.872	39530.06
556.071	39456.34
556.271	39226.96
556.47	38778.46
556.67	39286.36
556.869	39114.33
557.068	39253.59
557.268	39030.36
557.467	38995.54
557.667	39130.71
557.866	39235.16
558.065	39040.6
558.265	38778.46
558.464	38598.24
558.663	38970.97
558.863	38471.26
559.062	38829.66
559.261	38424.16
559.461	39056.98
559.66	38309.47
559.859	38407.78
560.058	38010.47
560.258	38336.1
560.457	38065.77
560.656	38444.64
560.855	38004.33
561.054	38377.06
561.253	38301.28
561.453	38288.99
561.652	38174.31
561.851	38407.78
562.05	37955.18
562.249	37635.69
562.448	38035.05
562.647	37795.43
562.846	37981.8
563.045	37733.99
563.244	37402.22
563.443	37963.37
563.642	37246.58
563.841	37766.76
564.04	37336.69
564.239	37830.25
564.438	37248.63
564.637	37420.66
564.836	37369.46
565.035	36892.28
565.234	37242.48
565.432	37232.24
565.631	37271.15
565.83	37189.24
566.029	36851.32
566.228	36593.28
566.427	36798.07
566.625	36773.5
566.824	36296.32
567.023	37066.36
567.222	35923.59
567.42	36730.49
567.619	36714.11
567.818	36384.38
568.016	36054.66
568.215	36851.32
568.414	36132.48
568.612	36603.52
568.811	36017.8
569.01	35899.01
569.208	35552.91
569.407	36298.37
569.605	35485.33
569.804	36163.2
570.002	35751.56
570.201	36079.24
570.4	35718.79
570.598	35149.46
570.797	35366.54
570.995	35514
571.193	34905.75
571.392	35434.13
571.59	34813.59
571.789	35104.4
571.987	34756.25
572.186	34885.27
572.384	34889.37
572.582	35178.13
572.781	35186.32
572.979	34426.53
573.177	34438.81
573.376	34776.73
573.574	34490.01
573.772	34494.11
573.971	34164.39
574.169	33826.47
574.367	34012.84
574.565	34184.87
574.763	34225.82
574.962	33996.45
575.16	33810.09
575.358	34014.88
575.556	33425.07
575.754	33898.15
575.952	33453.74
576.151	33746.6
576.349	33353.39
576.547	33482.41
576.745	33439.4
576.943	33564.33
577.141	33285.81
577.339	32992.95
577.537	33101.49
577.735	32995
577.933	32886.45
578.131	33005.24
578.329	33152.69
578.527	32720.57
578.725	32691.9
578.923	32794.29
579.121	32456.38
579.319	32614.07
579.516	32536.25
579.714	32511.67
579.912	32384.7
580.11	32126.66
580.308	32362.17
580.506	32093.89
580.704	31719.11
580.901	32163.52
581.099	32181.95
581.297	31446.73
581.495	31663.82
581.692	31368.91
581.89	31395.53
582.088	31723.21
582.285	31436.49
582.483	31688.39
582.681	31213.26
582.878	31125.2
583.076	31229.65
583.274	31112.91
583.471	30688.98
583.669	30762.71
583.866	30883.54
584.064	30846.68
584.262	30412.51
584.459	30545.62
584.657	30527.19
584.854	30770.9
585.052	29964
585.249	30355.16
585.447	30271.2
585.644	29974.24
585.841	30463.71
586.039	30269.15
586.236	29787.88
586.434	29875.94
586.631	29931.23
586.828	29695.72
587.026	29877.99
587.223	29937.38
587.42	29361.9
587.618	29777.64
587.815	29265.64
588.012	28919.54
588.21	29185.77
588.407	29198.06
588.604	28899.06
588.801	28845.81
588.999	28653.3
589.196	28454.65
589.393	28808.95
589.59	28858.1
589.787	28514.04
589.984	28507.9
590.182	28360.44
590.379	28489.46
590.576	28270.33
590.773	28403.45
590.97	28069.63
591.167	28129.02
591.364	27672.32
591.561	27926.27
591.758	27787.01
591.955	27701
592.152	27979.52
592.349	27223.82
592.546	27539.21
592.743	27170.57
592.94	26961.68
593.137	27352.84
593.334	27383.56
593.531	26998.54
593.727	27109.13
593.924	27160.33
594.121	26603.28
594.318	26994.45
594.515	26550.04
594.712	26736.4
594.908	26547.99
595.105	26560.28
595.302	26646.29
595.499	26707.73
595.696	26488.6
595.892	26031.9
596.089	26584.85
596.286	26134.3
596.482	26099.48
596.679	25984.8
596.876	26031.9
597.072	25538.34
597.269	25702.18
597.466	25435.94
597.662	25526.05
597.859	25534.25
598.055	25437.99
598.252	25374.5
598.448	25605.92
598.645	25059.12
598.841	25012.01
599.038	25210.67
599.234	25083.69
599.431	24833.84
599.627	24606.52
599.824	25044.78
600.02	24344.38
600.217	24684.34
600.413	24635.19
600.609	24561.46
600.806	24260.41
601.002	24725.3
601.198	24016.7
601.395	24135.48
601.591	24272.7
601.787	24112.95
601.984	24074.04
602.18	24008.51
602.376	23717.7
602.572	23811.9
602.769	23797.57
602.965	23287.62
603.161	23617.35
603.357	23734.08
603.553	23441.22
603.75	23508.8
603.946	23390.02
604.142	23177.03
604.338	22929.23
604.534	23172.94
604.73	23156.55
604.926	22628.18
605.122	23045.96
605.318	22685.52
605.514	22722.38
605.71	22806.35
605.906	22572.88
606.102	22560.59
606.298	22724.43
606.494	22482.77
606.69	22306.65
606.886	22425.43
607.082	22148.95
607.278	22411.09
607.474	21745.5
607.67	22474.58
607.866	21882.72
608.062	22048.6
608.257	21964.64
608.453	22216.54
608.649	22054.75
608.845	21903.2
609.041	21596
609.236	21884.76
609.432	21743.45
609.628	22013.79
609.824	21706.59
610.019	21495.65
610.215	21733.22
610.411	21493.6
610.606	21475.17
610.802	21581.67
610.998	21245.8
611.193	21399.4
611.389	21514.08
611.584	21077.87
611.78	21297
611.976	21180.26
612.171	21235.56
612.367	21237.61
612.562	21233.51
612.758	20811.63
612.953	20940.65
613.149	20993.9
613.344	20801.39
613.539	20905.84
613.735	20836.2
613.93	21084.01
614.126	20610.93
614.321	21061.48
614.517	20795.25
614.712	20678.51
614.907	20367.22
615.103	20809.58
615.298	20447.09
615.493	20701.04
615.688	20240.25
615.884	20852.59
616.079	19791.74
616.274	20318.07
616.47	20250.49
616.665	20348.79
616.86	20213.62
617.055	20062.07
617.25	20121.46
617.445	20416.37
617.641	20012.92
617.836	20131.7
618.031	19744.64
618.226	20148.09
618.421	19828.6
618.616	19967.87
618.811	19519.36
619.006	20053.88
619.201	19179.4
619.396	19742.59
619.591	19181.45
619.786	19402.63
619.981	19181.45
620.176	19236.74
620.371	18986.89
620.566	19244.93
620.761	19130.25
620.956	19029.9
621.151	18646.93
621.346	18988.94
621.541	18608.01
621.735	18753.42
621.93	18526.1
622.125	18470.8
622.32	18237.33
622.515	18347.92
622.709	17903.51
622.904	18034.58
623.099	18034.58
623.294	17747.87
623.488	17805.21
623.683	17756.06
623.878	17579.93
624.072	17627.04
624.267	17260.45
624.462	17272.74
624.656	17272.74
624.851	17084.33
625.046	17194.92
625.24	16859.05
625.435	16584.62
625.629	16691.12
625.824	16768.94
626.018	16598.96
626.213	16365.49
626.407	16314.29
626.602	16183.22
626.796	16228.28
626.991	16289.71
627.185	15878.07
627.38	16035.77
627.574	15896.5
627.768	15605.69
627.963	15665.08
628.157	15548.35
628.352	15804.35
628.546	15540.16
628.74	15675.32
628.935	15071.17
629.129	15251.39
629.323	15122.37
629.517	15167.43
629.712	14895.05
629.906	15105.99
630.1	14694.35
630.294	14741.45
630.489	14729.16
630.683	14684.11
630.877	14460.88
631.071	14772.17
631.265	14632.91
631.459	14606.28
631.653	14231.51
631.848	14241.75
632.042	14135.25
632.236	14137.3
632.43	13957.08
632.624	13758.42
632.818	13852.63
633.012	13598.68
633.206	13881.3
633.4	13703.13
633.594	13316.06
633.788	13506.52
633.982	13195.23
634.176	13479.9
634.369	13223.9
634.563	13121.51
634.757	13223.9
634.951	12935.14
635.145	12902.37
635.339	12953.57
635.533	12910.57
635.726	12603.37
635.92	12523.5
636.114	12640.23
636.308	12623.85
636.501	12623.85
636.695	12470.25
636.889	12457.96
637.083	12466.16
637.276	12341.23
637.47	12402.67
637.664	12097.52
637.857	12214.26
638.051	12109.81
638.244	11757.56
638.438	11937.78
638.632	12031.99
638.825	11827.19
639.019	11993.08
639.212	11745.27
639.406	11460.6
639.599	11569.15
639.793	11560.95
639.986	11173.89
640.18	11544.57
640.373	11323.39
640.567	11151.36
640.76	11063.3
640.954	11210.75
641.147	10936.32
641.34	11034.63
641.534	10993.67
641.727	10776.58
641.92	10891.27
642.114	10731.53
642.307	10907.65
642.5	10819.59
642.694	10500.11
642.887	10430.48
643.08	10536.97
643.273	10401.8
643.467	10317.84
643.66	10362.89
643.853	10192.91
644.046	10172.43
644.239	10143.76
644.432	10160.14
644.626	10221.58
644.819	10004.5
645.012	10035.22
645.205	9850.9
645.398	9730.07
645.591	9959.44
645.784	9830.42
645.977	9674.78
646.17	9678.87
646.363	9631.77
646.556	9349.15
646.749	9515.03
646.942	9715.73
647.135	9474.07
647.328	9508.89
647.521	9435.16
647.714	9205.79
647.907	9345.05
648.099	9175.07
648.292	9158.69
648.485	9168.93
648.678	8822.82
648.871	8898.59
649.064	8839.2
649.256	9091.1
649.449	8882.21
649.642	8925.22
649.835	8804.39
650.027	8792.1
650.22	8624.17
650.413	8622.12
650.605	8605.74
650.798	8503.34
650.991	8501.29
651.183	8497.19
651.376	8261.68
651.568	8278.06
651.761	8368.17
651.954	8380.46
652.146	8054.83
652.339	8196.14
652.531	8296.49
652.724	8126.51
652.916	7911.47
653.109	8060.98
653.301	7970.87
653.494	7698.49
653.686	7718.96
653.879	7942.19
654.071	7745.59
654.263	7764.02
654.456	7639.09
654.648	7929.91
654.84	7583.8
655.033	7518.26
655.225	7598.13
655.417	7714.87
655.61	7579.7
655.802	7544.89
655.994	7372.86
656.186	7469.11
656.379	7333.95
656.571	7184.45
656.763	7204.92
656.955	7364.67
657.148	7284.8
657.34	7233.6
657.532	7151.68
657.724	6893.63
657.916	6832.19
658.108	6887.49
658.3	6975.55
658.492	7032.9
658.684	6838.34
658.876	6778.95
659.068	6844.48
659.26	6834.24
659.452	6752.32
659.644	6707.27
659.836	6506.57
660.028	6670.4
660.22	6496.33
660.412	6635.59
660.604	6508.62
660.796	6510.66
660.988	6486.09
661.18	6463.56
661.372	6428.74
661.563	6381.64
661.755	6238.28
661.947	6185.04
662.139	6328.39
662.331	6342.73
662.522	6285.39
662.714	6051.92
662.906	6191.18
663.097	6111.31
663.289	6017.1
663.481	6076.49
663.673	5847.12
663.864	6029.39
664.056	5914.7
664.247	5912.66
664.439	5777.49
664.631	5931.09
664.822	5779.54
665.014	5843.03
665.205	5759.06
665.397	5720.15
665.588	5716.05
665.78	5623.89
665.971	5650.52
666.163	5779.54
666.354	5636.18
666.546	5683.28
666.737	5554.26
666.929	5603.41
667.12	5470.3
667.311	5423.19
667.503	5369.94
667.694	5390.42
667.885	5386.33
668.077	5451.86
668.268	5320.79
668.459	5378.14
668.651	5277.79
668.842	5187.68
669.033	5343.32
669.224	5267.55
669.416	5159
669.607	5208.16
669.798	5056.61
669.989	4956.26
670.18	5165.15
670.371	5032.03
670.563	4970.59
670.754	5036.13
670.945	4972.64
671.136	4921.44
671.327	4935.78
671.518	4919.39
671.709	5060.7
671.9	4931.68
672.091	4956.26
672.282	4872.29
672.473	4845.66
672.664	4704.35
672.855	4714.59
673.046	4753.51
673.237	4712.55
673.428	4780.13
673.619	4794.47
673.809	4802.66
674	4726.88
674.191	4685.92
674.382	4767.84
674.573	4671.59
674.764	4845.66
674.954	4692.07
675.145	4702.31
675.336	4665.44
675.527	4552.81
675.717	4599.91
675.908	4511.85
676.099	4423.78
676.289	4425.83
676.48	4599.91
676.671	4464.74
676.861	4495.46
677.052	4479.08
677.243	4591.72
677.433	4417.64
677.624	4348.01
677.814	4479.08
678.005	4515.94
678.195	4423.78
678.386	4333.67
678.576	4384.87
678.767	4343.91
678.957	4227.18
679.148	4276.33
679.338	4331.62
679.529	4180.07
679.719	4352.1
679.909	4333.67
680.1	4245.61
680.29	4317.29
680.481	4259.95
680.671	4247.66
680.861	4157.55
681.052	4335.72
681.242	4206.7
681.432	4253.8
681.622	4309.1
681.813	4143.21
682.003	4135.02
682.193	4137.07
682.383	4188.27
682.573	4243.56
682.764	4184.17
682.954	4182.12
683.144	4132.97
683.334	4069.48
683.524	4192.36
683.714	4008.05
683.904	3991.66
684.094	4100.2
684.284	3965.04
684.474	4231.27
684.664	4128.88
684.854	4108.4
685.044	3987.57
685.234	3962.99
685.424	3938.41
685.614	3930.22
685.804	3991.66
685.994	3924.08
686.184	3889.26
686.374	3913.84
686.564	3872.88
686.753	3848.3
686.943	3774.58
687.133	3776.63
687.323	3801.2
687.513	3852.4
687.702	3756.15
687.892	3668.08
688.082	3829.87
688.272	3856.5
688.461	3653.75
688.651	3704.95
688.841	3682.42
689.03	3645.56
689.22	3743.86
689.41	3610.74
689.599	3506.29
689.789	3692.66
689.979	3494.01
690.168	3641.46
690.358	3502.2
690.547	3383.42
690.737	3477.62
690.926	3553.4
691.116	3532.92
691.305	3491.96
691.495	3440.76
691.684	3301.5
691.874	3295.35
692.063	3451
692.252	3217.53
692.442	3362.94
692.631	3229.82
692.82	3299.45
693.01	3258.49
693.199	3205.24
693.388	3192.95
693.578	3205.24
693.767	3248.25
693.956	3098.75
694.146	3162.23
694.335	3113.08
694.524	3065.98
694.713	3209.34
694.902	3119.23
695.092	3119.23
695.281	3051.64
695.47	3047.55
695.659	2982.01
695.848	3027.07
696.037	2908.29
696.226	2969.73
696.415	2941.05
696.604	2998.4
696.793	3018.88
696.982	2906.24
697.171	2924.67
697.36	3004.54
697.549	2865.28
697.738	2846.85
697.927	2834.56
698.116	2742.4
698.305	2912.38
698.494	2842.75
698.683	2787.46
698.872	2807.94
699.061	2744.45
699.25	2748.54
699.438	2842.75
699.627	2760.83
699.816	2861.18
700.005	2666.63
700.193	2670.72
700.382	2832.51
700.571	2818.18
700.76	2769.02
700.948	2861.18
701.137	2726.02
701.326	2748.54
701.514	2644.1
701.703	2693.25
701.892	2713.73
702.08	2666.63
702.269	2812.03
702.457	2549.89
702.646	2572.42
702.834	2625.67
703.023	2635.91
703.212	2713.73
703.4	2629.76
703.589	2490.5
703.777	2592.9
703.965	2564.23
704.154	2461.83
704.342	2611.33
704.531	2603.14
704.719	2457.73
704.907	2658.43
705.096	2601.09
705.284	2539.65
705.472	2592.9
705.661	2597
705.849	2572.42
706.037	2590.85
706.226	2498.69
706.414	2633.86
706.602	2500.74
706.79	2431.11
706.979	2453.64
707.167	2347.14
707.355	2572.42
707.543	2615.43
707.731	2424.97
707.919	2451.59
708.107	2441.35
708.296	2459.78
708.484	2449.54
708.672	2476.16
708.86	2431.11
709.048	2504.84
709.236	2412.68
709.424	2502.79
709.612	2545.8
709.8	2498.69
709.988	2490.5
710.176	2420.87
710.364	2457.73
710.551	2521.22
710.739	2472.07
710.927	2496.64
711.115	2543.75
711.303	2482.31
711.491	2400.39
711.679	2451.59
711.866	2457.73
712.054	2488.45
712.242	2414.73
712.43	2484.36
712.617	2537.6
712.805	2381.96
712.993	2558.08
713.181	2461.83
713.368	2470.02
713.556	2529.41
713.744	2482.31
713.931	2539.65
714.119	2424.97
714.306	2445.45
714.494	2510.98
714.682	2420.87
714.869	2474.12
715.057	2455.69
715.244	2390.15
715.432	2480.26
715.619	2701.44
715.807	2424.97
715.994	2513.03
716.182	2504.84
716.369	2562.18
716.556	2494.6
716.744	2564.23
716.931	2597
717.119	2447.49
717.306	2521.22
717.493	2420.87
717.681	2381.96
717.868	2484.36
718.055	2437.25
718.242	2603.14
718.43	2472.07
718.617	2586.76
718.804	2523.27
718.991	2584.71
719.179	2422.92
719.366	2648.19
719.553	2488.45
719.74	2535.56
719.927	2562.18
720.114	2463.88
720.301	2633.86
720.488	2502.79
720.676	2519.17
720.863	2476.16
721.05	2525.32
721.237	2523.27
721.424	2564.23
721.611	2572.42
721.798	2566.28
721.985	2580.61
722.172	2482.31
722.358	2633.86
722.545	2648.19
722.732	2590.85
722.919	2504.84
723.106	2551.94
723.293	2474.12
723.48	2498.69
723.667	2424.97
723.853	2508.93
724.04	2572.42
724.227	2576.52
724.414	2572.42
724.6	2545.8
724.787	2551.94
724.974	2560.13
725.161	2461.83
725.347	2515.08
725.534	2482.31
725.72	2523.27
725.907	2621.57
726.094	2693.25
726.28	2527.36
726.467	2445.45
726.653	2670.72
726.84	2607.23
727.027	2543.75
727.213	2568.32
727.4	2564.23
727.586	2472.07
727.773	2584.71
727.959	2586.76
728.145	2490.5
728.332	2584.71
728.518	2564.23
728.705	2541.7
728.891	2650.24
729.077	2523.27
729.264	2556.04
729.45	2646.15
729.636	2762.88
729.823	2617.47
730.009	2578.56
730.195	2582.66
730.382	2615.43
730.568	2644.1
730.754	2642.05
730.94	2592.9
731.126	2580.61
731.313	2529.41
731.499	2611.33
731.685	2650.24
731.871	2590.85
732.057	2556.04
732.243	2568.32
732.429	2613.38
732.615	2588.8
732.801	2670.72
732.987	2701.44
733.173	2547.84
733.359	2574.47
733.545	2588.8
733.731	2451.59
733.917	2631.81
734.103	2605.19
734.289	2560.13
734.475	2592.9
734.661	2525.32
734.847	2572.42
735.033	2529.41
735.219	2519.17
735.404	2623.62
735.59	2533.51
735.776	2592.9
735.962	2547.84
736.148	2568.32
736.333	2547.84
736.519	2734.21
736.705	2742.4
736.89	2437.25
737.076	2500.74
737.262	2535.56
737.447	2502.79
737.633	2551.94
737.819	2515.08
738.004	2588.8
738.19	2453.64
738.375	2513.03
738.561	2531.46
738.747	2658.43
738.932	2570.37
739.118	2480.26
739.303	2472.07
739.489	2439.3
739.674	2451.59
739.859	2535.56
740.045	2576.52
740.23	2429.06
740.416	2601.09
740.601	2390.15
740.786	2588.8
740.972	2388.1
741.157	2326.66
741.342	2363.53
741.528	2353.29
741.713	2566.28
741.898	2488.45
742.084	2461.83
742.269	2490.5
742.454	2453.64
742.639	2400.39
742.824	2400.39
743.01	2420.87
743.195	2420.87
743.38	2429.06
743.565	2379.91
743.75	2396.29
743.935	2388.1
744.12	2388.1
744.305	2302.09
744.49	2334.86
744.675	2287.75
744.86	2275.46
745.045	2287.75
745.23	2216.07
745.415	2242.7
745.6	2236.55
745.785	2091.15
745.97	2244.74
746.155	2246.79
746.34	2201.74
746.525	2152.59
746.71	2142.35
746.895	2168.97
747.079	2119.82
747.264	2230.41
747.449	2130.06
747.634	2048.14
747.819	2130.06
748.003	1972.36
748.188	1990.8
748.373	2128.01
748.557	1994.89
748.742	2017.42
748.927	1996.94
749.111	2076.81
749.296	2064.52
749.481	1943.69
749.665	2058.38
749.85	1896.59
750.034	1945.74
750.219	1992.84
750.404	1980.56
750.588	1933.45
750.773	1953.93
750.957	1888.4
751.141	1861.77
751.326	1818.77
751.51	1917.07
751.695	1847.44
751.879	1786
752.064	1841.29
752.248	1841.29
752.432	1806.48
752.617	1786
752.801	1904.78
752.985	1669.27
753.17	1775.76
753.354	1788.05
753.538	1720.46
753.722	1624.21
753.907	1661.07
754.091	1607.83
754.275	1663.12
754.459	1628.31
754.643	1587.35
754.828	1759.38
755.012	1659.03
755.196	1532.05
755.38	1632.4
755.564	1581.2
755.748	1618.07
755.932	1603.73
756.116	1534.1
756.3	1560.72
756.484	1511.57
756.668	1573.01
756.852	1478.8
757.036	1523.86
757.22	1503.38
757.404	1527.96
757.588	1505.43
757.772	1464.47
757.956	1491.09
758.14	1521.81
758.323	1417.37
758.507	1431.7
758.691	1446.04
758.875	1476.76
759.059	1405.08
759.242	1431.7
759.426	1304.73
759.61	1302.68
759.794	1286.3
759.977	1323.16
760.161	1355.93
760.345	1259.67
760.528	1314.97
760.712	1335.45
760.895	1319.06
761.079	1235.1
761.263	1263.77
761.446	1231
761.63	1302.68
761.813	1259.67
761.997	1206.42
762.18	1300.63
762.364	1214.62
762.547	1216.66
762.731	1292.44
762.914	1282.2
763.098	1196.18
763.281	1132.7
763.464	1134.75
763.648	1192.09
763.831	1183.9
764.015	1228.95
764.198	1210.52
764.381	1259.67
764.564	1210.52
764.748	1134.75
764.931	1151.13
765.114	1056.92
765.297	1167.51
765.481	1214.62
765.664	1134.75
765.847	1009.82
766.03	1149.08
766.213	1226.9
766.397	1099.93
766.58	1116.31
766.763	1013.92
766.946	1063.07
767.129	1130.65
767.312	1101.98
767.495	1108.12
767.678	1042.59
767.861	1071.26
768.044	1087.64
768.227	1065.11
768.41	1040.54
768.593	1122.46
768.776	1075.35
768.959	1040.54
769.142	991.39
769.324	1026.2
769.507	1034.39
769.69	1028.25
769.873	1028.25
770.056	1071.26
770.239	1097.88
770.421	1046.68
770.604	958.62
770.787	1028.25
770.97	975
771.152	909.47
771.335	921.76
771.518	960.67
771.7	886.94
771.883	950.43
772.066	852.13
772.248	1044.63
772.431	958.62
772.613	929.95
772.796	921.76
772.978	839.84
773.161	1056.92
773.343	907.42
773.526	901.28
773.708	895.13
773.891	901.28
774.073	925.85
774.256	884.89
774.438	850.08
774.621	888.99
774.803	897.18
774.985	848.03
775.168	774.3
775.35	749.73
775.532	835.74
775.715	817.31
775.897	839.84
776.079	819.36
776.261	764.06
776.444	815.26
776.626	860.32
776.808	762.02
776.99	741.54
777.173	807.07
777.355	727.2
777.537	686.24
777.719	739.49
777.901	790.69
778.083	704.67
778.265	671.9
778.447	737.44
778.629	682.14
778.811	759.97
778.993	735.39
779.175	719.01
779.357	682.14
779.539	686.24
779.721	729.25
779.903	719.01
780.085	686.24
780.267	645.28
780.449	700.58
780.631	690.34
780.812	659.62
780.994	643.23
781.176	622.75
781.358	719.01
781.54	571.55
781.721	639.14
781.903	561.31
782.085	587.94
782.267	622.75
782.448	587.94
782.63	514.21
782.812	569.51
782.993	571.55
783.175	555.17
783.357	637.09
783.538	589.99
783.72	465.06
783.901	559.27
784.083	520.35
784.264	536.74
784.446	473.25
784.627	573.6
784.809	585.89
784.99	493.73
785.172	503.97
785.353	524.45
785.535	454.82
785.716	540.83
785.897	497.83
786.079	585.89
786.26	528.55
786.441	569.51
786.623	434.34
786.804	508.07
786.985	514.21
787.167	463.01
787.348	481.44
787.529	436.39
787.71	520.35
787.891	473.25
788.073	487.59
788.254	409.76
788.435	446.63
788.616	405.67
788.797	407.72
788.978	434.34
789.159	399.52
789.34	399.52
789.522	391.33
789.703	356.52
789.884	446.63
790.065	465.06
790.246	403.62
790.427	442.53
790.607	409.76
790.788	389.28
790.969	409.76
791.15	401.57
791.331	420
791.512	407.72
791.693	385.19
791.874	352.42
792.054	405.67
792.235	426.15
792.416	420
792.597	387.24
792.778	342.18
792.958	485.54
793.139	340.13
793.32	313.51
793.5	348.33
793.681	379.04
793.862	364.71
794.042	344.23
794.223	317.61
794.404	321.7
794.584	262.31
794.765	276.65
794.945	336.04
795.126	366.76
795.306	331.94
795.487	313.51
795.667	358.57
795.848	364.71
796.028	305.32
796.209	254.12
796.389	235.69
796.57	241.83
796.75	319.65
796.93	319.65
797.111	344.23
797.291	315.56
797.471	309.41
797.652	307.37
797.832	311.46
798.012	340.13
798.192	379.04
798.373	336.04
798.553	368.81
798.733	315.56
798.913	196.78
799.093	301.22
799.274	268.45
799.454	235.69
799.634	286.89
799.814	293.03
799.994	309.41
800.174	280.74
800.354	338.09
800.534	325.8
800.714	319.65
800.894	276.65
801.074	202.92
801.254	245.93
801.434	268.45
801.614	241.83
801.794	231.59
801.974	592.03
802.154	229.54
802.334	286.89
802.514	194.73
802.693	202.92
802.873	174.25
803.053	241.83
803.233	327.85
803.413	276.65
803.592	262.31
803.772	256.17
803.952	196.78
804.131	204.97
804.311	245.93
804.491	186.54
804.67	166.06
804.85	235.69
805.03	315.56
805.209	153.77
805.389	211.11
805.568	161.96
805.748	250.02
805.928	219.3
806.107	258.21
806.287	186.54
806.466	190.63
806.646	288.93
806.825	178.34
807.004	247.97
807.184	229.54
807.363	184.49
807.543	178.34
807.722	235.69
807.901	192.68
808.081	198.82
808.26	209.06
808.439	145.58
808.619	268.45
808.798	250.02
808.977	207.02
809.156	161.96
809.336	194.73
809.515	250.02
809.694	237.74
809.873	94.38
810.052	161.96
810.231	192.68
810.411	180.39
810.59	164.01
810.769	223.4
810.948	190.63
811.127	202.92
811.306	256.17
811.485	149.67
811.664	192.68
811.843	196.78
812.022	200.87
812.201	131.24
812.38	174.25
812.559	161.96
812.737	139.43
812.916	178.34
813.095	182.44
813.274	192.68
813.453	225.45
813.632	147.62
813.811	155.82
813.989	71.85
814.168	233.64
814.347	94.38
814.526	225.45
814.704	118.95
814.883	129.19
815.062	86.19
815.24	166.06
815.419	151.72
815.598	176.3
815.776	192.68
815.955	112.81
816.133	118.95
816.312	164.01
816.49	127.14
816.669	174.25
816.847	155.82
817.026	170.15
817.204	94.38
817.383	209.06
817.561	151.72
817.74	98.47
817.918	86.19
818.097	168.1
818.275	114.86
818.453	153.77
818.632	153.77
818.81	145.58
818.988	145.58
819.167	202.92
819.345	90.28
819.523	153.77
819.701	159.91
819.879	121
820.058	129.19
820.236	139.43
820.414	94.38
820.592	88.23
820.77	69.8
820.948	118.95
821.127	118.95
821.305	110.76
821.483	121
821.661	108.71
821.839	80.04
822.017	84.14
822.195	112.81
822.373	106.67
822.551	135.34
822.729	133.29
822.907	88.23
823.085	108.71
823.262	96.43
823.44	137.38
823.618	112.81
823.796	51.37
823.974	123.05
824.152	90.28
824.329	164.01
824.507	180.39
824.685	118.95
824.863	129.19
825.04	127.14
825.218	209.06
825.396	71.85
825.574	108.71
825.751	147.62
825.929	82.09
826.107	6.31
826.284	61.61
826.462	125.1
826.639	194.73
826.817	63.66
826.994	176.3
827.172	129.19
827.349	49.32
827.527	49.32
827.704	121
827.882	131.24
828.059	88.23
828.237	135.34
828.414	133.29
828.591	55.47
828.769	125.1
828.946	104.62
829.124	147.62
829.301	94.38
829.478	102.57
829.655	121
829.833	24.75
830.01	80.04
830.187	149.67
830.364	37.03
830.542	121
830.719	135.34
830.896	84.14
831.073	155.82
831.25	65.71
831.427	80.04
831.604	147.62
831.782	104.62
831.959	57.51
832.136	94.38
832.313	71.85
832.49	137.38
832.667	172.2
832.844	100.52
833.021	118.95
833.198	92.33
833.374	116.9
833.551	49.32
833.728	141.48
833.905	114.86
834.082	53.42
834.259	129.19
834.436	45.23
834.612	37.03
834.789	118.95
834.966	-22.36
835.143	96.43
835.319	73.9
835.496	102.57
835.673	116.9
835.85	166.06
836.026	39.08
836.203	49.32
836.38	57.51
836.556	34.99
836.733	-8.02
836.909	110.76
837.086	65.71
837.262	39.08
837.439	39.08
837.616	88.23
837.792	90.28
837.968	14.51
838.145	51.37
838.321	47.27
838.498	67.75
838.674	20.65
838.851	14.51
839.027	118.95
839.203	84.14
839.38	20.65
839.556	88.23
839.732	55.47
839.909	69.8
840.085	88.23
840.261	-30.55
840.437	41.13
840.614	14.51
840.79	73.9
840.966	41.13
841.142	69.8
841.318	86.19
841.494	106.67
841.671	39.08
841.847	45.23
842.023	82.09
842.199	55.47
842.375	75.95
842.551	49.32
842.727	4.27
842.903	86.19
843.079	57.51
843.255	32.94
843.431	71.85
843.607	14.51
843.783	-59.22
843.959	80.04
844.134	-3.93
844.31	-12.12
844.486	43.18
844.662	2.22
844.838	84.14
845.013	0.17
845.189	39.08
845.365	8.36
845.541	55.47
845.716	131.24
845.892	86.19
846.068	86.19
846.244	4.27
846.419	51.37
846.595	-3.93
846.77	10.41
846.946	88.23
847.122	49.32
847.297	-18.26
847.473	123.05
847.648	67.75
847.824	26.79
847.999	22.7
848.175	20.65
848.35	32.94
848.526	41.13
848.701	2.22
848.876	71.85
849.052	-8.02
849.227	61.61
849.403	8.36
849.578	2.22
849.753	-16.21
849.929	32.94
850.104	57.51
850.279	30.89
850.454	51.37
850.63	41.13
850.805	69.8
850.98	28.84
851.155	10.41
851.33	69.8
851.505	-57.17
851.681	41.13
851.856	92.33
852.031	41.13
852.206	4.27
852.381	20.65
852.556	8.36
852.731	20.65
852.906	61.61
853.081	0.17
853.256	61.61
853.431	18.6
853.606	53.42
853.781	37.03
853.956	-28.5
854.131	4.27
854.305	-22.36
854.48	34.99
854.655	-3.93
854.83	26.79
855.005	82.09
855.18	57.51
855.354	45.23
855.529	30.89
855.704	-24.4
855.879	77.99
856.053	-42.84
856.228	16.55
856.403	-5.97
856.577	-28.5
856.752	12.46
856.926	-24.4
857.101	-48.98
857.276	8.36
857.45	4.27
857.625	4.27
857.799	26.79
857.974	86.19
858.148	-65.36
858.323	-20.31
858.497	6.31
858.672	26.79
858.846	-16.21
859.02	14.51
859.195	47.27
859.369	41.13
859.543	0.17
859.718	34.99
859.892	34.99
860.066	47.27
860.241	-10.07
860.415	41.13
860.589	-24.4
860.763	41.13
860.938	8.36
861.112	49.32
861.286	65.71
861.46	53.42
861.634	-3.93
861.808	47.27
861.982	18.6
862.157	0.17
862.331	28.84
862.505	-12.12
862.679	-24.4
862.853	2.22
863.027	41.13
863.201	6.31
863.375	45.23
863.549	-1.88
863.722	-104.28
863.896	30.89
864.07	-61.27
864.244	16.55
864.418	4.27
864.592	73.9
864.766	55.47
864.939	-10.07
865.113	-24.4
865.287	16.55
865.461	16.55
865.634	-14.17
865.808	24.75
865.982	-20.31
866.156	32.94
866.329	-48.98
866.503	41.13
866.676	39.08
866.85	30.89
867.024	-51.03
867.197	65.71
867.371	45.23
867.544	57.51
867.718	55.47
867.891	30.89
868.065	16.55
868.238	24.75
868.412	59.56
868.585	49.32
868.759	6.31
868.932	12.46
869.105	0.17
869.279	26.79
869.452	-14.17
869.625	-12.12
869.799	57.51
869.972	8.36
870.145	22.7
870.319	45.23
870.492	-3.93
870.665	43.18
870.838	28.84
871.011	-8.02
871.185	-16.21
871.358	-18.26
871.531	30.89
871.704	-30.55
871.877	49.32
872.05	24.75
872.223	-20.31
872.396	14.51
872.569	-22.36
872.742	8.36
872.915	0.17
873.088	39.08
873.261	-24.4
873.434	2.22
873.607	8.36
873.78	-44.88
873.953	-20.31
874.126	61.61
874.299	49.32
874.471	-63.32
874.644	-53.08
874.817	57.51
874.99	8.36
875.163	-46.93
875.335	67.75
875.508	18.6
875.681	32.94
875.853	-24.4
876.026	49.32
876.199	-48.98
876.371	-65.36
876.544	-55.12
876.717	2.22
876.889	16.55
877.062	53.42
877.234	-16.21
877.407	12.46
877.579	6.31
877.752	0.17
877.924	47.27
878.097	75.95
878.269	-34.64
878.442	57.51
878.614	8.36
878.786	47.27
878.959	18.6
879.131	41.13
879.303	-53.08
879.476	32.94
879.648	6.31
879.82	14.51
879.993	-40.79
880.165	41.13
880.337	-8.02
880.509	-34.64
880.681	-44.88
880.854	63.66
881.026	39.08
881.198	-12.12
881.37	34.99
881.542	-24.4
881.714	32.94
881.886	-65.36
882.058	-61.27
882.23	28.84
882.402	8.36
882.574	-34.64
882.746	-5.97
882.918	-16.21
883.09	6.31
883.262	26.79
883.434	-24.4
883.606	-51.03
883.778	8.36
883.95	84.14
884.122	-16.21
884.293	51.37
884.465	-20.31
884.637	-12.12
884.809	-1.88
884.98	-53.08
885.152	32.94
885.324	-22.36
885.496	45.23
885.667	6.31
885.839	-22.36
886.011	-18.26
886.182	-32.6
886.354	30.89
886.525	-53.08
886.697	39.08
886.869	2.22
887.04	16.55
887.212	2.22
887.383	-24.4
887.555	-8.02
887.726	-22.36
887.897	-18.26
888.069	-28.5
888.24	-48.98
888.412	-1.88
888.583	-30.55
888.754	39.08
888.926	16.55
889.097	-14.17
889.268	28.84
889.44	65.71
889.611	-22.36
889.782	12.46
889.953	-34.64
890.125	12.46
890.296	-71.51
890.467	-28.5
890.638	47.27
890.809	8.36
890.98	0.17
891.151	-40.79
891.323	8.36
891.494	-51.03
891.665	0.17
891.836	-10.07
892.007	-40.79
892.178	-57.17
892.349	39.08
892.52	16.55
892.691	-28.5
892.862	-20.31
893.032	-34.64
893.203	61.61
893.374	-16.21
893.545	8.36
893.716	2.22
893.887	16.55
894.057	-14.17
894.228	-42.84
894.399	-36.69
894.57	4.27
894.74	-26.45
894.911	-3.93
895.082	-22.36
895.253	-36.69
895.423	-26.45
895.594	-3.93
895.764	4.27
895.935	-18.26
896.106	-16.21
896.276	-55.12
896.447	-63.32
896.617	-42.84
896.788	0.17
896.958	20.65
897.129	4.27
897.299	-26.45
897.47	2.22
897.64	-34.64
897.81	32.94
897.981	-53.08
898.151	20.65
898.322	-34.64
898.492	-73.56
898.662	-12.12
898.832	-26.45
899.003	14.51
899.173	55.47
899.343	-46.93
899.513	-63.32
