Data from USB4F104151__56__11-37-21-261.txt Node

Date: Fri Mar 14 11:37:21 EDT 2025
User: louis
Spectrometer: USB4F10415
Trigger mode: 4
Integration Time (sec): 2.000000E-2
Scans to average: 1
Electric dark correction enabled: true
Nonlinearity correction enabled: false
Boxcar width: 0
XAxis mode: Wavelengths
Number of Pixels in Spectrum: 3648
>>>>>Begin Spectral Data<<<<<
178.204	-69.46
178.424	-69.46
178.644	-69.46
178.864	8.36
179.084	-32.6
179.304	-59.22
179.524	-10.07
179.744	18.6
179.964	49.32
180.184	-44.88
180.404	41.13
180.624	8.36
180.844	-14.17
181.064	10.41
181.283	55.47
181.503	-40.79
181.723	-14.17
181.943	-24.4
182.163	61.61
182.383	63.66
182.602	49.32
182.822	-24.4
183.042	32.94
183.262	61.61
183.482	6.31
183.701	-3.93
183.921	8.36
184.141	28.84
184.361	49.32
184.58	-48.98
184.8	-36.69
185.02	61.61
185.239	90.28
185.459	32.94
185.679	-38.74
185.898	22.7
186.118	90.28
186.338	4.27
186.557	14.51
186.777	-24.4
186.997	10.41
187.216	49.32
187.436	28.84
187.655	67.75
187.875	88.23
188.095	63.66
188.314	34.99
188.534	73.9
188.753	41.13
188.973	61.61
189.192	43.18
189.412	-26.45
189.631	-1.88
189.851	49.32
190.07	8.36
190.29	-18.26
190.509	32.94
190.729	49.32
190.948	69.8
191.168	116.9
191.387	51.37
191.607	18.6
191.826	92.33
192.045	59.56
192.265	39.08
192.484	6.31
192.704	0.17
192.923	12.46
193.142	90.28
193.362	47.27
193.581	20.65
193.8	63.66
194.02	41.13
194.239	10.41
194.458	-12.12
194.678	26.79
194.897	-20.31
195.116	55.47
195.335	98.47
195.555	49.32
195.774	45.23
195.993	71.85
196.212	55.47
196.432	22.7
196.651	14.51
196.87	57.51
197.089	37.03
197.308	-3.93
197.528	51.37
197.747	-55.12
197.966	65.71
198.185	57.51
198.404	69.8
198.623	32.94
198.842	75.95
199.062	-1.88
199.281	4.27
199.5	51.37
199.719	75.95
199.938	-14.17
200.157	12.46
200.376	32.94
200.595	77.99
200.814	32.94
201.033	57.51
201.252	-32.6
201.471	98.47
201.69	61.61
201.909	53.42
202.128	53.42
202.347	14.51
202.566	6.31
202.785	53.42
203.004	-3.93
203.223	51.37
203.442	90.28
203.661	22.7
203.879	61.61
204.098	71.85
204.317	37.03
204.536	20.65
204.755	39.08
204.974	67.75
205.193	26.79
205.411	57.51
205.63	-1.88
205.849	24.75
206.068	34.99
206.287	37.03
206.505	22.7
206.724	73.9
206.943	6.31
207.162	73.9
207.381	73.9
207.599	45.23
207.818	63.66
208.037	30.89
208.255	86.19
208.474	0.17
208.693	121
208.911	34.99
209.13	-16.21
209.349	71.85
209.567	24.75
209.786	37.03
210.005	28.84
210.223	69.8
210.442	16.55
210.661	24.75
210.879	82.09
211.098	47.27
211.316	84.14
211.535	129.19
211.753	90.28
211.972	32.94
212.191	34.99
212.409	14.51
212.628	-38.74
212.846	-14.17
213.065	67.75
213.283	10.41
213.502	-18.26
213.72	57.51
213.938	-20.31
214.157	28.84
214.375	10.41
214.594	43.18
214.812	73.9
215.031	80.04
215.249	8.36
215.467	47.27
215.686	55.47
215.904	84.14
216.122	65.71
216.341	24.75
216.559	43.18
216.778	10.41
216.996	45.23
217.214	0.17
217.432	12.46
217.651	41.13
217.869	92.33
218.087	71.85
218.306	-5.97
218.524	88.23
218.742	4.27
218.96	8.36
219.179	-20.31
219.397	22.7
219.615	139.43
219.833	-10.07
220.051	22.7
220.27	71.85
220.488	28.84
220.706	41.13
220.924	41.13
221.142	94.38
221.36	-42.84
221.578	-5.97
221.796	-5.97
222.015	55.47
222.233	61.61
222.451	82.09
222.669	-40.79
222.887	98.47
223.105	90.28
223.323	90.28
223.541	30.89
223.759	69.8
223.977	49.32
224.195	45.23
224.413	43.18
224.631	-30.55
224.849	49.32
225.067	147.62
225.285	-10.07
225.503	65.71
225.721	-3.93
225.939	43.18
226.157	-3.93
226.375	118.95
226.592	-3.93
226.81	94.38
227.028	59.56
227.246	53.42
227.464	24.75
227.682	39.08
227.9	51.37
228.117	8.36
228.335	22.7
228.553	-24.4
228.771	106.67
228.989	24.75
229.206	53.42
229.424	37.03
229.642	-1.88
229.86	22.7
230.077	47.27
230.295	82.09
230.513	8.36
230.731	30.89
230.948	57.51
231.166	47.27
231.384	2.22
231.601	63.66
231.819	65.71
232.037	43.18
232.254	-79.7
232.472	16.55
232.689	22.7
232.907	86.19
233.125	-14.17
233.342	32.94
233.56	20.65
233.777	14.51
233.995	10.41
234.213	123.05
234.43	190.63
234.648	53.42
234.865	24.75
235.083	20.65
235.3	37.03
235.518	2.22
235.735	22.7
235.953	34.99
236.17	20.65
236.388	6.31
236.605	41.13
236.822	102.57
237.04	88.23
237.257	32.94
237.475	10.41
237.692	94.38
237.909	45.23
238.127	32.94
238.344	12.46
238.562	28.84
238.779	28.84
238.996	8.36
239.214	98.47
239.431	57.51
239.648	-55.12
239.865	-8.02
240.083	30.89
240.3	47.27
240.517	47.27
240.735	47.27
240.952	82.09
241.169	16.55
241.386	-3.93
241.603	24.75
241.821	43.18
242.038	49.32
242.255	123.05
242.472	28.84
242.689	57.51
242.907	45.23
243.124	-14.17
243.341	12.46
243.558	28.84
243.775	26.79
243.992	45.23
244.209	34.99
244.426	71.85
244.643	121
244.86	-26.45
245.078	53.42
245.295	6.31
245.512	75.95
245.729	-28.5
245.946	8.36
246.163	102.57
246.38	53.42
246.597	73.9
246.814	14.51
247.031	88.23
247.248	45.23
247.464	53.42
247.681	30.89
247.898	67.75
248.115	69.8
248.332	-12.12
248.549	16.55
248.766	-5.97
248.983	65.71
249.2	43.18
249.417	106.67
249.633	8.36
249.85	155.82
250.067	75.95
250.284	41.13
250.501	39.08
250.717	30.89
250.934	16.55
251.151	34.99
251.368	61.61
251.585	14.51
251.801	86.19
252.018	67.75
252.235	39.08
252.451	65.71
252.668	-5.97
252.885	88.23
253.102	51.37
253.318	69.8
253.535	-3.93
253.752	22.7
253.968	-30.55
254.185	18.6
254.401	-16.21
254.618	86.19
254.835	8.36
255.051	75.95
255.268	20.65
255.484	96.43
255.701	8.36
255.917	24.75
256.134	-1.88
256.351	4.27
256.567	86.19
256.784	71.85
257	32.94
257.217	71.85
257.433	41.13
257.65	-26.45
257.866	59.56
258.082	-24.4
258.299	14.51
258.515	82.09
258.732	49.32
258.948	-51.03
259.165	92.33
259.381	45.23
259.597	41.13
259.814	30.89
260.03	41.13
260.246	47.27
260.463	14.51
260.679	84.14
260.895	82.09
261.112	127.14
261.328	2.22
261.544	53.42
261.761	166.06
261.977	-48.98
262.193	24.75
262.409	84.14
262.626	16.55
262.842	16.55
263.058	49.32
263.274	-12.12
263.49	-16.21
263.707	94.38
263.923	16.55
264.139	49.32
264.355	49.32
264.571	73.9
264.787	8.36
265.004	22.7
265.22	32.94
265.436	8.36
265.652	8.36
265.868	84.14
266.084	57.51
266.3	106.67
266.516	47.27
266.732	92.33
266.948	69.8
267.164	12.46
267.38	18.6
267.596	112.81
267.812	32.94
268.028	30.89
268.244	43.18
268.46	57.51
268.676	65.71
268.892	82.09
269.108	16.55
269.324	24.75
269.54	-18.26
269.756	0.17
269.972	-3.93
270.188	-24.4
270.403	32.94
270.619	-18.26
270.835	22.7
271.051	-20.31
271.267	51.37
271.483	24.75
271.698	88.23
271.914	-5.97
272.13	49.32
272.346	34.99
272.562	34.99
272.777	30.89
272.993	63.66
273.209	-12.12
273.425	51.37
273.64	-26.45
273.856	-44.88
274.072	57.51
274.287	57.51
274.503	84.14
274.719	98.47
274.934	47.27
275.15	39.08
275.366	22.7
275.581	-24.4
275.797	65.71
276.012	53.42
276.228	49.32
276.444	0.17
276.659	47.27
276.875	10.41
277.09	73.9
277.306	94.38
277.521	137.38
277.737	30.89
277.952	8.36
278.168	6.31
278.383	75.95
278.599	30.89
278.814	71.85
279.03	28.84
279.245	43.18
279.461	63.66
279.676	116.9
279.892	49.32
280.107	57.51
280.322	6.31
280.538	80.04
280.753	-18.26
280.969	-5.97
281.184	69.8
281.399	41.13
281.615	8.36
281.83	43.18
282.045	32.94
282.26	-3.93
282.476	8.36
282.691	96.43
282.906	34.99
283.122	16.55
283.337	-32.6
283.552	67.75
283.767	0.17
283.983	32.94
284.198	34.99
284.413	88.23
284.628	-16.21
284.843	98.47
285.058	32.94
285.274	37.03
285.489	49.32
285.704	65.71
285.919	-3.93
286.134	106.67
286.349	26.79
286.564	-32.6
286.779	65.71
286.995	37.03
287.21	114.86
287.425	6.31
287.64	65.71
287.855	63.66
288.07	6.31
288.285	26.79
288.5	45.23
288.715	-3.93
288.93	28.84
289.145	110.76
289.36	24.75
289.575	16.55
289.79	53.42
290.004	55.47
290.219	37.03
290.434	63.66
290.649	26.79
290.864	24.75
291.079	22.7
291.294	32.94
291.509	-24.4
291.724	127.14
291.938	73.9
292.153	41.13
292.368	34.99
292.583	94.38
292.798	53.42
293.012	65.71
293.227	65.71
293.442	96.43
293.657	65.71
293.871	73.9
294.086	61.61
294.301	41.13
294.516	92.33
294.73	141.48
294.945	16.55
295.16	45.23
295.374	30.89
295.589	28.84
295.804	2.22
296.018	51.37
296.233	114.86
296.447	59.56
296.662	12.46
296.877	14.51
297.091	14.51
297.306	65.71
297.52	10.41
297.735	67.75
297.949	30.89
298.164	47.27
298.378	75.95
298.593	82.09
298.807	32.94
299.022	34.99
299.236	8.36
299.451	-32.6
299.665	32.94
299.88	32.94
300.094	24.75
300.309	43.18
300.523	-36.69
300.737	49.32
300.952	63.66
301.166	28.84
301.381	2.22
301.595	24.75
301.809	14.51
302.024	55.47
302.238	55.47
302.452	108.71
302.667	24.75
302.881	118.95
303.095	112.81
303.309	41.13
303.524	86.19
303.738	-14.17
303.952	-3.93
304.166	41.13
304.381	-16.21
304.595	94.38
304.809	92.33
305.023	106.67
305.237	-67.41
305.452	16.55
305.666	12.46
305.88	49.32
306.094	80.04
306.308	14.51
306.522	-3.93
306.736	32.94
306.95	-22.36
307.164	20.65
307.379	18.6
307.593	65.71
307.807	-3.93
308.021	4.27
308.235	12.46
308.449	32.94
308.663	-53.08
308.877	88.23
309.091	59.56
309.305	71.85
309.519	28.84
309.733	51.37
309.947	26.79
310.161	-12.12
310.374	51.37
310.588	125.1
310.802	-24.4
311.016	-8.02
311.23	20.65
311.444	12.46
311.658	-14.17
311.872	145.58
312.085	82.09
312.299	39.08
312.513	14.51
312.727	51.37
312.941	-28.5
313.154	90.28
313.368	6.31
313.582	-3.93
313.796	57.51
314.009	41.13
314.223	20.65
314.437	84.14
314.651	73.9
314.864	-1.88
315.078	22.7
315.292	14.51
315.505	20.65
315.719	32.94
315.933	41.13
316.146	-1.88
316.36	-20.31
316.573	22.7
316.787	73.9
317.001	118.95
317.214	73.9
317.428	43.18
317.641	86.19
317.855	18.6
318.068	41.13
318.282	57.51
318.495	82.09
318.709	4.27
318.922	80.04
319.136	10.41
319.349	12.46
319.563	28.84
319.776	34.99
319.99	65.71
320.203	28.84
320.417	55.47
320.63	71.85
320.843	47.27
321.057	-5.97
321.27	45.23
321.483	49.32
321.697	45.23
321.91	-8.02
322.124	41.13
322.337	6.31
322.55	98.47
322.763	77.99
322.977	47.27
323.19	41.13
323.403	69.8
323.617	71.85
323.83	43.18
324.043	6.31
324.256	92.33
324.469	26.79
324.683	4.27
324.896	18.6
325.109	37.03
325.322	82.09
325.535	96.43
325.748	45.23
325.962	14.51
326.175	26.79
326.388	49.32
326.601	172.2
326.814	-1.88
327.027	28.84
327.24	65.71
327.453	-57.17
327.666	32.94
327.879	24.75
328.092	59.56
328.305	114.86
328.518	6.31
328.731	28.84
328.944	28.84
329.157	90.28
329.37	28.84
329.583	24.75
329.796	123.05
330.009	55.47
330.222	-10.07
330.435	30.89
330.648	45.23
330.861	57.51
331.073	41.13
331.286	51.37
331.499	18.6
331.712	86.19
331.925	6.31
332.138	71.85
332.35	37.03
332.563	49.32
332.776	53.42
332.989	41.13
333.202	16.55
333.414	-8.02
333.627	34.99
333.84	61.61
334.053	61.61
334.265	77.99
334.478	28.84
334.691	63.66
334.903	26.79
335.116	24.75
335.329	86.19
335.541	37.03
335.754	69.8
335.966	80.04
336.179	77.99
336.392	59.56
336.604	18.6
336.817	63.66
337.029	88.23
337.242	77.99
337.454	26.79
337.667	10.41
337.88	88.23
338.092	37.03
338.305	108.71
338.517	61.61
338.729	65.71
338.942	133.29
339.154	16.55
339.367	-8.02
339.579	30.89
339.792	41.13
340.004	55.47
340.217	57.51
340.429	-16.21
340.641	10.41
340.854	65.71
341.066	22.7
341.278	84.14
341.491	63.66
341.703	51.37
341.915	86.19
342.128	51.37
342.34	-1.88
342.552	114.86
342.764	-40.79
342.977	18.6
343.189	49.32
343.401	34.99
343.613	30.89
343.826	61.61
344.038	37.03
344.25	86.19
344.462	16.55
344.674	90.28
344.886	51.37
345.099	96.43
345.311	77.99
345.523	94.38
345.735	-28.5
345.947	59.56
346.159	45.23
346.371	41.13
346.583	55.47
346.795	92.33
347.007	94.38
347.219	37.03
347.431	6.31
347.643	98.47
347.855	16.55
348.067	-18.26
348.279	-16.21
348.491	-24.4
348.703	84.14
348.915	-24.4
349.127	12.46
349.339	75.95
349.551	28.84
349.763	110.76
349.975	4.27
350.187	84.14
350.399	55.47
350.61	102.57
350.822	14.51
351.034	8.36
351.246	55.47
351.458	61.61
351.669	39.08
351.881	43.18
352.093	102.57
352.305	102.57
352.517	69.8
352.728	106.67
352.94	0.17
353.152	41.13
353.363	26.79
353.575	63.66
353.787	49.32
353.999	82.09
354.21	49.32
354.422	-12.12
354.633	63.66
354.845	22.7
355.057	69.8
355.268	82.09
355.48	-8.02
355.692	30.89
355.903	41.13
356.115	53.42
356.326	98.47
356.538	98.47
356.749	32.94
356.961	121
357.172	73.9
357.384	82.09
357.595	114.86
357.807	-18.26
358.018	49.32
358.23	77.99
358.441	98.47
358.653	20.65
358.864	26.79
359.075	65.71
359.287	106.67
359.498	63.66
359.709	30.89
359.921	28.84
360.132	84.14
360.344	51.37
360.555	100.52
360.766	37.03
360.977	-40.79
361.189	112.81
361.4	127.14
361.611	65.71
361.823	69.8
362.034	118.95
362.245	-1.88
362.456	59.56
362.667	-16.21
362.879	57.51
363.09	10.41
363.301	49.32
363.512	-40.79
363.723	-18.26
363.935	45.23
364.146	102.57
364.357	37.03
364.568	106.67
364.779	37.03
364.99	75.95
365.201	49.32
365.412	88.23
365.623	28.84
365.834	41.13
366.045	84.14
366.256	57.51
366.467	39.08
366.678	45.23
366.889	45.23
367.1	-10.07
367.311	43.18
367.522	43.18
367.733	77.99
367.944	84.14
368.155	47.27
368.366	49.32
368.577	14.51
368.788	110.76
368.999	59.56
369.209	14.51
369.42	69.8
369.631	88.23
369.842	28.84
370.053	20.65
370.264	112.81
370.474	37.03
370.685	57.51
370.896	14.51
371.107	123.05
371.317	43.18
371.528	28.84
371.739	80.04
371.95	118.95
372.16	69.8
372.371	59.56
372.582	53.42
372.792	47.27
373.003	-48.98
373.214	49.32
373.424	86.19
373.635	80.04
373.846	61.61
374.056	49.32
374.267	53.42
374.477	88.23
374.688	-57.17
374.898	-26.45
375.109	127.14
375.319	45.23
375.53	98.47
375.74	55.47
375.951	112.81
376.161	71.85
376.372	168.1
376.582	104.62
376.793	-32.6
377.003	59.56
377.214	90.28
377.424	0.17
377.635	49.32
377.845	20.65
378.055	65.71
378.266	22.7
378.476	39.08
378.686	69.8
378.897	133.29
379.107	22.7
379.317	26.79
379.528	86.19
379.738	180.39
379.948	80.04
380.158	92.33
380.369	73.9
380.579	45.23
380.789	16.55
380.999	-12.12
381.21	121
381.42	106.67
381.63	-3.93
381.84	153.77
382.05	71.85
382.261	75.95
382.471	65.71
382.681	67.75
382.891	45.23
383.101	98.47
383.311	51.37
383.521	57.51
383.731	67.75
383.941	77.99
384.151	26.79
384.361	127.14
384.571	69.8
384.781	69.8
384.991	112.81
385.201	108.71
385.411	69.8
385.621	28.84
385.831	14.51
386.041	100.52
386.251	45.23
386.461	106.67
386.671	32.94
386.881	65.71
387.091	61.61
387.301	118.95
387.511	30.89
387.72	127.14
387.93	26.79
388.14	32.94
388.35	77.99
388.56	86.19
388.769	12.46
388.979	73.9
389.189	131.24
389.399	53.42
389.609	75.95
389.818	63.66
390.028	106.67
390.238	28.84
390.447	86.19
390.657	102.57
390.867	82.09
391.076	71.85
391.286	77.99
391.496	65.71
391.705	90.28
391.915	80.04
392.125	104.62
392.334	69.8
392.544	94.38
392.753	84.14
392.963	51.37
393.172	108.71
393.382	57.51
393.591	73.9
393.801	30.89
394.01	86.19
394.22	20.65
394.429	59.56
394.639	82.09
394.848	49.32
395.058	92.33
395.267	114.86
395.477	131.24
395.686	100.52
395.895	53.42
396.105	82.09
396.314	94.38
396.524	137.38
396.733	80.04
396.942	217.26
397.152	125.1
397.361	82.09
397.57	28.84
397.78	77.99
397.989	104.62
398.198	141.48
398.407	147.62
398.617	121
398.826	77.99
399.035	164.01
399.244	106.67
399.453	170.15
399.663	114.86
399.872	137.38
400.081	114.86
400.29	157.86
400.499	114.86
400.708	96.43
400.917	131.24
401.127	114.86
401.336	157.86
401.545	110.76
401.754	184.49
401.963	116.9
402.172	147.62
402.381	118.95
402.59	147.62
402.799	155.82
403.008	229.54
403.217	112.81
403.426	127.14
403.635	186.54
403.844	131.24
404.053	157.86
404.262	215.21
404.471	139.43
404.68	196.78
404.888	233.64
405.097	90.28
405.306	143.53
405.515	204.97
405.724	137.38
405.933	229.54
406.142	155.82
406.35	223.4
406.559	168.1
406.768	204.97
406.977	256.17
407.185	295.08
407.394	290.98
407.603	180.39
407.812	196.78
408.02	229.54
408.229	260.26
408.438	233.64
408.646	139.43
408.855	243.88
409.064	256.17
409.272	239.78
409.481	270.5
409.69	266.41
409.898	401.57
410.107	293.03
410.315	336.04
410.524	340.13
410.733	336.04
410.941	323.75
411.15	407.72
411.358	483.49
411.567	417.96
411.775	323.75
411.984	368.81
412.192	430.24
412.401	411.81
412.609	434.34
412.818	538.79
413.026	508.07
413.234	620.71
413.443	471.2
413.651	596.13
413.86	639.14
414.068	583.84
414.276	559.27
414.485	692.38
414.693	678.05
414.901	692.38
415.11	612.51
415.318	825.5
415.526	737.44
415.734	723.1
415.943	827.55
416.151	839.84
416.359	915.61
416.567	964.76
416.776	917.66
416.984	989.34
417.192	1048.73
417.4	1011.87
417.608	1024.16
417.817	1052.83
418.025	1038.49
418.233	1208.47
418.441	1202.33
418.649	1292.44
418.857	1323.16
419.065	1384.6
419.273	1349.78
419.481	1360.02
419.689	1441.94
419.897	1499.28
420.105	1513.62
420.313	1648.79
420.521	1577.11
420.729	1796.24
420.937	1751.18
421.145	1736.85
421.353	1974.41
421.561	2076.81
421.769	2048.14
421.977	2166.92
422.185	2064.52
422.393	2234.5
422.601	2275.46
422.809	2316.42
423.017	2306.18
423.224	2527.36
423.432	2586.76
423.64	2646.15
423.848	2840.7
424.056	2785.41
424.263	2986.11
424.471	3035.26
424.679	3096.7
424.887	3102.84
425.094	3358.84
425.302	3238.01
425.51	3442.81
425.718	3586.16
425.925	3524.72
426.133	3686.51
426.341	3715.19
426.548	4071.53
426.756	3940.46
426.964	4190.31
427.171	4403.3
427.379	4452.45
427.586	4546.66
427.794	4579.43
428.001	4804.71
428.209	5025.89
428.417	5156.96
428.624	5458.01
428.832	5408.86
429.039	5238.87
429.247	5376.09
429.454	5970
429.662	6215.76
429.869	5957.71
430.076	6342.73
430.284	6164.56
430.491	6273.1
430.699	6811.71
430.906	6781
431.114	6740.04
431.321	7020.61
431.528	7155.77
431.736	7776.31
431.943	8214.57
432.15	7802.93
432.358	7868.47
432.565	8282.16
432.772	8423.47
432.979	8755.24
433.187	8792.1
433.394	8828.96
433.601	9484.31
433.808	9459.74
434.016	9289.76
434.223	9662.49
434.43	10690.57
434.637	10450.96
434.844	10829.83
435.052	11190.27
435.259	10950.66
435.466	10999.81
435.673	10811.4
435.88	11603.96
436.087	12210.16
436.294	12296.18
436.501	12015.6
436.708	12328.94
436.915	12795.88
437.122	13170.66
437.329	13420.51
437.537	13567.96
437.743	13891.54
437.95	13713.37
438.157	14647.24
438.364	14966.73
438.571	14884.81
438.778	15081.41
438.985	16514.99
439.192	15714.23
439.399	16451.5
439.606	16164.79
439.813	16883.63
440.02	17987.48
440.227	17649.57
440.433	17239.97
440.64	17889.18
440.847	17831.83
441.054	18317.2
441.261	19578.75
441.467	19244.93
441.674	19507.07
441.881	20455.28
442.088	20277.11
442.294	20291.45
442.501	20813.68
442.708	21180.26
442.914	21722.98
443.121	22632.27
443.328	22347.61
443.534	23877.44
443.741	23129.93
443.948	22918.99
444.154	24745.78
444.361	24172.35
444.568	24391.48
444.774	24448.82
444.981	24889.13
445.187	25376.55
445.394	26615.57
445.6	26224.41
445.807	28915.44
446.013	27660.04
446.22	27977.47
446.426	28798.71
446.633	29353.71
446.839	30199.52
447.046	28944.11
447.252	30539.48
447.459	30885.59
447.665	30451.42
447.871	32241.34
448.078	33095.35
448.284	31323.85
448.491	32425.66
448.697	34057.89
448.903	34203.3
449.11	34309.79
449.316	33664.68
449.522	34551.45
449.728	35438.22
449.935	35470.99
450.141	35677.83
450.347	36609.66
450.553	35456.65
450.76	35630.73
450.966	36873.85
451.172	36552.32
451.378	37299.83
451.584	36724.35
451.791	37484.14
451.997	37504.62
452.203	38096.49
452.409	37932.65
452.615	37766.76
452.821	36202.11
453.027	36042.37
453.233	38063.72
453.44	36609.66
453.646	36976.25
453.852	36984.44
454.058	37645.93
454.264	36200.07
454.47	37332.59
454.676	36484.73
454.882	38162.02
455.088	34485.92
455.294	35128.98
455.5	35286.67
455.705	35833.48
455.911	34188.96
456.117	33539.75
456.323	33269.42
456.529	31573.7
456.735	32837.3
456.941	31985.35
457.147	31166.16
457.352	30623.45
457.558	30226.14
457.764	30191.33
457.97	29527.78
458.176	29189.87
458.381	29130.48
458.587	27651.84
458.793	27787.01
458.999	26218.27
459.204	27901.7
459.41	27191.05
459.616	25370.41
459.821	25691.94
460.027	25349.93
460.233	24524.6
460.438	23615.3
460.644	24020.8
460.85	23031.63
461.055	22431.57
461.261	22339.41
461.466	20684.66
461.672	20125.56
461.878	21628.77
462.083	19980.15
462.289	20008.83
462.494	19478.4
462.7	18728.84
462.905	18096.02
463.111	19120.01
463.316	19019.66
463.522	18352.02
463.727	18499.47
463.932	18435.99
464.138	18227.09
464.343	18155.41
464.549	18001.82
464.754	18587.54
464.959	18032.54
465.165	18251.67
465.37	17395.62
465.575	17020.84
465.781	17528.74
465.986	17807.26
466.191	17022.89
466.397	16732.08
466.602	15910.84
466.807	16525.23
467.012	16439.22
467.218	16482.22
467.423	15959.99
467.628	16322.48
467.833	16605.1
468.038	16404.4
468.244	15826.87
468.449	16670.64
468.654	16070.58
468.859	16140.21
469.064	15751.1
469.269	15253.44
469.474	15493.05
469.679	15660.99
469.885	15044.55
470.09	15491.01
470.295	15196.1
470.5	14702.54
470.705	14993.35
470.91	14788.55
471.115	14399.44
471.32	14680.01
471.525	14675.91
471.73	14221.27
471.935	14163.92
472.139	13735.9
472.344	13961.17
472.549	13899.73
472.754	13836.25
472.959	13529.05
473.164	13025.25
473.369	12998.63
473.574	13613.02
473.778	13139.94
473.983	13299.68
474.188	13135.84
474.393	12449.77
474.598	12513.26
474.802	12398.57
475.007	12388.33
475.212	12296.18
475.417	11780.09
475.621	11882.49
475.826	11968.5
476.031	11616.25
476.235	11591.67
476.44	11878.39
476.645	11487.23
476.849	11485.18
477.054	11362.3
477.259	11134.98
477.463	11298.81
477.668	10911.75
477.872	10979.33
478.077	10792.97
478.282	10516.49
478.486	10657.8
478.691	10330.13
478.895	10496.01
479.1	10606.6
479.304	10358.8
479.509	10125.33
479.713	10207.25
479.918	10110.99
480.122	9945.11
480.326	9984.02
480.531	10037.27
480.735	9650.2
480.94	9805.85
481.144	9926.68
481.348	9623.58
481.553	9840.66
481.757	9537.56
481.961	9584.66
482.166	9852.95
482.37	9728.02
482.574	9574.42
482.778	9512.99
482.983	9834.52
483.187	9543.71
483.391	9652.25
483.595	9537.56
483.8	9234.46
484.004	9367.58
484.208	9408.54
484.412	9461.79
484.616	9629.72
484.821	9555.99
485.025	9388.06
485.229	9484.31
485.433	9599
485.637	9500.7
485.841	9400.35
486.045	9426.97
486.249	9619.48
486.453	9482.27
486.657	9570.33
486.861	9642.01
487.065	9244.7
487.269	9396.25
487.473	9271.33
487.677	9480.22
487.881	9601.05
488.085	9486.36
488.289	9369.63
488.493	9521.18
488.697	9555.99
488.901	9533.47
489.105	9480.22
489.309	9711.64
489.512	9599
489.716	9652.25
489.92	9609.24
490.124	9623.58
490.328	9611.29
490.531	9664.54
490.735	9793.56
490.939	9895.96
491.143	9619.48
491.346	9738.26
491.55	9777.17
491.754	10010.64
491.958	9994.26
492.161	9924.63
492.365	10018.83
492.569	9912.34
492.772	9967.63
492.976	9990.16
493.18	10145.81
493.383	10401.8
493.587	10428.43
493.79	10543.11
493.994	10330.13
494.197	10418.19
494.401	10553.35
494.605	10694.66
494.808	10706.95
495.012	10563.59
495.215	10715.14
495.419	10872.84
495.622	10954.76
495.825	10944.52
496.029	10752.01
496.232	11190.27
496.436	10948.61
496.639	11190.27
496.843	11216.9
497.046	11864.05
497.249	12072.95
497.453	11851.77
497.656	11960.31
497.859	12005.36
498.063	11974.64
498.266	12290.03
498.469	12414.96
498.673	12279.79
498.876	12548.08
499.079	12605.42
499.282	12496.88
499.485	13076.45
499.689	13045.73
499.892	13221.86
500.095	13131.75
500.298	13637.59
500.501	13373.41
500.705	13744.09
500.908	14182.35
501.111	14114.77
501.314	14319.57
501.517	14598.09
501.72	14655.44
501.923	14507.98
502.126	14585.8
502.329	15124.42
502.532	15048.65
502.735	15306.69
502.938	15103.94
503.141	15488.96
503.344	15755.19
503.547	15865.78
503.75	15904.7
503.953	16285.62
504.156	16203.7
504.359	16486.32
504.562	16533.42
504.765	16916.39
504.968	17059.75
505.17	17164.2
505.373	17305.51
505.576	17758.11
505.779	17600.41
505.982	17956.76
506.185	18145.17
506.387	18171.8
506.59	18644.88
506.793	18708.37
506.996	18773.9
507.198	19273.6
507.401	18990.98
507.604	19427.2
507.807	19865.47
508.009	19793.79
508.212	19943.29
508.415	20344.69
508.617	20537.2
508.82	20363.12
509.022	20305.78
509.225	20856.68
509.428	21458.79
509.63	21313.38
509.833	21061.48
510.035	22132.57
510.238	21806.94
510.44	22314.84
510.643	22237.02
510.845	22662.99
511.048	22388.57
511.25	23217.99
511.453	22931.28
511.655	23539.52
511.858	23344.97
512.06	23822.14
512.262	23766.85
512.465	23904.06
512.667	24276.79
512.87	24416.05
513.072	24655.67
513.274	25112.36
513.477	24954.67
513.679	25454.37
513.881	25915.17
514.084	25886.5
514.286	25714.47
514.488	26122.01
514.69	26591
514.893	26750.74
515.095	26980.11
515.297	26908.43
515.499	27488.01
515.701	27344.65
515.904	27864.83
516.106	27926.27
516.308	27832.07
516.51	28511.99
516.712	28329.72
516.914	28530.42
517.116	29216.49
517.318	29175.53
517.52	29331.18
517.722	29656.81
517.925	29787.88
518.127	29937.38
518.329	30344.92
518.531	30154.46
518.733	30934.74
518.935	31082.19
519.136	30756.57
519.338	31737.54
519.54	31555.27
519.742	32001.73
519.944	31774.41
520.146	32495.29
520.348	32812.73
520.55	32323.26
520.752	32753.33
520.954	33468.08
521.155	33101.49
521.357	33396.4
521.559	33570.47
521.761	33859.24
521.963	34197.15
522.164	34133.67
522.366	34080.42
522.568	34680.47
522.77	35104.4
522.971	35174.03
523.173	35049.11
523.375	35030.68
523.576	35350.16
523.778	35397.26
523.98	35813
524.181	35923.59
524.383	36417.15
524.584	36271.75
524.786	36277.89
524.988	36126.34
525.189	36900.47
525.391	37023.35
525.592	37029.49
525.794	37162.61
525.995	37396.08
526.197	37068.41
526.398	37226.1
526.6	37473.9
526.801	37783.15
527.003	37877.35
527.204	37885.54
527.406	38123.11
527.607	38100.58
527.808	38534.75
528.01	37832.3
528.211	38168.16
528.412	38887
528.614	38950.49
528.815	38516.32
529.016	38637.15
529.218	38540.89
529.419	39024.22
529.62	39069.27
529.822	39003.74
530.023	39052.89
530.224	38936.15
530.425	38762.08
530.626	39009.88
530.828	38848.09
531.029	39718.48
531.23	39179.86
531.431	39513.68
531.632	39779.92
531.833	39491.15
532.035	39280.21
532.236	39865.93
532.437	39509.58
532.638	39532.11
532.839	39994.95
533.04	39693.9
533.241	39245.4
533.442	39894.6
533.643	39976.52
533.844	39634.51
534.045	39915.08
534.246	39497.3
534.447	39779.92
534.648	39953.99
534.849	40300.1
535.05	39077.46
535.251	39736.91
535.451	39480.91
535.652	39900.75
535.853	39882.31
536.054	39487.06
536.255	39894.6
536.456	39300.69
536.657	40185.41
536.857	39730.76
537.058	39347.79
537.259	39732.81
537.46	39755.34
537.66	39485.01
537.861	39779.92
538.062	39718.48
538.263	39972.42
538.463	39505.49
538.664	39556.69
538.865	39953.99
539.065	39659.09
539.266	39409.23
539.466	39716.43
539.667	39364.18
539.868	39775.82
540.068	39376.47
540.269	39566.93
540.469	40052.3
540.67	39654.99
540.87	39538.26
541.071	39245.4
541.271	39738.96
541.472	39274.07
541.672	39319.12
541.873	39255.64
542.073	39229.01
542.274	39419.47
542.474	39366.23
542.675	39208.53
542.875	39947.85
543.075	39429.71
543.276	39050.84
543.476	39878.22
543.676	39310.93
543.877	39380.56
544.077	39272.02
544.277	39642.7
544.478	38979.16
544.678	39618.13
544.878	39261.78
545.078	39450.19
545.279	39181.91
545.479	39036.5
545.679	39599.69
545.879	39468.62
546.079	39499.34
546.28	39525.97
546.48	38989.4
546.68	39183.96
546.88	39116.37
547.08	38979.16
547.28	39263.83
547.48	38485.6
547.68	39130.71
547.88	38782.55
548.081	39136.85
548.281	39089.75
548.481	38659.68
548.681	39288.4
548.881	39157.33
549.081	38895.19
549.28	39009.88
549.48	39208.53
549.68	39040.6
549.88	39360.08
550.08	39020.12
550.28	39077.46
550.48	38764.12
550.68	39396.95
550.88	38784.6
551.08	38854.23
551.279	38977.11
551.479	38690.4
551.679	38917.72
551.879	39046.74
552.079	38909.53
552.278	38536.8
552.478	38524.51
552.678	38520.41
552.878	38880.86
553.077	38735.45
553.277	38090.34
553.477	39102.04
553.676	38590.05
553.876	38491.74
554.076	38946.39
554.275	38334.05
554.475	38180.45
554.674	38975.06
554.874	38833.75
555.074	38176.36
555.273	38655.58
555.473	39188.05
555.672	38153.83
555.872	38413.92
556.071	38467.17
556.271	38428.26
556.47	38069.86
556.67	38016.61
556.869	38233.7
557.068	38137.44
557.268	37783.15
557.467	37895.78
557.667	38143.59
557.866	38016.61
558.065	37920.36
558.265	37578.35
558.464	38129.25
558.663	38348.39
558.863	37430.9
559.062	38078.05
559.261	37639.79
559.461	38231.65
559.66	37631.6
559.859	37666.41
560.058	37795.43
560.258	37572.21
560.457	37062.26
560.656	37652.08
560.855	37559.92
561.054	37119.6
561.253	37443.18
561.453	37607.02
561.652	37267.06
561.851	37375.6
562.05	37054.07
562.249	36910.71
562.448	37275.25
562.647	37265.01
562.846	36869.75
563.045	37238.39
563.244	36810.36
563.443	37023.35
563.642	36386.43
563.841	36800.12
564.04	36660.86
564.239	36828.79
564.438	36607.61
564.637	36257.41
564.836	36693.63
565.035	36179.59
565.234	36275.84
565.432	36181.63
565.631	36150.92
565.83	36724.35
566.029	36281.99
566.228	36183.68
566.427	36179.59
566.625	35548.81
566.824	35620.49
567.023	36236.93
567.222	35301.01
567.42	35726.99
567.619	35649.16
567.818	35632.78
568.016	35716.75
568.215	35655.31
568.414	35391.12
568.612	35550.86
568.811	35237.52
569.01	35514
569.208	35010.2
569.407	35600.01
569.605	34465.44
569.804	35217.04
570.002	34956.95
570.201	35206.8
570.4	34444.96
570.598	34827.93
570.797	34604.7
570.995	34672.28
571.193	34352.8
571.392	34934.42
571.59	34160.29
571.789	34303.65
571.987	34543.26
572.186	34119.33
572.384	34420.38
572.582	34412.19
572.781	34653.85
572.979	33693.35
573.177	33994.4
573.376	34320.03
573.574	33709.74
573.772	33918.63
573.971	33664.68
574.169	33357.49
574.367	33582.76
574.565	33687.21
574.763	33523.37
574.962	33179.31
575.16	33199.79
575.358	33273.52
575.556	33124.02
575.754	33294
575.952	32999.09
576.151	33490.6
576.349	32530.11
576.547	33111.73
576.745	33253.04
576.943	33097.39
577.141	32577.21
577.339	32267.97
577.537	32349.89
577.735	32573.11
577.933	32188.1
578.131	32638.65
578.329	32169.66
578.527	32044.74
578.725	31889.09
578.923	32288.45
579.121	31985.35
579.319	32126.66
579.516	31973.06
579.714	31844.04
579.912	31405.77
580.11	31618.76
580.308	31510.22
580.506	31549.13
580.704	31030.99
580.901	31246.03
581.099	31473.35
581.297	31022.8
581.495	30990.03
581.692	30908.12
581.89	31008.47
582.088	31192.78
582.285	30985.94
582.483	30824.15
582.681	30762.71
582.878	30519
583.076	30299.87
583.274	30676.69
583.471	30000.86
583.669	30344.92
583.866	30246.62
584.064	30445.27
584.262	29951.71
584.459	30017.25
584.657	30082.78
584.854	30217.95
585.052	29318.89
585.249	29810.4
585.447	29902.56
585.644	29353.71
585.841	29566.7
586.039	29671.14
586.236	29030.13
586.434	29239.02
586.631	29198.06
586.828	29249.26
587.026	29069.04
587.223	28774.13
587.42	28749.56
587.618	28817.14
587.815	28854
588.012	28729.08
588.21	28569.33
588.407	28862.19
588.604	28546.81
588.801	28448.5
588.999	28487.42
589.196	28393.21
589.393	28188.41
589.59	28157.69
589.787	28204.8
589.984	28131.07
590.182	27815.68
590.379	28110.59
590.576	27895.55
590.773	27789.06
590.97	27420.42
591.167	27651.84
591.364	27199.24
591.561	27518.73
591.758	27107.09
591.955	27401.99
592.152	27406.09
592.349	27010.83
592.546	27229.96
592.743	27068.17
592.94	26550.04
593.137	26867.47
593.334	26758.93
593.531	26210.07
593.727	26408.73
593.924	26474.26
594.121	26265.37
594.318	26423.06
594.515	26158.88
594.712	26339.1
594.908	25966.37
595.105	26310.43
595.302	25861.92
595.499	26031.9
595.696	25732.9
595.892	25458.47
596.089	25874.21
596.286	25818.91
596.482	25458.47
596.679	25577.25
596.876	25478.95
597.072	25128.75
597.269	25005.87
597.466	25257.77
597.662	24999.73
597.859	25194.28
598.055	24926
598.252	24936.24
598.448	25138.99
598.645	25100.08
598.841	24436.53
599.038	24850.22
599.234	24616.76
599.431	24340.28
599.627	24262.46
599.824	24213.31
600.02	24350.52
600.217	24270.65
600.413	23996.22
600.609	24086.33
600.806	24184.63
601.002	24350.52
601.198	23981.88
601.395	23891.77
601.591	23727.94
601.787	23959.36
601.984	23383.88
602.18	23889.73
602.376	23531.33
602.572	23496.52
602.769	23261
602.965	23011.15
603.161	23316.29
603.357	23050.06
603.553	23207.75
603.75	22945.61
603.946	23086.92
604.142	23187.27
604.338	22882.13
604.534	22718.29
604.73	22585.17
604.926	22390.61
605.122	22605.65
605.318	22472.53
605.514	22290.26
605.71	22267.73
605.906	22273.88
606.102	22216.54
606.298	21972.83
606.494	21884.76
606.69	22292.31
606.886	22142.81
607.082	21704.54
607.278	22234.97
607.474	21596
607.67	22071.13
607.866	21659.49
608.062	22007.64
608.257	21905.24
608.453	21589.86
608.649	21825.37
608.845	21378.92
609.041	21624.67
609.236	21720.93
609.432	21446.5
609.628	21679.97
609.824	21194.6
610.019	21043.05
610.215	20963.18
610.411	21583.71
610.606	21032.81
610.802	21086.06
610.998	21049.19
611.193	21051.24
611.389	21155.69
611.584	21016.43
611.78	20924.27
611.976	21116.78
612.171	21036.91
612.367	20936.56
612.562	20754.29
612.758	20440.95
612.953	20725.61
613.149	20553.59
613.344	20395.89
613.539	20881.26
613.735	20457.33
613.93	20629.36
614.126	20442.99
614.321	20486
614.517	20508.53
614.712	20266.87
614.907	20227.96
615.103	20264.82
615.298	20070.26
615.493	20445.04
615.688	20062.07
615.884	20275.06
616.079	19869.56
616.274	20225.91
616.47	19736.45
616.665	20045.69
616.86	19904.38
617.055	20148.09
617.25	19894.14
617.445	20098.94
617.641	19359.62
617.836	19797.88
618.031	19636.1
618.226	19758.97
618.421	19545.98
618.616	19761.02
618.811	19251.08
619.006	19613.57
619.201	19367.81
619.396	19363.72
619.591	19294.08
619.786	19113.86
619.981	18999.18
620.176	19187.59
620.371	18894.73
620.566	18894.73
620.761	18685.84
620.956	18831.24
621.151	18421.65
621.346	18669.45
621.541	18306.96
621.735	18427.79
621.93	18419.6
622.125	18331.54
622.32	17880.99
622.515	18173.85
622.709	17756.06
622.904	17926.04
623.099	17770.4
623.294	17917.85
623.488	17313.7
623.683	17590.17
623.878	17137.57
624.072	17420.19
624.267	17252.26
624.462	17014.7
624.656	16900.01
624.851	17069.99
625.046	17067.94
625.24	16543.66
625.435	16793.51
625.629	16627.63
625.824	16689.07
626.018	16345.01
626.213	16029.62
626.407	16340.91
626.602	16082.87
626.796	16105.4
626.991	16215.99
627.185	15884.22
627.38	16072.63
627.574	15720.38
627.768	15704
627.963	15722.43
628.157	15558.59
628.352	15310.79
628.546	15085.51
628.74	15568.83
628.935	15013.83
629.129	15194.05
629.323	14989.25
629.517	14962.63
629.712	14852.04
629.906	14864.33
630.1	14671.82
630.294	14669.77
630.489	14419.92
630.683	14569.42
630.877	14159.83
631.071	14165.97
631.265	14319.57
631.459	14143.44
631.653	14139.35
631.848	14110.68
632.042	13793.24
632.236	13961.17
632.43	13746.14
632.624	13932.5
632.818	13850.58
633.012	13508.57
633.206	13469.66
633.4	13903.83
633.594	13457.37
633.788	13254.62
633.982	13234.14
634.176	13316.06
634.369	13135.84
634.563	13105.12
634.757	12816.36
634.951	12935.14
635.145	12699.62
635.339	12900.33
635.533	12607.47
635.726	12675.05
635.92	12474.35
636.114	12525.55
636.308	12382.19
636.501	12527.6
636.695	12195.82
636.889	12314.61
637.083	12208.11
637.276	12204.02
637.47	11894.77
637.664	12015.6
637.857	12271.6
638.051	11757.56
638.244	11882.49
638.438	11933.68
638.632	11741.18
638.825	11544.57
639.019	11530.23
639.212	11481.08
639.406	11775.99
639.599	11296.77
639.793	11638.78
639.986	11124.74
640.18	11452.41
640.373	11270.14
640.567	11061.25
640.76	11165.7
640.954	11098.11
641.147	11024.39
641.34	10780.68
641.534	11075.59
641.727	10721.29
641.92	10758.15
642.114	10676.23
642.307	10817.54
642.5	10516.49
642.694	10405.9
642.887	10326.03
643.08	10608.65
643.273	10307.6
643.467	10319.89
643.66	10360.84
643.853	10205.2
644.046	10113.04
644.239	10149.9
644.432	9981.97
644.626	9924.63
644.819	9949.2
645.012	9900.05
645.205	9928.72
645.398	10027.03
645.591	9711.64
645.784	9877.52
645.977	9756.69
646.17	9723.93
646.363	9580.57
646.556	9568.28
646.749	9429.02
646.942	9459.74
647.135	9369.63
647.328	9314.33
647.521	9250.85
647.714	9209.89
647.907	9281.57
648.099	9297.95
648.292	9115.68
648.485	9025.57
648.678	9082.91
648.871	8781.86
649.064	8863.78
649.256	9056.29
649.449	8751.14
649.642	8945.7
649.835	8585.26
650.027	8683.56
650.22	8503.34
650.413	8575.02
650.605	8556.58
650.798	8562.73
650.991	8339.5
651.183	8380.46
651.376	8343.6
651.568	8452.14
651.761	8169.52
651.954	8165.42
652.146	8194.09
652.339	8089.65
652.531	8153.13
652.724	8140.85
652.916	7995.44
653.109	7825.46
653.301	7923.76
653.494	8034.35
653.686	7721.01
653.879	7733.3
654.071	7718.96
654.263	7682.1
654.456	7604.28
654.648	7792.69
654.84	7493.69
655.033	7669.81
655.225	7475.26
655.417	7497.78
655.61	7411.77
655.802	7370.81
655.994	7331.9
656.186	7317.56
656.379	7282.75
656.571	7268.41
656.763	7204.92
656.955	7045.18
657.148	7166.01
657.34	7077.95
657.532	7020.61
657.724	7166.01
657.916	7137.34
658.108	6934.59
658.3	7004.22
658.492	6670.4
658.684	6858.82
658.876	6897.73
659.068	6676.55
659.26	6723.65
659.452	6774.85
659.644	6641.73
659.836	6572.1
660.028	6606.92
660.22	6537.29
660.412	6600.77
660.604	6457.42
660.796	6379.59
660.988	6422.6
661.18	6418.5
661.372	6428.74
661.563	6475.85
661.755	6307.91
661.947	6189.13
662.139	6359.11
662.331	6221.9
662.522	6250.57
662.714	6232.14
662.906	6049.87
663.097	6025.29
663.289	6160.46
663.481	6103.12
663.673	5963.86
663.864	5926.99
664.056	5916.75
664.247	5935.18
664.439	5978.19
664.631	5855.31
664.822	5810.26
665.014	5857.36
665.205	5840.98
665.397	5574.74
665.588	5832.79
665.78	5546.07
665.971	5636.18
666.163	5750.87
666.354	5722.2
666.546	5660.76
666.737	5498.97
666.929	5636.18
667.12	5410.9
667.311	5431.38
667.503	5392.47
667.694	5460.06
667.885	5359.7
668.077	5380.18
668.268	5148.76
668.459	5384.28
668.651	5273.69
668.842	5271.64
669.033	5316.7
669.224	5226.59
669.416	5124.19
669.607	5216.35
669.798	5337.18
669.989	5173.34
670.18	5173.34
670.371	4978.78
670.563	5126.24
670.754	5052.51
670.945	4927.58
671.136	4964.45
671.327	4993.12
671.518	4978.78
671.709	4960.35
671.9	4980.83
672.091	4915.3
672.282	4857.95
672.473	4788.32
672.664	4913.25
672.855	4921.44
673.046	4771.94
673.237	4759.65
673.428	4765.79
673.619	4749.41
673.809	4653.16
674	4800.61
674.191	4741.22
674.382	4753.51
674.573	4757.6
674.764	4724.83
674.954	4685.92
675.145	4604
675.336	4681.83
675.527	4550.76
675.717	4431.98
675.908	4528.23
676.099	4356.2
676.289	4538.47
676.48	4417.64
676.671	4399.21
676.861	4384.87
677.052	4259.95
677.243	4440.17
677.433	4366.44
677.624	4552.81
677.814	4264.04
678.005	4333.67
678.195	4370.54
678.386	4415.59
678.576	4296.81
678.767	4366.44
678.957	4229.23
679.148	4276.33
679.338	4268.14
679.529	4192.36
679.719	4292.71
679.909	4278.38
680.1	4272.23
680.29	4194.41
680.481	4075.63
680.671	4180.07
680.861	4284.52
681.052	4169.84
681.242	4268.14
681.432	4139.12
681.622	4055.15
681.813	4173.93
682.003	4094.06
682.193	4069.48
682.383	4100.2
682.573	4126.83
682.764	4087.92
682.954	4149.36
683.144	4102.25
683.334	3960.94
683.524	3817.58
683.714	3977.33
683.904	3899.5
684.094	3946.61
684.284	3983.47
684.474	3881.07
684.664	3989.61
684.854	3848.3
685.044	3737.71
685.234	3860.59
685.424	3874.93
685.614	3817.58
685.804	3887.22
685.994	3754.1
686.184	3784.82
686.374	3694.71
686.564	3678.32
686.753	3799.15
686.943	3598.45
687.133	3698.8
687.323	3688.56
687.513	3741.81
687.702	3594.36
687.892	3602.55
688.082	3539.06
688.272	3604.6
688.461	3641.46
688.651	3594.36
688.841	3682.42
689.03	3620.98
689.22	3375.22
689.41	3360.89
689.599	3393.65
689.789	3453.05
689.979	3438.71
690.168	3432.57
690.358	3381.37
690.547	3416.18
690.737	3383.42
690.926	3319.93
691.116	3227.77
691.305	3338.36
691.495	3281.02
691.684	3324.02
691.874	3115.13
692.063	3281.02
692.252	3086.46
692.442	3260.54
692.631	3209.34
692.82	3199.1
693.01	3135.61
693.199	3186.81
693.388	3086.46
693.578	3031.16
693.767	3104.89
693.956	3018.88
694.146	3045.5
694.335	2982.01
694.524	2953.34
694.713	3080.32
694.902	2994.3
695.092	2918.53
695.281	2998.4
695.47	2924.67
695.659	2889.85
695.848	2771.07
696.037	2777.22
696.226	2900.09
696.415	2799.74
696.604	2852.99
696.793	2793.6
696.982	2812.03
697.171	2754.69
697.36	2871.42
697.549	2678.91
697.738	2740.35
697.927	2844.8
698.116	2715.78
698.305	2783.36
698.494	2744.45
698.683	2736.26
698.872	2711.68
699.061	2623.62
699.25	2771.07
699.438	2623.62
699.627	2631.81
699.816	2652.29
700.005	2539.65
700.193	2670.72
700.382	2601.09
700.571	2590.85
700.76	2576.52
700.948	2697.35
701.137	2519.17
701.326	2611.33
701.514	2527.36
701.703	2562.18
701.892	2482.31
702.08	2605.19
702.269	2498.69
702.457	2445.45
702.646	2586.76
702.834	2517.12
703.023	2447.49
703.212	2488.45
703.4	2556.04
703.589	2392.2
703.777	2492.55
703.965	2457.73
704.154	2441.35
704.342	2451.59
704.531	2465.93
704.719	2406.53
704.907	2388.1
705.096	2504.84
705.284	2429.06
705.472	2578.56
705.661	2306.18
705.849	2373.77
706.037	2482.31
706.226	2406.53
706.414	2355.33
706.602	2326.66
706.79	2338.95
706.979	2312.33
707.167	2416.77
707.355	2476.16
707.543	2384.01
707.731	2295.94
707.919	2406.53
708.107	2322.57
708.296	2308.23
708.484	2232.46
708.672	2332.81
708.86	2293.9
709.048	2441.35
709.236	2384.01
709.424	2324.62
709.612	2361.48
709.8	2336.9
709.988	2384.01
710.176	2455.69
710.364	2390.15
710.551	2402.44
710.739	2365.57
710.927	2422.92
711.115	2308.23
711.303	2412.68
711.491	2293.9
711.679	2467.97
711.866	2453.64
712.054	2347.14
712.242	2328.71
712.43	2457.73
712.617	2375.81
712.805	2373.77
712.993	2400.39
713.181	2384.01
713.368	2326.66
713.556	2338.95
713.744	2207.88
713.931	2318.47
714.119	2302.09
714.306	2443.4
714.494	2318.47
714.682	2392.2
714.869	2357.38
715.057	2357.38
715.244	2418.82
715.432	2418.82
715.619	2429.06
715.807	2381.96
715.994	2470.02
716.182	2363.53
716.369	2324.62
716.556	2371.72
716.744	2357.38
716.931	2326.66
717.119	2470.02
717.306	2332.81
717.493	2330.76
717.681	2285.7
717.868	2320.52
718.055	2351.24
718.242	2359.43
718.43	2367.62
718.617	2420.87
718.804	2310.28
718.991	2316.42
719.179	2375.81
719.366	2306.18
719.553	2334.86
719.74	2386.05
719.927	2244.74
720.114	2472.07
720.301	2384.01
720.488	2326.66
720.676	2404.49
720.863	2408.58
721.05	2355.33
721.237	2289.8
721.424	2302.09
721.611	2375.81
721.798	2269.32
721.985	2416.77
722.172	2269.32
722.358	2429.06
722.545	2371.72
722.732	2332.81
722.919	2457.73
723.106	2381.96
723.293	2361.48
723.48	2449.54
723.667	2431.11
723.853	2375.81
724.04	2369.67
724.227	2324.62
724.414	2304.14
724.6	2351.24
724.787	2357.38
724.974	2447.49
725.161	2328.71
725.347	2343.05
725.534	2373.77
725.72	2293.9
725.907	2322.57
726.094	2408.58
726.28	2384.01
726.467	2420.87
726.653	2486.4
726.84	2375.81
727.027	2523.27
727.213	2279.56
727.4	2498.69
727.586	2455.69
727.773	2496.64
727.959	2379.91
728.145	2330.76
728.332	2390.15
728.518	2371.72
728.705	2445.45
728.891	2449.54
729.077	2400.39
729.264	2328.71
729.45	2414.73
729.636	2494.6
729.823	2451.59
730.009	2502.79
730.195	2433.16
730.382	2396.29
730.568	2343.05
730.754	2402.44
730.94	2363.53
731.126	2451.59
731.313	2257.03
731.499	2484.36
731.685	2467.97
731.871	2480.26
732.057	2377.86
732.243	2576.52
732.429	2414.73
732.615	2445.45
732.801	2461.83
732.987	2404.49
733.173	2453.64
733.359	2453.64
733.545	2369.67
733.731	2416.77
733.917	2472.07
734.103	2422.92
734.289	2445.45
734.475	2433.16
734.661	2361.48
734.847	2525.32
735.033	2424.97
735.219	2504.84
735.404	2412.68
735.59	2371.72
735.776	2394.25
735.962	2478.21
736.148	2437.25
736.333	2467.97
736.519	2252.94
736.705	2357.38
736.89	2263.18
737.076	2388.1
737.262	2341
737.447	2373.77
737.633	2375.81
737.819	2420.87
738.004	2259.08
738.19	2306.18
738.375	2478.21
738.561	2297.99
738.747	2345.09
738.932	2312.33
739.118	2384.01
739.303	2310.28
739.489	2226.31
739.674	2267.27
739.859	2310.28
740.045	2332.81
740.23	2295.94
740.416	2185.35
740.601	2392.2
740.786	2289.8
740.972	2205.83
741.157	2181.26
741.342	2222.22
741.528	2257.03
741.713	2306.18
741.898	2197.64
742.084	2236.55
742.269	2252.94
742.454	2230.41
742.639	2216.07
742.824	2207.88
743.01	2080.91
743.195	2138.25
743.38	2252.94
743.565	2160.78
743.75	2173.07
743.935	2171.02
744.12	2201.74
744.305	2074.76
744.49	2168.97
744.675	2187.4
744.86	2089.1
745.045	2123.91
745.23	2105.48
745.415	2089.1
745.6	2060.43
745.785	2039.95
745.97	2089.1
746.155	2134.15
746.34	1978.51
746.525	1996.94
746.71	1974.41
746.895	2011.28
747.079	1947.79
747.264	2013.32
747.449	1990.8
747.634	1955.98
747.819	1941.65
748.003	1894.54
748.188	1904.78
748.373	1835.15
748.557	1923.21
748.742	1894.54
748.927	1923.21
749.111	1839.25
749.296	1796.24
749.481	1947.79
749.665	1800.34
749.85	1714.32
750.034	1738.9
750.219	1822.86
750.404	1726.61
750.588	1790.1
750.773	1695.89
750.957	1626.26
751.141	1753.23
751.326	1693.84
751.51	1630.35
751.695	1656.98
751.879	1783.95
752.064	1661.07
752.248	1618.07
752.432	1704.08
752.617	1683.6
752.801	1638.55
752.985	1599.63
753.17	1573.01
753.354	1679.51
753.538	1620.11
753.722	1517.72
753.907	1626.26
754.091	1478.8
754.275	1581.2
754.459	1544.34
754.643	1489.04
754.828	1540.24
755.012	1487
755.196	1472.66
755.38	1478.8
755.564	1460.37
755.748	1407.13
755.932	1509.52
756.116	1405.08
756.3	1513.62
756.484	1487
756.668	1487
756.852	1396.89
757.036	1407.13
757.22	1374.36
757.404	1441.94
757.588	1386.65
757.772	1353.88
757.956	1312.92
758.14	1312.92
758.323	1259.67
758.507	1370.26
758.691	1380.5
758.875	1325.21
759.059	1423.51
759.242	1314.97
759.426	1237.14
759.61	1255.58
759.794	1177.75
759.977	1308.82
760.161	1245.34
760.345	1271.96
760.528	1308.82
760.712	1333.4
760.895	1218.71
761.079	1185.94
761.263	1171.61
761.446	1120.41
761.63	1173.66
761.813	1210.52
761.997	1058.97
762.18	1187.99
762.364	1126.55
762.547	1132.7
762.731	1179.8
762.914	1194.14
763.098	1116.31
763.281	1149.08
763.464	1112.22
763.648	1165.46
763.831	1136.79
764.015	1204.38
764.198	1108.12
764.381	1087.64
764.564	1083.55
764.748	1073.31
764.931	1126.55
765.114	999.58
765.297	1134.75
765.481	1073.31
765.664	1083.55
765.847	1128.6
766.03	1022.11
766.213	1065.11
766.397	1036.44
766.58	1099.93
766.763	1149.08
766.946	1089.69
767.129	1071.26
767.312	1007.77
767.495	1063.07
767.678	995.48
767.861	1056.92
768.044	1147.03
768.227	995.48
768.41	1015.96
768.593	1056.92
768.776	1009.82
768.959	966.81
769.142	1032.35
769.324	999.58
769.507	995.48
769.69	1003.68
769.873	977.05
770.056	1052.83
770.239	927.9
770.421	948.38
770.604	888.99
770.787	948.38
770.97	972.96
771.152	917.66
771.335	909.47
771.518	880.8
771.7	942.24
771.883	925.85
772.066	917.66
772.248	897.18
772.431	921.76
772.613	925.85
772.796	884.89
772.978	893.09
773.161	905.37
773.343	858.27
773.526	823.45
773.708	938.14
773.891	843.93
774.073	899.23
774.256	825.5
774.438	882.85
774.621	843.93
774.803	819.36
774.985	800.93
775.168	868.51
775.35	823.45
775.532	925.85
775.715	819.36
775.897	802.97
776.079	735.39
776.261	778.4
776.444	784.54
776.626	790.69
776.808	811.17
776.99	770.21
777.173	757.92
777.355	737.44
777.537	831.65
777.719	757.92
777.901	704.67
778.083	682.14
778.265	782.49
778.447	716.96
778.629	747.68
778.811	811.17
778.993	663.71
779.175	714.91
779.357	614.56
779.539	663.71
779.721	708.77
779.903	759.97
780.085	573.6
780.267	676
780.449	737.44
780.631	579.75
780.812	602.27
780.994	606.37
781.176	653.47
781.358	673.95
781.54	573.6
781.721	567.46
781.903	671.9
782.085	571.55
782.267	577.7
782.448	563.36
782.63	594.08
782.812	594.08
782.993	561.31
783.175	635.04
783.357	571.55
783.538	651.42
783.72	542.88
783.901	624.8
784.083	536.74
784.264	579.75
784.446	581.79
784.627	532.64
784.809	602.27
784.99	626.85
785.172	436.39
785.353	530.59
785.535	516.26
785.716	501.92
785.897	454.82
786.079	491.68
786.26	512.16
786.441	536.74
786.623	458.92
786.804	467.11
786.985	536.74
787.167	487.59
787.348	460.96
787.529	442.53
787.71	528.55
787.891	442.53
788.073	471.2
788.254	422.05
788.435	467.11
788.616	452.77
788.797	430.24
788.978	463.01
789.159	518.31
789.34	360.61
789.522	436.39
789.703	417.96
789.884	456.87
790.065	432.29
790.246	428.2
790.427	393.38
790.607	452.77
790.788	368.81
790.969	428.2
791.15	377
791.331	381.09
791.512	344.23
791.693	342.18
791.874	385.19
792.054	463.01
792.235	387.24
792.416	487.59
792.597	489.64
792.778	315.56
792.958	336.04
793.139	368.81
793.32	327.85
793.5	321.7
793.681	362.66
793.862	362.66
794.042	379.04
794.223	313.51
794.404	393.38
794.584	284.84
794.765	346.28
794.945	409.76
795.126	288.93
795.306	413.86
795.487	290.98
795.667	364.71
795.848	288.93
796.028	387.24
796.209	352.42
796.389	348.33
796.57	346.28
796.75	370.85
796.93	385.19
797.111	278.69
797.291	286.89
797.471	344.23
797.652	262.31
797.832	319.65
798.012	333.99
798.192	325.8
798.373	299.17
798.553	336.04
798.733	331.94
798.913	282.79
799.093	241.83
799.274	377
799.454	327.85
799.634	299.17
799.814	239.78
799.994	311.46
800.174	235.69
800.354	301.22
800.534	274.6
800.714	266.41
800.894	239.78
801.074	352.42
801.254	252.07
801.434	293.03
801.614	301.22
801.794	319.65
801.974	639.14
802.154	282.79
802.334	295.08
802.514	329.89
802.693	280.74
802.873	323.75
803.053	262.31
803.233	280.74
803.413	209.06
803.592	268.45
803.772	258.21
803.952	198.82
804.131	270.5
804.311	241.83
804.491	207.02
804.67	221.35
804.85	200.87
805.03	305.32
805.209	293.03
805.389	245.93
805.568	176.3
805.748	252.07
805.928	209.06
806.107	215.21
806.287	270.5
806.466	276.65
806.646	213.16
806.825	233.64
807.004	200.87
807.184	223.4
807.363	254.12
807.543	229.54
807.722	276.65
807.901	204.97
808.081	241.83
808.26	221.35
808.439	227.5
808.619	204.97
808.798	186.54
808.977	227.5
809.156	252.07
809.336	188.58
809.515	278.69
809.694	161.96
809.873	164.01
810.052	221.35
810.231	204.97
810.411	213.16
810.59	176.3
810.769	194.73
810.948	176.3
811.127	186.54
811.306	164.01
811.485	186.54
811.664	227.5
811.843	202.92
812.022	213.16
812.201	164.01
812.38	30.89
812.559	186.54
812.737	161.96
812.916	247.97
813.095	184.49
813.274	209.06
813.453	215.21
813.632	186.54
813.811	260.26
813.989	133.29
814.168	192.68
814.347	196.78
814.526	145.58
814.704	194.73
814.883	186.54
815.062	153.77
815.24	184.49
815.419	168.1
815.598	118.95
815.776	164.01
815.955	176.3
816.133	135.34
816.312	133.29
816.49	90.28
816.669	155.82
816.847	139.43
817.026	184.49
817.204	133.29
817.383	149.67
817.561	145.58
817.74	166.06
817.918	135.34
818.097	186.54
818.275	260.26
818.453	121
818.632	102.57
818.81	129.19
818.988	131.24
819.167	112.81
819.345	96.43
819.523	184.49
819.701	90.28
819.879	157.86
820.058	213.16
820.236	176.3
820.414	137.38
820.592	166.06
820.77	164.01
820.948	59.56
821.127	106.67
821.305	184.49
821.483	159.91
821.661	100.52
821.839	102.57
822.017	161.96
822.195	121
822.373	88.23
822.551	121
822.729	133.29
822.907	153.77
823.085	96.43
823.262	77.99
823.44	104.62
823.618	65.71
823.796	102.57
823.974	90.28
824.152	88.23
824.329	96.43
824.507	149.67
824.685	155.82
824.863	123.05
825.04	98.47
825.218	151.72
825.396	137.38
825.574	82.09
825.751	118.95
825.929	192.68
826.107	123.05
826.284	116.9
826.462	98.47
826.639	137.38
826.817	112.81
826.994	159.91
827.172	82.09
827.349	168.1
827.527	114.86
827.704	121
827.882	164.01
828.059	102.57
828.237	84.14
828.414	110.76
828.591	96.43
828.769	69.8
828.946	86.19
829.124	147.62
829.301	37.03
829.478	98.47
829.655	88.23
829.833	129.19
830.01	157.86
830.187	168.1
830.364	172.2
830.542	86.19
830.719	131.24
830.896	145.58
831.073	137.38
831.25	121
831.427	141.48
831.604	77.99
831.782	106.67
831.959	137.38
832.136	98.47
832.313	84.14
832.49	106.67
832.667	57.51
832.844	47.27
833.021	98.47
833.198	90.28
833.374	69.8
833.551	104.62
833.728	34.99
833.905	57.51
834.082	92.33
834.259	8.36
834.436	172.2
834.612	71.85
834.789	114.86
834.966	49.32
835.143	106.67
835.319	168.1
835.496	55.47
835.673	73.9
835.85	63.66
836.026	137.38
836.203	59.56
836.38	51.37
836.556	94.38
836.733	114.86
836.909	108.71
837.086	55.47
837.262	55.47
837.439	127.14
837.616	155.82
837.792	63.66
837.968	161.96
838.145	53.42
838.321	63.66
838.498	98.47
838.674	82.09
838.851	88.23
839.027	37.03
839.203	166.06
839.38	100.52
839.556	47.27
839.732	86.19
839.909	63.66
840.085	157.86
840.261	69.8
840.437	43.18
840.614	24.75
840.79	77.99
840.966	69.8
841.142	131.24
841.318	24.75
841.494	39.08
841.671	73.9
841.847	47.27
842.023	102.57
842.199	34.99
842.375	88.23
842.551	41.13
842.727	49.32
842.903	-24.4
843.079	82.09
843.255	108.71
843.431	37.03
843.607	147.62
843.783	22.7
843.959	100.52
844.134	26.79
844.31	137.38
844.486	80.04
844.662	28.84
844.838	-12.12
845.013	71.85
845.189	82.09
845.365	43.18
845.541	57.51
845.716	73.9
845.892	51.37
846.068	94.38
846.244	90.28
846.419	170.15
846.595	6.31
846.77	84.14
846.946	26.79
847.122	-8.02
847.297	-30.55
847.473	77.99
847.648	0.17
847.824	53.42
847.999	18.6
848.175	49.32
848.35	69.8
848.526	57.51
848.701	118.95
848.876	51.37
849.052	125.1
849.227	104.62
849.403	45.23
849.578	53.42
849.753	55.47
849.929	-3.93
850.104	4.27
850.279	90.28
850.454	34.99
850.63	82.09
850.805	39.08
850.98	100.52
851.155	8.36
851.33	102.57
851.505	75.95
851.681	94.38
851.856	80.04
852.031	53.42
852.206	30.89
852.381	12.46
852.556	57.51
852.731	65.71
852.906	47.27
853.081	88.23
853.256	57.51
853.431	34.99
853.606	84.14
853.781	16.55
853.956	18.6
854.131	57.51
854.305	-51.03
854.48	77.99
854.655	39.08
854.83	43.18
855.005	82.09
855.18	63.66
855.354	26.79
855.529	34.99
855.704	-18.26
855.879	96.43
856.053	32.94
856.228	20.65
856.403	6.31
856.577	26.79
856.752	0.17
856.926	71.85
857.101	61.61
857.276	67.75
857.45	69.8
857.625	37.03
857.799	88.23
857.974	102.57
858.148	37.03
858.323	69.8
858.497	-8.02
858.672	30.89
858.846	4.27
859.02	18.6
859.195	49.32
859.369	32.94
859.543	104.62
859.718	34.99
859.892	55.47
860.066	24.75
860.241	49.32
860.415	-16.21
860.589	22.7
860.763	10.41
860.938	14.51
861.112	37.03
861.286	8.36
861.46	51.37
861.634	-8.02
861.808	14.51
861.982	-32.6
862.157	39.08
862.331	69.8
862.505	24.75
862.679	-5.97
862.853	32.94
863.027	-10.07
863.201	98.47
863.375	18.6
863.549	55.47
863.722	41.13
863.896	-3.93
864.07	65.71
864.244	59.56
864.418	114.86
864.592	20.65
864.766	-18.26
864.939	65.71
865.113	-44.88
865.287	41.13
865.461	30.89
865.634	67.75
865.808	12.46
865.982	47.27
866.156	14.51
866.329	-24.4
866.503	57.51
866.676	55.47
866.85	88.23
867.024	-44.88
867.197	22.7
867.371	8.36
867.544	51.37
867.718	8.36
867.891	12.46
868.065	28.84
868.238	24.75
868.412	82.09
868.585	28.84
868.759	39.08
868.932	-1.88
869.105	47.27
869.279	0.17
869.452	-20.31
869.625	34.99
869.799	28.84
869.972	49.32
870.145	16.55
870.319	75.95
870.492	-8.02
870.665	57.51
870.838	16.55
871.011	-38.74
871.185	61.61
871.358	30.89
871.531	39.08
871.704	16.55
871.877	49.32
872.05	-12.12
872.223	41.13
872.396	2.22
872.569	26.79
872.742	6.31
872.915	-46.93
873.088	-34.64
873.261	-10.07
873.434	57.51
873.607	39.08
873.78	80.04
873.953	10.41
874.126	-26.45
874.299	53.42
874.471	-8.02
874.644	24.75
874.817	45.23
874.99	92.33
875.163	2.22
875.335	71.85
875.508	-53.08
875.681	53.42
875.853	-5.97
876.026	47.27
876.199	98.47
876.371	4.27
876.544	65.71
876.717	-34.64
876.889	30.89
877.062	28.84
877.234	-20.31
877.407	41.13
877.579	63.66
877.752	18.6
877.924	-32.6
878.097	59.56
878.269	63.66
878.442	22.7
878.614	51.37
878.786	-24.4
878.959	-40.79
879.131	63.66
879.303	16.55
879.476	0.17
879.648	65.71
879.82	-1.88
879.993	39.08
880.165	0.17
880.337	-10.07
880.509	14.51
880.681	4.27
880.854	86.19
881.026	47.27
881.198	82.09
881.37	69.8
881.542	94.38
881.714	45.23
881.886	82.09
882.058	16.55
882.23	-20.31
882.402	61.61
882.574	53.42
882.746	45.23
882.918	37.03
883.09	-22.36
883.262	55.47
883.434	-3.93
883.606	24.75
883.778	-3.93
883.95	86.19
884.122	-44.88
884.293	8.36
884.465	98.47
884.637	34.99
884.809	57.51
884.98	43.18
885.152	26.79
885.324	-8.02
885.496	28.84
885.667	10.41
885.839	-14.17
886.011	51.37
886.182	-1.88
886.354	2.22
886.525	20.65
886.697	8.36
886.869	0.17
887.04	8.36
887.212	28.84
887.383	8.36
887.555	24.75
887.726	-8.02
887.897	65.71
888.069	84.14
888.24	0.17
888.412	53.42
888.583	4.27
888.754	77.99
888.926	-73.56
889.097	73.9
889.268	30.89
889.44	55.47
889.611	26.79
889.782	-1.88
889.953	57.51
890.125	98.47
890.296	104.62
890.467	26.79
890.638	-12.12
890.809	2.22
890.98	0.17
891.151	2.22
891.323	24.75
891.494	47.27
891.665	30.89
891.836	-20.31
892.007	10.41
892.178	45.23
892.349	18.6
892.52	41.13
892.691	-20.31
892.862	-69.46
893.032	-8.02
893.203	41.13
893.374	47.27
893.545	22.7
893.716	22.7
893.887	-10.07
894.057	-30.55
894.228	-40.79
894.399	-28.5
894.57	51.37
894.74	16.55
894.911	0.17
895.082	-40.79
895.253	12.46
895.423	57.51
895.594	80.04
895.764	41.13
895.935	47.27
896.106	-44.88
896.276	-40.79
896.447	51.37
896.617	10.41
896.788	0.17
896.958	24.75
897.129	55.47
897.299	57.51
897.47	-40.79
897.64	26.79
897.81	-22.36
897.981	53.42
898.151	18.6
898.322	100.52
898.492	12.46
898.662	20.65
898.832	16.55
899.003	114.86
899.173	26.79
899.343	57.51
899.513	45.23
