Data from USB4F104151__4__11-36-17-309.txt Node

Date: Fri Mar 14 11:36:17 EDT 2025
User: louis
Spectrometer: USB4F10415
Trigger mode: 4
Integration Time (sec): 2.000000E-2
Scans to average: 1
Electric dark correction enabled: true
Nonlinearity correction enabled: false
Boxcar width: 0
XAxis mode: Wavelengths
Number of Pixels in Spectrum: 3648
>>>>>Begin Spectral Data<<<<<
178.204	-94.04
178.424	-94.04
178.644	-94.04
178.864	-91.99
179.084	-61.27
179.304	34.99
179.524	14.51
179.744	-30.55
179.964	-59.22
180.184	61.61
180.404	8.36
180.624	34.99
180.844	-8.02
181.064	-22.36
181.283	-36.69
181.503	-44.88
181.723	47.27
181.943	28.84
182.163	-14.17
182.383	10.41
182.602	28.84
182.822	-5.97
183.042	-14.17
183.262	-32.6
183.482	84.14
183.701	61.61
183.921	12.46
184.141	-51.03
184.361	26.79
184.58	-12.12
184.8	-61.27
185.02	-65.36
185.239	47.27
185.459	24.75
185.679	28.84
185.898	-16.21
186.118	-20.31
186.338	69.8
186.557	-10.07
186.777	16.55
186.997	14.51
187.216	-14.17
187.436	55.47
187.655	8.36
187.875	-44.88
188.095	-36.69
188.314	37.03
188.534	12.46
188.753	-67.41
188.973	18.6
189.192	39.08
189.412	-65.36
189.631	26.79
189.851	73.9
190.07	69.8
190.29	34.99
190.509	-12.12
190.729	8.36
190.948	49.32
191.168	69.8
191.387	16.55
191.607	47.27
191.826	22.7
192.045	10.41
192.265	-51.03
192.484	-10.07
192.704	-14.17
192.923	2.22
193.142	10.41
193.362	-5.97
193.581	-38.74
193.8	45.23
194.02	45.23
194.239	20.65
194.458	-53.08
194.678	65.71
194.897	8.36
195.116	4.27
195.335	-8.02
195.555	0.17
195.774	-5.97
195.993	-3.93
196.212	20.65
196.432	-12.12
196.651	6.31
196.87	30.89
197.089	-5.97
197.308	-83.8
197.528	6.31
197.747	-16.21
197.966	-65.36
198.185	10.41
198.404	-12.12
198.623	-28.5
198.842	88.23
199.062	-18.26
199.281	51.37
199.5	4.27
199.719	-22.36
199.938	108.71
200.157	-34.64
200.376	-14.17
200.595	-14.17
200.814	28.84
201.033	53.42
201.252	61.61
201.471	20.65
201.69	80.04
201.909	22.7
202.128	8.36
202.347	80.04
202.566	-67.41
202.785	-40.79
203.004	8.36
203.223	69.8
203.442	-10.07
203.661	-59.22
203.879	14.51
204.098	96.43
204.317	-24.4
204.536	16.55
204.755	-59.22
204.974	16.55
205.193	69.8
205.411	-38.74
205.63	-24.4
205.849	34.99
206.068	-12.12
206.287	-14.17
206.505	-3.93
206.724	53.42
206.943	14.51
207.162	-42.84
207.381	-32.6
207.599	57.51
207.818	-20.31
208.037	-36.69
208.255	-3.93
208.474	22.7
208.693	-69.46
208.911	-20.31
209.13	51.37
209.349	51.37
209.567	-42.84
209.786	77.99
210.005	-1.88
210.223	-69.46
210.442	-8.02
210.661	-30.55
210.879	-46.93
211.098	-32.6
211.316	73.9
211.535	63.66
211.753	-5.97
211.972	4.27
212.191	55.47
212.409	-26.45
212.628	63.66
212.846	-16.21
213.065	-3.93
213.283	63.66
213.502	37.03
213.72	-32.6
213.938	32.94
214.157	12.46
214.375	10.41
214.594	-57.17
214.812	-18.26
215.031	-30.55
215.249	-61.27
215.467	-53.08
215.686	-59.22
215.904	-55.12
216.122	8.36
216.341	65.71
216.559	51.37
216.778	-30.55
216.996	98.47
217.214	-61.27
217.432	53.42
217.651	-28.5
217.869	-22.36
218.087	37.03
218.306	41.13
218.524	24.75
218.742	0.17
218.96	37.03
219.179	43.18
219.397	-57.17
219.615	10.41
219.833	-28.5
220.051	71.85
220.27	-12.12
220.488	-8.02
220.706	18.6
220.924	-26.45
221.142	26.79
221.36	-14.17
221.578	-12.12
221.796	-16.21
222.015	22.7
222.233	47.27
222.451	22.7
222.669	-20.31
222.887	-28.5
223.105	61.61
223.323	-14.17
223.541	-28.5
223.759	-42.84
223.977	67.75
224.195	-36.69
224.413	24.75
224.631	12.46
224.849	-67.41
225.067	-5.97
225.285	-20.31
225.503	14.51
225.721	-57.17
225.939	8.36
226.157	-20.31
226.375	114.86
226.592	2.22
226.81	20.65
227.028	30.89
227.246	30.89
227.464	-42.84
227.682	-5.97
227.9	-1.88
228.117	-16.21
228.335	-24.4
228.553	0.17
228.771	-20.31
228.989	-14.17
229.206	-48.98
229.424	-14.17
229.642	-22.36
229.86	-8.02
230.077	82.09
230.295	22.7
230.513	-1.88
230.731	-48.98
230.948	26.79
231.166	34.99
231.384	-10.07
231.601	37.03
231.819	94.38
232.037	49.32
232.254	-44.88
232.472	-3.93
232.689	-34.64
232.907	12.46
233.125	43.18
233.342	16.55
233.56	4.27
233.777	34.99
233.995	65.71
234.213	22.7
234.43	-22.36
234.648	2.22
234.865	-42.84
235.083	43.18
235.3	-14.17
235.518	-63.32
235.735	-16.21
235.953	-16.21
236.17	-46.93
236.388	24.75
236.605	20.65
236.822	-8.02
237.04	8.36
237.257	-16.21
237.475	2.22
237.692	-16.21
237.909	-5.97
238.127	10.41
238.344	8.36
238.562	4.27
238.779	-28.5
238.996	69.8
239.214	0.17
239.431	2.22
239.648	-34.64
239.865	-22.36
240.083	24.75
240.3	14.51
240.517	41.13
240.735	-10.07
240.952	-12.12
241.169	22.7
241.386	53.42
241.603	-36.69
241.821	-3.93
242.038	24.75
242.255	49.32
242.472	-8.02
242.689	-12.12
242.907	10.41
243.124	20.65
243.341	-40.79
243.558	63.66
243.775	0.17
243.992	10.41
244.209	34.99
244.426	51.37
244.643	-5.97
244.86	-16.21
245.078	61.61
245.295	69.8
245.512	-16.21
245.729	-38.74
245.946	86.19
246.163	51.37
246.38	30.89
246.597	-5.97
246.814	-16.21
247.031	-3.93
247.248	-67.41
247.464	-63.32
247.681	10.41
247.898	75.95
248.115	-3.93
248.332	32.94
248.549	47.27
248.766	73.9
248.983	53.42
249.2	-36.69
249.417	0.17
249.633	39.08
249.85	57.51
250.067	-38.74
250.284	14.51
250.501	4.27
250.717	4.27
250.934	-114.52
251.151	71.85
251.368	-3.93
251.585	-36.69
251.801	-32.6
252.018	18.6
252.235	61.61
252.451	-24.4
252.668	-30.55
252.885	-53.08
253.102	-30.55
253.318	86.19
253.535	8.36
253.752	10.41
253.968	96.43
254.185	-28.5
254.401	49.32
254.618	16.55
254.835	-57.17
255.051	61.61
255.268	-16.21
255.484	41.13
255.701	18.6
255.917	49.32
256.134	-3.93
256.351	-3.93
256.567	-53.08
256.784	20.65
257	28.84
257.217	51.37
257.433	34.99
257.65	-8.02
257.866	59.56
258.082	0.17
258.299	-22.36
258.515	49.32
258.732	-16.21
258.948	-16.21
259.165	12.46
259.381	8.36
259.597	16.55
259.814	-12.12
260.03	73.9
260.246	16.55
260.463	22.7
260.679	-22.36
260.895	-89.94
261.112	16.55
261.328	12.46
261.544	2.22
261.761	86.19
261.977	-79.7
262.193	-69.46
262.409	20.65
262.626	-38.74
262.842	69.8
263.058	0.17
263.274	-14.17
263.49	28.84
263.707	106.67
263.923	34.99
264.139	-12.12
264.355	4.27
264.571	65.71
264.787	-38.74
265.004	-8.02
265.22	34.99
265.436	-10.07
265.652	26.79
265.868	30.89
266.084	6.31
266.3	-36.69
266.516	-1.88
266.732	10.41
266.948	49.32
267.164	8.36
267.38	2.22
267.596	-20.31
267.812	71.85
268.028	2.22
268.244	-102.23
268.46	22.7
268.676	6.31
268.892	-73.56
269.108	-10.07
269.324	-3.93
269.54	34.99
269.756	18.6
269.972	-28.5
270.188	2.22
270.403	28.84
270.619	71.85
270.835	-57.17
271.051	-55.12
271.267	-20.31
271.483	-26.45
271.698	49.32
271.914	-34.64
272.13	10.41
272.346	-12.12
272.562	47.27
272.777	20.65
272.993	-65.36
273.209	41.13
273.425	14.51
273.64	-59.22
273.856	65.71
274.072	4.27
274.287	47.27
274.503	12.46
274.719	-22.36
274.934	20.65
275.15	-14.17
275.366	37.03
275.581	-22.36
275.797	67.75
276.012	-24.4
276.228	26.79
276.444	55.47
276.659	37.03
276.875	10.41
277.09	-22.36
277.306	-36.69
277.521	24.75
277.737	2.22
277.952	51.37
278.168	59.56
278.383	49.32
278.599	16.55
278.814	6.31
279.03	61.61
279.245	-16.21
279.461	41.13
279.676	12.46
279.892	-3.93
280.107	-3.93
280.322	18.6
280.538	82.09
280.753	-20.31
280.969	28.84
281.184	-8.02
281.399	-16.21
281.615	71.85
281.83	18.6
282.045	20.65
282.26	-10.07
282.476	2.22
282.691	61.61
282.906	16.55
283.122	-24.4
283.337	-3.93
283.552	-26.45
283.767	-5.97
283.983	30.89
284.198	24.75
284.413	-44.88
284.628	12.46
284.843	26.79
285.058	-22.36
285.274	-16.21
285.489	-36.69
285.704	-32.6
285.919	-32.6
286.134	4.27
286.349	-36.69
286.564	-46.93
286.779	-51.03
286.995	-18.26
287.21	-14.17
287.425	-30.55
287.64	30.89
287.855	32.94
288.07	-12.12
288.285	-36.69
288.5	16.55
288.715	57.51
288.93	37.03
289.145	-8.02
289.36	14.51
289.575	-85.84
289.79	4.27
290.004	4.27
290.219	-36.69
290.434	-24.4
290.649	28.84
290.864	26.79
291.079	67.75
291.294	34.99
291.509	-10.07
291.724	4.27
291.938	-8.02
292.153	20.65
292.368	8.36
292.583	59.56
292.798	10.41
293.012	12.46
293.227	-5.97
293.442	16.55
293.657	-12.12
293.871	4.27
294.086	-5.97
294.301	0.17
294.516	-10.07
294.73	32.94
294.945	-5.97
295.16	-26.45
295.374	143.53
295.589	20.65
295.804	26.79
296.018	0.17
296.233	34.99
296.447	6.31
296.662	-24.4
296.877	20.65
297.091	10.41
297.306	37.03
297.52	-18.26
297.735	0.17
297.949	32.94
298.164	80.04
298.378	22.7
298.593	-61.27
298.807	10.41
299.022	4.27
299.236	34.99
299.451	26.79
299.665	-16.21
299.88	-24.4
300.094	10.41
300.309	-20.31
300.523	-18.26
300.737	-8.02
300.952	73.9
301.166	6.31
301.381	-34.64
301.595	-30.55
301.809	4.27
302.024	28.84
302.238	-1.88
302.452	32.94
302.667	24.75
302.881	18.6
303.095	-18.26
303.309	-14.17
303.524	-20.31
303.738	-42.84
303.952	14.51
304.166	-3.93
304.381	-73.56
304.595	0.17
304.809	-3.93
305.023	-34.64
305.237	2.22
305.452	-1.88
305.666	-20.31
305.88	0.17
306.094	18.6
306.308	43.18
306.522	14.51
306.736	14.51
306.95	80.04
307.164	69.8
307.379	41.13
307.593	51.37
307.807	82.09
308.021	32.94
308.235	22.7
308.449	-59.22
308.663	24.75
308.877	-20.31
309.091	18.6
309.305	77.99
309.519	-61.27
309.733	-38.74
309.947	-30.55
310.161	75.95
310.374	55.47
310.588	-18.26
310.802	28.84
311.016	39.08
311.23	-1.88
311.444	90.28
311.658	41.13
311.872	43.18
312.085	-5.97
312.299	121
312.513	16.55
312.727	-40.79
312.941	-1.88
313.154	43.18
313.368	-48.98
313.582	6.31
313.796	-40.79
314.009	-10.07
314.223	-12.12
314.437	22.7
314.651	-10.07
314.864	45.23
315.078	-30.55
315.292	-32.6
315.505	2.22
315.719	28.84
315.933	30.89
316.146	14.51
316.36	-3.93
316.573	26.79
316.787	39.08
317.001	34.99
317.214	20.65
317.428	-22.36
317.641	-55.12
317.855	51.37
318.068	-12.12
318.282	63.66
318.495	82.09
318.709	8.36
318.922	-26.45
319.136	55.47
319.349	-32.6
319.563	37.03
319.776	-18.26
319.99	12.46
320.203	12.46
320.417	-16.21
320.63	-28.5
320.843	20.65
321.057	26.79
321.27	-71.51
321.483	2.22
321.697	-57.17
321.91	20.65
322.124	24.75
322.337	30.89
322.55	4.27
322.763	49.32
322.977	-16.21
323.19	4.27
323.403	4.27
323.617	0.17
323.83	28.84
324.043	-12.12
324.256	59.56
324.469	6.31
324.683	-5.97
324.896	16.55
325.109	-12.12
325.322	-30.55
325.535	75.95
325.748	-3.93
325.962	22.7
326.175	16.55
326.388	39.08
326.601	12.46
326.814	-22.36
327.027	108.71
327.24	24.75
327.453	-38.74
327.666	-28.5
327.879	-12.12
328.092	22.7
328.305	-36.69
328.518	16.55
328.731	8.36
328.944	75.95
329.157	-10.07
329.37	-30.55
329.583	8.36
329.796	75.95
330.009	-34.64
330.222	-24.4
330.435	-30.55
330.648	2.22
330.861	-14.17
331.073	57.51
331.286	-14.17
331.499	53.42
331.712	37.03
331.925	-16.21
332.138	-57.17
332.35	49.32
332.563	-18.26
332.776	55.47
332.989	22.7
333.202	30.89
333.414	10.41
333.627	16.55
333.84	37.03
334.053	-38.74
334.265	-10.07
334.478	12.46
334.691	55.47
334.903	28.84
335.116	26.79
335.329	-30.55
335.541	39.08
335.754	37.03
335.966	-30.55
336.179	41.13
336.392	-5.97
336.604	-16.21
336.817	20.65
337.029	-28.5
337.242	-48.98
337.454	2.22
337.667	-38.74
337.88	10.41
338.092	47.27
338.305	12.46
338.517	-14.17
338.729	41.13
338.942	51.37
339.154	0.17
339.367	-40.79
339.579	39.08
339.792	4.27
340.004	51.37
340.217	8.36
340.429	32.94
340.641	12.46
340.854	-5.97
341.066	49.32
341.278	57.51
341.491	-28.5
341.703	-57.17
341.915	-28.5
342.128	-3.93
342.34	-3.93
342.552	-10.07
342.764	57.51
342.977	-5.97
343.189	4.27
343.401	-20.31
343.613	26.79
343.826	20.65
344.038	67.75
344.25	30.89
344.462	57.51
344.674	84.14
344.886	45.23
345.099	96.43
345.311	43.18
345.523	0.17
345.735	-12.12
345.947	0.17
346.159	37.03
346.371	73.9
346.583	-3.93
346.795	34.99
347.007	12.46
347.219	67.75
347.431	-3.93
347.643	55.47
347.855	24.75
348.067	28.84
348.279	28.84
348.491	-46.93
348.703	41.13
348.915	37.03
349.127	-5.97
349.339	8.36
349.551	61.61
349.763	41.13
349.975	8.36
350.187	24.75
350.399	10.41
350.61	-36.69
350.822	-5.97
351.034	-36.69
351.246	-8.02
351.458	43.18
351.669	63.66
351.881	45.23
352.093	-18.26
352.305	-36.69
352.517	24.75
352.728	49.32
352.94	77.99
353.152	12.46
353.363	6.31
353.575	57.51
353.787	-28.5
353.999	0.17
354.21	92.33
354.422	65.71
354.633	80.04
354.845	-5.97
355.057	4.27
355.268	45.23
355.48	-12.12
355.692	-16.21
355.903	37.03
356.115	-73.56
356.326	-12.12
356.538	32.94
356.749	30.89
356.961	45.23
357.172	75.95
357.384	-32.6
357.595	26.79
357.807	-20.31
358.018	4.27
358.23	18.6
358.441	69.8
358.653	26.79
358.864	-3.93
359.075	-32.6
359.287	-3.93
359.498	4.27
359.709	-14.17
359.921	82.09
360.132	45.23
360.344	-42.84
360.555	-46.93
360.766	43.18
360.977	-12.12
361.189	28.84
361.4	49.32
361.611	104.62
361.823	84.14
362.034	24.75
362.245	-12.12
362.456	10.41
362.667	65.71
362.879	43.18
363.09	-3.93
363.301	2.22
363.512	55.47
363.723	-22.36
363.935	84.14
364.146	28.84
364.357	26.79
364.568	45.23
364.779	18.6
364.99	49.32
365.201	112.81
365.412	71.85
365.623	-20.31
365.834	0.17
366.045	-12.12
366.256	67.75
366.467	-28.5
366.678	37.03
366.889	-16.21
367.1	18.6
367.311	45.23
367.522	86.19
367.733	-16.21
367.944	34.99
368.155	-12.12
368.366	8.36
368.577	71.85
368.788	131.24
368.999	-26.45
369.209	-18.26
369.42	22.7
369.631	114.86
369.842	-1.88
370.053	32.94
370.264	-5.97
370.474	0.17
370.685	61.61
370.896	37.03
371.107	61.61
371.317	63.66
371.528	37.03
371.739	82.09
371.95	16.55
372.16	59.56
372.371	-63.32
372.582	-85.84
372.792	8.36
373.003	30.89
373.214	39.08
373.424	-20.31
373.635	22.7
373.846	-38.74
374.056	-18.26
374.267	-28.5
374.477	92.33
374.688	16.55
374.898	55.47
375.109	-69.46
375.319	47.27
375.53	-12.12
375.74	-12.12
375.951	26.79
376.161	45.23
376.372	-5.97
376.582	100.52
376.793	-12.12
377.003	22.7
377.214	28.84
377.424	57.51
377.635	8.36
377.845	57.51
378.055	77.99
378.266	-10.07
378.476	4.27
378.686	-12.12
378.897	6.31
379.107	30.89
379.317	32.94
379.528	75.95
379.738	65.71
379.948	20.65
380.158	-16.21
380.369	-3.93
380.579	98.47
380.789	43.18
380.999	114.86
381.21	84.14
381.42	110.76
381.63	-77.65
381.84	-61.27
382.05	16.55
382.261	39.08
382.471	75.95
382.681	37.03
382.891	-8.02
383.101	-30.55
383.311	41.13
383.521	43.18
383.731	22.7
383.941	45.23
384.151	-24.4
384.361	-28.5
384.571	16.55
384.781	16.55
384.991	102.57
385.201	65.71
385.411	75.95
385.621	80.04
385.831	4.27
386.041	-20.31
386.251	69.8
386.461	-16.21
386.671	69.8
386.881	16.55
387.091	30.89
387.301	12.46
387.511	-24.4
387.72	45.23
387.93	12.46
388.14	10.41
388.35	94.38
388.56	49.32
388.769	96.43
388.979	20.65
389.189	16.55
389.399	37.03
389.609	24.75
389.818	2.22
390.028	-1.88
390.238	-8.02
390.447	-5.97
390.657	96.43
390.867	8.36
391.076	41.13
391.286	28.84
391.496	43.18
391.705	2.22
391.915	75.95
392.125	102.57
392.334	121
392.544	45.23
392.753	82.09
392.963	-63.32
393.172	-8.02
393.382	98.47
393.591	63.66
393.801	20.65
394.01	129.19
394.22	20.65
394.429	34.99
394.639	-38.74
394.848	-26.45
395.058	59.56
395.267	41.13
395.477	45.23
395.686	106.67
395.895	98.47
396.105	114.86
396.314	104.62
396.524	53.42
396.733	86.19
396.942	-10.07
397.152	30.89
397.361	41.13
397.57	34.99
397.78	43.18
397.989	96.43
398.198	141.48
398.407	102.57
398.617	116.9
398.826	104.62
399.035	104.62
399.244	110.76
399.453	-8.02
399.663	30.89
399.872	47.27
400.081	24.75
400.29	135.34
400.499	57.51
400.708	77.99
400.917	75.95
401.127	28.84
401.336	123.05
401.545	145.58
401.754	77.99
401.963	57.51
402.172	139.43
402.381	82.09
402.59	100.52
402.799	90.28
403.008	90.28
403.217	-1.88
403.426	53.42
403.635	32.94
403.844	53.42
404.053	8.36
404.262	24.75
404.471	159.91
404.68	61.61
404.888	37.03
405.097	127.14
405.306	82.09
405.515	118.95
405.724	131.24
405.933	92.33
406.142	145.58
406.35	133.29
406.559	164.01
406.768	110.76
406.977	176.3
407.185	137.38
407.394	139.43
407.603	118.95
407.812	135.34
408.02	194.73
408.229	198.82
408.438	155.82
408.646	86.19
408.855	213.16
409.064	241.83
409.272	137.38
409.481	211.11
409.69	221.35
409.898	149.67
410.107	192.68
410.315	192.68
410.524	161.96
410.733	290.98
410.941	209.06
411.15	260.26
411.358	182.44
411.567	268.45
411.775	268.45
411.984	250.02
412.192	282.79
412.401	299.17
412.609	370.85
412.818	290.98
413.026	313.51
413.234	305.32
413.443	282.79
413.651	366.76
413.86	463.01
414.068	374.95
414.276	450.72
414.485	407.72
414.693	477.35
414.901	561.31
415.11	452.77
415.318	481.44
415.526	551.07
415.734	553.12
415.943	587.94
416.151	569.51
416.359	626.85
416.567	596.13
416.776	649.38
416.984	686.24
417.192	673.95
417.4	731.3
417.608	710.82
417.817	741.54
418.025	796.83
418.233	917.66
418.441	809.12
418.649	845.98
418.857	917.66
419.065	1003.68
419.273	899.23
419.481	981.15
419.689	1077.4
419.897	1028.25
420.105	1067.16
420.313	1179.8
420.521	1220.76
420.729	1249.43
420.937	1214.62
421.145	1247.38
421.353	1298.58
421.561	1366.17
421.769	1448.08
421.977	1462.42
422.185	1403.03
422.393	1521.81
422.601	1697.94
422.809	1577.11
423.017	1771.66
423.224	1769.62
423.432	1818.77
423.64	1779.86
423.848	2031.76
424.056	1910.93
424.263	2052.24
424.471	2046.09
424.679	2093.19
424.887	2121.87
425.094	2363.53
425.302	2422.92
425.51	2367.62
425.718	2482.31
425.925	2492.55
426.133	2676.87
426.341	2764.93
426.548	2852.99
426.756	2807.94
426.964	2875.52
427.171	3149.95
427.379	3231.87
427.586	3203.19
427.794	3342.46
428.001	3307.64
428.209	3545.2
428.417	3610.74
428.624	3795.06
428.832	3827.82
429.039	3747.95
429.247	3850.35
429.454	4167.79
429.662	4409.45
429.869	4149.36
430.076	4403.3
430.284	4317.29
430.491	4558.95
430.699	4673.64
430.906	4720.74
431.114	4745.31
431.321	4931.68
431.528	5177.44
431.736	5517.4
431.943	5675.09
432.15	5429.34
432.358	5589.08
432.565	6000.72
432.772	5683.28
432.979	6119.5
433.187	6201.42
433.394	6277.19
433.601	6686.79
433.808	6692.93
434.016	6828.1
434.223	6926.4
434.43	7409.72
434.637	7239.74
434.844	7630.9
435.052	7884.85
435.259	7641.14
435.466	7790.64
435.673	7899.19
435.88	8460.33
436.087	8882.21
436.294	8587.3
436.501	8538.15
436.708	8847.4
436.915	8976.42
437.122	9244.7
437.329	9369.63
437.537	9779.22
437.743	9828.37
437.95	9695.25
438.157	10197.01
438.364	10637.32
438.571	10700.81
438.778	10686.47
438.985	11593.72
439.192	11198.46
439.399	11587.58
439.606	11315.2
439.813	11972.6
440.02	12607.47
440.227	12328.94
440.433	12451.82
440.64	12718.06
440.847	12736.49
441.054	12826.6
441.261	13635.55
441.467	13723.61
441.674	13854.68
441.881	14356.43
442.088	14149.59
442.294	14104.53
442.501	14741.45
442.708	14757.83
442.914	15761.34
443.121	16183.22
443.328	15683.52
443.534	16973.74
443.741	16426.93
443.948	16265.14
444.154	17334.18
444.361	17287.07
444.568	17553.31
444.774	17328.03
444.981	17403.81
445.187	18139.03
445.394	18763.66
445.6	18612.11
445.807	20522.87
446.013	19621.76
446.22	19715.97
446.426	20586.35
446.633	20735.85
446.839	21485.41
447.046	20645.74
447.252	21610.34
447.459	21794.65
447.665	21675.87
447.871	22763.34
448.078	23510.85
448.284	22511.44
448.491	23338.82
448.697	24180.54
448.903	24606.52
449.11	24553.27
449.316	24039.23
449.522	24747.83
449.728	24983.34
449.935	25476.9
450.141	25407.27
450.347	25896.74
450.553	25093.93
450.76	25519.91
450.966	26347.29
451.172	25980.7
451.378	26554.13
451.584	26115.87
451.791	26855.18
451.997	26533.65
452.203	26971.92
452.409	27064.08
452.615	27066.13
452.821	26025.76
453.027	25653.03
453.233	27203.34
453.44	26148.64
453.646	26343.19
453.852	26543.89
454.058	26967.82
454.264	25949.98
454.47	26439.45
454.676	25761.57
454.882	26834.71
455.088	24244.02
455.294	24790.83
455.5	25036.59
455.705	25620.26
455.911	24411.96
456.117	24158.01
456.323	23371.59
456.529	22247.26
456.735	23340.87
456.941	22628.18
457.147	22112.09
457.352	21591.91
457.558	21489.51
457.764	21692.26
457.97	20860.78
458.176	20449.14
458.381	20744.05
458.587	19351.43
458.793	19789.69
458.999	18456.47
459.204	19783.55
459.41	19423.11
459.616	18126.74
459.821	18022.3
460.027	17848.22
460.233	17588.13
460.438	16719.79
460.644	17164.2
460.85	16041.91
461.055	15976.37
461.261	15964.09
461.466	14716.87
461.672	14350.29
461.878	15341.5
462.083	14243.79
462.289	14055.38
462.494	13893.59
462.7	13451.23
462.905	13029.35
463.111	13277.15
463.316	13418.46
463.522	12988.39
463.727	12982.24
463.932	13107.17
464.138	13139.94
464.343	12920.81
464.549	12558.32
464.754	12943.33
464.959	12883.94
465.165	12773.35
465.37	12369.9
465.575	11896.82
465.781	12384.24
465.986	12574.7
466.191	12122.1
466.397	11630.59
466.602	11245.57
466.807	11784.18
467.012	11390.97
467.218	11448.32
467.423	11581.43
467.628	11456.51
467.833	11802.61
468.038	11497.47
468.244	11440.12
468.449	11534.33
468.654	11454.46
468.859	11120.64
469.064	11081.73
469.269	10831.88
469.474	10780.68
469.679	11051.01
469.885	10620.94
470.09	10909.7
470.295	10711.05
470.5	10438.67
470.705	10543.11
470.91	10489.87
471.115	10276.88
471.32	10473.48
471.525	10352.65
471.73	10084.37
471.935	10065.94
472.139	9701.4
472.344	9754.65
472.549	9852.95
472.754	9605.14
472.959	9406.49
473.164	9175.07
473.369	8980.51
473.574	9572.38
473.778	9291.8
473.983	9242.65
474.188	9287.71
474.393	8759.33
474.598	8763.43
474.802	8765.48
475.007	8775.72
475.212	8648.74
475.417	8450.09
475.621	8544.3
475.826	8347.69
476.031	8343.6
476.235	8337.45
476.44	8316.97
476.645	8190
476.849	8194.09
477.054	7989.3
477.259	7870.51
477.463	7919.67
477.668	7610.42
477.872	7639.09
478.077	7671.86
478.282	7391.29
478.486	7626.81
478.691	7413.82
478.895	7354.43
479.1	7200.83
479.304	7393.34
479.509	7129.15
479.713	7329.85
479.918	7100.48
480.122	6848.58
480.326	7159.87
480.531	7018.56
480.735	7061.57
480.94	6860.87
481.144	7090.24
481.348	6762.56
481.553	6871.11
481.757	6727.75
481.961	6766.66
482.166	6807.62
482.37	6744.13
482.574	6676.55
482.778	6901.83
482.983	6752.32
483.187	6791.24
483.391	6727.75
483.595	6555.72
483.8	6596.68
484.004	6787.14
484.208	6713.41
484.412	6783.04
484.616	6811.71
484.821	6756.42
485.025	6625.35
485.229	6787.14
485.433	6664.26
485.637	6883.39
485.841	6879.3
486.045	6656.07
486.249	6768.71
486.453	6867.01
486.657	6674.5
486.861	6795.33
487.065	6455.37
487.269	6715.46
487.473	6598.73
487.677	6697.03
487.881	6844.48
488.085	6541.38
488.289	6819.91
488.493	6637.64
488.697	6824
488.901	6842.43
489.105	6871.11
489.309	6758.47
489.512	6881.35
489.716	6725.7
489.92	6864.96
490.124	6899.78
490.328	6869.06
490.531	6887.49
490.735	6916.16
490.939	6920.26
491.143	6840.39
491.346	7000.13
491.55	6969.41
491.754	6936.64
491.958	6967.36
492.161	7061.57
492.365	7151.68
492.569	7200.83
492.772	7141.44
492.976	7129.15
493.18	7202.88
493.383	7166.01
493.587	7327.8
493.79	7460.92
493.994	7356.47
494.197	7309.37
494.401	7370.81
494.605	7426.11
494.808	7487.54
495.012	7604.28
495.215	7604.28
495.419	7675.96
495.622	7671.86
495.825	7692.34
496.029	7694.39
496.232	8101.94
496.436	7929.91
496.639	8194.09
496.843	8190
497.046	8292.4
497.249	8323.12
497.453	8413.23
497.656	8419.37
497.859	8415.27
498.063	8534.06
498.266	8714.28
498.469	8648.74
498.673	8548.39
498.876	8785.96
499.079	9039.9
499.282	9052.19
499.485	9254.94
499.689	9191.45
499.892	9312.28
500.095	9410.59
500.298	9705.49
500.501	9566.23
500.705	9926.68
500.908	9879.57
501.111	9844.76
501.314	9949.2
501.517	10182.67
501.72	10317.84
501.923	10125.33
502.126	10461.2
502.329	10563.59
502.532	10819.59
502.735	10905.6
502.938	10887.17
503.141	11026.43
503.344	11151.36
503.547	11216.9
503.75	11202.56
503.953	11487.23
504.156	11622.39
504.359	11659.26
504.562	11751.42
504.765	12005.36
504.968	11943.92
505.17	12173.3
505.373	12404.72
505.576	12562.41
505.779	12789.74
505.982	12679.15
506.185	12838.89
506.387	12851.17
506.59	12961.76
506.793	13236.19
506.996	13021.16
507.198	13635.55
507.401	13539.29
507.604	13553.63
507.807	13795.29
508.009	14120.92
508.212	13811.67
508.415	14127.06
508.617	14311.38
508.82	14565.32
509.022	14553.04
509.225	14923.72
509.428	15101.89
509.63	15044.55
509.833	15024.07
510.035	15527.87
510.238	15169.48
510.44	15642.56
510.643	15697.85
510.845	15925.18
511.048	15835.07
511.25	16011.19
511.453	16310.19
511.655	16861.1
511.858	16508.85
512.06	16721.84
512.262	17092.52
512.465	17178.53
512.667	17131.43
512.87	17397.67
513.072	17586.08
513.274	17629.09
513.477	17833.88
513.679	18026.39
513.881	18263.96
514.084	18280.34
514.286	18372.5
514.488	18384.79
514.69	19142.53
514.893	19050.38
515.095	19042.18
515.297	19236.74
515.499	19537.79
515.701	19804.03
515.904	19943.29
516.106	19638.14
516.308	20066.17
516.51	20342.64
516.712	20131.7
516.914	20510.58
517.116	20723.57
517.318	20543.35
517.52	20911.98
517.722	20973.42
517.925	21399.4
518.127	21751.65
518.329	21385.06
518.531	21612.38
518.733	21897.05
518.935	22294.36
519.136	22103.9
519.338	22501.2
519.54	22327.13
519.742	22849.36
519.944	22808.4
520.146	22996.81
520.348	23203.66
520.55	23330.63
520.752	23428.93
520.954	23781.18
521.155	23662.4
521.357	24055.61
521.559	24377.14
521.761	24563.51
521.963	24510.26
522.164	24739.63
522.366	24639.28
522.568	24958.77
522.77	25050.92
522.971	25196.33
523.173	25173.8
523.375	25450.28
523.576	25458.47
523.778	25532.2
523.98	26007.33
524.181	25710.37
524.383	26003.23
524.584	26195.74
524.786	26320.67
524.988	26482.45
525.189	26605.33
525.391	26570.52
525.592	26744.59
525.794	26883.86
525.995	26803.99
526.197	26797.84
526.398	26982.16
526.6	27461.38
526.801	27297.55
527.003	27436.81
527.204	27399.94
527.406	27719.43
527.607	27698.95
527.808	27825.92
528.01	27356.94
528.211	27823.87
528.412	28286.72
528.614	27938.56
528.815	28073.73
529.016	28356.35
529.218	27975.42
529.419	28253.95
529.62	28260.09
529.822	28221.18
530.023	28366.59
530.224	28448.5
530.425	28854
530.626	28174.08
530.828	28532.47
531.029	28962.54
531.23	28409.59
531.431	28655.35
531.632	28788.47
531.833	28931.83
532.035	28831.47
532.236	29181.68
532.437	29044.46
532.638	29019.89
532.839	29251.31
533.04	29011.7
533.241	28729.08
533.442	29300.46
533.643	29097.71
533.844	28735.22
534.045	29161.2
534.246	28737.27
534.447	29320.94
534.648	29409
534.849	29150.96
535.05	29089.52
535.251	29218.54
535.451	29066.99
535.652	29263.6
535.853	28927.73
536.054	29173.49
536.255	29161.2
536.456	28735.22
536.657	29591.27
536.857	29017.84
537.058	28987.12
537.259	29163.25
537.46	29239.02
537.66	28968.69
537.861	29452.01
538.062	29007.6
538.263	29413.1
538.463	28952.3
538.664	28862.19
538.865	28909.3
539.065	29382.38
539.266	29079.28
539.466	29368.04
539.667	28933.87
539.868	29779.68
540.068	29099.76
540.269	29167.34
540.469	29107.95
540.67	29136.62
540.87	28989.17
541.071	29304.56
541.271	29021.94
541.472	29110
541.672	29202.16
541.873	29277.93
542.073	28909.3
542.274	29341.42
542.474	29214.44
542.675	28888.82
542.875	29550.31
543.075	29089.52
543.276	28899.06
543.476	29378.28
543.676	29040.37
543.877	29239.02
544.077	28980.98
544.277	29474.54
544.478	28997.36
544.678	29046.51
544.878	29320.94
545.078	29261.55
545.279	28815.09
545.479	28954.35
545.679	29066.99
545.879	28798.71
546.079	29087.47
546.28	29214.44
546.48	28534.52
546.68	28931.83
546.88	29114.09
547.08	28505.85
547.28	28882.67
547.48	28579.57
547.68	29204.21
547.88	28522.23
548.081	29224.68
548.281	28976.88
548.481	28456.7
548.681	29314.8
548.881	28788.47
549.081	28813.04
549.28	28671.73
549.48	29038.32
549.68	28612.34
549.88	29185.77
550.08	28710.64
550.28	28931.83
550.48	28538.62
550.68	28831.47
550.88	28643.06
551.08	28593.91
551.279	28935.92
551.479	28411.64
551.679	28710.64
551.879	28811
552.079	28993.26
552.278	28407.55
552.478	28784.37
552.678	28641.01
552.878	28638.97
553.077	28643.06
553.277	28344.06
553.477	28909.3
553.676	28305.15
553.876	28370.68
554.076	28161.79
554.275	28317.43
554.475	28065.53
554.674	28405.5
554.874	28731.12
555.074	28421.88
555.273	28483.32
555.473	28571.38
555.672	27942.66
555.872	28403.45
556.071	28151.55
556.271	28557.05
556.47	28495.61
556.67	27770.63
556.869	28071.68
557.068	28303.1
557.268	27989.76
557.467	28030.72
557.667	27961.09
557.866	27684.61
558.065	28274.43
558.265	27737.86
558.464	27696.9
558.663	28227.32
558.863	27547.4
559.062	28172.03
559.261	27367.18
559.461	28077.82
559.66	27641.6
559.859	27545.35
560.058	27479.82
560.258	27600.65
560.457	27465.48
560.656	27324.17
560.855	27045.65
561.054	27504.39
561.253	27377.42
561.453	27287.31
561.652	27324.17
561.851	27154.19
562.05	27012.88
562.249	26980.11
562.448	27248.39
562.647	27248.39
562.846	27342.6
563.045	27221.77
563.244	26941.2
563.443	27199.24
563.642	26904.34
563.841	26941.2
564.04	26773.27
564.239	27064.08
564.438	26771.22
564.637	27002.64
564.836	26613.52
565.035	26451.74
565.234	26689.3
565.432	26418.97
565.631	26339.1
565.83	26568.47
566.029	26087.2
566.228	26228.51
566.427	26275.61
566.625	26036
566.824	25732.9
567.023	26380.06
567.222	25515.81
567.42	26031.9
567.619	26138.4
567.818	26158.88
568.016	25597.73
568.215	26259.23
568.414	25562.92
568.612	25866.02
568.811	25624.36
569.01	25990.94
569.208	25239.34
569.407	25736.99
569.605	25157.42
569.804	25511.72
570.002	25567.01
570.201	25169.71
570.4	25372.46
570.598	24966.96
570.797	24657.71
570.995	25358.12
571.193	24870.7
571.392	25181.99
571.59	24944.43
571.789	24856.37
571.987	24874.8
572.186	24964.91
572.384	24672.05
572.582	24698.67
572.781	24608.56
572.979	24244.02
573.177	24483.64
573.376	24676.15
573.574	23938.88
573.772	24397.62
573.971	24192.83
574.169	24059.71
574.367	24108.86
574.565	24039.23
574.763	24258.36
574.962	23816
575.16	23506.76
575.358	24063.8
575.556	23717.7
575.754	23842.62
575.952	23607.11
576.151	23818.05
576.349	23242.57
576.547	23381.83
576.745	23502.66
576.943	23480.13
577.141	23375.69
577.339	23195.46
577.537	23226.18
577.735	23060.3
577.933	22832.97
578.131	23127.88
578.329	23123.79
578.527	22998.86
578.725	22806.35
578.923	23111.5
579.121	22662.99
579.319	22644.56
579.516	22802.25
579.714	22716.24
579.912	22507.35
580.11	22523.73
580.308	22843.21
580.506	22579.03
580.704	22273.88
580.901	22378.33
581.099	22439.76
581.297	22087.51
581.495	22280.02
581.692	22419.28
581.89	21825.37
582.088	22294.36
582.285	21993.31
582.483	22155.1
582.681	22167.38
582.878	22056.79
583.076	21340.01
583.274	21788.51
583.471	21716.83
583.669	21827.42
583.866	21641.06
584.064	21663.58
584.262	21491.55
584.459	21544.8
584.657	21440.36
584.854	21643.1
585.052	21167.98
585.249	21163.88
585.447	21346.15
585.644	21135.21
585.841	21022.57
586.039	21215.08
586.236	20905.84
586.434	20891.5
586.631	20649.84
586.828	20686.7
587.026	20834.16
587.223	20715.37
587.42	20440.95
587.618	20709.23
587.815	20289.4
588.012	20131.7
588.21	20199.29
588.407	20277.11
588.604	20354.93
588.801	20184.95
588.999	20043.64
589.196	20088.7
589.393	20137.85
589.59	20023.16
589.787	20344.69
589.984	19955.58
590.182	19445.63
590.379	19996.54
590.576	19677.05
590.773	19818.36
590.97	19357.57
591.167	19548.03
591.364	19021.7
591.561	19535.74
591.758	19115.91
591.955	19302.28
592.152	19369.86
592.349	19363.72
592.546	19312.52
592.743	19199.88
592.94	19001.22
593.137	19040.14
593.334	19373.96
593.531	18874.25
593.727	19056.52
593.924	18868.11
594.121	18849.68
594.318	18937.74
594.515	18335.63
594.712	18804.62
594.908	18556.82
595.105	18628.49
595.302	18370.45
595.499	18501.52
595.696	18366.35
595.892	18118.55
596.089	18544.53
596.286	18370.45
596.482	18268.05
596.679	18120.6
596.876	18184.09
597.072	17895.32
597.269	18098.07
597.466	17751.96
597.662	17811.35
597.859	17864.6
598.055	17899.42
598.252	17702.81
598.448	17608.61
598.645	17567.65
598.841	17301.41
599.038	17764.25
599.234	17379.23
599.431	17434.53
599.627	17305.51
599.824	17377.19
600.02	17133.48
600.217	17274.79
600.413	17258.4
600.609	17014.7
600.806	16945.06
601.002	16869.29
601.198	16662.44
601.395	17026.98
601.591	16697.26
601.787	16801.71
601.984	16576.43
602.18	16945.06
602.376	16594.86
602.572	16635.82
602.769	16660.4
602.965	16359.35
603.161	16484.27
603.357	16240.56
603.553	16369.58
603.75	16107.44
603.946	16447.41
604.142	16209.84
604.338	15959.99
604.534	16246.71
604.73	16084.92
604.926	15894.46
605.122	16172.98
605.318	15882.17
605.514	15857.59
605.71	15779.77
605.906	15804.35
606.102	15812.54
606.298	15714.23
606.494	15953.85
606.69	15730.62
606.886	15345.6
607.082	15366.08
607.278	15626.17
607.474	15374.27
607.67	15460.29
607.866	15306.69
608.062	15521.73
608.257	15427.52
608.453	15280.07
608.649	15415.23
608.845	14886.86
609.041	15128.52
609.236	15204.29
609.432	15261.63
609.628	15022.02
609.824	14995.4
610.019	15243.2
610.215	15138.76
610.411	14979.01
610.606	15001.54
610.802	14921.67
610.998	14845.9
611.193	14888.9
611.389	14942.15
611.584	14940.1
611.78	14790.6
611.976	14819.27
612.171	14725.07
612.367	14763.98
612.562	14626.76
612.758	14333.9
612.953	14655.44
613.149	14630.86
613.344	14661.58
613.539	14510.03
613.735	14473.17
613.93	14467.02
614.126	14516.17
614.321	14389.2
614.517	14485.45
614.712	14241.75
614.907	14190.55
615.103	14409.68
615.298	14251.99
615.493	14340.05
615.688	14088.15
615.884	14526.41
616.079	14079.96
616.274	14335.95
616.47	14206.93
616.665	14067.67
616.86	14192.59
617.055	14139.35
617.25	14211.03
617.445	14022.61
617.641	13793.24
617.836	13801.43
618.031	13932.5
618.226	13873.11
618.421	13617.11
618.616	13946.84
618.811	13520.86
619.006	13766.62
619.201	13527
619.396	13373.41
619.591	13316.06
619.786	13545.44
619.981	13373.41
620.176	13459.42
620.371	13346.78
620.566	13330.4
620.761	13164.51
620.956	13166.56
621.151	12996.58
621.346	13168.61
621.541	12812.26
621.735	12963.81
621.93	12668.91
622.125	13094.88
622.32	12822.5
622.515	12677.1
622.709	12603.37
622.904	12427.25
623.099	12470.25
623.294	12550.12
623.488	12240.88
623.683	12515.31
623.878	12173.3
624.072	12292.08
624.267	12161.01
624.462	12044.27
624.656	11986.93
624.851	11933.68
625.046	11739.13
625.24	11978.74
625.435	11677.69
625.629	11706.36
625.824	11786.23
626.018	11755.51
626.213	11403.26
626.407	11458.56
626.602	11087.87
626.796	11356.16
626.991	11376.64
627.185	11274.24
627.38	11243.52
627.574	11229.18
627.768	10924.04
627.963	10893.32
628.157	10825.73
628.352	10891.27
628.546	10618.89
628.74	10848.26
628.935	10500.11
629.129	10625.03
629.323	10401.8
629.517	10430.48
629.712	10330.13
629.906	10260.49
630.1	10145.81
630.294	10326.03
630.489	10199.06
630.683	10287.12
630.877	9824.28
631.071	9969.68
631.265	9979.92
631.459	9809.94
631.653	10094.61
631.848	9969.68
632.042	9642.01
632.236	10004.5
632.43	9687.06
632.624	9644.06
632.818	9650.2
633.012	9588.76
633.206	9553.94
633.4	9277.47
633.594	9183.26
633.788	9285.66
633.982	9283.61
634.176	9185.31
634.369	9195.55
634.563	9316.38
634.757	9101.34
634.951	9183.26
635.145	9226.27
635.339	8957.99
635.533	8992.8
635.726	8925.22
635.92	8968.23
636.114	8788
636.308	8714.28
636.501	8779.81
636.695	8783.91
636.889	8701.99
637.083	8532.01
637.276	8376.36
637.47	8638.5
637.664	8294.44
637.857	8368.17
638.051	8286.25
638.244	8343.6
638.438	8384.55
638.632	8169.52
638.825	8271.92
639.019	8108.08
639.212	8190
639.406	7907.38
639.599	7962.67
639.793	8112.17
639.986	8011.82
640.18	7944.24
640.373	7794.74
640.567	7733.3
640.76	7630.9
640.954	7821.36
641.147	7614.52
641.34	7637.05
641.534	7604.28
641.727	7596.09
641.92	7526.46
642.114	7417.91
642.307	7702.58
642.5	7280.7
642.694	7331.9
642.887	7217.21
643.08	7409.72
643.273	7112.77
643.467	7114.81
643.66	7249.98
643.853	7284.8
644.046	7137.34
644.239	6967.36
644.432	7020.61
644.626	7125.05
644.819	6928.45
645.012	7123.01
645.205	6914.11
645.398	6797.38
645.591	6797.38
645.784	6752.32
645.977	6781
646.17	6699.08
646.363	6717.51
646.556	6522.95
646.749	6645.83
646.942	6631.49
647.135	6694.98
647.328	6598.73
647.521	6479.94
647.714	6533.19
647.907	6285.39
648.099	6383.69
648.292	6375.5
648.485	6420.55
648.678	6332.49
648.871	6291.53
649.064	6189.13
649.256	6271.05
649.449	6107.21
649.642	6168.65
649.835	5980.24
650.027	6070.35
650.22	6131.79
650.413	6105.17
650.605	6062.16
650.798	5900.37
650.991	5769.3
651.183	5814.35
651.376	5906.51
651.568	5771.35
651.761	5742.68
651.954	5820.5
652.146	5875.79
652.339	5830.74
652.531	5634.13
652.724	5685.33
652.916	5541.97
653.109	5582.93
653.301	5613.65
653.494	5544.02
653.686	5453.91
653.879	5455.96
654.071	5501.01
654.263	5468.25
654.456	5345.37
654.648	5312.6
654.84	5390.42
655.033	5404.76
655.225	5218.4
655.417	5275.74
655.61	5175.39
655.802	5267.55
655.994	5253.21
656.186	5101.66
656.379	5124.19
656.571	5081.18
656.763	5066.85
656.955	5109.85
657.148	5021.79
657.34	5185.63
657.532	4903.01
657.724	4921.44
657.916	4898.91
658.108	5003.36
658.3	4905.06
658.492	4849.76
658.684	4907.1
658.876	4900.96
659.068	4755.55
659.26	4769.89
659.452	4860
659.644	4601.96
659.836	4741.22
660.028	4788.32
660.22	4604
660.412	4552.81
660.604	4575.33
660.796	4759.65
660.988	4540.52
661.18	4546.66
661.372	4507.75
661.563	4554.85
661.755	4450.41
661.947	4485.22
662.139	4446.31
662.331	4450.41
662.522	4296.81
662.714	4315.24
662.906	4325.48
663.097	4239.47
663.289	4292.71
663.481	4202.6
663.673	4298.86
663.864	4214.89
664.056	4272.23
664.247	4163.69
664.439	4108.4
664.631	4112.49
664.822	4182.12
665.014	4182.12
665.205	4012.14
665.397	4057.2
665.588	3924.08
665.78	4036.72
665.971	4036.72
666.163	3926.13
666.354	4065.39
666.546	3786.86
666.737	3874.93
666.929	3909.74
667.12	3960.94
667.311	4018.29
667.503	3930.22
667.694	3952.75
667.885	3788.91
668.077	3838.06
668.268	3750
668.459	3760.24
668.651	3756.15
668.842	3620.98
669.033	3809.39
669.224	3557.49
669.416	3782.77
669.607	3700.85
669.798	3594.36
669.989	3766.39
670.18	3637.36
670.371	3674.23
670.563	3592.31
670.754	3543.16
670.945	3502.2
671.136	3653.75
671.327	3485.81
671.518	3620.98
671.709	3526.77
671.9	3553.4
672.091	3498.1
672.282	3645.56
672.473	3426.42
672.664	3434.61
672.855	3360.89
673.046	3465.33
673.237	3481.72
673.428	3457.14
673.619	3373.18
673.809	3508.34
674	3481.72
674.191	3248.25
674.382	3424.37
674.573	3407.99
674.764	3383.42
674.954	3555.44
675.145	3258.49
675.336	3235.96
675.527	3379.32
675.717	3289.21
675.908	3379.32
676.099	3385.46
676.289	3178.62
676.48	3231.87
676.671	3268.73
676.861	3229.82
677.052	3203.19
677.243	3268.73
677.433	3252.35
677.624	3250.3
677.814	3203.19
678.005	3207.29
678.195	3160.19
678.386	3182.71
678.576	3137.66
678.767	3199.1
678.957	3158.14
679.148	3317.88
679.338	3156.09
679.529	3133.56
679.719	3102.84
679.909	3270.78
680.1	3180.67
680.29	3010.68
680.481	3229.82
680.671	3252.35
680.861	3121.28
681.052	3131.51
681.242	3059.84
681.432	3170.43
681.622	2918.53
681.813	3029.12
682.003	3160.19
682.193	3047.55
682.383	3008.64
682.573	3096.7
682.764	2965.63
682.954	3057.79
683.144	3072.12
683.334	2947.2
683.524	2918.53
683.714	2967.68
683.904	3022.97
684.094	2955.39
684.284	2969.73
684.474	3090.56
684.664	3012.73
684.854	2859.14
685.044	2871.42
685.234	2959.49
685.424	2910.33
685.614	2930.81
685.804	2951.29
685.994	2939.01
686.184	3002.49
686.374	2910.33
686.564	2812.03
686.753	2838.66
686.943	2711.68
687.133	2715.78
687.323	2863.23
687.513	2730.11
687.702	2793.6
687.892	2629.76
688.082	2703.49
688.272	2777.22
688.461	2703.49
688.651	2697.35
688.841	2658.43
689.03	2762.88
689.22	2711.68
689.41	2623.62
689.599	2736.26
689.789	2605.19
689.979	2578.56
690.168	2689.15
690.358	2492.55
690.547	2517.12
690.737	2525.32
690.926	2566.28
691.116	2488.45
691.305	2515.08
691.495	2457.73
691.684	2398.34
691.874	2420.87
692.063	2422.92
692.252	2416.77
692.442	2343.05
692.631	2351.24
692.82	2474.12
693.01	2404.49
693.199	2336.9
693.388	2314.38
693.578	2287.75
693.767	2244.74
693.956	2361.48
694.146	2365.57
694.335	2269.32
694.524	2230.41
694.713	2211.98
694.902	2214.02
695.092	2310.28
695.281	2187.4
695.47	2279.56
695.659	2216.07
695.848	2203.79
696.037	2091.15
696.226	2076.81
696.415	2140.3
696.604	2134.15
696.793	2101.39
696.982	2099.34
697.171	2117.77
697.36	2119.82
697.549	2113.67
697.738	2052.24
697.927	1990.8
698.116	2201.74
698.305	2121.87
698.494	2052.24
698.683	2132.11
698.872	2089.1
699.061	2037.9
699.25	2097.29
699.438	1962.12
699.627	2064.52
699.816	2005.13
700.005	1976.46
700.193	1970.32
700.382	2029.71
700.571	2001.04
700.76	2011.28
700.948	2097.29
701.137	2013.32
701.326	2058.38
701.514	1861.77
701.703	1970.32
701.892	1990.8
702.08	2011.28
702.269	1937.55
702.457	2023.56
702.646	2074.76
702.834	1925.26
703.023	2085
703.212	1998.99
703.4	2117.77
703.589	1960.08
703.777	1970.32
703.965	1962.12
704.154	1927.31
704.342	2087.05
704.531	1949.84
704.719	2048.14
704.907	1986.7
705.096	1984.65
705.284	1884.3
705.472	1988.75
705.661	1994.89
705.849	1955.98
706.037	1958.03
706.226	1984.65
706.414	1925.26
706.602	1947.79
706.79	2072.72
706.979	1958.03
707.167	1937.55
707.355	2021.52
707.543	1884.3
707.731	2023.56
707.919	1960.08
708.107	2007.18
708.296	1878.16
708.484	1867.92
708.672	2007.18
708.86	1996.94
709.048	2076.81
709.236	1941.65
709.424	1980.56
709.612	1927.31
709.8	2023.56
709.988	1933.45
710.176	1998.99
710.364	2001.04
710.551	2019.47
710.739	1962.12
710.927	1970.32
711.115	1990.8
711.303	1992.84
711.491	2044.04
711.679	1937.55
711.866	1974.41
712.054	2140.3
712.242	1947.79
712.43	1919.12
712.617	1968.27
712.805	2058.38
712.993	1962.12
713.181	1990.8
713.368	2013.32
713.556	2093.19
713.744	1960.08
713.931	2095.24
714.119	1986.7
714.306	2039.95
714.494	2158.73
714.682	1998.99
714.869	2009.23
715.057	2060.43
715.244	2003.08
715.432	2003.08
715.619	2035.85
715.807	2044.04
715.994	1996.94
716.182	1978.51
716.369	2007.18
716.556	2039.95
716.744	2035.85
716.931	2050.19
717.119	2037.9
717.306	2048.14
717.493	2099.34
717.681	2005.13
717.868	2058.38
718.055	1994.89
718.242	1953.93
718.43	1953.93
718.617	2140.3
718.804	1986.7
718.991	2179.21
719.179	2101.39
719.366	2115.72
719.553	1955.98
719.74	2193.55
719.927	2082.95
720.114	2076.81
720.301	2158.73
720.488	2181.26
720.676	2101.39
720.863	2144.39
721.05	2142.35
721.237	2140.3
721.424	2175.11
721.611	2103.43
721.798	2089.1
721.985	2132.11
722.172	2201.74
722.358	2123.91
722.545	2154.63
722.732	2248.84
722.919	2101.39
723.106	2091.15
723.293	2173.07
723.48	2136.2
723.667	2107.53
723.853	2070.67
724.04	2166.92
724.227	2140.3
724.414	2189.45
724.6	2156.68
724.787	2158.73
724.974	2230.41
725.161	2052.24
725.347	2154.63
725.534	2128.01
725.72	2148.49
725.907	2193.55
726.094	2197.64
726.28	2207.88
726.467	2160.78
726.653	2226.31
726.84	2121.87
727.027	2248.84
727.213	2211.98
727.4	2191.5
727.586	2318.47
727.773	2193.55
727.959	2269.32
728.145	2265.22
728.332	2220.17
728.518	2146.44
728.705	2226.31
728.891	2246.79
729.077	2201.74
729.264	2144.39
729.45	2363.53
729.636	2254.98
729.823	2187.4
730.009	2240.65
730.195	2218.12
730.382	2283.66
730.568	2281.61
730.754	2220.17
730.94	2324.62
731.126	2330.76
731.313	2373.77
731.499	2271.37
731.685	2277.51
731.871	2181.26
732.057	2263.18
732.243	2101.39
732.429	2222.22
732.615	2183.31
732.801	2322.57
732.987	2293.9
733.173	2185.35
733.359	2199.69
733.545	2314.38
733.731	2211.98
733.917	2179.21
734.103	2420.87
734.289	2291.85
734.475	2304.14
734.661	2257.03
734.847	2197.64
735.033	2293.9
735.219	2209.93
735.404	2199.69
735.59	2246.79
735.776	2181.26
735.962	2310.28
736.148	2132.11
736.333	2138.25
736.519	2207.88
736.705	2232.46
736.89	2224.26
737.076	2201.74
737.262	2271.37
737.447	2185.35
737.633	2267.27
737.819	2199.69
738.004	2175.11
738.19	2207.88
738.375	2220.17
738.561	2259.08
738.747	2117.77
738.932	2220.17
739.118	2207.88
739.303	2214.02
739.489	2185.35
739.674	2277.51
739.859	2201.74
740.045	2039.95
740.23	2248.84
740.416	2166.92
740.601	2199.69
740.786	2068.62
740.972	2115.72
741.157	2263.18
741.342	2134.15
741.528	2197.64
741.713	2011.28
741.898	2068.62
742.084	2050.19
742.269	2232.46
742.454	2113.67
742.639	2171.02
742.824	2121.87
743.01	2089.1
743.195	2048.14
743.38	2052.24
743.565	2111.63
743.75	2085
743.935	2056.33
744.12	2064.52
744.305	2013.32
744.49	2078.86
744.675	2019.47
744.86	2021.52
745.045	1968.27
745.23	2033.8
745.415	1949.84
745.6	1960.08
745.785	1853.58
745.97	2039.95
746.155	2001.04
746.34	2033.8
746.525	1931.41
746.71	1878.16
746.895	1927.31
747.079	1921.17
747.264	1996.94
747.449	1822.86
747.634	1783.95
747.819	1962.12
748.003	1865.87
748.188	1861.77
748.373	1910.93
748.557	1839.25
748.742	1851.53
748.927	1783.95
749.111	1753.23
749.296	1790.1
749.481	1757.33
749.665	1749.14
749.85	1775.76
750.034	1661.07
750.219	1796.24
750.404	1695.89
750.588	1689.74
750.773	1683.6
750.957	1804.43
751.141	1597.59
751.326	1679.51
751.51	1640.59
751.695	1648.79
751.879	1605.78
752.064	1699.98
752.248	1589.39
752.432	1601.68
752.617	1638.55
752.801	1677.46
752.985	1634.45
753.17	1525.91
753.354	1484.95
753.538	1509.52
753.722	1441.94
753.907	1394.84
754.091	1544.34
754.275	1525.91
754.459	1548.44
754.643	1464.47
754.828	1464.47
755.012	1411.22
755.196	1423.51
755.38	1435.8
755.564	1419.41
755.748	1314.97
755.932	1419.41
756.116	1364.12
756.3	1396.89
756.484	1290.39
756.668	1323.16
756.852	1243.29
757.036	1357.97
757.22	1302.68
757.404	1245.34
757.588	1388.69
757.772	1218.71
757.956	1321.11
758.14	1345.69
758.323	1200.28
758.507	1274.01
758.691	1239.19
758.875	1257.62
759.059	1224.86
759.242	1294.49
759.426	1245.34
759.61	1177.75
759.794	1224.86
759.977	1155.23
760.161	1274.01
760.345	1118.36
760.528	1216.66
760.712	1134.75
760.895	1071.26
761.079	1114.27
761.263	1130.65
761.446	1052.83
761.63	1237.14
761.813	1114.27
761.997	1130.65
762.18	1085.59
762.364	1161.37
762.547	1028.25
762.731	1106.07
762.914	1167.51
763.098	1061.02
763.281	1009.82
763.464	1026.2
763.648	979.1
763.831	1069.21
764.015	1003.68
764.198	1101.98
764.381	1089.69
764.564	1020.06
764.748	1020.06
764.931	1099.93
765.114	1065.11
765.297	1073.31
765.481	983.2
765.664	1020.06
765.847	1015.96
766.03	1077.4
766.213	1034.39
766.397	1075.35
766.58	927.9
766.763	1034.39
766.946	960.67
767.129	1003.68
767.312	966.81
767.495	970.91
767.678	970.91
767.861	876.7
768.044	903.32
768.227	905.37
768.41	874.65
768.593	954.52
768.776	866.46
768.959	817.31
769.142	995.48
769.324	919.71
769.507	942.24
769.69	880.8
769.873	942.24
770.056	940.19
770.239	975
770.421	815.26
770.604	876.7
770.787	880.8
770.97	913.56
771.152	884.89
771.335	866.46
771.518	864.41
771.7	903.32
771.883	921.76
772.066	852.13
772.248	845.98
772.431	850.08
772.613	862.37
772.796	839.84
772.978	807.07
773.161	802.97
773.343	772.25
773.526	794.78
773.708	823.45
773.891	731.3
774.073	827.55
774.256	682.14
774.438	827.55
774.621	690.34
774.803	745.63
774.985	755.87
775.168	737.44
775.35	706.72
775.532	641.18
775.715	704.67
775.897	702.62
776.079	690.34
776.261	680.1
776.444	735.39
776.626	682.14
776.808	673.95
776.99	655.52
777.173	702.62
777.355	639.14
777.537	620.71
777.719	546.98
777.901	594.08
778.083	731.3
778.265	688.29
778.447	606.37
778.629	708.77
778.811	589.99
778.993	704.67
779.175	618.66
779.357	714.91
779.539	671.9
779.721	567.46
779.903	573.6
780.085	589.99
780.267	534.69
780.449	598.18
780.631	526.5
780.812	612.51
780.994	657.57
781.176	528.55
781.358	536.74
781.54	565.41
781.721	561.31
781.903	641.18
782.085	616.61
782.267	598.18
782.448	487.59
782.63	458.92
782.812	522.4
782.993	442.53
783.175	524.45
783.357	506.02
783.538	555.17
783.72	546.98
783.901	463.01
784.083	557.22
784.264	538.79
784.446	499.88
784.627	450.72
784.809	485.54
784.99	503.97
785.172	485.54
785.353	442.53
785.535	438.44
785.716	366.76
785.897	454.82
786.079	381.09
786.26	471.2
786.441	463.01
786.623	444.58
786.804	436.39
786.985	424.1
787.167	381.09
787.348	430.24
787.529	442.53
787.71	409.76
787.891	438.44
788.073	460.96
788.254	424.1
788.435	454.82
788.616	411.81
788.797	381.09
788.978	360.61
789.159	387.24
789.34	454.82
789.522	340.13
789.703	329.89
789.884	411.81
790.065	344.23
790.246	323.75
790.427	311.46
790.607	422.05
790.788	276.65
790.969	377
791.15	364.71
791.331	430.24
791.512	313.51
791.693	323.75
791.874	344.23
792.054	331.94
792.235	317.61
792.416	280.74
792.597	288.93
792.778	311.46
792.958	323.75
793.139	383.14
793.32	340.13
793.5	245.93
793.681	297.13
793.862	377
794.042	280.74
794.223	327.85
794.404	356.52
794.584	295.08
794.765	245.93
794.945	268.45
795.126	374.95
795.306	231.59
795.487	284.84
795.667	290.98
795.848	317.61
796.028	303.27
796.209	286.89
796.389	258.21
796.57	278.69
796.75	225.45
796.93	354.47
797.111	209.06
797.291	325.8
797.471	239.78
797.652	319.65
797.832	217.26
798.012	286.89
798.192	192.68
798.373	184.49
798.553	260.26
798.733	250.02
798.913	186.54
799.093	180.39
799.274	245.93
799.454	254.12
799.634	270.5
799.814	260.26
799.994	235.69
800.174	192.68
800.354	274.6
800.534	209.06
800.714	225.45
800.894	276.65
801.074	157.86
801.254	235.69
801.434	315.56
801.614	297.13
801.794	219.3
801.974	610.47
802.154	213.16
802.334	147.62
802.514	168.1
802.693	276.65
802.873	135.34
803.053	266.41
803.233	131.24
803.413	229.54
803.592	204.97
803.772	268.45
803.952	245.93
804.131	172.2
804.311	276.65
804.491	282.79
804.67	133.29
804.85	116.9
805.03	196.78
805.209	176.3
805.389	139.43
805.568	231.59
805.748	166.06
805.928	188.58
806.107	225.45
806.287	202.92
806.466	209.06
806.646	98.47
806.825	247.97
807.004	221.35
807.184	217.26
807.363	139.43
807.543	254.12
807.722	155.82
807.901	125.1
808.081	250.02
808.26	116.9
808.439	161.96
808.619	151.72
808.798	184.49
808.977	207.02
809.156	180.39
809.336	176.3
809.515	190.63
809.694	77.99
809.873	172.2
810.052	94.38
810.231	151.72
810.411	174.25
810.59	227.5
810.769	192.68
810.948	188.58
811.127	151.72
811.306	125.1
811.485	174.25
811.664	135.34
811.843	188.58
812.022	184.49
812.201	153.77
812.38	166.06
812.559	118.95
812.737	118.95
812.916	196.78
813.095	80.04
813.274	118.95
813.453	157.86
813.632	196.78
813.811	215.21
813.989	204.97
814.168	250.02
814.347	127.14
814.526	170.15
814.704	147.62
814.883	172.2
815.062	131.24
815.24	100.52
815.419	106.67
815.598	77.99
815.776	143.53
815.955	20.65
816.133	49.32
816.312	168.1
816.49	116.9
816.669	172.2
816.847	166.06
817.026	161.96
817.204	129.19
817.383	131.24
817.561	147.62
817.74	116.9
817.918	174.25
818.097	147.62
818.275	161.96
818.453	114.86
818.632	147.62
818.81	116.9
818.988	30.89
819.167	133.29
819.345	118.95
819.523	94.38
819.701	133.29
819.879	131.24
820.058	94.38
820.236	106.67
820.414	67.75
820.592	77.99
820.77	112.81
820.948	125.1
821.127	84.14
821.305	114.86
821.483	155.82
821.661	157.86
821.839	90.28
822.017	155.82
822.195	63.66
822.373	137.38
822.551	57.51
822.729	149.67
822.907	118.95
823.085	159.91
823.262	112.81
823.44	108.71
823.618	84.14
823.796	88.23
823.974	114.86
824.152	67.75
824.329	155.82
824.507	118.95
824.685	127.14
824.863	147.62
825.04	88.23
825.218	75.95
825.396	164.01
825.574	127.14
825.751	106.67
825.929	94.38
826.107	69.8
826.284	155.82
826.462	71.85
826.639	41.13
826.817	65.71
826.994	43.18
827.172	12.46
827.349	82.09
827.527	39.08
827.704	98.47
827.882	80.04
828.059	92.33
828.237	32.94
828.414	86.19
828.591	41.13
828.769	73.9
828.946	32.94
829.124	57.51
829.301	45.23
829.478	71.85
829.655	63.66
829.833	57.51
830.01	114.86
830.187	53.42
830.364	118.95
830.542	65.71
830.719	118.95
830.896	57.51
831.073	125.1
831.25	49.32
831.427	102.57
831.604	63.66
831.782	41.13
831.959	53.42
832.136	6.31
832.313	96.43
832.49	30.89
832.667	92.33
832.844	43.18
833.021	65.71
833.198	75.95
833.374	135.34
833.551	69.8
833.728	192.68
833.905	69.8
834.082	41.13
834.259	80.04
834.436	57.51
834.612	53.42
834.789	51.37
834.966	75.95
835.143	116.9
835.319	57.51
835.496	77.99
835.673	41.13
835.85	65.71
836.026	90.28
836.203	98.47
836.38	118.95
836.556	94.38
836.733	61.61
836.909	34.99
837.086	114.86
837.262	41.13
837.439	100.52
837.616	6.31
837.792	104.62
837.968	8.36
838.145	75.95
838.321	45.23
838.498	129.19
838.674	10.41
838.851	110.76
839.027	94.38
839.203	24.75
839.38	69.8
839.556	53.42
839.732	98.47
839.909	10.41
840.085	96.43
840.261	-55.12
840.437	4.27
840.614	20.65
840.79	45.23
840.966	-5.97
841.142	65.71
841.318	65.71
841.494	86.19
841.671	65.71
841.847	82.09
842.023	-24.4
842.199	34.99
842.375	75.95
842.551	-26.45
842.727	10.41
842.903	47.27
843.079	43.18
843.255	39.08
843.431	80.04
843.607	61.61
843.783	32.94
843.959	2.22
844.134	22.7
844.31	94.38
844.486	51.37
844.662	55.47
844.838	34.99
845.013	65.71
845.189	-16.21
845.365	61.61
845.541	26.79
845.716	73.9
845.892	-3.93
846.068	37.03
846.244	-32.6
846.419	49.32
846.595	88.23
846.77	88.23
846.946	6.31
847.122	8.36
847.297	41.13
847.473	-20.31
847.648	28.84
847.824	49.32
847.999	65.71
848.175	-1.88
848.35	47.27
848.526	28.84
848.701	55.47
848.876	-20.31
849.052	45.23
849.227	61.61
849.403	75.95
849.578	90.28
849.753	47.27
849.929	-63.32
850.104	-5.97
850.279	114.86
850.454	22.7
850.63	12.46
850.805	-3.93
850.98	43.18
851.155	37.03
851.33	0.17
851.505	47.27
851.681	67.75
851.856	-18.26
852.031	67.75
852.206	24.75
852.381	4.27
852.556	20.65
852.731	45.23
852.906	-1.88
853.081	37.03
853.256	4.27
853.431	26.79
853.606	-3.93
853.781	12.46
853.956	-1.88
854.131	8.36
854.305	63.66
854.48	37.03
854.655	18.6
854.83	47.27
855.005	-3.93
855.18	-57.17
855.354	30.89
855.529	32.94
855.704	-18.26
855.879	-12.12
856.053	16.55
856.228	-20.31
856.403	-69.46
856.577	75.95
856.752	45.23
856.926	2.22
857.101	10.41
857.276	45.23
857.45	10.41
857.625	0.17
857.799	4.27
857.974	41.13
858.148	34.99
858.323	63.66
858.497	-55.12
858.672	28.84
858.846	-30.55
859.02	53.42
859.195	32.94
859.369	-22.36
859.543	0.17
859.718	41.13
859.892	-73.56
860.066	-5.97
860.241	4.27
860.415	-22.36
860.589	4.27
860.763	77.99
860.938	18.6
861.112	43.18
861.286	4.27
861.46	24.75
861.634	-8.02
861.808	69.8
861.982	10.41
862.157	10.41
862.331	51.37
862.505	30.89
862.679	26.79
862.853	-10.07
863.027	-67.41
863.201	94.38
863.375	-1.88
863.549	-16.21
863.722	-18.26
863.896	14.51
864.07	-38.74
864.244	45.23
864.418	-30.55
864.592	-10.07
864.766	45.23
864.939	49.32
865.113	-22.36
865.287	57.51
865.461	12.46
865.634	30.89
865.808	39.08
865.982	30.89
866.156	-55.12
866.329	-1.88
866.503	37.03
866.676	61.61
866.85	-3.93
867.024	-1.88
867.197	-57.17
867.371	-1.88
867.544	-12.12
867.718	-28.5
867.891	39.08
868.065	10.41
868.238	41.13
868.412	24.75
868.585	2.22
868.759	-24.4
868.932	-65.36
869.105	-5.97
869.279	-38.74
869.452	-28.5
869.625	12.46
869.799	55.47
869.972	-28.5
870.145	-38.74
870.319	10.41
870.492	-5.97
870.665	-34.64
870.838	-71.51
871.011	12.46
871.185	18.6
871.358	24.75
871.531	84.14
871.704	-79.7
871.877	-8.02
872.05	16.55
872.223	-28.5
872.396	26.79
872.569	-8.02
872.742	-36.69
872.915	49.32
873.088	-28.5
873.261	51.37
873.434	28.84
873.607	-20.31
873.78	30.89
873.953	88.23
874.126	24.75
874.299	18.6
874.471	-12.12
874.644	-48.98
874.817	-8.02
874.99	53.42
875.163	6.31
875.335	-10.07
875.508	-57.17
875.681	26.79
875.853	14.51
876.026	34.99
876.199	10.41
876.371	47.27
876.544	39.08
876.717	30.89
876.889	10.41
877.062	24.75
877.234	-57.17
877.407	-1.88
877.579	26.79
877.752	-16.21
877.924	2.22
878.097	71.85
878.269	41.13
878.442	12.46
878.614	30.89
878.786	2.22
878.959	45.23
879.131	26.79
879.303	-12.12
879.476	20.65
879.648	2.22
879.82	34.99
879.993	-14.17
880.165	-24.4
880.337	-44.88
880.509	-48.98
880.681	-12.12
880.854	59.56
881.026	41.13
881.198	51.37
881.37	41.13
881.542	-30.55
881.714	-20.31
881.886	-34.64
882.058	41.13
882.23	43.18
882.402	32.94
882.574	-44.88
882.746	8.36
882.918	53.42
883.09	14.51
883.262	34.99
883.434	-3.93
883.606	-57.17
883.778	12.46
883.95	49.32
884.122	-12.12
884.293	18.6
884.465	-24.4
884.637	22.7
884.809	16.55
884.98	-28.5
885.152	-42.84
885.324	49.32
885.496	-28.5
885.667	20.65
885.839	-14.17
886.011	-48.98
886.182	4.27
886.354	37.03
886.525	-85.84
886.697	-24.4
886.869	-59.22
887.04	26.79
887.212	18.6
887.383	53.42
887.555	53.42
887.726	8.36
887.897	-44.88
888.069	55.47
888.24	18.6
888.412	16.55
888.583	51.37
888.754	-12.12
888.926	-53.08
889.097	51.37
889.268	32.94
889.44	14.51
889.611	-51.03
889.782	-51.03
889.953	61.61
890.125	20.65
890.296	-24.4
890.467	41.13
890.638	-8.02
890.809	-20.31
890.98	26.79
891.151	-65.36
891.323	51.37
891.494	34.99
891.665	-14.17
891.836	18.6
892.007	-12.12
892.178	43.18
892.349	-8.02
892.52	-36.69
892.691	28.84
892.862	16.55
893.032	24.75
893.203	-77.65
893.374	77.99
893.545	20.65
893.716	-40.79
893.887	-3.93
894.057	14.51
894.228	-24.4
894.399	-32.6
894.57	49.32
894.74	-36.69
894.911	-28.5
895.082	-5.97
895.253	-48.98
895.423	26.79
895.594	-28.5
895.764	-28.5
895.935	-51.03
896.106	32.94
896.276	26.79
896.447	6.31
896.617	12.46
896.788	-71.51
896.958	51.37
897.129	-12.12
897.299	43.18
897.47	53.42
897.64	-1.88
897.81	-44.88
897.981	20.65
898.151	-34.64
898.322	10.41
898.492	-3.93
898.662	-18.26
898.832	-51.03
899.003	-40.79
899.173	-1.88
899.343	-46.93
899.513	-14.17
