Data from USB4F104151__36__11-36-52-345.txt Node

Date: Fri Mar 14 11:36:52 EDT 2025
User: louis
Spectrometer: USB4F10415
Trigger mode: 4
Integration Time (sec): 2.000000E-2
Scans to average: 1
Electric dark correction enabled: true
Nonlinearity correction enabled: false
Boxcar width: 0
XAxis mode: Wavelengths
Number of Pixels in Spectrum: 3648
>>>>>Begin Spectral Data<<<<<
178.204	-84.99
178.424	-84.99
178.644	-84.99
178.864	-52.22
179.084	-82.94
179.304	19.46
179.524	-27.65
179.744	23.55
179.964	35.84
180.184	-33.79
180.404	-11.26
180.624	-56.32
180.844	29.7
181.064	-9.22
181.283	-9.22
181.503	-1.02
181.723	39.94
181.943	-76.8
182.163	60.42
182.383	50.18
182.602	-13.31
182.822	58.37
183.042	46.08
183.262	41.98
183.482	58.37
183.701	13.31
183.921	-1.02
184.141	-7.17
184.361	99.33
184.58	-58.37
184.8	27.65
185.02	13.31
185.239	1.02
185.459	-41.98
185.679	66.56
185.898	-1.02
186.118	35.84
186.338	-50.18
186.557	46.08
186.777	1.02
186.997	-27.65
187.216	21.5
187.436	62.46
187.655	9.22
187.875	54.27
188.095	44.03
188.314	7.17
188.534	-27.65
188.753	58.37
188.973	-27.65
189.192	56.32
189.412	23.55
189.631	17.41
189.851	-39.94
190.07	64.51
190.29	-7.17
190.509	23.55
190.729	-46.08
190.948	35.84
191.168	97.28
191.387	-7.17
191.607	15.36
191.826	39.94
192.045	7.17
192.265	56.32
192.484	76.8
192.704	66.56
192.923	-89.09
193.142	-7.17
193.362	62.46
193.581	91.13
193.8	21.5
194.02	72.7
194.239	-31.74
194.458	70.65
194.678	41.98
194.897	72.7
195.116	23.55
195.335	48.13
195.555	-17.41
195.774	-21.5
195.993	31.74
196.212	3.07
196.432	25.6
196.651	29.7
196.87	107.52
197.089	58.37
197.308	93.18
197.528	9.22
197.747	-62.46
197.966	-13.31
198.185	46.08
198.404	-15.36
198.623	80.89
198.842	78.85
199.062	50.18
199.281	80.89
199.5	7.17
199.719	-21.5
199.938	-15.36
200.157	-19.46
200.376	7.17
200.595	-1.02
200.814	1.02
201.033	84.99
201.252	68.61
201.471	25.6
201.69	-19.46
201.909	23.55
202.128	95.23
202.347	-13.31
202.566	25.6
202.785	5.12
203.004	54.27
203.223	66.56
203.442	-54.27
203.661	95.23
203.879	-11.26
204.098	11.26
204.317	15.36
204.536	48.13
204.755	-87.04
204.974	29.7
205.193	35.84
205.411	-31.74
205.63	52.22
205.849	-13.31
206.068	50.18
206.287	62.46
206.505	101.37
206.724	70.65
206.943	-41.98
207.162	1.02
207.381	-64.51
207.599	1.02
207.818	-99.33
208.037	44.03
208.255	1.02
208.474	82.94
208.693	52.22
208.911	-44.03
209.13	52.22
209.349	60.42
209.567	105.47
209.786	95.23
210.005	25.6
210.223	78.85
210.442	-9.22
210.661	72.7
210.879	-27.65
211.098	35.84
211.316	5.12
211.535	31.74
211.753	11.26
211.972	27.65
212.191	-39.94
212.409	33.79
212.628	-21.5
212.846	41.98
213.065	-31.74
213.283	37.89
213.502	37.89
213.72	13.31
213.938	29.7
214.157	29.7
214.375	78.85
214.594	80.89
214.812	15.36
215.031	-41.98
215.249	68.61
215.467	-21.5
215.686	50.18
215.904	64.51
216.122	25.6
216.341	9.22
216.559	-17.41
216.778	5.12
216.996	76.8
217.214	9.22
217.432	15.36
217.651	-31.74
217.869	-1.02
218.087	50.18
218.306	-41.98
218.524	7.17
218.742	-23.55
218.96	-27.65
219.179	66.56
219.397	66.56
219.615	168.96
219.833	80.89
220.051	-9.22
220.27	82.94
220.488	46.08
220.706	13.31
220.924	7.17
221.142	23.55
221.36	25.6
221.578	168.96
221.796	35.84
222.015	66.56
222.233	39.94
222.451	80.89
222.669	33.79
222.887	3.07
223.105	-7.17
223.323	52.22
223.541	25.6
223.759	-11.26
223.977	-48.13
224.195	171.01
224.413	15.36
224.631	70.65
224.849	-15.36
225.067	66.56
225.285	21.5
225.503	13.31
225.721	-23.55
225.939	-9.22
226.157	-23.55
226.375	23.55
226.592	-1.02
226.81	-37.89
227.028	76.8
227.246	80.89
227.464	29.7
227.682	78.85
227.9	-9.22
228.117	21.5
228.335	19.46
228.553	91.13
228.771	15.36
228.989	68.61
229.206	-5.12
229.424	37.89
229.642	13.31
229.86	-1.02
230.077	46.08
230.295	-19.46
230.513	21.5
230.731	-44.03
230.948	27.65
231.166	17.41
231.384	44.03
231.601	-15.36
231.819	17.41
232.037	54.27
232.254	84.99
232.472	44.03
232.689	72.7
232.907	-1.02
233.125	-7.17
233.342	91.13
233.56	-39.94
233.777	27.65
233.995	39.94
234.213	70.65
234.43	115.71
234.648	58.37
234.865	56.32
235.083	-19.46
235.3	29.7
235.518	23.55
235.735	39.94
235.953	-9.22
236.17	3.07
236.388	52.22
236.605	23.55
236.822	29.7
237.04	39.94
237.257	-13.31
237.475	5.12
237.692	29.7
237.909	7.17
238.127	46.08
238.344	29.7
238.562	68.61
238.779	50.18
238.996	21.5
239.214	19.46
239.431	37.89
239.648	66.56
239.865	23.55
240.083	-9.22
240.3	35.84
240.517	9.22
240.735	48.13
240.952	-19.46
241.169	50.18
241.386	-13.31
241.603	-35.84
241.821	33.79
242.038	50.18
242.255	87.04
242.472	9.22
242.689	74.75
242.907	15.36
243.124	64.51
243.341	58.37
243.558	-33.79
243.775	48.13
243.992	33.79
244.209	21.5
244.426	-52.22
244.643	56.32
244.86	-1.02
245.078	58.37
245.295	62.46
245.512	41.98
245.729	60.42
245.946	-3.07
246.163	-97.28
246.38	50.18
246.597	-5.12
246.814	-19.46
247.031	-13.31
247.248	-1.02
247.464	19.46
247.681	-23.55
247.898	31.74
248.115	21.5
248.332	-7.17
248.549	23.55
248.766	33.79
248.983	31.74
249.2	-7.17
249.417	37.89
249.633	25.6
249.85	-27.65
250.067	3.07
250.284	48.13
250.501	107.52
250.717	78.85
250.934	-23.55
251.151	9.22
251.368	-35.84
251.585	19.46
251.801	-19.46
252.018	74.75
252.235	44.03
252.451	-72.7
252.668	15.36
252.885	31.74
253.102	54.27
253.318	25.6
253.535	15.36
253.752	29.7
253.968	3.07
254.185	7.17
254.401	46.08
254.618	50.18
254.835	-9.22
255.051	56.32
255.268	5.12
255.484	82.94
255.701	23.55
255.917	50.18
256.134	1.02
256.351	-11.26
256.567	64.51
256.784	64.51
257	17.41
257.217	50.18
257.433	74.75
257.65	44.03
257.866	66.56
258.082	-33.79
258.299	-17.41
258.515	-1.02
258.732	33.79
258.948	39.94
259.165	23.55
259.381	39.94
259.597	54.27
259.814	39.94
260.03	-3.07
260.246	52.22
260.463	-15.36
260.679	1.02
260.895	54.27
261.112	91.13
261.328	-44.03
261.544	1.02
261.761	78.85
261.977	11.26
262.193	-3.07
262.409	89.09
262.626	31.74
262.842	62.46
263.058	-25.6
263.274	29.7
263.49	91.13
263.707	64.51
263.923	-1.02
264.139	-1.02
264.355	17.41
264.571	-11.26
264.787	74.75
265.004	44.03
265.22	33.79
265.436	95.23
265.652	25.6
265.868	58.37
266.084	33.79
266.3	19.46
266.516	66.56
266.732	56.32
266.948	-1.02
267.164	-23.55
267.38	64.51
267.596	27.65
267.812	56.32
268.028	9.22
268.244	109.57
268.46	9.22
268.676	44.03
268.892	41.98
269.108	91.13
269.324	5.12
269.54	54.27
269.756	-23.55
269.972	-31.74
270.188	56.32
270.403	25.6
270.619	58.37
270.835	41.98
271.051	56.32
271.267	-25.6
271.483	93.18
271.698	58.37
271.914	66.56
272.13	23.55
272.346	-15.36
272.562	25.6
272.777	48.13
272.993	48.13
273.209	37.89
273.425	72.7
273.64	35.84
273.856	74.75
274.072	62.46
274.287	17.41
274.503	15.36
274.719	35.84
274.934	58.37
275.15	50.18
275.366	29.7
275.581	25.6
275.797	13.31
276.012	15.36
276.228	7.17
276.444	50.18
276.659	56.32
276.875	-50.18
277.09	56.32
277.306	44.03
277.521	9.22
277.737	-29.7
277.952	70.65
278.168	39.94
278.383	21.5
278.599	-37.89
278.814	54.27
279.03	56.32
279.245	31.74
279.461	33.79
279.676	-11.26
279.892	25.6
280.107	17.41
280.322	25.6
280.538	25.6
280.753	1.02
280.969	87.04
281.184	82.94
281.399	37.89
281.615	11.26
281.83	78.85
282.045	19.46
282.26	-13.31
282.476	17.41
282.691	50.18
282.906	-11.26
283.122	-15.36
283.337	-19.46
283.552	1.02
283.767	-39.94
283.983	39.94
284.198	29.7
284.413	41.98
284.628	-19.46
284.843	56.32
285.058	21.5
285.274	58.37
285.489	-19.46
285.704	-15.36
285.919	-1.02
286.134	-31.74
286.349	39.94
286.564	62.46
286.779	52.22
286.995	48.13
287.21	52.22
287.425	-3.07
287.64	-5.12
287.855	76.8
288.07	54.27
288.285	-11.26
288.5	-7.17
288.715	50.18
288.93	39.94
289.145	1.02
289.36	62.46
289.575	72.7
289.79	23.55
290.004	9.22
290.219	39.94
290.434	44.03
290.649	-44.03
290.864	27.65
291.079	62.46
291.294	74.75
291.509	48.13
291.724	5.12
291.938	25.6
292.153	46.08
292.368	54.27
292.583	-31.74
292.798	7.17
293.012	-1.02
293.227	7.17
293.442	23.55
293.657	-33.79
293.871	44.03
294.086	5.12
294.301	74.75
294.516	91.13
294.73	87.04
294.945	7.17
295.16	17.41
295.374	33.79
295.589	35.84
295.804	17.41
296.018	66.56
296.233	80.89
296.447	50.18
296.662	33.79
296.877	-7.17
297.091	-3.07
297.306	74.75
297.52	70.65
297.735	62.46
297.949	23.55
298.164	37.89
298.378	1.02
298.593	93.18
298.807	-13.31
299.022	89.09
299.236	27.65
299.451	-27.65
299.665	-46.08
299.88	-7.17
300.094	-23.55
300.309	23.55
300.523	91.13
300.737	-27.65
300.952	-11.26
301.166	70.65
301.381	56.32
301.595	15.36
301.809	-66.56
302.024	95.23
302.238	-1.02
302.452	35.84
302.667	41.98
302.881	33.79
303.095	80.89
303.309	5.12
303.524	7.17
303.738	-5.12
303.952	9.22
304.166	25.6
304.381	-3.07
304.595	23.55
304.809	-37.89
305.023	44.03
305.237	64.51
305.452	-11.26
305.666	31.74
305.88	56.32
306.094	66.56
306.308	48.13
306.522	-9.22
306.736	41.98
306.95	13.31
307.164	82.94
307.379	-44.03
307.593	23.55
307.807	-19.46
308.021	48.13
308.235	111.61
308.449	31.74
308.663	82.94
308.877	113.66
309.091	56.32
309.305	44.03
309.519	-9.22
309.733	17.41
309.947	46.08
310.161	97.28
310.374	87.04
310.588	70.65
310.802	66.56
311.016	66.56
311.23	41.98
311.444	-7.17
311.658	-60.42
311.872	62.46
312.085	46.08
312.299	17.41
312.513	64.51
312.727	-7.17
312.941	-9.22
313.154	7.17
313.368	46.08
313.582	31.74
313.796	3.07
314.009	93.18
314.223	64.51
314.437	25.6
314.651	-7.17
314.864	1.02
315.078	-23.55
315.292	7.17
315.505	15.36
315.719	150.53
315.933	50.18
316.146	84.99
316.36	29.7
316.573	95.23
316.787	62.46
317.001	-29.7
317.214	9.22
317.428	111.61
317.641	-23.55
317.855	-68.61
318.068	-15.36
318.282	91.13
318.495	72.7
318.709	33.79
318.922	74.75
319.136	-5.12
319.349	-33.79
319.563	3.07
319.776	9.22
319.99	9.22
320.203	17.41
320.417	25.6
320.63	7.17
320.843	9.22
321.057	21.5
321.27	7.17
321.483	72.7
321.697	25.6
321.91	66.56
322.124	7.17
322.337	52.22
322.55	17.41
322.763	78.85
322.977	52.22
323.19	-11.26
323.403	89.09
323.617	52.22
323.83	82.94
324.043	76.8
324.256	64.51
324.469	-17.41
324.683	-3.07
324.896	3.07
325.109	-3.07
325.322	-1.02
325.535	48.13
325.748	66.56
325.962	7.17
326.175	66.56
326.388	60.42
326.601	-35.84
326.814	74.75
327.027	29.7
327.24	68.61
327.453	-46.08
327.666	91.13
327.879	19.46
328.092	33.79
328.305	99.33
328.518	31.74
328.731	-25.6
328.944	64.51
329.157	33.79
329.37	48.13
329.583	48.13
329.796	68.61
330.009	25.6
330.222	17.41
330.435	33.79
330.648	29.7
330.861	52.22
331.073	9.22
331.286	64.51
331.499	-5.12
331.712	-31.74
331.925	19.46
332.138	41.98
332.35	68.61
332.563	33.79
332.776	58.37
332.989	-7.17
333.202	15.36
333.414	-21.5
333.627	-33.79
333.84	-31.74
334.053	23.55
334.265	60.42
334.478	78.85
334.691	25.6
334.903	5.12
335.116	48.13
335.329	-17.41
335.541	-9.22
335.754	35.84
335.966	33.79
336.179	-1.02
336.392	1.02
336.604	17.41
336.817	109.57
337.029	23.55
337.242	29.7
337.454	-7.17
337.667	82.94
337.88	19.46
338.092	29.7
338.305	52.22
338.517	60.42
338.729	-9.22
338.942	25.6
339.154	58.37
339.367	35.84
339.579	-1.02
339.792	41.98
340.004	103.42
340.217	27.65
340.429	-9.22
340.641	50.18
340.854	-17.41
341.066	37.89
341.278	50.18
341.491	44.03
341.703	74.75
341.915	48.13
342.128	-3.07
342.34	44.03
342.552	-9.22
342.764	41.98
342.977	60.42
343.189	39.94
343.401	74.75
343.613	1.02
343.826	37.89
344.038	9.22
344.25	54.27
344.462	15.36
344.674	23.55
344.886	89.09
345.099	107.52
345.311	109.57
345.523	-19.46
345.735	39.94
345.947	72.7
346.159	50.18
346.371	23.55
346.583	-7.17
346.795	148.48
347.007	15.36
347.219	7.17
347.431	-1.02
347.643	78.85
347.855	-19.46
348.067	31.74
348.279	-31.74
348.491	13.31
348.703	21.5
348.915	-3.07
349.127	68.61
349.339	33.79
349.551	-15.36
349.763	60.42
349.975	-25.6
350.187	52.22
350.399	99.33
350.61	76.8
350.822	31.74
351.034	29.7
351.246	-27.65
351.458	87.04
351.669	78.85
351.881	132.09
352.093	33.79
352.305	62.46
352.517	9.22
352.728	-9.22
352.94	91.13
353.152	23.55
353.363	41.98
353.575	19.46
353.787	66.56
353.999	58.37
354.21	54.27
354.422	13.31
354.633	72.7
354.845	84.99
355.057	1.02
355.268	76.8
355.48	56.32
355.692	-11.26
355.903	74.75
356.115	-1.02
356.326	9.22
356.538	84.99
356.749	66.56
356.961	50.18
357.172	11.26
357.384	-9.22
357.595	103.42
357.807	39.94
358.018	33.79
358.23	33.79
358.441	62.46
358.653	60.42
358.864	7.17
359.075	5.12
359.287	21.5
359.498	-37.89
359.709	52.22
359.921	17.41
360.132	74.75
360.344	58.37
360.555	5.12
360.766	80.89
360.977	50.18
361.189	-39.94
361.4	1.02
361.611	11.26
361.823	72.7
362.034	23.55
362.245	-23.55
362.456	60.42
362.667	41.98
362.879	17.41
363.09	74.75
363.301	-17.41
363.512	33.79
363.723	48.13
363.935	76.8
364.146	37.89
364.357	109.57
364.568	160.77
364.779	21.5
364.99	35.84
365.201	74.75
365.412	99.33
365.623	146.43
365.834	70.65
366.045	37.89
366.256	13.31
366.467	76.8
366.678	33.79
366.889	37.89
367.1	13.31
367.311	-5.12
367.522	25.6
367.733	60.42
367.944	89.09
368.155	19.46
368.366	37.89
368.577	39.94
368.788	13.31
368.999	25.6
369.209	23.55
369.42	58.37
369.631	113.66
369.842	46.08
370.053	82.94
370.264	-9.22
370.474	123.9
370.685	-15.36
370.896	58.37
371.107	70.65
371.317	35.84
371.528	33.79
371.739	78.85
371.95	15.36
372.16	123.9
372.371	74.75
372.582	-5.12
372.792	-54.27
373.003	41.98
373.214	56.32
373.424	99.33
373.635	21.5
373.846	64.51
374.056	33.79
374.267	46.08
374.477	64.51
374.688	31.74
374.898	15.36
375.109	46.08
375.319	15.36
375.53	17.41
375.74	58.37
375.951	60.42
376.161	101.37
376.372	1.02
376.582	29.7
376.793	111.61
377.003	46.08
377.214	74.75
377.424	25.6
377.635	5.12
377.845	-27.65
378.055	78.85
378.266	17.41
378.476	46.08
378.686	113.66
378.897	58.37
379.107	93.18
379.317	95.23
379.528	41.98
379.738	74.75
379.948	39.94
380.158	50.18
380.369	21.5
380.579	-33.79
380.789	109.57
380.999	31.74
381.21	29.7
381.42	123.9
381.63	27.65
381.84	21.5
382.05	58.37
382.261	87.04
382.471	19.46
382.681	-23.55
382.891	54.27
383.101	72.7
383.311	87.04
383.521	13.31
383.731	68.61
383.941	103.42
384.151	82.94
384.361	44.03
384.571	-9.22
384.781	76.8
384.991	87.04
385.201	68.61
385.411	64.51
385.621	125.95
385.831	64.51
386.041	70.65
386.251	17.41
386.461	50.18
386.671	93.18
386.881	93.18
387.091	68.61
387.301	117.76
387.511	62.46
387.72	58.37
387.93	50.18
388.14	134.14
388.35	97.28
388.56	60.42
388.769	78.85
388.979	33.79
389.189	-15.36
389.399	41.98
389.609	97.28
389.818	64.51
390.028	64.51
390.238	44.03
390.447	115.71
390.657	121.85
390.867	39.94
391.076	50.18
391.286	41.98
391.496	56.32
391.705	50.18
391.915	13.31
392.125	95.23
392.334	62.46
392.544	23.55
392.753	64.51
392.963	5.12
393.172	74.75
393.382	117.76
393.591	50.18
393.801	29.7
394.01	72.7
394.22	41.98
394.429	52.22
394.639	105.47
394.848	136.19
395.058	70.65
395.267	76.8
395.477	46.08
395.686	123.9
395.895	82.94
396.105	140.29
396.314	70.65
396.524	1.02
396.733	89.09
396.942	138.24
397.152	105.47
397.361	136.19
397.57	107.52
397.78	21.5
397.989	97.28
398.198	144.38
398.407	115.71
398.617	166.91
398.826	39.94
399.035	136.19
399.244	95.23
399.453	115.71
399.663	130.05
399.872	80.89
400.081	140.29
400.29	173.05
400.499	134.14
400.708	123.9
400.917	140.29
401.127	166.91
401.336	128
401.545	173.05
401.754	121.85
401.963	138.24
402.172	113.66
402.381	123.9
402.59	121.85
402.799	175.1
403.008	97.28
403.217	62.46
403.426	132.09
403.635	203.77
403.844	183.29
404.053	187.39
404.262	138.24
404.471	232.44
404.68	103.42
404.888	195.58
405.097	183.29
405.306	183.29
405.515	164.86
405.724	166.91
405.933	189.44
406.142	181.25
406.35	242.68
406.559	185.34
406.768	171.01
406.977	232.44
407.185	277.5
407.394	199.68
407.603	164.86
407.812	175.1
408.02	259.07
408.229	187.39
408.438	308.22
408.646	230.4
408.855	246.78
409.064	351.23
409.272	320.51
409.481	392.19
409.69	281.6
409.898	345.08
410.107	359.42
410.315	336.89
410.524	422.91
410.733	306.17
410.941	377.85
411.15	427
411.358	472.06
411.567	465.91
411.775	418.81
411.984	467.96
412.192	482.3
412.401	480.25
412.609	525.3
412.818	580.6
413.026	578.55
413.234	521.21
413.443	662.52
413.651	603.13
413.86	633.85
414.068	711.67
414.276	721.91
414.485	723.96
414.693	721.91
414.901	812.02
415.11	816.12
415.318	783.35
415.526	834.55
415.734	826.36
415.943	918.51
416.151	926.71
416.359	926.71
416.567	943.09
416.776	973.81
416.984	1045.49
417.192	1035.25
417.4	1113.07
417.608	1100.78
417.817	1203.18
418.025	1252.33
418.233	1254.38
418.441	1242.09
418.649	1303.53
418.857	1442.79
419.065	1352.68
419.273	1526.76
419.481	1465.32
419.689	1602.54
419.897	1647.59
420.105	1686.5
420.313	1760.23
420.521	1758.18
420.729	1831.91
420.937	1807.33
421.145	1936.35
421.353	2069.47
421.561	2087.9
421.769	2270.17
421.977	2431.96
422.185	2278.37
422.393	2415.58
422.601	2501.59
422.809	2587.61
423.017	2624.47
423.224	2665.43
423.432	2866.13
423.64	2773.97
423.848	3005.39
424.056	2927.57
424.263	3292.11
424.471	3091.41
424.679	3187.66
424.887	3513.29
425.094	3595.21
425.302	3398.6
425.51	3820.49
425.718	3693.51
425.925	3916.74
426.133	4023.23
426.341	4187.07
426.548	4326.33
426.756	4359.1
426.964	4400.06
427.171	4699.06
427.379	4821.94
427.586	4860.85
427.794	5047.22
428.001	5268.4
428.209	5446.57
428.417	5417.9
428.624	5890.98
428.832	5743.53
429.039	5903.27
429.247	5813.16
429.454	6357.92
429.662	6759.32
429.869	6427.55
430.076	6951.83
430.284	6566.81
430.491	6802.33
430.699	7314.32
430.906	7330.7
431.114	7469.97
431.321	7658.38
431.528	7801.74
431.736	8283.01
431.943	8627.07
432.15	8340.35
432.358	8567.68
432.565	9122.68
432.772	9001.85
432.979	9370.48
433.187	9782.12
433.394	9649
433.601	10136.42
433.808	10410.85
434.016	10208.1
434.223	10742.62
434.43	11256.66
434.637	11334.48
434.844	11885.39
435.052	11973.45
435.259	11811.66
435.466	12182.34
435.673	11963.21
435.88	12884.8
436.087	13333.3
436.294	13552.43
436.501	13329.2
436.708	13380.4
436.915	13888.3
437.122	14549.79
437.329	14476.07
437.537	14900
437.743	15246.1
437.95	14926.62
438.157	16096.01
438.364	16249.61
438.571	16220.94
438.778	16583.43
438.985	18137.84
439.192	17085.18
439.399	17996.53
439.606	17498.87
439.813	18526.95
440.02	19462.87
440.227	19151.58
440.433	18698.98
440.64	19675.86
440.847	19725.01
441.054	20067.02
441.261	21062.33
441.467	20830.91
441.674	21371.58
441.881	22168.24
442.088	22121.13
442.294	21953.2
442.501	22778.53
442.708	23151.26
442.914	23878.29
443.121	24922.76
443.328	24384.14
443.534	25961.08
443.741	25121.41
443.948	25055.87
444.154	26774.12
444.361	26792.55
444.568	26884.71
444.774	26696.3
444.981	26952.29
445.187	28011.09
445.394	29227.59
445.6	28731.98
445.807	31359.52
446.013	30358.06
446.22	30902.82
446.426	31855.13
446.633	31867.42
446.839	33239.56
447.046	31871.51
447.252	33741.31
447.459	33595.9
447.665	33868.28
447.871	35191.27
448.078	36692.43
448.284	34660.85
448.491	35817.95
448.697	37364.17
448.903	37994.94
449.11	37915.07
449.316	37624.26
449.522	38066.62
449.728	39041.45
449.935	39528.87
450.141	39238.06
450.347	40384.92
450.553	39233.96
450.76	39629.22
450.966	40540.57
451.172	40483.22
451.378	41552.26
451.584	40589.72
451.791	41595.27
451.997	41572.74
452.203	42058.11
452.409	41959.81
452.615	41939.33
452.821	40475.03
453.027	39971.23
453.233	42158.46
453.44	40819.09
453.646	41013.65
453.852	40972.69
454.058	42217.85
454.264	40225.18
454.47	41421.19
454.676	40300.95
454.882	41494.92
455.088	38187.45
455.294	38597.04
455.5	39580.07
455.705	39436.71
455.911	38199.74
456.117	37296.58
456.323	36841.93
456.529	35088.87
456.735	36235.74
456.941	35367.4
457.147	34867.69
457.352	34183.67
457.558	33489.41
457.764	33663.49
457.97	32883.21
458.176	32352.79
458.381	32184.85
458.587	30669.36
458.793	30566.96
458.999	29424.19
459.204	31081
459.41	30450.22
459.616	28437.07
459.821	28420.69
460.027	28334.67
460.233	27544.16
460.438	26563.18
460.644	26540.65
460.85	25399.93
461.055	24990.34
461.261	24621.7
461.466	23167.65
461.672	22246.06
461.878	24066.7
462.083	22497.96
462.289	22219.44
462.494	21938.87
462.7	20597.45
462.905	20161.23
463.111	20955.84
463.316	21183.16
463.522	20415.18
463.727	20728.52
463.932	20595.4
464.138	20103.89
464.343	20480.71
464.549	19780.31
464.754	20411.08
464.959	20495.05
465.165	20040.4
465.37	19331.8
465.575	18569.96
465.781	19565.27
465.986	19581.65
466.191	18991.84
466.397	18490.09
466.602	17593.08
466.807	18408.17
467.012	18408.17
467.218	18211.56
467.423	18105.07
467.628	18107.12
467.833	19036.89
468.038	18301.67
468.244	17597.17
468.449	18670.31
468.654	17668.85
468.859	17799.92
469.064	17369.85
469.269	16849.66
469.474	16605.95
469.679	17691.38
469.885	16937.73
470.09	16962.3
470.295	16964.35
470.5	16421.64
470.705	16626.43
470.91	16411.4
471.115	16132.87
471.32	16309
471.525	16214.79
471.73	16059.15
471.935	15973.13
472.139	15536.91
472.344	15360.79
472.549	15559.44
472.754	15371.03
472.959	14981.92
473.164	14431.01
473.369	14314.28
473.574	14803.74
473.778	14981.92
473.983	14394.15
474.188	14412.58
474.393	13904.68
474.598	14070.57
474.802	13869.87
475.007	13663.02
475.212	13757.23
475.417	13269.81
475.621	13316.92
475.826	13441.84
476.031	13218.61
476.235	12987.19
476.44	13112.12
476.645	12811.07
476.849	12557.12
477.054	12481.35
477.259	12297.03
477.463	12415.81
477.668	12125
477.872	12129.09
478.077	12000.07
478.282	11623.25
478.486	11658.06
478.691	11594.58
478.895	11666.25
479.1	11438.93
479.304	11594.58
479.509	10994.52
479.713	11672.4
479.918	11223.89
480.122	10900.31
480.326	11113.3
480.531	11035.48
480.735	11017.05
480.94	11000.66
481.144	11146.07
481.348	10771.29
481.553	11035.48
481.757	10640.22
481.961	10986.33
482.166	10812.25
482.37	10761.05
482.574	10625.89
482.778	10509.15
482.983	10756.96
483.187	10904.41
483.391	10716
483.595	10642.27
483.8	10543.97
484.004	10679.13
484.208	10716
484.412	10634.08
484.616	10711.9
484.821	10636.13
485.025	10539.87
485.229	10793.82
485.433	10654.56
485.637	10531.68
485.841	10513.25
486.045	10691.42
486.249	10449.76
486.453	10699.61
486.657	10728.28
486.861	10713.95
487.065	10621.79
487.269	10711.9
487.473	10572.64
487.677	10806.11
487.881	10611.55
488.085	10652.51
488.289	10759
488.493	10556.25
488.697	10756.96
488.901	10503.01
489.105	10726.24
489.309	10937.18
489.512	10789.72
489.716	10699.61
489.92	10619.74
490.124	10681.18
490.328	10953.56
490.531	10767.2
490.735	11002.71
490.939	10888.03
491.143	10726.24
491.346	11135.83
491.55	11238.23
491.754	10935.13
491.958	11346.77
492.161	11090.77
492.365	11113.3
492.569	11109.21
492.772	11068.25
492.976	11436.88
493.18	11574.1
493.383	11596.62
493.587	11357.01
493.79	11586.38
493.994	11332.44
494.197	11680.59
494.401	11809.61
494.605	11856.72
494.808	12206.92
495.012	12069.7
495.215	11969.35
495.419	12090.18
495.622	12180.29
495.825	12307.27
496.029	12391.23
496.232	12727.1
496.436	12510.02
496.639	12804.92
496.843	12833.6
497.046	13237.05
497.249	13280.05
497.453	13120.31
497.656	13337.4
497.859	13425.46
498.063	13419.32
498.266	13947.69
498.469	13724.46
498.673	13916.97
498.876	14103.34
499.079	14287.65
499.282	14408.48
499.485	14600.99
499.689	14687.01
499.892	15121.18
500.095	14900
500.298	14961.44
500.501	15145.75
500.705	15702.8
500.908	15954.7
501.111	15876.88
501.314	15936.27
501.517	16190.22
501.72	16327.43
501.923	16472.84
502.126	16943.87
502.329	17046.27
502.532	17060.6
502.735	17179.39
502.938	17443.57
503.141	17789.68
503.344	17611.51
503.547	17933.04
503.75	18162.41
503.953	18318.06
504.156	18707.17
504.359	18574.05
504.562	18701.03
504.765	19184.35
504.968	19213.02
505.17	19684.05
505.373	19815.12
505.576	19786.45
505.779	20333.26
505.982	20189.9
506.185	20486.86
506.387	20613.83
506.59	20961.98
506.793	21619.38
506.996	21031.62
507.198	21826.23
507.401	21766.84
507.604	21844.66
507.807	22483.62
508.009	22385.32
508.212	22721.19
508.415	23116.45
508.617	23329.44
508.82	23190.17
509.022	23091.87
509.225	23872.15
509.428	24011.41
509.63	24230.54
509.833	23984.79
510.035	25072.26
510.238	24785.54
510.44	25184.9
510.643	25229.95
510.845	25793.14
511.048	25277.05
511.25	26133.11
511.453	26446.44
511.655	27191.91
511.858	26776.17
512.06	27218.53
512.262	27224.67
512.465	27224.67
512.667	27806.3
512.87	27982.42
513.072	28150.35
513.274	28598.86
513.477	28889.67
513.679	28834.38
513.881	29145.67
514.084	29442.62
514.286	29452.86
514.488	29456.96
514.69	30519.85
514.893	30282.29
515.095	30368.3
515.297	31324.71
515.499	31101.48
515.701	31625.76
515.904	31824.41
516.106	31877.66
516.308	31908.38
516.51	32547.34
516.712	32590.35
516.914	33010.18
517.116	33438.21
517.318	33364.48
517.52	33495.55
517.722	33784.32
517.925	34179.57
518.127	34580.98
518.329	34855.4
518.531	34707.95
518.733	35348.96
518.935	35475.94
519.136	35531.23
519.338	36207.06
519.54	36231.64
519.742	36407.76
519.944	36743.63
520.146	37509.57
520.348	37190.09
520.55	37411.27
520.752	37618.11
520.954	38635.95
521.155	37816.77
521.357	38355.38
521.559	38476.21
521.761	39199.15
521.963	39301.54
522.164	39190.95
522.366	39393.7
522.568	39647.65
522.77	39840.16
522.971	40866.19
523.173	39848.35
523.375	40479.13
523.576	40515.99
523.778	40581.52
523.98	41478.54
524.181	41587.08
524.383	41251.21
524.584	41785.73
524.786	41478.54
524.988	41671.04
525.189	42285.43
525.391	42441.08
525.592	42535.29
525.794	43104.62
525.995	42942.83
526.197	43012.46
526.398	42897.78
526.6	43006.32
526.801	43606.37
527.003	43592.04
527.204	43694.44
527.406	43899.23
527.607	44175.71
527.808	44329.31
528.01	43364.71
528.211	44149.09
528.412	44812.63
528.614	44624.22
528.815	44265.82
529.016	44652.89
529.218	44525.91
529.419	44607.83
529.62	44681.56
529.822	45005.14
530.023	44788.05
530.224	45162.83
530.425	45107.54
530.626	44542.3
530.828	44861.78
531.029	45334.86
531.23	45615.43
531.431	45132.11
531.632	45332.81
531.833	45467.98
532.035	45326.67
532.236	45488.46
532.437	45773.13
532.638	45099.34
532.839	45715.78
533.04	45836.61
533.241	45123.92
533.442	46403.9
533.643	46016.83
533.844	45584.71
534.045	45525.32
534.246	45783.37
534.447	46147.9
534.648	45834.56
534.849	45558.09
535.05	45738.31
535.251	46016.83
535.451	45758.79
535.652	45861.19
535.853	45394.25
536.054	45556.04
536.255	46039.36
536.456	45513.03
536.657	46397.76
536.857	45791.56
537.058	45611.34
537.259	46068.03
537.46	45721.93
537.66	45502.79
537.861	45705.54
538.062	45429.07
538.263	46041.41
538.463	45685.06
538.664	45889.86
538.865	45664.58
539.065	45975.87
539.266	45115.73
539.466	46217.53
539.667	44917.07
539.868	46215.49
540.068	45525.32
540.269	45427.02
540.469	45877.57
540.67	45500.75
540.87	45543.75
541.071	45394.25
541.271	45652.3
541.472	45508.94
541.672	45021.52
541.873	45332.81
542.073	45369.68
542.274	45734.21
542.474	45216.08
542.675	45138.26
542.875	45529.42
543.075	45353.29
543.276	44972.37
543.476	45513.03
543.676	45422.92
543.877	45711.69
544.077	45371.72
544.277	45144.4
544.478	45379.92
544.678	45459.79
544.878	44992.85
545.078	45345.1
545.279	45070.67
545.479	45402.44
545.679	45338.96
545.879	45238.61
546.079	45291.85
546.28	45336.91
546.48	45195.6
546.68	45388.11
546.88	45117.78
547.08	45214.03
547.28	45095.25
547.48	44935.51
547.68	45461.83
547.88	44601.69
548.081	45017.43
548.281	44880.21
548.481	44781.91
548.681	45287.76
548.881	45283.66
549.081	45144.4
549.28	45001.04
549.48	44962.13
549.68	44726.61
549.88	45115.73
550.08	44851.54
550.28	45025.62
550.48	44710.23
550.68	45189.45
550.88	44953.94
551.08	44710.23
551.279	45048.14
551.479	44345.69
551.679	44505.43
551.879	44677.46
552.079	44636.5
552.278	44896.59
552.478	44153.18
552.678	44597.59
552.878	44929.36
553.077	44616.02
553.277	44616.02
553.477	44800.34
553.676	44181.85
553.876	44659.03
554.076	44271.96
554.275	44484.95
554.475	44202.33
554.674	44480.86
554.874	44185.95
555.074	44423.51
555.273	44312.92
555.473	44585.3
555.672	43962.72
555.872	44190.05
556.071	44271.96
556.271	44429.66
556.47	44095.84
556.67	43794.79
556.869	43958.63
557.068	44087.65
557.268	43571.56
557.467	44198.24
557.667	43858.27
557.866	44026.21
558.065	43837.8
558.265	43536.74
558.464	43354.47
558.663	43882.85
558.863	43395.43
559.062	43616.61
559.261	43325.8
559.461	44063.07
559.66	43389.29
559.859	43436.39
560.058	43258.22
560.258	43186.54
560.457	42561.91
560.656	42998.13
560.855	43186.54
561.054	43139.44
561.253	42594.68
561.453	43190.64
561.652	43030.9
561.851	43102.57
562.05	42549.62
562.249	42744.18
562.448	42985.84
562.647	43092.33
562.846	42475.9
563.045	42658.17
563.244	42359.16
563.443	42842.48
563.642	41785.73
563.841	42340.73
564.04	41931.14
564.239	42695.03
564.438	41908.61
564.637	42588.53
564.836	41998.72
565.035	41924.99
565.234	42168.7
565.432	42060.16
565.631	42168.7
565.83	41841.03
566.029	41597.32
566.228	41423.24
566.427	41656.71
566.625	41398.66
566.824	41130.38
567.023	41249.16
567.222	41089.42
567.42	41593.22
567.619	41126.28
567.818	40933.78
568.016	40796.56
568.215	41519.49
568.414	40898.96
568.612	40874.38
568.811	40720.79
569.01	40704.4
569.208	40391.06
569.407	40984.97
569.605	40567.19
569.804	40855.95
570.002	40452.5
570.201	40720.79
570.4	39897.5
570.598	40274.33
570.797	39907.74
570.995	40147.36
571.193	39487.91
571.392	40237.47
571.59	39766.43
571.789	39397.8
571.987	39229.87
572.186	39633.32
572.384	39477.67
572.582	39373.22
572.781	39659.94
572.979	39217.58
573.177	38900.14
573.376	39518.63
573.574	38775.22
573.772	39330.22
573.971	38830.51
574.169	38615.47
574.367	38693.3
574.565	38721.97
574.763	38625.71
574.962	38603.19
575.16	37890.49
575.358	38248.89
575.556	37822.91
575.754	38601.14
575.952	37718.46
576.151	38400.44
576.349	37648.83
576.547	37804.48
576.745	37685.7
576.943	37736.9
577.141	37448.13
577.339	37706.18
577.537	37454.28
577.735	37122.51
577.933	37411.27
578.131	37628.35
578.329	37276.1
578.527	36784.59
578.725	37030.35
578.923	36952.52
579.121	37065.16
579.319	36731.34
579.516	36882.89
579.714	36803.02
579.912	36499.92
580.11	36714.96
580.308	36803.02
580.506	36354.52
580.704	36024.79
580.901	36428.24
581.099	36166.1
581.297	36227.54
581.495	35807.71
581.692	36002.27
581.89	35197.41
582.088	35832.29
582.285	35670.5
582.483	35672.54
582.681	35351.01
582.878	35256.81
583.076	35068.39
583.274	35633.63
583.471	35017.19
583.669	35279.33
583.866	34597.36
584.064	35228.13
584.262	34271.73
584.459	34857.45
584.657	34843.12
584.854	35193.32
585.052	34130.42
585.249	34601.46
585.447	34075.13
585.644	33901.05
585.841	34042.36
586.039	34380.28
586.236	34032.12
586.434	33583.62
586.631	33602.05
586.828	33765.88
587.026	33509.89
587.223	33221.13
587.42	33675.77
587.618	33303.04
587.815	32926.22
588.012	32942.6
588.21	32909.83
588.407	33274.37
588.604	32786.96
588.801	32631.31
588.999	32571.92
589.196	32954.89
589.393	32481.81
589.59	32463.38
589.787	32252.44
589.984	32363.03
590.182	32297.49
590.379	32180.76
590.576	31973.91
590.773	32037.4
590.97	31875.61
591.167	31996.44
591.364	31269.41
591.561	31636
591.758	31033.89
591.955	31531.55
592.152	31855.13
592.349	31185.44
592.546	31590.94
592.743	31361.57
592.94	30990.89
593.137	31025.7
593.334	31072.81
593.531	30452.27
593.727	30710.32
593.924	30642.73
594.121	30423.6
594.318	30620.2
594.515	30001.72
594.712	30450.22
594.908	30456.37
595.105	30591.53
595.302	29743.67
595.499	30034.49
595.696	29731.39
595.892	29631.04
596.089	29712.95
596.286	30079.54
596.482	29520.45
596.679	29557.31
596.876	29710.91
597.072	29428.29
597.269	29168.19
597.466	28764.75
597.662	28944.97
597.859	28926.53
598.055	28668.49
598.252	28703.31
598.448	28715.59
598.645	28537.42
598.841	28611.15
599.038	28590.67
599.234	28670.54
599.431	28449.36
599.627	28203.6
599.824	28199.51
600.02	27658.84
600.217	28013.14
600.413	27771.48
600.609	27437.66
600.806	27503.2
601.002	27941.46
601.198	27529.82
601.395	27355.74
601.591	27239.01
601.787	27191.91
601.984	27357.79
602.18	27437.66
602.376	27052.64
602.572	27220.58
602.769	27060.84
602.965	26753.64
603.161	26946.15
603.357	26866.28
603.553	26579.56
603.75	26632.81
603.946	26554.99
604.142	26391.15
604.338	26139.25
604.534	26186.35
604.73	25750.14
604.926	26079.86
605.122	26163.82
605.318	25852.53
605.514	25782.9
605.71	25637.5
605.906	25678.46
606.102	25832.05
606.298	25602.68
606.494	25506.43
606.69	25750.14
606.886	25451.13
607.082	25225.86
607.278	25598.59
607.474	25313.92
607.67	25279.1
607.866	24998.53
608.062	25346.69
608.257	25090.69
608.453	25109.12
608.649	24836.74
608.845	24674.95
609.041	24658.57
609.236	24677
609.432	24869.51
609.628	24861.32
609.824	24791.69
610.019	24697.48
610.215	24633.99
610.411	24537.74
610.606	24445.58
610.802	24543.88
610.998	24441.48
611.193	24378
611.389	24351.37
611.584	24093.33
611.78	23798.42
611.976	24359.56
612.171	24001.17
612.367	24171.15
612.562	23939.73
612.758	23872.15
612.953	23800.47
613.149	24011.41
613.344	23689.88
613.539	24124.05
613.735	23939.73
613.93	23831.19
614.126	23442.07
614.321	23552.66
614.517	23620.25
614.712	23388.83
614.907	23593.62
615.103	23362.2
615.298	23321.24
615.493	23569.05
615.688	23159.45
615.884	23616.15
616.079	23022.24
616.274	23476.89
616.47	23028.38
616.665	23003.81
616.86	22702.76
617.055	23063.2
617.25	23055.01
617.445	22936.23
617.641	22485.67
617.836	22782.63
618.031	22649.51
618.226	22500.01
618.421	22473.39
618.616	22741.67
618.811	22606.5
619.006	22571.69
619.201	22076.08
619.396	22454.95
619.591	21836.47
619.786	22203.05
619.981	21662.39
620.176	22043.31
620.371	21449.4
620.566	21703.35
620.761	21441.21
620.956	21459.64
621.151	21226.17
621.346	21512.89
621.541	21193.4
621.735	21203.64
621.93	20968.13
622.125	20992.7
622.32	20683.46
622.515	20546.25
622.709	20599.49
622.904	20652.74
623.099	20353.74
623.294	20431.56
623.488	20355.79
623.683	20085.45
623.878	19761.87
624.072	19901.14
624.267	20028.11
624.462	19774.16
624.656	19458.78
624.851	20009.68
625.046	19505.88
625.24	19368.66
625.435	19008.22
625.629	19124.96
625.824	18701.03
626.018	19053.28
626.213	18797.28
626.407	18918.11
626.602	18383.59
626.796	18645.73
626.991	18412.26
627.185	18215.66
627.38	18107.12
627.574	18299.62
627.768	17986.29
627.963	17793.78
628.157	17777.39
628.352	17822.45
628.546	17490.68
628.74	17859.31
628.935	17535.73
629.129	17369.85
629.323	17214.2
629.517	17136.38
629.712	17193.72
629.906	17289.98
630.1	17011.45
630.294	16855.81
630.489	16665.35
630.683	16769.79
630.877	16478.98
631.071	16276.23
631.265	16319.24
631.459	16354.05
631.653	16067.34
631.848	16364.29
632.042	16255.75
632.236	16311.05
632.43	15889.17
632.624	15631.12
632.818	15858.45
633.012	15522.58
633.206	15340.31
633.4	15571.73
633.594	15112.99
633.788	15246.1
633.982	15704.85
634.176	15217.43
634.369	15010.59
634.563	15086.36
634.757	14922.52
634.951	14816.03
635.145	14625.57
635.339	14852.89
635.533	14756.64
635.726	14738.21
635.92	14510.88
636.114	14428.96
636.308	14336.81
636.501	14326.57
636.695	14158.63
636.889	14138.15
637.083	14023.47
637.276	14023.47
637.47	14056.23
637.664	13865.77
637.857	13802.29
638.051	13746.99
638.244	13622.06
638.438	13525.81
638.632	13517.62
638.825	13392.69
639.019	13359.92
639.212	13306.68
639.406	13351.73
639.599	12981.05
639.793	13028.15
639.986	12823.36
640.18	12852.03
640.373	12888.89
640.567	12702.53
640.76	12917.56
640.954	12542.78
641.147	12430.15
641.34	12505.92
641.534	12585.79
641.727	12452.67
641.92	12278.6
642.114	12307.27
642.307	12110.66
642.5	12000.07
642.694	12112.71
642.887	12047.18
643.08	11871.05
643.273	11756.36
643.467	11830.09
643.66	11731.79
643.853	11938.63
644.046	11674.45
644.239	11610.96
644.432	11621.2
644.626	11606.86
644.819	11479.89
645.012	11574.1
645.205	11377.49
645.398	11240.28
645.591	11279.19
645.784	10990.42
645.977	11178.84
646.17	11066.2
646.363	10955.61
646.556	10808.16
646.749	10959.7
646.942	10806.11
647.135	10912.6
647.328	10650.46
647.521	10664.8
647.714	10496.86
647.907	10396.51
648.099	10349.41
648.292	10425.18
648.485	10455.9
648.678	10345.31
648.871	10341.22
649.064	10058.6
649.256	10359.65
649.449	10066.79
649.642	10023.78
649.835	9993.06
650.027	9986.92
650.22	9755.5
650.413	10031.97
650.605	9843.56
650.798	9808.75
650.991	9730.92
651.183	9616.24
651.376	9399.15
651.568	9534.32
651.761	9397.1
651.954	9485.17
652.146	9462.64
652.339	9489.26
652.531	9405.3
652.724	9098.1
652.916	9046.9
653.109	9137.01
653.301	9051
653.494	9182.07
653.686	8786.81
653.879	8919.93
654.071	8893.3
654.263	8838.01
654.456	8946.55
654.648	8805.24
654.84	8831.87
655.033	8588.16
655.225	8571.77
655.417	8737.66
655.61	8526.72
655.802	8471.42
655.994	8420.22
656.186	8379.26
656.379	8321.92
656.571	8444.8
656.763	8139.65
656.955	8213.38
657.148	8303.49
657.34	8221.57
657.532	8067.97
657.724	7959.43
657.916	8051.59
658.108	7928.71
658.3	7912.33
658.492	7822.22
658.684	7861.13
658.876	7750.54
659.068	7830.41
659.26	7740.3
659.452	7701.39
659.644	7605.13
659.836	7553.93
660.028	7555.98
660.22	7504.78
660.412	7396.24
660.604	7361.42
660.796	7345.04
660.988	7308.18
661.18	7299.98
661.372	7107.48
661.563	7306.13
661.755	7142.29
661.947	7201.68
662.139	6943.64
662.331	7082.9
662.522	7117.72
662.714	6978.45
662.906	6839.19
663.097	6904.73
663.289	6968.21
663.481	6775.7
663.673	6800.28
663.864	6759.32
664.056	6783.9
664.247	6638.49
664.439	6677.4
664.631	6681.5
664.822	6652.83
665.014	6626.2
665.205	6601.63
665.397	6493.08
665.588	6425.5
665.78	6433.69
665.971	6335.39
666.163	6390.69
666.354	6323.1
666.546	6362.01
666.737	6200.23
666.929	6431.65
667.12	6189.99
667.311	6169.51
667.503	6161.31
667.694	6132.64
667.885	6185.89
668.077	6146.98
668.268	5944.23
668.459	5929.89
668.651	5985.19
668.842	5938.09
669.033	5817.26
669.224	5903.27
669.416	5882.79
669.607	5796.78
669.798	5850.02
669.989	5962.66
670.18	5868.45
670.371	5657.51
670.563	5698.47
670.754	5708.71
670.945	5575.59
671.136	5755.82
671.327	5639.08
671.518	5481.39
671.709	5694.38
671.9	5512.11
672.091	5471.15
672.282	5559.21
672.473	5473.2
672.664	5544.88
672.855	5374.89
673.046	5448.62
673.237	5284.78
673.428	5301.17
673.619	5268.4
673.809	5325.74
674	5206.96
674.191	5362.61
674.382	5194.67
674.573	5141.43
674.764	5243.82
674.954	5202.86
675.145	5092.27
675.336	5135.28
675.527	5118.9
675.717	5108.66
675.908	5161.91
676.099	5102.51
676.289	5077.94
676.48	5043.12
676.671	5063.6
676.861	4877.24
677.052	5096.37
677.243	4869.05
677.433	5057.46
677.624	4965.3
677.814	4780.98
678.005	4912.05
678.195	4950.96
678.386	4785.08
678.576	4826.04
678.767	4746.17
678.957	4950.96
679.148	4778.94
679.338	4668.34
679.529	4805.56
679.719	4715.45
679.909	4764.6
680.1	4797.37
680.29	4651.96
680.481	4873.14
680.671	4674.49
680.861	4823.99
681.052	4785.08
681.242	4615.1
681.432	4703.16
681.622	4436.92
681.813	4582.33
682.003	4582.33
682.193	4588.47
682.383	4768.7
682.573	4598.71
682.764	4506.56
682.954	4633.53
683.144	4570.04
683.334	4447.16
683.524	4441.02
683.714	4473.79
683.904	4434.88
684.094	4608.95
684.284	4461.5
684.474	4531.13
684.664	4434.88
684.854	4539.32
685.044	4350.91
685.234	4314.05
685.424	4293.57
685.614	4252.61
685.804	4268.99
685.994	4383.68
686.184	4469.69
686.374	4473.79
686.564	4207.55
686.753	4260.8
686.943	4158.4
687.133	4371.39
687.323	4144.06
687.513	4209.6
687.702	4150.21
687.892	4148.16
688.082	4162.5
688.272	4074.43
688.461	4115.39
688.651	4094.91
688.841	4019.14
689.03	3996.61
689.22	3931.08
689.41	3972.04
689.599	3969.99
689.789	3896.26
689.979	3982.28
690.168	3830.73
690.358	3830.73
690.547	3849.16
690.737	3914.69
690.926	3873.73
691.116	3771.33
691.305	3791.81
691.495	3705.8
691.684	3744.71
691.874	3752.9
692.063	3707.85
692.252	3568.59
692.442	3843.01
692.631	3605.45
692.82	3570.63
693.01	3572.68
693.199	3511.24
693.388	3484.62
693.578	3480.52
693.767	3531.72
693.956	3474.38
694.146	3599.31
694.335	3398.6
694.524	3343.31
694.713	3400.65
694.902	3242.96
695.092	3308.49
695.281	3322.83
695.47	3388.36
695.659	3269.58
695.848	3285.97
696.037	3322.83
696.226	3412.94
696.415	3326.93
696.604	3183.57
696.793	3257.29
696.982	3195.86
697.171	3285.97
697.36	3181.52
697.549	3148.75
697.738	3154.9
697.927	3212.24
698.116	3208.14
698.305	3062.74
698.494	3072.98
698.683	3060.69
698.872	3105.74
699.061	3134.42
699.25	2991.06
699.438	3034.07
699.627	3036.11
699.816	3193.81
700.005	3156.94
700.193	3056.59
700.382	3027.92
700.571	2909.14
700.76	2984.91
700.948	2991.06
701.137	2933.72
701.326	2839.51
701.514	2997.2
701.703	2954.19
701.892	2950.1
702.08	2851.8
702.269	2794.45
702.457	2927.57
702.646	2880.47
702.834	2882.52
703.023	2907.09
703.212	2857.94
703.4	2886.61
703.589	2841.56
703.777	2855.89
703.965	2749.4
704.154	2870.23
704.342	2835.41
704.531	2814.93
704.719	2733.01
704.907	2806.74
705.096	2733.01
705.284	2745.3
705.472	2778.07
705.661	2655.19
705.849	2798.55
706.037	2728.92
706.226	2741.21
706.414	2931.67
706.602	2743.25
706.79	2638.81
706.979	2577.37
707.167	2769.88
707.355	2700.25
707.543	2808.79
707.731	2724.82
707.919	2667.48
708.107	2708.44
708.296	2649.05
708.484	2794.45
708.672	2685.91
708.86	2810.84
709.048	2671.58
709.236	2560.98
709.424	2638.81
709.612	2704.34
709.8	2624.47
709.988	2618.33
710.176	2704.34
710.364	2694.1
710.551	2634.71
710.739	2610.14
710.927	2745.3
711.115	2669.53
711.303	2698.2
711.491	2700.25
711.679	2630.62
711.866	2706.39
712.054	2700.25
712.242	2638.81
712.43	2763.73
712.617	2675.67
712.805	2784.21
712.993	2528.22
713.181	2530.27
713.368	2589.66
713.556	2675.67
713.744	2491.35
713.931	2683.86
714.119	2669.53
714.306	2595.8
714.494	2636.76
714.682	2653.14
714.869	2610.14
715.057	2655.19
715.244	2644.95
715.432	2671.58
715.619	2706.39
715.807	2612.18
715.994	2638.81
716.182	2632.66
716.369	2626.52
716.556	2587.61
716.744	2661.34
716.931	2573.27
717.119	2710.49
717.306	2491.35
717.493	2638.81
717.681	2606.04
717.868	2606.04
718.055	2560.98
718.242	2771.93
718.43	2593.75
718.617	2610.14
718.804	2749.4
718.991	2585.56
719.179	2624.47
719.366	2567.13
719.553	2554.84
719.74	2749.4
719.927	2599.9
720.114	2700.25
720.301	2601.94
720.488	2606.04
720.676	2692.05
720.863	2634.71
721.05	2634.71
721.237	2749.4
721.424	2640.86
721.611	2728.92
721.798	2603.99
721.985	2581.46
722.172	2671.58
722.358	2530.27
722.545	2632.66
722.732	2542.55
722.919	2622.42
723.106	2589.66
723.293	2606.04
723.48	2653.14
723.667	2624.47
723.853	2626.52
724.04	2653.14
724.227	2667.48
724.414	2591.7
724.6	2515.93
724.787	2644.95
724.974	2673.62
725.161	2554.84
725.347	2560.98
725.534	2585.56
725.72	2597.85
725.907	2638.81
726.094	2638.81
726.28	2515.93
726.467	2585.56
726.653	2601.94
726.84	2618.33
727.027	2647
727.213	2671.58
727.4	2569.18
727.586	2552.79
727.773	2606.04
727.959	2560.98
728.145	2587.61
728.332	2687.96
728.518	2663.38
728.705	2696.15
728.891	2573.27
729.077	2603.99
729.264	2644.95
729.45	2749.4
729.636	2751.45
729.823	2491.35
730.009	2622.42
730.195	2624.47
730.382	2743.25
730.568	2679.77
730.754	2593.75
730.94	2657.24
731.126	2581.46
731.313	2603.99
731.499	2606.04
731.685	2501.59
731.871	2673.62
732.057	2708.44
732.243	2677.72
732.429	2520.03
732.615	2722.77
732.801	2671.58
732.987	2618.33
733.173	2603.99
733.359	2616.28
733.545	2540.51
733.731	2606.04
733.917	2622.42
734.103	2597.85
734.289	2630.62
734.475	2687.96
734.661	2624.47
734.847	2509.79
735.033	2644.95
735.219	2579.42
735.404	2679.77
735.59	2595.8
735.776	2591.7
735.962	2653.14
736.148	2544.6
736.333	2630.62
736.519	2532.31
736.705	2565.08
736.89	2622.42
737.076	2589.66
737.262	2495.45
737.447	2589.66
737.633	2505.69
737.819	2513.88
738.004	2413.53
738.19	2565.08
738.375	2466.78
738.561	2671.58
738.747	2448.35
738.932	2554.84
739.118	2524.12
739.303	2581.46
739.489	2571.22
739.674	2444.25
739.859	2507.74
740.045	2464.73
740.23	2442.2
740.416	2427.87
740.601	2425.82
740.786	2434.01
740.972	2409.44
741.157	2491.35
741.342	2456.54
741.528	2503.64
741.713	2456.54
741.898	2442.2
742.084	2190.3
742.269	2384.86
742.454	2223.07
742.639	2438.11
742.824	2282.46
743.01	2429.91
743.195	2362.33
743.38	2280.41
743.565	2348
743.75	2302.94
743.935	2218.97
744.12	2194.4
744.305	2190.3
744.49	2243.55
744.675	2311.13
744.86	2245.6
745.045	2214.88
745.23	2218.97
745.415	1962.98
745.6	2286.56
745.785	2200.54
745.97	2221.02
746.155	2163.68
746.34	2130.91
746.525	2106.34
746.71	2139.1
746.895	2053.09
747.079	2038.75
747.264	2112.48
747.449	2112.48
747.634	2005.99
747.819	2016.23
748.003	1997.79
748.188	2059.23
748.373	1991.65
748.557	1956.83
748.742	1995.75
748.927	1950.69
749.111	2018.27
749.296	2057.18
749.481	1913.83
749.665	2003.94
749.85	1958.88
750.034	1883.11
750.219	1770.47
750.404	1883.11
750.588	1895.4
750.773	1901.54
750.957	1985.51
751.141	1883.11
751.326	1893.35
751.51	1897.44
751.695	1805.28
751.879	1819.62
752.064	1868.77
752.248	1844.2
752.432	1756.13
752.617	1776.61
752.801	1799.14
752.985	1702.89
753.17	1788.9
753.354	1768.42
753.538	1688.55
753.722	1606.63
753.907	1663.97
754.091	1633.26
754.275	1539.05
754.459	1725.41
754.643	1666.02
754.828	1627.11
755.012	1639.4
755.196	1569.77
755.38	1520.62
755.564	1637.35
755.748	1612.78
755.932	1569.77
756.116	1473.51
756.3	1549.29
756.484	1500.14
756.668	1420.27
756.852	1352.68
757.036	1401.83
757.22	1489.9
757.404	1496.04
757.588	1383.4
757.772	1463.27
757.956	1340.4
758.14	1410.03
758.323	1377.26
758.507	1410.03
758.691	1457.13
758.875	1385.45
759.059	1418.22
759.242	1344.49
759.426	1328.11
759.61	1340.4
759.794	1315.82
759.977	1328.11
760.161	1324.01
760.345	1303.53
760.528	1381.35
760.712	1238
760.895	1299.44
761.079	1221.61
761.263	1297.39
761.446	1229.81
761.63	1180.65
761.813	1229.81
761.997	1180.65
762.18	1225.71
762.364	1262.57
762.547	1106.93
762.731	1238
762.914	1229.81
763.098	1168.37
763.281	1283.05
763.464	1192.94
763.648	1219.57
763.831	1285.1
764.015	1215.47
764.198	1229.81
764.381	1137.65
764.564	1199.09
764.748	1207.28
764.931	1117.17
765.114	1123.31
765.297	1088.5
765.481	1111.02
765.664	1174.51
765.847	1180.65
766.03	1139.69
766.213	1086.45
766.397	1166.32
766.58	1088.5
766.763	1049.58
766.946	1082.35
767.129	1031.15
767.312	1117.17
767.495	1162.22
767.678	986.1
767.861	1141.74
768.044	1065.97
768.227	1045.49
768.41	1053.68
768.593	1029.1
768.776	1022.96
768.959	1082.35
769.142	1102.83
769.324	1033.2
769.507	1031.15
769.69	1029.1
769.873	1020.91
770.056	992.24
770.239	1076.21
770.421	969.71
770.604	982
770.787	990.19
770.97	973.81
771.152	869.36
771.335	926.71
771.518	877.55
771.7	982
771.883	957.43
772.066	922.61
772.248	912.37
772.431	947.19
772.613	982
772.796	887.79
772.978	902.13
773.161	930.8
773.343	818.16
773.526	943.09
773.708	906.23
773.891	822.26
774.073	941.04
774.256	926.71
774.438	945.14
774.621	822.26
774.803	859.12
774.985	832.5
775.168	893.94
775.35	805.88
775.532	855.03
775.715	732.15
775.897	824.31
776.079	859.12
776.261	838.64
776.444	906.23
776.626	863.22
776.808	842.74
776.99	771.06
777.173	736.24
777.355	740.34
777.537	726
777.719	832.5
777.901	756.72
778.083	680.95
778.265	723.96
778.447	812.02
778.629	756.72
778.811	689.14
778.993	697.33
779.175	812.02
779.357	728.05
779.539	738.29
779.721	803.83
779.903	726
780.085	680.95
780.267	685.05
780.449	650.23
780.631	734.2
780.812	723.96
780.994	670.71
781.176	699.38
781.358	617.46
781.54	711.67
781.721	635.89
781.903	648.18
782.085	607.22
782.267	558.07
782.448	570.36
782.63	599.03
782.812	629.75
782.993	619.51
783.175	586.74
783.357	615.41
783.538	594.93
783.72	586.74
783.901	549.88
784.083	611.32
784.264	545.78
784.446	582.65
784.627	562.17
784.809	500.73
784.99	525.3
785.172	611.32
785.353	553.98
785.535	515.06
785.716	574.46
785.897	545.78
786.079	558.07
786.26	521.21
786.441	531.45
786.623	459.77
786.804	500.73
786.985	435.19
787.167	443.39
787.348	427
787.529	535.54
787.71	447.48
787.891	527.35
788.073	433.15
788.254	463.86
788.435	433.15
788.616	529.4
788.797	435.19
788.978	422.91
789.159	418.81
789.34	437.24
789.522	439.29
789.703	435.19
789.884	467.96
790.065	443.39
790.246	447.48
790.427	373.75
790.607	390.14
790.788	443.39
790.969	429.05
791.15	461.82
791.331	416.76
791.512	388.09
791.693	390.14
791.874	312.32
792.054	414.71
792.235	379.9
792.416	349.18
792.597	361.47
792.778	379.9
792.958	406.52
793.139	363.51
793.32	383.99
793.5	343.03
793.681	371.71
793.862	369.66
794.042	455.67
794.223	455.67
794.404	375.8
794.584	328.7
794.765	293.88
794.945	357.37
795.126	379.9
795.306	347.13
795.487	269.31
795.667	345.08
795.848	351.23
796.028	351.23
796.209	304.12
796.389	271.36
796.57	334.84
796.75	328.7
796.93	312.32
797.111	320.51
797.291	373.75
797.471	377.85
797.652	320.51
797.832	261.12
798.012	263.16
798.192	304.12
798.373	291.84
798.553	302.08
798.733	320.51
798.913	381.95
799.093	310.27
799.274	336.89
799.454	304.12
799.634	271.36
799.814	236.54
799.994	263.16
800.174	336.89
800.354	328.7
800.534	291.84
800.714	246.78
800.894	248.83
801.074	234.49
801.254	218.11
801.434	218.11
801.614	232.44
801.794	279.55
801.974	613.37
802.154	257.02
802.334	275.45
802.514	269.31
802.693	236.54
802.873	279.55
803.053	287.74
803.233	197.63
803.413	308.22
803.592	281.6
803.772	228.35
803.952	220.16
804.131	363.51
804.311	197.63
804.491	207.87
804.67	236.54
804.85	168.96
805.03	228.35
805.209	300.03
805.389	197.63
805.568	166.91
805.748	246.78
805.928	181.25
806.107	259.07
806.287	242.68
806.466	224.25
806.646	187.39
806.825	218.11
807.004	193.53
807.184	228.35
807.363	179.2
807.543	168.96
807.722	269.31
807.901	222.2
808.081	199.68
808.26	156.67
808.439	214.01
808.619	209.92
808.798	203.77
808.977	177.15
809.156	238.59
809.336	185.34
809.515	160.77
809.694	238.59
809.873	156.67
810.052	248.83
810.231	281.6
810.411	173.05
810.59	209.92
810.769	168.96
810.948	189.44
811.127	189.44
811.306	216.06
811.485	197.63
811.664	261.12
811.843	154.62
812.022	144.38
812.201	193.53
812.38	189.44
812.559	207.87
812.737	111.61
812.916	99.33
813.095	171.01
813.274	216.06
813.453	201.72
813.632	152.57
813.811	119.81
813.989	164.86
814.168	234.49
814.347	203.77
814.526	105.47
814.704	138.24
814.883	148.48
815.062	160.77
815.24	220.16
815.419	156.67
815.598	162.81
815.776	132.09
815.955	123.9
816.133	121.85
816.312	144.38
816.49	113.66
816.669	146.43
816.847	142.33
817.026	185.34
817.204	154.62
817.383	168.96
817.561	132.09
817.74	183.29
817.918	132.09
818.097	181.25
818.275	136.19
818.453	113.66
818.632	189.44
818.81	209.92
818.988	78.85
819.167	146.43
819.345	128
819.523	138.24
819.701	132.09
819.879	181.25
820.058	132.09
820.236	156.67
820.414	125.95
820.592	78.85
820.77	181.25
820.948	107.52
821.127	117.76
821.305	111.61
821.483	89.09
821.661	254.97
821.839	152.57
822.017	130.05
822.195	148.48
822.373	146.43
822.551	89.09
822.729	148.48
822.907	140.29
823.085	125.95
823.262	164.86
823.44	160.77
823.618	181.25
823.796	201.72
823.974	84.99
824.152	107.52
824.329	123.9
824.507	119.81
824.685	25.6
824.863	132.09
825.04	144.38
825.218	111.61
825.396	113.66
825.574	130.05
825.751	46.08
825.929	121.85
826.107	109.57
826.284	119.81
826.462	189.44
826.639	35.84
826.817	91.13
826.994	76.8
827.172	70.65
827.349	111.61
827.527	82.94
827.704	154.62
827.882	146.43
828.059	35.84
828.237	103.42
828.414	111.61
828.591	107.52
828.769	125.95
828.946	25.6
829.124	103.42
829.301	103.42
829.478	121.85
829.655	74.75
829.833	54.27
830.01	54.27
830.187	115.71
830.364	-37.89
830.542	154.62
830.719	171.01
830.896	107.52
831.073	91.13
831.25	123.9
831.427	121.85
831.604	78.85
831.782	58.37
831.959	107.52
832.136	56.32
832.313	80.89
832.49	101.37
832.667	17.41
832.844	54.27
833.021	109.57
833.198	39.94
833.374	97.28
833.551	138.24
833.728	33.79
833.905	162.81
834.082	89.09
834.259	144.38
834.436	64.51
834.612	144.38
834.789	115.71
834.966	105.47
835.143	74.75
835.319	56.32
835.496	84.99
835.673	64.51
835.85	84.99
836.026	140.29
836.203	95.23
836.38	37.89
836.556	144.38
836.733	95.23
836.909	121.85
837.086	-1.02
837.262	33.79
837.439	78.85
837.616	66.56
837.792	33.79
837.968	117.76
838.145	25.6
838.321	66.56
838.498	111.61
838.674	-13.31
838.851	35.84
839.027	82.94
839.203	25.6
839.38	62.46
839.556	27.65
839.732	99.33
839.909	46.08
840.085	103.42
840.261	58.37
840.437	50.18
840.614	27.65
840.79	80.89
840.966	82.94
841.142	27.65
841.318	54.27
841.494	58.37
841.671	146.43
841.847	97.28
842.023	25.6
842.199	62.46
842.375	89.09
842.551	93.18
842.727	9.22
842.903	35.84
843.079	19.46
843.255	132.09
843.431	17.41
843.607	21.5
843.783	56.32
843.959	29.7
844.134	58.37
844.31	31.74
844.486	66.56
844.662	54.27
844.838	105.47
845.013	50.18
845.189	1.02
845.365	78.85
845.541	82.94
845.716	119.81
845.892	31.74
846.068	-17.41
846.244	66.56
846.419	74.75
846.595	52.22
846.77	-25.6
846.946	87.04
847.122	107.52
847.297	82.94
847.473	27.65
847.648	-1.02
847.824	144.38
847.999	-15.36
848.175	-29.7
848.35	54.27
848.526	107.52
848.701	41.98
848.876	23.55
849.052	-1.02
849.227	33.79
849.403	62.46
849.578	70.65
849.753	52.22
849.929	58.37
850.104	25.6
850.279	66.56
850.454	82.94
850.63	107.52
850.805	82.94
850.98	11.26
851.155	70.65
851.33	66.56
851.505	-1.02
851.681	9.22
851.856	21.5
852.031	44.03
852.206	109.57
852.381	60.42
852.556	-9.22
852.731	80.89
852.906	29.7
853.081	-5.12
853.256	66.56
853.431	95.23
853.606	82.94
853.781	52.22
853.956	41.98
854.131	33.79
854.305	25.6
854.48	-11.26
854.655	7.17
854.83	58.37
855.005	13.31
855.18	15.36
855.354	66.56
855.529	74.75
855.704	25.6
855.879	54.27
856.053	-1.02
856.228	1.02
856.403	9.22
856.577	31.74
856.752	-19.46
856.926	115.71
857.101	130.05
857.276	125.95
857.45	25.6
857.625	29.7
857.799	87.04
857.974	35.84
858.148	-7.17
858.323	105.47
858.497	5.12
858.672	41.98
858.846	-9.22
859.02	29.7
859.195	17.41
859.369	-19.46
859.543	82.94
859.718	13.31
859.892	27.65
860.066	15.36
860.241	29.7
860.415	93.18
860.589	37.89
860.763	84.99
860.938	109.57
861.112	29.7
861.286	-3.07
861.46	31.74
861.634	46.08
861.808	23.55
861.982	-46.08
862.157	-31.74
862.331	-11.26
862.505	115.71
862.679	-56.32
862.853	-50.18
863.027	91.13
863.201	44.03
863.375	1.02
863.549	-23.55
863.722	74.75
863.896	5.12
864.07	44.03
864.244	48.13
864.418	-52.22
864.592	21.5
864.766	9.22
864.939	11.26
865.113	-7.17
865.287	60.42
865.461	58.37
865.634	23.55
865.808	60.42
865.982	44.03
866.156	-35.84
866.329	7.17
866.503	72.7
866.676	50.18
866.85	70.65
867.024	107.52
867.197	29.7
867.371	93.18
867.544	-23.55
867.718	99.33
867.891	68.61
868.065	23.55
868.238	50.18
868.412	66.56
868.585	78.85
868.759	54.27
868.932	-5.12
869.105	44.03
869.279	27.65
869.452	39.94
869.625	7.17
869.799	-3.07
869.972	-25.6
870.145	19.46
870.319	27.65
870.492	72.7
870.665	72.7
870.838	37.89
871.011	1.02
871.185	-29.7
871.358	29.7
871.531	11.26
871.704	-25.6
871.877	7.17
872.05	-72.7
872.223	37.89
872.396	1.02
872.569	35.84
872.742	-64.51
872.915	-21.5
873.088	39.94
873.261	44.03
873.434	80.89
873.607	25.6
873.78	-50.18
873.953	13.31
874.126	15.36
874.299	-46.08
874.471	-23.55
874.644	21.5
874.817	37.89
874.99	23.55
875.163	-60.42
875.335	-44.03
875.508	-13.31
875.681	15.36
875.853	13.31
876.026	82.94
876.199	11.26
876.371	70.65
876.544	9.22
876.717	44.03
876.889	15.36
877.062	9.22
877.234	56.32
877.407	-3.07
877.579	5.12
877.752	25.6
877.924	31.74
878.097	25.6
878.269	19.46
878.442	39.94
878.614	37.89
878.786	21.5
878.959	-15.36
879.131	-33.79
879.303	-35.84
879.476	-29.7
879.648	19.46
879.82	-64.51
879.993	-44.03
880.165	-35.84
880.337	54.27
880.509	1.02
880.681	-15.36
880.854	21.5
881.026	66.56
881.198	13.31
881.37	-15.36
881.542	70.65
881.714	33.79
881.886	-39.94
882.058	41.98
882.23	13.31
882.402	-25.6
882.574	39.94
882.746	46.08
882.918	50.18
883.09	31.74
883.262	25.6
883.434	17.41
883.606	3.07
883.778	1.02
883.95	21.5
884.122	-48.13
884.293	-9.22
884.465	50.18
884.637	-23.55
884.809	23.55
884.98	-1.02
885.152	-41.98
885.324	54.27
885.496	46.08
885.667	29.7
885.839	15.36
886.011	17.41
886.182	33.79
886.354	37.89
886.525	-11.26
886.697	-78.85
886.869	-62.46
887.04	46.08
887.212	-7.17
887.383	58.37
887.555	78.85
887.726	-31.74
887.897	23.55
888.069	101.37
888.24	3.07
888.412	-13.31
888.583	27.65
888.754	-5.12
888.926	17.41
889.097	-35.84
889.268	-35.84
889.44	56.32
889.611	-1.02
889.782	52.22
889.953	-54.27
890.125	7.17
890.296	-66.56
890.467	-103.42
890.638	23.55
890.809	7.17
890.98	31.74
891.151	21.5
891.323	29.7
891.494	15.36
891.665	46.08
891.836	97.28
892.007	-29.7
892.178	-37.89
892.349	25.6
892.52	-97.28
892.691	15.36
892.862	54.27
893.032	54.27
893.203	13.31
893.374	-41.98
893.545	35.84
893.716	52.22
893.887	29.7
894.057	-7.17
894.228	39.94
894.399	-15.36
894.57	50.18
894.74	-9.22
894.911	-19.46
895.082	-3.07
895.253	60.42
895.423	-9.22
895.594	7.17
895.764	-62.46
895.935	39.94
896.106	56.32
896.276	13.31
896.447	5.12
896.617	7.17
896.788	-1.02
896.958	1.02
897.129	23.55
897.299	-56.32
897.47	9.22
897.64	58.37
897.81	-5.12
897.981	29.7
898.151	-5.12
898.322	7.17
898.492	5.12
898.662	-39.94
898.832	68.61
899.003	-5.12
899.173	33.79
899.343	25.6
899.513	-50.18
