Data from USB4F104151__60__11-37-23-041.txt Node

Date: Fri Mar 14 11:37:23 EDT 2025
User: louis
Spectrometer: USB4F10415
Trigger mode: 4
Integration Time (sec): 2.000000E-2
Scans to average: 1
Electric dark correction enabled: true
Nonlinearity correction enabled: false
Boxcar width: 0
XAxis mode: Wavelengths
Number of Pixels in Spectrum: 3648
>>>>>Begin Spectral Data<<<<<
178.204	-86.01
178.424	-86.01
178.644	-86.01
178.864	-53.25
179.084	-96.25
179.304	4.1
179.524	6.14
179.744	-32.77
179.964	-20.48
180.184	-81.92
180.404	71.68
180.624	26.62
180.844	-4.1
181.064	2.05
181.283	57.34
181.503	-8.19
181.723	-20.48
181.943	32.77
182.163	47.1
182.383	0
182.602	-28.67
182.822	-22.53
183.042	-4.1
183.262	32.77
183.482	-26.62
183.701	4.1
183.921	34.82
184.141	-28.67
184.361	4.1
184.58	96.25
184.8	20.48
185.02	45.06
185.239	6.14
185.459	8.19
185.679	-4.1
185.898	-75.77
186.118	116.73
186.338	8.19
186.557	51.2
186.777	57.34
186.997	2.05
187.216	28.67
187.436	-20.48
187.655	-2.05
187.875	24.58
188.095	53.25
188.314	63.49
188.534	73.73
188.753	-16.38
188.973	-4.1
189.192	69.63
189.412	-8.19
189.631	51.2
189.851	47.1
190.07	16.38
190.29	-24.58
190.509	8.19
190.729	-18.43
190.948	43.01
191.168	75.77
191.387	4.1
191.607	-6.14
191.826	-12.29
192.045	6.14
192.265	-6.14
192.484	-22.53
192.704	-2.05
192.923	12.29
193.142	120.83
193.362	-16.38
193.581	38.91
193.8	53.25
194.02	-22.53
194.239	-77.82
194.458	0
194.678	104.45
194.897	14.34
195.116	63.49
195.335	59.39
195.555	47.1
195.774	-4.1
195.993	53.25
196.212	6.14
196.432	-36.86
196.651	6.14
196.87	57.34
197.089	90.11
197.308	-4.1
197.528	49.15
197.747	20.48
197.966	-55.3
198.185	63.49
198.404	-26.62
198.623	90.11
198.842	16.38
199.062	-20.48
199.281	16.38
199.5	32.77
199.719	-22.53
199.938	36.86
200.157	55.3
200.376	-12.29
200.595	59.39
200.814	-40.96
201.033	-28.67
201.252	0
201.471	8.19
201.69	65.53
201.909	16.38
202.128	36.86
202.347	-6.14
202.566	-45.06
202.785	-2.05
203.004	-10.24
203.223	83.97
203.442	40.96
203.661	36.86
203.879	137.21
204.098	14.34
204.317	22.53
204.536	43.01
204.755	-4.1
204.974	79.87
205.193	-38.91
205.411	61.44
205.63	-26.62
205.849	45.06
206.068	51.2
206.287	16.38
206.505	12.29
206.724	16.38
206.943	18.43
207.162	67.58
207.381	18.43
207.599	-8.19
207.818	18.43
208.037	32.77
208.255	36.86
208.474	114.69
208.693	4.1
208.911	34.82
209.13	65.53
209.349	45.06
209.567	32.77
209.786	100.35
210.005	51.2
210.223	-22.53
210.442	24.58
210.661	63.49
210.879	57.34
211.098	-12.29
211.316	0
211.535	108.54
211.753	81.92
211.972	-4.1
212.191	28.67
212.409	28.67
212.628	53.25
212.846	-2.05
213.065	40.96
213.283	47.1
213.502	65.53
213.72	34.82
213.938	4.1
214.157	51.2
214.375	51.2
214.594	65.53
214.812	59.39
215.031	32.77
215.249	10.24
215.467	-100.35
215.686	-2.05
215.904	40.96
216.122	53.25
216.341	18.43
216.559	16.38
216.778	90.11
216.996	32.77
217.214	100.35
217.432	10.24
217.651	73.73
217.869	59.39
218.087	49.15
218.306	-12.29
218.524	71.68
218.742	6.14
218.96	-4.1
219.179	36.86
219.397	77.82
219.615	32.77
219.833	12.29
220.051	55.3
220.27	-6.14
220.488	120.83
220.706	12.29
220.924	-6.14
221.142	30.72
221.36	4.1
221.578	63.49
221.796	-22.53
222.015	65.53
222.233	-20.48
222.451	53.25
222.669	57.34
222.887	53.25
223.105	-10.24
223.323	2.05
223.541	77.82
223.759	20.48
223.977	20.48
224.195	34.82
224.413	-6.14
224.631	-28.67
224.849	-4.1
225.067	83.97
225.285	-32.77
225.503	86.01
225.721	61.44
225.939	20.48
226.157	16.38
226.375	108.54
226.592	36.86
226.81	-14.34
227.028	43.01
227.246	36.86
227.464	8.19
227.682	53.25
227.9	-8.19
228.117	55.3
228.335	34.82
228.553	16.38
228.771	90.11
228.989	14.34
229.206	30.72
229.424	4.1
229.642	20.48
229.86	51.2
230.077	69.63
230.295	22.53
230.513	32.77
230.731	59.39
230.948	75.77
231.166	12.29
231.384	8.19
231.601	45.06
231.819	-14.34
232.037	14.34
232.254	-14.34
232.472	-8.19
232.689	79.87
232.907	28.67
233.125	-71.68
233.342	24.58
233.56	-2.05
233.777	0
233.995	18.43
234.213	90.11
234.43	8.19
234.648	-43.01
234.865	34.82
235.083	81.92
235.3	4.1
235.518	22.53
235.735	59.39
235.953	28.67
236.17	49.15
236.388	14.34
236.605	-14.34
236.822	16.38
237.04	-4.1
237.257	20.48
237.475	-30.72
237.692	45.06
237.909	-20.48
238.127	-16.38
238.344	-4.1
238.562	12.29
238.779	0
238.996	28.67
239.214	-6.14
239.431	34.82
239.648	86.01
239.865	79.87
240.083	36.86
240.3	20.48
240.517	20.48
240.735	81.92
240.952	18.43
241.169	-26.62
241.386	18.43
241.603	47.1
241.821	-4.1
242.038	36.86
242.255	-47.1
242.472	-36.86
242.689	40.96
242.907	69.63
243.124	38.91
243.341	59.39
243.558	18.43
243.775	0
243.992	-28.67
244.209	32.77
244.426	65.53
244.643	53.25
244.86	40.96
245.078	65.53
245.295	-2.05
245.512	34.82
245.729	88.06
245.946	16.38
246.163	-38.91
246.38	-18.43
246.597	55.3
246.814	36.86
247.031	-6.14
247.248	83.97
247.464	79.87
247.681	22.53
247.898	18.43
248.115	61.44
248.332	-4.1
248.549	90.11
248.766	102.4
248.983	51.2
249.2	14.34
249.417	63.49
249.633	38.91
249.85	90.11
250.067	45.06
250.284	86.01
250.501	14.34
250.717	81.92
250.934	-40.96
251.151	8.19
251.368	24.58
251.585	45.06
251.801	28.67
252.018	79.87
252.235	26.62
252.451	20.48
252.668	98.3
252.885	53.25
253.102	-4.1
253.318	-34.82
253.535	18.43
253.752	12.29
253.968	61.44
254.185	-16.38
254.401	59.39
254.618	77.82
254.835	-32.77
255.051	55.3
255.268	86.01
255.484	18.43
255.701	-28.67
255.917	16.38
256.134	40.96
256.351	26.62
256.567	-14.34
256.784	45.06
257	8.19
257.217	110.59
257.433	-16.38
257.65	-12.29
257.866	10.24
258.082	67.58
258.299	2.05
258.515	71.68
258.732	-59.39
258.948	45.06
259.165	116.73
259.381	77.82
259.597	69.63
259.814	-43.01
260.03	75.77
260.246	14.34
260.463	43.01
260.679	20.48
260.895	24.58
261.112	0
261.328	12.29
261.544	83.97
261.761	49.15
261.977	28.67
262.193	-24.58
262.409	26.62
262.626	22.53
262.842	8.19
263.058	36.86
263.274	6.14
263.49	73.73
263.707	53.25
263.923	20.48
264.139	32.77
264.355	-51.2
264.571	100.35
264.787	102.4
265.004	49.15
265.22	81.92
265.436	51.2
265.652	10.24
265.868	6.14
266.084	32.77
266.3	-38.91
266.516	47.1
266.732	20.48
266.948	32.77
267.164	59.39
267.38	45.06
267.596	-28.67
267.812	98.3
268.028	55.3
268.244	0
268.46	100.35
268.676	26.62
268.892	18.43
269.108	10.24
269.324	-16.38
269.54	24.58
269.756	10.24
269.972	22.53
270.188	-10.24
270.403	-6.14
270.619	0
270.835	71.68
271.051	61.44
271.267	20.48
271.483	26.62
271.698	45.06
271.914	77.82
272.13	-10.24
272.346	-32.77
272.562	73.73
272.777	57.34
272.993	57.34
273.209	43.01
273.425	-45.06
273.64	94.21
273.856	90.11
274.072	49.15
274.287	20.48
274.503	90.11
274.719	73.73
274.934	-10.24
275.15	26.62
275.366	22.53
275.581	12.29
275.797	36.86
276.012	10.24
276.228	32.77
276.444	55.3
276.659	8.19
276.875	36.86
277.09	4.1
277.306	61.44
277.521	73.73
277.737	-55.3
277.952	59.39
278.168	24.58
278.383	55.3
278.599	-12.29
278.814	22.53
279.03	-32.77
279.245	98.3
279.461	-2.05
279.676	20.48
279.892	32.77
280.107	65.53
280.322	-28.67
280.538	106.49
280.753	0
280.969	20.48
281.184	-18.43
281.399	4.1
281.615	61.44
281.83	20.48
282.045	34.82
282.26	-22.53
282.476	-30.72
282.691	28.67
282.906	-8.19
283.122	92.16
283.337	-22.53
283.552	12.29
283.767	28.67
283.983	94.21
284.198	36.86
284.413	81.92
284.628	16.38
284.843	-24.58
285.058	20.48
285.274	49.15
285.489	-14.34
285.704	26.62
285.919	-36.86
286.134	55.3
286.349	-38.91
286.564	4.1
286.779	34.82
286.995	8.19
287.21	-55.3
287.425	22.53
287.64	-18.43
287.855	-18.43
288.07	-20.48
288.285	55.3
288.5	88.06
288.715	112.64
288.93	96.25
289.145	51.2
289.36	38.91
289.575	53.25
289.79	61.44
290.004	-10.24
290.219	22.53
290.434	0
290.649	-2.05
290.864	36.86
291.079	8.19
291.294	36.86
291.509	10.24
291.724	36.86
291.938	-47.1
292.153	45.06
292.368	32.77
292.583	38.91
292.798	18.43
293.012	67.58
293.227	32.77
293.442	92.16
293.657	18.43
293.871	30.72
294.086	47.1
294.301	12.29
294.516	77.82
294.73	-8.19
294.945	22.53
295.16	-12.29
295.374	71.68
295.589	20.48
295.804	96.25
296.018	45.06
296.233	53.25
296.447	45.06
296.662	18.43
296.877	92.16
297.091	8.19
297.306	-4.1
297.52	-57.34
297.735	30.72
297.949	22.53
298.164	16.38
298.378	59.39
298.593	-6.14
298.807	57.34
299.022	14.34
299.236	98.3
299.451	14.34
299.665	55.3
299.88	6.14
300.094	77.82
300.309	4.1
300.523	-20.48
300.737	59.39
300.952	38.91
301.166	32.77
301.381	8.19
301.595	102.4
301.809	34.82
302.024	147.45
302.238	34.82
302.452	45.06
302.667	57.34
302.881	104.45
303.095	-4.1
303.309	22.53
303.524	-20.48
303.738	40.96
303.952	-55.3
304.166	73.73
304.381	43.01
304.595	57.34
304.809	-12.29
305.023	24.58
305.237	-4.1
305.452	51.2
305.666	-8.19
305.88	100.35
306.094	86.01
306.308	34.82
306.522	8.19
306.736	45.06
306.95	16.38
307.164	28.67
307.379	34.82
307.593	112.64
307.807	26.62
308.021	59.39
308.235	0
308.449	-49.15
308.663	-8.19
308.877	81.92
309.091	8.19
309.305	-38.91
309.519	-2.05
309.733	112.64
309.947	2.05
310.161	45.06
310.374	45.06
310.588	28.67
310.802	28.67
311.016	20.48
311.23	28.67
311.444	114.69
311.658	8.19
311.872	-12.29
312.085	18.43
312.299	43.01
312.513	61.44
312.727	65.53
312.941	28.67
313.154	45.06
313.368	2.05
313.582	143.36
313.796	59.39
314.009	65.53
314.223	53.25
314.437	22.53
314.651	43.01
314.864	-20.48
315.078	38.91
315.292	-30.72
315.505	43.01
315.719	83.97
315.933	49.15
316.146	45.06
316.36	53.25
316.573	-75.77
316.787	24.58
317.001	45.06
317.214	10.24
317.428	28.67
317.641	28.67
317.855	26.62
318.068	-57.34
318.282	75.77
318.495	20.48
318.709	45.06
318.922	53.25
319.136	-8.19
319.349	26.62
319.563	-4.1
319.776	106.49
319.99	-47.1
320.203	24.58
320.417	86.01
320.63	47.1
320.843	81.92
321.057	18.43
321.27	36.86
321.483	-12.29
321.697	59.39
321.91	36.86
322.124	8.19
322.337	-20.48
322.55	-20.48
322.763	-12.29
322.977	43.01
323.19	-4.1
323.403	-14.34
323.617	32.77
323.83	104.45
324.043	40.96
324.256	18.43
324.469	36.86
324.683	6.14
324.896	36.86
325.109	108.54
325.322	-14.34
325.535	45.06
325.748	-4.1
325.962	71.68
326.175	53.25
326.388	104.45
326.601	51.2
326.814	-32.77
327.027	26.62
327.24	69.63
327.453	26.62
327.666	47.1
327.879	55.3
328.092	55.3
328.305	43.01
328.518	-28.67
328.731	40.96
328.944	36.86
329.157	53.25
329.37	59.39
329.583	10.24
329.796	-32.77
330.009	-8.19
330.222	81.92
330.435	36.86
330.648	18.43
330.861	4.1
331.073	71.68
331.286	20.48
331.499	47.1
331.712	28.67
331.925	65.53
332.138	20.48
332.35	67.58
332.563	10.24
332.776	-8.19
332.989	34.82
333.202	40.96
333.414	14.34
333.627	2.05
333.84	-12.29
334.053	51.2
334.265	20.48
334.478	51.2
334.691	28.67
334.903	86.01
335.116	100.35
335.329	-4.1
335.541	32.77
335.754	98.3
335.966	67.58
336.179	49.15
336.392	53.25
336.604	55.3
336.817	34.82
337.029	53.25
337.242	38.91
337.454	16.38
337.667	69.63
337.88	59.39
338.092	18.43
338.305	51.2
338.517	26.62
338.729	-4.1
338.942	-18.43
339.154	-4.1
339.367	83.97
339.579	34.82
339.792	34.82
340.004	22.53
340.217	-2.05
340.429	77.82
340.641	30.72
340.854	20.48
341.066	51.2
341.278	118.78
341.491	2.05
341.703	-16.38
341.915	86.01
342.128	88.06
342.34	36.86
342.552	51.2
342.764	51.2
342.977	6.14
343.189	32.77
343.401	126.97
343.613	16.38
343.826	20.48
344.038	-16.38
344.25	63.49
344.462	30.72
344.674	36.86
344.886	18.43
345.099	32.77
345.311	36.86
345.523	86.01
345.735	16.38
345.947	69.63
346.159	96.25
346.371	92.16
346.583	-14.34
346.795	139.26
347.007	32.77
347.219	34.82
347.431	14.34
347.643	65.53
347.855	20.48
348.067	92.16
348.279	-8.19
348.491	18.43
348.703	-2.05
348.915	47.1
349.127	-20.48
349.339	32.77
349.551	-18.43
349.763	28.67
349.975	43.01
350.187	-8.19
350.399	57.34
350.61	61.44
350.822	55.3
351.034	6.14
351.246	12.29
351.458	83.97
351.669	51.2
351.881	98.3
352.093	18.43
352.305	4.1
352.517	10.24
352.728	86.01
352.94	61.44
353.152	71.68
353.363	43.01
353.575	-36.86
353.787	65.53
353.999	40.96
354.21	-12.29
354.422	10.24
354.633	43.01
354.845	-22.53
355.057	36.86
355.268	36.86
355.48	65.53
355.692	30.72
355.903	77.82
356.115	0
356.326	45.06
356.538	26.62
356.749	59.39
356.961	77.82
357.172	26.62
357.384	0
357.595	45.06
357.807	30.72
358.018	0
358.23	-36.86
358.441	77.82
358.653	94.21
358.864	63.49
359.075	51.2
359.287	96.25
359.498	32.77
359.709	45.06
359.921	4.1
360.132	-12.29
360.344	36.86
360.555	159.74
360.766	106.49
360.977	6.14
361.189	88.06
361.4	-20.48
361.611	86.01
361.823	53.25
362.034	-8.19
362.245	4.1
362.456	67.58
362.667	55.3
362.879	32.77
363.09	133.12
363.301	108.54
363.512	59.39
363.723	49.15
363.935	69.63
364.146	63.49
364.357	71.68
364.568	77.82
364.779	-22.53
364.99	67.58
365.201	69.63
365.412	81.92
365.623	20.48
365.834	-4.1
366.045	-14.34
366.256	88.06
366.467	14.34
366.678	116.73
366.889	-4.1
367.1	49.15
367.311	73.73
367.522	-47.1
367.733	73.73
367.944	114.69
368.155	-8.19
368.366	-30.72
368.577	32.77
368.788	90.11
368.999	59.39
369.209	40.96
369.42	55.3
369.631	75.77
369.842	59.39
370.053	36.86
370.264	73.73
370.474	0
370.685	53.25
370.896	45.06
371.107	51.2
371.317	26.62
371.528	43.01
371.739	43.01
371.95	51.2
372.16	34.82
372.371	-4.1
372.582	49.15
372.792	77.82
373.003	61.44
373.214	-12.29
373.424	77.82
373.635	49.15
373.846	75.77
374.056	77.82
374.267	65.53
374.477	-12.29
374.688	69.63
374.898	43.01
375.109	26.62
375.319	-32.77
375.53	73.73
375.74	77.82
375.951	38.91
376.161	24.58
376.372	38.91
376.582	57.34
376.793	67.58
377.003	79.87
377.214	16.38
377.424	18.43
377.635	47.1
377.845	43.01
378.055	16.38
378.266	-18.43
378.476	2.05
378.686	55.3
378.897	81.92
379.107	34.82
379.317	32.77
379.528	36.86
379.738	49.15
379.948	-12.29
380.158	61.44
380.369	59.39
380.579	59.39
380.789	10.24
380.999	79.87
381.21	126.97
381.42	108.54
381.63	30.72
381.84	79.87
382.05	20.48
382.261	106.49
382.471	98.3
382.681	10.24
382.891	114.69
383.101	90.11
383.311	53.25
383.521	59.39
383.731	71.68
383.941	69.63
384.151	45.06
384.361	108.54
384.571	63.49
384.781	34.82
384.991	36.86
385.201	47.1
385.411	40.96
385.621	104.45
385.831	-45.06
386.041	67.58
386.251	65.53
386.461	38.91
386.671	81.92
386.881	69.63
387.091	55.3
387.301	94.21
387.511	104.45
387.72	55.3
387.93	149.5
388.14	65.53
388.35	90.11
388.56	49.15
388.769	59.39
388.979	24.58
389.189	67.58
389.399	116.73
389.609	38.91
389.818	51.2
390.028	59.39
390.238	120.83
390.447	71.68
390.657	112.64
390.867	83.97
391.076	67.58
391.286	114.69
391.496	57.34
391.705	61.44
391.915	102.4
392.125	114.69
392.334	28.67
392.544	43.01
392.753	49.15
392.963	53.25
393.172	141.31
393.382	55.3
393.591	102.4
393.801	81.92
394.01	137.21
394.22	40.96
394.429	47.1
394.639	77.82
394.848	96.25
395.058	40.96
395.267	131.07
395.477	69.63
395.686	124.93
395.895	96.25
396.105	79.87
396.314	118.78
396.524	96.25
396.733	61.44
396.942	176.13
397.152	102.4
397.361	155.65
397.57	65.53
397.78	104.45
397.989	96.25
398.198	67.58
398.407	47.1
398.617	83.97
398.826	100.35
399.035	124.93
399.244	122.88
399.453	110.59
399.663	102.4
399.872	161.79
400.081	110.59
400.29	167.93
400.499	83.97
400.708	133.12
400.917	114.69
401.127	106.49
401.336	153.6
401.545	114.69
401.754	98.3
401.963	90.11
402.172	161.79
402.381	131.07
402.59	131.07
402.799	106.49
403.008	94.21
403.217	141.31
403.426	176.13
403.635	161.79
403.844	143.36
404.053	217.08
404.262	139.26
404.471	172.03
404.68	116.73
404.888	182.27
405.097	126.97
405.306	122.88
405.515	188.41
405.724	217.08
405.933	208.89
406.142	223.23
406.35	215.04
406.559	202.75
406.768	145.41
406.977	210.94
407.185	258.04
407.394	204.8
407.603	208.89
407.812	276.48
408.02	266.24
408.229	286.72
408.438	227.32
408.646	245.76
408.855	225.28
409.064	212.99
409.272	200.7
409.481	237.56
409.69	360.44
409.898	241.66
410.107	274.43
410.315	360.44
410.524	266.24
410.733	368.63
410.941	438.27
411.15	376.83
411.358	385.02
411.567	438.27
411.775	458.74
411.984	360.44
412.192	401.4
412.401	466.94
412.609	454.65
412.818	542.71
413.026	485.37
413.234	569.34
413.443	544.76
413.651	514.04
413.86	610.29
414.068	534.52
414.276	600.05
414.485	737.27
414.693	731.12
414.901	700.41
415.11	729.08
415.318	677.88
415.526	794.61
415.734	817.14
415.943	804.85
416.151	800.76
416.359	856.05
416.567	884.72
416.776	1013.74
416.984	903.15
417.192	964.59
417.4	1032.18
417.608	1089.52
417.817	1081.33
418.025	1193.97
418.233	1214.45
418.441	1171.44
418.649	1204.21
418.857	1230.83
419.065	1333.23
419.273	1449.96
419.481	1429.48
419.689	1460.2
419.897	1531.88
420.105	1484.78
420.313	1595.37
420.521	1628.14
420.729	1699.81
420.937	1697.77
421.145	1845.22
421.353	1810.4
421.561	1927.14
421.769	2072.54
421.977	2131.94
422.185	2052.06
422.393	2244.57
422.601	2449.37
422.809	2256.86
423.017	2418.65
423.224	2512.86
423.432	2564.06
423.64	2656.22
423.848	2803.67
424.056	2822.1
424.263	2973.65
424.471	3043.28
424.679	3059.67
424.887	3133.39
425.094	3147.73
425.302	3350.48
425.51	3395.53
425.718	3608.52
425.925	3606.47
426.133	3614.66
426.341	3790.79
426.548	4167.62
426.756	4108.23
426.964	4075.46
427.171	4370.37
427.379	4474.81
427.586	4624.31
427.794	4773.82
428.001	4814.77
428.209	4972.47
428.417	4915.12
428.624	5330.86
428.832	5474.22
429.039	5371.82
429.247	5347.25
429.454	5861.29
429.662	6291.36
429.869	5783.46
430.076	6266.78
430.284	5982.12
430.491	6479.77
430.699	6647.71
430.906	6735.77
431.114	6870.94
431.321	7174.03
431.528	7171.99
431.736	7548.81
431.943	7989.13
432.15	7833.48
432.358	7929.73
432.565	8249.22
432.772	8245.12
432.979	8757.11
433.187	8865.66
433.394	8935.29
433.601	9502.58
433.808	9439.09
434.016	9322.35
434.223	9965.42
434.43	10260.32
434.637	10217.32
434.844	11091.8
435.052	11046.74
435.259	10930.01
435.466	11018.07
435.673	10983.26
435.88	11738.96
436.087	12371.78
436.294	12064.58
436.501	12330.82
436.708	12273.48
436.915	12656.45
437.122	13563.7
437.329	13342.52
437.537	13641.52
437.743	13862.7
437.95	13743.92
438.157	14589.73
438.364	14862.11
438.571	14886.68
438.778	14989.08
438.985	16686.85
439.192	15927.05
439.399	16181
439.606	15816.46
439.813	16885.5
440.02	17616.63
440.227	17829.62
440.433	17680.11
440.64	18056.94
440.847	17899.25
441.054	18364.14
441.261	19502.81
441.467	19054.3
441.674	19756.75
441.881	20461.26
442.088	20164.3
442.294	19748.56
442.501	20772.55
442.708	21227.2
442.914	22062.77
443.121	22974.11
443.328	22199.98
443.534	23879.32
443.741	22849.19
443.948	22750.88
444.154	24295.05
444.361	24333.96
444.568	24434.32
444.774	24698.5
444.981	24790.66
445.187	25437.82
445.394	26582.63
445.6	26191.47
445.807	28710.47
446.013	27625.05
446.22	27881.05
446.426	28784.2
446.633	29484.61
446.839	30178.87
447.046	29103.68
447.252	30764.59
447.459	30553.65
447.665	30774.83
447.871	31895.07
448.078	33392.13
448.284	31526.43
448.491	32613.9
448.697	33592.83
448.903	34645.49
449.11	34491.89
449.316	33986.04
449.522	34444.79
449.728	35597.79
449.935	35575.27
450.141	35915.23
450.347	36812.24
450.553	35130.86
450.76	35767.77
450.966	36812.24
451.172	36546
451.378	37498.31
451.584	36611.54
451.791	37633.47
451.997	37490.12
452.203	38290.87
452.409	38104.51
452.615	38258.1
452.821	36464.08
453.027	36099.55
453.233	37801.41
453.44	36605.39
453.646	37176.78
453.852	36888.01
454.058	37875.13
454.264	36255.19
454.47	37520.84
454.676	36380.12
454.882	37834.17
455.088	33992.19
455.294	35147.24
455.5	35458.53
455.705	35679.71
455.911	34043.38
456.117	33465.86
456.323	33119.75
456.529	31366.69
456.735	32863.75
456.941	31534.62
457.147	31315.49
457.352	30709.29
457.558	30393.9
457.764	30567.98
457.97	29699.64
458.176	28716.62
458.381	29275.71
458.587	27809.37
458.793	27367.01
458.999	26357.36
459.204	27788.89
459.41	27223.65
459.616	25456.25
459.821	25581.18
460.027	25306.75
460.233	24974.98
460.438	23807.64
460.644	23766.68
460.85	22841
461.055	22705.83
461.261	22570.66
461.466	20477.64
461.672	20303.56
461.878	21956.27
462.083	20162.25
462.289	19799.76
462.494	19480.28
462.7	18648.8
462.905	18020.08
463.111	18826.98
463.316	18892.51
463.522	18734.82
463.727	18751.2
463.932	18372.33
464.138	18028.27
464.343	18353.9
464.549	17809.14
464.754	18378.47
464.959	18046.7
465.165	18067.18
465.37	17338.1
465.575	16992
465.781	17704.69
465.986	17745.65
466.191	17006.33
466.397	16918.27
466.602	16008.97
466.807	16443.14
467.012	16541.44
467.218	16377.61
467.423	16178.95
467.628	16303.88
467.833	16756.48
468.038	16320.26
468.244	16039.69
468.449	16400.13
468.654	15953.68
468.859	15820.56
469.064	15900.43
469.269	15402.77
469.474	15329.05
469.679	15501.08
469.885	15482.64
470.09	15351.57
470.295	15236.89
470.5	14933.79
470.705	15081.24
470.91	14616.35
471.115	14599.97
471.32	14716.7
471.525	14446.37
471.73	14184.23
471.935	14112.55
472.139	13752.11
472.344	13924.14
472.549	13911.85
472.754	13547.31
472.959	13176.63
473.164	13057.85
473.369	12969.79
473.574	13539.12
473.778	13315.89
473.983	13111.1
474.188	12777.28
474.393	12498.75
474.598	12588.86
474.802	12279.62
475.007	12324.68
475.212	12437.31
475.417	11863.88
475.621	11898.7
475.826	11980.62
476.031	11767.63
476.235	11546.45
476.44	11720.53
476.645	11464.53
476.849	11530.06
477.054	11335.51
477.259	11177.81
477.463	11040.6
477.668	10856.28
477.872	10968.92
478.077	10731.36
478.282	10602.33
478.486	10495.84
478.691	10264.42
478.895	10461.02
479.1	10157.92
479.304	10395.49
479.509	10088.29
479.713	10280.8
479.918	10125.16
480.122	9795.43
480.326	9957.22
480.531	10141.54
480.735	10051.43
480.94	9682.8
481.144	10033
481.348	9613.17
481.553	9789.29
481.757	9531.25
481.961	9561.97
482.166	9793.39
482.37	9617.26
482.574	9553.77
482.778	9705.32
482.983	9611.12
483.187	9504.62
483.391	9721.71
483.595	9396.08
483.8	9310.07
484.004	9480.05
484.208	9662.32
484.412	9434.99
484.616	9584.49
484.821	9643.88
485.025	9238.39
485.229	9508.72
485.433	9422.7
485.637	9600.88
485.841	9580.4
486.045	9340.79
486.249	9561.97
486.453	9512.81
486.657	9674.6
486.861	9635.69
487.065	9271.15
487.269	9537.39
487.473	9381.74
487.677	9584.49
487.881	9572.21
488.085	9598.83
488.289	9496.43
488.493	9566.06
488.697	9670.51
488.901	9434.99
489.105	9453.42
489.309	9693.04
489.512	9707.37
489.716	9467.76
489.92	9586.54
490.124	9490.29
490.328	9793.39
490.531	9901.93
490.735	9867.11
490.939	9799.53
491.143	9572.21
491.346	9711.47
491.55	9944.94
491.754	9989.99
491.958	10006.38
492.161	9828.2
492.365	10041.19
492.569	10061.67
492.772	10016.62
492.976	10000.23
493.18	10022.76
493.383	10168.16
493.587	10266.47
493.79	10438.5
493.994	10239.84
494.197	10442.59
494.401	10381.15
494.605	10456.93
494.808	10612.57
495.012	10657.63
495.215	10841.95
495.419	10878.81
495.622	10923.87
495.825	11140.95
496.029	10915.67
496.232	11149.14
496.436	11186.01
496.639	11497.3
496.843	11347.79
497.046	11544.4
497.249	11835.21
497.453	11970.38
497.656	12089.16
497.859	11929.42
498.063	12134.21
498.266	12318.53
498.469	12521.28
498.673	12312.39
498.876	12572.48
499.079	12572.48
499.282	12427.07
499.485	12748.61
499.689	13215.54
499.892	13121.34
500.095	13436.72
500.298	13563.7
500.501	13330.23
500.705	13713.2
500.908	13854.51
501.111	14098.22
501.314	14235.43
501.517	14376.74
501.72	14563.11
501.923	14692.13
502.126	14898.97
502.329	14937.88
502.532	15111.96
502.735	15281.94
502.938	15386.39
503.141	15599.38
503.344	15908.62
503.547	15761.17
503.75	16080.65
503.953	16537.35
504.156	16271.11
504.359	16469.76
504.562	16668.42
504.765	17051.39
504.968	16940.8
505.17	17327.86
505.373	17059.58
505.576	17614.58
505.779	17385.21
505.982	18056.94
506.185	18288.36
506.387	18505.45
506.59	18546.4
506.793	18919.14
506.996	18753.25
507.198	19134.17
507.401	19101.4
507.604	19521.24
507.807	19551.96
508.009	19889.87
508.212	19951.31
508.415	20319.95
508.617	20201.16
508.82	20657.86
509.022	20408.01
509.225	20950.72
509.428	21343.93
509.63	21247.68
509.833	21280.44
510.035	21976.75
510.238	21667.51
510.44	21894.83
510.643	22408.87
510.845	22302.38
511.048	22541.99
511.25	23013.02
511.453	22978.21
511.655	23668.37
511.858	23619.22
512.06	23500.44
512.262	23934.61
512.465	23674.52
512.667	24372.88
512.87	24630.92
513.072	24395.4
513.274	25056.9
513.477	24862.34
513.679	25368.19
513.881	25650.81
514.084	25630.33
514.286	25843.32
514.488	26107.51
514.69	26637.93
514.893	26844.77
515.095	26873.45
515.297	27416.16
515.499	26875.49
515.701	27397.73
515.904	27938.39
516.106	28149.33
516.308	28296.78
516.51	28384.85
516.712	28618.32
516.914	28991.05
517.116	29124.16
517.318	29443.65
517.52	29591.1
517.722	29214.27
517.925	30051.89
518.127	30062.13
518.329	30369.33
518.531	30144.05
518.733	30856.75
518.935	31077.93
519.136	31266.34
519.338	31585.82
519.54	31391.26
519.742	31782.43
519.944	32095.77
520.146	32331.28
520.348	32349.71
520.55	32599.57
520.752	32636.43
520.954	33431.04
521.155	32974.34
521.357	33549.82
521.559	33867.26
521.761	33973.75
521.963	34057.72
522.164	34409.97
522.366	34194.93
522.568	34436.59
522.77	34506.23
522.971	35218.92
523.173	35026.41
523.375	35251.69
523.576	35366.37
523.778	35362.28
523.98	35782.11
524.181	36271.57
524.383	35612.13
524.584	36404.69
524.786	36287.96
524.988	36160.98
525.189	36812.24
525.391	37029.32
525.592	37064.14
525.794	37414.34
525.995	37103.05
526.197	37516.74
526.398	37400.01
526.6	37713.34
526.801	37864.89
527.003	38100.41
527.204	37858.75
527.406	38452.66
527.607	38118.84
527.808	38127.03
528.01	37983.68
528.211	38315.45
528.412	38948.27
528.614	38784.43
528.815	38567.35
529.016	39208.36
529.218	38495.67
529.419	39243.18
529.62	39120.3
529.822	38862.25
530.023	38935.98
530.224	39046.57
530.425	38958.51
530.626	38759.86
530.828	39030.19
531.029	39613.86
531.23	39153.07
531.431	39593.38
531.632	39333.29
531.833	39777.7
532.035	39697.83
532.236	39421.35
532.437	39572.9
532.638	39325.1
532.839	39703.97
533.04	39730.59
533.241	39101.87
533.442	39962.01
533.643	39654.82
533.844	39507.37
534.045	39957.92
534.246	39294.38
534.447	39773.6
534.648	39431.59
534.849	39771.55
535.05	39527.84
535.251	39886.24
535.451	39798.18
535.652	40134.04
535.853	39640.48
536.054	39964.06
536.255	39929.25
536.456	39454.12
536.657	40213.91
536.857	39458.21
537.058	39673.25
537.259	39931.29
537.46	40226.2
537.66	39589.28
537.861	40027.55
538.062	39654.82
538.263	40002.97
538.463	39574.95
538.664	39998.88
538.865	39859.62
539.065	40220.06
539.266	39286.18
539.466	39955.87
539.667	39028.14
539.868	40056.22
540.068	39589.28
540.269	39931.29
540.469	40072.6
540.67	39466.41
540.87	39767.46
541.071	39507.37
541.271	39667.11
541.472	39523.75
541.672	39394.73
541.873	39210.41
542.073	38849.97
542.274	39620
542.474	39511.46
542.675	39249.32
542.875	39742.88
543.075	39488.93
543.276	38952.37
543.476	39550.37
543.676	39140.78
543.877	39533.99
544.077	39374.25
544.277	39333.29
544.478	39224.75
544.678	39658.91
544.878	39611.81
545.078	39472.55
545.279	39327.14
545.479	39468.45
545.679	39187.88
545.879	39185.83
546.079	39525.8
546.28	39353.77
546.48	39144.87
546.68	39441.83
546.88	39720.35
547.08	39331.24
547.28	39232.94
547.48	39019.95
547.68	39204.27
547.88	38563.25
548.081	39050.67
548.281	39224.75
548.481	39065
548.681	39187.88
548.881	39261.61
549.081	39198.12
549.28	38882.73
549.48	39247.27
549.68	39212.46
549.88	39402.92
550.08	38731.18
550.28	38976.94
550.48	38708.66
550.68	39404.97
550.88	38757.81
551.08	39089.58
551.279	39173.55
551.479	38585.78
551.679	38708.66
551.879	38897.07
552.079	38843.82
552.278	38712.75
552.478	38770.1
552.678	38923.69
552.878	38665.65
553.077	38663.6
553.277	38624.69
553.477	38933.93
553.676	38544.82
553.876	38526.39
554.076	38628.79
554.275	38319.54
554.475	38147.51
554.674	38364.6
554.874	38589.88
555.074	38063.55
555.273	38571.44
555.473	38614.45
555.672	38176.19
555.872	38319.54
556.071	38237.62
556.271	38686.13
556.47	37868.99
556.67	37598.66
556.869	37807.55
557.068	38120.89
557.268	38049.21
557.467	37903.81
557.667	38057.4
557.866	38467
558.065	37893.57
558.265	37846.46
558.464	37590.47
558.663	38221.24
558.863	37531.08
559.062	37887.42
559.261	37494.21
559.461	38270.39
559.66	37754.3
559.859	37537.22
560.058	37602.75
560.258	37443.01
560.457	37057.99
560.656	37420.49
560.855	37182.92
561.054	37490.12
561.253	37436.87
561.453	37369.29
561.652	37324.23
561.851	37500.36
562.05	37354.95
562.249	36812.24
562.448	37397.96
562.647	37055.95
562.846	37012.94
563.045	37025.23
563.244	36593.11
563.443	36994.51
563.642	36623.83
563.841	36402.64
564.04	36531.67
564.239	36873.68
564.438	36345.3
564.637	36550.1
564.836	36476.37
565.035	36337.11
565.234	36658.64
565.432	36210.14
565.631	36074.97
565.83	36396.5
566.029	36040.15
566.228	36095.45
566.427	36093.4
566.625	35943.9
566.824	35601.89
567.023	36011.48
567.222	35329.51
567.42	35902.94
567.619	35763.68
567.818	35591.65
568.016	35581.41
568.215	35861.98
568.414	35032.55
568.612	35565.03
568.811	35223.01
569.01	35390.95
569.208	35077.61
569.407	35405.28
569.605	34756.08
569.804	35218.92
570.002	35050.99
570.201	34737.65
570.4	34829.8
570.598	34760.17
570.797	34299.38
570.995	34717.17
571.193	34395.64
571.392	34842.09
571.59	34086.39
571.789	34043.38
571.987	34278.9
572.186	34565.62
572.384	34272.76
572.582	34229.75
572.781	34332.15
572.979	33531.39
573.177	33969.66
573.376	34244.09
573.574	33682.94
573.772	34061.82
573.971	33662.46
574.169	33863.16
574.367	33291.78
574.565	33715.71
574.763	33537.54
574.962	33572.35
575.16	33121.8
575.358	33531.39
575.556	33031.69
575.754	33213.96
575.952	32675.34
576.151	33349.12
576.349	32923.15
576.547	32716.3
576.745	32794.12
576.943	32681.49
577.141	32511.5
577.339	32642.57
577.537	32560.66
577.735	32587.28
577.933	32341.52
578.131	32288.28
578.329	32171.54
578.527	32278.04
578.725	32243.22
578.923	31962.65
579.121	31944.22
579.319	32171.54
579.516	31729.18
579.714	32022.04
579.912	31876.63
580.11	31802.91
580.308	31559.2
580.506	31649.31
580.704	30948.9
580.901	31577.63
581.099	31612.45
581.297	31145.51
581.495	31053.35
581.692	31163.94
581.89	30893.61
582.088	31235.62
582.285	30723.63
582.483	31186.47
582.681	30811.69
582.878	30445.1
583.076	30420.53
583.274	30682.67
583.471	30043.7
583.669	30166.58
583.866	30066.23
584.064	30643.76
584.262	30195.25
584.459	30125.62
584.657	30074.42
584.854	30225.97
585.052	29578.81
585.249	29963.83
585.447	29847.1
585.644	29601.34
585.841	29697.59
586.039	30045.75
586.236	29130.31
586.434	29052.48
586.631	29128.26
586.828	29046.34
587.026	29242.95
587.223	29056.58
587.42	29265.47
587.618	29285.95
587.815	28571.21
588.012	28515.92
588.21	28188.24
588.407	28859.98
588.604	28304.98
588.801	28126.8
588.999	28350.03
589.196	28450.38
589.393	28122.71
589.59	28020.31
589.787	27860.57
589.984	28206.67
590.182	27645.53
590.379	27993.68
590.576	27719.26
590.773	27491.93
590.97	27248.22
591.167	27526.75
591.364	27580
591.561	27348.57
591.758	27074.15
591.955	27553.37
592.152	27297.38
592.349	27061.86
592.546	27041.38
592.743	27051.62
592.94	26627.69
593.137	26832.49
593.334	26803.81
593.531	26879.59
593.727	26658.41
593.924	26678.89
594.121	26336.88
594.318	26431.08
594.515	26293.87
594.712	26508.91
594.908	26277.49
595.105	26312.3
595.302	25947.76
595.499	26027.63
595.696	25921.14
595.892	25708.15
596.089	25818.74
596.286	25783.93
596.482	25515.64
596.679	25519.74
596.876	25843.32
597.072	25308.8
597.269	25478.78
597.466	25147.01
597.662	25323.13
597.859	25218.69
598.055	25355.9
598.252	24841.86
598.448	24923.78
598.645	24868.48
598.841	24501.9
599.038	24766.09
599.234	24635.02
599.431	24368.78
599.627	24315.53
599.824	24481.42
600.02	24143.5
600.217	24278.67
600.413	24374.92
600.609	24268.43
600.806	24008.34
601.002	24141.46
601.198	23905.94
601.395	23711.38
601.591	24030.87
601.787	24071.82
601.984	23322.27
602.18	24096.4
602.376	23715.48
602.572	23383.71
602.769	23344.8
602.965	23252.64
603.161	23441.05
603.357	22927.01
603.553	23047.84
603.75	23205.53
603.946	22804.13
604.142	22941.35
604.338	22884
604.534	22873.76
604.73	22666.92
604.926	22523.56
605.122	22535.85
605.318	22597.29
605.514	22259.37
605.71	22374.06
605.906	22556.33
606.102	22238.89
606.298	22150.83
606.494	22105.77
606.69	22230.7
606.886	22312.62
607.082	21765.81
607.278	21911.22
607.474	21626.55
607.67	21997.23
607.866	21630.65
608.062	21960.37
608.257	21550.78
608.453	21675.7
608.649	21671.61
608.845	21249.72
609.041	21395.13
609.236	21434.04
609.432	21411.51
609.628	21558.97
609.824	21352.12
610.019	21272.25
610.215	21274.3
610.411	21302.97
610.606	21249.72
610.802	21278.4
610.998	21147.33
611.193	21155.52
611.389	21012.16
611.584	20844.23
611.78	20731.59
611.976	20823.75
612.171	20778.69
612.367	20545.22
612.562	20584.13
612.758	20547.27
612.953	20317.9
613.149	20967.1
613.344	20610.76
613.539	21046.97
613.735	20709.06
613.93	20788.93
614.126	20451.02
614.321	20500.17
614.517	20086.48
614.712	20502.22
614.907	20307.66
615.103	20494.02
615.298	20387.53
615.493	20217.55
615.688	20373.19
615.884	20321.99
616.079	19902.16
616.274	20182.73
616.47	19859.15
616.665	20074.19
616.86	19838.67
617.055	19908.3
617.25	19685.08
617.445	20358.86
617.641	19619.54
617.836	19965.65
618.031	19414.74
618.226	20070.09
618.421	19670.74
618.616	19572.44
618.811	19191.52
619.006	19623.64
619.201	19144.41
619.396	19408.6
619.591	18923.23
619.786	19054.3
619.981	18697.95
620.176	19341.02
620.371	18765.54
620.566	19156.7
620.761	18941.66
620.956	18816.74
621.151	18581.22
621.346	18734.82
621.541	18300.65
621.735	18456.29
621.93	17805.04
622.125	18282.22
622.32	17946.35
622.515	17942.25
622.709	17671.92
622.904	17921.77
623.099	17784.56
623.294	17802.99
623.488	17284.86
623.683	17829.62
623.878	17180.41
624.072	17403.64
624.267	17321.72
624.462	17272.57
624.656	16787.2
624.851	16975.61
625.046	16901.89
625.24	16647.94
625.435	16545.54
625.629	16293.64
625.824	16486.15
626.018	16234.25
626.213	16281.35
626.407	16142.09
626.602	16158.47
626.796	16154.38
626.991	16342.79
627.185	16146.19
627.38	15771.41
627.574	15861.52
627.768	15585.04
627.963	15673.1
628.157	15558.42
628.352	15699.73
628.546	15146.78
628.74	15324.95
628.935	15093.53
629.129	15130.39
629.323	14749.47
629.517	14915.36
629.712	14987.04
629.906	14868.25
630.1	14489.38
630.294	14722.85
630.489	14595.87
630.683	14655.26
630.877	14227.24
631.071	14460.71
631.265	14130.98
631.459	14399.27
631.653	13963.05
631.848	14255.91
632.042	13913.9
632.236	14165.8
632.43	13569.84
632.624	13817.65
632.818	13827.88
633.012	13717.29
633.206	13436.72
633.4	13336.37
633.594	13373.24
633.788	13180.73
633.982	13336.37
634.176	13375.28
634.369	13123.38
634.563	13223.73
634.757	13072.18
634.951	12955.45
635.145	12912.44
635.339	12951.35
635.533	12590.91
635.726	12613.44
635.92	12517.18
636.114	12709.69
636.308	12533.57
636.501	12607.3
636.695	12283.72
636.889	12377.92
637.083	12074.82
637.276	12109.64
637.47	12042.06
637.664	11890.51
637.857	12013.38
638.051	12050.25
638.244	11933.51
638.438	11890.51
638.632	11814.73
638.825	11622.22
639.019	11411.28
639.212	11491.15
639.406	11452.24
639.599	11587.41
639.793	11493.2
639.986	11327.32
640.18	11429.71
640.373	11077.46
640.567	11122.52
640.76	11118.42
640.954	10964.82
641.147	10932.06
641.34	11097.94
641.534	10741.6
641.727	10755.93
641.92	10930.01
642.114	10872.67
642.307	10776.41
642.5	10590.05
642.694	10475.36
642.887	10436.45
643.08	10526.56
643.273	10293.09
643.467	10430.3
643.66	10393.44
643.853	10262.37
644.046	10110.82
644.239	10168.16
644.432	9992.04
644.626	9938.79
644.819	9906.02
645.012	9914.22
645.205	9842.54
645.398	9817.96
645.591	9604.97
645.784	9820.01
645.977	9723.76
646.17	9693.04
646.363	9637.74
646.556	9391.98
646.749	9291.63
646.942	9373.55
647.135	9252.72
647.328	9355.12
647.521	9346.93
647.714	9348.98
647.907	9201.52
648.099	9076.6
648.292	9113.46
648.485	9013.11
648.678	8904.57
648.871	8757.11
649.064	8865.66
649.256	9002.87
649.449	8648.57
649.642	8613.76
649.835	8740.73
650.027	8736.63
650.22	8695.68
650.413	8679.29
650.605	8552.32
650.798	8499.07
650.991	8374.14
651.183	8400.77
651.376	8232.83
651.568	8304.51
651.761	8228.74
651.954	8363.9
652.146	8179.59
652.339	8150.92
652.531	8050.57
652.724	8101.76
652.916	7954.31
653.109	7810.95
653.301	7915.4
653.494	7970.69
653.686	7726.99
653.879	7939.97
654.071	7688.07
654.263	7786.38
654.456	7694.22
654.648	7628.68
654.84	7581.58
655.033	7546.76
655.225	7530.38
655.417	7430.03
655.61	7577.48
655.802	7262.1
655.994	7466.89
656.186	7307.15
656.379	7163.79
656.571	7223.19
656.763	7348.11
656.955	7051.16
657.148	7253.91
657.34	7239.57
657.532	6981.53
657.724	7063.44
657.916	7030.68
658.108	7063.44
658.3	6881.18
658.492	6973.33
658.684	6741.91
658.876	6705.05
659.068	6948.76
659.26	6703
659.452	6801.3
659.644	6743.96
659.836	6573.98
660.028	6610.84
660.22	6377.37
660.412	6471.58
660.604	6430.62
660.796	6492.06
660.988	6336.42
661.18	6508.44
661.372	6346.66
661.563	6299.55
661.755	6246.3
661.947	6330.27
662.139	6117.28
662.331	6207.39
662.522	6119.33
662.714	6137.76
662.906	6094.75
663.097	6119.33
663.289	6014.88
663.481	6180.77
663.673	5941.16
663.864	6143.91
664.056	6008.74
664.247	5943.21
664.439	5908.39
664.631	5709.74
664.822	5902.25
665.014	5730.22
665.205	5771.18
665.397	5638.06
665.588	5779.37
665.78	5689.26
665.971	5642.15
666.163	5625.77
666.354	5601.19
666.546	5679.02
666.737	5533.61
666.929	5418.93
667.12	5640.11
667.311	5392.3
667.503	5484.46
667.694	5380.01
667.885	5521.32
668.077	5425.07
668.268	5312.43
668.459	5304.24
668.651	5253.04
668.842	5210.03
669.033	5138.35
669.224	5210.03
669.416	5253.04
669.607	5222.32
669.798	5050.29
669.989	5246.9
670.18	5207.98
670.371	5091.25
670.563	4999.09
670.754	4964.28
670.945	4954.04
671.136	5068.72
671.327	5144.5
671.518	4855.73
671.709	4966.32
671.9	4935.6
672.091	4913.08
672.282	4923.32
672.473	4792.25
672.664	4802.49
672.855	4812.73
673.046	4884.41
673.237	4794.29
673.428	4894.65
673.619	4808.63
673.809	4763.58
674	4792.25
674.191	4560.83
674.382	4681.66
674.573	4648.89
674.764	4677.56
674.954	4616.12
675.145	4589.5
675.336	4618.17
675.527	4579.26
675.717	4622.27
675.908	4546.49
676.099	4566.97
676.289	4597.69
676.48	4444.09
676.671	4440
676.861	4329.41
677.052	4358.08
677.243	4452.28
677.433	4464.57
677.624	4515.77
677.814	4366.27
678.005	4409.28
678.195	4444.09
678.386	4454.33
678.576	4353.98
678.767	4374.46
678.957	4282.3
679.148	4321.21
679.338	4216.77
679.529	4200.38
679.719	4122.56
679.909	4360.13
680.1	4169.66
680.29	4304.83
680.481	4284.35
680.671	4192.19
680.861	4188.1
681.052	4237.25
681.242	4233.15
681.432	4140.99
681.622	4116.42
681.813	4204.48
682.003	4153.28
682.193	3928
682.383	4155.33
682.573	3985.35
682.764	4036.55
682.954	4202.43
683.144	4114.37
683.334	4026.31
683.524	4018.11
683.714	4075.46
683.904	3940.29
684.094	3952.58
684.284	3973.06
684.474	4050.88
684.664	4009.92
684.854	3956.68
685.044	3885
685.234	3895.24
685.424	3866.56
685.614	3844.04
685.804	3788.74
685.994	3858.37
686.184	3864.52
686.374	3805.13
686.564	3921.86
686.753	3743.69
686.943	3751.88
687.133	3780.55
687.323	3764.17
687.513	3823.56
687.702	3817.41
687.892	3608.52
688.082	3798.98
688.272	3567.56
688.461	3633.1
688.651	3598.28
688.841	3477.45
689.03	3585.99
689.22	3532.75
689.41	3395.53
689.599	3532.75
689.789	3559.37
689.979	3495.88
690.168	3448.78
690.358	3416.01
690.547	3444.68
690.737	3358.67
690.926	3354.57
691.116	3436.49
691.305	3262.41
691.495	3346.38
691.684	3178.45
691.874	3342.28
692.063	3219.41
692.252	3190.74
692.442	3145.68
692.631	3182.54
692.82	3262.41
693.01	3133.39
693.199	3168.21
693.388	3010.51
693.578	3153.87
693.767	3114.96
693.956	2994.13
694.146	3145.68
694.335	3053.52
694.524	3153.87
694.713	2955.22
694.902	3043.28
695.092	2897.88
695.281	2895.83
695.47	2920.4
695.659	2981.84
695.848	2893.78
696.037	2840.53
696.226	2957.27
696.415	2867.16
696.604	2897.88
696.793	2942.93
696.982	2916.31
697.171	2830.29
697.36	2865.11
697.549	2756.57
697.738	2695.13
697.927	2803.67
698.116	2844.63
698.305	2750.42
698.494	2699.22
698.683	2621.4
698.872	2668.5
699.061	2678.74
699.25	2639.83
699.438	2711.51
699.627	2729.94
699.816	2799.57
700.005	2666.46
700.193	2549.72
700.382	2650.07
700.571	2656.22
700.76	2598.87
700.948	2605.02
701.137	2592.73
701.326	2803.67
701.514	2516.95
701.703	2596.82
701.892	2396.12
702.08	2510.81
702.269	2586.58
702.457	2584.54
702.646	2609.11
702.834	2514.91
703.023	2473.95
703.212	2588.63
703.4	2435.03
703.589	2428.89
703.777	2568.15
703.965	2506.71
704.154	2500.57
704.342	2527.19
704.531	2498.52
704.719	2461.66
704.907	2506.71
705.096	2521.05
705.284	2422.75
705.472	2496.47
705.661	2484.19
705.849	2426.84
706.037	2469.85
706.226	2387.93
706.414	2455.51
706.602	2506.71
706.79	2533.34
706.979	2303.96
707.167	2457.56
707.355	2385.88
707.543	2385.88
707.731	2408.41
707.919	2414.56
708.107	2435.03
708.296	2488.28
708.484	2373.6
708.672	2332.64
708.86	2414.56
709.048	2330.59
709.236	2267.1
709.424	2451.42
709.612	2324.44
709.8	2369.5
709.988	2389.98
710.176	2414.56
710.364	2396.12
710.551	2346.97
710.739	2394.08
710.927	2375.64
711.115	2480.09
711.303	2373.6
711.491	2439.13
711.679	2398.17
711.866	2349.02
712.054	2349.02
712.242	2369.5
712.43	2508.76
712.617	2435.03
712.805	2420.7
712.993	2482.14
713.181	2285.53
713.368	2439.13
713.556	2349.02
713.744	2330.59
713.931	2381.79
714.119	2422.75
714.306	2334.68
714.494	2330.59
714.682	2410.46
714.869	2295.77
715.057	2410.46
715.244	2256.86
715.432	2398.17
715.619	2295.77
715.807	2453.47
715.994	2402.27
716.182	2359.26
716.369	2394.08
716.556	2371.55
716.744	2269.15
716.931	2408.41
717.119	2435.03
717.306	2508.76
717.493	2461.66
717.681	2449.37
717.868	2467.8
718.055	2406.36
718.242	2365.4
718.43	2346.97
718.617	2486.23
718.804	2594.78
718.991	2453.47
719.179	2400.22
719.366	2463.71
719.553	2355.16
719.74	2338.78
719.927	2412.51
720.114	2525.15
720.301	2387.93
720.488	2478.04
720.676	2353.12
720.863	2502.62
721.05	2463.71
721.237	2467.8
721.424	2502.62
721.611	2465.75
721.798	2455.51
721.985	2387.93
722.172	2428.89
722.358	2400.22
722.545	2473.95
722.732	2400.22
722.919	2387.93
723.106	2533.34
723.293	2451.42
723.48	2602.97
723.667	2482.14
723.853	2404.32
724.04	2420.7
724.227	2416.6
724.414	2482.14
724.6	2492.38
724.787	2439.13
724.974	2478.04
725.161	2473.95
725.347	2469.85
725.534	2537.43
725.72	2457.56
725.907	2453.47
726.094	2445.27
726.28	2412.51
726.467	2396.12
726.653	2484.19
726.84	2590.68
727.027	2492.38
727.213	2277.34
727.4	2541.53
727.586	2496.47
727.773	2377.69
727.959	2449.37
728.145	2475.99
728.332	2428.89
728.518	2519
728.705	2611.16
728.891	2492.38
729.077	2545.63
729.264	2523.1
729.45	2492.38
729.636	2627.54
729.823	2402.27
730.009	2543.58
730.195	2453.47
730.382	2527.19
730.568	2488.28
730.754	2541.53
730.94	2465.75
731.126	2437.08
731.313	2457.56
731.499	2467.8
731.685	2469.85
731.871	2496.47
732.057	2539.48
732.243	2432.99
732.429	2369.5
732.615	2453.47
732.801	2574.3
732.987	2469.85
733.173	2496.47
733.359	2611.16
733.545	2492.38
733.731	2416.6
733.917	2586.58
734.103	2453.47
734.289	2461.66
734.475	2447.32
734.661	2605.02
734.847	2543.58
735.033	2465.75
735.219	2471.9
735.404	2629.59
735.59	2437.08
735.776	2408.41
735.962	2486.23
736.148	2525.15
736.333	2449.37
736.519	2422.75
736.705	2365.4
736.89	2451.42
737.076	2449.37
737.262	2459.61
737.447	2459.61
737.633	2539.48
737.819	2453.47
738.004	2422.75
738.19	2469.85
738.375	2408.41
738.561	2549.72
738.747	2422.75
738.932	2404.32
739.118	2445.27
739.303	2314.2
739.489	2420.7
739.674	2330.59
739.859	2410.46
740.045	2387.93
740.23	2312.16
740.416	2349.02
740.601	2334.68
740.786	2469.85
740.972	2418.65
741.157	2365.4
741.342	2387.93
741.528	2289.63
741.713	2367.45
741.898	2256.86
742.084	2273.25
742.269	2299.87
742.454	2322.4
742.639	2375.64
742.824	2324.44
743.01	2334.68
743.195	2301.92
743.38	2242.53
743.565	2166.75
743.75	2189.28
743.935	2238.43
744.12	2281.44
744.305	2115.55
744.49	2205.66
744.675	2162.65
744.86	2181.09
745.045	2154.46
745.23	2133.98
745.415	2076.64
745.6	2138.08
745.785	2088.93
745.97	2111.46
746.155	2138.08
746.34	2162.65
746.525	2099.17
746.71	2080.74
746.895	2043.87
747.079	2072.54
747.264	2007.01
747.449	2025.44
747.634	2031.59
747.819	2131.94
748.003	2021.35
748.188	2070.5
748.373	1964
748.557	2031.59
748.742	1912.8
748.927	1943.52
749.111	1931.23
749.296	1953.76
749.481	1949.67
749.665	1894.37
749.85	1781.73
750.034	1974.24
750.219	1863.65
750.404	1771.49
750.588	1818.6
750.773	1775.59
750.957	1820.64
751.141	1708.01
751.326	1834.98
751.51	1675.24
751.695	1791.97
751.879	1765.35
752.064	1798.12
752.248	1787.88
752.432	1730.53
752.617	1695.72
752.801	1638.38
752.985	1695.72
753.17	1728.49
753.354	1716.2
753.538	1701.86
753.722	1763.3
753.907	1486.83
754.091	1576.94
754.275	1662.95
754.459	1583.08
754.643	1509.35
754.828	1689.57
755.012	1499.11
755.196	1540.07
755.38	1525.74
755.564	1593.32
755.748	1538.02
755.932	1552.36
756.116	1558.5
756.3	1558.5
756.484	1511.4
756.668	1462.25
756.852	1437.67
757.036	1458.15
757.22	1488.87
757.404	1437.67
757.588	1335.28
757.772	1339.37
757.956	1443.82
758.14	1370.09
758.323	1392.62
758.507	1320.94
758.691	1327.08
758.875	1322.99
759.059	1282.03
759.242	1339.37
759.426	1255.4
759.61	1374.19
759.794	1257.45
759.977	1322.99
760.161	1345.52
760.345	1296.36
760.528	1222.64
760.712	1347.56
760.895	1255.4
761.079	1204.21
761.263	1177.58
761.446	1251.31
761.63	1261.55
761.813	1351.66
761.997	1171.44
762.18	1165.29
762.364	1179.63
762.547	1181.68
762.731	1206.25
762.914	1210.35
763.098	1183.73
763.281	1196.01
763.464	1071.09
763.648	1132.53
763.831	1097.71
764.015	1105.9
764.198	1173.49
764.381	1230.83
764.564	1101.81
764.748	1110
764.931	1095.66
765.114	1062.9
765.297	1112.05
765.481	1062.9
765.664	1083.38
765.847	1118.19
766.03	962.55
766.213	1110
766.397	1126.38
766.58	1105.9
766.763	1064.94
766.946	1026.03
767.129	1077.23
767.312	1064.94
767.495	1060.85
767.678	1036.27
767.861	1040.37
768.044	1157.1
768.227	1040.37
768.41	1044.46
768.593	1021.94
768.776	1077.23
768.959	1048.56
769.142	1044.46
769.324	1101.81
769.507	958.45
769.69	974.83
769.873	989.17
770.056	937.97
770.239	1026.03
770.421	958.45
770.604	985.07
770.787	1044.46
770.97	978.93
771.152	862.19
771.335	1011.7
771.518	935.92
771.7	995.31
771.883	983.03
772.066	866.29
772.248	964.59
772.431	950.26
772.613	970.74
772.796	940.02
772.978	913.39
773.161	954.35
773.343	894.96
773.526	804.85
773.708	757.75
773.891	921.59
774.073	888.82
774.256	831.48
774.438	892.91
774.621	921.59
774.803	821.24
774.985	788.47
775.168	899.06
775.35	882.67
775.532	815.09
775.715	849.91
775.897	825.33
776.079	806.9
776.261	755.7
776.444	806.9
776.626	747.51
776.808	884.72
776.99	815.09
777.173	772.08
777.355	765.94
777.537	757.75
777.719	708.6
777.901	774.13
778.083	724.98
778.265	743.41
778.447	735.22
778.629	763.89
778.811	733.17
778.993	747.51
779.175	755.7
779.357	667.64
779.539	663.54
779.721	712.69
779.903	690.17
780.085	700.41
780.267	673.78
780.449	665.59
780.631	659.45
780.812	641.01
780.994	641.01
781.176	540.66
781.358	622.58
781.54	585.72
781.721	690.17
781.903	573.43
782.085	632.82
782.267	610.29
782.448	626.68
782.63	559.1
782.812	546.81
782.993	499.7
783.175	645.11
783.357	577.53
783.538	552.95
783.72	585.72
783.901	595.96
784.083	538.62
784.264	614.39
784.446	452.6
784.627	489.46
784.809	616.44
784.99	530.42
785.172	608.25
785.353	589.81
785.535	577.53
785.716	460.79
785.897	376.83
786.079	516.09
786.26	507.9
786.441	520.18
786.623	516.09
786.804	417.79
786.985	444.41
787.167	477.18
787.348	526.33
787.529	460.79
787.71	495.61
787.891	452.6
788.073	430.07
788.254	503.8
788.435	509.94
788.616	462.84
788.797	438.27
788.978	448.51
789.159	522.23
789.34	417.79
789.522	487.42
789.703	399.35
789.884	364.54
790.065	409.59
790.246	378.87
790.427	430.07
790.607	532.47
790.788	395.26
790.969	366.59
791.15	432.12
791.331	409.59
791.512	403.45
791.693	348.15
791.874	325.63
792.054	356.35
792.235	403.45
792.416	374.78
792.597	358.39
792.778	344.06
792.958	481.27
793.139	417.79
793.32	350.2
793.5	391.16
793.681	407.55
793.862	329.72
794.042	370.68
794.223	319.48
794.404	315.39
794.584	296.96
794.765	374.78
794.945	344.06
795.126	342.01
795.306	346.11
795.487	415.74
795.667	385.02
795.848	311.29
796.028	266.24
796.209	315.39
796.389	401.4
796.57	354.3
796.75	266.24
796.93	217.08
797.111	299
797.291	303.1
797.471	307.2
797.652	282.62
797.832	331.77
798.012	356.35
798.192	237.56
798.373	237.56
798.553	372.73
798.733	344.06
798.913	303.1
799.093	356.35
799.274	274.43
799.454	266.24
799.634	229.37
799.814	294.91
799.994	264.19
800.174	301.05
800.354	315.39
800.534	206.84
800.714	215.04
800.894	282.62
801.074	239.61
801.254	223.23
801.434	249.85
801.614	264.19
801.794	245.76
801.974	610.29
802.154	256
802.334	292.86
802.514	233.47
802.693	266.24
802.873	133.12
803.053	270.33
803.233	309.24
803.413	264.19
803.592	243.71
803.772	282.62
803.952	258.04
804.131	202.75
804.311	241.66
804.491	174.08
804.67	178.17
804.85	231.42
805.03	219.13
805.209	235.52
805.389	227.32
805.568	219.13
805.748	192.51
805.928	245.76
806.107	212.99
806.287	266.24
806.466	206.84
806.646	245.76
806.825	212.99
807.004	194.56
807.184	239.61
807.363	215.04
807.543	299
807.722	217.08
807.901	217.08
808.081	225.28
808.26	192.51
808.439	231.42
808.619	245.76
808.798	227.32
808.977	169.98
809.156	264.19
809.336	200.7
809.515	229.37
809.694	208.89
809.873	153.6
810.052	182.27
810.231	186.37
810.411	139.26
810.59	126.97
810.769	198.65
810.948	221.18
811.127	141.31
811.306	233.47
811.485	155.65
811.664	258.04
811.843	159.74
812.022	141.31
812.201	262.14
812.38	149.5
812.559	253.95
812.737	122.88
812.916	210.94
813.095	176.13
813.274	184.32
813.453	251.9
813.632	165.89
813.811	180.22
813.989	184.32
814.168	149.5
814.347	151.55
814.526	143.36
814.704	188.41
814.883	247.8
815.062	180.22
815.24	163.84
815.419	165.89
815.598	169.98
815.776	206.84
815.955	86.01
816.133	163.84
816.312	147.45
816.49	139.26
816.669	276.48
816.847	139.26
817.026	194.56
817.204	165.89
817.383	165.89
817.561	153.6
817.74	149.5
817.918	174.08
818.097	67.58
818.275	94.21
818.453	182.27
818.632	131.07
818.81	157.69
818.988	178.17
819.167	212.99
819.345	163.84
819.523	122.88
819.701	159.74
819.879	120.83
820.058	120.83
820.236	167.93
820.414	81.92
820.592	49.15
820.77	112.64
820.948	155.65
821.127	153.6
821.305	163.84
821.483	133.12
821.661	151.55
821.839	174.08
822.017	151.55
822.195	143.36
822.373	143.36
822.551	90.11
822.729	233.47
822.907	73.73
823.085	90.11
823.262	94.21
823.44	169.98
823.618	157.69
823.796	131.07
823.974	118.78
824.152	143.36
824.329	141.31
824.507	32.77
824.685	126.97
824.863	184.32
825.04	180.22
825.218	131.07
825.396	116.73
825.574	151.55
825.751	69.63
825.929	133.12
826.107	151.55
826.284	18.43
826.462	163.84
826.639	112.64
826.817	102.4
826.994	104.45
827.172	24.58
827.349	104.45
827.527	116.73
827.704	110.59
827.882	153.6
828.059	133.12
828.237	20.48
828.414	86.01
828.591	100.35
828.769	145.41
828.946	94.21
829.124	198.65
829.301	88.06
829.478	114.69
829.655	167.93
829.833	32.77
830.01	55.3
830.187	167.93
830.364	83.97
830.542	110.59
830.719	118.78
830.896	110.59
831.073	118.78
831.25	83.97
831.427	36.86
831.604	126.97
831.782	102.4
831.959	176.13
832.136	92.16
832.313	122.88
832.49	12.29
832.667	118.78
832.844	86.01
833.021	102.4
833.198	143.36
833.374	43.01
833.551	38.91
833.728	43.01
833.905	145.41
834.082	38.91
834.259	110.59
834.436	133.12
834.612	83.97
834.789	47.1
834.966	69.63
835.143	88.06
835.319	53.25
835.496	40.96
835.673	100.35
835.85	88.06
836.026	73.73
836.203	135.17
836.38	65.53
836.556	104.45
836.733	22.53
836.909	79.87
837.086	108.54
837.262	86.01
837.439	108.54
837.616	104.45
837.792	28.67
837.968	96.25
838.145	141.31
838.321	83.97
838.498	116.73
838.674	16.38
838.851	110.59
839.027	108.54
839.203	69.63
839.38	55.3
839.556	75.77
839.732	40.96
839.909	16.38
840.085	75.77
840.261	149.5
840.437	159.74
840.614	108.54
840.79	86.01
840.966	49.15
841.142	22.53
841.318	26.62
841.494	102.4
841.671	100.35
841.847	43.01
842.023	-20.48
842.199	116.73
842.375	67.58
842.551	65.53
842.727	71.68
842.903	86.01
843.079	94.21
843.255	-45.06
843.431	20.48
843.607	86.01
843.783	0
843.959	73.73
844.134	20.48
844.31	73.73
844.486	114.69
844.662	135.17
844.838	59.39
845.013	20.48
845.189	83.97
845.365	65.53
845.541	133.12
845.716	32.77
845.892	67.58
846.068	81.92
846.244	28.67
846.419	77.82
846.595	20.48
846.77	8.19
846.946	79.87
847.122	67.58
847.297	30.72
847.473	51.2
847.648	94.21
847.824	26.62
847.999	34.82
848.175	88.06
848.35	-47.1
848.526	16.38
848.701	18.43
848.876	30.72
849.052	40.96
849.227	-28.67
849.403	110.59
849.578	6.14
849.753	43.01
849.929	57.34
850.104	96.25
850.279	86.01
850.454	102.4
850.63	116.73
850.805	10.24
850.98	-8.19
851.155	51.2
851.33	47.1
851.505	6.14
851.681	59.39
851.856	16.38
852.031	2.05
852.206	28.67
852.381	45.06
852.556	32.77
852.731	65.53
852.906	-4.1
853.081	26.62
853.256	69.63
853.431	28.67
853.606	43.01
853.781	-4.1
853.956	-36.86
854.131	73.73
854.305	14.34
854.48	-6.14
854.655	-16.38
854.83	12.29
855.005	-40.96
855.18	36.86
855.354	-4.1
855.529	-4.1
855.704	40.96
855.879	65.53
856.053	32.77
856.228	32.77
856.403	-18.43
856.577	36.86
856.752	14.34
856.926	47.1
857.101	14.34
857.276	73.73
857.45	-28.67
857.625	83.97
857.799	36.86
857.974	90.11
858.148	88.06
858.323	-4.1
858.497	69.63
858.672	75.77
858.846	10.24
859.02	10.24
859.195	-12.29
859.369	26.62
859.543	45.06
859.718	-32.77
859.892	16.38
860.066	30.72
860.241	26.62
860.415	32.77
860.589	32.77
860.763	-14.34
860.938	-26.62
861.112	55.3
861.286	-4.1
861.46	-4.1
861.634	126.97
861.808	36.86
861.982	83.97
862.157	-26.62
862.331	45.06
862.505	14.34
862.679	18.43
862.853	8.19
863.027	-47.1
863.201	75.77
863.375	-24.58
863.549	96.25
863.722	102.4
863.896	40.96
864.07	-47.1
864.244	32.77
864.418	4.1
864.592	-34.82
864.766	61.44
864.939	34.82
865.113	-28.67
865.287	40.96
865.461	61.44
865.634	0
865.808	2.05
865.982	34.82
866.156	45.06
866.329	-22.53
866.503	47.1
866.676	24.58
866.85	40.96
867.024	-2.05
867.197	22.53
867.371	40.96
867.544	79.87
867.718	16.38
867.891	10.24
868.065	32.77
868.238	16.38
868.412	63.49
868.585	-8.19
868.759	32.77
868.932	67.58
869.105	61.44
869.279	12.29
869.452	86.01
869.625	88.06
869.799	2.05
869.972	0
870.145	20.48
870.319	32.77
870.492	36.86
870.665	-34.82
870.838	16.38
871.011	10.24
871.185	73.73
871.358	45.06
871.531	18.43
871.704	-47.1
871.877	-28.67
872.05	18.43
872.223	-24.58
872.396	57.34
872.569	55.3
872.742	40.96
872.915	0
873.088	28.67
873.261	20.48
873.434	51.2
873.607	2.05
873.78	-18.43
873.953	-36.86
874.126	-16.38
874.299	28.67
874.471	79.87
874.644	32.77
874.817	24.58
874.99	47.1
875.163	-10.24
875.335	12.29
875.508	6.14
875.681	34.82
875.853	-8.19
876.026	-8.19
876.199	26.62
876.371	28.67
876.544	77.82
876.717	6.14
876.889	26.62
877.062	36.86
877.234	-18.43
877.407	32.77
877.579	30.72
877.752	16.38
877.924	-16.38
878.097	10.24
878.269	36.86
878.442	32.77
878.614	20.48
878.786	55.3
878.959	67.58
879.131	45.06
879.303	22.53
879.476	20.48
879.648	55.3
879.82	51.2
879.993	55.3
880.165	28.67
880.337	-57.34
880.509	18.43
880.681	20.48
880.854	16.38
881.026	51.2
881.198	20.48
881.37	-14.34
881.542	22.53
881.714	2.05
881.886	14.34
882.058	32.77
882.23	-26.62
882.402	32.77
882.574	36.86
882.746	-22.53
882.918	53.25
883.09	12.29
883.262	-12.29
883.434	-16.38
883.606	114.69
883.778	24.58
883.95	102.4
884.122	32.77
884.293	53.25
884.465	-40.96
884.637	-4.1
884.809	-2.05
884.98	75.77
885.152	57.34
885.324	135.17
885.496	-38.91
885.667	-8.19
885.839	-22.53
886.011	30.72
886.182	8.19
886.354	0
886.525	40.96
886.697	-10.24
886.869	6.14
887.04	65.53
887.212	26.62
887.383	59.39
887.555	2.05
887.726	-12.29
887.897	-2.05
888.069	-38.91
888.24	71.68
888.412	-4.1
888.583	26.62
888.754	18.43
888.926	28.67
889.097	36.86
889.268	18.43
889.44	16.38
889.611	-6.14
889.782	22.53
889.953	59.39
890.125	61.44
890.296	-18.43
890.467	40.96
890.638	-49.15
890.809	2.05
890.98	-40.96
891.151	-4.1
891.323	26.62
891.494	-12.29
891.665	-28.67
891.836	-16.38
892.007	-53.25
892.178	38.91
892.349	22.53
892.52	-24.58
892.691	28.67
892.862	-18.43
893.032	26.62
893.203	12.29
893.374	-38.91
893.545	79.87
893.716	-32.77
893.887	-73.73
894.057	-14.34
894.228	8.19
894.399	-26.62
894.57	53.25
894.74	34.82
894.911	77.82
895.082	-18.43
895.253	-45.06
895.423	-40.96
895.594	18.43
895.764	61.44
895.935	-24.58
896.106	45.06
896.276	45.06
896.447	-4.1
896.617	55.3
896.788	22.53
896.958	2.05
897.129	36.86
897.299	22.53
897.47	57.34
897.64	34.82
897.81	8.19
897.981	-8.19
898.151	12.29
898.322	20.48
898.492	28.67
898.662	8.19
898.832	102.4
899.003	-30.72
899.173	20.48
899.343	-30.72
899.513	-10.24
