Data from USB4F104151__48__11-37-03-323.txt Node

Date: Fri Mar 14 11:37:03 EDT 2025
User: louis
Spectrometer: USB4F10415
Trigger mode: 4
Integration Time (sec): 2.000000E-2
Scans to average: 1
Electric dark correction enabled: true
Nonlinearity correction enabled: false
Boxcar width: 0
XAxis mode: Wavelengths
Number of Pixels in Spectrum: 3648
>>>>>Begin Spectral Data<<<<<
178.204	1.37
178.424	1.37
178.644	1.37
178.864	-82.6
179.084	-47.79
179.304	-0.68
179.524	-2.73
179.744	-84.65
179.964	34.13
180.184	-41.64
180.404	-0.68
180.624	-23.21
180.844	32.08
181.064	-0.68
181.283	11.61
181.503	21.84
181.723	54.61
181.943	-19.11
182.163	-8.87
182.383	-4.78
182.602	56.66
182.822	11.61
183.042	46.42
183.262	-6.83
183.482	9.56
183.701	48.47
183.921	-8.87
184.141	-47.79
184.361	-2.73
184.58	7.51
184.8	17.75
185.02	-10.92
185.239	44.37
185.459	9.56
185.679	38.23
185.898	-37.55
186.118	11.61
186.338	66.9
186.557	32.08
186.777	-12.97
186.997	36.18
187.216	-4.78
187.436	154.96
187.655	62.8
187.875	25.94
188.095	-23.21
188.314	50.52
188.534	-12.97
188.753	1.37
188.973	81.24
189.192	89.43
189.412	50.52
189.631	32.08
189.851	77.14
190.07	68.95
190.29	11.61
190.509	122.2
190.729	62.8
190.948	11.61
191.168	54.61
191.387	95.57
191.607	-94.89
191.826	71
192.045	3.41
192.265	-41.64
192.484	62.8
192.704	5.46
192.923	-29.35
193.142	40.28
193.362	23.89
193.581	66.9
193.8	42.32
194.02	-8.87
194.239	52.56
194.458	93.52
194.678	25.94
194.897	27.99
195.116	27.99
195.335	25.94
195.555	5.46
195.774	7.51
195.993	11.61
196.212	58.71
196.432	-43.69
196.651	23.89
196.87	68.95
197.089	111.96
197.308	-6.83
197.528	34.13
197.747	-2.73
197.966	-0.68
198.185	85.33
198.404	19.8
198.623	71
198.842	62.8
199.062	11.61
199.281	9.56
199.5	-27.31
199.719	56.66
199.938	25.94
200.157	7.51
200.376	36.18
200.595	9.56
200.814	27.99
201.033	81.24
201.252	-41.64
201.471	89.43
201.69	30.04
201.909	68.95
202.128	71
202.347	11.61
202.566	1.37
202.785	105.81
203.004	15.7
203.223	58.71
203.442	40.28
203.661	36.18
203.879	77.14
204.098	71
204.317	1.37
204.536	89.43
204.755	132.44
204.974	54.61
205.193	25.94
205.411	25.94
205.63	11.61
205.849	34.13
206.068	81.24
206.287	56.66
206.505	17.75
206.724	-0.68
206.943	-29.35
207.162	64.85
207.381	126.29
207.599	58.71
207.818	-62.12
208.037	-58.03
208.255	23.89
208.474	23.89
208.693	68.95
208.911	85.33
209.13	-64.17
209.349	34.13
209.567	46.42
209.786	103.76
210.005	38.23
210.223	79.19
210.442	46.42
210.661	73.04
210.879	-29.35
211.098	11.61
211.316	17.75
211.535	-68.27
211.753	15.7
211.972	-27.31
212.191	-0.68
212.409	23.89
212.628	-4.78
212.846	68.95
213.065	32.08
213.283	19.8
213.502	38.23
213.72	46.42
213.938	-8.87
214.157	9.56
214.375	-12.97
214.594	21.84
214.812	46.42
215.031	5.46
215.249	9.56
215.467	68.95
215.686	36.18
215.904	42.32
216.122	-8.87
216.341	30.04
216.559	77.14
216.778	36.18
216.996	77.14
217.214	-12.97
217.432	73.04
217.651	-0.68
217.869	15.7
218.087	9.56
218.306	46.42
218.524	-12.97
218.742	-27.31
218.96	68.95
219.179	23.89
219.397	3.41
219.615	50.52
219.833	58.71
220.051	-4.78
220.27	15.7
220.488	-0.68
220.706	44.37
220.924	34.13
221.142	89.43
221.36	60.76
221.578	13.65
221.796	21.84
222.015	75.09
222.233	9.56
222.451	95.57
222.669	54.61
222.887	46.42
223.105	27.99
223.323	36.18
223.541	56.66
223.759	27.99
223.977	-31.4
224.195	19.8
224.413	71
224.631	-6.83
224.849	60.76
225.067	142.68
225.285	32.08
225.503	23.89
225.721	19.8
225.939	13.65
226.157	46.42
226.375	154.96
226.592	7.51
226.81	66.9
227.028	79.19
227.246	58.71
227.464	48.47
227.682	32.08
227.9	34.13
228.117	60.76
228.335	-12.97
228.553	50.52
228.771	50.52
228.989	122.2
229.206	103.76
229.424	-4.78
229.642	-25.26
229.86	60.76
230.077	130.39
230.295	56.66
230.513	111.96
230.731	81.24
230.948	58.71
231.166	68.95
231.384	-27.31
231.601	44.37
231.819	48.47
232.037	50.52
232.254	44.37
232.472	1.37
232.689	21.84
232.907	128.34
233.125	23.89
233.342	25.94
233.56	52.56
233.777	66.9
233.995	1.37
234.213	105.81
234.43	52.56
234.648	105.81
234.865	3.41
235.083	124.24
235.3	27.99
235.518	50.52
235.735	85.33
235.953	105.81
236.17	71
236.388	75.09
236.605	30.04
236.822	66.9
237.04	-4.78
237.257	40.28
237.475	83.28
237.692	-25.26
237.909	34.13
238.127	36.18
238.344	-4.78
238.562	-0.68
238.779	50.52
238.996	66.9
239.214	-4.78
239.431	77.14
239.648	25.94
239.865	62.8
240.083	11.61
240.3	34.13
240.517	-41.64
240.735	17.75
240.952	19.8
241.169	73.04
241.386	-21.16
241.603	9.56
241.821	-4.78
242.038	97.62
242.255	-10.92
242.472	17.75
242.689	27.99
242.907	95.57
243.124	87.38
243.341	-21.16
243.558	-21.16
243.775	52.56
243.992	-17.07
244.209	15.7
244.426	66.9
244.643	66.9
244.86	-21.16
245.078	66.9
245.295	44.37
245.512	-27.31
245.729	34.13
245.946	48.47
246.163	-23.21
246.38	58.71
246.597	83.28
246.814	-10.92
247.031	75.09
247.248	23.89
247.464	3.41
247.681	52.56
247.898	48.47
248.115	66.9
248.332	60.76
248.549	-12.97
248.766	85.33
248.983	21.84
249.2	83.28
249.417	-15.02
249.633	-12.97
249.85	9.56
250.067	-45.74
250.284	-27.31
250.501	75.09
250.717	75.09
250.934	-15.02
251.151	-10.92
251.368	38.23
251.585	3.41
251.801	40.28
252.018	64.85
252.235	25.94
252.451	60.76
252.668	17.75
252.885	54.61
253.102	-0.68
253.318	23.89
253.535	-0.68
253.752	-12.97
253.968	-6.83
254.185	11.61
254.401	-21.16
254.618	34.13
254.835	1.37
255.051	73.04
255.268	27.99
255.484	73.04
255.701	48.47
255.917	44.37
256.134	27.99
256.351	13.65
256.567	46.42
256.784	52.56
257	-4.78
257.217	-17.07
257.433	40.28
257.65	107.86
257.866	11.61
258.082	-29.35
258.299	48.47
258.515	19.8
258.732	36.18
258.948	5.46
259.165	-31.4
259.381	23.89
259.597	25.94
259.814	64.85
260.03	15.7
260.246	62.8
260.463	27.99
260.679	77.14
260.895	42.32
261.112	19.8
261.328	13.65
261.544	58.71
261.761	34.13
261.977	60.76
262.193	21.84
262.409	32.08
262.626	79.19
262.842	50.52
263.058	25.94
263.274	73.04
263.49	46.42
263.707	-60.07
263.923	58.71
264.139	-58.03
264.355	40.28
264.571	62.8
264.787	56.66
265.004	52.56
265.22	11.61
265.436	50.52
265.652	32.08
265.868	73.04
266.084	52.56
266.3	38.23
266.516	-4.78
266.732	38.23
266.948	66.9
267.164	44.37
267.38	66.9
267.596	32.08
267.812	44.37
268.028	73.04
268.244	11.61
268.46	9.56
268.676	25.94
268.892	34.13
269.108	-12.97
269.324	89.43
269.54	1.37
269.756	21.84
269.972	-43.69
270.188	46.42
270.403	40.28
270.619	19.8
270.835	5.46
271.051	44.37
271.267	25.94
271.483	-49.83
271.698	-19.11
271.914	105.81
272.13	54.61
272.346	91.48
272.562	-45.74
272.777	25.94
272.993	11.61
273.209	85.33
273.425	122.2
273.64	-8.87
273.856	52.56
274.072	17.75
274.287	-49.83
274.503	52.56
274.719	32.08
274.934	-6.83
275.15	25.94
275.366	58.71
275.581	17.75
275.797	77.14
276.012	27.99
276.228	-29.35
276.444	-4.78
276.659	64.85
276.875	7.51
277.09	66.9
277.306	3.41
277.521	9.56
277.737	21.84
277.952	15.7
278.168	23.89
278.383	83.28
278.599	9.56
278.814	116.05
279.03	-39.59
279.245	81.24
279.461	107.86
279.676	101.72
279.892	5.46
280.107	77.14
280.322	-62.12
280.538	66.9
280.753	7.51
280.969	56.66
281.184	32.08
281.399	52.56
281.615	27.99
281.83	34.13
282.045	17.75
282.26	83.28
282.476	77.14
282.691	62.8
282.906	73.04
283.122	9.56
283.337	34.13
283.552	21.84
283.767	1.37
283.983	-41.64
284.198	27.99
284.413	19.8
284.628	17.75
284.843	9.56
285.058	-53.93
285.274	19.8
285.489	-4.78
285.704	46.42
285.919	54.61
286.134	-12.97
286.349	21.84
286.564	30.04
286.779	27.99
286.995	91.48
287.21	17.75
287.425	52.56
287.64	-0.68
287.855	25.94
288.07	17.75
288.285	87.38
288.5	-21.16
288.715	52.56
288.93	64.85
289.145	36.18
289.36	-8.87
289.575	-25.26
289.79	38.23
290.004	54.61
290.219	77.14
290.434	-0.68
290.649	1.37
290.864	-21.16
291.079	-12.97
291.294	44.37
291.509	25.94
291.724	7.51
291.938	17.75
292.153	87.38
292.368	38.23
292.583	32.08
292.798	64.85
293.012	7.51
293.227	17.75
293.442	9.56
293.657	85.33
293.871	48.47
294.086	15.7
294.301	85.33
294.516	58.71
294.73	-2.73
294.945	50.52
295.16	3.41
295.374	11.61
295.589	58.71
295.804	-4.78
296.018	30.04
296.233	107.86
296.447	9.56
296.662	36.18
296.877	68.95
297.091	77.14
297.306	-17.07
297.52	30.04
297.735	93.52
297.949	25.94
298.164	-35.5
298.378	50.52
298.593	1.37
298.807	36.18
299.022	52.56
299.236	75.09
299.451	58.71
299.665	60.76
299.88	7.51
300.094	7.51
300.309	89.43
300.523	73.04
300.737	44.37
300.952	1.37
301.166	-2.73
301.381	42.32
301.595	17.75
301.809	93.52
302.024	27.99
302.238	-2.73
302.452	-58.03
302.667	58.71
302.881	64.85
303.095	23.89
303.309	52.56
303.524	-4.78
303.738	64.85
303.952	-33.45
304.166	9.56
304.381	32.08
304.595	99.67
304.809	-8.87
305.023	34.13
305.237	34.13
305.452	48.47
305.666	111.96
305.88	23.89
306.094	-31.4
306.308	36.18
306.522	-0.68
306.736	36.18
306.95	-8.87
307.164	56.66
307.379	-41.64
307.593	109.91
307.807	-4.78
308.021	17.75
308.235	11.61
308.449	-0.68
308.663	66.9
308.877	30.04
309.091	50.52
309.305	27.99
309.519	-8.87
309.733	19.8
309.947	13.65
310.161	34.13
310.374	13.65
310.588	-45.74
310.802	50.52
311.016	23.89
311.23	52.56
311.444	-31.4
311.658	7.51
311.872	60.76
312.085	118.1
312.299	44.37
312.513	9.56
312.727	68.95
312.941	-8.87
313.154	42.32
313.368	23.89
313.582	52.56
313.796	-31.4
314.009	66.9
314.223	-92.84
314.437	60.76
314.651	44.37
314.864	-33.45
315.078	44.37
315.292	50.52
315.505	64.85
315.719	54.61
315.933	23.89
316.146	34.13
316.36	60.76
316.573	75.09
316.787	77.14
317.001	30.04
317.214	25.94
317.428	13.65
317.641	50.52
317.855	85.33
318.068	77.14
318.282	19.8
318.495	101.72
318.709	62.8
318.922	40.28
319.136	77.14
319.349	77.14
319.563	38.23
319.776	40.28
319.99	15.7
320.203	52.56
320.417	5.46
320.63	17.75
320.843	66.9
321.057	25.94
321.27	64.85
321.483	40.28
321.697	40.28
321.91	64.85
322.124	83.28
322.337	32.08
322.55	32.08
322.763	11.61
322.977	44.37
323.19	17.75
323.403	71
323.617	58.71
323.83	-19.11
324.043	99.67
324.256	109.91
324.469	-21.16
324.683	73.04
324.896	11.61
325.109	-58.03
325.322	64.85
325.535	-15.02
325.748	-25.26
325.962	36.18
326.175	32.08
326.388	101.72
326.601	99.67
326.814	-6.83
327.027	-21.16
327.24	89.43
327.453	-0.68
327.666	64.85
327.879	77.14
328.092	83.28
328.305	56.66
328.518	64.85
328.731	19.8
328.944	36.18
329.157	-2.73
329.37	142.68
329.583	15.7
329.796	23.89
330.009	5.46
330.222	48.47
330.435	52.56
330.648	81.24
330.861	62.8
331.073	27.99
331.286	3.41
331.499	48.47
331.712	-27.31
331.925	64.85
332.138	44.37
332.35	64.85
332.563	44.37
332.776	91.48
332.989	77.14
333.202	79.19
333.414	40.28
333.627	91.48
333.84	60.76
334.053	128.34
334.265	105.81
334.478	-2.73
334.691	56.66
334.903	116.05
335.116	-23.21
335.329	64.85
335.541	99.67
335.754	40.28
335.966	40.28
336.179	32.08
336.392	68.95
336.604	34.13
336.817	15.7
337.029	40.28
337.242	36.18
337.454	27.99
337.667	23.89
337.88	85.33
338.092	83.28
338.305	-45.74
338.517	42.32
338.729	58.71
338.942	114
339.154	-15.02
339.367	50.52
339.579	19.8
339.792	46.42
340.004	50.52
340.217	9.56
340.429	85.33
340.641	44.37
340.854	36.18
341.066	15.7
341.278	146.77
341.491	169.3
341.703	54.61
341.915	99.67
342.128	52.56
342.34	40.28
342.552	-23.21
342.764	40.28
342.977	-37.55
343.189	107.86
343.401	42.32
343.613	36.18
343.826	77.14
344.038	56.66
344.25	27.99
344.462	-29.35
344.674	75.09
344.886	50.52
345.099	42.32
345.311	167.25
345.523	34.13
345.735	11.61
345.947	13.65
346.159	-4.78
346.371	36.18
346.583	85.33
346.795	27.99
347.007	-74.41
347.219	124.24
347.431	-60.07
347.643	87.38
347.855	56.66
348.067	62.8
348.279	64.85
348.491	126.29
348.703	-27.31
348.915	97.62
349.127	46.42
349.339	-27.31
349.551	15.7
349.763	111.96
349.975	27.99
350.187	-25.26
350.399	52.56
350.61	71
350.822	46.42
351.034	11.61
351.246	120.15
351.458	25.94
351.669	48.47
351.881	56.66
352.093	68.95
352.305	1.37
352.517	75.09
352.728	42.32
352.94	-15.02
353.152	71
353.363	15.7
353.575	32.08
353.787	60.76
353.999	93.52
354.21	75.09
354.422	15.7
354.633	23.89
354.845	46.42
355.057	36.18
355.268	11.61
355.48	25.94
355.692	52.56
355.903	-98.99
356.115	50.52
356.326	25.94
356.538	34.13
356.749	30.04
356.961	66.9
357.172	-12.97
357.384	11.61
357.595	142.68
357.807	81.24
358.018	34.13
358.23	91.48
358.441	93.52
358.653	50.52
358.864	-4.78
359.075	25.94
359.287	42.32
359.498	27.99
359.709	64.85
359.921	-31.4
360.132	40.28
360.344	25.94
360.555	-86.7
360.766	99.67
360.977	87.38
361.189	132.44
361.4	48.47
361.611	34.13
361.823	54.61
362.034	34.13
362.245	11.61
362.456	11.61
362.667	79.19
362.879	5.46
363.09	-6.83
363.301	79.19
363.512	52.56
363.723	-62.12
363.935	30.04
364.146	64.85
364.357	79.19
364.568	13.65
364.779	-29.35
364.99	87.38
365.201	89.43
365.412	7.51
365.623	93.52
365.834	122.2
366.045	48.47
366.256	77.14
366.467	83.28
366.678	52.56
366.889	87.38
367.1	64.85
367.311	32.08
367.522	-6.83
367.733	50.52
367.944	89.43
368.155	21.84
368.366	-39.59
368.577	142.68
368.788	71
368.999	42.32
369.209	25.94
369.42	60.76
369.631	66.9
369.842	85.33
370.053	42.32
370.264	15.7
370.474	30.04
370.685	77.14
370.896	1.37
371.107	-12.97
371.317	25.94
371.528	25.94
371.739	85.33
371.95	-8.87
372.16	56.66
372.371	36.18
372.582	77.14
372.792	83.28
373.003	150.87
373.214	118.1
373.424	32.08
373.635	64.85
373.846	48.47
374.056	52.56
374.267	40.28
374.477	62.8
374.688	58.71
374.898	7.51
375.109	23.89
375.319	5.46
375.53	36.18
375.74	87.38
375.951	9.56
376.161	30.04
376.372	13.65
376.582	89.43
376.793	75.09
377.003	-47.79
377.214	13.65
377.424	109.91
377.635	32.08
377.845	30.04
378.055	40.28
378.266	-23.21
378.476	54.61
378.686	83.28
378.897	34.13
379.107	3.41
379.317	89.43
379.528	15.7
379.738	38.23
379.948	27.99
380.158	27.99
380.369	50.52
380.579	101.72
380.789	36.18
380.999	83.28
381.21	140.63
381.42	111.96
381.63	25.94
381.84	34.13
382.05	42.32
382.261	68.95
382.471	97.62
382.681	62.8
382.891	79.19
383.101	83.28
383.311	-12.97
383.521	3.41
383.731	68.95
383.941	116.05
384.151	40.28
384.361	64.85
384.571	109.91
384.781	56.66
384.991	99.67
385.201	83.28
385.411	81.24
385.621	42.32
385.831	19.8
386.041	50.52
386.251	107.86
386.461	124.24
386.671	79.19
386.881	75.09
387.091	36.18
387.301	-6.83
387.511	83.28
387.72	77.14
387.93	11.61
388.14	46.42
388.35	9.56
388.56	32.08
388.769	73.04
388.979	5.46
389.189	50.52
389.399	99.67
389.609	109.91
389.818	122.2
390.028	64.85
390.238	50.52
390.447	50.52
390.657	52.56
390.867	60.76
391.076	15.7
391.286	93.52
391.496	73.04
391.705	81.24
391.915	103.76
392.125	85.33
392.334	99.67
392.544	95.57
392.753	11.61
392.963	81.24
393.172	13.65
393.382	50.52
393.591	130.39
393.801	44.37
394.01	101.72
394.22	68.95
394.429	66.9
394.639	40.28
394.848	52.56
395.058	101.72
395.267	17.75
395.477	52.56
395.686	27.99
395.895	132.44
396.105	62.8
396.314	-15.02
396.524	64.85
396.733	62.8
396.942	144.72
397.152	118.1
397.361	101.72
397.57	68.95
397.78	81.24
397.989	138.58
398.198	146.77
398.407	19.8
398.617	146.77
398.826	73.04
399.035	46.42
399.244	60.76
399.453	81.24
399.663	34.13
399.872	52.56
400.081	132.44
400.29	68.95
400.499	44.37
400.708	93.52
400.917	99.67
401.127	120.15
401.336	66.9
401.545	116.05
401.754	60.76
401.963	157.01
402.172	132.44
402.381	101.72
402.59	42.32
402.799	134.48
403.008	118.1
403.217	109.91
403.426	62.8
403.635	105.81
403.844	126.29
404.053	79.19
404.262	128.34
404.471	200.02
404.68	146.77
404.888	165.2
405.097	97.62
405.306	134.48
405.515	81.24
405.724	159.06
405.933	120.15
406.142	197.97
406.35	187.73
406.559	154.96
406.768	202.07
406.977	224.59
407.185	216.4
407.394	195.92
407.603	122.2
407.812	152.91
408.02	144.72
408.229	175.44
408.438	159.06
408.646	165.2
408.855	236.88
409.064	247.12
409.272	185.68
409.481	261.46
409.69	161.11
409.898	208.21
410.107	200.02
410.315	279.89
410.524	300.37
410.733	212.31
410.941	247.12
411.15	283.98
411.358	331.09
411.567	298.32
411.775	288.08
411.984	310.61
412.192	294.22
412.401	322.9
412.609	402.77
412.818	380.24
413.026	290.13
413.234	425.29
413.443	415.05
413.651	361.81
413.86	488.78
414.068	546.12
414.276	474.45
414.485	531.79
414.693	466.25
414.901	484.69
415.11	589.13
415.318	548.17
415.526	615.76
415.734	535.89
415.943	642.38
416.151	652.62
416.359	761.16
416.567	671.05
416.776	695.63
416.984	750.92
417.192	736.59
417.4	814.41
417.608	765.26
417.817	777.55
418.025	845.13
418.233	925
418.441	826.7
418.649	904.52
418.857	978.25
419.065	1033.54
419.273	953.67
419.481	974.15
419.689	1201.47
419.897	1125.7
420.105	1238.34
420.313	1174.85
420.521	1248.58
420.729	1277.25
420.937	1232.19
421.145	1330.5
421.353	1305.92
421.561	1457.47
421.769	1512.77
421.977	1467.71
422.185	1525.05
422.393	1754.43
422.601	1621.31
422.809	1641.79
423.017	1760.57
423.224	1877.3
423.432	1887.54
423.64	1901.88
423.848	2098.49
424.056	2037.05
424.263	2252.08
424.471	2237.75
424.679	2338.1
424.887	2239.8
425.094	2368.82
425.302	2526.51
425.51	2460.98
425.718	2620.72
425.925	2645.29
426.133	2676.01
426.341	2946.34
426.548	2923.82
426.756	2954.54
426.964	3120.42
427.171	3224.87
427.379	3233.06
427.586	3339.55
427.794	3439.9
428.001	3444
428.209	3853.59
428.417	3738.91
428.624	3994.9
428.832	3947.8
429.039	3982.62
429.247	3958.04
429.454	4373.78
429.662	4451.6
429.869	4263.19
430.076	4807.95
430.284	4488.46
430.491	4582.67
430.699	4906.25
430.906	4939.02
431.114	5070.09
431.321	5227.78
431.528	5201.16
431.736	5494.02
431.943	5864.7
432.15	5735.68
432.358	5811.45
432.565	6212.85
432.772	5981.43
432.979	6227.19
433.187	6538.48
433.394	6378.74
433.601	6915.31
433.808	6900.97
434.016	6866.16
434.223	7247.08
434.43	7642.34
434.637	7617.76
434.844	7924.96
435.052	8082.65
435.259	8006.88
435.466	8209.62
435.673	7984.35
435.88	8563.92
436.087	9174.22
436.294	9004.24
436.501	8936.65
436.708	8967.37
436.915	9401.54
437.122	9684.16
437.329	9733.31
437.537	10159.29
437.743	10149.05
437.95	10161.34
438.157	10687.67
438.364	10980.53
438.571	10966.19
438.778	10951.85
438.985	12223.64
439.192	11734.18
439.399	12145.82
439.606	11699.36
439.813	12502.17
440.02	13120.65
440.227	12780.69
440.433	12686.48
440.64	12907.66
440.847	13126.8
441.054	13282.44
441.261	14109.82
441.467	13988.99
441.674	14290.04
441.881	15254.64
442.088	14881.91
442.294	14711.92
442.501	14840.95
442.708	15580.26
442.914	16102.5
443.121	16862.29
443.328	16143.46
443.534	17486.92
443.741	16958.55
443.948	16856.15
444.154	17785.93
444.361	18027.59
444.568	18005.06
444.774	17775.69
444.981	18304.06
445.187	18662.46
445.394	19385.39
445.6	19391.53
445.807	21064.72
446.013	19964.96
446.22	20831.26
446.426	21173.27
446.633	21355.54
446.839	22279.17
447.046	21591.05
447.252	22735.87
447.459	22477.82
447.665	22479.87
447.871	23546.86
448.078	24601.57
448.284	23081.97
448.491	23661.55
448.697	24560.61
448.903	25402.32
449.11	25396.18
449.316	25007.06
449.522	25459.66
449.728	26305.48
449.935	26264.52
450.141	26381.25
450.347	26676.16
450.553	25940.94
450.76	26348.48
450.966	27151.29
451.172	26919.87
451.378	27845.55
451.584	26772.41
451.791	27644.85
451.997	27646.9
452.203	28173.22
452.409	28259.24
452.615	27712.43
452.821	26860.48
453.027	26729.41
453.233	27937.71
453.44	27257.78
453.646	27292.6
453.852	27421.62
454.058	27788.21
454.264	27005.88
454.47	27771.82
454.676	26825.66
454.882	27433.91
455.088	24820.7
455.294	25826.25
455.5	26155.97
455.705	26332.1
455.911	25195.48
456.117	24540.13
456.323	24515.55
456.529	23241.71
456.735	24247.27
456.941	23428.08
457.147	23208.95
457.352	22492.16
457.558	22322.18
457.764	22162.44
457.97	21916.68
458.176	21169.17
458.381	21224.47
458.587	20225.06
458.793	20286.5
458.999	19078.19
459.204	20491.29
459.41	20132.9
459.616	18947.12
459.821	18644.02
460.027	18314.3
460.233	18441.28
460.438	17620.04
460.644	17548.36
460.85	16888.92
461.055	16303.2
461.261	16464.99
461.466	15268.97
461.672	14707.83
461.878	15690.85
462.083	14580.85
462.289	14283.9
462.494	14427.26
462.7	13796.48
462.905	13429.9
463.111	14005.38
463.316	13943.94
463.522	13692.04
463.727	13616.26
463.932	13501.58
464.138	13517.96
464.343	13704.32
464.549	12887.18
464.754	13593.73
464.959	13341.83
465.165	13360.27
465.37	12651.67
465.575	12471.45
465.781	12903.57
465.986	13120.65
466.191	12291.23
466.397	12168.35
466.602	11627.68
466.807	12162.2
467.012	12098.72
467.218	12135.58
467.423	12037.28
467.628	12045.47
467.833	12573.85
468.038	11969.69
468.244	11926.69
468.449	12323.99
468.654	11887.78
468.859	11580.58
469.064	11580.58
469.269	11046.06
469.474	11181.23
469.679	11484.33
469.885	11261.1
470.09	11306.15
470.295	11087.02
470.5	10974.38
470.705	10978.48
470.91	10507.44
471.115	10679.47
471.32	10925.23
471.525	10788.02
471.73	10587.32
471.935	10562.74
472.139	10245.31
472.344	10273.98
472.549	10003.64
472.754	10259.64
472.959	9827.52
473.164	9624.77
473.369	9600.19
473.574	9983.17
473.778	9774.27
473.983	9624.77
474.188	9471.17
474.393	8981.71
474.598	9438.41
474.802	9016.52
475.007	8948.94
475.212	9182.41
475.417	8918.22
475.621	8754.38
475.826	8834.25
476.031	8615.12
476.235	8416.47
476.44	8443.09
476.645	8416.47
476.849	8459.48
477.054	8293.59
477.259	8201.43
477.463	8422.61
477.668	7894.24
477.872	8211.67
478.077	8021.21
478.282	7746.78
478.486	7810.27
478.691	7638.24
478.895	7595.23
479.1	7716.06
479.304	7521.51
479.509	7392.48
479.713	7519.46
479.918	7519.46
480.122	7224.55
480.326	7374.05
480.531	7433.44
480.735	7316.71
480.94	7257.32
481.144	7345.38
481.348	7054.57
481.553	7152.87
481.757	6855.92
481.961	7179.5
482.166	7163.11
482.37	7187.69
482.574	6952.17
482.778	6956.27
482.983	7083.24
483.187	6958.32
483.391	7105.77
483.595	7003.37
483.8	6929.64
484.004	7136.49
484.208	7134.44
484.412	7134.44
484.616	7118.06
484.821	7085.29
485.025	7009.51
485.229	7134.44
485.433	6968.55
485.637	6946.03
485.841	6952.17
486.045	6986.99
486.249	7029.99
486.453	7034.09
486.657	6857.96
486.861	7113.96
487.065	6894.83
487.269	7036.14
487.473	6851.82
487.677	7144.68
487.881	7066.86
488.085	6884.59
488.289	7167.21
488.493	7003.37
488.697	7023.85
488.901	7159.02
489.105	7011.56
489.309	7138.54
489.512	6964.46
489.716	7232.74
489.92	7029.99
490.124	6941.93
490.328	7267.56
490.531	7105.77
490.735	7154.92
490.939	7230.69
491.143	7183.59
491.346	7236.84
491.55	7236.84
491.754	7392.48
491.958	7283.94
492.161	7441.64
492.365	7294.18
492.569	7314.66
492.772	7453.92
492.976	7529.7
493.18	7462.12
493.383	7443.68
493.587	7476.45
493.79	7771.36
493.994	7523.55
494.197	7652.58
494.401	7695.58
494.605	7867.61
494.808	8031.45
495.012	7886.04
495.215	7892.19
495.419	7992.54
495.622	8008.92
495.825	8156.38
496.029	8162.52
496.232	8279.26
496.436	8350.93
496.639	8383.7
496.843	8553.68
497.046	8330.45
497.249	8582.35
497.453	8649.94
497.656	8877.26
497.859	8867.02
498.063	8787.15
498.266	9223.37
498.469	8996.04
498.673	9243.85
498.876	9233.61
499.079	9313.48
499.282	9364.68
499.485	9755.84
499.689	9520.32
499.892	9899.2
500.095	9827.52
500.298	9872.57
500.501	10091.71
500.705	10042.56
500.908	10400.95
501.111	10321.08
501.314	10450.1
501.517	10503.35
501.72	10757.3
501.923	10775.73
502.126	10998.96
502.329	11074.73
502.532	11062.44
502.735	11515.05
502.938	11553.96
503.141	11420.84
503.344	11705.51
503.547	11707.55
503.75	12008.61
503.953	12178.59
504.156	12012.7
504.359	12111
504.562	12276.89
504.765	12610.71
504.968	12709.01
505.17	12731.54
505.373	12813.46
505.576	12909.71
505.779	13268.11
505.982	13163.66
506.185	13474.95
506.387	13589.64
506.59	13739.14
506.793	13923.46
506.996	13767.81
507.198	14079.1
507.401	14163.07
507.604	14396.54
507.807	14578.81
508.009	14683.25
508.212	14920.82
508.415	15037.55
508.617	14947.44
508.82	15166.57
509.022	15207.53
509.225	15336.56
509.428	15688.81
509.63	15789.16
509.833	15828.07
510.035	16065.63
510.238	16034.91
510.44	16401.5
510.643	16538.71
510.845	16739.41
511.048	16411.74
511.25	16788.57
511.453	16962.64
511.655	17505.35
511.858	17388.62
512.06	17294.41
512.262	17654.86
512.465	17288.27
512.667	17882.18
512.87	17949.76
513.072	18181.18
513.274	18515
513.477	18613.31
513.679	18877.49
513.881	18971.7
514.084	19115.06
514.286	19098.67
514.488	19137.59
514.69	19549.23
514.893	19725.35
515.095	19758.12
515.297	19997.73
515.499	19917.86
515.701	20718.62
515.904	20530.2
516.106	20794.39
516.308	20730.9
516.51	21079.06
516.712	21109.78
516.914	20898.84
517.116	21478.41
517.318	21685.26
517.52	21640.2
517.722	21961.73
517.925	22471.68
518.127	22481.92
518.329	22715.39
518.531	22295.55
518.733	22719.48
518.935	22918.14
519.136	22891.51
519.338	23329.78
519.54	23589.87
519.742	23759.85
519.944	23747.56
520.146	24251.36
520.348	24173.54
520.55	24294.37
520.752	24271.84
520.954	24695.77
521.155	24658.91
521.357	25019.35
521.559	25539.54
521.761	25650.13
521.963	25211.86
522.164	25488.34
522.366	25836.49
522.568	25856.97
522.77	25998.28
522.971	26383.3
523.173	26495.94
523.375	26811.32
523.576	26411.97
523.778	26450.88
523.98	26745.79
524.181	27095.99
524.383	26753.98
524.584	27284.4
524.786	27644.85
524.988	27358.13
525.189	27732.91
525.391	27878.32
525.592	28005.29
525.794	27972.52
525.995	28138.41
526.197	28124.07
526.398	28613.54
526.6	28484.51
526.801	28588.96
527.003	28646.3
527.204	28937.12
527.406	28918.68
527.607	28787.61
527.808	29113.24
528.01	28908.44
528.211	29006.75
528.412	29301.65
528.614	29354.9
528.815	29471.64
529.016	29760.4
529.218	29232.02
529.419	29643.67
529.62	29754.26
529.822	29680.53
530.023	29848.46
530.224	29723.54
530.425	29696.91
530.626	29477.78
530.828	29526.93
531.029	30425.99
531.23	29686.67
531.431	29758.35
531.632	29809.55
531.833	30534.53
532.035	30145.42
532.236	30153.61
532.437	30251.91
532.638	30493.57
532.839	30419.85
533.04	30315.4
533.241	29883.28
533.442	30624.64
533.643	30393.22
533.844	30415.75
534.045	30319.49
534.246	29815.69
534.447	30706.56
534.648	30258.06
534.849	30294.92
535.05	30602.11
535.251	30806.91
535.451	30440.32
535.652	30581.63
535.853	30432.13
536.054	30469
536.255	30864.25
536.456	30495.62
536.657	30733.18
536.857	30262.15
537.058	29938.57
537.259	30825.34
537.46	30765.95
537.66	30487.43
537.861	30706.56
538.062	30376.84
538.263	30530.44
538.463	30512
538.664	30172.04
538.865	30634.88
539.065	30669.7
539.266	30079.88
539.466	30548.87
539.667	30344.07
539.868	30577.54
540.068	30380.93
540.269	30501.76
540.469	30708.61
540.67	30153.61
540.87	30419.85
541.071	30227.34
541.271	30520.2
541.472	30544.77
541.672	30006.16
541.873	30217.1
542.073	29662.1
542.274	30784.38
542.474	30354.31
542.675	29936.52
542.875	30819.2
543.075	30565.25
543.276	29698.96
543.476	30505.86
543.676	30161.8
543.877	30503.81
544.077	30235.53
544.277	30188.42
544.478	29959.05
544.678	30163.85
544.878	30008.2
545.078	30313.35
545.279	29938.57
545.479	30243.72
545.679	30395.27
545.879	30260.1
546.079	30323.59
546.28	30161.8
546.48	30239.62
546.68	30389.13
546.88	30157.71
547.08	30430.08
547.28	30151.56
547.48	29766.54
547.68	30137.23
547.88	29838.22
548.081	30165.9
548.281	30102.41
548.481	30296.97
548.681	30198.66
548.881	29748.11
549.081	29995.92
549.28	30143.37
549.48	30094.22
549.68	30104.46
549.88	30606.21
550.08	29725.58
550.28	30188.42
550.48	29733.78
550.68	30385.03
550.88	29807.5
551.08	29875.09
551.279	30206.86
551.479	29805.45
551.679	30043.02
551.879	29891.47
552.079	30548.87
552.278	29739.92
552.478	29930.38
552.678	29997.96
552.878	29848.46
553.077	29567.89
553.277	29643.67
553.477	29883.28
553.676	29713.3
553.876	29778.83
554.076	29604.75
554.275	29516.69
554.475	29315.99
554.674	29492.12
554.874	29741.97
555.074	29608.85
555.273	29995.92
555.473	29229.98
555.672	29336.47
555.872	29447.06
556.071	29655.95
556.271	29522.83
556.47	29313.94
556.67	29279.13
556.869	29258.65
557.068	29391.76
557.268	29096.86
557.467	29336.47
557.667	29475.73
557.866	29490.07
558.065	29045.66
558.265	28738.46
558.464	29217.69
558.663	29207.45
558.863	29019.03
559.062	29479.83
559.261	28941.21
559.461	29100.95
559.66	28459.94
559.859	29189.02
560.058	28672.93
560.258	29072.28
560.457	28418.98
560.656	28799.9
560.855	28597.15
561.054	28779.42
561.253	28359.59
561.453	28652.45
561.652	28656.54
561.851	28750.75
562.05	28541.86
562.249	28054.44
562.448	28808.09
562.647	28695.46
562.846	28259.24
563.045	28470.18
563.244	28369.83
563.443	28091.3
563.642	27509.68
563.841	28308.39
564.04	27982.76
564.239	27841.45
564.438	27745.2
564.637	28003.24
564.836	27804.59
565.035	27448.24
565.234	27765.68
565.432	27376.56
565.631	27540.4
565.83	27417.52
566.029	27450.29
566.228	26864.57
566.427	27220.92
566.625	27243.45
566.824	26698.69
567.023	27399.09
567.222	26891.19
567.42	27173.81
567.619	27059.13
567.818	27020.22
568.016	26954.68
568.215	27167.67
568.414	26563.52
568.612	27108.28
568.811	26610.62
569.01	26706.88
569.208	26690.49
569.407	26600.38
569.605	26471.36
569.804	26471.36
570.002	26217.41
570.201	26385.35
570.4	26674.11
570.598	26225.61
570.797	26045.38
570.995	26481.6
571.193	25801.68
571.392	26420.16
571.59	25859.02
571.789	25893.83
571.987	25732.04
572.186	25693.13
572.384	25689.04
572.582	25643.98
572.781	25756.62
572.979	25666.51
573.177	25490.38
573.376	25652.17
573.574	25478.1
573.772	25535.44
573.971	25308.12
574.169	25236.44
574.367	24841.18
574.565	25318.35
574.763	24890.33
574.962	24941.53
575.16	24648.67
575.358	24802.27
575.556	24765.4
575.754	24957.91
575.952	24785.88
576.151	24966.1
576.349	24482.78
576.547	24560.61
576.745	24749.02
576.943	24660.96
577.141	24159.2
577.339	24693.72
577.537	24122.34
577.735	24241.12
577.933	24054.76
578.131	24054.76
578.329	23970.79
578.527	24101.86
578.725	23827.43
578.923	23911.4
579.121	24110.05
579.319	23882.73
579.516	24032.23
579.714	23774.19
579.912	23510
580.11	23976.94
580.308	23757.8
580.506	23585.77
580.704	23385.07
580.901	23550.96
581.099	23628.78
581.297	23274.48
581.495	23202.8
581.692	23229.43
581.89	23251.95
582.088	22991.86
582.285	22971.38
582.483	23000.05
582.681	23116.79
582.878	22901.75
583.076	22656
583.274	22821.88
583.471	22615.04
583.669	22518.78
583.866	22809.59
584.064	22424.58
584.262	22252.55
584.459	22567.93
584.657	22561.79
584.854	22699
585.052	21996.55
585.249	22146.05
585.447	22109.19
585.644	21928.97
585.841	22033.41
586.039	22137.86
586.236	21502.99
586.434	21756.94
586.631	21816.33
586.828	21793.8
587.026	21781.51
587.223	21683.21
587.42	21586.96
587.618	21462.03
587.815	21167.12
588.012	20939.8
588.21	21210.13
588.407	21421.07
588.604	20909.08
588.801	21093.4
588.999	20900.89
589.196	20995.09
589.393	21093.4
589.59	21040.15
589.787	20902.93
589.984	20816.92
590.182	20542.49
590.379	20698.14
590.576	20675.61
590.773	20831.26
590.97	20702.23
591.167	20347.93
591.364	20239.39
591.561	20513.82
591.758	20069.41
591.955	20294.69
592.152	20503.58
592.349	19854.37
592.546	20061.22
592.743	20153.38
592.94	19760.17
593.137	19797.03
593.334	19874.85
593.531	19700.78
593.727	19995.68
593.924	19756.07
594.121	19362.86
594.318	19747.88
594.515	19508.27
594.712	19586.09
594.908	19369.01
595.105	19512.36
595.302	19237.94
595.499	19237.94
595.696	19123.25
595.892	18910.26
596.089	19287.09
596.286	19285.04
596.482	18914.36
596.679	19121.2
596.876	18859.06
597.072	18992.18
597.269	18754.62
597.466	18617.4
597.662	18459.71
597.859	18586.68
598.055	18418.75
598.252	18213.95
598.448	18410.56
598.645	18549.82
598.841	18220.1
599.038	18299.97
599.234	18254.91
599.431	18205.76
599.627	17953.86
599.824	18142.27
600.02	17892.42
600.217	18013.25
600.413	17978.44
600.609	17751.11
600.806	17609.8
601.002	17962.05
601.198	17503.31
601.395	17898.56
601.591	17417.29
601.787	17523.79
601.984	17568.84
602.18	17523.79
602.376	17224.78
602.572	17538.12
602.769	17517.64
602.965	17179.73
603.161	17325.13
603.357	16839.76
603.553	17060.94
603.75	17163.34
603.946	17118.29
604.142	16913.49
604.338	16641.11
604.534	16925.78
604.73	16661.59
604.926	16634.97
605.122	16598.1
605.318	16561.24
605.514	16432.22
605.71	16653.4
605.906	16505.95
606.102	16442.46
606.298	16403.55
606.494	16389.21
606.69	16520.28
606.886	16489.56
607.082	16190.56
607.278	16368.73
607.474	16016.48
607.67	16376.92
607.866	15971.43
608.062	16407.64
608.257	15959.14
608.453	16026.72
608.649	16082.02
608.845	15848.55
609.041	15979.62
609.236	15799.4
609.432	15948.9
609.628	15787.11
609.824	15850.6
610.019	15621.22
610.215	15543.4
610.411	15686.76
610.606	15524.97
610.802	15653.99
610.998	15535.21
611.193	15426.67
611.389	15602.79
611.584	15584.36
611.78	15350.89
611.976	15488.1
612.171	15445.1
612.367	15287.4
612.562	15117.42
612.758	15211.63
612.953	15164.53
613.149	15092.85
613.344	15002.74
613.539	15252.59
613.735	15289.45
613.93	15303.79
614.126	14992.5
614.321	15529.06
614.517	15082.61
614.712	15092.85
614.907	15043.7
615.103	15158.38
615.298	15176.81
615.493	14961.78
615.688	14898.29
615.884	14926.96
616.079	14642.29
616.274	14965.87
616.47	14904.43
616.665	14830.71
616.86	14587
617.055	14568.57
617.25	14697.59
617.445	14865.52
617.641	14414.97
617.836	14744.69
618.031	14408.83
618.226	14283.9
618.421	14386.3
618.616	14613.62
618.811	14462.07
619.006	14371.96
619.201	14146.69
619.396	14417.02
619.591	13905.03
619.786	14034.05
619.981	13853.83
620.176	14011.52
620.371	13776
620.566	13909.12
620.761	13941.89
620.956	13859.97
621.151	13657.22
621.346	13618.31
621.541	13626.5
621.735	13851.78
621.93	13524.1
622.125	13382.79
622.32	13137.04
622.515	13253.77
622.709	13137.04
622.904	13282.44
623.099	12926.1
623.294	13210.76
623.488	12876.94
623.683	13239.44
623.878	12801.17
624.072	12704.92
624.267	12702.87
624.462	12729.49
624.656	12598.42
624.851	12422.3
625.046	12446.87
625.24	12360.86
625.435	12166.3
625.629	12326.04
625.824	11926.69
626.018	12291.23
626.213	12057.76
626.407	11883.68
626.602	11783.33
626.796	12031.13
626.991	11719.84
627.185	11789.47
627.38	11668.64
627.574	11594.92
627.768	11594.92
627.963	11472.04
628.157	11246.76
628.352	11238.57
628.546	11220.14
628.74	11412.65
628.935	11087.02
629.129	11322.54
629.323	10906.8
629.517	10898.61
629.712	10808.5
629.906	11060.4
630.1	10708.15
630.294	10869.94
630.489	10591.41
630.683	10761.39
630.877	10820.78
631.071	10382.52
631.265	10671.28
631.459	10480.82
631.653	10464.44
631.848	10056.89
632.042	10120.38
632.236	10269.88
632.43	10226.87
632.624	10075.32
632.818	10140.86
633.012	9860.29
633.206	9917.63
633.4	10042.56
633.594	9661.63
633.788	9710.79
633.982	9725.12
634.176	9725.12
634.369	9608.39
634.563	9661.63
634.757	9467.08
634.951	9620.67
635.145	9520.32
635.339	9397.45
635.533	9405.64
635.726	9391.3
635.92	9405.64
636.114	9170.12
636.308	9368.77
636.501	9348.29
636.695	9174.22
636.889	8887.5
637.083	8842.45
637.276	9004.24
637.47	8797.39
637.664	8670.42
637.857	8979.66
638.051	8867.02
638.244	8709.33
638.438	8555.73
638.632	8545.49
638.825	8504.53
639.019	8584.4
639.212	8420.56
639.406	8475.86
639.599	8451.28
639.793	8301.78
639.986	8361.17
640.18	8355.03
640.373	8285.4
640.567	8158.42
640.76	8303.83
640.954	8039.64
641.147	8152.28
641.34	8195.29
641.534	7963.87
641.727	7982.3
641.92	7830.75
642.114	7865.57
642.307	7998.68
642.5	7828.7
642.694	7775.45
642.887	7636.19
643.08	7787.74
643.273	7548.13
643.467	7742.69
643.66	7458.02
643.853	7564.51
644.046	7578.85
644.239	7507.17
644.432	7349.48
644.626	7447.78
644.819	7369.96
645.012	7455.97
645.205	7439.59
645.398	7339.24
645.591	7202.02
645.784	6991.08
645.977	7044.33
646.17	7066.86
646.363	7038.19
646.556	6884.59
646.749	6968.55
646.942	7081.19
647.135	6860.01
647.328	6730.99
647.521	6925.55
647.714	6741.23
647.907	6943.98
648.099	6673.65
648.292	6751.47
648.485	6687.98
648.678	6694.13
648.871	6528.24
649.064	6608.11
649.256	6640.88
649.449	6540.53
649.642	6522.1
649.835	6419.7
650.027	6264.05
650.22	6388.98
650.413	6309.11
650.605	6370.55
650.798	6153.46
650.991	6212.85
651.183	6257.91
651.376	6102.26
651.568	6128.89
651.761	6206.71
651.954	6102.26
652.146	6223.09
652.339	6124.79
652.531	5952.76
652.724	5967.1
652.916	5885.18
653.109	5850.36
653.301	5987.58
653.494	5893.37
653.686	5688.57
653.879	5872.89
654.071	5752.06
654.263	5612.8
654.456	5592.32
654.648	5780.73
654.84	5606.66
655.033	5594.37
655.225	5557.5
655.417	5526.78
655.61	5516.55
655.802	5422.34
655.994	5381.38
656.186	5541.12
656.379	5334.28
656.571	5577.98
656.763	5233.93
656.955	5367.04
657.148	5352.71
657.34	5313.8
657.532	5283.08
657.724	5248.26
657.916	5217.54
658.108	5305.6
658.3	4957.45
658.492	5102.86
658.684	5090.57
658.876	5115.14
659.068	4867.34
659.26	5143.81
659.452	5027.08
659.644	5070.09
659.836	4840.72
660.028	5014.79
660.22	5029.13
660.412	4812.04
660.604	4963.59
660.796	4918.54
660.988	4883.72
661.18	4848.91
661.372	4818.19
661.563	4793.61
661.755	4713.74
661.947	4680.97
662.139	4586.77
662.331	4822.28
662.522	4642.06
662.714	4554
662.906	4607.25
663.097	4668.69
663.289	4562.19
663.481	4484.37
663.673	4549.9
663.864	4517.14
664.056	4402.45
664.247	4484.37
664.439	4418.83
664.631	4406.55
664.822	4529.42
665.014	4488.46
665.205	4343.06
665.397	4349.2
665.588	4427.03
665.78	4191.51
665.971	4162.84
666.163	4228.37
666.354	4255
666.546	4121.88
666.737	4211.99
666.929	4132.12
667.12	4238.61
667.311	4181.27
667.503	4048.15
667.694	4093.21
667.885	3951.9
668.077	4195.61
668.268	3980.57
668.459	3980.57
668.651	4076.82
668.842	4070.68
669.033	3933.47
669.224	3788.06
669.416	3968.28
669.607	3824.92
669.798	4001.05
669.989	3955.99
670.18	3890.46
670.371	3982.62
670.563	3749.15
670.754	3869.98
670.945	3706.14
671.136	3712.28
671.327	3898.65
671.518	3706.14
671.709	3900.7
671.9	3884.31
672.091	3861.79
672.282	3722.52
672.473	3714.33
672.664	3769.63
672.855	3544.35
673.046	3806.49
673.237	3722.52
673.428	3783.96
673.619	3564.83
673.809	3583.26
674	3540.26
674.191	3560.73
674.382	3474.72
674.573	3470.62
674.764	3497.25
674.954	3560.73
675.145	3550.5
675.336	3497.25
675.527	3577.12
675.717	3480.86
675.908	3519.78
676.099	3550.5
676.289	3509.54
676.48	3448.1
676.671	3478.82
676.861	3429.66
677.052	3333.41
677.243	3355.94
677.433	3558.69
677.624	3339.55
677.814	3437.86
678.005	3507.49
678.195	3460.38
678.386	3353.89
678.576	3355.94
678.767	3312.93
678.957	3433.76
679.148	3345.7
679.338	3351.84
679.529	3235.11
679.719	3247.4
679.909	3296.55
680.1	3325.22
680.29	3239.2
680.481	3427.62
680.671	3314.98
680.861	3357.99
681.052	3228.96
681.242	3276.07
681.432	3351.84
681.622	3319.07
681.813	3306.79
682.003	3276.07
682.193	3247.4
682.383	3282.21
682.573	3319.07
682.764	3222.82
682.954	3288.36
683.144	3239.2
683.334	3220.77
683.524	3302.69
683.714	3278.12
683.904	3329.31
684.094	3302.69
684.284	3253.54
684.474	3190.05
684.664	3233.06
684.854	3312.93
685.044	3138.85
685.234	3106.09
685.424	3198.24
685.614	3218.72
685.804	3122.47
685.994	3130.66
686.184	3196.2
686.374	3097.89
686.564	3032.36
686.753	3077.41
686.943	2991.4
687.133	2913.58
687.323	2962.73
687.513	3104.04
687.702	2981.16
687.892	2927.91
688.082	2927.91
688.272	2954.54
688.461	2999.59
688.651	2884.91
688.841	2870.57
689.03	2825.51
689.22	2798.89
689.41	2872.62
689.599	2768.17
689.789	2817.32
689.979	2852.14
690.168	2802.99
690.358	2749.74
690.547	2794.79
690.737	2729.26
690.926	2759.98
691.116	2671.92
691.305	2755.88
691.495	2690.35
691.684	2512.17
691.874	2690.35
692.063	2645.29
692.252	2657.58
692.442	2594.09
692.631	2614.57
692.82	2561.33
693.01	2432.3
693.199	2561.33
693.388	2475.31
693.578	2436.4
693.767	2542.89
693.956	2356.53
694.146	2485.55
694.335	2514.22
694.524	2422.06
694.713	2469.17
694.902	2432.3
695.092	2346.29
695.281	2377.01
695.47	2327.86
695.659	2383.15
695.848	2329.91
696.037	2274.61
696.226	2301.23
696.415	2290.99
696.604	2411.82
696.793	2256.18
696.982	2260.27
697.171	2385.2
697.36	2272.56
697.549	2311.47
697.738	2284.85
697.927	2139.44
698.116	2166.07
698.305	2233.65
698.494	2215.22
698.683	2225.46
698.872	2358.58
699.061	2317.62
699.25	2137.4
699.438	2116.92
699.627	2290.99
699.816	2172.21
700.005	2161.97
700.193	2290.99
700.382	2149.68
700.571	2194.74
700.76	2229.56
700.948	2272.56
701.137	2073.91
701.326	2149.68
701.514	2235.7
701.703	2211.12
701.892	2157.88
702.08	2094.39
702.269	2057.53
702.457	2094.39
702.646	2135.35
702.834	2008.37
703.023	2039.09
703.212	2104.63
703.4	2075.96
703.589	2168.12
703.777	2155.83
703.965	2123.06
704.154	2080.05
704.342	2123.06
704.531	2190.64
704.719	2147.64
704.907	2108.73
705.096	2051.38
705.284	2166.07
705.472	2086.2
705.661	2096.44
705.849	2129.2
706.037	2141.49
706.226	2108.73
706.414	2207.03
706.602	2065.72
706.79	2055.48
706.979	2090.29
707.167	2256.18
707.355	2063.67
707.543	2110.77
707.731	2123.06
707.919	2082.1
708.107	2127.16
708.296	2088.25
708.484	2125.11
708.672	2174.26
708.86	2161.97
709.048	2063.67
709.236	2114.87
709.424	2145.59
709.612	2067.77
709.8	2108.73
709.988	2106.68
710.176	2250.03
710.364	2080.05
710.551	2059.57
710.739	1991.99
710.927	2123.06
711.115	2049.33
711.303	2190.64
711.491	2182.45
711.679	2112.82
711.866	2161.97
712.054	2170.16
712.242	2035
712.43	2204.98
712.617	2112.82
712.805	2123.06
712.993	2141.49
713.181	2182.45
713.368	2178.36
713.556	2276.66
713.744	2151.73
713.931	2200.88
714.119	2129.2
714.306	2223.41
714.494	2305.33
714.682	2174.26
714.869	2204.98
715.057	2176.31
715.244	2088.25
715.432	2139.44
715.619	2182.45
715.807	2157.88
715.994	2182.45
716.182	2190.64
716.369	2254.13
716.556	2303.28
716.744	2174.26
716.931	2213.17
717.119	2346.29
717.306	2354.48
717.493	2313.52
717.681	2213.17
717.868	2211.12
718.055	2278.71
718.242	2264.37
718.43	2334
718.617	2317.62
718.804	2219.32
718.991	2194.74
719.179	2184.5
719.366	2395.44
719.553	2379.06
719.74	2243.89
719.927	2319.67
720.114	2342.19
720.301	2342.19
720.488	2110.77
720.676	2256.18
720.863	2174.26
721.05	2334
721.237	2336.05
721.424	2383.15
721.611	2282.8
721.798	2362.67
721.985	2266.42
722.172	2188.6
722.358	2352.43
722.545	2192.69
722.732	2354.48
722.919	2282.8
723.106	2368.82
723.293	2313.52
723.48	2362.67
723.667	2237.75
723.853	2407.73
724.04	2424.11
724.227	2311.47
724.414	2485.55
724.6	2465.07
724.787	2465.07
724.974	2473.26
725.161	2321.71
725.347	2334
725.534	2383.15
725.72	2477.36
725.907	2383.15
726.094	2379.06
726.28	2352.43
726.467	2413.87
726.653	2493.74
726.84	2387.25
727.027	2325.81
727.213	2334
727.4	2463.02
727.586	2395.44
727.773	2510.13
727.959	2415.92
728.145	2360.63
728.332	2323.76
728.518	2475.31
728.705	2471.22
728.891	2420.02
729.077	2477.36
729.264	2360.63
729.45	2393.39
729.636	2499.89
729.823	2534.7
730.009	2518.32
730.195	2497.84
730.382	2448.69
730.568	2557.23
730.754	2487.6
730.94	2403.63
731.126	2540.85
731.313	2518.32
731.499	2561.33
731.685	2491.7
731.871	2430.26
732.057	2571.57
732.243	2628.91
732.429	2526.51
732.615	2434.35
732.801	2467.12
732.987	2444.59
733.173	2448.69
733.359	2520.37
733.545	2497.84
733.731	2534.7
733.917	2438.45
734.103	2477.36
734.289	2565.42
734.475	2438.45
734.661	2553.13
734.847	2575.66
735.033	2571.57
735.219	2491.7
735.404	2483.5
735.59	2477.36
735.776	2444.59
735.962	2432.3
736.148	2426.16
736.333	2424.11
736.519	2473.26
736.705	2448.69
736.89	2434.35
737.076	2448.69
737.262	2469.17
737.447	2518.32
737.633	2444.59
737.819	2436.4
738.004	2370.87
738.19	2424.11
738.375	2442.54
738.561	2440.5
738.747	2516.27
738.932	2319.67
739.118	2557.23
739.303	2360.63
739.489	2415.92
739.674	2456.88
739.859	2377.01
740.045	2387.25
740.23	2397.49
740.416	2420.02
740.601	2309.43
740.786	2417.97
740.972	2358.58
741.157	2284.85
741.342	2293.04
741.528	2334
741.713	2311.47
741.898	2254.13
742.084	2352.43
742.269	2204.98
742.454	2352.43
742.639	2411.82
742.824	2247.99
743.01	2258.23
743.195	2286.9
743.38	2219.32
743.565	2250.03
743.75	2348.34
743.935	2258.23
744.12	2288.95
744.305	2264.37
744.49	2127.16
744.675	2180.4
744.86	2196.79
745.045	2215.22
745.23	2280.75
745.415	2250.03
745.6	2141.49
745.785	2155.83
745.97	2190.64
746.155	2182.45
746.34	2100.53
746.525	2073.91
746.71	2123.06
746.895	2045.24
747.079	2045.24
747.264	2016.57
747.449	2067.77
747.634	2063.67
747.819	2151.73
748.003	1979.7
748.188	1930.55
748.373	1955.13
748.557	2100.53
748.742	1934.65
748.927	2069.81
749.111	1983.8
749.296	1873.21
749.481	1908.02
749.665	2020.66
749.85	1840.44
750.034	1865.02
750.219	1940.79
750.404	1871.16
750.588	1879.35
750.773	1758.52
750.957	1922.36
751.141	1883.45
751.326	1768.76
751.51	1877.3
751.695	1789.24
751.879	1860.92
752.064	1819.96
752.248	1883.45
752.432	1840.44
752.617	1733.95
752.801	1727.8
752.985	1758.52
753.17	1666.36
753.354	1692.99
753.538	1705.28
753.722	1611.07
753.907	1688.89
754.091	1572.16
754.275	1594.68
754.459	1625.4
754.643	1590.59
754.828	1508.67
755.012	1574.21
755.196	1549.63
755.38	1613.12
755.564	1506.62
755.748	1527.1
755.932	1459.52
756.116	1594.68
756.3	1457.47
756.484	1545.53
756.668	1486.14
756.852	1424.7
757.036	1533.25
757.22	1512.77
757.404	1353.02
757.588	1387.84
757.772	1342.78
757.956	1385.79
758.14	1396.03
758.323	1449.28
758.507	1365.31
758.691	1436.99
758.875	1305.92
759.059	1310.02
759.242	1375.55
759.426	1260.87
759.61	1361.22
759.794	1369.41
759.977	1213.76
760.161	1342.78
760.345	1264.96
760.528	1297.73
760.712	1215.81
760.895	1238.34
761.079	1178.95
761.263	1299.78
761.446	1256.77
761.63	1170.76
761.813	1217.86
761.997	1158.47
762.18	1176.9
762.364	1271.11
762.547	1109.32
762.731	1226.05
762.914	1105.22
763.098	1178.95
763.281	1232.19
763.464	1129.8
763.648	1187.14
763.831	1219.91
764.015	1076.55
764.198	1244.48
764.381	1176.9
764.564	1166.66
764.748	1068.36
764.931	1137.99
765.114	1092.93
765.297	1111.36
765.481	1088.84
765.664	1129.8
765.847	1113.41
766.03	1142.08
766.213	1154.37
766.397	1068.36
766.58	1051.97
766.763	1105.22
766.946	1049.93
767.129	1076.55
767.312	1006.92
767.495	1070.4
767.678	998.73
767.861	1047.88
768.044	1068.36
768.227	1080.64
768.41	1084.74
768.593	994.63
768.776	933.19
768.959	902.47
769.142	1019.21
769.324	943.43
769.507	1025.35
769.69	894.28
769.873	992.58
770.056	927.05
770.239	961.86
770.421	1015.11
770.604	963.91
770.787	857.42
770.97	988.49
771.152	1004.87
771.335	834.89
771.518	935.24
771.7	929.1
771.883	1021.25
772.066	998.73
772.248	953.67
772.431	853.32
772.613	896.33
772.796	920.9
772.978	888.14
773.161	853.32
773.343	853.32
773.526	879.94
773.708	984.39
773.891	904.52
774.073	838.98
774.256	902.47
774.438	795.98
774.621	781.64
774.803	875.85
774.985	834.89
775.168	785.74
775.35	859.46
775.532	771.4
775.715	818.5
775.897	836.94
776.079	808.26
776.261	822.6
776.444	806.22
776.626	750.92
776.808	798.03
776.99	714.06
777.173	736.59
777.355	765.26
777.537	826.7
777.719	771.4
777.901	722.25
778.083	781.64
778.265	685.39
778.447	730.44
778.629	669
778.811	666.96
778.993	683.34
779.175	722.25
779.357	658.76
779.539	669
779.721	707.91
779.903	728.39
780.085	642.38
780.267	648.52
780.449	712.01
780.631	626
780.812	699.72
780.994	587.08
781.176	685.39
781.358	650.57
781.54	656.72
781.721	593.23
781.903	628.04
782.085	644.43
782.267	652.62
782.448	601.42
782.63	568.65
782.812	603.47
782.993	552.27
783.175	605.52
783.357	542.03
783.538	496.97
783.72	470.35
783.901	591.18
784.083	556.36
784.264	542.03
784.446	433.49
784.627	406.86
784.809	531.79
784.99	531.79
785.172	527.69
785.353	537.93
785.535	482.64
785.716	564.56
785.897	453.97
786.079	494.93
786.26	398.67
786.441	453.97
786.623	527.69
786.804	642.38
786.985	499.02
787.167	456.01
787.348	503.12
787.529	496.97
787.71	466.25
787.891	478.54
788.073	503.12
788.254	464.21
788.435	441.68
788.616	394.58
788.797	458.06
788.978	382.29
789.159	367.95
789.34	445.77
789.522	335.18
789.703	437.58
789.884	423.25
790.065	449.87
790.246	435.53
790.427	458.06
790.607	413.01
790.788	396.62
790.969	318.8
791.15	339.28
791.331	351.57
791.512	331.09
791.693	351.57
791.874	337.23
792.054	398.67
792.235	363.86
792.416	320.85
792.597	380.24
792.778	386.38
792.958	298.32
793.139	394.58
793.32	425.29
793.5	318.8
793.681	353.62
793.862	281.94
794.042	296.27
794.223	329.04
794.404	339.28
794.584	343.38
794.765	380.24
794.945	314.7
795.126	322.9
795.306	361.81
795.487	263.51
795.667	363.86
795.848	392.53
796.028	349.52
796.209	384.34
796.389	277.84
796.57	361.81
796.75	234.83
796.93	419.15
797.111	206.16
797.291	322.9
797.471	320.85
797.652	318.8
797.832	263.51
798.012	290.13
798.192	240.98
798.373	306.51
798.553	306.51
798.733	279.89
798.913	259.41
799.093	267.6
799.274	265.55
799.454	294.22
799.634	286.03
799.814	290.13
799.994	208.21
800.174	249.17
800.354	314.7
800.534	281.94
800.714	224.59
800.894	238.93
801.074	204.11
801.254	228.69
801.434	296.27
801.614	249.17
801.794	183.63
801.974	609.61
802.154	232.79
802.334	247.12
802.514	271.7
802.693	249.17
802.873	265.55
803.053	306.51
803.233	290.13
803.413	271.7
803.592	232.79
803.772	236.88
803.952	265.55
804.131	224.59
804.311	265.55
804.491	298.32
804.67	216.4
804.85	243.03
805.03	208.21
805.209	238.93
805.389	243.03
805.568	228.69
805.748	267.6
805.928	236.88
806.107	169.3
806.287	253.27
806.466	257.36
806.646	296.27
806.825	230.74
807.004	267.6
807.184	234.83
807.363	279.89
807.543	243.03
807.722	243.03
807.901	243.03
808.081	189.78
808.26	177.49
808.439	181.59
808.619	175.44
808.798	204.11
808.977	138.58
809.156	267.6
809.336	177.49
809.515	267.6
809.694	171.35
809.873	261.46
810.052	216.4
810.231	167.25
810.411	212.31
810.59	187.73
810.769	181.59
810.948	249.17
811.127	234.83
811.306	224.59
811.485	200.02
811.664	216.4
811.843	171.35
812.022	157.01
812.201	210.26
812.38	191.83
812.559	214.35
812.737	132.44
812.916	154.96
813.095	154.96
813.274	195.92
813.453	142.68
813.632	216.4
813.811	146.77
813.989	165.2
814.168	222.55
814.347	163.15
814.526	189.78
814.704	161.11
814.883	224.59
815.062	208.21
815.24	175.44
815.419	95.57
815.598	195.92
815.776	148.82
815.955	85.33
816.133	142.68
816.312	142.68
816.49	159.06
816.669	140.63
816.847	146.77
817.026	128.34
817.204	132.44
817.383	134.48
817.561	197.97
817.74	171.35
817.918	122.2
818.097	114
818.275	118.1
818.453	167.25
818.632	183.63
818.81	103.76
818.988	183.63
819.167	142.68
819.345	177.49
819.523	144.72
819.701	146.77
819.879	189.78
820.058	118.1
820.236	148.82
820.414	146.77
820.592	220.5
820.77	105.81
820.948	73.04
821.127	116.05
821.305	269.65
821.483	142.68
821.661	159.06
821.839	116.05
822.017	154.96
822.195	105.81
822.373	134.48
822.551	120.15
822.729	157.01
822.907	107.86
823.085	165.2
823.262	175.44
823.44	116.05
823.618	105.81
823.796	216.4
823.974	77.14
824.152	93.52
824.329	97.62
824.507	103.76
824.685	134.48
824.863	34.13
825.04	116.05
825.218	124.24
825.396	83.28
825.574	140.63
825.751	81.24
825.929	148.82
826.107	120.15
826.284	89.43
826.462	220.5
826.639	132.44
826.817	66.9
826.994	124.24
827.172	116.05
827.349	212.31
827.527	126.29
827.704	122.2
827.882	122.2
828.059	148.82
828.237	89.43
828.414	118.1
828.591	75.09
828.769	189.78
828.946	85.33
829.124	116.05
829.301	126.29
829.478	77.14
829.655	154.96
829.833	132.44
830.01	154.96
830.187	95.57
830.364	56.66
830.542	126.29
830.719	27.99
830.896	130.39
831.073	101.72
831.25	77.14
831.427	105.81
831.604	66.9
831.782	163.15
831.959	152.91
832.136	17.75
832.313	89.43
832.49	109.91
832.667	85.33
832.844	85.33
833.021	167.25
833.198	124.24
833.374	89.43
833.551	107.86
833.728	181.59
833.905	60.76
834.082	66.9
834.259	66.9
834.436	75.09
834.612	101.72
834.789	97.62
834.966	154.96
835.143	140.63
835.319	95.57
835.496	130.39
835.673	60.76
835.85	81.24
836.026	52.56
836.203	128.34
836.38	64.85
836.556	114
836.733	58.71
836.909	134.48
837.086	118.1
837.262	66.9
837.439	142.68
837.616	79.19
837.792	93.52
837.968	58.71
838.145	66.9
838.321	27.99
838.498	93.52
838.674	40.28
838.851	64.85
839.027	91.48
839.203	126.29
839.38	58.71
839.556	19.8
839.732	81.24
839.909	99.67
840.085	50.52
840.261	19.8
840.437	101.72
840.614	77.14
840.79	97.62
840.966	44.37
841.142	150.87
841.318	77.14
841.494	87.38
841.671	64.85
841.847	38.23
842.023	44.37
842.199	95.57
842.375	101.72
842.551	36.18
842.727	58.71
842.903	165.2
843.079	-29.35
843.255	95.57
843.431	89.43
843.607	81.24
843.783	1.37
843.959	77.14
844.134	64.85
844.31	66.9
844.486	122.2
844.662	99.67
844.838	23.89
845.013	21.84
845.189	132.44
845.365	99.67
845.541	46.42
845.716	75.09
845.892	93.52
846.068	114
846.244	11.61
846.419	66.9
846.595	81.24
846.77	81.24
846.946	124.24
847.122	66.9
847.297	40.28
847.473	107.86
847.648	56.66
847.824	126.29
847.999	17.75
848.175	64.85
848.35	107.86
848.526	73.04
848.701	32.08
848.876	154.96
849.052	85.33
849.227	60.76
849.403	1.37
849.578	3.41
849.753	62.8
849.929	77.14
850.104	30.04
850.279	64.85
850.454	114
850.63	81.24
850.805	75.09
850.98	144.72
851.155	60.76
851.33	3.41
851.505	42.32
851.681	38.23
851.856	85.33
852.031	19.8
852.206	38.23
852.381	68.95
852.556	56.66
852.731	101.72
852.906	64.85
853.081	9.56
853.256	93.52
853.431	-53.93
853.606	19.8
853.781	50.52
853.956	13.65
854.131	107.86
854.305	73.04
854.48	66.9
854.655	-12.97
854.83	75.09
855.005	19.8
855.18	7.51
855.354	34.13
855.529	13.65
855.704	27.99
855.879	79.19
856.053	44.37
856.228	89.43
856.403	-33.45
856.577	73.04
856.752	-12.97
856.926	32.08
857.101	36.18
857.276	3.41
857.45	13.65
857.625	56.66
857.799	15.7
857.974	93.52
858.148	-43.69
858.323	66.9
858.497	83.28
858.672	140.63
858.846	-2.73
859.02	21.84
859.195	-62.12
859.369	-0.68
859.543	3.41
859.718	-12.97
859.892	75.09
860.066	83.28
860.241	99.67
860.415	56.66
860.589	50.52
860.763	87.38
860.938	13.65
861.112	11.61
861.286	48.47
861.46	89.43
861.634	17.75
861.808	99.67
861.982	11.61
862.157	44.37
862.331	21.84
862.505	36.18
862.679	30.04
862.853	9.56
863.027	36.18
863.201	7.51
863.375	-12.97
863.549	17.75
863.722	68.95
863.896	62.8
864.07	-33.45
864.244	56.66
864.418	-25.26
864.592	15.7
864.766	-6.83
864.939	17.75
865.113	60.76
865.287	42.32
865.461	-4.78
865.634	36.18
865.808	91.48
865.982	73.04
866.156	-41.64
866.329	68.95
866.503	58.71
866.676	1.37
866.85	34.13
867.024	-31.4
867.197	36.18
867.371	9.56
867.544	36.18
867.718	9.56
867.891	46.42
868.065	56.66
868.238	107.86
868.412	15.7
868.585	-17.07
868.759	60.76
868.932	7.51
869.105	5.46
869.279	-31.4
869.452	48.47
869.625	54.61
869.799	-25.26
869.972	9.56
870.145	15.7
870.319	9.56
870.492	9.56
870.665	-25.26
870.838	81.24
871.011	54.61
871.185	19.8
871.358	34.13
871.531	23.89
871.704	-21.16
871.877	-15.02
872.05	36.18
872.223	48.47
872.396	68.95
872.569	-58.03
872.742	19.8
872.915	44.37
873.088	9.56
873.261	1.37
873.434	17.75
873.607	-21.16
873.78	34.13
873.953	42.32
874.126	32.08
874.299	1.37
874.471	68.95
874.644	-29.35
874.817	42.32
874.99	21.84
875.163	3.41
875.335	23.89
875.508	134.48
875.681	62.8
875.853	60.76
876.026	-4.78
876.199	60.76
876.371	17.75
876.544	77.14
876.717	-41.64
876.889	32.08
877.062	-19.11
877.234	7.51
877.407	-2.73
877.579	3.41
877.752	77.14
877.924	-35.5
878.097	21.84
878.269	77.14
878.442	83.28
878.614	17.75
878.786	-37.55
878.959	54.61
879.131	91.48
879.303	5.46
879.476	-25.26
879.648	19.8
879.82	25.94
879.993	-45.74
880.165	32.08
880.337	66.9
880.509	30.04
880.681	60.76
880.854	-12.97
881.026	-25.26
881.198	89.43
881.37	66.9
881.542	7.51
881.714	3.41
881.886	23.89
882.058	48.47
882.23	-15.02
882.402	64.85
882.574	34.13
882.746	-0.68
882.918	32.08
883.09	15.7
883.262	15.7
883.434	9.56
883.606	-10.92
883.778	-35.5
883.95	44.37
884.122	25.94
884.293	44.37
884.465	19.8
884.637	-23.21
884.809	36.18
884.98	-17.07
885.152	-19.11
885.324	75.09
885.496	-10.92
885.667	23.89
885.839	-37.55
886.011	62.8
886.182	75.09
886.354	52.56
886.525	46.42
886.697	38.23
886.869	-0.68
887.04	3.41
887.212	-21.16
887.383	23.89
887.555	19.8
887.726	56.66
887.897	-15.02
888.069	30.04
888.24	91.48
888.412	32.08
888.583	23.89
888.754	-21.16
888.926	-55.98
889.097	-0.68
889.268	-47.79
889.44	-39.59
889.611	-6.83
889.782	-47.79
889.953	17.75
890.125	75.09
890.296	11.61
890.467	-31.4
890.638	-0.68
890.809	23.89
890.98	-6.83
891.151	34.13
891.323	30.04
891.494	27.99
891.665	13.65
891.836	-8.87
892.007	-4.78
892.178	7.51
892.349	1.37
892.52	23.89
892.691	114
892.862	101.72
893.032	19.8
893.203	23.89
893.374	42.32
893.545	75.09
893.716	21.84
893.887	-74.41
894.057	3.41
894.228	3.41
894.399	3.41
894.57	101.72
894.74	42.32
894.911	-12.97
895.082	-23.21
895.253	5.46
895.423	-4.78
895.594	-10.92
895.764	48.47
895.935	9.56
896.106	-0.68
896.276	7.51
896.447	-15.02
896.617	50.52
896.788	52.56
896.958	15.7
897.129	-21.16
897.299	48.47
897.47	-19.11
897.64	44.37
897.81	-27.31
897.981	40.28
898.151	-35.5
898.322	91.48
898.492	62.8
898.662	23.89
898.832	-62.12
899.003	5.46
899.173	-17.07
899.343	-31.4
899.513	30.04
