Data from USB4F104151__25__12-17-02-194.txt Node

Date: Wed Feb 19 12:17:02 EST 2025
User: louis
Spectrometer: USB4F10415
Trigger mode: 4
Integration Time (sec): 2.250200E-1
Scans to average: 1
Electric dark correction enabled: true
Nonlinearity correction enabled: false
Boxcar width: 0
XAxis mode: Wavelengths
Number of Pixels in Spectrum: 3648
>>>>>Begin Spectral Data<<<<<
178.204	-823.11
178.424	-823.11
178.644	-823.11
178.864	-880.46
179.084	-776.01
179.304	129.19
179.524	125.1
179.744	-69.46
179.964	-208.72
180.184	260.26
180.404	211.11
180.624	-257.87
180.844	-102.23
181.064	123.05
181.283	168.1
181.503	-210.77
181.723	-167.76
181.943	-63.32
182.163	428.2
182.383	-149.33
182.602	-184.15
182.822	483.49
183.042	331.94
183.262	-223.06
183.482	-173.91
183.701	213.16
183.921	272.55
184.141	-235.35
184.361	-108.37
184.58	266.41
184.8	213.16
185.02	-186.19
185.239	-69.46
185.459	346.28
185.679	495.78
185.898	-309.07
186.118	-231.25
186.338	266.41
186.557	352.42
186.777	-171.86
186.997	-135
187.216	217.26
187.436	489.64
187.655	-104.28
187.875	6.31
188.095	164.01
188.314	424.1
188.534	6.31
188.753	-159.57
188.973	385.19
189.192	501.92
189.412	-253.78
189.631	-171.86
189.851	424.1
190.07	487.59
190.29	-87.89
190.509	-245.59
190.729	164.01
190.948	438.44
191.168	-96.08
191.387	-141.14
191.607	186.54
191.826	270.5
192.045	-214.87
192.265	-126.8
192.484	307.37
192.704	276.65
192.923	-239.44
193.142	-46.93
193.362	372.9
193.581	456.87
193.8	-87.89
194.02	-149.33
194.239	182.44
194.458	262.31
194.678	-112.47
194.897	-200.53
195.116	268.45
195.335	358.57
195.555	-116.56
195.774	-175.95
195.993	495.78
196.212	204.97
196.432	-59.22
196.651	-192.34
196.87	215.21
197.089	604.32
197.308	-118.61
197.528	-104.28
197.747	133.29
197.966	188.58
198.185	-42.84
198.404	-200.53
198.623	350.37
198.842	391.33
199.062	-34.64
199.281	-69.46
199.5	264.36
199.719	405.67
199.938	-194.39
200.157	-85.84
200.376	436.39
200.595	444.58
200.814	-116.56
201.033	-135
201.252	471.2
201.471	368.81
201.69	-130.9
201.909	-135
202.128	368.81
202.347	266.41
202.566	-48.98
202.785	-315.22
203.004	200.87
203.223	536.74
203.442	-167.76
203.661	-266.07
203.879	348.33
204.098	385.19
204.317	-225.11
204.536	39.08
204.755	336.04
204.974	319.65
205.193	-282.45
205.411	-73.56
205.63	407.72
205.849	272.55
206.068	-157.52
206.287	-171.86
206.505	405.67
206.724	176.3
206.943	-175.95
207.162	-184.15
207.381	207.02
207.599	127.14
207.818	-36.69
208.037	-241.49
208.255	270.5
208.474	391.33
208.693	-184.15
208.911	-233.3
209.13	303.27
209.349	377
209.567	-12.12
209.786	-143.19
210.005	430.24
210.223	223.4
210.442	-257.87
210.661	-259.92
210.879	325.8
211.098	252.07
211.316	-139.09
211.535	-178
211.753	311.46
211.972	297.13
212.191	-139.09
212.409	-126.8
212.628	340.13
212.846	166.06
213.065	-233.3
213.283	-20.31
213.502	211.11
213.72	290.98
213.938	-163.67
214.157	-155.47
214.375	323.75
214.594	266.41
214.812	-59.22
215.031	-75.6
215.249	280.74
215.467	284.84
215.686	-71.51
215.904	-204.63
216.122	235.69
216.341	467.11
216.559	-32.6
216.778	-55.12
216.996	426.15
217.214	243.88
217.432	-137.04
217.651	-196.43
217.869	338.09
218.087	217.26
218.306	-102.23
218.524	-233.3
218.742	157.86
218.96	358.57
219.179	-135
219.397	-204.63
219.615	518.31
219.833	368.81
220.051	-132.95
220.27	-108.37
220.488	381.09
220.706	252.07
220.924	-118.61
221.142	-210.77
221.36	241.83
221.578	229.54
221.796	-151.38
222.015	-53.08
222.233	331.94
222.451	463.01
222.669	-151.38
222.887	-14.17
223.105	186.54
223.323	149.67
223.541	-112.47
223.759	-69.46
223.977	286.89
224.195	413.86
224.413	-110.42
224.631	-128.85
224.849	241.83
225.067	536.74
225.285	-53.08
225.503	-118.61
225.721	-24.4
225.939	198.82
226.157	-75.6
226.375	112.81
226.592	196.78
226.81	250.02
227.028	12.46
227.246	-122.71
227.464	237.74
227.682	438.44
227.9	-75.6
228.117	-114.52
228.335	327.85
228.553	219.3
228.771	-214.87
228.989	-128.85
229.206	295.08
229.424	170.15
229.642	-100.18
229.86	-98.13
230.077	444.58
230.295	217.26
230.513	-81.75
230.731	-51.03
230.948	528.55
231.166	424.1
231.384	-18.26
231.601	-118.61
231.819	499.88
232.037	145.58
232.254	-145.24
232.472	-132.95
232.689	168.1
232.907	368.81
233.125	-161.62
233.342	-128.85
233.56	262.31
233.777	221.35
233.995	-184.15
234.213	-20.31
234.43	366.76
234.648	186.54
234.865	-200.53
235.083	-12.12
235.3	207.02
235.518	299.17
235.735	-36.69
235.953	-32.6
236.17	278.69
236.388	219.3
236.605	6.31
236.822	-63.32
237.04	293.03
237.257	262.31
237.475	-135
237.692	-135
237.909	333.99
238.127	204.97
238.344	2.22
238.562	-79.7
238.779	65.71
238.996	88.23
239.214	-48.98
239.431	-87.89
239.648	131.24
239.865	252.07
240.083	-81.75
240.3	-173.91
240.517	178.34
240.735	233.64
240.952	71.85
241.169	-239.44
241.386	268.45
241.603	135.34
241.821	-141.14
242.038	-108.37
242.255	413.86
242.472	157.86
242.689	65.71
242.907	-118.61
243.124	213.16
243.341	231.59
243.558	-83.8
243.775	-114.52
243.992	53.42
244.209	252.07
244.426	30.89
244.643	-44.88
244.86	225.45
245.078	370.85
245.295	-153.43
245.512	-53.08
245.729	194.73
245.946	305.32
246.163	-198.48
246.38	-139.09
246.597	260.26
246.814	200.87
247.031	-44.88
247.248	-180.05
247.464	424.1
247.681	264.36
247.898	-94.04
248.115	-59.22
248.332	143.53
248.549	434.34
248.766	80.04
248.983	-26.45
249.2	333.99
249.417	389.28
249.633	-57.17
249.85	6.31
250.067	114.86
250.284	280.74
250.501	-124.76
250.717	-65.36
250.934	53.42
251.151	256.17
251.368	39.08
251.585	-173.91
251.801	274.6
252.018	80.04
252.235	45.23
252.451	-122.71
252.668	168.1
252.885	405.67
253.102	-51.03
253.318	-69.46
253.535	88.23
253.752	149.67
253.968	-118.61
254.185	-216.91
254.401	270.5
254.618	331.94
254.835	-55.12
255.051	-130.9
255.268	231.59
255.484	194.73
255.701	-91.99
255.917	-91.99
256.134	45.23
256.351	284.84
256.567	-108.37
256.784	-16.21
257	2.22
257.217	401.57
257.433	24.75
257.65	-175.95
257.866	387.24
258.082	65.71
258.299	-149.33
258.515	-36.69
258.732	196.78
258.948	14.51
259.165	-34.64
259.381	-132.95
259.597	325.8
259.814	202.92
260.03	-159.57
260.246	-59.22
260.463	389.28
260.679	348.33
260.895	28.84
261.112	-14.17
261.328	229.54
261.544	137.38
261.761	-116.56
261.977	47.27
262.193	86.19
262.409	317.61
262.626	18.6
262.842	-126.8
263.058	106.67
263.274	290.98
263.49	0.17
263.707	-91.99
263.923	299.17
264.139	32.94
264.355	-20.31
264.571	-14.17
264.787	307.37
265.004	350.37
265.22	-36.69
265.436	-24.4
265.652	178.34
265.868	141.48
266.084	-112.47
266.3	-46.93
266.516	145.58
266.732	282.79
266.948	4.27
267.164	-147.28
267.38	319.65
267.596	338.09
267.812	24.75
268.028	-94.04
268.244	161.96
268.46	250.02
268.676	-61.27
268.892	-77.65
269.108	143.53
269.324	125.1
269.54	-149.33
269.756	-116.56
269.972	135.34
270.188	227.5
270.403	-79.7
270.619	-71.51
270.835	288.93
271.051	250.02
271.267	-65.36
271.483	-89.94
271.698	331.94
271.914	243.88
272.13	-28.5
272.346	-69.46
272.562	295.08
272.777	415.91
272.993	12.46
273.209	-114.52
273.425	321.7
273.64	16.55
273.856	-108.37
274.072	-196.43
274.287	209.06
274.503	305.32
274.719	47.27
274.934	-81.75
275.15	82.09
275.366	213.16
275.581	-137.04
275.797	-85.84
276.012	303.27
276.228	110.76
276.444	-28.5
276.659	143.53
276.875	172.2
277.09	188.58
277.306	-46.93
277.521	26.79
277.737	204.97
277.952	229.54
278.168	-18.26
278.383	-53.08
278.599	166.06
278.814	237.74
279.03	-42.84
279.245	28.84
279.461	147.62
279.676	217.26
279.892	-63.32
280.107	4.27
280.322	86.19
280.538	321.7
280.753	-36.69
280.969	-1.88
281.184	272.55
281.399	327.85
281.615	-18.26
281.83	110.76
282.045	41.13
282.26	110.76
282.476	-48.98
282.691	151.72
282.906	254.12
283.122	274.6
283.337	-14.17
283.552	118.95
283.767	196.78
283.983	264.36
284.198	20.65
284.413	-124.76
284.628	14.51
284.843	295.08
285.058	6.31
285.274	-124.76
285.489	129.19
285.704	252.07
285.919	-91.99
286.134	49.32
286.349	229.54
286.564	88.23
286.779	41.13
286.995	41.13
287.21	37.03
287.425	272.55
287.64	-26.45
287.855	94.38
288.07	55.47
288.285	252.07
288.5	77.99
288.715	26.79
288.93	264.36
289.145	88.23
289.36	-65.36
289.575	34.99
289.79	358.57
290.004	82.09
290.219	47.27
290.434	2.22
290.649	102.57
290.864	75.95
291.079	-116.56
291.294	49.32
291.509	307.37
291.724	112.81
291.938	12.46
292.153	28.84
292.368	159.91
292.583	225.45
292.798	20.65
293.012	30.89
293.227	252.07
293.442	118.95
293.657	24.75
293.871	20.65
294.086	270.5
294.301	303.27
294.516	176.3
294.73	133.29
294.945	157.86
295.16	180.39
295.374	47.27
295.589	106.67
295.804	166.06
296.018	139.43
296.233	39.08
296.447	77.99
296.662	129.19
296.877	293.03
297.091	4.27
297.306	14.51
297.52	129.19
297.735	143.53
297.949	100.52
298.164	-108.37
298.378	272.55
298.593	4.27
298.807	53.42
299.022	61.61
299.236	356.52
299.451	100.52
299.665	102.57
299.88	4.27
300.094	272.55
300.309	176.3
300.523	37.03
300.737	32.94
300.952	217.26
301.166	250.02
301.381	-28.5
301.595	-63.32
301.809	239.78
302.024	161.96
302.238	-5.97
302.452	112.81
302.667	260.26
302.881	315.56
303.095	80.04
303.309	28.84
303.524	145.58
303.738	168.1
303.952	-63.32
304.166	63.66
304.381	-130.9
304.595	223.4
304.809	6.31
305.023	28.84
305.237	106.67
305.452	170.15
305.666	-36.69
305.88	92.33
306.094	348.33
306.308	233.64
306.522	-44.88
306.736	90.28
306.95	340.13
307.164	141.48
307.379	53.42
307.593	153.77
307.807	317.61
308.021	227.5
308.235	137.38
308.449	-55.12
308.663	149.67
308.877	477.35
309.091	123.05
309.305	153.77
309.519	-40.79
309.733	309.41
309.947	-98.13
310.161	-38.74
310.374	243.88
310.588	366.76
310.802	-42.84
311.016	-34.64
311.23	239.78
311.444	116.9
311.658	75.95
311.872	221.35
312.085	342.18
312.299	377
312.513	278.69
312.727	-26.45
312.941	139.43
313.154	147.62
313.368	118.95
313.582	-14.17
313.796	174.25
314.009	159.91
314.223	133.29
314.437	75.95
314.651	331.94
314.864	129.19
315.078	65.71
315.292	-16.21
315.505	200.87
315.719	229.54
315.933	139.43
316.146	8.36
316.36	65.71
316.573	301.22
316.787	293.03
317.001	26.79
317.214	20.65
317.428	231.59
317.641	14.51
317.855	10.41
318.068	299.17
318.282	252.07
318.495	161.96
318.709	32.94
318.922	200.87
319.136	356.52
319.349	39.08
319.563	-22.36
319.776	260.26
319.99	-10.07
320.203	92.33
320.417	-40.79
320.63	237.74
320.843	305.32
321.057	112.81
321.27	26.79
321.483	299.17
321.697	348.33
321.91	6.31
322.124	26.79
322.337	233.64
322.55	47.27
322.763	-14.17
322.977	-10.07
323.19	61.61
323.403	172.2
323.617	55.47
323.83	166.06
324.043	192.68
324.256	161.96
324.469	-180.05
324.683	143.53
324.896	188.58
325.109	174.25
325.322	-104.28
325.535	164.01
325.748	397.48
325.962	157.86
326.175	82.09
326.388	-59.22
326.601	180.39
326.814	125.1
327.027	18.6
327.24	139.43
327.453	-14.17
327.666	223.4
327.879	196.78
328.092	69.8
328.305	221.35
328.518	176.3
328.731	-32.6
328.944	-30.55
329.157	295.08
329.37	116.9
329.583	125.1
329.796	39.08
330.009	47.27
330.222	299.17
330.435	143.53
330.648	133.29
330.861	252.07
331.073	192.68
331.286	180.39
331.499	57.51
331.712	155.82
331.925	137.38
332.138	47.27
332.35	28.84
332.563	174.25
332.776	290.98
332.989	-14.17
333.202	-12.12
333.414	153.77
333.627	168.1
333.84	-63.32
334.053	133.29
334.265	114.86
334.478	80.04
334.691	2.22
334.903	149.67
335.116	168.1
335.329	96.43
335.541	55.47
335.754	274.6
335.966	104.62
336.179	213.16
336.392	-18.26
336.604	135.34
336.817	190.63
337.029	219.3
337.242	55.47
337.454	121
337.667	229.54
337.88	344.23
338.092	104.62
338.305	180.39
338.517	145.58
338.729	266.41
338.942	98.47
339.154	-98.13
339.367	92.33
339.579	233.64
339.792	-12.12
340.004	86.19
340.217	139.43
340.429	221.35
340.641	-26.45
340.854	8.36
341.066	227.5
341.278	288.93
341.491	211.11
341.703	-22.36
341.915	102.57
342.128	317.61
342.34	45.23
342.552	-48.98
342.764	155.82
342.977	106.67
343.189	28.84
343.401	110.76
343.613	-36.69
343.826	127.14
344.038	22.7
344.25	88.23
344.462	112.81
344.674	176.3
344.886	-81.75
345.099	147.62
345.311	186.54
345.523	106.67
345.735	-73.56
345.947	69.8
346.159	241.83
346.371	170.15
346.583	86.19
346.795	131.24
347.007	96.43
347.219	254.12
347.431	71.85
347.643	215.21
347.855	184.49
348.067	338.09
348.279	-102.23
348.491	39.08
348.703	397.48
348.915	180.39
349.127	24.75
349.339	94.38
349.551	182.44
349.763	342.18
349.975	4.27
350.187	94.38
350.399	374.95
350.61	295.08
350.822	43.18
351.034	22.7
351.246	325.8
351.458	235.69
351.669	82.09
351.881	77.99
352.093	362.66
352.305	241.83
352.517	-3.93
352.728	125.1
352.94	192.68
353.152	325.8
353.363	-32.6
353.575	96.43
353.787	397.48
353.999	260.26
354.21	215.21
354.422	-53.08
354.633	233.64
354.845	282.79
355.057	121
355.268	65.71
355.48	346.28
355.692	47.27
355.903	86.19
356.115	-44.88
356.326	-75.6
356.538	346.28
356.749	51.37
356.961	209.06
357.172	221.35
357.384	18.6
357.595	170.15
357.807	37.03
358.018	112.81
358.23	247.97
358.441	14.51
358.653	37.03
358.864	116.9
359.075	32.94
359.287	12.46
359.498	104.62
359.709	260.26
359.921	284.84
360.132	174.25
360.344	-28.5
360.555	57.51
360.766	170.15
360.977	32.94
361.189	94.38
361.4	217.26
361.611	307.37
361.823	102.57
362.034	49.32
362.245	-10.07
362.456	178.34
362.667	143.53
362.879	-151.38
363.09	280.74
363.301	247.97
363.512	45.23
363.723	4.27
363.935	100.52
364.146	317.61
364.357	-20.31
364.568	22.7
364.779	84.14
364.99	309.41
365.201	4.27
365.412	155.82
365.623	45.23
365.834	219.3
366.045	100.52
366.256	94.38
366.467	215.21
366.678	141.48
366.889	47.27
367.1	8.36
367.311	301.22
367.522	118.95
367.733	37.03
367.944	82.09
368.155	247.97
368.366	284.84
368.577	149.67
368.788	184.49
368.999	192.68
369.209	180.39
369.42	65.71
369.631	350.37
369.842	323.75
370.053	159.91
370.264	84.14
370.474	34.99
370.685	307.37
370.896	172.2
371.107	141.48
371.317	39.08
371.528	192.68
371.739	344.23
371.95	71.85
372.16	75.95
372.371	6.31
372.582	168.1
372.792	59.56
373.003	184.49
373.214	211.11
373.424	227.5
373.635	24.75
373.846	211.11
374.056	270.5
374.267	252.07
374.477	75.95
374.688	37.03
374.898	307.37
375.109	196.78
375.319	151.72
375.53	30.89
375.74	266.41
375.951	88.23
376.161	96.43
376.372	125.1
376.582	178.34
376.793	211.11
377.003	-10.07
377.214	-28.5
377.424	258.21
377.635	221.35
377.845	34.99
378.055	135.34
378.266	63.66
378.476	200.87
378.686	151.72
378.897	22.7
379.107	362.66
379.317	209.06
379.528	-83.8
379.738	45.23
379.948	4.27
380.158	389.28
380.369	71.85
380.579	98.47
380.789	143.53
380.999	194.73
381.21	143.53
381.42	243.88
381.63	188.58
381.84	266.41
382.05	82.09
382.261	184.49
382.471	303.27
382.681	88.23
382.891	110.76
383.101	127.14
383.311	102.57
383.521	153.77
383.731	-24.4
383.941	159.91
384.151	217.26
384.361	157.86
384.571	49.32
384.781	90.28
384.991	307.37
385.201	444.58
385.411	239.78
385.621	80.04
385.831	229.54
386.041	237.74
386.251	129.19
386.461	157.86
386.671	211.11
386.881	266.41
387.091	67.75
387.301	164.01
387.511	182.44
387.72	168.1
387.93	133.29
388.14	47.27
388.35	147.62
388.56	258.21
388.769	69.8
388.979	69.8
389.189	129.19
389.399	217.26
389.609	-24.4
389.818	108.71
390.028	241.83
390.238	223.4
390.447	-8.02
390.657	157.86
390.867	188.58
391.076	86.19
391.286	69.8
391.496	30.89
391.705	237.74
391.915	342.18
392.125	94.38
392.334	94.38
392.544	415.91
392.753	141.48
392.963	47.27
393.172	127.14
393.382	198.82
393.591	440.48
393.801	86.19
394.01	71.85
394.22	239.78
394.429	221.35
394.639	82.09
394.848	69.8
395.058	233.64
395.267	186.54
395.477	151.72
395.686	77.99
395.895	538.79
396.105	358.57
396.314	116.9
396.524	172.2
396.733	121
396.942	266.41
397.152	28.84
397.361	176.3
397.57	190.63
397.78	188.58
397.989	161.96
398.198	256.17
398.407	110.76
398.617	213.16
398.826	-1.88
399.035	22.7
399.244	299.17
399.453	221.35
399.663	10.41
399.872	-59.22
400.081	88.23
400.29	323.75
400.499	63.66
400.708	102.57
400.917	196.78
401.127	77.99
401.336	37.03
401.545	329.89
401.754	311.46
401.963	252.07
402.172	98.47
402.381	-61.27
402.59	182.44
402.799	159.91
403.008	307.37
403.217	65.71
403.426	297.13
403.635	53.42
403.844	-48.98
404.053	-16.21
404.262	258.21
404.471	405.67
404.68	96.43
404.888	106.67
405.097	161.96
405.306	194.73
405.515	123.05
405.724	77.99
405.933	295.08
406.142	225.45
406.35	118.95
406.559	106.67
406.768	245.93
406.977	544.93
407.185	61.61
407.394	94.38
407.603	110.76
407.812	243.88
408.02	153.77
408.229	69.8
408.438	329.89
408.646	16.55
408.855	28.84
409.064	47.27
409.272	155.82
409.481	250.02
409.69	73.9
409.898	-46.93
410.107	235.69
410.315	280.74
410.524	12.46
410.733	39.08
410.941	250.02
411.15	307.37
411.358	174.25
411.567	215.21
411.775	229.54
411.984	211.11
412.192	188.58
412.401	61.61
412.609	448.68
412.818	352.42
413.026	118.95
413.234	51.37
413.443	239.78
413.651	129.19
413.86	-18.26
414.068	327.85
414.276	493.73
414.485	166.06
414.693	247.97
414.901	276.65
415.11	239.78
415.318	245.93
415.526	106.67
415.734	250.02
415.943	290.98
416.151	442.53
416.359	110.76
416.567	211.11
416.776	241.83
416.984	260.26
417.192	235.69
417.4	2.22
417.608	178.34
417.817	106.67
418.025	225.45
418.233	129.19
418.441	110.76
418.649	110.76
418.857	94.38
419.065	184.49
419.273	118.95
419.481	221.35
419.689	133.29
419.897	0.17
420.105	2.22
420.313	333.99
420.521	174.25
420.729	164.01
420.937	207.02
421.145	41.13
421.353	80.04
421.561	188.58
421.769	266.41
421.977	221.35
422.185	143.53
422.393	170.15
422.601	331.94
422.809	348.33
423.017	223.4
423.224	186.54
423.432	393.38
423.64	241.83
423.848	30.89
424.056	61.61
424.263	389.28
424.471	247.97
424.679	295.08
424.887	139.43
425.094	397.48
425.302	252.07
425.51	14.51
425.718	209.06
425.925	286.89
426.133	180.39
426.341	268.45
426.548	114.86
426.756	258.21
426.964	321.7
427.171	186.54
427.379	139.43
427.586	290.98
427.794	385.19
428.001	290.98
428.209	282.79
428.417	448.68
428.624	381.09
428.832	264.36
429.039	288.93
429.247	358.57
429.454	458.92
429.662	342.18
429.869	161.96
430.076	426.15
430.284	385.19
430.491	194.73
430.699	278.69
430.906	546.98
431.114	424.1
431.321	288.93
431.528	213.16
431.736	440.48
431.943	458.92
432.15	358.57
432.358	247.97
432.565	737.44
432.772	153.77
432.979	385.19
433.187	286.89
433.394	630.95
433.601	333.99
433.808	393.38
434.016	413.86
434.223	522.4
434.43	483.49
434.637	340.13
434.844	506.02
435.052	592.03
435.259	577.7
435.466	450.72
435.673	383.14
435.88	792.73
436.087	673.95
436.294	741.54
436.501	661.66
436.708	632.99
436.915	741.54
437.122	696.48
437.329	516.26
437.537	565.41
437.743	743.58
437.95	667.81
438.157	688.29
438.364	714.91
438.571	751.78
438.778	710.82
438.985	841.89
439.192	950.43
439.399	800.93
439.606	694.43
439.813	841.89
440.02	1132.7
440.227	1247.38
440.433	886.94
440.64	788.64
440.847	952.48
441.054	934.04
441.261	929.95
441.467	970.91
441.674	1032.35
441.881	1243.29
442.088	970.91
442.294	1124.51
442.501	1351.83
442.708	1323.16
442.914	1136.79
443.121	1142.94
443.328	1413.27
443.534	1679.51
443.741	1325.21
443.948	1278.1
444.154	1570.96
444.361	1759.38
444.568	1329.3
444.774	1493.14
444.981	1403.03
445.187	1781.9
445.394	1605.78
445.6	1638.55
445.807	1904.78
446.013	1884.3
446.22	1687.7
446.426	1929.36
446.633	2085
446.839	2330.76
447.046	1800.34
447.252	2117.77
447.459	2240.65
447.665	2134.15
447.871	2117.77
448.078	2613.38
448.284	2531.46
448.491	2766.98
448.697	2697.35
448.903	2658.43
449.11	2828.42
449.316	2814.08
449.522	2992.25
449.728	2977.92
449.935	3319.93
450.141	3129.47
450.347	3217.53
450.553	3178.62
450.76	3459.19
450.966	3588.21
451.172	3631.22
451.378	3698.8
451.584	3883.12
451.791	4108.4
451.997	4169.84
452.203	4094.06
452.409	4415.59
452.615	4296.81
452.821	4212.84
453.027	4139.12
453.233	5197.92
453.44	4552.81
453.646	4669.54
453.852	4796.51
454.058	4974.69
454.264	5208.16
454.47	5349.47
454.676	5374.04
454.882	5730.39
455.088	5443.67
455.294	5607.51
455.5	5711.96
455.705	6006.86
455.911	5789.78
456.117	5722.2
456.323	6090.83
456.529	5746.77
456.735	6209.61
456.941	6342.73
457.147	6238.28
457.352	6481.99
457.558	6172.75
457.764	6520.9
457.97	6309.96
458.176	6604.87
458.381	6649.93
458.587	6447.18
458.793	6469.7
458.999	6246.48
459.204	6895.68
459.41	6627.4
459.616	6303.82
459.821	6864.96
460.027	6352.97
460.233	6578.25
460.438	6361.16
460.644	6590.53
460.85	6430.79
461.055	6226
461.261	6328.39
461.466	5935.18
461.672	6025.29
461.878	5978.19
462.083	6033.49
462.289	5926.99
462.494	5910.61
462.7	5699.67
462.905	5472.34
463.111	6109.26
463.316	5879.89
463.522	5757.01
463.727	5871.7
463.932	5931.09
464.138	5779.54
464.343	5746.77
464.549	5617.75
464.754	6209.61
464.959	6039.63
465.165	5754.96
465.37	5650.52
465.575	5572.69
465.781	5759.06
465.986	5685.33
466.191	5613.65
466.397	5673.04
466.602	5582.93
466.807	5556.31
467.012	5496.92
467.218	5843.03
467.423	5566.55
467.628	5376.09
467.833	5681.24
468.038	5802.07
468.244	5464.15
468.449	5759.06
468.654	5642.32
468.859	5808.21
469.064	5957.71
469.269	5328.99
469.474	5595.22
469.679	5957.71
469.885	5826.64
470.09	5726.29
470.295	5677.14
470.5	5902.42
470.705	6025.29
470.91	5783.63
471.115	5685.33
471.32	6070.35
471.525	6164.56
471.73	5849.17
471.935	6025.29
472.139	5736.53
472.344	5986.38
472.549	5828.69
472.754	5836.88
472.959	6023.25
473.164	6068.3
473.369	5726.29
473.574	6221.9
473.778	6195.28
473.983	6297.67
474.188	6279.24
474.393	6013.01
474.598	6385.74
474.802	6338.63
475.007	6010.96
475.212	6156.36
475.417	5967.95
475.621	6234.19
475.826	6058.06
476.031	6221.9
476.235	6162.51
476.44	6293.58
476.645	6205.52
476.849	6000.72
477.054	6217.8
477.259	6230.09
477.463	6463.56
477.668	6051.92
477.872	6543.43
478.077	6367.31
478.282	5863.51
478.486	5910.61
478.691	6352.97
478.895	6398.03
479.1	6168.65
479.304	6371.4
479.509	6139.98
479.713	6527.05
479.918	6164.56
480.122	6082.64
480.326	6305.87
480.531	6492.23
480.735	6346.83
480.94	6191.18
481.144	6680.64
481.348	6275.15
481.553	6373.45
481.757	6201.42
481.961	6545.48
482.166	6520.9
482.37	6367.31
482.574	6328.39
482.778	6555.72
482.983	6744.13
483.187	6340.68
483.391	6533.19
483.595	6676.55
483.8	6594.63
484.004	6490.18
484.208	6824
484.412	6973.5
484.616	6920.26
484.821	6961.22
485.025	6852.67
485.229	6891.59
485.433	7098.43
485.637	7073.85
485.841	7053.38
486.045	7354.43
486.249	7422.01
486.453	7108.67
486.657	7200.83
486.861	7174.21
487.065	7295.04
487.269	7166.01
487.473	6948.93
487.677	7753.78
487.881	8153.13
488.085	7436.35
488.289	7686.2
488.493	7829.56
488.697	8099.89
488.901	8110.13
489.105	7780.4
489.309	8187.95
489.512	8224.81
489.716	8063.02
489.92	8333.36
490.124	8468.52
490.328	8753.19
490.531	8433.71
490.735	8581.16
490.939	8663.08
491.143	8523.82
491.346	8763.43
491.55	8804.39
491.754	9386.01
491.958	8910.88
492.161	9136.16
492.365	9076.77
492.569	9295.9
492.772	9412.64
492.976	9424.92
493.18	9289.76
493.383	9752.6
493.587	9693.21
493.79	9873.43
493.994	9498.65
494.197	9881.62
494.401	10090.51
494.605	9865.24
494.808	10180.62
495.012	10246.16
495.215	10360.84
495.419	10539.02
495.622	10264.59
495.825	10520.59
496.029	10600.46
496.232	10764.29
496.436	10749.96
496.639	11190.27
496.843	10938.37
497.046	11077.63
497.249	11413.5
497.453	11259.9
497.656	11393.02
497.859	11546.62
498.063	11665.4
498.266	11884.53
498.469	11743.22
498.673	11972.6
498.876	12101.62
499.079	12374
499.282	12447.72
499.485	12466.16
499.689	12283.89
499.892	13207.52
500.095	12771.3
500.298	13127.65
500.501	12853.22
500.705	13414.37
500.908	13361.12
501.111	13461.47
501.314	13649.88
501.517	13860.82
501.72	14067.67
501.923	13666.27
502.126	14299.09
502.329	14571.47
502.532	15060.93
502.735	14536.65
502.938	14989.25
503.141	14933.96
503.344	15048.65
503.547	15245.25
503.75	15327.17
503.953	15589.31
504.156	16066.49
504.359	15747
504.562	15921.08
504.765	16359.35
504.968	16670.64
505.17	16699.31
505.373	16607.15
505.576	17012.65
505.779	17373.09
505.982	17201.06
506.185	17575.84
506.387	17661.85
506.59	18169.75
506.793	17946.52
506.996	18106.26
507.198	19060.62
507.401	19031.94
507.604	18741.13
507.807	19296.13
508.009	19330.95
508.212	19572.61
508.415	19511.17
508.617	19924.86
508.82	20340.6
509.022	19761.02
509.225	20268.92
509.428	20547.44
509.63	21036.91
509.833	21493.6
510.035	21806.94
510.238	21366.63
510.44	21888.86
510.643	22259.54
510.845	22116.19
511.048	22220.63
511.25	22689.62
511.453	22951.76
511.655	23506.76
511.858	23449.41
512.06	23756.61
512.262	23981.88
512.465	23928.64
512.667	24213.31
512.87	24672.05
513.072	24991.53
513.274	25390.89
513.477	25485.09
513.679	25657.12
513.881	26396.44
514.084	26343.19
514.286	26502.93
514.488	26726.16
514.69	27287.31
514.893	27436.81
515.095	27313.93
515.297	27762.44
515.499	28468.98
515.701	28348.15
515.904	28870.39
516.106	29421.29
516.308	29503.21
516.51	29773.54
516.712	29867.75
516.914	30283.48
517.116	30643.93
517.318	30836.44
517.52	31002.32
517.722	31246.03
517.925	31891.14
518.127	31778.5
518.329	32075.46
518.531	31962.82
518.733	32982.71
518.935	33326.77
519.136	33363.63
519.338	33674.92
519.54	34045.6
519.742	34326.17
519.944	34815.64
520.146	35481.23
520.348	35376.78
520.55	35849.86
520.752	35946.12
520.954	36378.24
521.155	36220.55
521.357	36898.42
521.559	37027.45
521.761	37676.65
521.963	37682.8
522.164	38096.49
522.366	37762.67
522.568	38805.08
522.77	38878.81
522.971	39183.96
523.173	39179.86
523.375	39910.99
523.576	39398.99
523.778	39654.99
523.98	40185.41
524.181	40535.62
524.383	41037.37
524.584	41129.53
524.786	41233.97
524.988	40939.07
525.189	42016.3
525.391	41862.7
525.592	42290.73
525.794	42171.94
525.995	42491.43
526.197	42933.79
526.398	42845.72
526.6	43327
526.801	43163.16
527.003	43228.7
527.204	43503.12
527.406	44264.97
527.607	44049.93
527.808	44191.24
528.01	44189.19
528.211	44471.81
528.412	44869.12
528.614	45274.62
528.815	44932.61
529.016	45676.02
529.218	45458.93
529.419	44975.61
529.62	45227.51
529.822	46093.8
530.023	45295.1
530.224	45561.33
530.425	45809.14
530.626	45256.18
530.828	45966.83
531.029	46419.43
531.23	45944.3
531.431	46366.18
531.632	46706.15
531.833	46605.8
532.035	46824.93
532.236	46775.78
532.437	47195.61
532.638	46570.98
532.839	47197.66
533.04	47214.04
533.241	47050.2
533.442	48438.73
533.643	47203.8
533.844	47205.85
534.045	47646.16
534.246	47037.92
534.447	47910.35
534.648	47314.39
534.849	47990.22
535.05	47631.83
535.251	47418.84
535.451	47758.8
535.652	47701.46
535.853	47769.04
536.054	47820.24
536.255	48448.97
536.456	47762.9
536.657	48616.9
536.857	47961.55
537.058	48287.18
537.259	48340.43
537.46	48121.29
537.66	47834.58
537.861	48442.82
538.062	48131.53
538.263	48221.64
538.463	48287.18
538.664	48866.75
538.865	48365
539.065	48827.84
539.266	48606.66
539.466	49075.65
539.667	47842.77
539.868	49192.38
540.068	48698.82
540.269	48414.15
540.469	49243.58
540.67	48596.42
540.87	48770.5
541.071	48807.36
541.271	49374.65
541.472	48963.01
541.672	48889.28
541.873	49315.26
542.073	48577.99
542.274	49491.38
542.474	48678.34
542.675	49053.12
542.875	49714.61
543.075	48938.43
543.276	48801.22
543.476	49790.39
543.676	49438.14
543.877	49417.66
544.077	49384.89
544.277	49886.64
544.478	49657.27
544.678	49460.66
544.878	49505.72
545.078	49475
545.279	49214.91
545.479	49323.45
545.679	49675.7
545.879	49896.88
546.079	50128.3
546.28	49579.45
546.48	49780.15
546.68	50347.43
546.88	50492.84
547.08	49864.11
547.28	49837.49
547.48	49464.76
547.68	50732.45
547.88	49933.74
548.081	50353.58
548.281	50046.38
548.481	50206.12
548.681	50515.37
548.881	50443.69
549.081	50226.6
549.28	50136.49
549.48	50402.73
549.68	50003.38
549.88	51223.97
550.08	50210.22
550.28	50757.03
550.48	50619.81
550.68	50531.75
550.88	50421.16
551.08	50339.24
551.279	50851.23
551.479	50515.37
551.679	51203.49
551.879	50232.75
552.079	50816.42
552.278	50738.6
552.478	51092.9
552.678	50556.33
552.878	51228.06
553.077	50937.25
553.277	50521.51
553.477	51076.51
553.676	50453.93
553.876	51248.54
554.076	50752.93
554.275	50849.19
554.475	50628.01
554.674	51420.57
554.874	51006.88
555.074	50640.29
555.273	50984.35
555.473	51406.23
555.672	51025.31
555.872	51105.18
556.071	51180.96
556.271	51715.48
556.47	51117.47
556.67	50812.32
556.869	50959.78
557.068	51258.78
557.268	50603.43
557.467	51201.44
557.667	51062.18
557.866	50992.54
558.065	51088.8
558.265	50777.51
558.464	50496.94
558.663	51039.65
558.863	50482.6
559.062	51527.06
559.261	50294.19
559.461	51121.57
559.66	50349.48
559.859	50449.83
560.058	50232.75
560.258	50394.54
560.457	50494.89
560.656	51056.03
560.855	50302.38
561.054	50752.93
561.253	50140.59
561.453	50587.05
561.652	50251.18
561.851	50576.81
562.05	50335.15
562.249	49774
562.448	50322.86
562.647	49946.03
562.846	49866.16
563.045	50447.78
563.244	49386.94
563.443	50238.89
563.642	49434.04
563.841	49878.45
564.04	49620.41
564.239	49737.14
564.438	49608.12
564.637	49550.77
564.836	49704.37
565.035	49382.84
565.234	49460.66
565.432	49423.8
565.631	48881.09
565.83	48975.3
566.029	48541.13
566.228	48842.18
566.427	49470.9
566.625	48020.94
566.824	48371.14
567.023	48405.96
567.222	48006.61
567.42	48414.15
567.619	48180.68
567.818	48070.09
568.016	48324.04
568.215	48397.77
568.414	48090.57
568.612	47828.43
568.811	47773.14
569.01	47936.98
569.208	47138.27
569.407	47416.79
569.605	46902.75
569.804	47154.65
570.002	46984.67
570.201	47058.4
570.4	46773.73
570.598	46890.46
570.797	46573.03
570.995	46327.27
571.193	46228.97
571.392	46794.21
571.59	45657.59
571.789	46206.44
571.987	45950.45
572.186	45919.73
572.384	45710.83
572.582	46120.43
572.781	45716.98
572.979	45073.91
573.177	45264.38
573.376	45716.98
573.574	45301.24
573.772	45057.53
573.971	44940.8
574.169	44893.69
574.367	44598.79
574.565	45262.33
574.763	44981.76
574.962	44375.56
575.16	44367.37
575.358	44539.4
575.556	44088.84
575.754	44615.17
575.952	43820.56
576.151	44772.86
576.349	43927.05
576.547	43738.64
576.745	44099.08
576.943	43947.53
577.141	43771.41
577.339	43683.34
577.537	43279.89
577.735	43712.02
577.933	43167.26
578.131	43617.81
578.329	43009.56
578.527	42882.59
578.725	43404.82
578.923	42845.72
579.121	42743.33
579.319	42554.91
579.516	42806.81
579.714	42944.03
579.912	42489.38
580.11	42260.01
580.308	42604.06
580.506	42106.41
580.704	41301.56
580.901	42614.3
581.099	42978.84
581.297	42149.42
581.495	41647.66
581.692	41864.75
581.89	41559.6
582.088	42223.14
582.285	41461.3
582.483	42065.45
582.681	41508.4
582.878	41543.22
583.076	41344.56
583.274	41631.28
583.471	41467.44
583.669	41264.69
583.866	40867.39
584.064	41803.31
584.262	40797.76
584.459	41195.06
584.657	41315.89
584.854	41723.44
585.052	41123.38
585.249	40855.1
585.447	40771.13
585.644	39935.56
585.841	40662.59
586.039	40986.17
586.236	40433.22
586.434	40662.59
586.631	40486.46
586.828	40502.85
587.026	40529.47
587.223	40232.52
587.42	40115.78
587.618	40171.08
587.815	40289.86
588.012	39992.9
588.21	40099.4
588.407	40451.65
588.604	39988.81
588.801	39804.49
588.999	39980.62
589.196	40187.46
589.393	39577.17
589.59	39921.23
589.787	39915.08
589.984	39464.53
590.182	39640.65
590.379	39990.86
590.576	39726.67
590.773	39493.2
590.97	38950.49
591.167	39736.91
591.364	39120.47
591.561	39398.99
591.758	39157.33
591.955	39700.04
592.152	39919.18
592.349	39491.15
592.546	39362.13
592.743	39265.88
592.94	39063.13
593.137	39741
593.334	39575.12
593.531	39345.75
593.727	39376.47
593.924	39097.94
594.121	39175.76
594.318	39403.09
594.515	39003.74
594.712	39458.38
594.908	39028.31
595.105	39056.98
595.302	39282.26
595.499	39204.44
595.696	39183.96
595.892	38622.81
596.089	39224.92
596.286	39007.83
596.482	39183.96
596.679	39288.4
596.876	38864.47
597.072	38749.79
597.269	39003.74
597.466	38843.99
597.662	39091.8
597.859	39360.08
598.055	38690.4
598.252	38936.15
598.448	39165.53
598.645	39108.18
598.841	38354.53
599.038	39108.18
599.234	39059.03
599.431	38461.02
599.627	38637.15
599.824	39093.85
600.02	38448.74
600.217	38717.02
600.413	38313.57
600.609	38358.63
600.806	38815.32
601.002	38657.63
601.198	38282.85
601.395	38962.78
601.591	38542.94
601.787	38739.55
601.984	38245.99
602.18	39245.4
602.376	38334.05
602.572	38600.29
602.769	38747.74
602.965	37932.65
603.161	38708.83
603.357	38651.48
603.553	38092.39
603.75	38495.84
603.946	38399.58
604.142	38309.47
604.338	38200.93
604.534	38549.09
604.73	38446.69
604.926	38354.53
605.122	38782.55
605.318	38043.24
605.514	38139.49
605.71	38012.52
605.906	37965.42
606.102	38250.08
606.298	38352.48
606.494	38061.67
606.69	38700.64
606.886	38532.7
607.082	38067.81
607.278	38088.29
607.474	37611.12
607.67	38338.15
607.866	37580.4
608.062	38624.86
608.257	38114.92
608.453	38067.81
608.649	38375.01
608.845	37533.29
609.041	38030.95
609.236	38162.02
609.432	38391.39
609.628	38297.19
609.824	38010.47
610.019	38219.36
610.215	37969.51
610.411	38493.79
610.606	37830.25
610.802	38151.78
610.998	38409.82
611.193	38409.82
611.389	38268.51
611.584	38123.11
611.78	38098.53
611.976	38016.61
612.171	38315.62
612.367	38332
612.562	37981.8
612.758	37865.06
612.953	37353.07
613.149	38346.34
613.344	38145.64
613.539	38262.37
613.735	38383.2
613.93	38319.71
614.126	37965.42
614.321	38403.68
614.517	38092.39
614.712	38436.45
614.907	38403.68
615.103	38395.49
615.298	37752.43
615.493	38420.06
615.688	37936.74
615.884	38135.4
616.079	37852.78
616.274	38540.89
616.47	37654.12
616.665	37899.88
616.86	38012.52
617.055	38149.73
617.25	38129.25
617.445	38368.87
617.641	37729.9
617.836	38352.48
618.031	37697.13
618.226	38235.75
618.421	37652.08
618.616	37992.04
618.811	37738.09
619.006	38125.16
619.201	37613.16
619.396	37512.81
619.591	37099.12
619.786	37697.13
619.981	37240.43
620.176	37676.65
620.371	37328.5
620.566	37465.71
620.761	37355.12
620.956	37662.32
621.151	37160.56
621.346	37015.16
621.541	36660.86
621.735	37561.97
621.93	36505.21
622.125	36701.82
622.32	36224.64
622.515	36576.89
622.709	36497.02
622.904	36503.17
623.099	36187.78
623.294	36458.11
623.488	35866.25
623.683	36304.51
623.878	35382.93
624.072	36013.7
624.267	35665.55
624.462	35851.91
624.656	35583.63
624.851	35769.99
625.046	35698.31
625.24	35069.59
625.435	35167.89
625.629	35110.55
625.824	35159.7
626.018	35208.85
626.213	34467.48
626.407	35280.53
626.602	34811.54
626.796	34893.46
626.991	34692.76
627.185	34752.15
627.38	34324.13
627.574	34365.09
627.768	33998.5
627.963	33920.68
628.157	34066.08
628.352	34297.5
628.546	33414.83
628.74	34350.75
628.935	33717.93
629.129	33818.28
629.323	33275.57
629.517	33545.9
629.712	33242.8
629.906	33408.68
630.1	33119.92
630.294	33203.89
630.489	33177.26
630.683	33607.34
630.877	32841.4
631.071	33189.55
631.265	33101.49
631.459	32794.29
631.653	32777.91
631.848	33003.19
632.042	32513.72
632.236	32652.98
632.43	32259.77
632.624	32304.83
632.818	32460.48
633.012	31958.72
633.206	31891.14
633.4	32100.03
633.594	31567.56
633.788	31657.67
633.982	31672.01
634.176	31858.37
634.369	31368.91
634.563	31409.87
634.757	30891.73
634.951	30953.17
635.145	31037.14
635.339	30971.6
635.533	30639.83
635.726	30867.16
635.92	30279.39
636.114	30279.39
636.308	30269.15
636.501	29986.53
636.695	30373.6
636.889	29779.68
637.083	29406.95
637.276	29560.55
637.47	29142.77
637.664	29382.38
637.857	29077.23
638.051	29245.16
638.244	28692.21
638.438	28653.3
638.632	28518.14
638.825	28309.24
639.019	28468.98
639.212	27801.35
639.406	27883.27
639.599	27727.62
639.793	27522.82
639.986	27219.72
640.18	27117.32
640.373	27311.88
640.567	26832.66
640.76	27131.66
640.954	26513.17
641.147	26455.83
641.34	26216.22
641.534	26025.76
641.727	25720.61
641.92	26060.57
642.114	25323.3
642.307	25413.41
642.5	25493.29
642.694	24583.99
642.887	24753.97
643.08	24846.13
643.273	24489.78
643.467	24037.18
643.66	23736.13
643.853	23639.87
644.046	23648.07
644.239	23613.25
644.432	23318.34
644.626	22882.13
644.819	22736.72
645.012	23056.2
645.205	23019.34
645.398	22542.16
645.591	22327.13
645.784	22052.7
645.977	21864.29
646.17	21925.72
646.363	21675.87
646.556	21219.17
646.749	21319.53
646.942	21337.96
647.135	20883.31
647.328	20807.53
647.521	20686.7
647.714	20285.3
647.907	20393.84
648.099	20086.65
648.292	20412.28
648.485	19902.33
648.678	19531.65
648.871	19580.8
649.064	19306.37
649.256	19263.36
649.449	18939.79
649.642	18984.84
649.835	19003.27
650.027	18710.41
650.22	18571.15
650.413	18677.65
650.605	18818.96
650.798	18435.99
650.991	18083.73
651.183	18409.36
651.376	18116.5
651.568	17969.05
651.761	17678.24
651.954	17803.16
652.146	17659.81
652.339	17776.54
652.531	17555.36
652.724	17401.76
652.916	17463.2
653.109	16848.81
653.301	17266.6
653.494	17270.69
653.686	16863.15
653.879	17043.37
654.071	16793.51
654.263	16607.15
654.456	16760.75
654.648	16611.25
654.84	16267.19
655.033	16304.05
655.225	16531.37
655.417	15941.56
655.61	16091.06
655.802	16334.77
655.994	15972.28
656.186	15708.09
656.379	15552.45
656.571	15681.47
656.763	15249.35
656.955	15103.94
657.148	15171.52
657.34	15470.53
657.532	15181.76
657.724	14839.75
657.916	14858.18
658.108	15038.41
658.3	14716.87
658.492	14647.24
658.684	14360.53
658.876	14503.89
659.068	14309.33
659.26	13744.09
659.452	13774.81
659.644	13965.27
659.836	14137.3
660.028	13637.59
660.22	13264.86
660.412	13477.85
660.604	13256.67
660.796	13209.57
660.988	12883.94
661.18	12945.38
661.372	12963.81
661.563	12662.76
661.755	12224.5
661.947	12679.15
662.139	12283.89
662.331	12480.49
662.522	12287.98
662.714	12275.7
662.906	11925.49
663.097	11712.5
663.289	11505.66
663.481	11540.47
663.673	11513.85
663.864	11468.8
664.056	11378.69
664.247	11069.44
664.439	11046.91
664.631	10915.84
664.822	10795.01
665.014	11003.91
665.205	10469.39
665.397	10207.25
665.588	10397.71
665.78	10686.47
665.971	10450.96
666.163	10188.82
666.354	9891.86
666.546	9975.83
666.737	10024.98
666.929	9887.76
667.12	9730.07
667.311	9891.86
667.503	9613.34
667.694	9601.05
667.885	9433.11
668.077	9601.05
668.268	9197.6
668.459	9218.08
668.651	9293.85
668.842	9263.13
669.033	9005.09
669.224	8951.84
669.416	9044
669.607	8769.57
669.798	8757.29
669.989	8691.75
670.18	8458.28
670.371	8699.94
670.563	8312.88
670.754	8421.42
670.945	8331.31
671.136	8695.85
671.327	8144.94
671.518	8224.81
671.709	8181.81
671.9	8525.86
672.091	8253.48
672.282	8161.33
672.473	7893.04
672.664	8032.3
672.855	8015.92
673.046	7804.98
673.237	7835.7
673.428	7966.77
673.619	7854.13
673.809	7657.53
674	7645.24
674.191	7917.62
674.382	7651.38
674.573	7514.17
674.764	7721.01
674.954	7850.03
675.145	7600.18
675.336	7266.36
675.527	7393.34
675.717	7487.54
675.908	7462.97
676.099	7260.22
676.289	7215.16
676.48	7082.05
676.671	7462.97
676.861	7069.76
677.052	7219.26
677.243	7163.97
677.433	7241.79
677.624	7147.58
677.814	7184.45
678.005	7120.96
678.195	7313.47
678.386	7133.25
678.576	7016.51
678.767	7116.86
678.957	7194.68
679.148	7280.7
679.338	7077.95
679.529	7366.71
679.719	7018.56
679.909	7319.61
680.1	7125.05
680.29	7364.67
680.481	7008.32
680.671	7120.96
680.861	7080
681.052	7321.66
681.242	7020.61
681.432	7395.39
681.622	7082.05
681.813	7206.97
682.003	7436.35
682.193	7186.49
682.383	7262.27
682.573	7532.6
682.764	7436.35
682.954	7559.22
683.144	7700.53
683.334	7465.02
683.524	7530.55
683.714	7551.03
683.904	7700.53
684.094	7829.56
684.284	7829.56
684.474	8013.87
684.664	7813.17
684.854	8077.36
685.044	7858.23
685.234	8067.12
685.424	7962.67
685.614	8056.88
685.804	8427.56
685.994	8292.4
686.184	8507.43
686.374	8583.21
686.564	8587.3
686.753	8591.4
686.943	8673.32
687.133	8761.38
687.323	8831.01
687.513	8761.38
687.702	8888.36
687.892	9039.9
688.082	9195.55
688.272	9078.82
688.461	9328.67
688.651	9531.42
688.841	9527.32
689.03	9535.51
689.22	9662.49
689.41	9981.97
689.599	9906.2
689.789	9752.6
689.979	9918.48
690.168	10078.22
690.358	10260.49
690.547	10166.29
690.737	10186.77
690.926	10532.87
691.116	10539.02
691.305	10696.71
691.495	10516.49
691.684	10739.72
691.874	10948.61
692.063	10833.93
692.252	11149.31
692.442	11270.14
692.631	11214.85
692.82	11059.2
693.01	11325.44
693.199	11614.2
693.388	11628.54
693.578	11671.54
693.767	11880.44
693.956	11991.03
694.146	11859.96
694.335	11950.07
694.524	11966.45
694.713	12380.14
694.902	12335.09
695.092	12382.19
695.281	12214.26
695.47	12441.58
695.659	12312.56
695.848	12369.9
696.037	12410.86
696.226	12840.93
696.415	12720.1
696.604	12828.65
696.793	12695.53
696.982	13029.35
697.171	13242.34
697.36	12906.47
697.549	12765.16
697.738	13101.03
697.927	13144.03
698.116	13010.92
698.305	13207.52
698.494	13422.56
698.683	13359.07
698.872	13357.02
699.061	13230.05
699.25	13338.59
699.438	13553.63
699.627	13412.32
699.816	13498.33
700.005	13463.52
700.193	13637.59
700.382	13688.79
700.571	13533.15
700.76	13729.75
700.948	13750.23
701.137	13381.6
701.326	13789.14
701.514	13535.2
701.703	13899.73
701.892	13395.93
702.08	13838.3
702.269	13889.49
702.457	13619.16
702.646	13844.44
702.834	13481.95
703.023	13975.51
703.212	14032.85
703.4	13590.49
703.589	13518.81
703.777	13842.39
703.965	13674.46
704.154	13557.72
704.342	13567.96
704.531	13830.1
704.719	13619.16
704.907	13688.79
705.096	13479.9
705.284	13678.55
705.472	13703.13
705.661	13731.8
705.849	13713.37
706.037	14100.44
706.226	13584.35
706.414	13774.81
706.602	13281.25
706.79	13717.47
706.979	13348.83
707.167	13524.96
707.355	13242.34
707.543	13590.49
707.731	13705.18
707.919	13621.21
708.107	13234.14
708.296	13299.68
708.484	13262.82
708.672	13098.98
708.86	13199.33
709.048	13219.81
709.236	13281.25
709.424	13119.46
709.612	13107.17
709.8	12982.24
709.988	13105.12
710.176	13334.5
710.364	12974.05
710.551	12967.91
710.739	12855.27
710.927	12781.54
711.115	12730.34
711.303	13033.44
711.491	13053.92
711.679	12554.22
711.866	12883.94
712.054	12885.99
712.242	12799.98
712.43	12773.35
712.617	12611.56
712.805	12816.36
712.993	12460.01
713.181	12193.78
713.368	12382.19
713.556	12589.03
713.744	12187.63
713.931	12703.72
714.119	12173.3
714.306	12580.84
714.494	12363.76
714.682	12242.93
714.869	11716.6
715.057	12255.22
715.244	11671.54
715.432	11898.87
715.619	11685.88
715.807	11986.93
715.994	11710.46
716.182	11692.02
716.369	12021.75
716.556	11999.22
716.744	11403.26
716.931	11481.08
717.119	11569.15
717.306	11827.19
717.493	11575.29
717.681	11456.51
717.868	11427.84
718.055	11513.85
718.242	11335.68
718.43	11057.15
718.617	11227.14
718.804	11202.56
718.991	11223.04
719.179	11149.31
719.366	10799.11
719.553	11210.75
719.74	10999.81
719.927	10938.37
720.114	10760.2
720.301	10680.33
720.488	10555.4
720.676	10332.17
720.863	10651.66
721.05	11024.39
721.237	10764.29
721.424	10469.39
721.611	10295.31
721.798	10412.04
721.985	10020.88
722.172	10098.7
722.358	10059.79
722.545	10467.34
722.732	10031.12
722.919	10385.42
723.106	10022.93
723.293	9969.68
723.48	10270.73
723.667	9809.94
723.853	9783.32
724.04	10108.94
724.227	10002.45
724.414	9687.06
724.6	9742.36
724.787	9775.13
724.974	10000.4
725.161	9820.18
725.347	9242.65
725.534	9852.95
725.72	9572.38
725.907	9093.15
726.094	9379.87
726.28	9179.17
726.467	9300
726.653	9095.2
726.84	9193.5
727.027	9410.59
727.213	9052.19
727.4	8978.47
727.586	8914.98
727.773	9185.31
727.959	8779.81
728.145	8935.46
728.332	9017.38
728.518	8796.2
728.705	8935.46
728.891	8638.5
729.077	8652.84
729.264	8593.45
729.45	8482.86
729.636	8679.46
729.823	8429.61
730.009	8648.74
730.195	8708.13
730.382	8292.4
730.568	8425.51
730.754	8611.88
730.94	8308.78
731.126	8482.86
731.313	8255.53
731.499	8376.36
731.685	8472.62
731.871	8382.51
732.057	8208.43
732.243	8228.91
732.429	8185.9
732.615	8138.8
732.801	7934
732.987	8034.35
733.173	7905.33
733.359	8011.82
733.545	7925.81
733.731	7929.91
733.917	8071.22
734.103	7813.17
734.289	7710.77
734.475	7802.93
734.661	8069.17
734.847	7522.36
735.033	7415.87
735.219	7925.81
735.404	7546.94
735.59	7426.11
735.776	7233.6
735.962	7712.82
736.148	7694.39
736.333	7485.5
736.519	7327.8
736.705	7432.25
736.89	7108.67
737.076	7020.61
737.262	7016.51
737.447	7211.07
737.633	7032.9
737.819	7123.01
738.004	6926.4
738.19	7069.76
738.375	6944.83
738.561	7116.86
738.747	6688.84
738.932	6774.85
739.118	7172.16
739.303	6821.95
739.489	6830.15
739.674	6756.42
739.859	6688.84
740.045	6639.69
740.23	6664.26
740.416	6463.56
740.601	6862.91
740.786	6557.77
740.972	6340.68
741.157	6697.03
741.342	6467.66
741.528	6608.97
741.713	6434.89
741.898	6340.68
742.084	6318.15
742.269	6410.31
742.454	6275.15
742.639	6410.31
742.824	6185.04
743.01	6277.19
743.195	6082.64
743.38	6246.48
743.565	5937.23
743.75	5867.6
743.935	5892.18
744.12	6287.43
744.305	5879.89
744.49	5800.02
744.675	5767.25
744.86	5863.51
745.045	6045.77
745.23	5685.33
745.415	5492.82
745.6	6182.99
745.785	5644.37
745.97	5654.61
746.155	5503.06
746.34	5681.24
746.525	5458.01
746.71	5501.01
746.895	5259.35
747.079	5283.93
747.264	5308.51
747.449	5396.57
747.634	5085.28
747.819	5404.76
748.003	5136.48
748.188	5068.89
748.373	5156.96
748.557	5060.7
748.742	5214.3
748.927	4993.12
749.111	4939.87
749.296	5032.03
749.481	5062.75
749.665	5163.1
749.85	4839.52
750.034	4986.97
750.219	4927.58
750.404	4608.1
750.588	4614.24
750.773	4575.33
750.957	4771.94
751.141	4522.09
751.326	4601.96
751.51	4649.06
751.695	4649.06
751.879	4436.07
752.064	4468.84
752.248	4546.66
752.432	4687.97
752.617	4356.2
752.801	4460.65
752.985	4368.49
753.17	4479.08
753.354	4208.75
753.538	4403.3
753.722	4124.78
753.907	3993.71
754.091	3864.69
754.275	4147.31
754.459	4020.33
754.643	4018.29
754.828	4006
755.012	3854.45
755.196	3938.41
755.38	3983.47
755.564	3866.74
755.748	3938.41
755.932	4053.1
756.116	4028.53
756.3	3838.06
756.484	3702.9
756.668	3948.65
756.852	3680.37
757.036	3696.75
757.22	3577.97
757.404	3494.01
757.588	3631.22
757.772	3594.36
757.956	3522.68
758.14	3799.15
758.323	3434.61
758.507	3412.09
758.691	3391.61
758.875	3545.2
759.059	3657.84
759.242	3221.63
759.426	3190.91
759.61	3436.66
759.794	3242.11
759.977	3190.91
760.161	3561.59
760.345	3412.09
760.528	3364.98
760.712	3070.08
760.895	3043.45
761.079	3151.99
761.263	3033.21
761.446	2859.14
761.63	2863.23
761.813	3117.18
761.997	2904.19
762.18	2914.43
762.364	2994.3
762.547	2779.26
762.731	2959.49
762.914	2979.97
763.098	2715.78
763.281	2859.14
763.464	2693.25
763.648	2873.47
763.831	2750.59
764.015	2752.64
764.198	2877.57
764.381	2795.65
764.564	2658.43
764.748	2797.7
764.931	2900.09
765.114	2674.82
765.297	2857.09
765.481	2726.02
765.664	2830.46
765.847	2656.39
766.03	2750.59
766.213	2674.82
766.397	2721.92
766.58	2723.97
766.763	2769.02
766.946	2875.52
767.129	2742.4
767.312	2744.45
767.495	2664.58
767.678	2652.29
767.861	2773.12
768.044	2510.98
768.227	2588.8
768.41	2787.46
768.593	2771.07
768.776	2699.39
768.959	2674.82
769.142	2873.47
769.324	2713.73
769.507	2541.7
769.69	2494.6
769.873	2609.28
770.056	2971.77
770.239	2588.8
770.421	2597
770.604	2707.59
770.787	2586.76
770.97	2498.69
771.152	2379.91
771.335	2678.91
771.518	2326.66
771.7	2429.06
771.883	2613.38
772.066	2494.6
772.248	2652.29
772.431	2422.92
772.613	2504.84
772.796	2408.58
772.978	2510.98
773.161	2467.97
773.343	2261.13
773.526	2312.33
773.708	2306.18
773.891	2254.98
774.073	2306.18
774.256	2275.46
774.438	2656.39
774.621	2171.02
774.803	2273.42
774.985	2224.26
775.168	2320.52
775.35	2234.5
775.532	2211.98
775.715	2293.9
775.897	2437.25
776.079	2244.74
776.261	2363.53
776.444	2222.22
776.626	2199.69
776.808	2101.39
776.99	1841.29
777.173	2203.79
777.355	2064.52
777.537	2021.52
777.719	1966.22
777.901	2066.57
778.083	2029.71
778.265	1835.15
778.447	2048.14
778.629	1863.82
778.811	2019.47
778.993	1931.41
779.175	1874.06
779.357	1968.27
779.539	1722.51
779.721	1933.45
779.903	1867.92
780.085	2039.95
780.267	1935.5
780.449	1749.14
780.631	1878.16
780.812	1890.45
780.994	1771.66
781.176	1679.51
781.358	1679.51
781.54	1855.63
781.721	1849.49
781.903	1579.15
782.085	1646.74
782.267	1880.21
782.448	1613.97
782.63	1548.44
782.812	1618.07
782.993	1792.14
783.175	1779.86
783.357	1482.9
783.538	1650.83
783.72	1618.07
783.901	1513.62
784.083	1597.59
784.264	1521.81
784.446	1374.36
784.627	1427.6
784.809	1515.67
784.99	1370.26
785.172	1695.89
785.353	1462.42
785.535	1394.84
785.716	1345.69
785.897	1364.12
786.079	1460.37
786.26	1353.88
786.441	1355.93
786.623	1167.51
786.804	1362.07
786.985	1349.78
787.167	1319.06
787.348	1347.73
787.529	1376.41
787.71	1251.48
787.891	1409.17
788.073	1380.5
788.254	1089.69
788.435	1331.35
788.616	1259.67
788.797	1218.71
788.978	1208.47
789.159	1110.17
789.34	1317.01
789.522	1302.68
789.703	1132.7
789.884	1167.51
790.065	1200.28
790.246	1290.39
790.427	1171.61
790.607	1128.6
790.788	1077.4
790.969	1011.87
791.15	1290.39
791.331	1007.77
791.512	1022.11
791.693	1009.82
791.874	960.67
792.054	1261.72
792.235	1013.92
792.416	1063.07
792.597	1106.07
792.778	1136.79
792.958	954.52
793.139	1134.75
793.32	1013.92
793.5	860.32
793.681	1065.11
793.862	1079.45
794.042	970.91
794.223	757.92
794.404	897.18
794.584	700.58
794.765	872.61
794.945	995.48
795.126	925.85
795.306	1071.26
795.487	882.85
795.667	839.84
795.848	821.41
796.028	915.61
796.209	938.14
796.389	1003.68
796.57	790.69
796.75	719.01
796.93	891.04
797.111	841.89
797.291	739.49
797.471	907.42
797.652	903.32
797.832	821.41
798.012	843.93
798.192	911.52
798.373	649.38
798.553	852.13
798.733	925.85
798.913	800.93
799.093	807.07
799.274	829.6
799.454	866.46
799.634	946.33
799.814	958.62
799.994	809.12
800.174	837.79
800.354	919.71
800.534	596.13
800.714	800.93
800.894	563.36
801.074	575.65
801.254	659.62
801.434	764.06
801.614	610.47
801.794	651.42
801.974	4937.82
802.154	594.08
802.334	841.89
802.514	719.01
802.693	686.24
802.873	600.23
803.053	782.49
803.233	784.54
803.413	745.63
803.592	538.79
803.772	655.52
803.952	825.5
804.131	473.25
804.311	737.44
804.491	716.96
804.67	546.98
804.85	557.22
805.03	678.05
805.209	774.3
805.389	635.04
805.568	700.58
805.748	653.47
805.928	663.71
806.107	702.62
806.287	731.3
806.466	665.76
806.646	690.34
806.825	673.95
807.004	551.07
807.184	659.62
807.363	639.14
807.543	725.15
807.722	483.49
807.901	694.43
808.081	585.89
808.26	340.13
808.439	602.27
808.619	434.34
808.798	530.59
808.977	696.48
809.156	858.27
809.336	551.07
809.515	639.14
809.694	536.74
809.873	471.2
810.052	485.54
810.231	616.61
810.411	585.89
810.59	712.86
810.769	553.12
810.948	485.54
811.127	338.09
811.306	512.16
811.485	417.96
811.664	612.51
811.843	626.85
812.022	604.32
812.201	467.11
812.38	438.44
812.559	405.67
812.737	571.55
812.916	274.6
813.095	348.33
813.274	575.65
813.453	585.89
813.632	465.06
813.811	571.55
813.989	313.51
814.168	589.99
814.347	293.03
814.526	313.51
814.704	716.96
814.883	702.62
815.062	333.99
815.24	358.57
815.419	399.52
815.598	632.99
815.776	258.21
815.955	340.13
816.133	184.49
816.312	587.94
816.49	245.93
816.669	336.04
816.847	432.29
817.026	510.11
817.204	383.14
817.383	342.18
817.561	319.65
817.74	540.83
817.918	356.52
818.097	276.65
818.275	401.57
818.453	510.11
818.632	465.06
818.81	405.67
818.988	372.9
819.167	372.9
819.345	397.48
819.523	243.88
819.701	417.96
819.879	522.4
820.058	479.4
820.236	303.27
820.414	463.01
820.592	352.42
820.77	333.99
820.948	309.41
821.127	417.96
821.305	506.02
821.483	250.02
821.661	432.29
821.839	508.07
822.017	305.32
822.195	252.07
822.373	348.33
822.551	460.96
822.729	463.01
822.907	295.08
823.085	432.29
823.262	428.2
823.44	342.18
823.618	354.47
823.796	348.33
823.974	391.33
824.152	284.84
824.329	307.37
824.507	327.85
824.685	489.64
824.863	407.72
825.04	270.5
825.218	237.74
825.396	397.48
825.574	448.68
825.751	327.85
825.929	196.78
826.107	233.64
826.284	424.1
826.462	354.47
826.639	174.25
826.817	252.07
826.994	356.52
827.172	190.63
827.349	284.84
827.527	338.09
827.704	299.17
827.882	413.86
828.059	207.02
828.237	258.21
828.414	485.54
828.591	-22.36
828.769	379.04
828.946	182.44
829.124	514.21
829.301	411.81
829.478	168.1
829.655	405.67
829.833	340.13
830.01	57.51
830.187	397.48
830.364	383.14
830.542	395.43
830.719	258.21
830.896	368.81
831.073	422.05
831.25	370.85
831.427	172.2
831.604	258.21
831.782	305.32
831.959	383.14
832.136	237.74
832.313	360.61
832.49	239.78
832.667	315.56
832.844	198.82
833.021	383.14
833.198	270.5
833.374	299.17
833.551	250.02
833.728	198.82
833.905	436.39
834.082	22.7
834.259	333.99
834.436	315.56
834.612	211.11
834.789	405.67
834.966	264.36
835.143	241.83
835.319	202.92
835.496	393.38
835.673	227.5
835.85	340.13
836.026	473.25
836.203	446.63
836.38	168.1
836.556	135.34
836.733	327.85
836.909	463.01
837.086	217.26
837.262	61.61
837.439	282.79
837.616	172.2
837.792	313.51
837.968	196.78
838.145	32.94
838.321	280.74
838.498	225.45
838.674	358.57
838.851	350.37
839.027	219.3
839.203	237.74
839.38	311.46
839.556	221.35
839.732	348.33
839.909	127.14
840.085	164.01
840.261	168.1
840.437	368.81
840.614	252.07
840.79	260.26
840.966	456.87
841.142	315.56
841.318	186.54
841.494	186.54
841.671	448.68
841.847	41.13
842.023	186.54
842.199	243.88
842.375	495.78
842.551	-3.93
842.727	123.05
842.903	362.66
843.079	174.25
843.255	426.15
843.431	129.19
843.607	260.26
843.783	-12.12
843.959	393.38
844.134	143.53
844.31	344.23
844.486	297.13
844.662	200.87
844.838	168.1
845.013	143.53
845.189	440.48
845.365	290.98
845.541	192.68
845.716	282.79
845.892	434.34
846.068	151.72
846.244	161.96
846.419	141.48
846.595	131.24
846.77	139.43
846.946	297.13
847.122	190.63
847.297	258.21
847.473	530.59
847.648	55.47
847.824	176.3
847.999	6.31
848.175	286.89
848.35	338.09
848.526	299.17
848.701	370.85
848.876	372.9
849.052	407.72
849.227	211.11
849.403	229.54
849.578	270.5
849.753	192.68
849.929	233.64
850.104	82.09
850.279	239.78
850.454	254.12
850.63	250.02
850.805	313.51
850.98	327.85
851.155	151.72
851.33	186.54
851.505	43.18
851.681	342.18
851.856	73.9
852.031	166.06
852.206	331.94
852.381	114.86
852.556	137.38
852.731	88.23
852.906	336.04
853.081	190.63
853.256	237.74
853.431	184.49
853.606	225.45
853.781	155.82
853.956	69.8
854.131	174.25
854.305	73.9
854.48	102.57
854.655	135.34
854.83	41.13
855.005	190.63
855.18	295.08
855.354	118.95
855.529	174.25
855.704	211.11
855.879	301.22
856.053	53.42
856.228	198.82
856.403	16.55
856.577	432.29
856.752	-16.21
856.926	188.58
857.101	200.87
857.276	75.95
857.45	268.45
857.625	233.64
857.799	250.02
857.974	221.35
858.148	-8.02
858.323	155.82
858.497	209.06
858.672	77.99
858.846	147.62
859.02	266.41
859.195	180.39
859.369	139.43
859.543	225.45
859.718	202.92
859.892	331.94
860.066	266.41
860.241	110.76
860.415	106.67
860.589	170.15
860.763	250.02
860.938	114.86
861.112	106.67
861.286	209.06
861.46	260.26
861.634	137.38
861.808	219.3
861.982	104.62
862.157	92.33
862.331	14.51
862.505	0.17
862.679	57.51
862.853	186.54
863.027	151.72
863.201	274.6
863.375	161.96
863.549	252.07
863.722	278.69
863.896	233.64
864.07	135.34
864.244	225.45
864.418	237.74
864.592	161.96
864.766	274.6
864.939	225.45
865.113	47.27
865.287	297.13
865.461	73.9
865.634	233.64
865.808	82.09
865.982	125.1
866.156	139.43
866.329	16.55
866.503	90.28
866.676	184.49
866.85	194.73
867.024	172.2
867.197	299.17
867.371	172.2
867.544	317.61
867.718	10.41
867.891	250.02
868.065	53.42
868.238	235.69
868.412	336.04
868.585	196.78
868.759	90.28
868.932	145.58
869.105	53.42
869.279	219.3
869.452	88.23
869.625	370.85
869.799	121
869.972	10.41
870.145	61.61
870.319	370.85
870.492	170.15
870.665	157.86
870.838	14.51
871.011	-153.43
871.185	153.77
871.358	112.81
871.531	247.97
871.704	184.49
871.877	211.11
872.05	65.71
872.223	-18.26
872.396	458.92
872.569	217.26
872.742	43.18
872.915	196.78
873.088	200.87
873.261	86.19
873.434	252.07
873.607	18.6
873.78	338.09
873.953	39.08
874.126	86.19
874.299	118.95
874.471	116.9
874.644	161.96
874.817	231.59
874.99	344.23
875.163	143.53
875.335	235.69
875.508	98.47
875.681	237.74
875.853	227.5
876.026	192.68
876.199	168.1
876.371	174.25
876.544	164.01
876.717	151.72
876.889	86.19
877.062	237.74
877.234	14.51
877.407	166.06
877.579	131.24
877.752	65.71
877.924	333.99
878.097	278.69
878.269	172.2
878.442	196.78
878.614	225.45
878.786	180.39
878.959	67.75
879.131	143.53
879.303	-48.98
879.476	200.87
879.648	254.12
879.82	59.56
879.993	88.23
880.165	2.22
880.337	-67.41
880.509	186.54
880.681	63.66
880.854	84.14
881.026	239.78
881.198	211.11
881.37	180.39
881.542	153.77
881.714	159.91
881.886	63.66
882.058	227.5
882.23	127.14
882.402	100.52
882.574	166.06
882.746	358.57
882.918	364.71
883.09	209.06
883.262	86.19
883.434	243.88
883.606	-3.93
883.778	71.85
883.95	204.97
884.122	77.99
884.293	315.56
884.465	168.1
884.637	192.68
884.809	92.33
884.98	207.02
885.152	217.26
885.324	170.15
885.496	147.62
885.667	161.96
885.839	53.42
886.011	112.81
886.182	346.28
886.354	290.98
886.525	209.06
886.697	51.37
886.869	100.52
887.04	192.68
887.212	295.08
887.383	280.74
887.555	194.73
887.726	73.9
887.897	71.85
888.069	96.43
888.24	274.6
888.412	219.3
888.583	41.13
888.754	8.36
888.926	51.37
889.097	45.23
889.268	65.71
889.44	77.99
889.611	-34.64
889.782	118.95
889.953	10.41
890.125	209.06
890.296	55.47
890.467	141.48
890.638	63.66
890.809	-3.93
890.98	149.67
891.151	282.79
891.323	307.37
891.494	24.75
891.665	229.54
891.836	55.47
892.007	153.77
892.178	190.63
892.349	194.73
892.52	37.03
892.691	184.49
892.862	110.76
893.032	-98.13
893.203	88.23
893.374	147.62
893.545	209.06
893.716	161.96
893.887	256.17
894.057	-3.93
894.228	30.89
894.399	133.29
894.57	323.75
894.74	176.3
894.911	192.68
895.082	135.34
895.253	127.14
895.423	204.97
895.594	272.55
895.764	264.36
895.935	-32.6
896.106	168.1
896.276	65.71
896.447	213.16
896.617	49.32
896.788	37.03
896.958	39.08
897.129	159.91
897.299	30.89
897.47	217.26
897.64	96.43
897.81	131.24
897.981	227.5
898.151	71.85
898.322	77.99
898.492	207.02
898.662	12.46
898.832	151.72
899.003	51.37
899.173	268.45
899.343	10.41
899.513	8.36
