Data from USB4F104151__26__12-17-11-644.txt Node

Date: Wed Feb 19 12:17:11 EST 2025
User: louis
Spectrometer: USB4F10415
Trigger mode: 4
Integration Time (sec): 2.250200E-1
Scans to average: 1
Electric dark correction enabled: true
Nonlinearity correction enabled: false
Boxcar width: 0
XAxis mode: Wavelengths
Number of Pixels in Spectrum: 3648
>>>>>Begin Spectral Data<<<<<
178.204	-806.9
178.424	-806.9
178.644	-806.9
178.864	-800.76
179.084	-821.24
179.304	124.93
179.524	100.35
179.744	-47.1
179.964	-174.08
180.184	129.02
180.404	143.36
180.624	-249.85
180.844	-92.16
181.064	2.05
181.283	231.42
181.503	-94.21
181.723	-73.73
181.943	-106.49
182.163	411.64
182.383	-196.61
182.602	-120.83
182.822	464.89
183.042	301.05
183.262	-215.04
183.482	-145.41
183.701	258.04
183.921	243.71
184.141	-159.74
184.361	-116.73
184.58	229.37
184.8	229.37
185.02	-262.14
185.239	-61.44
185.459	282.62
185.679	462.84
185.898	-241.66
186.118	-172.03
186.338	339.96
186.557	329.72
186.777	-233.47
186.997	-165.89
187.216	288.76
187.436	456.7
187.655	-116.73
187.875	-81.92
188.095	219.13
188.314	372.73
188.534	-24.58
188.753	-315.39
188.973	319.48
189.192	520.18
189.412	-169.98
189.631	-151.55
189.851	368.63
190.07	493.56
190.29	-159.74
190.509	-198.65
190.729	225.28
190.948	446.46
191.168	-69.63
191.387	-206.84
191.607	122.88
191.826	321.53
192.045	-83.97
192.265	-176.13
192.484	385.02
192.704	280.57
192.923	-141.31
193.142	-49.15
193.362	311.29
193.581	374.78
193.8	-90.11
194.02	-86.01
194.239	147.45
194.458	305.15
194.678	-106.49
194.897	-178.17
195.116	233.47
195.335	278.52
195.555	-112.64
195.774	-253.95
195.993	364.54
196.212	186.37
196.432	-124.93
196.651	-151.55
196.87	200.7
197.089	602.1
197.308	-118.78
197.528	-118.78
197.747	47.1
197.966	178.17
198.185	-20.48
198.404	-215.04
198.623	274.43
198.842	421.88
199.062	-90.11
199.281	-67.58
199.5	245.76
199.719	337.91
199.938	-174.08
200.157	-75.77
200.376	430.07
200.595	325.63
200.814	-75.77
201.033	-157.69
201.252	471.03
201.471	339.96
201.69	-167.93
201.909	-86.01
202.128	362.49
202.347	339.96
202.566	-59.39
202.785	-260.09
203.004	190.46
203.223	565.24
203.442	-112.64
203.661	-272.38
203.879	262.14
204.098	327.67
204.317	-210.94
204.536	22.53
204.755	358.39
204.974	307.2
205.193	-331.77
205.411	-65.54
205.63	450.55
205.849	258.04
206.068	-143.36
206.287	-280.57
206.505	425.98
206.724	178.17
206.943	-231.42
207.162	-157.69
207.381	247.8
207.599	290.81
207.818	-18.43
208.037	-262.14
208.255	167.93
208.474	331.77
208.693	-90.11
208.911	-141.31
209.13	358.39
209.349	313.34
209.567	16.38
209.786	-149.5
210.005	309.24
210.223	202.75
210.442	-319.48
210.661	-202.75
210.879	299
211.098	212.99
211.316	-147.45
211.535	-145.41
211.753	294.91
211.972	370.68
212.191	-118.78
212.409	-79.87
212.628	395.26
212.846	161.79
213.065	-270.33
213.283	-77.82
213.502	278.52
213.72	245.76
213.938	-169.98
214.157	-192.51
214.375	348.15
214.594	163.84
214.812	-8.19
215.031	-180.22
215.249	303.1
215.467	241.66
215.686	-2.05
215.904	-96.25
216.122	307.2
216.341	409.59
216.559	-4.1
216.778	-94.21
216.996	438.27
217.214	243.71
217.432	-176.13
217.651	-241.66
217.869	288.76
218.087	169.98
218.306	-204.8
218.524	-169.98
218.742	143.36
218.96	450.55
219.179	-231.42
219.397	-147.45
219.615	557.05
219.833	356.35
220.051	-217.08
220.27	-71.68
220.488	423.93
220.706	245.76
220.924	-249.85
221.142	-186.37
221.36	319.48
221.578	327.67
221.796	-182.27
222.015	-61.44
222.233	342.01
222.451	481.27
222.669	-83.97
222.887	6.14
223.105	153.6
223.323	178.17
223.541	-94.21
223.759	-75.77
223.977	264.19
224.195	446.46
224.413	-135.17
224.631	-172.03
224.849	315.39
225.067	438.27
225.285	-67.58
225.503	-86.01
225.721	-2.05
225.939	245.76
226.157	-102.4
226.375	6.14
226.592	243.71
226.81	215.04
227.028	43.01
227.246	-131.07
227.464	229.37
227.682	260.09
227.9	-73.73
228.117	-94.21
228.335	333.82
228.553	258.04
228.771	-194.56
228.989	-116.73
229.206	325.63
229.424	192.51
229.642	-77.82
229.86	-180.22
230.077	438.27
230.295	188.41
230.513	-59.39
230.731	-137.21
230.948	464.89
231.166	403.45
231.384	-77.82
231.601	-124.93
231.819	507.9
232.037	75.77
232.254	-92.16
232.472	-149.5
232.689	169.98
232.907	417.79
233.125	-229.37
233.342	-188.41
233.56	182.27
233.777	208.89
233.995	-92.16
234.213	-114.69
234.43	270.33
234.648	258.04
234.865	-118.78
235.083	-108.54
235.3	249.85
235.518	323.58
235.735	-104.45
235.953	-86.01
236.17	251.9
236.388	208.89
236.605	61.44
236.822	-77.82
237.04	352.25
237.257	208.89
237.475	-122.88
237.692	-151.55
237.909	311.29
238.127	153.6
238.344	14.34
238.562	-104.45
238.779	94.21
238.996	69.63
239.214	8.19
239.431	-116.73
239.648	143.36
239.865	292.86
240.083	-81.92
240.3	-114.69
240.517	212.99
240.735	202.75
240.952	69.63
241.169	-133.12
241.386	290.81
241.603	159.74
241.821	-161.79
242.038	-131.07
242.255	342.01
242.472	8.19
242.689	-108.54
242.907	-155.65
243.124	260.09
243.341	184.32
243.558	-104.45
243.775	-141.31
243.992	81.92
244.209	245.76
244.426	-61.44
244.643	-75.77
244.86	192.51
245.078	350.2
245.295	-120.83
245.512	-126.97
245.729	135.17
245.946	331.77
246.163	-83.97
246.38	-65.54
246.597	253.95
246.814	229.37
247.031	-75.77
247.248	-124.93
247.464	307.2
247.681	129.02
247.898	-30.72
248.115	-47.1
248.332	131.07
248.549	430.07
248.766	-12.29
248.983	-143.36
249.2	376.83
249.417	354.3
249.633	-77.82
249.85	16.38
250.067	190.46
250.284	126.97
250.501	-81.92
250.717	-114.69
250.934	43.01
251.151	210.94
251.368	-67.58
251.585	-106.49
251.801	186.37
252.018	53.25
252.235	-10.24
252.451	-147.45
252.668	202.75
252.885	352.25
253.102	-81.92
253.318	-118.78
253.535	169.98
253.752	116.73
253.968	-24.58
254.185	-151.55
254.401	249.85
254.618	198.65
254.835	-102.4
255.051	-79.87
255.268	296.96
255.484	276.48
255.701	-98.3
255.917	-20.48
256.134	112.64
256.351	229.37
256.567	-184.32
256.784	14.34
257	-26.62
257.217	380.92
257.433	57.34
257.65	-96.25
257.866	331.77
258.082	45.06
258.299	-151.55
258.515	-149.5
258.732	180.22
258.948	163.84
259.165	-77.82
259.381	-223.23
259.597	335.87
259.814	221.18
260.03	-133.12
260.246	-114.69
260.463	323.58
260.679	368.63
260.895	8.19
261.112	-22.53
261.328	206.84
261.544	178.17
261.761	-86.01
261.977	-122.88
262.193	129.02
262.409	321.53
262.626	20.48
262.842	-100.35
263.058	174.08
263.274	352.25
263.49	0
263.707	-217.08
263.923	360.44
264.139	28.67
264.355	26.62
264.571	-59.39
264.787	335.87
265.004	337.91
265.22	-8.19
265.436	-100.35
265.652	196.61
265.868	311.29
266.084	-122.88
266.3	-122.88
266.516	120.83
266.732	229.37
266.948	-38.91
267.164	-178.17
267.38	409.59
267.596	227.32
267.812	59.39
268.028	-26.62
268.244	141.31
268.46	227.32
268.676	-77.82
268.892	-4.1
269.108	-2.05
269.324	12.29
269.54	-141.31
269.756	-14.34
269.972	83.97
270.188	169.98
270.403	-131.07
270.619	-108.54
270.835	249.85
271.051	155.65
271.267	-47.1
271.483	-196.61
271.698	311.29
271.914	245.76
272.13	-49.15
272.346	-106.49
272.562	102.4
272.777	382.97
272.993	-2.05
273.209	-77.82
273.425	278.52
273.64	12.29
273.856	-102.4
274.072	-180.22
274.287	155.65
274.503	327.67
274.719	49.15
274.934	-167.93
275.15	79.87
275.366	174.08
275.581	-153.6
275.797	-108.54
276.012	233.47
276.228	61.44
276.444	-65.54
276.659	90.11
276.875	100.35
277.09	90.11
277.306	53.25
277.521	-40.96
277.737	167.93
277.952	206.84
278.168	-110.59
278.383	-32.77
278.599	135.17
278.814	264.19
279.03	-110.59
279.245	16.38
279.461	245.76
279.676	358.39
279.892	-20.48
280.107	-79.87
280.322	83.97
280.538	249.85
280.753	-86.01
280.969	-43.01
281.184	235.52
281.399	352.25
281.615	-30.72
281.83	65.53
282.045	40.96
282.26	98.3
282.476	-98.3
282.691	75.77
282.906	186.37
283.122	114.69
283.337	22.53
283.552	12.29
283.767	126.97
283.983	243.71
284.198	-24.58
284.413	-26.62
284.628	32.77
284.843	196.61
285.058	-96.25
285.274	-24.58
285.489	116.73
285.704	180.22
285.919	-94.21
286.134	18.43
286.349	151.55
286.564	151.55
286.779	75.77
286.995	-20.48
287.21	-45.06
287.425	258.04
287.64	-43.01
287.855	116.73
288.07	-34.82
288.285	325.63
288.5	-34.82
288.715	-51.2
288.93	233.47
289.145	53.25
289.36	8.19
289.575	-51.2
289.79	323.58
290.004	133.12
290.219	100.35
290.434	-102.4
290.649	75.77
290.864	161.79
291.079	16.38
291.294	-28.67
291.509	253.95
291.724	120.83
291.938	-14.34
292.153	-73.73
292.368	159.74
292.583	303.1
292.798	63.49
293.012	12.29
293.227	196.61
293.442	241.66
293.657	157.69
293.871	8.19
294.086	309.24
294.301	323.58
294.516	26.62
294.73	73.73
294.945	61.44
295.16	176.13
295.374	-14.34
295.589	141.31
295.804	202.75
296.018	98.3
296.233	-47.1
296.447	36.86
296.662	112.64
296.877	399.35
297.091	51.2
297.306	-24.58
297.52	165.89
297.735	253.95
297.949	45.06
298.164	-217.08
298.378	210.94
298.593	-8.19
298.807	-34.82
299.022	2.05
299.236	323.58
299.451	28.67
299.665	53.25
299.88	34.82
300.094	292.86
300.309	110.59
300.523	-12.29
300.737	18.43
300.952	278.52
301.166	217.08
301.381	-8.19
301.595	-75.77
301.809	110.59
302.024	169.98
302.238	-8.19
302.452	153.6
302.667	210.94
302.881	204.8
303.095	-6.14
303.309	122.88
303.524	137.21
303.738	110.59
303.952	49.15
304.166	2.05
304.381	-26.62
304.595	251.9
304.809	22.53
305.023	-61.44
305.237	57.34
305.452	51.2
305.666	-53.25
305.88	143.36
306.094	339.96
306.308	159.74
306.522	-79.87
306.736	94.21
306.95	290.81
307.164	53.25
307.379	73.73
307.593	71.68
307.807	325.63
308.021	276.48
308.235	137.21
308.449	-79.87
308.663	204.8
308.877	464.89
309.091	16.38
309.305	79.87
309.519	18.43
309.733	186.37
309.947	-77.82
310.161	-112.64
310.374	258.04
310.588	372.73
310.802	-133.12
311.016	73.73
311.23	223.23
311.444	22.53
311.658	-94.21
311.872	217.08
312.085	210.94
312.299	329.72
312.513	190.46
312.727	-65.54
312.941	79.87
313.154	217.08
313.368	28.67
313.582	26.62
313.796	227.32
314.009	157.69
314.223	94.21
314.437	88.06
314.651	262.14
314.864	106.49
315.078	20.48
315.292	-20.48
315.505	133.12
315.719	159.74
315.933	102.4
316.146	-61.44
316.36	2.05
316.573	274.43
316.787	219.13
317.001	67.58
317.214	59.39
317.428	233.47
317.641	-24.58
317.855	47.1
318.068	225.28
318.282	184.32
318.495	202.75
318.709	51.2
318.922	174.08
319.136	227.32
319.349	122.88
319.563	20.48
319.776	256
319.99	16.38
320.203	90.11
320.417	-24.58
320.63	180.22
320.843	241.66
321.057	-30.72
321.27	32.77
321.483	272.38
321.697	233.47
321.91	61.44
322.124	49.15
322.337	219.13
322.55	122.88
322.763	137.21
322.977	-139.26
323.19	112.64
323.403	112.64
323.617	43.01
323.83	258.04
324.043	106.49
324.256	204.8
324.469	-167.93
324.683	163.84
324.896	208.89
325.109	155.65
325.322	-118.78
325.535	30.72
325.748	329.72
325.962	163.84
326.175	114.69
326.388	-51.2
326.601	223.23
326.814	147.45
327.027	4.1
327.24	147.45
327.453	0
327.666	227.32
327.879	194.56
328.092	53.25
328.305	278.52
328.518	118.78
328.731	8.19
328.944	10.24
329.157	165.89
329.37	14.34
329.583	131.07
329.796	61.44
330.009	32.77
330.222	237.56
330.435	108.54
330.648	88.06
330.861	235.52
331.073	208.89
331.286	143.36
331.499	4.1
331.712	63.49
331.925	172.03
332.138	55.3
332.35	-26.62
332.563	139.26
332.776	323.58
332.989	0
333.202	-49.15
333.414	186.37
333.627	172.03
333.84	-4.1
334.053	120.83
334.265	75.77
334.478	86.01
334.691	-18.43
334.903	178.17
335.116	40.96
335.329	145.41
335.541	129.02
335.754	292.86
335.966	243.71
336.179	159.74
336.392	38.91
336.604	30.72
336.817	212.99
337.029	258.04
337.242	10.24
337.454	96.25
337.667	296.96
337.88	329.72
338.092	55.3
338.305	73.73
338.517	51.2
338.729	284.67
338.942	26.62
339.154	-129.02
339.367	-30.72
339.579	178.17
339.792	-55.3
340.004	18.43
340.217	223.23
340.429	208.89
340.641	-55.3
340.854	-79.87
341.066	155.65
341.278	331.77
341.491	221.18
341.703	-51.2
341.915	86.01
342.128	247.8
342.34	20.48
342.552	20.48
342.764	106.49
342.977	169.98
343.189	153.6
343.401	137.21
343.613	65.53
343.826	151.55
344.038	-2.05
344.25	131.07
344.462	120.83
344.674	202.75
344.886	-153.6
345.099	69.63
345.311	258.04
345.523	110.59
345.735	-120.83
345.947	86.01
346.159	227.32
346.371	262.14
346.583	16.38
346.795	112.64
347.007	65.53
347.219	206.84
347.431	45.06
347.643	147.45
347.855	108.54
348.067	339.96
348.279	-36.86
348.491	2.05
348.703	317.44
348.915	98.3
349.127	28.67
349.339	71.68
349.551	147.45
349.763	346.11
349.975	22.53
350.187	22.53
350.399	417.79
350.61	161.79
350.822	-10.24
351.034	40.96
351.246	327.67
351.458	262.14
351.669	22.53
351.881	-77.82
352.093	292.86
352.305	258.04
352.517	16.38
352.728	98.3
352.94	196.61
353.152	294.91
353.363	75.77
353.575	96.25
353.787	356.35
353.999	192.51
354.21	116.73
354.422	-59.39
354.633	131.07
354.845	264.19
355.057	176.13
355.268	14.34
355.48	378.87
355.692	6.14
355.903	112.64
356.115	-53.25
356.326	-8.19
356.538	368.63
356.749	8.19
356.961	73.73
357.172	225.28
357.384	104.45
357.595	278.52
357.807	-32.77
358.018	57.34
358.23	169.98
358.441	-2.05
358.653	16.38
358.864	135.17
359.075	71.68
359.287	38.91
359.498	73.73
359.709	278.52
359.921	241.66
360.132	43.01
360.344	22.53
360.555	94.21
360.766	206.84
360.977	-86.01
361.189	79.87
361.4	274.43
361.611	225.28
361.823	69.63
362.034	20.48
362.245	22.53
362.456	204.8
362.667	172.03
362.879	-43.01
363.09	256
363.301	235.52
363.512	100.35
363.723	-69.63
363.935	114.69
364.146	364.54
364.357	-20.48
364.568	6.14
364.779	88.06
364.99	315.39
365.201	-4.1
365.412	178.17
365.623	36.86
365.834	268.28
366.045	104.45
366.256	63.49
366.467	339.96
366.678	169.98
366.889	10.24
367.1	94.21
367.311	301.05
367.522	157.69
367.733	75.77
367.944	98.3
368.155	153.6
368.366	268.28
368.577	92.16
368.788	172.03
368.999	49.15
369.209	178.17
369.42	153.6
369.631	425.98
369.842	282.62
370.053	131.07
370.264	92.16
370.474	18.43
370.685	227.32
370.896	163.84
371.107	155.65
371.317	63.49
371.528	198.65
371.739	395.26
371.95	120.83
372.16	63.49
372.371	14.34
372.582	129.02
372.792	-6.14
373.003	114.69
373.214	221.18
373.424	184.32
373.635	-20.48
373.846	149.5
374.056	188.41
374.267	155.65
374.477	131.07
374.688	14.34
374.898	284.67
375.109	233.47
375.319	47.1
375.53	6.14
375.74	311.29
375.951	36.86
376.161	145.41
376.372	43.01
376.582	210.94
376.793	231.42
377.003	-49.15
377.214	-61.44
377.424	284.67
377.635	303.1
377.845	43.01
378.055	153.6
378.266	47.1
378.476	241.66
378.686	16.38
378.897	32.77
379.107	315.39
379.317	286.72
379.528	-24.58
379.738	104.45
379.948	108.54
380.158	251.9
380.369	79.87
380.579	149.5
380.789	165.89
380.999	106.49
381.21	149.5
381.42	200.7
381.63	151.55
381.84	327.67
382.05	34.82
382.261	147.45
382.471	391.16
382.681	112.64
382.891	180.22
383.101	126.97
383.311	40.96
383.521	100.35
383.731	0
383.941	135.17
384.151	268.28
384.361	98.3
384.571	2.05
384.781	94.21
384.991	317.44
385.201	348.15
385.411	124.93
385.621	102.4
385.831	284.67
386.041	235.52
386.251	124.93
386.461	153.6
386.671	247.8
386.881	282.62
387.091	59.39
387.301	98.3
387.511	208.89
387.72	163.84
387.93	112.64
388.14	-10.24
388.35	301.05
388.56	356.35
388.769	79.87
388.979	79.87
389.189	96.25
389.399	147.45
389.609	4.1
389.818	69.63
390.028	233.47
390.238	237.56
390.447	-24.58
390.657	100.35
390.867	204.8
391.076	32.77
391.286	-20.48
391.496	53.25
391.705	217.08
391.915	385.02
392.125	16.38
392.334	104.45
392.544	344.06
392.753	143.36
392.963	71.68
393.172	43.01
393.382	129.02
393.591	436.22
393.801	77.82
394.01	88.06
394.22	309.24
394.429	217.08
394.639	67.58
394.848	86.01
395.058	268.28
395.267	223.23
395.477	167.93
395.686	53.25
395.895	524.28
396.105	354.3
396.314	145.41
396.524	55.3
396.733	61.44
396.942	319.48
397.152	59.39
397.361	202.75
397.57	200.7
397.78	210.94
397.989	165.89
398.198	264.19
398.407	188.41
398.617	118.78
398.826	69.63
399.035	20.48
399.244	325.63
399.453	282.62
399.663	-77.82
399.872	12.29
400.081	210.94
400.29	356.35
400.499	-38.91
400.708	131.07
400.917	219.13
401.127	165.89
401.336	100.35
401.545	315.39
401.754	366.59
401.963	331.77
402.172	83.97
402.381	8.19
402.59	188.41
402.799	206.84
403.008	284.67
403.217	90.11
403.426	233.47
403.635	28.67
403.844	-26.62
404.053	63.49
404.262	149.5
404.471	409.59
404.68	65.53
404.888	53.25
405.097	114.69
405.306	202.75
405.515	147.45
405.724	12.29
405.933	327.67
406.142	219.13
406.35	83.97
406.559	169.98
406.768	196.61
406.977	552.95
407.185	38.91
407.394	153.6
407.603	114.69
407.812	260.09
408.02	157.69
408.229	114.69
408.438	266.24
408.646	94.21
408.855	-40.96
409.064	-20.48
409.272	223.23
409.481	253.95
409.69	36.86
409.898	-53.25
410.107	186.37
410.315	358.39
410.524	45.06
410.733	65.53
410.941	196.61
411.15	372.73
411.358	102.4
411.567	229.37
411.775	237.56
411.984	194.56
412.192	159.74
412.401	-20.48
412.609	458.74
412.818	350.2
413.026	145.41
413.234	12.29
413.443	235.52
413.651	110.59
413.86	-49.15
414.068	268.28
414.276	497.66
414.485	135.17
414.693	159.74
414.901	235.52
415.11	339.96
415.318	217.08
415.526	131.07
415.734	202.75
415.943	268.28
416.151	342.01
416.359	104.45
416.567	120.83
416.776	270.33
416.984	284.67
417.192	186.37
417.4	-2.05
417.608	178.17
417.817	81.92
418.025	167.93
418.233	167.93
418.441	55.3
418.649	116.73
418.857	180.22
419.065	147.45
419.273	169.98
419.481	303.1
419.689	161.79
419.897	45.06
420.105	110.59
420.313	360.44
420.521	145.41
420.729	165.89
420.937	192.51
421.145	71.68
421.353	135.17
421.561	186.37
421.769	337.91
421.977	159.74
422.185	126.97
422.393	92.16
422.601	268.28
422.809	286.72
423.017	118.78
423.224	34.82
423.432	360.44
423.64	196.61
423.848	57.34
424.056	83.97
424.263	401.4
424.471	227.32
424.679	210.94
424.887	79.87
425.094	382.97
425.302	327.67
425.51	55.3
425.718	114.69
425.925	315.39
426.133	159.74
426.341	241.66
426.548	104.45
426.756	155.65
426.964	292.86
427.171	135.17
427.379	129.02
427.586	284.67
427.794	356.35
428.001	225.28
428.209	198.65
428.417	425.98
428.624	315.39
428.832	159.74
429.039	118.78
429.247	241.66
429.454	280.57
429.662	206.84
429.869	176.13
430.076	385.02
430.284	319.48
430.491	196.61
430.699	258.04
430.906	497.66
431.114	346.11
431.321	288.76
431.528	229.37
431.736	354.3
431.943	321.53
432.15	260.09
432.358	212.99
432.565	665.59
432.772	86.01
432.979	288.76
433.187	258.04
433.394	522.23
433.601	319.48
433.808	260.09
434.016	374.78
434.223	321.53
434.43	364.54
434.637	290.81
434.844	333.82
435.052	456.7
435.259	481.27
435.466	315.39
435.673	317.44
435.88	542.71
436.087	559.1
436.294	557.05
436.501	397.31
436.708	454.65
436.915	509.94
437.122	462.84
437.329	299
437.537	407.55
437.743	548.86
437.95	487.42
438.157	489.46
438.364	606.2
438.571	591.86
438.778	346.11
438.985	575.48
439.192	686.07
439.399	694.26
439.606	503.8
439.813	632.82
440.02	899.06
440.227	940.02
440.433	649.21
440.64	587.77
440.847	710.65
441.054	671.73
441.261	733.17
441.467	571.38
441.674	741.36
441.881	888.82
442.088	677.88
442.294	720.88
442.501	995.31
442.708	978.93
442.914	700.41
443.121	776.18
443.328	1093.62
443.534	1167.34
443.741	786.42
443.948	802.8
444.154	1083.38
444.361	1337.32
444.568	1034.22
444.774	997.36
444.981	956.4
445.187	1400.81
445.394	1144.81
445.6	1005.55
445.807	1370.09
446.013	1265.64
446.22	1019.89
446.426	1234.93
446.633	1378.28
446.839	1587.18
447.046	1208.3
447.252	1480.68
447.459	1533.93
447.665	1509.35
447.871	1495.02
448.078	1873.89
448.284	1867.75
448.491	1814.5
448.697	1763.3
448.903	1910.75
449.11	1916.9
449.316	1890.28
449.522	1894.37
449.728	1945.57
449.935	2150.37
450.141	2156.51
450.347	2258.91
450.553	2162.65
450.76	2318.3
450.966	2529.24
451.172	2363.36
451.378	2457.56
451.584	2594.78
451.791	2904.02
451.997	2736.09
452.203	2654.17
452.409	3018.71
452.615	3028.95
452.821	2949.07
453.027	2811.86
453.233	3459.02
453.44	3180.5
453.646	3059.67
453.852	3266.51
454.058	3348.43
454.264	3481.55
454.47	3573.71
454.676	3495.88
454.882	3895.24
455.088	3719.11
455.294	3641.29
455.5	3807.17
455.705	3977.16
455.911	4038.59
456.117	3809.22
456.323	4032.45
456.529	4063.17
456.735	4143.04
456.941	4003.78
457.147	4075.46
457.352	4251.58
457.558	4177.86
457.764	4218.82
457.97	4108.23
458.176	4317.12
458.381	4409.28
458.587	4261.82
458.793	4356.03
458.999	4276.16
459.204	4628.41
459.41	4325.31
459.616	4362.17
459.821	4554.68
460.027	4304.83
460.233	4503.48
460.438	4239.3
460.644	4548.54
460.85	4224.96
461.055	4310.97
461.261	4306.88
461.466	3997.63
461.672	3958.72
461.878	4138.94
462.083	4208.58
462.289	3737.54
462.494	3985.35
462.7	3897.28
462.905	3702.73
463.111	4161.47
463.316	4102.08
463.522	3878.85
463.727	3778.5
463.932	4159.42
464.138	3987.4
464.343	4007.87
464.549	3934.15
464.754	4202.43
464.959	4255.68
465.165	3975.11
465.37	3639.24
465.575	3878.85
465.781	3905.48
465.986	3936.2
466.191	3841.99
466.397	3905.48
466.602	3903.43
466.807	3762.12
467.012	3792.84
467.218	3962.82
467.423	3837.89
467.628	3639.24
467.833	4022.21
468.038	3893.19
468.244	3940.29
468.449	4075.46
468.654	3784.65
468.859	4028.35
469.064	3975.11
469.269	3698.63
469.474	3948.48
469.679	4229.06
469.885	4063.17
470.09	4005.83
470.295	3997.63
470.5	3956.68
470.705	4145.09
470.91	3817.41
471.115	3944.39
471.32	4212.67
471.525	4329.41
471.73	4079.55
471.935	4030.4
472.139	3930.05
472.344	3981.25
472.549	4124.61
472.754	4249.54
472.959	4272.06
473.164	4255.68
473.369	4085.7
473.574	4218.82
473.778	4384.7
473.983	4345.79
474.188	4435.9
474.393	4075.46
474.598	4341.69
474.802	4456.38
475.007	4323.26
475.212	4290.49
475.417	4308.93
475.621	4548.54
475.826	4270.01
476.031	4249.54
476.235	4308.93
476.44	4448.19
476.645	4235.2
476.849	4290.49
477.054	4333.5
477.259	4417.47
477.463	4503.48
477.668	4345.79
477.872	4644.79
478.077	4294.59
478.282	4048.83
478.486	4222.91
478.691	4519.87
478.895	4366.27
479.1	4315.07
479.304	4460.48
479.509	4263.87
479.713	4577.21
479.918	4335.55
480.122	4233.15
480.326	4419.52
480.531	4505.53
480.735	4386.75
480.94	4317.12
481.144	4739
481.348	4347.84
481.553	4462.52
481.757	4335.55
481.961	4693.94
482.166	4612.03
482.37	4569.02
482.574	4564.92
482.778	4407.23
482.983	4712.38
483.187	4411.32
483.391	4583.35
483.595	4695.99
483.8	4675.51
484.004	4808.63
484.208	4722.62
484.412	5140.4
484.616	4960.18
484.821	4825.01
485.025	4618.17
485.229	4960.18
485.433	4853.69
485.637	4949.94
485.841	4825.01
486.045	5306.29
486.249	5207.98
486.453	5038
486.657	5068.72
486.861	4978.61
487.065	5250.99
487.269	4984.76
487.473	5085.11
487.677	5570.47
487.881	5652.39
488.085	5189.55
488.289	5564.33
488.493	5470.12
488.697	5846.95
488.901	5660.59
489.105	5345.2
489.309	5869.48
489.512	6121.38
489.716	5754.79
489.92	6068.13
490.124	6027.17
490.328	6266.78
490.531	5945.25
490.735	5963.68
490.939	6092.71
491.143	6168.48
491.346	6129.57
491.55	6266.78
491.754	6440.86
491.958	6533.02
492.161	6338.46
492.365	6459.29
492.569	6490.01
492.772	6813.59
492.976	6795.16
493.18	6676.38
493.383	7022.48
493.587	6969.24
493.79	7018.39
493.994	6926.23
494.197	7233.43
494.401	7348.11
494.605	7057.3
494.808	7319.44
495.012	7387.02
495.215	7526.29
495.419	7587.72
495.622	7276.43
495.825	7636.88
496.029	7729.03
496.232	7856.01
496.436	7837.58
496.639	8290.18
496.843	8017.8
497.046	8019.85
497.249	8228.74
497.453	8660.86
497.656	8431.49
497.859	8529.79
498.063	8564.61
498.266	8974.2
498.469	8574.85
498.673	8753.02
498.876	8779.64
499.079	9135.99
499.282	8908.66
499.485	9240.43
499.689	9250.67
499.892	9379.7
500.095	9531.25
500.298	9478
500.501	9459.57
500.705	9754.48
500.908	9992.04
501.111	9994.09
501.314	10045.29
501.517	10581.85
501.72	10323.81
501.923	10313.57
502.126	10538.85
502.329	10663.77
502.532	10854.23
502.735	10819.42
502.938	11251.54
503.141	11378.51
503.344	11292.5
503.547	11546.45
503.75	11427.67
503.953	11548.5
504.156	11999.05
504.359	11947.85
504.562	11980.62
504.765	12457.79
504.968	12365.64
505.17	12537.66
505.373	12394.31
505.576	12941.11
505.779	13061.94
505.982	12758.85
506.185	13264.69
506.387	13389.62
506.59	13465.39
506.793	14020.39
506.996	13655.86
507.198	14487.33
507.401	14468.9
507.604	14305.06
507.807	14546.72
508.009	14790.43
508.212	15122.2
508.415	14993.18
508.617	15204.12
508.82	15507.22
509.022	15304.47
509.225	15695.63
509.428	15787.79
509.63	16172.81
509.833	16076.55
510.035	16584.45
510.238	16649.99
510.44	16815.87
510.643	17379.06
510.845	17051.39
511.048	17215.23
511.25	17719.03
511.453	17743.6
511.655	18302.7
511.858	18323.18
512.06	18511.59
512.262	18487.01
512.465	18589.41
512.667	18904.8
512.87	19205.85
513.072	19453.66
513.274	19648.21
513.477	19773.14
513.679	20164.3
513.881	20786.88
514.084	20551.37
514.286	20682.44
514.488	21063.36
514.69	21540.54
514.893	21343.93
515.095	21624.5
515.297	21905.07
515.499	22286
515.701	22566.57
515.904	22744.74
516.106	23246.49
516.308	23359.13
516.51	23482.01
516.712	23568.02
516.914	23830.16
517.116	24127.12
517.318	24276.62
517.52	24538.76
517.722	24757.89
517.925	25128.58
518.127	25495.16
518.329	25892.47
518.531	25976.44
518.733	26414.7
518.935	26447.47
519.136	26400.37
519.338	27000.42
519.54	27373.15
519.742	27635.29
519.944	27833.94
520.146	28395.09
520.348	28622.41
520.55	28188.24
520.752	28472.91
520.954	29324.86
521.155	29353.54
521.357	29662.78
521.559	30084.66
521.761	30606.89
521.963	30305.84
522.164	30785.07
522.366	30860.84
522.568	31209
522.77	31768.09
522.971	32083.48
523.173	31766.04
523.375	32583.18
523.576	32120.34
523.778	32241.17
523.98	32894.47
524.181	33037.83
524.383	33637.89
524.584	33166.85
524.786	33369.6
524.988	33963.51
525.189	34102.78
525.391	34053.62
525.592	34323.96
525.794	34678.25
525.995	35241.45
526.197	35085.8
526.398	35050.99
526.6	35614.18
526.801	35730.91
527.003	35638.75
527.204	35648.99
527.406	36253.14
527.607	36314.58
527.808	36615.63
528.01	36271.57
528.211	36642.26
528.412	37270.98
528.614	37477.83
528.815	36896.2
529.016	37764.54
529.218	36871.63
529.419	37101
529.62	37264.84
529.822	37717.44
530.023	37909.95
530.224	37682.62
530.425	37922.24
530.626	37961.15
530.828	37746.11
531.029	38784.43
531.23	38376.89
531.431	38165.95
531.632	38475.19
531.833	39077.29
532.035	38448.57
532.236	38688.18
532.437	39382.44
532.638	38811.06
532.839	39073.2
533.04	39464.36
533.241	39001.52
533.442	39566.76
533.643	39251.37
533.844	39327.14
534.045	39640.48
534.246	39777.7
534.447	39697.83
534.648	39570.85
534.849	39970.21
535.05	39699.87
535.251	39728.55
535.451	39789.98
535.652	40066.46
535.853	39841.18
536.054	40193.43
536.255	39871.9
536.456	40029.6
536.657	40748.43
536.857	39824.8
537.058	40261.02
537.259	40394.14
537.46	40252.83
537.66	39994.78
537.861	40770.96
538.062	40588.69
538.263	40218.01
538.463	40476.05
538.664	40668.56
538.865	40547.73
539.065	40957.33
539.266	40263.07
539.466	40969.61
539.667	40895.89
539.868	41061.77
540.068	40869.26
540.269	41108.88
540.469	41057.68
540.67	40988.05
540.87	41434.5
541.071	40631.7
541.271	41364.87
541.472	41053.58
541.672	41223.56
541.873	40658.32
542.073	40791.44
542.274	41145.74
542.474	41244.04
542.675	41360.78
542.875	41915.78
543.075	41223.56
543.276	41069.97
543.476	41878.91
543.676	42112.38
543.877	41737.6
544.077	41872.77
544.277	41624.96
544.478	41883.01
544.678	41667.97
544.878	41489.8
545.078	41897.34
545.279	41653.64
545.479	41627.01
545.679	41741.7
545.879	41930.11
546.079	42233.21
546.28	41956.74
546.48	42096
546.68	42354.04
546.88	42587.51
547.08	42069.37
547.28	42222.97
547.48	42050.94
547.68	42743.16
547.88	41987.46
548.081	42241.4
548.281	42599.8
548.481	42261.88
548.681	42466.68
548.881	42605.94
549.081	43298.16
549.28	42343.8
549.48	43421.03
549.68	42782.07
549.88	43607.4
550.08	42454.39
550.28	42884.47
550.48	43021.68
550.68	43527.53
550.88	42573.17
551.08	43177.33
551.279	43517.29
551.479	42925.42
551.679	43345.26
551.879	42849.65
552.079	43289.96
552.278	42950
552.478	43478.38
552.678	43445.61
552.878	43519.34
553.077	43224.43
553.277	42896.75
553.477	43498.86
553.676	43085.17
553.876	43343.21
554.076	43199.85
554.275	43263.34
554.475	42794.35
554.674	43654.5
554.874	43212.14
555.074	42870.13
555.273	43640.17
555.473	43599.21
555.672	43511.14
555.872	43263.34
556.071	43330.92
556.271	44119.39
556.47	43847.01
556.67	43375.98
556.869	43490.66
557.068	43572.58
557.268	43400.55
557.467	43261.29
557.667	43763.04
557.866	43435.37
558.065	43208.04
558.265	43173.23
558.464	43158.89
558.663	43726.18
558.863	43265.39
559.062	43994.46
559.261	43033.97
559.461	43455.85
559.66	43019.63
559.859	43152.75
560.058	42900.85
560.258	43197.8
560.457	42855.79
560.656	43754.85
560.855	43005.3
561.054	43162.99
561.253	42915.19
561.453	43158.89
561.652	43027.82
561.851	43130.22
562.05	42651
562.249	42345.85
562.448	42741.11
562.647	43150.7
562.846	43130.22
563.045	42923.38
563.244	42425.72
563.443	43435.37
563.642	42308.99
563.841	42677.62
564.04	42259.84
564.239	42909.04
564.438	42466.68
564.637	42106.24
564.836	42687.86
565.035	41598.34
565.234	42339.71
565.432	41694.6
565.631	41702.79
565.83	42036.61
566.029	41338.25
566.228	41524.61
566.427	41856.39
566.625	41356.68
566.824	41147.79
567.023	41481.61
567.222	40883.6
567.42	42038.65
567.619	41348.49
567.818	41319.82
568.016	41192.84
568.215	41317.77
568.414	41188.75
568.612	41272.71
568.811	40691.09
569.01	41004.43
569.208	40197.53
569.407	40678.8
569.605	40101.28
569.804	40793.49
570.002	40076.7
570.201	40349.08
570.4	40424.86
570.598	40175
570.797	40132
570.995	39972.25
571.193	39701.92
571.392	40261.02
571.59	39124.39
571.789	39800.22
571.987	39531.94
572.186	39667.11
572.384	39703.97
572.582	39361.96
572.781	39022
572.979	38548.92
573.177	39077.29
573.376	39368.1
573.574	38778.29
573.772	38712.75
573.971	38411.7
574.169	38184.38
574.367	38305.21
574.565	38667.7
574.763	38317.5
574.962	38307.26
575.16	37985.72
575.358	38507.96
575.556	38008.25
575.754	37985.72
575.952	37371.33
576.151	38124.99
576.349	37703.1
576.547	37496.26
576.745	37717.44
576.943	37809.6
577.141	37201.35
577.339	37270.98
577.537	37092.81
577.735	37539.27
577.933	36900.3
578.131	37449.16
578.329	36931.02
578.527	36851.15
578.725	37117.39
578.923	36791.76
579.121	36867.53
579.319	36715.98
579.516	36900.3
579.714	36453.84
579.912	36586.96
580.11	36523.47
580.308	36560.34
580.506	36390.36
580.704	36007.39
580.901	36191.7
581.099	36785.61
581.297	36144.6
581.495	35976.67
581.692	36038.11
581.89	35988.95
582.088	36167.13
582.285	35712.48
582.483	36171.22
582.681	36115.93
582.878	35368.42
583.076	35284.45
583.274	35972.57
583.471	35589.6
583.669	35651.04
583.866	35186.15
584.064	35388.9
584.262	35069.42
584.459	35556.83
584.657	35145.19
584.854	35509.73
585.052	34735.6
585.249	35106.28
585.447	35059.18
585.644	34729.45
585.841	35143.14
586.039	35137
586.236	35020.27
586.434	34872.81
586.631	34565.62
586.828	34461.17
587.026	34932.2
587.223	34815.47
587.42	34635.25
587.618	34647.54
587.815	34285.04
588.012	34440.69
588.21	34272.76
588.407	34534.9
588.604	34471.41
588.801	34094.58
588.999	34248.18
589.196	34127.35
589.393	33994.23
589.59	34338.29
589.787	33969.66
589.984	33979.9
590.182	33848.83
590.379	34024.95
590.576	34500.08
590.773	33814.01
590.97	33721.85
591.167	34166.26
591.364	34002.43
591.561	34012.67
591.758	33621.5
591.955	33781.24
592.152	34215.41
592.349	33607.17
592.546	33687.04
592.743	33945.08
592.94	33545.73
593.137	34108.92
593.334	33998.33
593.531	33592.83
593.727	33498.62
593.924	33592.83
594.121	33263.11
594.318	33883.64
594.515	33287.68
594.712	33799.68
594.908	33222.15
595.105	33611.26
595.302	33244.68
595.499	33603.07
595.696	33631.74
595.892	33070.6
596.089	33648.13
596.286	33435.14
596.482	33433.09
596.679	33494.53
596.876	33508.86
597.072	33572.35
597.269	33328.64
597.466	32941.58
597.662	33250.82
597.859	33089.03
598.055	33037.83
598.252	33285.64
598.448	33549.82
598.645	33324.55
598.841	32988.68
599.038	33684.99
599.234	33330.69
599.431	33037.83
599.627	33183.24
599.824	33230.34
600.02	33285.64
600.217	33463.81
600.413	32587.28
600.609	32929.29
600.806	33320.45
601.002	33189.38
601.198	32994.82
601.395	33121.8
601.591	33336.84
601.787	32681.49
601.984	32759.31
602.18	33527.3
602.376	32837.13
602.572	32945.67
602.769	33388.03
602.965	32634.38
603.161	32896.52
603.357	32732.68
603.553	32851.47
603.75	32929.29
603.946	32724.49
604.142	32904.71
604.338	32423.44
604.534	32990.73
604.73	32833.03
604.926	32089.62
605.122	33025.54
605.318	32603.66
605.514	32904.71
605.71	32515.6
605.906	32456.21
606.102	32810.51
606.298	33041.93
606.494	32806.41
606.69	32781.84
606.886	32884.23
607.082	32620.05
607.278	32923.15
607.474	32042.52
607.67	33015.3
607.866	32157.21
608.062	32609.81
608.257	32546.32
608.453	32472.59
608.649	33021.45
608.845	32427.54
609.041	32450.06
609.236	32652.81
609.432	32849.42
609.628	32552.46
609.824	32560.66
610.019	32394.77
610.215	32751.12
610.411	32486.93
610.606	32679.44
610.802	32615.95
610.998	32781.84
611.193	32716.3
611.389	32648.72
611.584	32648.72
611.78	32349.71
611.976	32622.09
612.171	32833.03
612.367	32753.16
612.562	33000.97
612.758	32308.75
612.953	32607.76
613.149	32871.95
613.344	32693.77
613.539	33363.46
613.735	32355.86
613.93	32673.29
614.126	32558.61
614.321	32947.72
614.517	32732.68
614.712	32988.68
614.907	32568.85
615.103	32914.95
615.298	32267.8
615.493	32812.56
615.688	32292.37
615.884	33148.42
616.079	32300.56
616.274	32759.31
616.47	32507.41
616.665	32558.61
616.86	32392.72
617.055	32443.92
617.25	32364.05
617.445	32851.47
617.641	31518.24
617.836	32714.25
618.031	32169.49
618.226	32886.28
618.421	32323.09
618.616	32689.68
618.811	32069.14
619.006	32534.03
619.201	31774.24
619.396	32652.81
619.591	31749.66
619.786	32323.09
619.981	32118.29
620.176	32415.25
620.371	31972.89
620.566	31749.66
620.761	31878.68
620.956	32241.17
621.151	31567.39
621.346	31997.46
621.541	31186.47
621.735	31809.05
621.93	31219.24
622.125	31282.72
622.32	30916.14
622.515	31309.35
622.709	31143.46
622.904	31092.26
623.099	30895.66
623.294	31413.79
623.488	30977.58
623.683	30584.37
623.878	30275.12
624.072	31096.36
624.267	30928.42
624.462	30629.42
624.656	30051.89
624.851	30516.78
625.046	29898.3
625.24	30277.17
625.435	29744.7
625.629	30494.25
625.824	30418.48
626.018	30387.76
626.213	29494.85
626.407	30060.09
626.602	29730.36
626.796	29838.9
626.991	29699.64
627.185	29722.17
627.38	29615.68
627.574	29374.02
627.768	29269.57
627.963	28931.65
628.157	28984.9
628.352	29140.55
628.546	28667.47
628.74	29437.5
628.935	28675.66
629.129	28896.84
629.323	28487.25
629.517	29064.77
629.712	28614.22
629.906	28677.71
630.1	28264.02
630.294	28413.52
630.489	28268.11
630.683	28452.43
630.877	27860.57
631.071	28288.59
631.265	28405.33
631.459	27827.8
631.653	27987.54
631.848	28048.98
632.042	27919.96
632.236	28003.92
632.43	27422.3
632.624	27678.3
632.818	27553.37
633.012	27457.12
633.206	27121.25
633.4	27719.26
633.594	27010.66
633.788	27307.62
633.982	26891.88
634.176	27084.39
634.369	26965.6
634.563	26769
634.757	26220.14
634.951	26785.38
635.145	26572.39
635.339	26476.14
635.533	26142.32
635.726	26443.37
635.92	26113.65
636.114	25869.94
636.308	25788.02
636.501	25656.95
636.695	25839.22
636.889	25298.56
637.083	25296.51
637.276	24997.51
637.47	24706.69
637.664	24764.04
637.857	24774.28
638.051	25077.38
638.244	24383.12
638.438	24522.38
638.632	24213.13
638.825	24145.55
639.019	24313.48
639.212	23631.51
639.406	23516.83
639.599	23649.94
639.793	23490.2
639.986	22824.61
640.18	22965.92
640.373	22738.6
640.567	22709.93
640.76	22638.25
640.954	22392.49
641.147	22161.07
641.34	22232.75
641.534	21989.04
641.727	21731
641.92	21980.85
642.114	21323.45
642.307	21595.83
642.5	20799.17
642.694	21270.2
642.887	20772.55
643.08	20760.26
643.273	20627.14
643.467	20262.6
643.66	19744.47
643.853	19629.78
644.046	19508.95
644.239	19599.06
644.432	19240.67
644.626	19152.6
644.819	19107.55
645.012	19195.61
645.205	18972.38
645.398	18953.95
645.591	18618.08
645.784	18298.6
645.977	17966.83
646.17	18200.3
646.363	17860.34
646.556	17594.1
646.749	17551.09
646.942	17649.39
647.135	17202.94
647.328	17071.87
647.521	17397.49
647.714	16551.68
647.907	17006.33
648.099	16795.39
648.292	16750.34
648.485	16467.72
648.678	16123.66
648.871	16250.63
649.064	16201.48
649.256	15816.46
649.449	15882
649.642	15830.8
649.835	15687.44
650.027	15167.26
650.22	15402.77
650.413	15257.37
650.605	15343.38
650.798	15478.55
650.991	14870.3
651.183	14948.12
651.376	14815.01
651.568	14898.97
651.761	14761.76
651.954	14974.75
652.146	14724.9
652.339	14448.42
652.531	14438.18
652.724	14370.6
652.916	14184.23
653.109	13768.49
653.301	14206.76
653.494	14270.25
653.686	13807.41
653.879	13942.57
654.071	13901.61
654.263	13627.18
654.456	13680.43
654.648	13610.8
654.84	13295.41
655.033	13500.21
655.225	13535.03
655.417	12945.21
655.61	13199.16
655.802	13156.15
655.994	13283.13
656.186	13016.89
656.379	13088.57
656.571	12724.03
656.763	12615.49
656.955	12441.41
657.148	12539.71
657.34	12781.37
657.532	12296
657.724	12164.93
657.916	12201.8
658.108	12308.29
658.3	12072.78
658.492	12105.54
658.684	11878.22
658.876	12015.43
659.068	11822.92
659.26	11482.96
659.452	11433.81
659.644	11544.4
659.836	11706.19
660.028	11284.31
660.22	10930.01
660.412	11102.04
660.604	10831.71
660.796	10958.68
660.988	10837.85
661.18	10798.94
661.372	10528.61
661.563	10610.53
661.755	10301.28
661.947	10319.71
662.139	10205.03
662.331	10030.95
662.522	9959.27
662.714	9783.15
662.906	9721.71
663.097	9686.89
663.289	9453.42
663.481	9592.69
663.673	9570.16
663.864	9277.3
664.056	9121.65
664.247	9201.52
664.439	9236.34
664.631	8961.91
664.822	8951.67
665.014	9166.71
665.205	8669.05
665.397	8720.25
665.588	8550.27
665.78	8447.87
665.971	8613.76
666.163	8331.14
666.354	8034.18
666.546	8052.61
666.737	8140.68
666.929	8116.1
667.12	7976.84
667.311	8191.88
667.503	7739.27
667.694	7987.08
667.885	7602.06
668.077	7794.57
668.268	7487.37
668.459	7579.53
668.651	7516.05
668.842	7628.68
669.033	7301.01
669.224	7311.25
669.416	7571.34
669.607	7329.68
669.798	7290.77
669.989	6926.23
670.18	6911.89
670.371	7188.37
670.563	6956.95
670.754	7032.72
670.945	7018.39
671.136	7151.51
671.327	6776.73
671.518	6709.15
671.709	6938.52
671.9	7102.36
672.091	7034.77
672.282	6752.15
672.473	6391.71
672.664	6723.48
672.855	6729.63
673.046	6412.19
673.237	6522.78
673.428	6635.42
673.619	6651.8
673.809	6324.13
674	6326.18
674.191	6700.95
674.382	6473.63
674.573	6268.83
674.764	6225.82
674.954	6657.95
675.145	6166.43
675.336	6064.04
675.527	6092.71
675.717	6344.61
675.908	6246.3
676.099	6293.41
676.289	6152.1
676.48	6164.39
676.671	6289.31
676.861	6207.39
677.052	5930.92
677.243	6088.61
677.433	6168.48
677.624	6215.59
677.814	5951.4
678.005	6119.33
678.195	6416.29
678.386	5918.63
678.576	6010.79
678.767	6160.29
678.957	6102.95
679.148	6148
679.338	6217.63
679.529	6356.9
679.719	6180.77
679.909	6287.26
680.1	6113.19
680.29	6391.71
680.481	6135.71
680.671	6143.91
680.861	5965.73
681.052	6236.06
681.242	6209.44
681.432	6440.86
681.622	6084.52
681.813	6203.3
682.003	6467.49
682.193	6164.39
682.383	6274.98
682.573	6582.17
682.764	6524.83
682.954	6518.68
683.144	6750.1
683.334	6619.03
683.524	6774.68
683.714	6739.87
683.904	6653.85
684.094	6856.6
684.284	6842.26
684.474	7055.25
684.664	6883.22
684.854	7147.41
685.044	7282.58
685.234	7085.97
685.424	7090.07
685.614	7321.49
685.804	7507.85
685.994	7337.87
686.184	7577.48
686.374	7608.2
686.564	7438.22
686.753	7829.38
686.943	7477.13
687.133	7808.9
687.323	7911.3
687.513	7978.89
687.702	7948.17
687.892	7911.3
688.082	8288.13
688.272	8181.64
688.461	8400.77
688.651	8675.2
688.841	8652.67
689.03	8288.13
689.22	8564.61
689.41	8820.6
689.599	8785.79
689.789	8980.34
689.979	9025.4
690.168	9303.92
690.358	9326.45
690.547	9054.07
690.737	9475.95
690.926	9555.82
691.116	9490.29
691.305	9807.72
691.495	9516.91
691.684	9711.47
691.874	9973.61
692.063	9901.93
692.252	10039.14
692.442	10329.95
692.631	10127.21
692.82	10035.05
693.01	10174.31
693.199	10413.92
693.388	10604.38
693.578	10581.85
693.767	10893.15
693.956	11001.69
694.146	10936.15
694.335	10872.67
694.524	11052.89
694.713	11382.61
694.902	11315.03
695.092	11327.32
695.281	11243.35
695.47	11294.55
695.659	11478.86
695.848	11411.28
696.037	11560.78
696.226	11898.7
696.415	11884.36
696.604	11900.75
696.793	11667.28
696.982	12095.3
697.171	12148.55
697.36	11847.5
697.549	12007.24
697.738	11892.55
697.927	12029.77
698.116	11900.75
698.305	12302.15
698.494	12552
698.683	12345.16
698.872	12465.99
699.061	12019.53
699.25	12304.2
699.438	12377.92
699.627	12320.58
699.816	12506.95
700.005	12375.88
700.193	12396.35
700.382	12560.19
700.571	12539.71
700.76	12769.09
700.948	13035.32
701.137	12615.49
701.326	12498.75
701.514	12660.54
701.703	12713.79
701.892	12478.27
702.08	12674.88
702.269	12934.97
702.457	12793.66
702.646	12721.98
702.834	12375.88
703.023	12867.39
703.212	12844.86
703.4	12578.62
703.589	12738.37
703.777	12939.07
703.965	12607.3
704.154	12468.03
704.342	12660.54
704.531	12732.22
704.719	12373.83
704.907	12785.47
705.096	12525.38
705.284	12769.09
705.472	12599.1
705.661	12394.31
705.849	12613.44
706.037	12799.8
706.226	12816.19
706.414	12511.04
706.602	12371.78
706.79	12646.21
706.979	12529.47
707.167	12298.05
707.355	12427.07
707.543	12721.98
707.731	12629.82
707.919	12369.73
708.107	12072.78
708.296	12177.22
708.484	12128.07
708.672	12394.31
708.86	12087.11
709.048	12504.9
709.236	12209.99
709.424	12431.17
709.612	12052.3
709.8	12099.4
709.988	12076.87
710.176	12187.46
710.364	12281.67
710.551	11861.83
710.739	12107.59
710.927	12171.08
711.115	11861.83
711.303	12187.46
711.491	12083.02
711.679	11798.35
711.866	11902.79
712.054	12013.38
712.242	11872.07
712.43	11851.6
712.617	11755.34
712.805	11886.41
712.993	11757.39
713.181	11478.86
713.368	11480.91
713.556	11861.83
713.744	11382.61
713.931	11769.68
714.119	11349.84
714.306	11554.64
714.494	11329.36
714.682	11202.39
714.869	11147.09
715.057	11515.73
715.244	10911.58
715.432	11341.65
715.619	10882.91
715.807	11081.56
715.994	11108.18
716.182	11046.74
716.369	11097.94
716.556	11251.54
716.744	10862.43
716.931	10899.29
717.119	10717.02
717.306	10821.47
717.493	10872.67
717.681	10485.6
717.868	10567.52
718.055	10790.75
718.242	10555.23
718.43	10235.75
718.617	10379.11
718.804	10354.53
718.991	10493.79
719.179	10360.67
719.366	10116.97
719.553	10295.14
719.74	10465.12
719.927	10121.06
720.114	9959.27
720.301	10041.19
720.488	9957.22
720.676	9887.59
720.863	10006.38
721.05	10221.41
721.237	9883.5
721.424	9832.3
721.611	9768.81
721.798	9756.52
721.985	9596.78
722.172	9529.2
722.358	9459.57
722.545	9719.66
722.732	9547.63
722.919	9715.56
723.106	9482.1
723.293	9303.92
723.48	9492.34
723.667	9281.39
723.853	9191.28
724.04	9488.24
724.227	9303.92
724.414	9021.3
724.6	8990.58
724.787	9322.35
724.974	9416.56
725.161	9238.39
725.347	8777.59
725.534	9088.89
725.72	9015.16
725.907	8916.86
726.094	8802.17
726.28	8851.32
726.467	8865.66
726.653	8662.91
726.84	8707.96
727.027	8783.74
727.213	8408.96
727.4	8644.48
727.586	8433.54
727.773	8566.65
727.959	8687.48
728.145	8388.48
728.332	8167.3
728.518	8253.31
728.705	8554.37
728.891	8042.37
729.077	8179.59
729.264	7999.37
729.45	8335.23
729.636	8157.06
729.823	8011.65
730.009	8337.28
730.195	7956.36
730.382	8134.53
730.568	7794.57
730.754	8028.04
730.94	7999.37
731.126	7874.44
731.313	7929.73
731.499	7747.47
731.685	8025.99
731.871	7790.47
732.057	7610.25
732.243	7933.83
732.429	7655.31
732.615	7640.97
732.801	7448.46
732.987	7829.38
733.173	7655.31
733.359	7440.27
733.545	7432.08
733.731	7516.05
733.917	7540.62
734.103	7321.49
734.289	7346.06
734.475	7245.71
734.661	7516.05
734.847	7264.15
735.033	7235.47
735.219	7507.85
735.404	7214.99
735.59	7038.87
735.776	6854.55
735.962	7317.39
736.148	7171.99
736.333	6995.86
736.519	7018.39
736.705	7178.13
736.89	6805.4
737.076	6725.53
737.262	6584.22
737.447	6956.95
737.633	6875.03
737.819	6823.83
738.004	6582.17
738.19	6983.57
738.375	6739.87
738.561	6778.78
738.747	6668.19
738.932	6653.85
739.118	6852.5
739.303	6500.25
739.489	6449.05
739.674	6508.44
739.859	6514.59
740.045	6317.98
740.23	6248.35
740.416	6082.47
740.601	6432.67
740.786	6289.31
740.972	6082.47
741.157	6231.97
741.342	5951.4
741.528	6068.13
741.713	6029.22
741.898	6006.69
742.084	6109.09
742.269	5937.06
742.454	5969.83
742.639	6125.47
742.824	5965.73
743.01	5889.96
743.195	5961.64
743.38	5851.05
743.565	5846.95
743.75	5756.84
743.935	5636.01
744.12	5959.59
744.305	5461.93
744.49	5451.69
744.675	5554.09
744.86	5529.52
745.045	5599.15
745.23	5345.2
745.415	5324.72
745.6	5672.87
745.785	5439.4
745.97	5361.58
746.155	5207.98
746.34	5515.18
746.525	5525.42
746.71	5291.95
746.895	4980.66
747.079	5130.16
747.264	5242.8
747.449	5191.6
747.634	4818.87
747.819	5164.98
748.003	4931.51
748.188	4886.45
748.373	5033.91
748.557	5005.24
748.742	4849.59
748.927	4782.01
749.111	4634.55
749.296	4855.73
749.481	4939.7
749.665	4691.9
749.85	4566.97
750.034	4775.86
750.219	4712.38
750.404	4421.56
750.588	4427.71
750.773	4444.09
750.957	4429.76
751.141	4325.31
751.326	4341.69
751.51	4339.65
751.695	4431.8
751.879	4390.84
752.064	4476.86
752.248	4362.17
752.432	4448.19
752.617	4052.93
752.801	4161.47
752.985	4265.92
753.17	4450.24
753.354	4124.61
753.538	4169.66
753.722	3985.35
753.907	4104.13
754.091	3839.94
754.275	3913.67
754.459	3913.67
754.643	3895.24
754.828	3841.99
755.012	3723.21
755.196	3758.02
755.38	3852.23
755.564	3669.96
755.748	3719.11
755.932	3817.41
756.116	3760.07
756.3	3715.02
756.484	3502.03
756.668	3778.5
756.852	3461.07
757.036	3481.55
757.22	3620.81
757.404	3481.55
757.588	3473.35
757.772	3459.02
757.956	3438.54
758.14	3567.56
758.323	3286.99
758.507	3389.39
758.691	3313.61
758.875	3422.16
759.059	3438.54
759.242	3080.14
759.426	3127.25
759.61	3190.74
759.794	3106.77
759.977	3084.24
760.161	3454.92
760.345	3248.08
760.528	3162.06
760.712	2912.21
760.895	2981.84
761.079	2875.35
761.263	2916.31
761.446	2791.38
761.63	2766.81
761.813	2863.06
761.997	2695.13
762.18	2904.02
762.364	2838.48
762.547	2645.98
762.731	2725.85
762.914	2760.66
763.098	2588.63
763.281	2807.77
763.464	2568.15
763.648	2711.51
763.831	2779.09
764.015	2602.97
764.198	2871.25
764.381	2645.98
764.564	2598.87
764.748	2770.9
764.931	2785.24
765.114	2475.99
765.297	2635.74
765.481	2641.88
765.664	2740.18
765.847	2588.63
766.03	2645.98
766.213	2543.58
766.397	2617.3
766.58	2504.67
766.763	2731.99
766.946	2580.44
767.129	2559.96
767.312	2471.9
767.495	2609.11
767.678	2592.73
767.861	2828.24
768.044	2488.28
768.227	2576.34
768.41	2508.76
768.593	2566.1
768.776	2598.87
768.959	2486.23
769.142	2830.29
769.324	2574.3
769.507	2592.73
769.69	2447.32
769.873	2568.15
770.056	2908.12
770.239	2504.67
770.421	2639.83
770.604	2668.5
770.787	2686.93
770.97	2439.13
771.152	2318.3
771.335	2557.91
771.518	2402.27
771.7	2340.83
771.883	2656.22
772.066	2412.51
772.248	2512.86
772.431	2580.44
772.613	2289.63
772.796	2400.22
772.978	2562.01
773.161	2482.14
773.343	2166.75
773.526	2428.89
773.708	2191.33
773.891	2109.41
774.073	2285.53
774.256	2234.33
774.438	2504.67
774.621	2246.62
774.803	2340.83
774.985	2275.29
775.168	2332.64
775.35	2217.95
775.532	2172.89
775.715	2043.87
775.897	2174.94
776.079	2211.81
776.261	2109.41
776.444	2162.65
776.626	2103.26
776.808	2084.83
776.99	1873.89
777.173	2109.41
777.355	2029.54
777.537	1978.34
777.719	1970.15
777.901	2113.5
778.083	1916.9
778.265	1910.75
778.447	1904.61
778.629	1955.81
778.811	2035.68
778.993	1943.52
779.175	1927.14
779.357	1947.62
779.539	1736.68
779.721	1808.36
779.903	1667.05
780.085	1806.31
780.267	1912.8
780.449	1720.29
780.631	1847.27
780.812	2047.97
780.994	1900.51
781.176	1773.54
781.358	1576.94
781.54	1810.4
781.721	1814.5
781.903	1523.69
782.085	1630.18
782.267	1810.4
782.448	1581.03
782.63	1605.61
782.812	1589.22
782.993	1830.88
783.175	1847.27
783.357	1572.84
783.538	1757.16
783.72	1468.39
783.901	1497.07
784.083	1585.13
784.264	1517.54
784.446	1355.76
784.627	1427.43
784.809	1511.4
784.99	1363.95
785.172	1599.46
785.353	1531.88
785.535	1325.04
785.716	1304.56
785.897	1331.18
786.079	1476.59
786.26	1359.85
786.441	1329.13
786.623	1269.74
786.804	1363.95
786.985	1406.95
787.167	1290.22
787.348	1392.62
787.529	1322.99
787.71	1251.31
787.891	1277.93
788.073	1228.78
788.254	1118.19
788.435	1339.37
788.616	1202.16
788.797	1224.69
788.978	1220.59
789.159	1198.06
789.34	1341.42
789.522	1316.84
789.703	1087.47
789.884	1255.4
790.065	1183.73
790.246	1411.05
790.427	1189.87
790.607	1200.11
790.788	1132.53
790.969	1130.48
791.15	1284.08
791.331	1112.05
791.512	1114.09
791.693	1038.32
791.874	1175.53
792.054	1161.2
792.235	1085.42
792.416	978.93
792.597	937.97
792.778	1124.33
792.958	1032.18
793.139	1140.72
793.32	1083.38
793.5	878.58
793.681	1138.67
793.862	1150.96
794.042	1007.6
794.223	870.39
794.404	862.19
794.584	815.09
794.765	960.5
794.945	989.17
795.126	1017.84
795.306	1138.67
795.487	1023.98
795.667	866.29
795.848	866.29
796.028	1005.55
796.209	952.31
796.389	1028.08
796.57	845.81
796.75	860.15
796.93	858.1
797.111	804.85
797.291	808.95
797.471	946.16
797.652	894.96
797.832	849.91
798.012	831.48
798.192	854
798.373	694.26
798.553	925.68
798.733	907.25
798.913	804.85
799.093	845.81
799.274	802.8
799.454	811
799.634	989.17
799.814	909.3
799.994	798.71
800.174	823.28
800.354	880.63
800.534	645.11
800.714	798.71
800.894	614.39
801.074	659.45
801.254	782.32
801.434	933.87
801.614	716.79
801.794	751.6
801.974	4870.07
802.154	724.98
802.334	798.71
802.514	604.15
802.693	737.27
802.873	583.67
803.053	792.56
803.233	841.72
803.413	767.99
803.592	612.34
803.772	604.15
803.952	636.92
804.131	577.53
804.311	733.17
804.491	792.56
804.67	710.65
804.85	673.78
805.03	718.84
805.209	888.82
805.389	710.65
805.568	686.07
805.748	651.25
805.928	610.29
806.107	825.33
806.287	641.01
806.466	745.46
806.646	567.29
806.825	714.74
807.004	559.1
807.184	679.93
807.363	759.8
807.543	659.45
807.722	489.46
807.901	710.65
808.081	681.97
808.26	442.36
808.439	620.53
808.619	528.38
808.798	593.91
808.977	679.93
809.156	868.34
809.336	571.38
809.515	571.38
809.694	507.9
809.873	520.18
810.052	487.42
810.231	790.52
810.411	677.88
810.59	735.22
810.769	589.82
810.948	679.93
811.127	436.22
811.306	522.23
811.485	477.18
811.664	675.83
811.843	503.8
812.022	593.91
812.201	497.66
812.38	419.83
812.559	501.75
812.737	628.73
812.916	305.15
813.095	452.6
813.274	712.69
813.453	614.39
813.632	552.95
813.811	651.25
813.989	380.92
814.168	634.87
814.347	276.48
814.526	352.25
814.704	688.12
814.883	688.12
815.062	356.35
815.24	460.79
815.419	389.11
815.598	573.43
815.776	278.52
815.955	444.41
816.133	299
816.312	595.96
816.49	362.49
816.669	409.59
816.847	468.98
817.026	511.99
817.204	475.13
817.383	368.63
817.561	423.93
817.74	507.9
817.918	395.26
818.097	319.48
818.275	368.63
818.453	526.33
818.632	448.51
818.81	391.16
818.988	440.31
819.167	376.83
819.345	366.59
819.523	354.3
819.701	481.27
819.879	509.94
820.058	561.14
820.236	350.2
820.414	520.18
820.592	409.59
820.77	268.28
820.948	354.3
821.127	458.74
821.305	516.09
821.483	229.37
821.661	415.74
821.839	452.6
822.017	432.12
822.195	325.63
822.373	364.54
822.551	319.48
822.729	497.66
822.907	299
823.085	403.45
823.262	514.04
823.44	280.57
823.618	311.29
823.796	282.62
823.974	391.16
824.152	294.91
824.329	331.77
824.507	446.46
824.685	532.47
824.863	376.83
825.04	325.63
825.218	337.91
825.396	399.35
825.574	436.22
825.751	350.2
825.929	212.99
826.107	301.05
826.284	387.07
826.462	311.29
826.639	329.72
826.817	237.56
826.994	331.77
827.172	178.17
827.349	362.49
827.527	425.98
827.704	425.98
827.882	397.31
828.059	303.1
828.237	372.73
828.414	360.44
828.591	110.59
828.769	303.1
828.946	323.58
829.124	493.56
829.301	397.31
829.478	233.47
829.655	315.39
829.833	376.83
830.01	176.13
830.187	415.74
830.364	317.44
830.542	348.15
830.719	337.91
830.896	260.09
831.073	493.56
831.25	403.45
831.427	215.04
831.604	309.24
831.782	325.63
831.959	430.07
832.136	241.66
832.313	366.59
832.49	243.71
832.667	389.11
832.844	206.84
833.021	471.03
833.198	466.94
833.374	319.48
833.551	337.91
833.728	165.89
833.905	415.74
834.082	161.79
834.259	301.05
834.436	344.06
834.612	227.32
834.789	466.94
834.966	249.85
835.143	243.71
835.319	178.17
835.496	425.98
835.673	333.82
835.85	360.44
836.026	393.21
836.203	327.67
836.38	153.6
836.556	217.08
836.733	217.08
836.909	456.7
837.086	215.04
837.262	38.91
837.439	270.33
837.616	161.79
837.792	239.61
837.968	192.51
838.145	69.63
838.321	237.56
838.498	276.48
838.674	346.11
838.851	311.29
839.027	174.08
839.203	219.13
839.38	282.62
839.556	280.57
839.732	387.07
839.909	174.08
840.085	233.47
840.261	303.1
840.437	282.62
840.614	190.46
840.79	382.97
840.966	407.55
841.142	288.76
841.318	208.89
841.494	231.42
841.671	387.07
841.847	147.45
842.023	71.68
842.199	243.71
842.375	548.86
842.551	36.86
842.727	137.21
842.903	335.87
843.079	129.02
843.255	389.11
843.431	227.32
843.607	329.72
843.783	-88.06
843.959	337.91
844.134	163.84
844.31	307.2
844.486	194.56
844.662	186.37
844.838	208.89
845.013	151.55
845.189	471.03
845.365	258.04
845.541	196.61
845.716	231.42
845.892	464.89
846.068	243.71
846.244	120.83
846.419	122.88
846.595	106.49
846.77	163.84
846.946	307.2
847.122	180.22
847.297	305.15
847.473	499.7
847.648	114.69
847.824	196.61
847.999	57.34
848.175	278.52
848.35	309.24
848.526	378.87
848.701	374.78
848.876	395.26
849.052	321.53
849.227	129.02
849.403	260.09
849.578	149.5
849.753	176.13
849.929	188.41
850.104	116.73
850.279	284.67
850.454	198.65
850.63	296.96
850.805	319.48
850.98	346.11
851.155	253.95
851.33	196.61
851.505	159.74
851.681	411.64
851.856	153.6
852.031	229.37
852.206	282.62
852.381	163.84
852.556	137.21
852.731	104.45
852.906	366.59
853.081	360.44
853.256	325.63
853.431	200.7
853.606	137.21
853.781	143.36
853.956	-6.14
854.131	143.36
854.305	98.3
854.48	178.17
854.655	86.01
854.83	36.86
855.005	270.33
855.18	282.62
855.354	96.25
855.529	137.21
855.704	110.59
855.879	296.96
856.053	126.97
856.228	149.5
856.403	116.73
856.577	350.2
856.752	51.2
856.926	235.52
857.101	364.54
857.276	98.3
857.45	149.5
857.625	219.13
857.799	348.15
857.974	151.55
858.148	24.58
858.323	188.41
858.497	303.1
858.672	137.21
858.846	43.01
859.02	196.61
859.195	36.86
859.369	167.93
859.543	233.47
859.718	241.66
859.892	362.49
860.066	200.7
860.241	55.3
860.415	96.25
860.589	145.41
860.763	200.7
860.938	141.31
861.112	77.82
861.286	245.76
861.46	235.52
861.634	178.17
861.808	163.84
861.982	200.7
862.157	69.63
862.331	92.16
862.505	-55.3
862.679	40.96
862.853	73.73
863.027	157.69
863.201	264.19
863.375	149.5
863.549	241.66
863.722	161.79
863.896	167.93
864.07	192.51
864.244	256
864.418	282.62
864.592	172.03
864.766	198.65
864.939	151.55
865.113	151.55
865.287	258.04
865.461	155.65
865.634	237.56
865.808	155.65
865.982	102.4
866.156	110.59
866.329	14.34
866.503	161.79
866.676	241.66
866.85	270.33
867.024	61.44
867.197	235.52
867.371	167.93
867.544	270.33
867.718	14.34
867.891	337.91
868.065	-67.58
868.238	268.28
868.412	313.34
868.585	143.36
868.759	94.21
868.932	112.64
869.105	51.2
869.279	135.17
869.452	-4.1
869.625	323.58
869.799	243.71
869.972	43.01
870.145	104.45
870.319	325.63
870.492	184.32
870.665	157.69
870.838	92.16
871.011	-59.39
871.185	147.45
871.358	77.82
871.531	237.56
871.704	86.01
871.877	153.6
872.05	43.01
872.223	-14.34
872.396	333.82
872.569	258.04
872.742	55.3
872.915	196.61
873.088	147.45
873.261	22.53
873.434	157.69
873.607	163.84
873.78	378.87
873.953	24.58
874.126	204.8
874.299	204.8
874.471	102.4
874.644	116.73
874.817	206.84
874.99	212.99
875.163	135.17
875.335	200.7
875.508	137.21
875.681	126.97
875.853	147.45
876.026	215.04
876.199	296.96
876.371	102.4
876.544	161.79
876.717	196.61
876.889	63.49
877.062	188.41
877.234	63.49
877.407	143.36
877.579	92.16
877.752	100.35
877.924	362.49
878.097	315.39
878.269	124.93
878.442	233.47
878.614	212.99
878.786	151.55
878.959	79.87
879.131	200.7
879.303	-45.06
879.476	129.02
879.648	243.71
879.82	61.44
879.993	88.06
880.165	104.45
880.337	45.06
880.509	131.07
880.681	-28.67
880.854	51.2
881.026	282.62
881.198	262.14
881.37	120.83
881.542	239.61
881.714	131.07
881.886	86.01
882.058	157.69
882.23	178.17
882.402	86.01
882.574	182.27
882.746	325.63
882.918	278.52
883.09	133.12
883.262	61.44
883.434	276.48
883.606	-14.34
883.778	94.21
883.95	176.13
884.122	81.92
884.293	311.29
884.465	122.88
884.637	243.71
884.809	110.59
884.98	200.7
885.152	184.32
885.324	188.41
885.496	88.06
885.667	112.64
885.839	69.63
886.011	118.78
886.182	292.86
886.354	204.8
886.525	151.55
886.697	77.82
886.869	4.1
887.04	106.49
887.212	229.37
887.383	151.55
887.555	143.36
887.726	139.26
887.897	81.92
888.069	137.21
888.24	368.63
888.412	167.93
888.583	92.16
888.754	96.25
888.926	30.72
889.097	26.62
889.268	-20.48
889.44	45.06
889.611	-30.72
889.782	6.14
889.953	-22.53
890.125	194.56
890.296	-26.62
890.467	88.06
890.638	106.49
890.809	43.01
890.98	90.11
891.151	135.17
891.323	208.89
891.494	0
891.665	151.55
891.836	53.25
892.007	100.35
892.178	163.84
892.349	200.7
892.52	-18.43
892.691	65.53
892.862	90.11
893.032	-51.2
893.203	200.7
893.374	118.78
893.545	129.02
893.716	61.44
893.887	266.24
894.057	71.68
894.228	102.4
894.399	126.97
894.57	319.48
894.74	143.36
894.911	159.74
895.082	118.78
895.253	112.64
895.423	104.45
895.594	151.55
895.764	299
895.935	-28.67
896.106	112.64
896.276	65.53
896.447	219.13
896.617	26.62
896.788	-32.77
896.958	73.73
897.129	49.15
897.299	110.59
897.47	194.56
897.64	131.07
897.81	153.6
897.981	237.56
898.151	32.77
898.322	133.12
898.492	249.85
898.662	63.49
898.832	22.53
899.003	4.1
899.173	278.52
899.343	-61.44
899.513	4.1
