Data from USB4F104151__100__12-13-19-798.txt Node

Date: Fri Mar 14 12:13:19 EDT 2025
User: louis
Spectrometer: USB4F10415
Trigger mode: 4
Integration Time (sec): 5.000000E-2
Scans to average: 1
Electric dark correction enabled: true
Nonlinearity correction enabled: false
Boxcar width: 0
XAxis mode: Wavelengths
Number of Pixels in Spectrum: 3648
>>>>>Begin Spectral Data<<<<<
178.204	-214.01
178.424	-214.01
178.644	-214.01
178.864	-214.01
179.084	-191.49
179.304	-5.12
179.524	-27.65
179.744	-50.18
179.964	111.61
180.184	-31.74
180.404	-27.65
180.624	62.46
180.844	-21.5
181.064	9.22
181.283	25.6
181.503	-50.18
181.723	5.12
181.943	-11.26
182.163	132.09
182.383	-5.12
182.602	52.22
182.822	41.98
183.042	68.61
183.262	-7.17
183.482	111.61
183.701	21.5
183.921	3.07
184.141	7.17
184.361	91.13
184.58	64.51
184.8	62.46
185.02	17.41
185.239	74.75
185.459	109.57
185.679	29.7
185.898	3.07
186.118	93.18
186.338	15.36
186.557	54.27
186.777	-50.18
186.997	31.74
187.216	52.22
187.436	117.76
187.655	60.42
187.875	78.85
188.095	62.46
188.314	144.38
188.534	48.13
188.753	27.65
188.973	128
189.192	117.76
189.412	72.7
189.631	60.42
189.851	78.85
190.07	119.81
190.29	121.85
190.509	39.94
190.729	-25.6
190.948	54.27
191.168	273.4
191.387	80.89
191.607	46.08
191.826	19.46
192.045	56.32
192.265	35.84
192.484	177.15
192.704	46.08
192.923	-17.41
193.142	128
193.362	-13.31
193.581	105.47
193.8	121.85
194.02	64.51
194.239	97.28
194.458	37.89
194.678	-9.22
194.897	87.04
195.116	60.42
195.335	76.8
195.555	84.99
195.774	72.7
195.993	35.84
196.212	58.37
196.432	23.55
196.651	93.18
196.87	60.42
197.089	128
197.308	37.89
197.528	64.51
197.747	37.89
197.966	113.66
198.185	173.05
198.404	33.79
198.623	35.84
198.842	48.13
199.062	13.31
199.281	119.81
199.5	101.37
199.719	72.7
199.938	50.18
200.157	68.61
200.376	78.85
200.595	150.53
200.814	-17.41
201.033	87.04
201.252	60.42
201.471	58.37
201.69	115.71
201.909	101.37
202.128	15.36
202.347	72.7
202.566	11.26
202.785	-23.55
203.004	56.32
203.223	199.68
203.442	70.65
203.661	89.09
203.879	50.18
204.098	111.61
204.317	-17.41
204.536	103.42
204.755	37.89
204.974	91.13
205.193	78.85
205.411	175.1
205.63	134.14
205.849	54.27
206.068	64.51
206.287	46.08
206.505	56.32
206.724	35.84
206.943	7.17
207.162	21.5
207.381	33.79
207.599	31.74
207.818	72.7
208.037	97.28
208.255	1.02
208.474	44.03
208.693	31.74
208.911	5.12
209.13	54.27
209.349	23.55
209.567	62.46
209.786	70.65
210.005	64.51
210.223	66.56
210.442	-74.75
210.661	52.22
210.879	-17.41
211.098	48.13
211.316	138.24
211.535	101.37
211.753	60.42
211.972	27.65
212.191	1.02
212.409	33.79
212.628	97.28
212.846	39.94
213.065	48.13
213.283	103.42
213.502	-33.79
213.72	27.65
213.938	-19.46
214.157	17.41
214.375	68.61
214.594	68.61
214.812	74.75
215.031	5.12
215.249	97.28
215.467	33.79
215.686	52.22
215.904	78.85
216.122	-21.5
216.341	117.76
216.559	33.79
216.778	48.13
216.996	103.42
217.214	93.18
217.432	103.42
217.651	-17.41
217.869	113.66
218.087	-19.46
218.306	39.94
218.524	74.75
218.742	52.22
218.96	87.04
219.179	31.74
219.397	117.76
219.615	97.28
219.833	17.41
220.051	58.37
220.27	132.09
220.488	21.5
220.706	93.18
220.924	1.02
221.142	-3.07
221.36	15.36
221.578	-5.12
221.796	56.32
222.015	11.26
222.233	7.17
222.451	76.8
222.669	17.41
222.887	44.03
223.105	58.37
223.323	123.9
223.541	46.08
223.759	95.23
223.977	50.18
224.195	150.53
224.413	91.13
224.631	101.37
224.849	-46.08
225.067	177.15
225.285	-62.46
225.503	101.37
225.721	3.07
225.939	5.12
226.157	46.08
226.375	205.82
226.592	-31.74
226.81	19.46
227.028	109.57
227.246	87.04
227.464	76.8
227.682	132.09
227.9	121.85
228.117	68.61
228.335	93.18
228.553	50.18
228.771	27.65
228.989	50.18
229.206	64.51
229.424	-1.02
229.642	46.08
229.86	-9.22
230.077	99.33
230.295	41.98
230.513	21.5
230.731	78.85
230.948	105.47
231.166	121.85
231.384	-50.18
231.601	11.26
231.819	3.07
232.037	-66.56
232.254	-3.07
232.472	89.09
232.689	70.65
232.907	107.52
233.125	64.51
233.342	113.66
233.56	44.03
233.777	44.03
233.995	48.13
234.213	103.42
234.43	41.98
234.648	37.89
234.865	11.26
235.083	171.01
235.3	31.74
235.518	138.24
235.735	50.18
235.953	82.94
236.17	35.84
236.388	39.94
236.605	-5.12
236.822	144.38
237.04	-46.08
237.257	44.03
237.475	48.13
237.692	121.85
237.909	19.46
238.127	35.84
238.344	99.33
238.562	39.94
238.779	27.65
238.996	-15.36
239.214	27.65
239.431	128
239.648	52.22
239.865	25.6
240.083	72.7
240.3	117.76
240.517	-5.12
240.735	58.37
240.952	97.28
241.169	128
241.386	27.65
241.603	95.23
241.821	95.23
242.038	76.8
242.255	41.98
242.472	19.46
242.689	125.95
242.907	39.94
243.124	56.32
243.341	84.99
243.558	-7.17
243.775	29.7
243.992	19.46
244.209	64.51
244.426	93.18
244.643	111.61
244.86	78.85
245.078	140.29
245.295	84.99
245.512	58.37
245.729	44.03
245.946	37.89
246.163	70.65
246.38	60.42
246.597	68.61
246.814	39.94
247.031	64.51
247.248	-3.07
247.464	146.43
247.681	52.22
247.898	52.22
248.115	113.66
248.332	21.5
248.549	76.8
248.766	152.57
248.983	97.28
249.2	56.32
249.417	128
249.633	72.7
249.85	60.42
250.067	-5.12
250.284	54.27
250.501	25.6
250.717	82.94
250.934	3.07
251.151	50.18
251.368	15.36
251.585	70.65
251.801	74.75
252.018	50.18
252.235	128
252.451	31.74
252.668	-23.55
252.885	54.27
253.102	93.18
253.318	31.74
253.535	-52.22
253.752	33.79
253.968	9.22
254.185	19.46
254.401	54.27
254.618	78.85
254.835	80.89
255.051	199.68
255.268	99.33
255.484	70.65
255.701	70.65
255.917	142.33
256.134	37.89
256.351	5.12
256.567	50.18
256.784	-11.26
257	74.75
257.217	60.42
257.433	125.95
257.65	37.89
257.866	123.9
258.082	46.08
258.299	70.65
258.515	70.65
258.732	-35.84
258.948	-66.56
259.165	87.04
259.381	29.7
259.597	121.85
259.814	119.81
260.03	-87.04
260.246	31.74
260.463	117.76
260.679	48.13
260.895	1.02
261.112	48.13
261.328	-7.17
261.544	27.65
261.761	109.57
261.977	29.7
262.193	-56.32
262.409	-1.02
262.626	64.51
262.842	54.27
263.058	19.46
263.274	44.03
263.49	66.56
263.707	138.24
263.923	64.51
264.139	-89.09
264.355	64.51
264.571	132.09
264.787	64.51
265.004	142.33
265.22	58.37
265.436	31.74
265.652	11.26
265.868	11.26
266.084	52.22
266.3	41.98
266.516	3.07
266.732	74.75
266.948	80.89
267.164	13.31
267.38	64.51
267.596	15.36
267.812	39.94
268.028	52.22
268.244	-52.22
268.46	27.65
268.676	23.55
268.892	152.57
269.108	23.55
269.324	3.07
269.54	41.98
269.756	60.42
269.972	33.79
270.188	54.27
270.403	5.12
270.619	66.56
270.835	78.85
271.051	44.03
271.267	48.13
271.483	21.5
271.698	130.05
271.914	101.37
272.13	111.61
272.346	103.42
272.562	15.36
272.777	142.33
272.993	46.08
273.209	62.46
273.425	89.09
273.64	17.41
273.856	109.57
274.072	19.46
274.287	60.42
274.503	95.23
274.719	23.55
274.934	74.75
275.15	-15.36
275.366	46.08
275.581	17.41
275.797	-3.07
276.012	93.18
276.228	76.8
276.444	5.12
276.659	31.74
276.875	60.42
277.09	35.84
277.306	37.89
277.521	72.7
277.737	31.74
277.952	136.19
278.168	64.51
278.383	31.74
278.599	13.31
278.814	56.32
279.03	13.31
279.245	87.04
279.461	80.89
279.676	84.99
279.892	58.37
280.107	31.74
280.322	37.89
280.538	144.38
280.753	-3.07
280.969	80.89
281.184	48.13
281.399	74.75
281.615	25.6
281.83	39.94
282.045	35.84
282.26	95.23
282.476	50.18
282.691	3.07
282.906	39.94
283.122	66.56
283.337	-33.79
283.552	60.42
283.767	-31.74
283.983	103.42
284.198	84.99
284.413	97.28
284.628	-5.12
284.843	91.13
285.058	37.89
285.274	39.94
285.489	-48.13
285.704	132.09
285.919	60.42
286.134	58.37
286.349	23.55
286.564	130.05
286.779	128
286.995	54.27
287.21	9.22
287.425	50.18
287.64	37.89
287.855	27.65
288.07	21.5
288.285	64.51
288.5	62.46
288.715	70.65
288.93	54.27
289.145	44.03
289.36	101.37
289.575	7.17
289.79	134.14
290.004	13.31
290.219	66.56
290.434	64.51
290.649	-1.02
290.864	99.33
291.079	-19.46
291.294	80.89
291.509	117.76
291.724	84.99
291.938	9.22
292.153	76.8
292.368	39.94
292.583	101.37
292.798	101.37
293.012	-15.36
293.227	97.28
293.442	3.07
293.657	48.13
293.871	201.72
294.086	17.41
294.301	103.42
294.516	115.71
294.73	5.12
294.945	23.55
295.16	80.89
295.374	101.37
295.589	70.65
295.804	58.37
296.018	31.74
296.233	72.7
296.447	66.56
296.662	-5.12
296.877	93.18
297.091	74.75
297.306	7.17
297.52	60.42
297.735	56.32
297.949	109.57
298.164	66.56
298.378	78.85
298.593	-9.22
298.807	41.98
299.022	78.85
299.236	109.57
299.451	7.17
299.665	41.98
299.88	93.18
300.094	-21.5
300.309	3.07
300.523	1.02
300.737	103.42
300.952	60.42
301.166	87.04
301.381	41.98
301.595	58.37
301.809	37.89
302.024	62.46
302.238	11.26
302.452	95.23
302.667	-3.07
302.881	89.09
303.095	109.57
303.309	-5.12
303.524	66.56
303.738	15.36
303.952	103.42
304.166	19.46
304.381	-1.02
304.595	101.37
304.809	3.07
305.023	-17.41
305.237	-7.17
305.452	41.98
305.666	105.47
305.88	113.66
306.094	111.61
306.308	68.61
306.522	91.13
306.736	111.61
306.95	11.26
307.164	78.85
307.379	39.94
307.593	173.05
307.807	113.66
308.021	60.42
308.235	144.38
308.449	-7.17
308.663	19.46
308.877	99.33
309.091	74.75
309.305	68.61
309.519	-58.37
309.733	115.71
309.947	17.41
310.161	113.66
310.374	58.37
310.588	99.33
310.802	-13.31
311.016	87.04
311.23	76.8
311.444	95.23
311.658	13.31
311.872	78.85
312.085	66.56
312.299	109.57
312.513	93.18
312.727	-5.12
312.941	-1.02
313.154	-25.6
313.368	60.42
313.582	39.94
313.796	91.13
314.009	-1.02
314.223	72.7
314.437	7.17
314.651	103.42
314.864	70.65
315.078	19.46
315.292	-39.94
315.505	64.51
315.719	25.6
315.933	123.9
316.146	35.84
316.36	-21.5
316.573	64.51
316.787	128
317.001	46.08
317.214	-29.7
317.428	105.47
317.641	11.26
317.855	64.51
318.068	35.84
318.282	154.62
318.495	142.33
318.709	95.23
318.922	13.31
319.136	132.09
319.349	87.04
319.563	56.32
319.776	-25.6
319.99	11.26
320.203	80.89
320.417	15.36
320.63	54.27
320.843	158.72
321.057	56.32
321.27	95.23
321.483	66.56
321.697	62.46
321.91	35.84
322.124	60.42
322.337	66.56
322.55	7.17
322.763	97.28
322.977	25.6
323.19	5.12
323.403	70.65
323.617	50.18
323.83	64.51
324.043	27.65
324.256	74.75
324.469	31.74
324.683	166.91
324.896	68.61
325.109	46.08
325.322	-35.84
325.535	80.89
325.748	33.79
325.962	13.31
326.175	48.13
326.388	150.53
326.601	52.22
326.814	103.42
327.027	21.5
327.24	134.14
327.453	44.03
327.666	138.24
327.879	66.56
328.092	-33.79
328.305	68.61
328.518	31.74
328.731	35.84
328.944	3.07
329.157	119.81
329.37	58.37
329.583	224.25
329.796	125.95
330.009	3.07
330.222	87.04
330.435	103.42
330.648	80.89
330.861	17.41
331.073	72.7
331.286	109.57
331.499	125.95
331.712	11.26
331.925	91.13
332.138	91.13
332.35	52.22
332.563	-15.36
332.776	80.89
332.989	29.7
333.202	97.28
333.414	44.03
333.627	87.04
333.84	93.18
334.053	72.7
334.265	58.37
334.478	-23.55
334.691	44.03
334.903	58.37
335.116	-33.79
335.329	93.18
335.541	52.22
335.754	160.77
335.966	37.89
336.179	44.03
336.392	-1.02
336.604	29.7
336.817	103.42
337.029	54.27
337.242	37.89
337.454	93.18
337.667	91.13
337.88	144.38
338.092	99.33
338.305	134.14
338.517	23.55
338.729	162.81
338.942	150.53
339.154	5.12
339.367	-39.94
339.579	19.46
339.792	23.55
340.004	115.71
340.217	3.07
340.429	93.18
340.641	-1.02
340.854	44.03
341.066	62.46
341.278	64.51
341.491	181.25
341.703	142.33
341.915	56.32
342.128	121.85
342.34	58.37
342.552	-15.36
342.764	105.47
342.977	37.89
343.189	19.46
343.401	101.37
343.613	70.65
343.826	13.31
344.038	-15.36
344.25	113.66
344.462	23.55
344.674	78.85
344.886	48.13
345.099	80.89
345.311	111.61
345.523	109.57
345.735	3.07
345.947	1.02
346.159	95.23
346.371	82.94
346.583	160.77
346.795	173.05
347.007	76.8
347.219	27.65
347.431	62.46
347.643	130.05
347.855	80.89
348.067	203.77
348.279	-21.5
348.491	93.18
348.703	13.31
348.915	-13.31
349.127	44.03
349.339	29.7
349.551	87.04
349.763	68.61
349.975	109.57
350.187	97.28
350.399	62.46
350.61	89.09
350.822	-3.07
351.034	-3.07
351.246	130.05
351.458	13.31
351.669	48.13
351.881	128
352.093	52.22
352.305	117.76
352.517	93.18
352.728	109.57
352.94	136.19
353.152	60.42
353.363	74.75
353.575	150.53
353.787	166.91
353.999	62.46
354.21	164.86
354.422	-19.46
354.633	-7.17
354.845	9.22
355.057	56.32
355.268	66.56
355.48	52.22
355.692	60.42
355.903	-7.17
356.115	72.7
356.326	27.65
356.538	117.76
356.749	66.56
356.961	123.9
357.172	35.84
357.384	25.6
357.595	146.43
357.807	56.32
358.018	35.84
358.23	27.65
358.441	203.77
358.653	93.18
358.864	44.03
359.075	39.94
359.287	78.85
359.498	93.18
359.709	44.03
359.921	70.65
360.132	91.13
360.344	72.7
360.555	72.7
360.766	140.29
360.977	25.6
361.189	60.42
361.4	9.22
361.611	134.14
361.823	95.23
362.034	97.28
362.245	58.37
362.456	1.02
362.667	154.62
362.879	25.6
363.09	37.89
363.301	103.42
363.512	50.18
363.723	-68.61
363.935	78.85
364.146	54.27
364.357	-11.26
364.568	-15.36
364.779	80.89
364.99	130.05
365.201	41.98
365.412	181.25
365.623	-48.13
365.834	21.5
366.045	111.61
366.256	132.09
366.467	87.04
366.678	50.18
366.889	23.55
367.1	72.7
367.311	84.99
367.522	27.65
367.733	128
367.944	48.13
368.155	35.84
368.366	160.77
368.577	99.33
368.788	84.99
368.999	-11.26
369.209	35.84
369.42	99.33
369.631	160.77
369.842	101.37
370.053	23.55
370.264	95.23
370.474	95.23
370.685	121.85
370.896	82.94
371.107	78.85
371.317	72.7
371.528	66.56
371.739	146.43
371.95	52.22
372.16	9.22
372.371	-17.41
372.582	23.55
372.792	80.89
373.003	117.76
373.214	144.38
373.424	89.09
373.635	-17.41
373.846	152.57
374.056	54.27
374.267	125.95
374.477	19.46
374.688	58.37
374.898	13.31
375.109	72.7
375.319	-11.26
375.53	183.29
375.74	130.05
375.951	39.94
376.161	19.46
376.372	146.43
376.582	82.94
376.793	166.91
377.003	107.52
377.214	-27.65
377.424	39.94
377.635	31.74
377.845	54.27
378.055	166.91
378.266	15.36
378.476	11.26
378.686	70.65
378.897	119.81
379.107	121.85
379.317	148.48
379.528	3.07
379.738	203.77
379.948	-3.07
380.158	115.71
380.369	15.36
380.579	44.03
380.789	93.18
380.999	76.8
381.21	119.81
381.42	62.46
381.63	54.27
381.84	56.32
382.05	150.53
382.261	109.57
382.471	91.13
382.681	-1.02
382.891	146.43
383.101	37.89
383.311	-7.17
383.521	78.85
383.731	52.22
383.941	70.65
384.151	125.95
384.361	89.09
384.571	99.33
384.781	121.85
384.991	95.23
385.201	211.96
385.411	56.32
385.621	109.57
385.831	150.53
386.041	115.71
386.251	125.95
386.461	181.25
386.671	54.27
386.881	117.76
387.091	101.37
387.301	150.53
387.511	132.09
387.72	111.61
387.93	76.8
388.14	27.65
388.35	87.04
388.56	189.44
388.769	179.2
388.979	76.8
389.189	74.75
389.399	68.61
389.609	105.47
389.818	125.95
390.028	91.13
390.238	123.9
390.447	-1.02
390.657	95.23
390.867	72.7
391.076	99.33
391.286	138.24
391.496	105.47
391.705	115.71
391.915	74.75
392.125	80.89
392.334	25.6
392.544	123.9
392.753	54.27
392.963	66.56
393.172	130.05
393.382	93.18
393.591	183.29
393.801	46.08
394.01	125.95
394.22	105.47
394.429	91.13
394.639	95.23
394.848	84.99
395.058	91.13
395.267	113.66
395.477	103.42
395.686	146.43
395.895	134.14
396.105	216.06
396.314	103.42
396.524	136.19
396.733	160.77
396.942	187.39
397.152	152.57
397.361	138.24
397.57	101.37
397.78	91.13
397.989	134.14
398.198	197.63
398.407	80.89
398.617	107.52
398.826	101.37
399.035	91.13
399.244	177.15
399.453	78.85
399.663	187.39
399.872	150.53
400.081	117.76
400.29	195.58
400.499	168.96
400.708	246.78
400.917	119.81
401.127	162.81
401.336	72.7
401.545	185.34
401.754	189.44
401.963	150.53
402.172	136.19
402.381	117.76
402.59	128
402.799	128
403.008	177.15
403.217	209.92
403.426	125.95
403.635	152.57
403.844	148.48
404.053	84.99
404.262	107.52
404.471	234.49
404.68	140.29
404.888	187.39
405.097	87.04
405.306	209.92
405.515	162.81
405.724	173.05
405.933	191.49
406.142	187.39
406.35	242.68
406.559	197.63
406.768	211.96
406.977	275.45
407.185	234.49
407.394	222.2
407.603	209.92
407.812	277.5
408.02	250.88
408.229	320.51
408.438	289.79
408.646	179.2
408.855	175.1
409.064	343.03
409.272	322.56
409.481	310.27
409.69	295.93
409.898	295.93
410.107	340.99
410.315	424.95
410.524	355.32
410.733	400.38
410.941	318.46
411.15	404.47
411.358	476.15
411.567	433.15
411.775	420.86
411.984	467.96
412.192	504.82
412.401	515.06
412.609	515.06
412.818	594.93
413.026	539.64
413.234	465.91
413.443	537.59
413.651	545.78
413.86	644.09
414.068	719.86
414.276	599.03
414.485	621.56
414.693	771.06
414.901	715.77
415.11	666.61
415.318	719.86
415.526	771.06
415.734	828.4
415.943	799.73
416.151	846.84
416.359	945.14
416.567	898.03
416.776	887.79
416.984	1002.48
417.192	1076.21
417.4	936.95
417.608	984.05
417.817	1156.08
418.025	1074.16
418.233	1244.14
418.441	1123.31
418.649	1272.81
418.857	1248.24
419.065	1301.48
419.273	1291.24
419.481	1340.4
419.689	1450.99
419.897	1541.1
420.105	1602.54
420.313	1563.62
420.521	1733.61
420.729	1739.75
420.937	1688.55
421.145	1838.05
421.353	1819.62
421.561	1993.7
421.769	1981.41
421.977	2075.62
422.185	2034.66
422.393	2198.49
422.601	2452.44
422.809	2249.69
423.017	2395.1
423.224	2438.11
423.432	2571.22
423.64	2501.59
423.848	2888.66
424.056	2741.21
424.263	2907.09
424.471	2909.14
424.679	2986.96
424.887	3015.63
425.094	3218.38
425.302	3267.53
425.51	3435.47
425.718	3615.69
425.925	3484.62
426.133	3587.02
426.341	3789.77
426.548	3965.89
426.756	3775.43
426.964	4135.87
427.171	4352.96
427.379	4375.49
427.586	4359.1
427.794	4699.06
428.001	4746.17
428.209	5012.4
428.417	4889.53
428.624	5209.01
428.832	5182.38
429.039	5061.55
429.247	5073.84
429.454	5786.54
429.662	6108.07
429.869	5671.85
430.076	6179.75
430.284	6126.5
430.491	6230.94
430.699	6423.45
430.906	6544.28
431.114	6769.56
431.321	6753.18
431.528	6861.72
431.736	7363.47
431.943	7574.41
432.15	7558.03
432.358	7738.25
432.565	8125.32
432.772	7871.37
432.979	8414.08
433.187	8639.36
433.394	8590.2
433.601	8973.18
433.808	9325.43
434.016	9094.01
434.223	9610.09
434.43	10234.72
434.637	10150.76
434.844	10699.61
435.052	10773.34
435.259	10548.06
435.466	10773.34
435.673	10775.39
435.88	11457.36
436.087	12190.53
436.294	12069.7
436.501	11682.64
436.708	12041.03
436.915	12170.05
437.122	12886.84
437.329	12739.39
437.537	13490.99
437.743	13685.55
437.95	13366.07
438.157	14240.55
438.364	14615.33
438.571	14701.34
438.778	14703.39
438.985	16120.59
439.192	15436.56
439.399	15837.97
439.606	15502.1
439.813	16583.43
440.02	17572.6
440.227	17193.72
440.433	16800.51
440.64	17433.33
440.847	17171.19
441.054	17978.09
441.261	19108.57
441.467	18893.54
441.674	19217.11
441.881	19516.12
442.088	19894.99
442.294	19718.87
442.501	20337.35
442.708	20449.99
442.914	21209.79
443.121	22358.7
443.328	21596.85
443.534	23261.85
443.741	22713
443.948	22436.52
444.154	24046.23
444.361	23792.28
444.568	23947.92
444.774	23835.28
444.981	24068.75
445.187	25094.79
445.394	26116.72
445.6	25473.66
445.807	28406.35
446.013	26937.96
446.22	27634.27
446.426	28686.92
446.633	28805.7
446.839	30009.91
447.046	28283.47
447.252	30399.02
447.459	30102.07
447.665	29901.37
447.871	31773.21
448.078	32932.36
448.284	31136.29
448.491	31842.84
448.697	32954.89
448.903	33856
449.11	33968.63
449.316	33597.95
449.522	34081.27
449.728	35092.97
449.935	35056.11
450.141	35312.1
450.347	35842.53
450.553	34646.51
450.76	35404.26
450.966	36317.65
451.172	35869.15
451.378	37224.9
451.584	36276.69
451.791	36993.48
451.997	37079.5
452.203	37732.8
452.409	37892.54
452.615	37554.63
452.821	36368.85
453.027	35516.9
453.233	37663.17
453.44	36164.06
453.646	36655.57
453.852	36864.46
454.058	37185.99
454.264	36301.27
454.47	36809.17
454.676	35971.55
454.882	37390.79
455.088	34120.18
455.294	34822.64
455.5	34705.9
455.705	35676.64
455.911	34271.73
456.117	33366.53
456.323	32782.86
456.529	31250.98
456.735	32576.01
456.941	31935
457.147	31072.81
457.352	30224.95
457.558	30161.46
457.764	30317.11
457.97	29489.73
458.176	29239.87
458.381	29063.75
458.587	27447.9
458.793	27798.1
458.999	26126.96
459.204	27791.96
459.41	27189.86
459.616	25567.87
459.821	25528.95
460.027	25135.74
460.233	24803.97
460.438	23622.3
460.644	23732.89
460.85	22868.64
461.055	22201.01
461.261	22250.16
461.466	20724.42
461.672	19989.2
461.878	21422.78
462.083	20138.7
462.289	19624.66
462.494	19223.26
462.7	18696.93
462.905	18113.26
463.111	18690.79
463.316	18789.09
463.522	18586.34
463.727	18465.51
463.932	18647.78
464.138	18467.56
464.343	18244.33
464.549	17879.79
464.754	18141.93
464.959	17873.65
465.165	18049.77
465.37	17410.81
465.575	16816.9
465.781	17658.61
465.986	17591.03
466.191	17023.74
466.397	16724.74
466.602	15883.02
466.807	16575.24
467.012	16425.73
467.218	16268.04
467.423	16222.98
467.628	16272.14
467.833	16796.42
468.038	16337.67
468.244	15905.55
468.449	16532.23
468.654	15768.34
468.859	16116.49
469.064	15872.78
469.269	15264.54
469.474	15205.14
469.679	15604.5
469.885	15045.4
470.09	15332.12
470.295	15031.07
470.5	14676.77
470.705	14947.1
470.91	14418.72
471.115	14531.36
471.32	14832.41
471.525	14648.1
471.73	14349.09
471.935	14068.52
472.139	13763.37
472.344	13978.41
472.549	13595.44
472.754	13636.4
472.959	13302.58
473.164	13118.26
473.369	13249.33
473.574	13237.05
473.778	13351.73
473.983	13265.72
474.188	12970.81
474.393	12233.54
474.598	12430.15
474.802	12356.42
475.007	12401.47
475.212	12518.21
475.417	11883.34
475.621	11891.53
475.826	12106.57
476.031	11699.02
476.235	11578.19
476.44	11551.57
476.645	11559.76
476.849	11496.27
477.054	11258.71
477.259	11060.06
477.463	11234.13
477.668	10949.46
477.872	10951.51
478.077	10869.59
478.282	10412.9
478.486	10500.96
478.691	10373.99
478.895	10384.23
479.1	10308.45
479.304	10302.31
479.509	9857.9
479.713	10226.53
479.918	10058.6
480.122	9925.48
480.326	9786.22
480.531	9845.61
480.735	9851.75
480.94	9849.71
481.144	10064.74
481.348	9706.35
481.553	9606
481.757	9608.05
481.961	9642.86
482.166	9892.71
482.37	9507.69
482.574	9556.85
482.778	9460.59
482.983	9884.52
483.187	9599.85
483.391	9597.81
483.595	9612.14
483.8	9481.07
484.004	9599.85
484.208	9628.53
484.412	9606
484.616	9712.49
484.821	9792.36
485.025	9415.54
485.229	9573.23
485.433	9511.79
485.637	9493.36
485.841	9436.02
486.045	9544.56
486.249	9399.15
486.453	9415.54
486.657	9499.5
486.861	9448.3
487.065	9390.96
487.269	9608.05
487.473	9218.93
487.677	9550.7
487.881	9636.72
488.085	9565.04
488.289	9528.17
488.493	9438.06
488.697	9364.34
488.901	9544.56
489.105	9567.09
489.309	9749.36
489.512	9823.08
489.716	9855.85
489.92	9792.36
490.124	9878.38
490.328	9888.62
490.531	9796.46
490.735	9911.14
490.939	9827.18
491.143	9843.56
491.346	10003.3
491.55	9905
491.754	9728.88
491.958	10036.07
492.161	9763.69
492.365	9972.58
492.569	10290.02
492.772	10134.37
492.976	10206.05
493.18	10183.52
493.383	10386.27
493.587	10406.75
493.79	10402.66
493.994	10474.34
494.197	10406.75
494.401	10666.85
494.605	10683.23
494.808	10838.87
495.012	10908.51
495.215	11025.24
495.419	10871.64
495.622	11068.25
495.825	11127.64
496.029	11180.89
496.232	11397.97
496.436	11252.56
496.639	11692.88
496.843	11541.33
497.046	11662.16
497.249	11912.01
497.453	11807.56
497.656	12004.17
497.859	12153.67
498.063	12116.81
498.266	12632.9
498.469	12104.52
498.673	12616.51
498.876	12759.87
499.079	12743.49
499.282	12806.97
499.485	13214.52
499.689	13159.22
499.892	13390.64
500.095	13396.79
500.298	13589.3
500.501	13669.17
500.705	13882.16
500.908	14218.02
501.111	14361.38
501.314	14617.38
501.517	14486.31
501.72	14617.38
501.923	14940.96
502.126	15205.14
502.329	15147.8
502.532	15538.96
502.735	15229.72
502.938	15805.2
503.141	15858.45
503.344	15946.51
503.547	16085.77
503.75	16569.09
503.953	16382.73
504.156	16517.89
504.359	17068.8
504.562	16806.66
504.765	17081.08
504.968	17367.8
505.17	17658.61
505.373	17689.33
505.576	17799.92
505.779	18350.82
505.982	18248.43
506.185	18596.58
506.387	18578.15
506.59	18815.71
506.793	19223.26
506.996	19157.72
507.198	19716.82
507.401	19765.97
507.604	19669.72
507.807	20165.32
508.009	20456.14
508.212	20300.49
508.415	20447.94
508.617	20914.88
508.82	21117.63
509.022	20724.42
509.225	21279.42
509.428	21506.74
509.63	21820.08
509.833	21750.45
510.035	22553.26
510.238	22317.74
510.44	22504.1
510.643	22858.4
510.845	22917.79
511.048	22796.96
511.25	23526.04
511.453	23571.1
511.655	24343.18
511.858	24136.34
512.06	24445.58
512.262	24431.24
512.465	24511.11
512.667	24767.11
512.87	24769.16
513.072	25080.45
513.274	25586.3
513.477	25873.01
513.679	26348.14
513.881	26405.49
514.084	26186.35
514.286	26536.56
514.488	26579.56
514.69	27419.23
514.893	27241.06
515.095	27144.8
515.297	27900.5
515.499	27951.7
515.701	27931.22
515.904	28113.49
516.106	28774.98
516.308	28850.76
516.51	29219.39
516.712	29178.43
516.914	29676.09
517.116	30030.39
517.318	29950.52
517.52	30040.63
517.722	30290.48
517.925	30603.82
518.127	31027.75
518.329	31074.85
518.531	31126.05
518.733	31552.03
518.935	31920.66
519.136	31730.2
519.338	32104.98
519.54	32270.87
519.742	32539.15
519.944	32647.69
520.146	33038.86
520.348	33049.1
520.55	33470.98
520.752	33661.44
520.954	34019.83
521.155	33554.94
521.357	34331.12
521.559	34460.15
521.761	34996.71
521.963	34646.51
522.164	34800.11
522.366	34972.14
522.568	35203.56
522.77	35439.08
522.971	35975.64
523.173	35758.56
523.375	36075.99
523.576	36088.28
523.778	36305.37
523.98	36559.31
524.181	36882.89
524.383	36606.42
524.584	36870.61
524.786	36864.46
524.988	36614.61
525.189	37472.71
525.391	37661.12
525.592	37382.6
525.794	37581.25
525.995	38046.14
526.197	37812.67
526.398	38033.85
526.6	38087.1
526.801	38549.94
527.003	38447.54
527.204	38506.93
527.406	38986.16
527.607	38310.33
527.808	38654.39
528.01	38455.73
528.211	38633.91
528.412	39293.35
528.614	39127.47
528.815	39152.04
529.016	39670.18
529.218	39297.45
529.419	39455.14
529.62	39229.87
529.822	39293.35
530.023	39170.47
530.224	39528.87
530.425	39537.06
530.626	39297.45
530.828	39397.8
531.029	39889.31
531.23	39686.56
531.431	39459.24
531.632	39739.81
531.833	39952.8
532.035	39659.94
532.236	39498.15
532.437	40524.18
532.638	39592.36
532.839	39899.55
533.04	39748
533.241	39385.51
533.442	40552.85
533.643	40432.02
533.844	39924.13
534.045	40413.59
534.246	39666.08
534.447	40110.49
534.648	39643.56
534.849	40231.32
535.05	39856.54
535.251	39942.56
535.451	39911.84
535.652	40382.87
535.853	40040.86
536.054	40268.19
536.255	40094.11
536.456	40014.24
536.657	40509.85
536.857	39924.13
537.058	40055.2
537.259	40319.38
537.46	40282.52
537.66	40081.82
537.861	39872.93
538.062	39686.56
538.263	40327.58
538.463	40153.5
538.664	40196.51
538.865	40454.55
539.065	40565.14
539.266	40118.68
539.466	40593.81
539.667	39989.66
539.868	40728.98
540.068	40241.56
540.269	40348.06
540.469	40145.31
540.67	40227.23
540.87	40245.66
541.071	39893.41
541.271	40161.69
541.472	39971.23
541.672	40128.92
541.873	40405.4
542.073	39700.9
542.274	40208.79
542.474	40063.39
542.675	40108.44
542.875	40210.84
543.075	39938.46
543.276	39571.88
543.476	40022.43
543.676	39977.37
543.877	40296.86
544.077	40272.28
544.277	40065.44
544.478	39987.61
544.678	39709.09
544.878	40071.58
545.078	40102.3
545.279	40102.3
545.479	40161.69
545.679	39997.85
545.879	39723.43
546.079	40008.09
546.28	40022.43
546.48	39502.25
546.68	40133.02
546.88	40272.28
547.08	40180.12
547.28	40145.31
547.48	39717.28
547.68	40145.31
547.88	39584.16
548.081	40253.85
548.281	39788.96
548.481	39729.57
548.681	40012.19
548.881	39578.02
549.081	40106.4
549.28	39709.09
549.48	40053.15
549.68	39885.22
549.88	40362.39
550.08	39557.54
550.28	40327.58
550.48	39799.2
550.68	40040.86
550.88	39631.27
551.08	39661.99
551.279	39872.93
551.479	39821.73
551.679	39963.04
551.879	39496.1
552.079	39799.2
552.278	39852.45
552.478	39805.34
552.678	40024.48
552.878	39707.04
553.077	39981.47
553.277	39365.03
553.477	40108.44
553.676	39397.8
553.876	39592.36
554.076	39829.92
554.275	39608.74
554.475	39213.48
554.674	39848.35
554.874	39776.67
555.074	39711.14
555.273	40049.05
555.473	40112.54
555.672	39614.88
555.872	39639.46
556.071	39674.27
556.271	39715.23
556.47	39319.98
556.67	39229.87
556.869	39326.12
557.068	39518.63
557.268	39295.4
557.467	39391.65
557.667	39510.44
557.866	39524.77
558.065	39567.78
558.265	39666.08
558.464	39127.47
558.663	39367.08
558.863	38869.42
559.062	39813.54
559.261	39106.99
559.461	39639.46
559.66	39023.02
559.859	39524.77
560.058	39252.39
560.258	39221.67
560.457	38799.79
560.656	39268.78
560.855	39174.57
561.054	39328.17
561.253	38775.22
561.453	39039.4
561.652	39193
561.851	39446.95
562.05	39260.58
562.249	39096.75
562.448	39496.1
562.647	38756.78
562.846	38988.21
563.045	39123.37
563.244	38830.51
563.443	39295.4
563.642	38402.49
563.841	38701.49
564.04	38736.3
564.239	38957.49
564.438	38549.94
564.637	38916.53
564.836	38922.67
565.035	38531.51
565.234	38760.88
565.432	38914.48
565.631	38465.97
565.83	38793.65
566.029	38566.32
566.228	38711.73
566.427	38525.36
566.625	38287.8
566.824	38152.63
567.023	38764.98
567.222	38072.76
567.42	38597.04
567.619	38500.79
567.818	38191.55
568.016	38093.24
568.215	38678.96
568.414	38416.82
568.612	38607.28
568.811	38375.86
569.01	38078.91
569.208	37413.32
569.407	38404.53
569.605	37894.59
569.804	38097.34
570.002	37513.67
570.201	37806.53
570.4	37663.17
570.598	37687.74
570.797	37493.19
570.995	37659.07
571.193	37210.57
571.392	38023.61
571.59	37460.42
571.789	37654.98
571.987	37622.21
572.186	38031.8
572.384	37427.65
572.582	37560.77
572.781	37470.66
572.979	36968.91
573.177	37392.84
573.376	37063.11
573.574	37071.31
573.772	37185.99
573.971	37120.46
574.169	36899.28
574.367	36850.13
574.565	37188.04
574.763	37243.34
574.962	36815.31
575.16	36889.04
575.358	36917.71
575.556	36831.69
575.754	36962.76
575.952	36594.13
576.151	36774.35
576.349	36415.96
576.547	36514.26
576.745	36481.49
576.943	36188.63
577.141	36338.13
577.339	36325.85
577.537	36172.25
577.735	36252.12
577.933	35932.64
578.131	35840.48
578.329	35752.41
578.527	35791.33
578.725	36061.66
578.923	36022.75
579.121	35574.24
579.319	35332.58
579.516	35414.5
579.714	36055.51
579.912	35230.18
580.11	35256.81
580.308	35566.05
580.506	35469.79
580.704	35006.95
580.901	35252.71
581.099	35834.33
581.297	34935.27
581.495	35011.05
581.692	35125.74
581.89	34998.76
582.088	35166.7
582.285	35109.35
582.483	35035.63
582.681	34773.49
582.878	34763.25
583.076	34533.87
583.274	34937.32
583.471	34443.76
583.669	34597.36
583.866	34462.19
584.064	34773.49
584.262	33919.48
584.459	34630.13
584.657	33794.56
584.854	34720.24
585.052	33753.6
585.249	33968.63
585.447	34267.64
585.644	33595.9
585.841	33589.76
586.039	34167.29
586.236	33401.35
586.434	33710.59
586.631	33268.23
586.828	33726.97
587.026	33630.72
587.223	33712.64
587.42	32934.41
587.618	33217.03
587.815	32987.66
588.012	32899.59
588.21	32647.69
588.407	33434.11
588.604	32805.39
588.801	32827.92
588.999	32752.14
589.196	32758.28
589.393	32958.99
589.59	32639.5
589.787	32350.74
589.984	32418.32
590.182	32315.92
590.379	32569.87
590.576	31908.38
590.773	32320.02
590.97	32385.55
591.167	32326.16
591.364	31963.67
591.561	32047.64
591.758	31547.93
591.955	32090.65
592.152	32082.45
592.349	31670.81
592.546	31922.71
592.743	31853.08
592.94	31588.89
593.137	31255.08
593.334	31713.82
593.531	31216.16
593.727	31660.57
593.924	31554.08
594.121	31085.09
594.318	31539.74
594.515	31226.4
594.712	31664.67
594.908	30681.64
595.105	31484.45
595.302	31029.8
595.499	31052.33
595.696	30636.59
595.892	30509.61
596.089	30921.26
596.286	30843.43
596.482	30689.84
596.679	30118.45
596.876	30323.25
597.072	30476.85
597.269	30448.18
597.466	30229.04
597.662	30188.08
597.859	29954.61
598.055	30245.43
598.252	29475.39
598.448	29809.21
598.645	29635.13
598.841	29700.67
599.038	29876.79
599.234	29694.52
599.431	29456.96
599.627	29649.47
599.824	29930.04
600.02	29135.43
600.217	29731.39
600.413	29219.39
600.609	29209.15
600.806	28861
601.002	29262.4
601.198	28879.43
601.395	29151.81
601.591	29121.09
601.787	28971.59
601.984	29329.98
602.18	29184.58
602.376	28637.77
602.572	28762.7
602.769	28768.84
602.965	28408.4
603.161	28719.69
603.357	28430.93
603.553	28406.35
603.75	28578.38
603.946	28187.22
604.142	28627.53
604.338	27892.31
604.534	28299.86
604.73	27927.13
604.926	27963.99
605.122	28258.9
605.318	28064.34
605.514	27953.75
605.71	27679.32
605.906	27910.74
606.102	27941.46
606.298	27996.76
606.494	27626.07
606.69	27644.51
606.886	27667.03
607.082	27505.24
607.278	27867.73
607.474	27357.79
607.67	27445.85
607.866	27114.08
608.062	27742.81
608.257	27370.08
608.453	27421.28
608.649	27613.79
608.845	27232.86
609.041	27275.87
609.236	27447.9
609.432	27130.47
609.628	27052.64
609.824	27243.1
610.019	26819.17
610.215	26897
610.411	27284.06
610.606	26747.5
610.802	27282.02
610.998	26866.28
611.193	26970.72
611.389	26823.27
611.584	26722.92
611.78	26499.69
611.976	26790.5
612.171	26577.51
612.367	26784.36
612.562	26698.34
612.758	26458.73
612.953	26223.22
613.149	27026.02
613.344	26342
613.539	26839.65
613.735	26540.65
613.93	26657.39
614.126	26323.57
614.321	26847.85
614.517	26380.91
614.712	26120.82
614.907	25997.94
615.103	26542.7
615.298	26253.94
615.493	26432.11
615.688	26149.49
615.884	26571.37
616.079	25733.75
616.274	26186.35
616.47	26157.68
616.665	26106.48
616.86	26149.49
617.055	25643.64
617.25	25657.98
617.445	25973.36
617.641	25318.01
617.836	25770.61
618.031	25287.29
618.226	25987.7
618.421	25649.78
618.616	25490.04
618.811	25078.4
619.006	25614.97
619.201	24840.84
619.396	25221.76
619.591	24889.99
619.786	25025.15
619.981	24943.24
620.176	24945.28
620.371	24269.45
620.566	24398.48
620.761	24552.07
620.956	24597.13
621.151	24046.23
621.346	24126.1
621.541	24062.61
621.735	24339.08
621.93	23829.14
622.125	24044.18
622.32	23704.21
622.515	23528.09
622.709	23528.09
622.904	23708.31
623.099	23376.54
623.294	23405.21
623.488	23337.63
623.683	23413.4
623.878	22463.15
624.072	22979.23
624.267	22719.14
624.462	22719.14
624.656	22411.95
624.851	22444.71
625.046	22422.19
625.24	22170.29
625.435	22237.87
625.629	21963.44
625.824	21932.72
626.018	21824.18
626.213	21549.75
626.407	21551.8
626.602	21375.67
626.796	21375.67
626.991	21301.95
627.185	21355.19
627.38	21136.06
627.574	21066.43
627.768	21269.18
627.963	20830.91
628.157	20521.67
628.352	20415.18
628.546	20247.24
628.74	20730.56
628.935	20216.52
629.129	20167.37
629.323	19851.99
629.517	19892.94
629.712	19649.24
629.906	19927.76
630.1	19827.41
630.294	19833.55
630.489	19419.86
630.683	19546.84
630.877	19200.73
631.071	19405.53
631.265	19249.88
631.459	18977.5
631.653	19075.8
631.848	18789.09
632.042	18635.49
632.236	18744.03
632.43	18797.28
632.624	18627.3
632.818	18475.75
633.012	18510.57
633.206	18447.08
633.4	18406.12
633.594	18035.44
633.788	18184.94
633.982	18143.98
634.176	17867.5
634.369	17687.28
634.563	17705.71
634.757	17453.81
634.951	17478.39
635.145	17711.86
635.339	17404.66
635.533	17357.56
635.726	17181.43
635.92	17265.4
636.114	17036.03
636.308	16902.91
636.501	16964.35
636.695	16931.58
636.889	16485.12
637.083	16599.81
637.276	16763.65
637.47	16120.59
637.664	16179.98
637.857	16468.74
638.051	16341.77
638.244	15928.08
638.438	16098.06
638.632	15964.94
638.825	15905.55
639.019	15860.49
639.212	15647.51
639.406	15686.42
639.599	15455
639.793	15790.86
639.986	15000.35
640.18	15297.3
640.373	15166.23
640.567	15088.41
640.76	14736.16
640.954	14715.68
641.147	14662.43
641.34	14650.14
641.534	14897.95
641.727	14721.82
641.92	14488.35
642.114	14488.35
642.307	14605.09
642.5	14267.17
642.694	14211.88
642.887	13833
643.08	14232.36
643.273	14125.86
643.467	13873.96
643.66	13675.31
643.853	13615.92
644.046	13681.46
644.239	13531.95
644.432	13572.91
644.626	13415.22
644.819	13642.54
645.012	13392.69
645.205	13257.53
645.398	13435.7
645.591	12876.6
645.784	12909.37
645.977	12735.29
646.17	12923.71
646.363	12575.55
646.556	12778.3
646.749	12557.12
646.942	12587.84
647.135	12471.11
647.328	12180.29
647.521	12245.83
647.714	12180.29
647.907	12284.74
648.099	12073.8
648.292	12055.37
648.485	12086.09
648.678	11828.04
648.871	11705.17
649.064	11811.66
649.256	11789.13
649.449	11821.9
649.642	11604.81
649.835	11520.85
650.027	11318.1
650.22	11252.56
650.413	11141.97
650.605	11367.25
650.798	11326.29
650.991	11025.24
651.183	11051.86
651.376	10941.27
651.568	11111.25
651.761	10902.36
651.954	10740.57
652.146	10734.43
652.339	10767.2
652.531	10777.44
652.724	10550.11
652.916	10197.86
653.109	10513.25
653.301	10535.78
653.494	10423.14
653.686	10056.55
653.879	10224.48
654.071	10158.95
654.263	9999.21
654.456	9986.92
654.648	10228.58
654.84	9784.17
655.033	10210.15
655.225	9839.47
655.417	9606
655.61	9933.67
655.802	9870.19
655.994	9704.3
656.186	9804.65
656.379	9552.75
656.571	9618.29
656.763	9362.29
656.955	9427.82
657.148	9487.22
657.34	9448.3
657.532	9229.17
657.724	9350
657.916	9122.68
658.108	9417.58
658.3	9026.42
658.492	8954.74
658.684	8942.46
658.876	8915.83
659.068	8975.22
659.26	8842.11
659.452	8729.47
659.644	8711.04
659.836	8684.41
660.028	8768.38
660.22	8352.64
660.412	8469.37
660.604	8342.4
660.796	8399.74
660.988	8422.27
661.18	8287.11
661.372	8328.06
661.563	8434.56
661.755	8352.64
661.947	8264.58
662.139	8221.57
662.331	8182.66
662.522	8076.16
662.714	8119.17
662.906	8074.12
663.097	7932.81
663.289	7768.97
663.481	7635.85
663.673	7809.93
663.864	7666.57
664.056	7719.82
664.247	7623.56
664.439	7582.6
664.631	7699.34
664.822	7736.2
665.014	7447.44
665.205	7402.38
665.397	7437.2
665.588	7549.84
665.78	7416.72
665.971	7213.97
666.163	7273.36
666.354	7306.13
666.546	7027.6
666.737	6976.41
666.929	7150.48
667.12	7160.72
667.311	7037.84
667.503	6843.29
667.694	7046.04
667.885	6779.8
668.077	6976.41
668.268	6945.69
668.459	6831
668.651	6845.34
668.842	6835.1
669.033	6575
669.224	6726.55
669.416	6855.58
669.607	6618.01
669.798	6722.46
669.989	6726.55
670.18	6511.52
670.371	6632.35
670.563	6462.37
670.754	6484.89
670.945	6491.04
671.136	6488.99
671.327	6591.39
671.518	6495.13
671.709	6335.39
671.9	6478.75
672.091	6323.1
672.282	6417.31
672.473	6296.48
672.664	6349.73
672.855	6276
673.046	6267.81
673.237	6284.19
673.428	6271.9
673.619	6192.03
673.809	6171.55
674	6060.96
674.191	6097.83
674.382	6198.18
674.573	5919.65
674.764	6056.87
674.954	6126.5
675.145	5979.04
675.336	5985.19
675.527	6007.72
675.717	5995.43
675.908	6017.96
676.099	5897.13
676.289	5925.8
676.48	5702.57
676.671	5721
676.861	5764.01
677.052	5690.28
677.243	5569.45
677.433	5780.39
677.624	5774.25
677.814	5725.1
678.005	5690.28
678.195	5749.67
678.386	5743.53
678.576	5602.22
678.767	5612.46
678.957	5577.64
679.148	5776.3
679.338	5739.43
679.529	5469.1
679.719	5413.81
679.909	5718.95
680.1	5477.29
680.29	5524.4
680.481	5553.07
680.671	5626.79
680.861	5399.47
681.052	5458.86
681.242	5450.67
681.432	5610.41
681.622	5487.53
681.813	5321.65
682.003	5430.19
682.193	5348.27
682.383	5362.61
682.573	5444.52
682.764	5401.52
682.954	5307.31
683.144	5454.76
683.334	5274.54
683.524	5290.93
683.714	5385.13
683.904	5272.5
684.094	5004.21
684.284	5229.49
684.474	5241.78
684.664	5215.15
684.854	5323.69
685.044	5198.77
685.234	5170.1
685.424	5290.93
685.614	5082.03
685.804	5172.15
685.994	5110.71
686.184	5084.08
686.374	5112.75
686.564	5082.03
686.753	5012.4
686.943	5018.55
687.133	5004.21
687.323	4944.82
687.513	5043.12
687.702	4955.06
687.892	4967.35
688.082	4905.91
688.272	4967.35
688.461	4926.39
688.651	5049.27
688.841	4944.82
689.03	4807.61
689.22	4869.05
689.41	4780.98
689.599	4780.98
689.789	4742.07
689.979	4854.71
690.168	4799.41
690.358	4717.5
690.547	4852.66
690.737	4780.98
690.926	4877.24
691.116	4754.36
691.305	4846.52
691.495	4649.91
691.684	4799.41
691.874	4694.97
692.063	4729.78
692.252	4846.52
692.442	4715.45
692.631	4623.29
692.82	4660.15
693.01	4649.91
693.199	4705.21
693.388	4731.83
693.578	4645.82
693.767	4793.27
693.956	4711.35
694.146	4598.71
694.335	4658.1
694.524	4514.75
694.713	4688.82
694.902	4572.09
695.092	4725.69
695.281	4690.87
695.47	4830.13
695.659	4760.5
695.848	4694.97
696.037	4590.52
696.226	4805.56
696.415	4752.31
696.604	4760.5
696.793	4576.19
696.982	4780.98
697.171	4862.9
697.36	4715.45
697.549	4727.74
697.738	4701.11
697.927	4662.2
698.116	4836.28
698.305	4910.01
698.494	4823.99
698.683	4846.52
698.872	4895.67
699.061	4799.41
699.25	4711.35
699.438	4811.7
699.627	4740.02
699.816	4969.4
700.005	4783.03
700.193	4701.11
700.382	4828.09
700.571	4731.83
700.76	4899.77
700.948	4797.37
701.137	4811.7
701.326	5008.31
701.514	4809.65
701.703	4867
701.892	4819.89
702.08	4862.9
702.269	4672.44
702.457	4836.28
702.646	4776.89
702.834	4772.79
703.023	4783.03
703.212	4897.72
703.4	4979.64
703.589	4938.68
703.777	4965.3
703.965	4766.65
704.154	5129.14
704.342	4821.94
704.531	4758.46
704.719	4762.55
704.907	4936.63
705.096	4934.58
705.284	4946.87
705.472	4963.25
705.661	4735.93
705.849	4971.44
706.037	4940.72
706.226	4856.76
706.414	4891.57
706.602	4846.52
706.79	4799.41
706.979	4762.55
707.167	4817.85
707.355	4785.08
707.543	4840.37
707.731	4856.76
707.919	4819.89
708.107	4823.99
708.296	4803.51
708.484	4762.55
708.672	4758.46
708.86	4885.43
709.048	4819.89
709.236	4748.22
709.424	4735.93
709.612	4780.98
709.8	4809.65
709.988	4664.25
710.176	4936.63
710.364	4807.61
710.551	4789.17
710.739	4787.13
710.927	4815.8
711.115	4713.4
711.303	4867
711.491	4795.32
711.679	4658.1
711.866	4932.53
712.054	4807.61
712.242	4776.89
712.43	4848.57
712.617	4877.24
712.805	4707.26
712.993	4660.15
713.181	4713.4
713.368	4828.09
713.556	4688.82
713.744	4633.53
713.931	4742.07
714.119	4699.06
714.306	4586.43
714.494	4531.13
714.682	4578.23
714.869	4565.95
715.057	4633.53
715.244	4639.67
715.432	4793.27
715.619	4594.62
715.807	4662.2
715.994	4692.92
716.182	4484.03
716.369	4580.28
716.556	4514.75
716.744	4486.08
716.931	4533.18
717.119	4826.04
717.306	4672.44
717.493	4574.14
717.681	4547.51
717.868	4512.7
718.055	4611
718.242	4461.5
718.43	4559.8
718.617	4547.51
718.804	4600.76
718.991	4541.37
719.179	4445.12
719.366	4367.29
719.553	4504.51
719.74	4488.12
719.927	4533.18
720.114	4236.22
720.301	4359.1
720.488	4215.74
720.676	4408.25
720.863	4475.84
721.05	4334.53
721.237	4340.67
721.424	4377.53
721.611	4307.9
721.798	4314.05
721.985	4297.66
722.172	4416.44
722.358	4416.44
722.545	4221.89
722.732	4182.98
722.919	4318.14
723.106	4312
723.293	4297.66
723.48	4148.16
723.667	4322.24
723.853	4199.36
724.04	4203.46
724.227	4187.07
724.414	4305.85
724.6	4182.98
724.787	4154.3
724.974	4047.81
725.161	4150.21
725.347	4189.12
725.534	4119.49
725.72	4115.39
725.907	4070.34
726.094	4056
726.28	4015.04
726.467	4045.76
726.653	4090.82
726.84	4094.91
727.027	4164.54
727.213	3939.27
727.4	4154.3
727.586	4139.97
727.773	4096.96
727.959	4066.24
728.145	3986.37
728.332	3961.8
728.518	3853.25
728.705	4072.39
728.891	4070.34
729.077	3853.25
729.264	4031.43
729.45	4076.48
729.636	3937.22
729.823	3818.44
730.009	4027.33
730.195	4012.99
730.382	3910.6
730.568	3812.29
730.754	3951.56
730.94	3750.85
731.126	3875.78
731.313	3859.4
731.499	3851.21
731.685	3822.53
731.871	3853.25
732.057	3836.87
732.243	3904.45
732.429	3679.18
732.615	3806.15
732.801	3849.16
732.987	3822.53
733.173	3654.6
733.359	3748.81
733.545	3603.4
733.731	3689.42
733.917	3771.33
734.103	3634.12
734.289	3820.49
734.475	3619.78
734.661	3763.14
734.847	3632.07
735.033	3650.5
735.219	3611.59
735.404	3642.31
735.59	3488.71
735.776	3544.01
735.962	3644.36
736.148	3501
736.333	3623.88
736.519	3435.47
736.705	3578.83
736.89	3431.37
737.076	3345.36
737.262	3378.12
737.447	3412.94
737.633	3380.17
737.819	3537.87
738.004	3541.96
738.19	3529.67
738.375	3472.33
738.561	3396.56
738.747	3427.28
738.932	3392.46
739.118	3470.28
739.303	3408.84
739.489	3437.52
739.674	3306.45
739.859	3189.71
740.045	3425.23
740.23	3341.26
740.416	3161.04
740.601	3238.86
740.786	3257.29
740.972	3167.18
741.157	3283.92
741.342	3079.12
741.528	3138.51
741.713	3111.89
741.898	3208.14
742.084	3163.09
742.269	3169.23
742.454	3068.88
742.639	3236.81
742.824	3050.45
743.01	3046.35
743.195	3109.84
743.38	2982.87
743.565	3064.79
743.75	3036.11
743.935	2991.06
744.12	3113.94
744.305	2927.57
744.49	2841.56
744.675	2962.39
744.86	2843.6
745.045	2923.48
745.23	2925.52
745.415	2952.15
745.6	2923.48
745.785	2966.48
745.97	2915.28
746.155	2798.55
746.34	2825.17
746.525	2710.49
746.71	2931.67
746.895	2647
747.079	2739.16
747.264	2675.67
747.449	2671.58
747.634	2599.9
747.819	2630.62
748.003	2542.55
748.188	2589.66
748.373	2624.47
748.557	2577.37
748.742	2542.55
748.927	2452.44
749.111	2628.57
749.296	2515.93
749.481	2425.82
749.665	2489.31
749.85	2388.96
750.034	2491.35
750.219	2429.91
750.404	2413.53
750.588	2386.91
750.773	2380.76
750.957	2278.37
751.141	2323.42
751.326	2386.91
751.51	2329.56
751.695	2235.36
751.879	2245.6
752.064	2311.13
752.248	2304.99
752.432	2348
752.617	2304.99
752.801	2225.12
752.985	2237.41
753.17	2218.97
753.354	2218.97
753.538	2126.82
753.722	2085.86
753.907	2114.53
754.091	2042.85
754.275	2149.34
754.459	2178.01
754.643	1954.79
754.828	2098.14
755.012	2100.19
755.196	1999.84
755.38	2094.05
755.564	1926.11
755.748	2069.47
755.932	2028.51
756.116	1948.64
756.3	1854.44
756.484	1897.44
756.668	1940.45
756.852	1913.83
757.036	1856.48
757.22	1756.13
757.404	1860.58
757.588	1815.52
757.772	1909.73
757.956	1813.48
758.14	2008.03
758.323	1772.52
758.507	1768.42
758.691	1799.14
758.875	1696.74
759.059	1782.76
759.242	1862.63
759.426	1772.52
759.61	1741.8
759.794	1600.49
759.977	1704.93
760.161	1891.3
760.345	1752.04
760.528	1813.48
760.712	1661.93
760.895	1782.76
761.079	1733.61
761.263	1602.54
761.446	1618.92
761.63	1651.69
761.813	1598.44
761.997	1518.57
762.18	1623.02
762.364	1567.72
762.547	1508.33
762.731	1520.62
762.914	1633.26
763.098	1588.2
763.281	1502.19
763.464	1448.94
763.648	1541.1
763.831	1440.75
764.015	1537
764.198	1485.8
764.381	1571.82
764.564	1516.52
764.748	1491.95
764.931	1453.03
765.114	1481.71
765.297	1520.62
765.481	1438.7
765.664	1537
765.847	1399.79
766.03	1442.79
766.213	1358.83
766.397	1465.32
766.58	1434.6
766.763	1475.56
766.946	1428.46
767.129	1358.83
767.312	1356.78
767.495	1377.26
767.678	1354.73
767.861	1455.08
768.044	1516.52
768.227	1281
768.41	1393.64
768.593	1524.71
768.776	1371.12
768.959	1416.17
769.142	1504.23
769.324	1258.48
769.507	1313.77
769.69	1362.92
769.873	1309.68
770.056	1403.88
770.239	1291.24
770.421	1405.93
770.604	1311.72
770.787	1303.53
770.97	1262.57
771.152	1319.92
771.335	1301.48
771.518	1266.67
771.7	1221.61
771.883	1356.78
772.066	1307.63
772.248	1272.81
772.431	1354.73
772.613	1283.05
772.796	1233.9
772.978	1207.28
773.161	1430.51
773.343	1229.81
773.526	1166.32
773.708	1225.71
773.891	1147.89
774.073	1082.35
774.256	1135.6
774.438	1182.7
774.621	1184.75
774.803	1231.85
774.985	1156.08
775.168	1172.46
775.35	1049.58
775.532	1104.88
775.715	1059.82
775.897	1043.44
776.079	1137.65
776.261	1086.45
776.444	1147.89
776.626	1147.89
776.808	1059.82
776.99	998.38
777.173	1100.78
777.355	1033.2
777.537	973.81
777.719	1082.35
777.901	1000.43
778.083	1045.49
778.265	1010.67
778.447	1037.3
778.629	1031.15
778.811	1041.39
778.993	1016.82
779.175	1029.1
779.357	1016.82
779.539	953.33
779.721	914.42
779.903	943.09
780.085	990.19
780.267	859.12
780.449	1039.34
780.631	977.91
780.812	967.67
780.994	918.51
781.176	715.77
781.358	928.75
781.54	869.36
781.721	912.37
781.903	963.57
782.085	773.11
782.267	975.86
782.448	807.92
782.63	812.02
782.812	826.36
782.993	859.12
783.175	828.4
783.357	781.3
783.538	836.6
783.72	801.78
783.901	758.77
784.083	828.4
784.264	803.83
784.446	709.62
784.627	744.44
784.809	797.68
784.99	719.86
785.172	705.53
785.353	736.24
785.535	750.58
785.716	695.29
785.897	654.33
786.079	803.83
786.26	746.48
786.441	705.53
786.623	603.13
786.804	650.23
786.985	691.19
787.167	740.34
787.348	701.43
787.529	623.61
787.71	769.01
787.891	764.92
788.073	535.54
788.254	648.18
788.435	721.91
788.616	590.84
788.797	621.56
788.978	642.04
789.159	533.5
789.34	607.22
789.522	551.93
789.703	607.22
789.884	615.41
790.065	568.31
790.246	572.41
790.427	570.36
790.607	662.52
790.788	541.69
790.969	564.22
791.15	529.4
791.331	535.54
791.512	568.31
791.693	539.64
791.874	494.58
792.054	635.89
792.235	576.5
792.416	519.16
792.597	502.78
792.778	605.17
792.958	562.17
793.139	508.92
793.32	525.3
793.5	482.3
793.681	486.39
793.862	529.4
794.042	525.3
794.223	443.39
794.404	429.05
794.584	414.71
794.765	416.76
794.945	488.44
795.126	502.78
795.306	562.17
795.487	420.86
795.667	457.72
795.848	472.06
796.028	480.25
796.209	439.29
796.389	424.95
796.57	457.72
796.75	470.01
796.93	482.3
797.111	406.52
797.291	447.48
797.471	420.86
797.652	472.06
797.832	510.97
798.012	478.2
798.192	439.29
798.373	408.57
798.553	390.14
798.733	478.2
798.913	355.32
799.093	328.7
799.274	490.49
799.454	433.15
799.634	408.57
799.814	449.53
799.994	410.62
800.174	435.19
800.354	324.6
800.534	287.74
800.714	433.15
800.894	439.29
801.074	355.32
801.254	283.64
801.434	377.85
801.614	353.27
801.794	343.03
801.974	1285.1
802.154	330.75
802.334	433.15
802.514	293.88
802.693	357.37
802.873	381.95
803.053	437.24
803.233	351.23
803.413	396.28
803.592	267.26
803.772	320.51
803.952	379.9
804.131	310.27
804.311	353.27
804.491	371.71
804.67	338.94
804.85	267.26
805.03	363.51
805.209	381.95
805.389	236.54
805.568	322.56
805.748	293.88
805.928	343.03
806.107	343.03
806.287	390.14
806.466	287.74
806.646	300.03
806.825	302.08
807.004	250.88
807.184	314.36
807.363	396.28
807.543	271.36
807.722	328.7
807.901	353.27
808.081	269.31
808.26	211.96
808.439	304.12
808.619	310.27
808.798	289.79
808.977	281.6
809.156	338.94
809.336	349.18
809.515	259.07
809.694	195.58
809.873	283.64
810.052	318.46
810.231	304.12
810.411	240.64
810.59	328.7
810.769	199.68
810.948	275.45
811.127	263.16
811.306	263.16
811.485	177.15
811.664	300.03
811.843	279.55
812.022	193.53
812.201	289.79
812.38	168.96
812.559	297.98
812.737	267.26
812.916	226.3
813.095	189.44
813.274	277.5
813.453	273.4
813.632	281.6
813.811	216.06
813.989	173.05
814.168	289.79
814.347	201.72
814.526	230.4
814.704	265.21
814.883	285.69
815.062	218.11
815.24	265.21
815.419	214.01
815.598	322.56
815.776	166.91
815.955	211.96
816.133	154.62
816.312	300.03
816.49	164.86
816.669	222.2
816.847	207.87
817.026	187.39
817.204	252.92
817.383	279.55
817.561	191.49
817.74	310.27
817.918	207.87
818.097	152.57
818.275	185.34
818.453	267.26
818.632	175.1
818.81	197.63
818.988	179.2
819.167	132.09
819.345	173.05
819.523	150.53
819.701	179.2
819.879	234.49
820.058	115.71
820.236	158.72
820.414	193.53
820.592	216.06
820.77	199.68
820.948	152.57
821.127	171.01
821.305	173.05
821.483	150.53
821.661	168.96
821.839	203.77
822.017	160.77
822.195	119.81
822.373	179.2
822.551	138.24
822.729	226.3
822.907	199.68
823.085	193.53
823.262	158.72
823.44	195.58
823.618	177.15
823.796	142.33
823.974	189.44
824.152	93.18
824.329	130.05
824.507	181.25
824.685	171.01
824.863	123.9
825.04	107.52
825.218	130.05
825.396	173.05
825.574	232.44
825.751	197.63
825.929	201.72
826.107	128
826.284	230.4
826.462	181.25
826.639	103.42
826.817	107.52
826.994	189.44
827.172	80.89
827.349	205.82
827.527	228.35
827.704	201.72
827.882	238.59
828.059	78.85
828.237	125.95
828.414	195.58
828.591	41.98
828.769	66.56
828.946	107.52
829.124	183.29
829.301	236.54
829.478	171.01
829.655	162.81
829.833	142.33
830.01	146.43
830.187	103.42
830.364	148.48
830.542	156.67
830.719	171.01
830.896	179.2
831.073	111.61
831.25	144.38
831.427	171.01
831.604	152.57
831.782	72.7
831.959	179.2
832.136	60.42
832.313	117.76
832.49	80.89
832.667	115.71
832.844	150.53
833.021	160.77
833.198	134.14
833.374	197.63
833.551	193.53
833.728	50.18
833.905	130.05
834.082	138.24
834.259	68.61
834.436	132.09
834.612	64.51
834.789	160.77
834.966	125.95
835.143	113.66
835.319	9.22
835.496	166.91
835.673	115.71
835.85	115.71
836.026	103.42
836.203	158.72
836.38	48.13
836.556	50.18
836.733	58.37
836.909	158.72
837.086	107.52
837.262	27.65
837.439	89.09
837.616	138.24
837.792	39.94
837.968	152.57
838.145	101.37
838.321	35.84
838.498	152.57
838.674	111.61
838.851	105.47
839.027	99.33
839.203	91.13
839.38	95.23
839.556	62.46
839.732	173.05
839.909	74.75
840.085	134.14
840.261	84.99
840.437	78.85
840.614	119.81
840.79	78.85
840.966	125.95
841.142	64.51
841.318	62.46
841.494	74.75
841.671	60.42
841.847	54.27
842.023	72.7
842.199	101.37
842.375	113.66
842.551	31.74
842.727	35.84
842.903	164.86
843.079	-48.13
843.255	166.91
843.431	117.76
843.607	37.89
843.783	-52.22
843.959	119.81
844.134	17.41
844.31	130.05
844.486	68.61
844.662	117.76
844.838	33.79
845.013	95.23
845.189	97.28
845.365	130.05
845.541	97.28
845.716	52.22
845.892	95.23
846.068	56.32
846.244	17.41
846.419	160.77
846.595	-1.02
846.77	-19.46
846.946	107.52
847.122	99.33
847.297	52.22
847.473	201.72
847.648	-1.02
847.824	78.85
847.999	60.42
848.175	-11.26
848.35	64.51
848.526	156.67
848.701	97.28
848.876	183.29
849.052	41.98
849.227	5.12
849.403	74.75
849.578	17.41
849.753	82.94
849.929	72.7
850.104	-15.36
850.279	58.37
850.454	87.04
850.63	148.48
850.805	91.13
850.98	70.65
851.155	91.13
851.33	3.07
851.505	-87.04
851.681	103.42
851.856	99.33
852.031	152.57
852.206	33.79
852.381	29.7
852.556	-46.08
852.731	54.27
852.906	66.56
853.081	101.37
853.256	29.7
853.431	60.42
853.606	3.07
853.781	-25.6
853.956	-13.31
854.131	109.57
854.305	70.65
854.48	58.37
854.655	132.09
854.83	64.51
855.005	105.47
855.18	121.85
855.354	72.7
855.529	60.42
855.704	29.7
855.879	128
856.053	91.13
856.228	62.46
856.403	13.31
856.577	93.18
856.752	29.7
856.926	29.7
857.101	113.66
857.276	1.02
857.45	3.07
857.625	72.7
857.799	-19.46
857.974	54.27
858.148	87.04
858.323	56.32
858.497	115.71
858.672	95.23
858.846	48.13
859.02	93.18
859.195	-3.07
859.369	142.33
859.543	44.03
859.718	91.13
859.892	41.98
860.066	25.6
860.241	72.7
860.415	72.7
860.589	115.71
860.763	-9.22
860.938	-5.12
861.112	82.94
861.286	48.13
861.46	21.5
861.634	58.37
861.808	105.47
861.982	35.84
862.157	35.84
862.331	60.42
862.505	7.17
862.679	-17.41
862.853	39.94
863.027	37.89
863.201	105.47
863.375	19.46
863.549	66.56
863.722	46.08
863.896	72.7
864.07	46.08
864.244	-9.22
864.418	44.03
864.592	62.46
864.766	31.74
864.939	76.8
865.113	-1.02
865.287	74.75
865.461	13.31
865.634	-33.79
865.808	-11.26
865.982	60.42
866.156	19.46
866.329	-35.84
866.503	39.94
866.676	76.8
866.85	103.42
867.024	-21.5
867.197	103.42
867.371	119.81
867.544	23.55
867.718	-23.55
867.891	64.51
868.065	-46.08
868.238	31.74
868.412	48.13
868.585	7.17
868.759	-46.08
868.932	-3.07
869.105	-52.22
869.279	3.07
869.452	54.27
869.625	46.08
869.799	54.27
869.972	-13.31
870.145	-21.5
870.319	29.7
870.492	41.98
870.665	33.79
870.838	5.12
871.011	-58.37
871.185	-17.41
871.358	54.27
871.531	76.8
871.704	-37.89
871.877	19.46
872.05	-3.07
872.223	44.03
872.396	87.04
872.569	1.02
872.742	19.46
872.915	21.5
873.088	89.09
873.261	52.22
873.434	87.04
873.607	25.6
873.78	60.42
873.953	87.04
874.126	15.36
874.299	48.13
874.471	66.56
874.644	-37.89
874.817	64.51
874.99	101.37
875.163	50.18
875.335	89.09
875.508	80.89
875.681	111.61
875.853	39.94
876.026	52.22
876.199	93.18
876.371	89.09
876.544	-3.07
876.717	-27.65
876.889	13.31
877.062	80.89
877.234	-9.22
877.407	31.74
877.579	21.5
877.752	23.55
877.924	60.42
878.097	80.89
878.269	111.61
878.442	23.55
878.614	48.13
878.786	-3.07
878.959	-31.74
879.131	52.22
879.303	-84.99
879.476	25.6
879.648	-9.22
879.82	50.18
879.993	-35.84
880.165	7.17
880.337	13.31
880.509	93.18
880.681	-11.26
880.854	-25.6
881.026	27.65
881.198	60.42
881.37	3.07
881.542	76.8
881.714	31.74
881.886	-31.74
882.058	44.03
882.23	29.7
882.402	-9.22
882.574	9.22
882.746	23.55
882.918	93.18
883.09	-5.12
883.262	37.89
883.434	56.32
883.606	21.5
883.778	-11.26
883.95	138.24
884.122	25.6
884.293	89.09
884.465	54.27
884.637	117.76
884.809	70.65
884.98	-17.41
885.152	87.04
885.324	50.18
885.496	-7.17
885.667	-87.04
885.839	-48.13
886.011	17.41
886.182	84.99
886.354	113.66
886.525	48.13
886.697	72.7
886.869	9.22
887.04	44.03
887.212	21.5
887.383	68.61
887.555	19.46
887.726	-33.79
887.897	44.03
888.069	50.18
888.24	19.46
888.412	11.26
888.583	80.89
888.754	11.26
888.926	1.02
889.097	-29.7
889.268	-60.42
889.44	56.32
889.611	-97.28
889.782	-37.89
889.953	-25.6
890.125	89.09
890.296	3.07
890.467	60.42
890.638	37.89
890.809	29.7
890.98	-60.42
891.151	-80.89
891.323	103.42
891.494	66.56
891.665	48.13
891.836	11.26
892.007	37.89
892.178	60.42
892.349	87.04
892.52	-21.5
892.691	-76.8
892.862	58.37
893.032	-150.53
893.203	68.61
893.374	70.65
893.545	89.09
893.716	11.26
893.887	39.94
894.057	-25.6
894.228	25.6
894.399	50.18
894.57	58.37
894.74	-50.18
894.911	48.13
895.082	-50.18
895.253	-3.07
895.423	87.04
895.594	-7.17
895.764	-15.36
895.935	17.41
896.106	60.42
896.276	41.98
896.447	84.99
896.617	58.37
896.788	9.22
896.958	-35.84
897.129	13.31
897.299	-13.31
897.47	25.6
897.64	115.71
897.81	72.7
897.981	93.18
898.151	-9.22
898.322	-9.22
898.492	105.47
898.662	-27.65
898.832	-31.74
899.003	-15.36
899.173	-5.12
899.343	-3.07
899.513	31.74
