Data from USB4F104151__55__12-12-24-693.txt Node

Date: Fri Mar 14 12:12:24 EDT 2025
User: louis
Spectrometer: USB4F10415
Trigger mode: 4
Integration Time (sec): 5.000000E-2
Scans to average: 1
Electric dark correction enabled: true
Nonlinearity correction enabled: false
Boxcar width: 0
XAxis mode: Wavelengths
Number of Pixels in Spectrum: 3648
>>>>>Begin Spectral Data<<<<<
178.204	-193.53
178.424	-193.53
178.644	-193.53
178.864	-220.16
179.084	-154.62
179.304	-17.41
179.524	-15.36
179.744	-41.98
179.964	-21.5
180.184	19.46
180.404	52.22
180.624	-23.55
180.844	29.7
181.064	-48.13
181.283	19.46
181.503	17.41
181.723	29.7
181.943	-25.6
182.163	138.24
182.383	52.22
182.602	29.7
182.822	115.71
183.042	13.31
183.262	-50.18
183.482	54.27
183.701	50.18
183.921	-11.26
184.141	-15.36
184.361	-21.5
184.58	23.55
184.8	-9.22
185.02	-27.65
185.239	11.26
185.459	68.61
185.679	99.33
185.898	-101.37
186.118	56.32
186.338	-5.12
186.557	-7.17
186.777	15.36
186.997	-39.94
187.216	-23.55
187.436	70.65
187.655	37.89
187.875	87.04
188.095	15.36
188.314	76.8
188.534	109.57
188.753	11.26
188.973	119.81
189.192	95.23
189.412	-21.5
189.631	-7.17
189.851	-13.31
190.07	72.7
190.29	-9.22
190.509	-15.36
190.729	9.22
190.948	76.8
191.168	273.4
191.387	64.51
191.607	-33.79
191.826	-9.22
192.045	-54.27
192.265	37.89
192.484	78.85
192.704	31.74
192.923	-52.22
193.142	107.52
193.362	68.61
193.581	123.9
193.8	82.94
194.02	19.46
194.239	44.03
194.458	31.74
194.678	31.74
194.897	29.7
195.116	48.13
195.335	-31.74
195.555	-33.79
195.774	46.08
195.993	138.24
196.212	-7.17
196.432	109.57
196.651	15.36
196.87	27.65
197.089	125.95
197.308	25.6
197.528	64.51
197.747	-25.6
197.966	35.84
198.185	160.77
198.404	21.5
198.623	1.02
198.842	117.76
199.062	119.81
199.281	58.37
199.5	52.22
199.719	-5.12
199.938	31.74
200.157	97.28
200.376	-1.02
200.595	23.55
200.814	15.36
201.033	35.84
201.252	39.94
201.471	76.8
201.69	179.2
201.909	78.85
202.128	1.02
202.347	64.51
202.566	13.31
202.785	-15.36
203.004	-7.17
203.223	136.19
203.442	54.27
203.661	44.03
203.879	76.8
204.098	99.33
204.317	-17.41
204.536	84.99
204.755	27.65
204.974	37.89
205.193	23.55
205.411	78.85
205.63	54.27
205.849	15.36
206.068	50.18
206.287	15.36
206.505	56.32
206.724	19.46
206.943	-5.12
207.162	-13.31
207.381	62.46
207.599	142.33
207.818	58.37
208.037	37.89
208.255	7.17
208.474	41.98
208.693	76.8
208.911	101.37
209.13	-17.41
209.349	44.03
209.567	68.61
209.786	76.8
210.005	11.26
210.223	3.07
210.442	46.08
210.661	-68.61
210.879	-9.22
211.098	23.55
211.316	84.99
211.535	82.94
211.753	54.27
211.972	58.37
212.191	17.41
212.409	19.46
212.628	1.02
212.846	-31.74
213.065	89.09
213.283	150.53
213.502	58.37
213.72	-5.12
213.938	7.17
214.157	-41.98
214.375	27.65
214.594	13.31
214.812	54.27
215.031	35.84
215.249	13.31
215.467	46.08
215.686	103.42
215.904	35.84
216.122	58.37
216.341	48.13
216.559	74.75
216.778	140.29
216.996	105.47
217.214	9.22
217.432	31.74
217.651	9.22
217.869	25.6
218.087	-17.41
218.306	35.84
218.524	41.98
218.742	1.02
218.96	-5.12
219.179	-15.36
219.397	84.99
219.615	103.42
219.833	19.46
220.051	-19.46
220.27	54.27
220.488	62.46
220.706	103.42
220.924	37.89
221.142	-72.7
221.36	117.76
221.578	9.22
221.796	-21.5
222.015	52.22
222.233	19.46
222.451	138.24
222.669	-25.6
222.887	48.13
223.105	1.02
223.323	13.31
223.541	-21.5
223.759	62.46
223.977	52.22
224.195	123.9
224.413	115.71
224.631	66.56
224.849	1.02
225.067	11.26
225.285	-25.6
225.503	-64.51
225.721	-41.98
225.939	-1.02
226.157	37.89
226.375	177.15
226.592	46.08
226.81	31.74
227.028	46.08
227.246	101.37
227.464	7.17
227.682	41.98
227.9	128
228.117	97.28
228.335	5.12
228.553	99.33
228.771	-5.12
228.989	58.37
229.206	5.12
229.424	-1.02
229.642	-56.32
229.86	-21.5
230.077	105.47
230.295	60.42
230.513	66.56
230.731	105.47
230.948	125.95
231.166	97.28
231.384	35.84
231.601	13.31
231.819	132.09
232.037	1.02
232.254	-7.17
232.472	23.55
232.689	68.61
232.907	70.65
233.125	13.31
233.342	27.65
233.56	-35.84
233.777	3.07
233.995	17.41
234.213	39.94
234.43	52.22
234.648	3.07
234.865	82.94
235.083	54.27
235.3	-7.17
235.518	3.07
235.735	134.14
235.953	31.74
236.17	29.7
236.388	-13.31
236.605	76.8
236.822	76.8
237.04	99.33
237.257	48.13
237.475	-48.13
237.692	54.27
237.909	19.46
238.127	-17.41
238.344	39.94
238.562	21.5
238.779	-23.55
238.996	-74.75
239.214	44.03
239.431	62.46
239.648	9.22
239.865	109.57
240.083	146.43
240.3	62.46
240.517	1.02
240.735	17.41
240.952	56.32
241.169	101.37
241.386	13.31
241.603	27.65
241.821	-25.6
242.038	21.5
242.255	91.13
242.472	-39.94
242.689	-11.26
242.907	89.09
243.124	-56.32
243.341	41.98
243.558	19.46
243.775	21.5
243.992	-1.02
244.209	37.89
244.426	119.81
244.643	89.09
244.86	33.79
245.078	39.94
245.295	91.13
245.512	-46.08
245.729	-52.22
245.946	1.02
246.163	41.98
246.38	50.18
246.597	56.32
246.814	68.61
247.031	68.61
247.248	56.32
247.464	44.03
247.681	115.71
247.898	60.42
248.115	-5.12
248.332	-15.36
248.549	89.09
248.766	103.42
248.983	-3.07
249.2	29.7
249.417	33.79
249.633	-1.02
249.85	-3.07
250.067	-25.6
250.284	70.65
250.501	66.56
250.717	48.13
250.934	-70.65
251.151	-9.22
251.368	37.89
251.585	41.98
251.801	5.12
252.018	-17.41
252.235	56.32
252.451	-76.8
252.668	-15.36
252.885	144.38
253.102	17.41
253.318	5.12
253.535	-27.65
253.752	97.28
253.968	35.84
254.185	-54.27
254.401	-1.02
254.618	21.5
254.835	25.6
255.051	64.51
255.268	46.08
255.484	-23.55
255.701	5.12
255.917	52.22
256.134	-58.37
256.351	93.18
256.567	-25.6
256.784	111.61
257	-37.89
257.217	19.46
257.433	11.26
257.65	101.37
257.866	66.56
258.082	-15.36
258.299	3.07
258.515	97.28
258.732	-39.94
258.948	35.84
259.165	41.98
259.381	-41.98
259.597	3.07
259.814	-3.07
260.03	52.22
260.246	58.37
260.463	50.18
260.679	54.27
260.895	46.08
261.112	29.7
261.328	23.55
261.544	1.02
261.761	125.95
261.977	-21.5
262.193	-17.41
262.409	27.65
262.626	97.28
262.842	52.22
263.058	-78.85
263.274	52.22
263.49	113.66
263.707	78.85
263.923	87.04
264.139	23.55
264.355	72.7
264.571	78.85
264.787	-1.02
265.004	72.7
265.22	-25.6
265.436	1.02
265.652	-35.84
265.868	41.98
266.084	31.74
266.3	54.27
266.516	27.65
266.732	80.89
266.948	80.89
267.164	-3.07
267.38	46.08
267.596	-7.17
267.812	156.67
268.028	58.37
268.244	23.55
268.46	27.65
268.676	46.08
268.892	23.55
269.108	-64.51
269.324	-23.55
269.54	-9.22
269.756	82.94
269.972	-1.02
270.188	-29.7
270.403	-9.22
270.619	48.13
270.835	84.99
271.051	60.42
271.267	-23.55
271.483	-50.18
271.698	23.55
271.914	60.42
272.13	37.89
272.346	-25.6
272.562	91.13
272.777	46.08
272.993	31.74
273.209	1.02
273.425	62.46
273.64	-19.46
273.856	15.36
274.072	3.07
274.287	11.26
274.503	-7.17
274.719	140.29
274.934	109.57
275.15	48.13
275.366	-31.74
275.581	-62.46
275.797	-1.02
276.012	9.22
276.228	5.12
276.444	48.13
276.659	15.36
276.875	15.36
277.09	21.5
277.306	-17.41
277.521	46.08
277.737	64.51
277.952	54.27
278.168	74.75
278.383	66.56
278.599	25.6
278.814	119.81
279.03	9.22
279.245	132.09
279.461	52.22
279.676	50.18
279.892	31.74
280.107	64.51
280.322	-58.37
280.538	1.02
280.753	-21.5
280.969	5.12
281.184	105.47
281.399	64.51
281.615	-15.36
281.83	-15.36
282.045	-46.08
282.26	-50.18
282.476	3.07
282.691	101.37
282.906	31.74
283.122	101.37
283.337	13.31
283.552	7.17
283.767	3.07
283.983	101.37
284.198	-1.02
284.413	66.56
284.628	-5.12
284.843	17.41
285.058	29.7
285.274	13.31
285.489	-21.5
285.704	82.94
285.919	3.07
286.134	23.55
286.349	23.55
286.564	76.8
286.779	78.85
286.995	62.46
287.21	52.22
287.425	27.65
287.64	46.08
287.855	19.46
288.07	-19.46
288.285	35.84
288.5	76.8
288.715	78.85
288.93	31.74
289.145	9.22
289.36	60.42
289.575	-7.17
289.79	31.74
290.004	-11.26
290.219	78.85
290.434	44.03
290.649	-68.61
290.864	-13.31
291.079	-31.74
291.294	95.23
291.509	125.95
291.724	19.46
291.938	-17.41
292.153	33.79
292.368	64.51
292.583	-7.17
292.798	80.89
293.012	17.41
293.227	50.18
293.442	-46.08
293.657	41.98
293.871	64.51
294.086	-19.46
294.301	62.46
294.516	130.05
294.73	-21.5
294.945	-41.98
295.16	-9.22
295.374	115.71
295.589	68.61
295.804	3.07
296.018	31.74
296.233	189.44
296.447	21.5
296.662	-13.31
296.877	70.65
297.091	95.23
297.306	37.89
297.52	-29.7
297.735	95.23
297.949	-48.13
298.164	5.12
298.378	74.75
298.593	-21.5
298.807	60.42
299.022	-5.12
299.236	140.29
299.451	-39.94
299.665	21.5
299.88	13.31
300.094	50.18
300.309	-7.17
300.523	58.37
300.737	-70.65
300.952	60.42
301.166	3.07
301.381	-15.36
301.595	27.65
301.809	-17.41
302.024	17.41
302.238	-56.32
302.452	72.7
302.667	33.79
302.881	125.95
303.095	78.85
303.309	54.27
303.524	7.17
303.738	35.84
303.952	29.7
304.166	87.04
304.381	-33.79
304.595	78.85
304.809	-19.46
305.023	5.12
305.237	15.36
305.452	17.41
305.666	56.32
305.88	132.09
306.094	21.5
306.308	70.65
306.522	111.61
306.736	15.36
306.95	80.89
307.164	52.22
307.379	9.22
307.593	148.48
307.807	128
308.021	117.76
308.235	-27.65
308.449	9.22
308.663	25.6
308.877	150.53
309.091	-19.46
309.305	-5.12
309.519	-103.42
309.733	74.75
309.947	-37.89
310.161	76.8
310.374	5.12
310.588	50.18
310.802	25.6
311.016	31.74
311.23	29.7
311.444	-25.6
311.658	-54.27
311.872	50.18
312.085	119.81
312.299	-7.17
312.513	87.04
312.727	11.26
312.941	58.37
313.154	13.31
313.368	64.51
313.582	31.74
313.796	66.56
314.009	68.61
314.223	58.37
314.437	35.84
314.651	78.85
314.864	44.03
315.078	-9.22
315.292	-13.31
315.505	68.61
315.719	3.07
315.933	64.51
316.146	-48.13
316.36	-52.22
316.573	93.18
316.787	105.47
317.001	72.7
317.214	-5.12
317.428	23.55
317.641	29.7
317.855	23.55
318.068	54.27
318.282	82.94
318.495	107.52
318.709	68.61
318.922	-46.08
319.136	97.28
319.349	128
319.563	39.94
319.776	9.22
319.99	-29.7
320.203	48.13
320.417	62.46
320.63	70.65
320.843	82.94
321.057	25.6
321.27	50.18
321.483	91.13
321.697	15.36
321.91	72.7
322.124	-35.84
322.337	62.46
322.55	15.36
322.763	1.02
322.977	39.94
323.19	13.31
323.403	-23.55
323.617	72.7
323.83	80.89
324.043	-60.42
324.256	11.26
324.469	-44.03
324.683	111.61
324.896	93.18
325.109	-23.55
325.322	-17.41
325.535	91.13
325.748	125.95
325.962	107.52
326.175	109.57
326.388	76.8
326.601	60.42
326.814	44.03
327.027	33.79
327.24	101.37
327.453	-54.27
327.666	70.65
327.879	107.52
328.092	74.75
328.305	50.18
328.518	27.65
328.731	-21.5
328.944	19.46
329.157	76.8
329.37	54.27
329.583	146.43
329.796	74.75
330.009	-15.36
330.222	50.18
330.435	80.89
330.648	7.17
330.861	50.18
331.073	76.8
331.286	93.18
331.499	99.33
331.712	3.07
331.925	1.02
332.138	74.75
332.35	109.57
332.563	-13.31
332.776	60.42
332.989	-72.7
333.202	46.08
333.414	23.55
333.627	52.22
333.84	19.46
334.053	7.17
334.265	-33.79
334.478	101.37
334.691	11.26
334.903	-19.46
335.116	-7.17
335.329	29.7
335.541	11.26
335.754	68.61
335.966	33.79
336.179	-21.5
336.392	27.65
336.604	103.42
336.817	50.18
337.029	66.56
337.242	56.32
337.454	91.13
337.667	39.94
337.88	107.52
338.092	11.26
338.305	9.22
338.517	-11.26
338.729	48.13
338.942	107.52
339.154	13.31
339.367	33.79
339.579	19.46
339.792	-9.22
340.004	103.42
340.217	17.41
340.429	78.85
340.641	-21.5
340.854	1.02
341.066	13.31
341.278	46.08
341.491	140.29
341.703	62.46
341.915	-70.65
342.128	52.22
342.34	15.36
342.552	-52.22
342.764	39.94
342.977	3.07
343.189	25.6
343.401	27.65
343.613	33.79
343.826	66.56
344.038	-21.5
344.25	37.89
344.462	-11.26
344.674	48.13
344.886	5.12
345.099	48.13
345.311	70.65
345.523	48.13
345.735	-62.46
345.947	72.7
346.159	41.98
346.371	-3.07
346.583	3.07
346.795	101.37
347.007	-11.26
347.219	37.89
347.431	-31.74
347.643	17.41
347.855	-64.51
348.067	58.37
348.279	-37.89
348.491	17.41
348.703	140.29
348.915	44.03
349.127	31.74
349.339	101.37
349.551	-25.6
349.763	117.76
349.975	138.24
350.187	111.61
350.399	171.01
350.61	103.42
350.822	3.07
351.034	117.76
351.246	84.99
351.458	-15.36
351.669	35.84
351.881	105.47
352.093	58.37
352.305	17.41
352.517	-17.41
352.728	109.57
352.94	60.42
353.152	103.42
353.363	17.41
353.575	39.94
353.787	128
353.999	54.27
354.21	62.46
354.422	15.36
354.633	-5.12
354.845	-23.55
355.057	33.79
355.268	-7.17
355.48	41.98
355.692	13.31
355.903	17.41
356.115	-11.26
356.326	-35.84
356.538	80.89
356.749	52.22
356.961	52.22
357.172	-7.17
357.384	-7.17
357.595	146.43
357.807	-9.22
358.018	50.18
358.23	97.28
358.441	82.94
358.653	105.47
358.864	13.31
359.075	72.7
359.287	23.55
359.498	134.14
359.709	9.22
359.921	-23.55
360.132	72.7
360.344	44.03
360.555	-21.5
360.766	-5.12
360.977	21.5
361.189	64.51
361.4	17.41
361.611	31.74
361.823	76.8
362.034	54.27
362.245	-17.41
362.456	-27.65
362.667	78.85
362.879	21.5
363.09	91.13
363.301	60.42
363.512	39.94
363.723	56.32
363.935	27.65
364.146	130.05
364.357	29.7
364.568	-19.46
364.779	-33.79
364.99	109.57
365.201	-15.36
365.412	54.27
365.623	-56.32
365.834	66.56
366.045	64.51
366.256	128
366.467	5.12
366.678	11.26
366.889	31.74
367.1	7.17
367.311	107.52
367.522	39.94
367.733	93.18
367.944	37.89
368.155	-27.65
368.366	35.84
368.577	37.89
368.788	50.18
368.999	27.65
369.209	29.7
369.42	162.81
369.631	123.9
369.842	48.13
370.053	35.84
370.264	130.05
370.474	21.5
370.685	72.7
370.896	15.36
371.107	144.38
371.317	97.28
371.528	60.42
371.739	117.76
371.95	87.04
372.16	62.46
372.371	-15.36
372.582	-84.99
372.792	29.7
373.003	93.18
373.214	52.22
373.424	76.8
373.635	-19.46
373.846	158.72
374.056	17.41
374.267	29.7
374.477	74.75
374.688	35.84
374.898	52.22
375.109	33.79
375.319	62.46
375.53	107.52
375.74	37.89
375.951	-33.79
376.161	9.22
376.372	103.42
376.582	-23.55
376.793	95.23
377.003	-41.98
377.214	1.02
377.424	1.02
377.635	60.42
377.845	21.5
378.055	93.18
378.266	23.55
378.476	31.74
378.686	52.22
378.897	19.46
379.107	152.57
379.317	33.79
379.528	-7.17
379.738	46.08
379.948	-27.65
380.158	101.37
380.369	21.5
380.579	123.9
380.789	-29.7
380.999	62.46
381.21	95.23
381.42	76.8
381.63	-19.46
381.84	72.7
382.05	76.8
382.261	91.13
382.471	103.42
382.681	27.65
382.891	72.7
383.101	142.33
383.311	13.31
383.521	46.08
383.731	82.94
383.941	103.42
384.151	-15.36
384.361	17.41
384.571	58.37
384.781	84.99
384.991	111.61
385.201	142.33
385.411	35.84
385.621	37.89
385.831	68.61
386.041	87.04
386.251	76.8
386.461	56.32
386.671	-54.27
386.881	58.37
387.091	-7.17
387.301	107.52
387.511	52.22
387.72	48.13
387.93	54.27
388.14	33.79
388.35	123.9
388.56	78.85
388.769	101.37
388.979	13.31
389.189	35.84
389.399	-35.84
389.609	37.89
389.818	91.13
390.028	70.65
390.238	74.75
390.447	-21.5
390.657	134.14
390.867	64.51
391.076	13.31
391.286	44.03
391.496	101.37
391.705	29.7
391.915	152.57
392.125	107.52
392.334	11.26
392.544	97.28
392.753	48.13
392.963	25.6
393.172	-11.26
393.382	-33.79
393.591	121.85
393.801	62.46
394.01	140.29
394.22	95.23
394.429	64.51
394.639	101.37
394.848	117.76
395.058	70.65
395.267	87.04
395.477	74.75
395.686	84.99
395.895	144.38
396.105	136.19
396.314	142.33
396.524	56.32
396.733	5.12
396.942	125.95
397.152	125.95
397.361	105.47
397.57	56.32
397.78	111.61
397.989	136.19
398.198	125.95
398.407	95.23
398.617	105.47
398.826	123.9
399.035	54.27
399.244	154.62
399.453	154.62
399.663	105.47
399.872	183.29
400.081	64.51
400.29	175.1
400.499	62.46
400.708	173.05
400.917	68.61
401.127	101.37
401.336	74.75
401.545	205.82
401.754	152.57
401.963	166.91
402.172	107.52
402.381	11.26
402.59	95.23
402.799	117.76
403.008	187.39
403.217	125.95
403.426	103.42
403.635	74.75
403.844	160.77
404.053	58.37
404.262	115.71
404.471	293.88
404.68	117.76
404.888	105.47
405.097	173.05
405.306	154.62
405.515	250.88
405.724	123.9
405.933	246.78
406.142	254.97
406.35	246.78
406.559	199.68
406.768	173.05
406.977	199.68
407.185	205.82
407.394	248.83
407.603	173.05
407.812	277.5
408.02	271.36
408.229	191.49
408.438	300.03
408.646	181.25
408.855	238.59
409.064	322.56
409.272	304.12
409.481	349.18
409.69	273.4
409.898	279.55
410.107	320.51
410.315	355.32
410.524	386.04
410.733	400.38
410.941	367.61
411.15	353.27
411.358	553.98
411.567	465.91
411.775	439.29
411.984	429.05
412.192	570.36
412.401	398.33
412.609	578.55
412.818	656.37
413.026	574.46
413.234	486.39
413.443	480.25
413.651	519.16
413.86	617.46
414.068	670.71
414.276	713.72
414.485	711.67
414.693	703.48
414.901	857.07
415.11	721.91
415.318	728.05
415.526	726
415.734	834.55
415.943	793.59
416.151	982
416.359	922.61
416.567	965.62
416.776	1039.34
416.984	1111.02
417.192	1149.93
417.4	1043.44
417.608	1053.68
417.817	1174.51
418.025	1154.03
418.233	1401.83
418.441	1301.48
418.649	1309.68
418.857	1428.46
419.065	1442.79
419.273	1356.78
419.481	1428.46
419.689	1545.19
419.897	1692.65
420.105	1700.84
420.313	1774.56
420.521	1717.22
420.729	1811.43
420.937	1774.56
421.145	1924.07
421.353	2055.14
421.561	2229.21
421.769	2030.56
421.977	2245.6
422.185	2157.54
422.393	2286.56
422.601	2491.35
422.809	2425.82
423.017	2579.42
423.224	2509.79
423.432	2786.26
423.64	2767.83
423.848	2911.19
424.056	2780.12
424.263	3085.26
424.471	2986.96
424.679	3220.43
424.887	3318.73
425.094	3492.81
425.302	3423.18
425.51	3613.64
425.718	3658.7
425.925	3668.94
426.133	3765.19
426.341	4035.52
426.548	4219.84
426.756	4154.3
426.964	4307.9
427.171	4549.56
427.379	4666.3
427.586	4660.15
427.794	4862.9
428.001	4961.2
428.209	5245.87
428.417	5012.4
428.624	5475.24
428.832	5618.6
429.039	5594.03
429.247	5596.07
429.454	6040.48
429.662	6413.21
429.869	6013.86
430.076	6546.33
430.284	6321.06
430.491	6488.99
430.699	6863.77
430.906	6986.65
431.114	6923.16
431.321	7273.36
431.528	7234.45
431.736	7685
431.943	8063.88
432.15	7797.64
432.358	7900.04
432.565	8528.77
432.772	8176.52
432.979	8782.71
433.187	9007.99
433.394	9116.53
433.601	9489.26
433.808	9759.6
434.016	9579.37
434.223	9929.58
434.43	10468.19
434.637	10216.29
434.844	10826.59
435.052	11062.1
435.259	11076.44
435.466	11078.49
435.673	10974.04
435.88	11662.16
436.087	12442.43
436.294	12450.63
436.501	11768.65
436.708	12256.07
436.915	12780.35
437.122	13183.8
437.329	12999.48
437.537	13431.6
437.743	13665.07
437.95	13933.36
438.157	14248.74
438.364	14775.07
438.571	14885.66
438.778	14869.28
438.985	16309
439.192	15829.77
439.399	16093.96
439.606	15762.19
439.813	16792.32
440.02	17677.04
440.227	17439.48
440.433	17173.24
440.64	17740.53
440.847	17687.28
441.054	18006.77
441.261	19319.51
441.467	18502.37
441.674	19376.86
441.881	20052.69
442.088	19716.82
442.294	19585.75
442.501	20120.27
442.708	20908.74
442.914	21265.08
443.121	22547.11
443.328	21490.36
443.534	23177.89
443.741	22332.08
443.948	21942.96
444.154	23861.91
444.361	23634.58
444.568	23571.1
444.774	23704.21
444.981	23966.35
445.187	24580.74
445.394	25858.68
445.6	25334.4
445.807	27685.47
446.013	26546.79
446.22	27091.55
446.426	28228.18
446.633	28215.89
446.839	29233.73
447.046	27978.33
447.252	29502.01
447.459	29729.34
447.665	29645.37
447.871	30470.7
448.078	32025.11
448.284	30294.58
448.491	31224.36
448.697	32410.13
448.903	33225.22
449.11	33114.63
449.316	32295.44
449.522	32942.6
449.728	33794.56
449.935	34079.22
450.141	33802.75
450.347	35015.15
450.553	33679.87
450.76	34318.84
450.966	35496.42
451.172	34863.6
451.378	35586.53
451.584	35185.13
451.791	35541.47
451.997	35721.69
452.203	36266.45
452.409	36323.8
452.615	35961.31
452.821	34851.31
453.027	34386.42
453.233	36028.89
453.44	34570.74
453.646	34990.57
453.852	35228.13
454.058	35615.2
454.264	34902.51
454.47	34965.99
454.676	34400.76
454.882	35310.05
455.088	32293.4
455.294	33157.64
455.5	33368.58
455.705	33743.36
455.911	32270.87
456.117	31777.31
456.323	31257.12
456.529	29579.84
456.735	30833.19
456.941	29989.43
457.147	29131.33
457.352	28596.81
457.558	28084.82
457.764	28412.49
457.97	27740.76
458.176	27101.79
458.381	27050.6
458.587	25780.85
458.793	26086
458.999	24433.29
459.204	25913.97
459.41	25281.15
459.616	23560.86
459.821	23900.82
460.027	23878.29
460.233	23022.24
460.438	22102.7
460.644	21996.21
460.85	21381.82
461.055	20695.75
461.261	20808.39
461.466	19335.9
461.672	18498.28
461.878	19847.89
462.083	18608.87
462.289	18107.12
462.494	18082.54
462.7	17103.61
462.905	16683.78
463.111	17107.71
463.316	17103.61
463.522	16763.65
463.727	16859.9
463.932	16816.9
464.138	16780.03
464.343	17015.55
464.549	16153.35
464.754	16544.52
464.959	16245.51
465.165	16524.04
465.37	15663.89
465.575	15278.87
465.781	15985.42
465.986	15850.25
466.191	15407.89
466.397	14900
466.602	14275.37
466.807	14875.42
467.012	14715.68
467.218	14627.62
467.423	14388
467.628	14693.15
467.833	15055.64
468.038	14603.04
468.244	13970.22
468.449	14560.03
468.654	14056.23
468.859	14052.14
469.064	13974.31
469.269	13620.02
469.474	13472.56
469.679	13826.86
469.885	13593.39
470.09	13431.6
470.295	13429.56
470.5	13316.92
470.705	13263.67
470.91	13148.98
471.115	12649.28
471.32	12950.33
471.525	12874.56
471.73	12860.22
471.935	12491.59
472.139	12276.55
472.344	12178.25
472.549	11987.79
472.754	12008.26
472.959	11856.72
473.164	11565.9
473.369	11502.42
473.574	11811.66
473.778	11647.82
473.983	11547.47
474.188	11445.07
474.393	10785.63
474.598	10877.79
474.802	10728.28
475.007	10912.6
475.212	10685.28
475.417	10163.04
475.621	10435.42
475.826	10482.53
476.031	10036.07
476.235	10007.4
476.44	10212.2
476.645	9810.79
476.849	9835.37
477.054	9634.67
477.259	9716.59
477.463	9614.19
477.668	9372.53
477.872	9597.81
478.077	9130.87
478.282	8762.23
478.486	8895.35
478.691	8917.88
478.895	8799.1
479.1	8891.26
479.304	8987.51
479.509	8799.1
479.713	8715.13
479.918	8598.4
480.122	8289.15
480.326	8567.68
480.531	8530.81
480.735	8379.26
480.94	8326.02
481.144	8706.94
481.348	8319.87
481.553	8354.69
481.757	8125.32
481.961	8225.67
482.166	8522.62
482.37	8049.54
482.574	8065.92
482.778	7842.7
482.983	8293.25
483.187	8264.58
483.391	8127.36
483.595	8246.15
483.8	7887.75
484.004	8227.71
484.208	8266.63
484.412	8070.02
484.616	8080.26
484.821	8145.8
485.025	8029.06
485.229	8084.36
485.433	8080.26
485.637	8108.93
485.841	7969.67
486.045	7963.53
486.249	8074.12
486.453	7979.91
486.657	7893.9
486.861	8119.17
487.065	7879.56
487.269	8041.35
487.473	7807.88
487.677	8094.6
487.881	8119.17
488.085	8039.3
488.289	8184.71
488.493	7971.72
488.697	8000.39
488.901	8018.82
489.105	7943.05
489.309	8049.54
489.512	8229.76
489.716	8092.55
489.92	8004.49
490.124	7998.34
490.328	8176.52
490.531	8096.64
490.735	8078.21
490.939	8350.59
491.143	8168.32
491.346	8043.4
491.55	8334.21
491.754	8403.84
491.958	8260.48
492.161	8262.53
492.365	8342.4
492.569	8356.74
492.772	8430.46
492.976	8469.37
493.18	8377.22
493.383	8532.86
493.587	8555.39
493.79	8723.32
493.994	8622.97
494.197	8573.82
494.401	8780.67
494.605	8854.39
494.808	8723.32
495.012	9036.66
495.215	8883.06
495.419	8964.98
495.622	8907.64
495.825	9116.53
496.029	9280.37
496.232	9399.15
496.436	9290.61
496.639	9503.6
496.843	9300.85
497.046	9513.84
497.249	9675.63
497.453	9706.35
497.656	9782.12
497.859	9771.88
498.063	9964.39
498.266	10050.41
498.469	10173.28
498.673	10222.44
498.876	10421.09
499.079	10472.29
499.282	10425.18
499.485	10765.15
499.689	10836.83
499.892	10916.7
500.095	10832.73
500.298	11203.41
500.501	11080.53
500.705	11467.6
500.908	11340.63
501.111	11367.25
501.314	11567.95
501.517	11987.79
501.72	12153.67
501.923	11981.64
502.126	12243.78
502.329	12368.71
502.532	12401.47
502.735	12751.68
502.938	12774.21
503.141	12968.76
503.344	12917.56
503.547	13103.93
503.75	13134.65
503.953	13325.11
504.156	13359.92
504.359	13628.21
504.562	13525.81
504.765	13888.3
504.968	13982.51
505.17	14365.48
505.373	14244.65
505.576	14345
505.779	14461.73
505.982	14881.56
506.185	15061.79
506.387	14564.13
506.59	15108.89
506.793	15624.98
506.996	15405.84
507.198	15762.19
507.401	15604.5
507.604	15786.77
507.807	15991.56
508.009	16128.78
508.212	16304.9
508.415	16507.65
508.617	16610.05
508.82	17169.15
509.022	16548.61
509.225	17310.46
509.428	17455.86
509.63	17341.18
509.833	17572.6
510.035	17918.7
510.238	17832.69
510.44	18266.86
510.643	18297.58
510.845	18422.5
511.048	18512.61
511.25	18887.39
511.453	18731.75
511.655	19571.41
511.858	19268.31
512.06	19415.77
512.262	19655.38
512.465	19383
512.667	19626.71
512.87	20046.54
513.072	19981.01
513.274	20243.15
513.477	20466.38
513.679	20533.96
513.881	20904.64
514.084	20554.44
514.286	21107.39
514.488	21119.68
514.69	21664.44
514.893	22014.64
515.095	21795.51
515.297	21707.44
515.499	22051.5
515.701	22293.16
515.904	22407.85
516.106	22557.35
516.308	22901.41
516.51	22991.52
516.712	22850.21
516.914	23116.45
517.116	23333.53
517.318	23526.04
517.52	23693.97
517.722	23857.81
517.925	24212.11
518.127	24418.96
518.329	24547.98
518.531	24203.92
518.733	24930.95
518.935	24980.1
519.136	25021.06
519.338	25322.11
519.54	25281.15
519.742	25467.52
519.944	25451.13
520.146	26061.43
520.348	26067.57
520.55	26120.82
520.752	26202.74
520.954	26561.13
521.155	26593.9
521.357	26925.67
521.559	26782.31
521.761	27411.04
521.963	27282.02
522.164	27181.67
522.366	27206.24
522.568	27578.97
522.77	27861.59
522.971	28158.55
523.173	27720.28
523.375	28232.27
523.576	28201.55
523.778	27859.54
523.98	28430.93
524.181	28748.36
524.383	28537.42
524.584	29010.5
524.786	28643.91
524.988	28691.02
525.189	29141.57
525.391	29473.34
525.592	29811.26
525.794	29420.1
525.995	29407.81
526.197	29452.86
526.398	29256.26
526.6	29901.37
526.801	29942.33
527.003	29678.14
527.204	29628.99
527.406	30046.77
527.607	29958.71
527.808	30319.15
528.01	29784.63
528.211	29956.66
528.412	30476.85
528.614	30229.04
528.815	30421.55
529.016	30861.87
529.218	30282.29
529.419	30476.85
529.62	30489.13
529.822	30493.23
530.023	30378.54
530.224	30642.73
530.425	30691.88
530.626	30435.89
530.828	30077.49
531.029	30491.18
531.23	30263.86
531.431	30210.61
531.632	30984.74
531.833	30810.67
532.035	30421.55
532.236	30788.14
532.437	30900.78
532.638	30523.95
532.839	31031.85
533.04	31023.65
533.241	30392.88
533.442	30956.07
533.643	30777.9
533.844	30675.5
534.045	30820.91
534.246	30808.62
534.447	30898.73
534.648	30288.43
534.849	30603.82
535.05	30444.08
535.251	30870.06
535.451	30577.2
535.652	30499.37
535.853	30609.96
536.054	30790.19
536.255	30710.32
536.456	30143.03
536.657	30845.48
536.857	30476.85
537.058	30243.38
537.259	30530.09
537.46	30632.49
537.66	30147.12
537.861	30331.44
538.062	30753.32
538.263	30845.48
538.463	30353.97
538.664	30480.94
538.865	30478.89
539.065	30382.64
539.266	30253.62
539.466	30722.6
539.667	30204.47
539.868	30534.19
540.068	30356.02
540.269	30489.13
540.469	30495.28
540.67	30571.05
540.87	30374.45
541.071	30018.1
541.271	30366.26
541.472	30474.8
541.672	30233.14
541.873	30179.89
542.073	29848.12
542.274	30413.36
542.474	30026.29
542.675	30339.63
542.875	30718.51
543.075	29999.67
543.276	29897.27
543.476	30511.66
543.676	30126.64
543.877	30257.71
544.077	30120.5
544.277	29952.57
544.478	30442.03
544.678	30313.01
544.878	30036.53
545.078	30224.95
545.279	29983.29
545.479	29930.04
545.679	30243.38
545.879	30175.8
546.079	30218.8
546.28	30020.15
546.48	29864.5
546.68	30255.67
546.88	30071.35
547.08	30288.43
547.28	29848.12
547.48	29375.04
547.68	30046.77
547.88	29764.15
548.081	29954.61
548.281	29653.56
548.481	29973.05
548.681	30071.35
548.881	30198.32
549.081	29872.7
549.28	30143.03
549.48	29837.88
549.68	29813.31
549.88	30362.16
550.08	29448.77
550.28	30073.4
550.48	29651.52
550.68	30102.07
550.88	29694.52
551.08	29911.61
551.279	29563.45
551.479	29751.87
551.679	29338.18
551.879	29717.05
552.079	29442.62
552.278	29774.39
552.478	29837.88
552.678	29887.03
552.878	29882.94
553.077	29727.29
553.277	29778.49
553.477	29839.93
553.676	29717.05
553.876	29606.46
554.076	29706.81
554.275	29207.11
554.475	29315.65
554.674	29571.64
554.874	29700.67
555.074	29231.68
555.273	29319.74
555.473	29897.27
555.672	29280.83
555.872	29258.31
556.071	29469.25
556.271	29674.04
556.47	29528.64
556.67	29239.87
556.869	29274.69
557.068	29420.1
557.268	29041.22
557.467	29522.49
557.667	29299.26
557.866	29622.84
558.065	29303.36
558.265	29252.16
558.464	29358.66
558.663	29712.95
558.863	28746.31
559.062	29733.43
559.261	28822.09
559.461	29672
559.66	29125.19
559.859	29467.2
560.058	28936.77
560.258	29133.38
560.457	29035.08
560.656	29516.35
560.855	28791.37
561.054	29164.1
561.253	28811.85
561.453	29010.5
561.652	29286.98
561.851	29344.32
562.05	29117
562.249	28930.63
562.448	28897.86
562.647	29133.38
562.846	28893.77
563.045	29047.36
563.244	28355.15
563.443	29160
563.642	28834.38
563.841	29051.46
564.04	28887.62
564.239	29008.45
564.438	28289.62
564.637	29119.04
564.836	28484.17
565.035	28637.77
565.234	28854.86
565.432	28529.23
565.631	28736.07
565.83	28549.71
566.029	28660.3
566.228	28699.21
566.427	28641.87
566.625	28688.97
566.824	28426.83
567.023	28623.44
567.222	28162.64
567.42	28590.67
567.619	28523.08
567.818	28551.76
568.016	28607.05
568.215	28727.88
568.414	28443.21
568.612	28570.19
568.811	28303.95
569.01	28359.25
569.208	28035.67
569.407	28414.54
569.605	28271.18
569.804	28338.77
570.002	27968.09
570.201	28396.11
570.4	28105.3
570.598	27896.41
570.797	28068.44
570.995	28287.57
571.193	28168.79
571.392	28197.46
571.59	28125.78
571.789	28396.11
571.987	27900.5
572.186	27945.56
572.384	27662.94
572.582	28123.73
572.781	27845.21
572.979	27601.5
573.177	27675.23
573.376	27847.26
573.574	27581.02
573.772	27943.51
573.971	27673.18
574.169	27693.66
574.367	27900.5
574.565	28045.91
574.763	27818.58
574.962	27650.65
575.16	27585.12
575.358	27949.65
575.556	27146.85
575.754	27736.66
575.952	27253.34
576.151	27265.63
576.349	27062.88
576.547	27509.34
576.745	27327.07
576.943	27150.95
577.141	27165.28
577.339	27023.97
577.537	27060.84
577.735	27468.38
577.933	26874.47
578.131	27163.23
578.329	27310.69
578.527	26862.18
578.725	27279.97
578.923	27026.02
579.121	26884.71
579.319	26657.39
579.516	26843.75
579.714	26659.43
579.912	26741.35
580.11	26452.59
580.308	26837.61
580.506	26630.76
580.704	26190.45
580.901	26731.11
581.099	27058.79
581.297	26546.79
581.495	26419.82
581.692	26763.88
581.89	26436.2
582.088	26749.54
582.285	26210.93
582.483	26389.1
582.681	26165.87
582.878	26292.85
583.076	26133.11
583.274	26417.77
583.471	25944.69
583.669	26395.25
583.866	26010.23
584.064	26143.35
584.262	26049.14
584.459	26155.63
584.657	25979.51
584.854	26249.84
585.052	25887.35
585.249	26251.89
585.447	26065.52
585.644	25633.4
585.841	25852.53
586.039	26229.36
586.236	25612.92
586.434	25725.56
586.631	25539.19
586.828	25522.81
587.026	26059.38
587.223	25975.41
587.42	25832.05
587.618	25653.88
587.815	25776.76
588.012	25741.94
588.21	25414.27
588.407	25514.62
588.604	25385.6
588.801	25711.22
588.999	25440.89
589.196	25455.23
589.393	25604.73
589.59	25467.52
589.787	25152.13
589.984	25377.4
590.182	25313.92
590.379	25162.37
590.576	25256.57
590.773	25287.29
590.97	24984.19
591.167	25354.88
591.364	24685.19
591.561	25264.77
591.758	24906.37
591.955	24918.66
592.152	25477.76
592.349	24941.19
592.546	25176.7
592.743	25139.84
592.94	24861.32
593.137	25328.25
593.334	25127.55
593.531	24799.88
593.727	24924.8
593.924	25023.11
594.121	24666.76
594.318	25080.45
594.515	24375.95
594.712	25166.46
594.908	25119.36
595.105	24842.88
595.302	24769.16
595.499	24965.76
595.696	24877.7
595.892	24640.14
596.089	25008.77
596.286	24904.32
596.482	24791.69
596.679	24535.69
596.876	24822.41
597.072	25090.69
597.269	24826.5
597.466	24853.12
597.662	24896.13
597.859	24967.81
598.055	24810.12
598.252	24416.91
598.448	24687.24
598.645	24560.27
598.841	24912.52
599.038	25227.9
599.234	24908.42
599.431	24693.38
599.627	24689.29
599.824	24951.43
600.02	24832.65
600.217	24859.27
600.413	25094.79
600.609	24885.89
600.806	24820.36
601.002	24763.01
601.198	24595.08
601.395	24775.3
601.591	24767.11
601.787	24763.01
601.984	24648.33
602.18	25107.07
602.376	25412.22
602.572	24906.37
602.769	24857.22
602.965	24787.59
603.161	24722.05
603.357	24748.68
603.553	25148.03
603.75	25100.93
603.946	24867.46
604.142	25037.44
604.338	24869.51
604.534	24658.57
604.73	24478.35
604.926	24969.86
605.122	24939.14
605.318	24855.17
605.514	24939.14
605.71	24976
605.906	25164.42
606.102	25160.32
606.298	25242.24
606.494	25074.31
606.69	25184.9
606.886	25270.91
607.082	25021.06
607.278	25449.08
607.474	25125.5
607.67	25520.76
607.866	25215.62
608.062	25488
608.257	25506.43
608.453	25680.5
608.649	25578.11
608.845	25238.14
609.041	25635.45
609.236	25791.09
609.432	26057.33
609.628	25961.08
609.824	25655.93
610.019	25772.66
610.215	25725.56
610.411	26200.69
610.606	25559.67
610.802	26268.27
610.998	25827.96
611.193	25909.88
611.389	25821.81
611.584	25770.61
611.78	25881.21
611.976	26151.54
612.171	26192.5
612.367	26260.08
612.562	26098.29
612.758	25913.97
612.953	26294.89
613.149	26548.84
613.344	26532.46
613.539	27210.34
613.735	26667.63
613.93	26829.41
614.126	26514.03
614.321	27005.54
614.517	26694.25
614.712	26772.07
614.907	26743.4
615.103	27175.52
615.298	26593.9
615.493	27386.46
615.688	26548.84
615.884	27396.7
616.079	26853.99
616.274	26858.09
616.47	27079.27
616.665	26983.01
616.86	27320.93
617.055	27167.33
617.25	27255.39
617.445	27415.13
617.641	27062.88
617.836	27386.46
618.031	27038.31
618.226	27667.03
618.421	27236.96
618.616	27581.02
618.811	26923.62
619.006	27656.79
619.201	27075.17
619.396	27081.31
619.591	26753.64
619.786	27527.77
619.981	27202.14
620.176	27374.17
620.371	26993.25
620.566	27179.62
620.761	27251.3
620.956	27472.48
621.151	26765.93
621.346	27105.89
621.541	26659.43
621.735	27120.23
621.93	26606.19
622.125	26825.32
622.32	26303.09
622.515	26802.79
622.709	26823.27
622.904	26921.57
623.099	26497.64
623.294	26972.77
623.488	26258.03
623.683	26657.39
623.878	26071.67
624.072	26290.8
624.267	26280.56
624.462	26251.89
624.656	26040.95
624.851	26122.87
625.046	25852.53
625.24	26079.86
625.435	25725.56
625.629	25811.57
625.824	25680.5
626.018	25318.01
626.213	25268.86
626.407	25414.27
626.602	24945.28
626.796	25205.38
626.991	25348.73
627.185	25055.87
627.38	25322.11
627.574	25002.63
627.768	24636.04
627.963	25000.58
628.157	24525.45
628.352	25037.44
628.546	24300.17
628.74	24625.8
628.935	24023.7
629.129	24418.96
629.323	24472.2
629.517	24285.84
629.712	24158.86
629.906	23990.93
630.1	23734.93
630.294	24040.08
630.489	24201.87
630.683	24132.24
630.877	23790.23
631.071	23773.85
631.265	23513.75
631.459	23397.02
631.653	23272.09
631.848	23286.43
632.042	23181.98
632.236	23470.75
632.43	22723.24
632.624	23079.58
632.818	22811.3
633.012	22756
633.206	22983.33
633.4	22848.16
633.594	22708.9
633.788	22676.13
633.982	22635.17
634.176	22325.93
634.369	22368.94
634.563	22291.12
634.757	22135.47
634.951	21992.11
635.145	22145.71
635.339	21613.24
635.533	21533.37
635.726	21666.49
635.92	21383.87
636.114	21693.11
636.308	21091.01
636.501	21543.61
636.695	21326.52
636.889	21048
637.083	21002.94
637.276	21174.97
637.47	20826.82
637.664	20683.46
637.857	20746.95
638.051	20509.38
638.244	20216.52
638.438	20501.19
638.632	20280.01
638.825	20044.49
639.019	20392.65
639.212	20148.94
639.406	20042.45
639.599	19794.64
639.793	20191.95
639.986	19503.83
640.18	19460.82
640.373	19528.41
640.567	19208.92
640.76	19258.07
640.954	18977.5
641.147	19014.37
641.34	18983.65
641.534	18983.65
641.727	18803.43
641.92	18592.48
642.114	18641.64
642.307	18817.76
642.5	18389.74
642.694	18301.67
642.887	18332.39
643.08	18449.13
643.273	18205.42
643.467	18121.45
643.66	17924.85
643.853	17834.74
644.046	17685.23
644.239	17570.55
644.432	17539.83
644.626	17402.61
644.819	17363.7
645.012	17529.59
645.205	17488.63
645.398	17103.61
645.591	16714.5
645.784	16917.25
645.977	16595.71
646.17	16745.22
646.363	16192.26
646.556	16151.31
646.749	16284.42
646.942	16605.95
647.135	16053
647.328	16216.84
647.521	16188.17
647.714	15944.46
647.907	15930.12
648.099	15692.56
648.292	15911.69
648.485	15641.36
648.678	15463.19
648.871	15577.87
649.064	15172.38
649.256	15397.65
649.449	15174.42
649.642	14965.53
649.835	15018.78
650.027	14897.95
650.22	14879.52
650.413	14897.95
650.605	14756.64
650.798	14652.19
650.991	14504.74
651.183	14340.9
651.376	14494.5
651.568	14607.14
651.761	14347.05
651.954	14091.05
652.146	14177.06
652.339	14107.43
652.531	14207.78
652.724	13873.96
652.916	13746.99
653.109	13740.85
653.301	13472.56
653.494	13859.63
653.686	13460.27
653.879	13746.99
654.071	13370.16
654.263	13464.37
654.456	13275.96
654.648	13286.2
654.84	12682.05
655.033	12806.97
655.225	12745.53
655.417	12780.35
655.61	12841.79
655.802	12778.3
655.994	12747.58
656.186	12532.54
656.379	12507.97
656.571	12505.92
656.763	12069.7
656.955	12198.73
657.148	12139.33
657.34	12176.2
657.532	11795.28
657.724	12012.36
657.916	12006.22
658.108	11805.52
658.3	11606.86
658.492	11799.37
658.684	11500.37
658.876	11572.05
659.068	11438.93
659.26	11314
659.452	11332.44
659.644	11260.76
659.836	11023.19
660.028	11227.99
660.22	10732.38
660.412	10623.84
660.604	10855.26
660.796	10744.67
660.988	10564.45
661.18	10724.19
661.372	10449.76
661.563	10470.24
661.755	10287.97
661.947	10462.05
662.139	10341.22
662.331	10249.06
662.522	10105.7
662.714	10050.41
662.906	9997.16
663.097	10161
663.289	9876.33
663.481	10029.93
663.673	9796.46
663.864	9581.42
664.056	9735.02
664.247	9689.96
664.439	9370.48
664.631	9501.55
664.822	9513.84
665.014	9356.15
665.205	9513.84
665.397	9192.31
665.588	9257.84
665.78	9143.16
665.971	9018.23
666.163	9163.64
666.354	9007.99
666.546	8911.74
666.737	9007.99
666.929	8811.39
667.12	8774.52
667.311	8645.5
667.503	8588.16
667.694	8629.12
667.885	8588.16
668.077	8506.24
668.268	8477.57
668.459	8334.21
668.651	8285.06
668.842	8227.71
669.033	8182.66
669.224	8022.92
669.416	8426.37
669.607	8133.51
669.798	8145.8
669.989	8086.4
670.18	7959.43
670.371	7871.37
670.563	8055.69
670.754	7891.85
670.945	7748.49
671.136	7859.08
671.327	7803.78
671.518	7773.07
671.709	7785.35
671.9	7842.7
672.091	7637.9
672.282	7687.05
672.473	7746.44
672.664	7609.23
672.855	7484.3
673.046	7568.27
673.237	7601.04
673.428	7488.4
673.619	7701.39
673.809	7396.24
674	7455.63
674.191	7474.06
674.382	7281.55
674.573	7404.43
674.764	7173.01
674.954	7314.32
675.145	7179.15
675.336	7404.43
675.527	7136.15
675.717	7316.37
675.908	7207.83
676.099	7058.32
676.289	6945.69
676.48	7037.84
676.671	7023.51
676.861	6912.92
677.052	6857.62
677.243	6642.59
677.433	6874.01
677.624	6890.39
677.814	6833.05
678.005	6849.43
678.195	6687.64
678.386	6865.82
678.576	6648.73
678.767	6513.56
678.957	6708.12
679.148	6894.49
679.338	6712.22
679.529	6718.36
679.719	6568.86
679.909	6734.75
680.1	6785.94
680.29	6753.18
680.481	6595.48
680.671	6636.44
680.861	6685.59
681.052	6718.36
681.242	6411.17
681.432	6663.07
681.622	6513.56
681.813	6577.05
682.003	6376.35
682.193	6517.66
682.383	6695.83
682.573	6443.93
682.764	6331.3
682.954	6300.58
683.144	6261.66
683.334	6323.1
683.524	6327.2
683.714	6503.32
683.904	6276
684.094	6394.78
684.284	6171.55
684.474	6474.65
684.664	6468.51
684.854	6411.17
685.044	6165.41
685.234	6196.13
685.424	6124.45
685.614	6200.23
685.804	6304.67
685.994	6237.09
686.184	6212.51
686.374	6310.82
686.564	6116.26
686.753	6163.36
686.943	6097.83
687.133	6136.74
687.323	6079.4
687.513	6015.91
687.702	6216.61
687.892	6106.02
688.082	6251.42
688.272	6097.83
688.461	6120.35
688.651	6106.02
688.841	5991.33
689.03	5999.52
689.22	5817.26
689.41	5954.47
689.599	6001.57
689.789	5925.8
689.979	5946.28
690.168	5985.19
690.358	5835.69
690.547	6153.12
690.737	5903.27
690.926	6042.53
691.116	5694.38
691.305	5888.93
691.495	5909.41
691.684	5802.92
691.874	5845.93
692.063	5870.5
692.252	5895.08
692.442	5776.3
692.631	5610.41
692.82	5831.59
693.01	5665.71
693.199	5856.17
693.388	5727.14
693.578	5639.08
693.767	5747.62
693.956	5727.14
694.146	5538.73
694.335	5698.47
694.524	5610.41
694.713	5669.8
694.902	5614.51
695.092	5667.75
695.281	5686.19
695.47	5667.75
695.659	5620.65
695.848	5604.27
696.037	5739.43
696.226	5919.65
696.415	5682.09
696.604	5651.37
696.793	5841.83
696.982	5598.12
697.171	5723.05
697.36	5721
697.549	5622.7
697.738	5657.51
697.927	5667.75
698.116	5651.37
698.305	5649.32
698.494	5698.47
698.683	5600.17
698.872	5596.07
699.061	5528.49
699.25	5620.65
699.438	5626.79
699.627	5458.86
699.816	5585.83
700.005	5698.47
700.193	5446.57
700.382	5796.78
700.571	5606.31
700.76	5587.88
700.948	5675.95
701.137	5512.11
701.326	5555.12
701.514	5479.34
701.703	5491.63
701.892	5428.14
702.08	5596.07
702.269	5530.54
702.457	5462.96
702.646	5606.31
702.834	5514.16
703.023	5508.01
703.212	5520.3
703.4	5604.27
703.589	5458.86
703.777	5426.09
703.965	5450.67
704.154	5534.64
704.342	5655.47
704.531	5415.85
704.719	5372.85
704.907	5530.54
705.096	5338.03
705.284	5540.78
705.472	5364.65
705.661	5434.29
705.849	5430.19
706.037	5358.51
706.226	5327.79
706.414	5346.22
706.602	5309.36
706.79	5403.57
706.979	5366.7
707.167	5407.66
707.355	5198.77
707.543	5327.79
707.731	5254.06
707.919	5256.11
708.107	5313.45
708.296	5333.93
708.484	5225.39
708.672	5284.78
708.86	5276.59
709.048	5225.39
709.236	5057.46
709.424	5362.61
709.612	5213.1
709.8	5151.67
709.988	5229.49
710.176	5280.69
710.364	5247.92
710.551	5092.27
710.739	5131.19
710.927	5270.45
711.115	5102.51
711.303	5133.23
711.491	5235.63
711.679	5120.95
711.866	5069.75
712.054	5061.55
712.242	5215.15
712.43	5079.99
712.617	5155.76
712.805	5188.53
712.993	5082.03
713.181	4807.61
713.368	5086.13
713.556	5071.79
713.744	4789.17
713.931	5127.09
714.119	4948.92
714.306	4993.97
714.494	4858.81
714.682	4953.01
714.869	4799.41
715.057	4871.09
715.244	4805.56
715.432	5127.09
715.619	4778.94
715.807	4897.72
715.994	4877.24
716.182	4920.24
716.369	4844.47
716.556	4864.95
716.744	4805.56
716.931	4826.04
717.119	4889.53
717.306	4778.94
717.493	4709.3
717.681	4692.92
717.868	4840.37
718.055	4621.24
718.242	4629.43
718.43	4713.4
718.617	4674.49
718.804	4627.39
718.991	4527.03
719.179	4692.92
719.366	4690.87
719.553	4731.83
719.74	4658.1
719.927	4596.67
720.114	4744.12
720.301	4432.83
720.488	4414.4
720.676	4578.23
720.863	4508.6
721.05	4565.95
721.237	4535.23
721.424	4531.13
721.611	4486.08
721.798	4430.78
721.985	4459.45
722.172	4387.77
722.358	4307.9
722.545	4506.56
722.732	4426.68
722.919	4432.83
723.106	4242.37
723.293	4320.19
723.48	4420.54
723.667	4416.44
723.853	4346.81
724.04	4545.47
724.227	4307.9
724.414	4375.49
724.6	4291.52
724.787	4383.68
724.974	4434.88
725.161	4266.94
725.347	4117.44
725.534	4350.91
725.72	4273.09
725.907	4219.84
726.094	4363.2
726.28	4199.36
726.467	4187.07
726.653	4162.5
726.84	4201.41
727.027	4205.5
727.213	4072.39
727.4	4244.42
727.586	4207.55
727.773	4205.5
727.959	4068.29
728.145	4123.59
728.332	4068.29
728.518	3957.7
728.705	4131.78
728.891	4090.82
729.077	4033.47
729.264	3961.8
729.45	3994.56
729.636	4008.9
729.823	3943.36
730.009	4053.95
730.195	3951.56
730.382	3935.17
730.568	3863.49
730.754	3949.51
730.94	3947.46
731.126	4111.3
731.313	3869.64
731.499	3716.04
731.685	3965.89
731.871	3933.12
732.057	3855.3
732.243	3806.15
732.429	3918.79
732.615	3765.19
732.801	3765.19
732.987	3707.85
733.173	3888.07
733.359	3818.44
733.545	3881.92
733.731	3718.09
733.917	3693.51
734.103	3824.58
734.289	3793.86
734.475	3656.65
734.661	3771.33
734.847	3683.27
735.033	3713.99
735.219	3687.37
735.404	3748.81
735.59	3558.35
735.776	3595.21
735.962	3574.73
736.148	3482.57
736.333	3580.87
736.519	3482.57
736.705	3599.31
736.89	3580.87
737.076	3572.68
737.262	3595.21
737.447	3443.66
737.633	3580.87
737.819	3597.26
738.004	3392.46
738.19	3503.05
738.375	3421.13
738.561	3384.27
738.747	3439.56
738.932	3394.51
739.118	3443.66
739.303	3386.32
739.489	3402.7
739.674	3490.76
739.859	3302.35
740.045	3369.93
740.23	3371.98
740.416	3255.25
740.601	3386.32
740.786	3177.42
740.972	3236.81
741.157	3308.49
741.342	3064.79
741.528	3130.32
741.713	3261.39
741.898	3228.62
742.084	3052.5
742.269	3111.89
742.454	3208.14
742.639	3142.61
742.824	3109.84
743.01	3060.69
743.195	3132.37
743.38	2989.01
743.565	2995.15
743.75	2956.24
743.935	3009.49
744.12	3003.35
744.305	2874.32
744.49	2993.11
744.675	3034.07
744.86	2821.08
745.045	2962.39
745.23	2960.34
745.415	2894.8
745.6	2950.1
745.785	2685.91
745.97	2927.57
746.155	2829.27
746.34	2900.95
746.525	2659.29
746.71	2868.18
746.895	2704.34
747.079	2753.49
747.264	2661.34
747.449	2759.64
747.634	2667.48
747.819	2603.99
748.003	2663.38
748.188	2649.05
748.373	2575.32
748.557	2659.29
748.742	2608.09
748.927	2624.47
749.111	2673.62
749.296	2509.79
749.481	2563.03
749.665	2550.75
749.85	2384.86
750.034	2513.88
750.219	2415.58
750.404	2321.37
750.588	2456.54
750.773	2468.83
750.957	2444.25
751.141	2368.48
751.326	2401.24
751.51	2337.76
751.695	2296.8
751.879	2323.42
752.064	2276.32
752.248	2202.59
752.432	2370.52
752.617	2372.57
752.801	2290.65
752.985	2243.55
753.17	2139.1
753.354	2202.59
753.538	2143.2
753.722	2112.48
753.907	2085.86
754.091	2118.62
754.275	2073.57
754.459	2124.77
754.643	2092
754.828	1938.4
755.012	1993.7
755.196	2112.48
755.38	2022.37
755.564	2032.61
755.748	1958.88
755.932	2067.42
756.116	2001.89
756.3	2081.76
756.484	1887.2
756.668	2079.71
756.852	1909.73
757.036	1962.98
757.22	1838.05
757.404	1850.34
757.588	1870.82
757.772	1954.79
757.956	1776.61
758.14	1922.02
758.323	1852.39
758.507	1811.43
758.691	1807.33
758.875	1817.57
759.059	1813.48
759.242	1842.15
759.426	1790.95
759.61	1700.84
759.794	1797.09
759.977	1846.24
760.161	1887.2
760.345	1731.56
760.528	1752.04
760.712	1842.15
760.895	1596.39
761.079	1647.59
761.263	1569.77
761.446	1684.45
761.63	1731.56
761.813	1717.22
761.997	1623.02
762.18	1618.92
762.364	1631.21
762.547	1571.82
762.731	1620.97
762.914	1500.14
763.098	1596.39
763.281	1559.53
763.464	1534.95
763.648	1524.71
763.831	1592.3
764.015	1487.85
764.198	1491.95
764.381	1547.24
764.564	1559.53
764.748	1532.9
764.931	1586.15
765.114	1563.62
765.297	1555.43
765.481	1440.75
765.664	1493.99
765.847	1385.45
766.03	1522.66
766.213	1444.84
766.397	1461.23
766.58	1444.84
766.763	1438.7
766.946	1420.27
767.129	1367.02
767.312	1399.79
767.495	1299.44
767.678	1364.97
767.861	1367.02
768.044	1340.4
768.227	1430.51
768.41	1381.35
768.593	1383.4
768.776	1397.74
768.959	1358.83
769.142	1465.32
769.324	1285.1
769.507	1338.35
769.69	1387.5
769.873	1293.29
770.056	1453.03
770.239	1348.59
770.421	1469.42
770.604	1297.39
770.787	1364.97
770.97	1250.28
771.152	1358.83
771.335	1303.53
771.518	1149.93
771.7	1334.25
771.883	1321.96
772.066	1305.58
772.248	1272.81
772.431	1256.43
772.613	1201.13
772.796	1266.67
772.978	1324.01
773.161	1387.5
773.343	1276.91
773.526	1151.98
773.708	1121.26
773.891	1100.78
774.073	1201.13
774.256	1111.02
774.438	1215.47
774.621	1151.98
774.803	1295.34
774.985	1088.5
775.168	1176.56
775.35	1141.74
775.532	1170.41
775.715	1121.26
775.897	1125.36
776.079	1072.11
776.261	1084.4
776.444	1135.6
776.626	1082.35
776.808	1119.21
776.99	1039.34
777.173	1080.3
777.355	953.33
777.537	967.67
777.719	1131.5
777.901	1027.06
778.083	1029.1
778.265	988.14
778.447	1014.77
778.629	1092.59
778.811	1065.97
778.993	1002.48
779.175	1121.26
779.357	1045.49
779.539	889.84
779.721	932.85
779.903	926.71
780.085	910.32
780.267	938.99
780.449	1008.62
780.631	951.28
780.812	1061.87
780.994	832.5
781.176	920.56
781.358	807.92
781.54	906.23
781.721	824.31
781.903	879.6
782.085	838.64
782.267	855.03
782.448	840.69
782.63	838.64
782.812	791.54
782.993	902.13
783.175	824.31
783.357	855.03
783.538	736.24
783.72	779.25
783.901	762.87
784.083	830.45
784.264	814.07
784.446	783.35
784.627	713.72
784.809	781.3
784.99	848.88
785.172	766.96
785.353	752.63
785.535	771.06
785.716	726
785.897	660.47
786.079	676.85
786.26	701.43
786.441	699.38
786.623	609.27
786.804	683
786.985	746.48
787.167	660.47
787.348	777.2
787.529	689.14
787.71	773.11
787.891	644.09
788.073	576.5
788.254	639.99
788.435	715.77
788.616	666.61
788.797	652.28
788.978	601.08
789.159	508.92
789.34	617.46
789.522	574.46
789.703	603.13
789.884	617.46
790.065	605.17
790.246	570.36
790.427	639.99
790.607	574.46
790.788	592.89
790.969	599.03
791.15	572.41
791.331	619.51
791.512	517.11
791.693	543.74
791.874	560.12
792.054	592.89
792.235	560.12
792.416	539.64
792.597	572.41
792.778	498.68
792.958	519.16
793.139	562.17
793.32	533.5
793.5	523.26
793.681	568.31
793.862	541.69
794.042	443.39
794.223	377.85
794.404	441.34
794.584	500.73
794.765	484.34
794.945	510.97
795.126	510.97
795.306	525.3
795.487	414.71
795.667	406.52
795.848	474.1
796.028	439.29
796.209	484.34
796.389	506.87
796.57	488.44
796.75	316.41
796.93	494.58
797.111	453.63
797.291	459.77
797.471	420.86
797.652	455.67
797.832	498.68
798.012	322.56
798.192	369.66
798.373	373.75
798.553	402.43
798.733	465.91
798.913	408.57
799.093	396.28
799.274	445.43
799.454	427
799.634	381.95
799.814	461.82
799.994	312.32
800.174	453.63
800.354	392.19
800.534	267.26
800.714	465.91
800.894	332.79
801.074	306.17
801.254	433.15
801.434	379.9
801.614	363.51
801.794	343.03
801.974	1215.47
802.154	355.32
802.334	318.46
802.514	386.04
802.693	353.27
802.873	328.7
803.053	338.94
803.233	394.23
803.413	248.83
803.592	300.03
803.772	357.37
803.952	328.7
804.131	261.12
804.311	373.75
804.491	386.04
804.67	271.36
804.85	318.46
805.03	369.66
805.209	377.85
805.389	285.69
805.568	263.16
805.748	236.54
805.928	328.7
806.107	392.19
806.287	371.71
806.466	375.8
806.646	338.94
806.825	343.03
807.004	211.96
807.184	269.31
807.363	322.56
807.543	306.17
807.722	289.79
807.901	300.03
808.081	334.84
808.26	236.54
808.439	248.83
808.619	203.77
808.798	271.36
808.977	330.75
809.156	324.6
809.336	367.61
809.515	351.23
809.694	211.96
809.873	287.74
810.052	310.27
810.231	281.6
810.411	275.45
810.59	318.46
810.769	295.93
810.948	273.4
811.127	173.05
811.306	304.12
811.485	220.16
811.664	336.89
811.843	326.65
812.022	218.11
812.201	218.11
812.38	289.79
812.559	306.17
812.737	306.17
812.916	267.26
813.095	189.44
813.274	195.58
813.453	201.72
813.632	240.64
813.811	293.88
813.989	218.11
814.168	228.35
814.347	156.67
814.526	224.25
814.704	267.26
814.883	275.45
815.062	113.66
815.24	242.68
815.419	197.63
815.598	218.11
815.776	226.3
815.955	228.35
816.133	173.05
816.312	242.68
816.49	234.49
816.669	177.15
816.847	220.16
817.026	179.2
817.204	238.59
817.383	197.63
817.561	220.16
817.74	207.87
817.918	254.97
818.097	160.77
818.275	158.72
818.453	205.82
818.632	287.74
818.81	160.77
818.988	128
819.167	105.47
819.345	234.49
819.523	181.25
819.701	146.43
819.879	150.53
820.058	195.58
820.236	246.78
820.414	228.35
820.592	146.43
820.77	179.2
820.948	132.09
821.127	146.43
821.305	185.34
821.483	220.16
821.661	238.59
821.839	185.34
822.017	150.53
822.195	39.94
822.373	168.96
822.551	236.54
822.729	181.25
822.907	107.52
823.085	201.72
823.262	185.34
823.44	70.65
823.618	125.95
823.796	175.1
823.974	89.09
824.152	191.49
824.329	156.67
824.507	144.38
824.685	232.44
824.863	160.77
825.04	193.53
825.218	97.28
825.396	136.19
825.574	150.53
825.751	152.57
825.929	222.2
826.107	62.46
826.284	263.16
826.462	134.14
826.639	62.46
826.817	144.38
826.994	162.81
827.172	44.03
827.349	234.49
827.527	203.77
827.704	50.18
827.882	179.2
828.059	64.51
828.237	152.57
828.414	154.62
828.591	66.56
828.769	101.37
828.946	56.32
829.124	207.87
829.301	113.66
829.478	138.24
829.655	93.18
829.833	89.09
830.01	152.57
830.187	130.05
830.364	148.48
830.542	105.47
830.719	158.72
830.896	97.28
831.073	175.1
831.25	164.86
831.427	193.53
831.604	179.2
831.782	68.61
831.959	123.9
832.136	87.04
832.313	144.38
832.49	99.33
832.667	109.57
832.844	130.05
833.021	107.52
833.198	93.18
833.374	117.76
833.551	191.49
833.728	111.61
833.905	144.38
834.082	44.03
834.259	70.65
834.436	158.72
834.612	119.81
834.789	66.56
834.966	115.71
835.143	132.09
835.319	80.89
835.496	103.42
835.673	103.42
835.85	84.99
836.026	121.85
836.203	117.76
836.38	95.23
836.556	44.03
836.733	113.66
836.909	160.77
837.086	99.33
837.262	21.5
837.439	146.43
837.616	74.75
837.792	80.89
837.968	35.84
838.145	27.65
838.321	87.04
838.498	89.09
838.674	99.33
838.851	101.37
839.027	29.7
839.203	37.89
839.38	164.86
839.556	95.23
839.732	101.37
839.909	76.8
840.085	56.32
840.261	39.94
840.437	128
840.614	41.98
840.79	117.76
840.966	105.47
841.142	68.61
841.318	103.42
841.494	13.31
841.671	166.91
841.847	87.04
842.023	9.22
842.199	80.89
842.375	115.71
842.551	33.79
842.727	56.32
842.903	136.19
843.079	80.89
843.255	125.95
843.431	46.08
843.607	89.09
843.783	5.12
843.959	125.95
844.134	35.84
844.31	156.67
844.486	23.55
844.662	-93.18
844.838	54.27
845.013	41.98
845.189	37.89
845.365	31.74
845.541	56.32
845.716	27.65
845.892	138.24
846.068	25.6
846.244	-13.31
846.419	52.22
846.595	21.5
846.77	41.98
846.946	128
847.122	66.56
847.297	11.26
847.473	152.57
847.648	-11.26
847.824	46.08
847.999	-72.7
848.175	15.36
848.35	11.26
848.526	84.99
848.701	84.99
848.876	105.47
849.052	70.65
849.227	35.84
849.403	101.37
849.578	39.94
849.753	60.42
849.929	154.62
850.104	29.7
850.279	46.08
850.454	13.31
850.63	111.61
850.805	80.89
850.98	15.36
851.155	48.13
851.33	76.8
851.505	-33.79
851.681	82.94
851.856	-5.12
852.031	48.13
852.206	97.28
852.381	54.27
852.556	60.42
852.731	5.12
852.906	111.61
853.081	58.37
853.256	121.85
853.431	39.94
853.606	-15.36
853.781	-13.31
853.956	-37.89
854.131	109.57
854.305	23.55
854.48	-11.26
854.655	23.55
854.83	1.02
855.005	-44.03
855.18	39.94
855.354	58.37
855.529	89.09
855.704	33.79
855.879	66.56
856.053	-21.5
856.228	91.13
856.403	-33.79
856.577	82.94
856.752	15.36
856.926	17.41
857.101	37.89
857.276	-25.6
857.45	-27.65
857.625	74.75
857.799	37.89
857.974	7.17
858.148	-37.89
858.323	50.18
858.497	82.94
858.672	-44.03
858.846	15.36
859.02	89.09
859.195	-25.6
859.369	74.75
859.543	5.12
859.718	27.65
859.892	117.76
860.066	84.99
860.241	41.98
860.415	48.13
860.589	-3.07
860.763	5.12
860.938	-11.26
861.112	-23.55
861.286	-9.22
861.46	50.18
861.634	31.74
861.808	35.84
861.982	84.99
862.157	9.22
862.331	7.17
862.505	23.55
862.679	-35.84
862.853	54.27
863.027	3.07
863.201	95.23
863.375	-29.7
863.549	15.36
863.722	99.33
863.896	70.65
864.07	15.36
864.244	-5.12
864.418	48.13
864.592	21.5
864.766	31.74
864.939	119.81
865.113	78.85
865.287	52.22
865.461	19.46
865.634	70.65
865.808	31.74
865.982	68.61
866.156	82.94
866.329	-17.41
866.503	35.84
866.676	46.08
866.85	15.36
867.024	-29.7
867.197	31.74
867.371	50.18
867.544	-54.27
867.718	39.94
867.891	46.08
868.065	-33.79
868.238	39.94
868.412	138.24
868.585	60.42
868.759	39.94
868.932	15.36
869.105	-103.42
869.279	9.22
869.452	-78.85
869.625	25.6
869.799	76.8
869.972	-23.55
870.145	-3.07
870.319	87.04
870.492	15.36
870.665	-35.84
870.838	-9.22
871.011	-21.5
871.185	-5.12
871.358	-54.27
871.531	35.84
871.704	-54.27
871.877	60.42
872.05	25.6
872.223	-50.18
872.396	50.18
872.569	19.46
872.742	-44.03
872.915	21.5
873.088	37.89
873.261	37.89
873.434	27.65
873.607	91.13
873.78	5.12
873.953	17.41
874.126	-54.27
874.299	39.94
874.471	-99.33
874.644	-60.42
874.817	105.47
874.99	80.89
875.163	5.12
875.335	15.36
875.508	1.02
875.681	31.74
875.853	-44.03
876.026	-3.07
876.199	84.99
876.371	-3.07
876.544	3.07
876.717	82.94
876.889	23.55
877.062	-13.31
877.234	-95.23
877.407	-7.17
877.579	-13.31
877.752	50.18
877.924	35.84
878.097	-72.7
878.269	52.22
878.442	44.03
878.614	21.5
878.786	37.89
878.959	29.7
879.131	-5.12
879.303	-35.84
879.476	9.22
879.648	-7.17
879.82	-80.89
879.993	-68.61
880.165	-9.22
880.337	46.08
880.509	101.37
880.681	-64.51
880.854	48.13
881.026	-31.74
881.198	177.15
881.37	50.18
881.542	-5.12
881.714	-29.7
881.886	9.22
882.058	31.74
882.23	-37.89
882.402	35.84
882.574	31.74
882.746	11.26
882.918	31.74
883.09	95.23
883.262	39.94
883.434	-29.7
883.606	-93.18
883.778	-25.6
883.95	39.94
884.122	-9.22
884.293	52.22
884.465	70.65
884.637	48.13
884.809	-97.28
884.98	48.13
885.152	-1.02
885.324	103.42
885.496	-7.17
885.667	52.22
885.839	-31.74
886.011	87.04
886.182	56.32
886.354	17.41
886.525	3.07
886.697	23.55
886.869	25.6
887.04	-39.94
887.212	25.6
887.383	119.81
887.555	27.65
887.726	-54.27
887.897	-99.33
888.069	37.89
888.24	97.28
888.412	-103.42
888.583	-15.36
888.754	-44.03
888.926	-84.99
889.097	-29.7
889.268	-5.12
889.44	-11.26
889.611	-128
889.782	5.12
889.953	1.02
890.125	27.65
890.296	-68.61
890.467	-21.5
890.638	-37.89
890.809	11.26
890.98	-89.09
891.151	15.36
891.323	46.08
891.494	7.17
891.665	46.08
891.836	31.74
892.007	-25.6
892.178	19.46
892.349	-35.84
892.52	-5.12
892.691	3.07
892.862	3.07
893.032	-56.32
893.203	35.84
893.374	-23.55
893.545	119.81
893.716	-52.22
893.887	19.46
894.057	-21.5
894.228	9.22
894.399	-9.22
894.57	1.02
894.74	-7.17
894.911	-19.46
895.082	-46.08
895.253	1.02
895.423	68.61
895.594	1.02
895.764	-21.5
895.935	-35.84
896.106	-13.31
896.276	-37.89
896.447	19.46
896.617	-109.57
896.788	-87.04
896.958	-91.13
897.129	11.26
897.299	19.46
897.47	35.84
897.64	5.12
897.81	-35.84
897.981	13.31
898.151	-27.65
898.322	41.98
898.492	11.26
898.662	21.5
898.832	44.03
899.003	35.84
899.173	25.6
899.343	-56.32
899.513	-41.98
