Data from USB4F104151__94__12-13-15-249.txt Node

Date: Fri Mar 14 12:13:15 EDT 2025
User: louis
Spectrometer: USB4F10415
Trigger mode: 4
Integration Time (sec): 5.000000E-2
Scans to average: 1
Electric dark correction enabled: true
Nonlinearity correction enabled: false
Boxcar width: 0
XAxis mode: Wavelengths
Number of Pixels in Spectrum: 3648
>>>>>Begin Spectral Data<<<<<
178.204	-157.86
178.424	-157.86
178.644	-157.86
178.864	-217.26
179.084	-204.97
179.304	18.26
179.524	-86.19
179.744	24.4
179.964	8.02
180.184	-22.7
180.404	-18.6
180.624	-28.84
180.844	-30.89
181.064	20.31
181.283	5.97
181.503	28.5
181.723	81.75
181.943	-137.38
182.163	79.7
182.383	-28.84
182.602	87.89
182.822	32.6
183.042	116.56
183.262	18.26
183.482	59.22
183.701	-32.94
183.921	26.45
184.141	-53.42
184.361	48.98
184.58	75.6
184.8	61.27
185.02	8.02
185.239	79.7
185.459	55.12
185.679	98.13
185.898	-22.7
186.118	-14.51
186.338	98.13
186.557	18.26
186.777	-55.47
186.997	-16.55
187.216	20.31
187.436	77.65
187.655	28.5
187.875	132.95
188.095	20.31
188.314	110.42
188.534	-22.7
188.753	-22.7
188.973	91.99
189.192	120.66
189.412	18.26
189.631	61.27
189.851	40.79
190.07	89.94
190.29	-26.79
190.509	57.17
190.729	14.17
190.948	126.8
191.168	155.47
191.387	118.61
191.607	59.22
191.826	61.27
192.045	5.97
192.265	75.6
192.484	18.26
192.704	30.55
192.923	-10.41
193.142	145.24
193.362	36.69
193.581	81.75
193.8	108.37
194.02	12.12
194.239	26.45
194.458	36.69
194.678	12.12
194.897	63.32
195.116	18.26
195.335	106.32
195.555	53.08
195.774	77.65
195.993	77.65
196.212	77.65
196.432	65.36
196.651	53.08
196.87	71.51
197.089	91.99
197.308	75.6
197.528	87.89
197.747	-6.31
197.966	130.9
198.185	51.03
198.404	-37.03
198.623	22.36
198.842	102.23
199.062	114.52
199.281	98.13
199.5	-28.84
199.719	79.7
199.938	48.98
200.157	96.08
200.376	61.27
200.595	57.17
200.814	108.37
201.033	-26.79
201.252	77.65
201.471	63.32
201.69	118.61
201.909	87.89
202.128	40.79
202.347	34.64
202.566	55.12
202.785	-34.99
203.004	18.26
203.223	182.1
203.442	18.26
203.661	-26.79
203.879	10.07
204.098	155.47
204.317	-30.89
204.536	77.65
204.755	-20.65
204.974	96.08
205.193	32.6
205.411	94.04
205.63	48.98
205.849	73.56
206.068	-2.22
206.287	42.84
206.505	102.23
206.724	-41.13
206.943	20.31
207.162	3.93
207.381	53.08
207.599	32.6
207.818	46.93
208.037	-49.32
208.255	40.79
208.474	-0.17
208.693	-8.36
208.911	-8.36
209.13	16.21
209.349	20.31
209.567	96.08
209.786	85.84
210.005	14.17
210.223	5.97
210.442	-71.85
210.661	20.31
210.879	22.36
211.098	-8.36
211.316	51.03
211.535	85.84
211.753	-32.94
211.972	40.79
212.191	-10.41
212.409	16.21
212.628	137.04
212.846	42.84
213.065	1.88
213.283	91.99
213.502	77.65
213.72	40.79
213.938	-4.27
214.157	55.12
214.375	26.45
214.594	-20.65
214.812	18.26
215.031	3.93
215.249	28.5
215.467	-18.6
215.686	10.07
215.904	128.85
216.122	16.21
216.341	79.7
216.559	89.94
216.778	77.65
216.996	-2.22
217.214	-47.27
217.432	61.27
217.651	8.02
217.869	5.97
218.087	-24.75
218.306	-30.89
218.524	120.66
218.742	106.32
218.96	81.75
219.179	14.17
219.397	-41.13
219.615	188.24
219.833	1.88
220.051	-75.95
220.27	130.9
220.488	61.27
220.706	91.99
220.924	-6.31
221.142	30.55
221.36	44.88
221.578	53.08
221.796	16.21
222.015	-30.89
222.233	28.5
222.451	87.89
222.669	-2.22
222.887	94.04
223.105	44.88
223.323	-8.36
223.541	46.93
223.759	96.08
223.977	20.31
224.195	61.27
224.413	102.23
224.631	87.89
224.849	12.12
225.067	184.15
225.285	-18.6
225.503	67.41
225.721	-10.41
225.939	57.17
226.157	34.64
226.375	110.42
226.592	-12.46
226.81	-6.31
227.028	102.23
227.246	87.89
227.464	36.69
227.682	34.64
227.9	1.88
228.117	3.93
228.335	149.33
228.553	16.21
228.771	-6.31
228.989	8.02
229.206	53.08
229.424	18.26
229.642	-51.37
229.86	-53.42
230.077	71.51
230.295	-6.31
230.513	10.07
230.731	71.51
230.948	81.75
231.166	94.04
231.384	34.64
231.601	-30.89
231.819	145.24
232.037	-39.08
232.254	-47.27
232.472	-14.51
232.689	38.74
232.907	143.19
233.125	57.17
233.342	63.32
233.56	-2.22
233.777	63.32
233.995	44.88
234.213	128.85
234.43	83.8
234.648	-8.36
234.865	79.7
235.083	77.65
235.3	26.45
235.518	18.26
235.735	112.47
235.953	67.41
236.17	-10.41
236.388	-28.84
236.605	116.56
236.822	69.46
237.04	108.37
237.257	89.94
237.475	-34.99
237.692	24.4
237.909	63.32
238.127	-12.46
238.344	69.46
238.562	83.8
238.779	83.8
238.996	-41.13
239.214	59.22
239.431	-4.27
239.648	-14.51
239.865	20.31
240.083	42.84
240.3	57.17
240.517	30.55
240.735	89.94
240.952	79.7
241.169	102.23
241.386	118.61
241.603	24.4
241.821	34.64
242.038	96.08
242.255	81.75
242.472	53.08
242.689	3.93
242.907	75.6
243.124	44.88
243.341	34.64
243.558	63.32
243.775	-39.08
243.992	-59.56
244.209	81.75
244.426	102.23
244.643	106.32
244.86	42.84
245.078	1.88
245.295	67.41
245.512	51.03
245.729	-18.6
245.946	112.47
246.163	8.02
246.38	85.84
246.597	18.26
246.814	30.55
247.031	38.74
247.248	44.88
247.464	40.79
247.681	55.12
247.898	22.36
248.115	48.98
248.332	-12.46
248.549	161.62
248.766	110.42
248.983	-0.17
249.2	81.75
249.417	102.23
249.633	5.97
249.85	55.12
250.067	12.12
250.284	71.51
250.501	22.36
250.717	53.08
250.934	40.79
251.151	46.93
251.368	46.93
251.585	55.12
251.801	104.28
252.018	-67.75
252.235	32.6
252.451	-16.55
252.668	42.84
252.885	73.56
253.102	77.65
253.318	8.02
253.535	57.17
253.752	-57.51
253.968	18.26
254.185	-43.18
254.401	87.89
254.618	85.84
254.835	-75.95
255.051	96.08
255.268	89.94
255.484	73.56
255.701	1.88
255.917	94.04
256.134	-8.36
256.351	53.08
256.567	34.64
256.784	30.55
257	22.36
257.217	94.04
257.433	128.85
257.65	30.55
257.866	108.37
258.082	28.5
258.299	-0.17
258.515	16.21
258.732	14.17
258.948	55.12
259.165	120.66
259.381	1.88
259.597	63.32
259.814	30.55
260.03	-34.99
260.246	112.47
260.463	69.46
260.679	67.41
260.895	-20.65
261.112	112.47
261.328	16.21
261.544	22.36
261.761	188.24
261.977	5.97
262.193	-4.27
262.409	30.55
262.626	24.4
262.842	130.9
263.058	118.61
263.274	116.56
263.49	42.84
263.707	102.23
263.923	38.74
264.139	32.6
264.355	40.79
264.571	18.26
264.787	118.61
265.004	65.36
265.22	-45.23
265.436	34.64
265.652	5.97
265.868	14.17
266.084	42.84
266.3	30.55
266.516	14.17
266.732	-0.17
266.948	32.6
267.164	-0.17
267.38	100.18
267.596	53.08
267.812	79.7
268.028	-4.27
268.244	48.98
268.46	22.36
268.676	12.12
268.892	44.88
269.108	-57.51
269.324	-24.75
269.54	12.12
269.756	51.03
269.972	24.4
270.188	59.22
270.403	26.45
270.619	-24.75
270.835	36.69
271.051	61.27
271.267	5.97
271.483	28.5
271.698	55.12
271.914	108.37
272.13	36.69
272.346	-73.9
272.562	30.55
272.777	85.84
272.993	53.08
273.209	16.21
273.425	44.88
273.64	8.02
273.856	69.46
274.072	-43.18
274.287	16.21
274.503	14.17
274.719	91.99
274.934	-16.55
275.15	16.21
275.366	77.65
275.581	28.5
275.797	53.08
276.012	28.5
276.228	-0.17
276.444	83.8
276.659	55.12
276.875	1.88
277.09	28.5
277.306	-28.84
277.521	53.08
277.737	65.36
277.952	132.95
278.168	85.84
278.383	44.88
278.599	-22.7
278.814	104.28
279.03	67.41
279.245	108.37
279.461	73.56
279.676	120.66
279.892	-32.94
280.107	1.88
280.322	26.45
280.538	118.61
280.753	-32.94
280.969	18.26
281.184	-61.61
281.399	128.85
281.615	-32.94
281.83	10.07
282.045	51.03
282.26	59.22
282.476	51.03
282.691	14.17
282.906	46.93
283.122	87.89
283.337	-47.27
283.552	30.55
283.767	34.64
283.983	81.75
284.198	10.07
284.413	147.28
284.628	-12.46
284.843	100.18
285.058	12.12
285.274	18.26
285.489	57.17
285.704	65.36
285.919	-8.36
286.134	-0.17
286.349	32.6
286.564	-6.31
286.779	51.03
286.995	83.8
287.21	18.26
287.425	46.93
287.64	85.84
287.855	85.84
288.07	36.69
288.285	73.56
288.5	51.03
288.715	79.7
288.93	53.08
289.145	46.93
289.36	69.46
289.575	-53.42
289.79	108.37
290.004	85.84
290.219	110.42
290.434	57.17
290.649	22.36
290.864	139.09
291.079	57.17
291.294	128.85
291.509	98.13
291.724	44.88
291.938	-20.65
292.153	-4.27
292.368	5.97
292.583	69.46
292.798	55.12
293.012	104.28
293.227	81.75
293.442	-2.22
293.657	151.38
293.871	110.42
294.086	79.7
294.301	98.13
294.516	102.23
294.73	53.08
294.945	-41.13
295.16	61.27
295.374	120.66
295.589	91.99
295.804	-14.51
296.018	51.03
296.233	38.74
296.447	91.99
296.662	5.97
296.877	89.94
297.091	18.26
297.306	96.08
297.52	51.03
297.735	38.74
297.949	89.94
298.164	48.98
298.378	-39.08
298.593	-4.27
298.807	77.65
299.022	-73.9
299.236	69.46
299.451	46.93
299.665	30.55
299.88	20.31
300.094	100.18
300.309	38.74
300.523	55.12
300.737	44.88
300.952	59.22
301.166	61.27
301.381	-28.84
301.595	22.36
301.809	96.08
302.024	8.02
302.238	-30.89
302.452	132.95
302.667	65.36
302.881	83.8
303.095	91.99
303.309	20.31
303.524	65.36
303.738	53.08
303.952	-16.55
304.166	122.71
304.381	3.93
304.595	91.99
304.809	16.21
305.023	-6.31
305.237	-28.84
305.452	71.51
305.666	71.51
305.88	71.51
306.094	96.08
306.308	38.74
306.522	110.42
306.736	96.08
306.95	118.61
307.164	-8.36
307.379	48.98
307.593	118.61
307.807	36.69
308.021	85.84
308.235	3.93
308.449	-8.36
308.663	8.02
308.877	190.29
309.091	91.99
309.305	79.7
309.519	-47.27
309.733	75.6
309.947	-30.89
310.161	73.56
310.374	42.84
310.588	71.51
310.802	-6.31
311.016	12.12
311.23	42.84
311.444	5.97
311.658	-43.18
311.872	40.79
312.085	53.08
312.299	118.61
312.513	120.66
312.727	67.41
312.941	96.08
313.154	24.4
313.368	40.79
313.582	48.98
313.796	51.03
314.009	32.6
314.223	48.98
314.437	77.65
314.651	67.41
314.864	28.5
315.078	79.7
315.292	-4.27
315.505	12.12
315.719	85.84
315.933	102.23
316.146	12.12
316.36	14.17
316.573	46.93
316.787	-16.55
317.001	46.93
317.214	44.88
317.428	87.89
317.641	130.9
317.855	44.88
318.068	22.36
318.282	40.79
318.495	106.32
318.709	46.93
318.922	55.12
319.136	44.88
319.349	102.23
319.563	55.12
319.776	149.33
319.99	69.46
320.203	83.8
320.417	20.31
320.63	120.66
320.843	69.46
321.057	48.98
321.27	102.23
321.483	40.79
321.697	159.57
321.91	112.47
322.124	79.7
322.337	48.98
322.55	44.88
322.763	67.41
322.977	-16.55
323.19	-24.75
323.403	32.6
323.617	36.69
323.83	114.52
324.043	18.26
324.256	110.42
324.469	-47.27
324.683	71.51
324.896	24.4
325.109	20.31
325.322	-6.31
325.535	106.32
325.748	65.36
325.962	-47.27
326.175	71.51
326.388	116.56
326.601	120.66
326.814	30.55
327.027	22.36
327.24	151.38
327.453	-6.31
327.666	161.62
327.879	124.76
328.092	46.93
328.305	3.93
328.518	36.69
328.731	61.27
328.944	-2.22
329.157	-16.55
329.37	-18.6
329.583	178
329.796	120.66
330.009	-41.13
330.222	116.56
330.435	48.98
330.648	89.94
330.861	196.43
331.073	63.32
331.286	104.28
331.499	18.26
331.712	-43.18
331.925	12.12
332.138	75.6
332.35	89.94
332.563	-32.94
332.776	71.51
332.989	16.21
333.202	67.41
333.414	79.7
333.627	67.41
333.84	24.4
334.053	-4.27
334.265	65.36
334.478	51.03
334.691	67.41
334.903	98.13
335.116	14.17
335.329	108.37
335.541	63.32
335.754	67.41
335.966	73.56
336.179	34.64
336.392	57.17
336.604	-20.65
336.817	30.55
337.029	22.36
337.242	89.94
337.454	65.36
337.667	30.55
337.88	106.32
338.092	53.08
338.305	96.08
338.517	-4.27
338.729	46.93
338.942	137.04
339.154	-55.47
339.367	-12.46
339.579	79.7
339.792	40.79
340.004	116.56
340.217	57.17
340.429	18.26
340.641	28.5
340.854	10.07
341.066	81.75
341.278	75.6
341.491	96.08
341.703	108.37
341.915	67.41
342.128	22.36
342.34	30.55
342.552	22.36
342.764	-10.41
342.977	114.52
343.189	118.61
343.401	85.84
343.613	-45.23
343.826	81.75
344.038	36.69
344.25	85.84
344.462	24.4
344.674	75.6
344.886	42.84
345.099	110.42
345.311	96.08
345.523	38.74
345.735	24.4
345.947	40.79
346.159	-45.23
346.371	32.6
346.583	40.79
346.795	79.7
347.007	57.17
347.219	67.41
347.431	59.22
347.643	130.9
347.855	26.45
348.067	153.43
348.279	96.08
348.491	57.17
348.703	55.12
348.915	-2.22
349.127	94.04
349.339	53.08
349.551	85.84
349.763	112.47
349.975	40.79
350.187	151.38
350.399	128.85
350.61	73.56
350.822	85.84
351.034	65.36
351.246	79.7
351.458	12.12
351.669	91.99
351.881	59.22
352.093	38.74
352.305	98.13
352.517	122.71
352.728	147.28
352.94	24.4
353.152	110.42
353.363	-4.27
353.575	89.94
353.787	116.56
353.999	28.5
354.21	71.51
354.422	57.17
354.633	30.55
354.845	1.88
355.057	69.46
355.268	63.32
355.48	48.98
355.692	55.12
355.903	30.55
356.115	-8.36
356.326	-2.22
356.538	110.42
356.749	104.28
356.961	112.47
357.172	151.38
357.384	67.41
357.595	151.38
357.807	-8.36
358.018	44.88
358.23	83.8
358.441	91.99
358.653	71.51
358.864	79.7
359.075	59.22
359.287	91.99
359.498	132.95
359.709	108.37
359.921	10.07
360.132	91.99
360.344	87.89
360.555	-20.65
360.766	48.98
360.977	40.79
361.189	48.98
361.4	53.08
361.611	53.08
361.823	145.24
362.034	75.6
362.245	-47.27
362.456	42.84
362.667	75.6
362.879	53.08
363.09	89.94
363.301	83.8
363.512	-6.31
363.723	100.18
363.935	16.21
364.146	130.9
364.357	147.28
364.568	48.98
364.779	-67.75
364.99	165.71
365.201	81.75
365.412	79.7
365.623	-0.17
365.834	53.08
366.045	91.99
366.256	55.12
366.467	73.56
366.678	38.74
366.889	110.42
367.1	16.21
367.311	118.61
367.522	10.07
367.733	40.79
367.944	87.89
368.155	-4.27
368.366	178
368.577	42.84
368.788	110.42
368.999	18.26
369.209	14.17
369.42	171.86
369.631	212.82
369.842	102.23
370.053	-6.31
370.264	143.19
370.474	18.26
370.685	118.61
370.896	5.97
371.107	67.41
371.317	24.4
371.528	28.5
371.739	61.27
371.95	98.13
372.16	5.97
372.371	42.84
372.582	-24.75
372.792	116.56
373.003	38.74
373.214	102.23
373.424	57.17
373.635	-28.84
373.846	96.08
374.056	34.64
374.267	102.23
374.477	26.45
374.688	5.97
374.898	98.13
375.109	69.46
375.319	94.04
375.53	34.64
375.74	139.09
375.951	79.7
376.161	48.98
376.372	51.03
376.582	14.17
376.793	124.76
377.003	-4.27
377.214	94.04
377.424	73.56
377.635	10.07
377.845	18.26
378.055	100.18
378.266	16.21
378.476	22.36
378.686	96.08
378.897	85.84
379.107	143.19
379.317	112.47
379.528	28.5
379.738	151.38
379.948	98.13
380.158	141.14
380.369	77.65
380.579	87.89
380.789	85.84
380.999	67.41
381.21	137.04
381.42	163.67
381.63	55.12
381.84	96.08
382.05	126.8
382.261	122.71
382.471	79.7
382.681	79.7
382.891	100.18
383.101	38.74
383.311	57.17
383.521	-67.75
383.731	100.18
383.941	65.36
384.151	30.55
384.361	-24.75
384.571	85.84
384.781	18.26
384.991	159.57
385.201	87.89
385.411	149.33
385.621	-22.7
385.831	40.79
386.041	77.65
386.251	65.36
386.461	106.32
386.671	57.17
386.881	100.18
387.091	26.45
387.301	114.52
387.511	85.84
387.72	106.32
387.93	112.47
388.14	-26.79
388.35	34.64
388.56	112.47
388.769	77.65
388.979	63.32
389.189	57.17
389.399	12.12
389.609	81.75
389.818	137.04
390.028	32.6
390.238	87.89
390.447	34.64
390.657	38.74
390.867	14.17
391.076	16.21
391.286	73.56
391.496	79.7
391.705	69.46
391.915	87.89
392.125	71.51
392.334	34.64
392.544	206.67
392.753	77.65
392.963	96.08
393.172	132.95
393.382	143.19
393.591	120.66
393.801	120.66
394.01	149.33
394.22	118.61
394.429	32.6
394.639	51.03
394.848	102.23
395.058	57.17
395.267	122.71
395.477	130.9
395.686	132.95
395.895	165.71
396.105	128.85
396.314	122.71
396.524	22.36
396.733	87.89
396.942	155.47
397.152	96.08
397.361	126.8
397.57	22.36
397.78	116.56
397.989	157.52
398.198	184.15
398.407	71.51
398.617	120.66
398.826	110.42
399.035	145.24
399.244	79.7
399.453	130.9
399.663	143.19
399.872	149.33
400.081	83.8
400.29	94.04
400.499	67.41
400.708	171.86
400.917	139.09
401.127	184.15
401.336	190.29
401.545	210.77
401.754	169.81
401.963	178
402.172	235.35
402.381	122.71
402.59	112.47
402.799	132.95
403.008	206.67
403.217	135
403.426	114.52
403.635	130.9
403.844	186.19
404.053	118.61
404.262	157.52
404.471	155.47
404.68	149.33
404.888	139.09
405.097	137.04
405.306	155.47
405.515	143.19
405.724	225.11
405.933	216.91
406.142	167.76
406.35	186.19
406.559	257.87
406.768	233.3
406.977	257.87
407.185	241.49
407.394	261.97
407.603	165.71
407.812	235.35
408.02	284.5
408.229	227.15
408.438	233.3
408.646	274.26
408.855	286.54
409.064	319.31
409.272	251.73
409.481	300.88
409.69	251.73
409.898	229.2
410.107	327.5
410.315	370.51
410.524	331.6
410.733	417.61
410.941	364.37
411.15	403.28
411.358	413.52
411.567	544.59
411.775	364.37
411.984	446.29
412.192	405.33
412.401	446.29
412.609	601.93
412.818	491.34
413.026	515.92
413.234	567.12
413.443	560.97
413.651	540.49
413.86	546.64
414.068	638.8
414.276	761.67
414.485	505.68
414.693	808.78
414.901	778.06
415.11	755.53
415.318	622.41
415.526	771.91
415.734	835.4
415.943	819.02
416.151	874.31
416.359	862.02
416.567	778.06
416.776	878.41
416.984	1019.72
417.192	1085.25
417.4	950.09
417.608	968.52
417.817	993.09
418.025	1138.5
418.233	1216.32
418.441	1175.36
418.649	1195.84
418.857	1316.67
419.065	1371.97
419.273	1390.4
419.481	1453.89
419.689	1474.37
419.897	1455.94
420.105	1511.23
420.313	1552.19
420.521	1617.72
420.729	1754.94
420.937	1752.89
421.145	1705.79
421.353	1986.36
421.561	1933.11
421.769	1947.45
421.977	2068.28
422.185	2008.89
422.393	2271.03
422.601	2350.9
422.809	2387.76
423.017	2350.9
423.224	2449.2
423.432	2602.8
423.64	2412.34
423.848	2711.34
424.056	2828.07
424.263	2922.28
424.471	2889.51
424.679	3000.1
424.887	3094.31
425.094	3094.31
425.302	3077.93
425.51	3315.49
425.718	3477.28
425.925	3563.29
426.133	3594.01
426.341	3723.04
426.548	3847.96
426.756	3880.73
426.964	4077.34
427.171	4280.08
427.379	4306.71
427.586	4319
427.794	4566.8
428.001	4816.65
428.209	4960.01
428.417	4873.99
428.624	5136.13
428.832	5209.86
429.039	5267.2
429.247	5287.68
429.454	5697.28
429.662	6129.4
429.869	5801.72
430.076	6094.58
430.284	5996.28
430.491	6055.67
430.699	6586.1
430.906	6538.99
431.114	6637.3
431.321	6954.73
431.528	7059.18
431.736	7399.14
431.943	7794.4
432.15	7597.79
432.358	7712.48
432.565	8128.22
432.772	8031.96
432.979	8431.32
433.187	8711.89
433.394	8744.66
433.601	9195.21
433.808	9281.22
434.016	9131.72
434.223	9645.76
434.43	10385.08
434.637	10081.98
434.844	10716.85
435.052	10806.96
435.259	10878.64
435.466	10743.47
435.673	10958.51
435.88	11316.9
436.087	11984.54
436.294	12062.37
436.501	11935.39
436.708	12105.37
436.915	12453.53
437.122	13037.2
437.329	12914.32
437.537	13395.59
437.743	14009.98
437.95	13461.13
438.157	14360.19
438.364	14597.75
438.571	14906.99
438.778	15017.58
438.985	16051.81
439.192	15502.95
439.399	15935.07
439.606	15732.33
439.813	16512.6
440.02	17507.91
440.227	17155.66
440.433	17131.09
440.64	17712.71
440.847	17264.21
441.054	17995.33
441.261	19385.9
441.467	18943.54
441.674	19377.71
441.881	20112.93
442.088	20309.54
442.294	19689
442.501	20256.29
442.708	20682.27
442.914	21786.12
443.121	22683.13
443.328	22334.98
443.534	23483.89
443.741	23080.44
443.948	22566.4
444.154	24477.15
444.361	24151.52
444.568	24538.59
444.774	24063.46
444.981	24696.28
445.187	25322.96
445.394	26473.92
445.6	25837
445.807	28743.07
446.013	27332.02
446.22	27620.78
446.426	28814.75
446.633	29488.53
446.839	29943.18
447.046	28876.19
447.252	30469.51
447.459	30621.06
447.665	30475.65
447.871	31958.38
448.078	33342.81
448.284	31714.67
448.491	32556.39
448.697	33852.75
448.903	34919.74
449.11	34721.09
449.316	34131.28
449.522	34960.7
449.728	35532.09
449.935	35853.62
450.141	35937.58
450.347	36539.69
450.553	35204.41
450.76	36117.81
450.966	37152.03
451.172	36730.15
451.378	37848.34
451.584	37315.87
451.791	38044.94
451.997	37764.37
452.203	38423.82
452.409	38479.11
452.615	38178.06
452.821	36982.05
453.027	36543.78
453.233	38522.12
453.44	37129.5
453.646	37864.72
453.852	37481.75
454.058	38452.49
454.264	36764.96
454.47	37889.3
454.676	36767.01
454.882	38376.72
455.088	35118.4
455.294	35312.95
455.5	35693.88
455.705	36338.99
455.911	34860.35
456.117	34250.06
456.323	33695.06
456.529	32365.93
456.735	33600.85
456.941	32671.07
457.147	32224.62
457.352	31128.95
457.558	30467.46
457.764	30932.35
457.97	30377.35
458.176	29697.42
458.381	29656.46
458.587	28587.43
458.793	28401.06
458.999	26830.27
459.204	28630.43
459.41	27911.6
459.616	26062.28
459.821	26322.37
460.027	26125.77
460.233	25331.15
460.438	24258.02
460.644	24444.38
460.85	23549.42
461.055	23150.07
461.261	23004.66
461.466	21364.24
461.672	20616.73
461.878	22474.24
462.083	20782.62
462.289	20366.88
462.494	19940.9
462.7	19486.25
462.905	18560.57
463.111	19338.8
463.316	18974.26
463.522	18890.29
463.727	19148.34
463.932	18896.44
464.138	18806.33
464.343	18853.43
464.549	18204.22
464.754	18759.22
464.959	18933.3
465.165	18808.37
465.37	17913.41
465.575	17301.07
465.781	18024
465.986	18294.33
466.191	17616.46
466.397	17010.26
466.602	16137.82
466.807	17210.96
467.012	17051.22
467.218	17108.56
467.423	16682.58
467.628	16936.53
467.833	17491.53
468.038	16866.9
468.244	16242.27
468.449	16983.63
468.654	16485.98
468.859	16494.17
469.064	16008.8
469.269	15738.47
469.474	15873.64
469.679	16045.66
469.885	15818.34
470.09	15943.27
470.295	15752.8
470.5	15265.39
470.705	15365.74
470.91	15212.14
471.115	15040.11
471.32	15343.21
471.525	15079.02
471.73	14702.2
471.935	14962.29
472.139	14317.18
472.344	14444.15
472.549	14417.53
472.754	14429.82
472.959	13774.47
473.164	13606.53
473.369	13520.52
473.574	14046.85
473.778	13706.88
473.983	13602.44
474.188	13751.94
474.393	12897.94
474.598	13155.98
474.802	13043.34
475.007	12717.72
475.212	12799.63
475.417	12291.74
475.621	12406.42
475.826	12281.5
476.031	12283.55
476.235	12045.98
476.44	12261.02
476.645	11992.73
476.849	11789.99
477.054	11683.49
477.259	11644.58
477.463	11716.26
477.668	11376.3
477.872	11357.86
478.077	11253.42
478.282	11095.72
478.486	11067.05
478.691	10817.2
478.895	10727.09
479.1	10641.07
479.304	10497.72
479.509	10428.09
479.713	10757.81
479.918	10413.75
480.122	10122.94
480.326	10430.13
480.531	10372.79
480.735	10106.56
480.94	10290.87
481.144	10440.37
481.348	9891.52
481.553	10192.57
481.757	9768.64
481.961	10106.56
482.166	10167.99
482.37	9946.81
482.574	9934.53
482.778	10129.08
482.983	10077.88
483.187	9936.57
483.391	9998.01
483.595	9905.85
483.8	9848.51
484.004	10032.83
484.208	10211
484.412	10034.88
484.616	9965.25
484.821	9912
485.025	9735.87
485.229	9995.96
485.433	9916.09
485.637	9916.09
485.841	9875.13
486.045	9770.69
486.249	10100.41
486.453	9955.01
486.657	10051.26
486.861	9952.96
487.065	9705.15
487.269	9895.61
487.473	9797.31
487.677	10243.77
487.881	10190.52
488.085	10043.07
488.289	10041.02
488.493	9834.18
488.697	10170.04
488.901	9858.75
489.105	10000.06
489.309	10034.88
489.512	10065.6
489.716	10122.94
489.92	10145.47
490.124	10106.56
490.328	10301.11
490.531	10307.26
490.735	10321.59
490.939	10172.09
491.143	10149.56
491.346	10274.49
491.55	10331.83
491.754	10411.7
491.958	10370.74
492.161	10516.15
492.365	10493.62
492.569	10581.68
492.772	10383.03
492.976	10909.36
493.18	10790.58
493.383	10966.7
493.587	10768.05
493.79	11044.52
493.994	10878.64
494.197	10911.41
494.401	11189.93
494.605	11056.81
494.808	11243.18
495.012	11273.9
495.215	11407.02
495.419	11269.8
495.622	11439.78
495.825	11523.75
496.029	11587.24
496.232	11775.65
496.436	11878.05
496.639	12086.94
496.843	11898.53
497.046	12250.78
497.249	12459.67
497.453	12394.14
497.656	12598.93
497.859	12457.62
498.063	12832.4
498.266	12836.5
498.469	12945.04
498.673	13057.68
498.876	13102.73
499.079	13477.51
499.282	13102.73
499.485	13928.06
499.689	13971.07
499.892	13983.36
500.095	14009.98
500.298	14276.22
500.501	13983.36
500.705	14800.5
500.908	14636.66
501.111	14739.06
501.314	14956.15
501.517	15320.68
501.72	15343.21
501.923	15132.27
502.126	15724.13
502.329	16123.49
502.532	16242.27
502.735	16152.16
502.938	16354.91
503.141	16506.46
503.344	16791.13
503.547	16578.14
503.75	17190.48
503.953	17170
504.156	17288.78
504.359	17499.72
504.562	17491.53
504.765	18296.38
504.968	17954.37
505.17	18302.53
505.373	18435.64
505.576	18644.54
505.779	18871.86
505.982	18955.83
506.185	19435.05
506.387	19416.62
506.59	19584.55
506.793	19881.51
506.996	19729.96
507.198	20485.66
507.401	19981.86
507.604	20303.39
507.807	21112.34
508.009	20917.78
508.212	21081.62
508.415	21292.56
508.617	21505.55
508.82	21741.07
509.022	21661.19
509.225	21911.05
509.428	22232.58
509.63	22625.79
509.833	22728.19
510.035	23244.27
510.238	23164.4
510.44	23465.46
510.643	23498.22
510.845	23709.16
511.048	23473.65
511.25	24118.76
511.453	24497.63
511.655	24856.03
511.858	24587.74
512.06	25171.41
512.262	25116.12
512.465	24976.86
512.667	25427.41
512.87	25718.22
513.072	25904.59
513.274	26256.84
513.477	26637.76
513.679	26576.32
513.881	27286.96
514.084	27581.87
514.286	27491.76
514.488	27364.79
514.69	28417.44
514.893	28057
515.095	28364.2
515.297	28784.03
515.499	28784.03
515.701	28757.41
515.904	29310.36
516.106	29099.42
516.308	29638.03
516.51	30049.67
516.712	30262.66
516.914	30463.36
517.116	30553.48
517.318	30995.84
517.52	30944.64
517.722	31040.89
517.925	31569.27
518.127	31729.01
518.329	31761.78
518.531	31888.75
518.733	32458.09
518.935	32857.44
519.136	32525.67
519.338	33162.59
519.54	32996.7
519.742	33674.58
519.944	33363.29
520.146	33846.61
520.348	33922.38
520.55	34055.5
520.752	34612.55
520.954	35200.32
521.155	34823.49
521.357	35136.83
521.559	35323.19
521.761	35933.49
521.963	35288.38
522.164	35626.29
522.366	35925.3
522.568	36097.33
522.77	36523.3
522.971	36928.8
523.173	36400.43
523.375	37031.2
523.576	36965.67
523.778	36965.67
523.98	37541.14
524.181	37629.21
524.383	37637.4
524.584	38083.86
524.786	38178.06
524.988	37631.26
525.189	38606.09
525.391	38491.4
525.592	38622.47
525.794	38620.42
525.995	38792.45
526.197	38550.79
526.398	39079.17
526.6	39193.86
526.801	38898.95
527.003	39402.75
527.204	39593.21
527.406	39802.1
527.607	39259.39
527.808	39644.41
528.01	39255.29
528.211	39501.05
528.412	40271.09
528.614	40393.96
528.815	40269.04
529.016	40283.37
529.218	40008.95
529.419	40424.68
529.62	40146.16
529.822	40240.37
530.023	40291.57
530.224	40353.01
530.425	40197.36
530.626	40207.6
530.828	40086.77
531.029	40916.2
531.23	40275.18
531.431	40400.11
531.632	40516.84
531.833	40535.27
532.035	40778.98
532.236	40862.95
532.437	40836.33
532.638	40944.87
532.839	40627.43
533.04	40883.43
533.241	40346.86
533.442	41479.39
533.643	41164
533.844	41065.7
534.045	40584.43
534.246	40291.57
534.447	41082.08
534.648	40617.19
534.849	40885.48
535.05	40850.66
535.251	40434.92
535.451	40572.14
535.652	41290.98
535.853	40996.07
536.054	41028.84
536.255	40932.58
536.456	40871.14
536.657	41559.26
536.857	40672.49
537.058	40705.26
537.259	40963.3
537.46	41090.27
537.66	40793.32
537.861	41020.64
538.062	40633.58
538.263	41168.1
538.463	40901.86
538.664	41053.41
538.865	40858.85
539.065	41299.17
539.266	40797.41
539.466	41364.7
539.667	40946.92
539.868	41368.8
540.068	40807.65
540.269	40649.96
540.469	40951.01
540.67	40699.11
540.87	41030.88
541.071	40996.07
541.271	40994.02
541.472	40828.13
541.672	40764.65
541.873	40733.93
542.073	40799.46
542.274	41290.98
542.474	40961.25
542.675	40396.01
542.875	41309.41
543.075	40965.35
543.276	40565.99
543.476	40932.58
543.676	41041.12
543.877	40955.11
544.077	41084.13
544.277	40754.41
544.478	40873.19
544.678	41440.48
544.878	40762.6
545.078	41133.28
545.279	40598.76
545.479	40916.2
545.679	40699.11
545.879	40811.75
546.079	40840.42
546.28	40600.81
546.48	40453.36
546.68	40873.19
546.88	40770.79
547.08	40869.09
547.28	40946.92
547.48	40463.6
547.68	41037.03
547.88	40508.65
548.081	40758.5
548.281	40873.19
548.481	40596.71
548.681	41100.51
548.881	41041.12
549.081	40975.59
549.28	40738.02
549.48	41338.08
549.68	40643.82
549.88	41200.86
550.08	40398.06
550.28	41008.36
550.48	40821.99
550.68	41155.81
550.88	40664.3
551.08	40649.96
551.279	40787.17
551.479	40551.66
551.679	40776.94
551.879	40498.41
552.079	41020.64
552.278	40733.93
552.478	40533.23
552.678	40807.65
552.878	40930.53
553.077	40848.61
553.277	40549.61
553.477	40934.63
553.676	40643.82
553.876	40363.25
554.076	40359.15
554.275	40824.04
554.475	40088.82
554.674	40365.29
554.874	40955.11
555.074	40404.2
555.273	40975.59
555.473	40611.05
555.672	40600.81
555.872	40613.1
556.071	40492.27
556.271	40852.71
556.47	40529.13
556.67	40254.7
556.869	40492.27
557.068	40639.72
557.268	40170.74
557.467	40535.27
557.667	40731.88
557.866	40332.53
558.065	40570.09
558.265	40371.44
558.464	40453.36
558.663	40817.89
558.863	40279.28
559.062	40436.97
559.261	40475.88
559.461	40830.18
559.66	40049.91
559.859	40273.13
560.058	40488.17
560.258	40652.01
560.457	39929.08
560.656	40619.24
560.855	40287.47
561.054	40410.35
561.253	39931.12
561.453	40295.66
561.652	40508.65
561.851	40334.57
562.05	39918.84
562.249	40324.33
562.448	40338.67
562.647	40604.91
562.846	39945.46
563.045	40266.99
563.244	39912.69
563.443	40365.29
563.642	39746.81
563.841	40381.68
564.04	40033.52
564.239	40342.77
564.438	40056.05
564.637	40256.75
564.836	40342.77
565.035	39849.21
565.234	40377.58
565.432	39996.66
565.631	39935.22
565.83	40408.3
566.029	39869.68
566.228	39894.26
566.427	39537.91
566.625	39400.7
566.824	39380.22
567.023	39955.7
567.222	39238.91
567.42	39898.36
567.619	39947.51
567.818	39529.72
568.016	39546.11
568.215	39779.57
568.414	39628.02
568.612	39795.96
568.811	39632.12
569.01	39705.85
569.208	39308.54
569.407	39671.03
569.605	39144.7
569.804	39695.61
570.002	39089.41
570.201	39773.43
570.4	39292.16
570.598	39410.94
570.797	38706.44
570.995	39343.36
571.193	38694.15
571.392	39529.72
571.59	38882.56
571.789	39245.05
571.987	39156.99
572.186	39142.66
572.384	38737.16
572.582	39462.14
572.781	39152.9
572.979	38552.84
573.177	38810.89
573.376	39249.15
573.574	38663.43
573.772	39013.63
573.971	38593.8
574.169	38376.72
574.367	38726.92
574.565	38346
574.763	38413.58
574.962	38591.75
575.16	38452.49
575.358	38511.88
575.556	38292.75
575.754	39027.97
575.952	38163.73
576.151	38302.99
576.349	37877.01
576.547	38155.54
576.745	38196.49
576.943	38259.98
577.141	37905.68
577.339	37905.68
577.537	37571.86
577.735	37987.6
577.933	37651.73
578.131	38008.08
578.329	37371.16
578.527	37303.58
578.725	37690.65
578.923	37850.39
579.121	37627.16
579.319	37266.72
579.516	37543.19
579.714	37510.42
579.912	37076.26
580.11	37125.41
580.308	37213.47
580.506	37035.3
580.704	36764.96
580.901	37256.48
581.099	37405.98
581.297	36818.21
581.495	36879.65
581.692	37129.5
581.89	36887.84
582.088	36678.95
582.285	36158.77
582.483	36883.75
582.681	37035.3
582.878	36807.97
583.076	36769.06
583.274	36814.12
583.471	36082.99
583.669	36457.77
583.866	35992.88
584.064	36359.47
584.262	35945.78
584.459	36269.36
584.657	35855.67
584.854	36398.38
585.052	35624.25
585.249	36076.85
585.447	36134.19
585.644	35247.42
585.841	35829.04
586.039	36123.95
586.236	35724.6
586.434	35525.94
586.631	35417.4
586.828	35468.6
587.026	35296.57
587.223	35505.46
587.42	35167.55
587.618	35409.21
587.815	35091.77
588.012	35177.79
588.21	34702.66
588.407	35640.63
588.604	34929.98
588.801	34721.09
588.999	35190.08
589.196	34747.72
589.393	34766.15
589.59	34690.37
589.787	34786.63
589.984	34397.51
590.182	34200.91
590.379	34645.32
590.576	34360.65
590.773	34422.09
590.97	34205
591.167	34747.72
591.364	33619.28
591.561	34374.98
591.758	33992.01
591.955	33828.18
592.152	34073.93
592.349	33666.39
592.546	33955.15
592.743	33877.33
592.94	33301.85
593.137	33781.07
593.334	33797.46
593.531	33385.82
593.727	33660.24
593.924	33588.56
594.121	33117.53
594.318	33381.72
594.515	32701.79
594.712	33549.65
594.908	33170.78
595.105	33199.45
595.302	32908.64
595.499	33015.13
595.696	33191.26
595.892	32779.62
596.089	33211.74
596.286	33090.91
596.482	32873.82
596.679	32937.31
596.876	32193.9
597.072	32062.83
597.269	32363.88
597.466	32249.19
597.662	32388.46
597.859	32089.45
598.055	32232.81
598.252	31841.65
598.448	32173.42
598.645	31833.46
598.841	31774.06
599.038	32152.94
599.234	32312.68
599.431	31874.41
599.627	31634.8
599.824	32071.02
600.02	31571.32
600.217	32165.23
600.413	31718.77
600.609	31618.42
600.806	31731.06
601.002	31393.14
601.198	31266.17
601.395	31473.01
601.591	31530.36
601.787	31583.6
601.984	31284.6
602.18	31501.68
602.376	31346.04
602.572	31264.12
602.769	31268.22
602.965	30586.24
603.161	31229.3
603.357	30883.2
603.553	30864.77
603.75	31151.48
603.946	30688.64
604.142	30856.57
604.338	30852.48
604.534	30936.45
604.73	30485.89
604.926	30518.66
605.122	30702.98
605.318	30389.64
605.514	30635.39
605.71	30352.77
605.906	30371.21
606.102	30629.25
606.298	30553.48
606.494	30248.33
606.69	30483.84
606.886	30084.49
607.082	30037.39
607.278	30389.64
607.474	29922.7
607.67	30283.14
607.866	29674.9
608.062	30158.22
608.257	29906.32
608.453	30170.5
608.649	29705.62
608.845	29668.75
609.041	30004.62
609.236	29914.51
609.432	29785.49
609.628	29719.95
609.824	29851.02
610.019	29404.56
610.215	29779.34
610.411	30240.14
610.606	29574.55
610.802	29613.46
610.998	29611.41
611.193	29803.92
611.389	29447.57
611.584	29445.52
611.78	29154.71
611.976	29699.47
612.171	29554.07
612.367	29576.59
612.562	29173.14
612.758	29093.27
612.953	29293.97
613.149	29549.97
613.344	28863.9
613.539	29556.11
613.735	29519.25
613.93	29586.83
614.126	29250.97
614.321	29404.56
614.517	29052.31
614.712	28925.34
614.907	28714.4
615.103	29283.73
615.298	29083.03
615.493	28949.92
615.688	28702.11
615.884	29214.1
616.079	28618.14
616.274	28728.73
616.47	28902.81
616.665	28515.75
616.86	28667.3
617.055	28577.19
617.25	28300.71
617.445	28902.81
617.641	28097.96
617.836	28831.13
618.031	28378.53
618.226	28577.19
618.421	28362.15
618.616	28718.5
618.811	27815.34
619.006	28095.91
619.201	27633.07
619.396	27817.39
619.591	27561.39
619.786	27635.12
619.981	27315.64
620.176	27616.69
620.371	27035.06
620.566	27403.7
620.761	26983.87
620.956	27432.37
621.151	26762.68
621.346	27286.96
621.541	26721.73
621.735	26856.89
621.93	26363.33
622.125	26594.75
622.32	26156.49
622.515	26303.94
622.709	26103.24
622.904	26172.87
623.099	25638.35
623.294	25753.04
623.488	25494.99
623.683	25630.16
623.878	25386.45
624.072	25255.38
624.267	25230.8
624.462	24937.94
624.656	25171.41
624.851	25013.72
625.046	24956.38
625.24	24851.93
625.435	24620.51
625.629	24544.73
625.824	24434.14
626.018	24262.12
626.213	23547.37
626.407	24118.76
626.602	23715.31
626.796	23961.06
626.991	23694.83
627.185	23504.37
627.38	23277.04
627.574	23543.28
627.768	23225.84
627.963	23037.43
628.157	22812.15
628.352	22674.94
628.546	22576.64
628.74	23004.66
628.935	22576.64
629.129	22662.65
629.323	22226.43
629.517	22091.27
629.712	22193.67
629.906	22138.37
630.1	21569.04
630.294	21814.79
630.489	21425.68
630.683	21675.53
630.877	21351.95
631.071	21423.63
631.265	21911.05
631.459	21290.51
631.653	21147.15
631.848	21136.91
632.042	20954.65
632.236	20952.6
632.43	20631.07
632.624	20938.26
632.818	20471.32
633.012	20483.61
633.206	20157.99
633.4	20534.81
633.594	19887.65
633.788	20260.38
633.982	19969.57
634.176	19957.28
634.369	19738.15
634.563	19652.14
634.757	19539.5
634.951	19525.16
635.145	19602.99
635.339	19248.69
635.533	19105.33
635.726	19080.75
635.92	19052.08
636.114	18630.2
636.308	18814.52
636.501	18791.99
636.695	18488.89
636.889	18286.14
637.083	18271.81
637.276	18478.65
637.47	18083.39
637.664	18044.48
637.857	17837.64
638.051	17970.76
638.244	17821.25
638.438	17534.54
638.632	17399.37
638.825	17499.72
639.019	17608.26
639.212	17071.7
639.406	17170
639.599	16979.54
639.793	16883.28
639.986	16834.13
640.18	16774.74
640.373	16787.03
640.567	16447.07
640.76	16830.04
640.954	16457.31
641.147	16135.78
641.34	16528.99
641.534	16084.58
641.727	16016.99
641.92	16229.98
642.114	16111.2
642.307	15677.03
642.5	15666.79
642.694	15418.99
642.887	15605.35
643.08	15672.93
643.273	15466.09
643.467	15193.71
643.66	14933.62
643.853	14945.91
644.046	15027.82
644.239	15027.82
644.432	14816.88
644.626	14745.2
644.819	14556.79
645.012	14423.67
645.205	14341.75
645.398	14347.9
645.591	14132.86
645.784	14048.89
645.977	13952.64
646.17	14108.29
646.363	13934.21
646.556	13825.67
646.749	13751.94
646.942	13825.67
647.135	13696.64
647.328	13196.94
647.521	13500.04
647.714	13184.65
647.907	13225.61
648.099	13133.45
648.292	12936.85
648.485	12889.74
648.678	13033.1
648.871	12707.48
649.064	12760.72
649.256	12713.62
649.449	12691.09
649.642	12576.41
649.835	12469.91
650.027	12424.86
650.22	12383.9
650.413	12306.07
650.605	12476.05
650.798	12228.25
650.991	12017.31
651.183	12029.6
651.376	11845.28
651.568	11959.97
651.761	11785.89
651.954	11929.25
652.146	11759.27
652.339	11511.46
652.531	11394.73
652.724	11421.35
652.916	11329.19
653.109	11302.57
653.301	11325.1
653.494	11222.7
653.686	11024.05
653.879	11423.4
654.071	10999.47
654.263	11038.38
654.456	10774.19
654.648	10907.31
654.84	10884.78
655.033	10612.4
655.225	10628.79
655.417	10759.86
655.61	10503.86
655.802	10536.63
655.994	10452.66
656.186	10614.45
656.379	10309.3
656.571	10161.85
656.763	10157.75
656.955	9965.25
657.148	10118.84
657.34	9879.23
657.532	9746.11
657.724	9828.03
657.916	9772.74
658.108	9803.46
658.3	9602.75
658.492	9760.45
658.684	9518.79
658.876	9465.54
659.068	9567.94
659.26	9455.3
659.452	9318.09
659.644	9217.74
659.836	9522.88
660.028	9420.49
660.22	8947.4
660.412	9162.44
660.604	9004.75
660.796	8804.05
660.988	8842.96
661.18	8769.23
661.372	8806.09
661.563	8830.67
661.755	8599.25
661.947	8525.52
662.139	8339.16
662.331	8490.71
662.522	8298.2
662.714	8429.27
662.906	8187.61
663.097	8423.12
663.289	8191.7
663.481	8083.16
663.673	8120.03
663.864	8107.74
664.056	7917.28
664.247	8187.61
664.439	7886.56
664.631	7833.31
664.822	7890.65
665.014	7927.52
665.205	7825.12
665.397	7745.25
665.588	7624.42
665.78	7548.64
665.971	7755.49
666.163	7558.88
666.354	7366.37
666.546	7454.44
666.737	7378.66
666.929	7313.13
667.12	7481.06
667.311	7372.52
667.503	7442.15
667.694	7106.28
667.885	7245.54
668.077	7208.68
668.268	6938.35
668.459	7124.71
668.651	7057.13
668.842	6878.96
669.033	6856.43
669.224	7085.8
669.416	6864.62
669.607	6862.57
669.798	6817.52
669.989	6919.92
670.18	6743.79
670.371	6842.09
670.563	6676.21
670.754	6954.73
670.945	6614.77
671.136	6756.08
671.327	6700.78
671.518	6719.21
671.709	6481.65
671.9	6657.78
672.091	6713.07
672.282	6498.03
672.473	6430.45
672.664	6487.79
672.855	6377.2
673.046	6326
673.237	6504.18
673.428	6352.63
673.619	6344.44
673.809	6139.64
674	6321.91
674.191	6250.23
674.382	6256.37
674.573	6096.63
674.764	6211.32
674.954	6412.02
675.145	6006.52
675.336	6018.81
675.527	6264.57
675.717	6131.45
675.908	6149.88
676.099	5992.19
676.289	6065.91
676.48	5943.03
676.671	5846.78
676.861	6016.76
677.052	5854.97
677.243	5957.37
677.433	5824.25
677.624	5891.84
677.814	5963.51
678.005	5918.46
678.195	5945.08
678.386	5824.25
678.576	5711.61
678.767	5793.53
678.957	5965.56
679.148	5908.22
679.338	5697.28
679.529	5697.28
679.719	5654.27
679.909	5760.77
680.1	5840.64
680.29	5818.11
680.481	5639.94
680.671	5832.44
680.861	5670.65
681.052	5779.2
681.242	5545.73
681.432	5713.66
681.622	5541.63
681.813	5635.84
682.003	5596.93
682.193	5672.7
682.383	5560.06
682.573	5617.41
682.764	5613.31
682.954	5592.83
683.144	5625.6
683.334	5603.07
683.524	5457.67
683.714	5562.11
683.904	5580.54
684.094	5488.39
684.284	5631.74
684.474	5576.45
684.664	5492.48
684.854	5553.92
685.044	5607.17
685.234	5381.89
685.424	5400.32
685.614	5291.78
685.804	5467.91
685.994	5420.8
686.184	5213.96
686.374	5467.91
686.564	5367.56
686.753	5412.61
686.943	5170.95
687.133	5308.16
687.323	5316.36
687.513	5459.71
687.702	5263.11
687.892	5357.32
688.082	5132.04
688.272	5404.42
688.461	5302.02
688.651	5336.84
688.841	5197.57
689.03	5353.22
689.22	5158.66
689.41	5134.09
689.599	5093.13
689.789	5410.56
689.979	5283.59
690.168	5254.92
690.358	5228.29
690.547	5277.44
690.737	5199.62
690.926	5275.4
691.116	5054.22
691.305	5234.44
691.495	5138.18
691.684	5043.98
691.874	4988.68
692.063	5168.9
692.252	5211.91
692.442	5138.18
692.631	4982.54
692.82	5289.73
693.01	4974.35
693.199	5168.9
693.388	5140.23
693.578	5064.46
693.767	5191.43
693.956	5095.18
694.146	5080.84
694.335	4939.53
694.524	5162.76
694.713	5297.92
694.902	5121.8
695.092	5203.72
695.281	5129.99
695.47	5195.53
695.659	5037.83
695.848	5154.57
696.037	5117.7
696.226	5330.69
696.415	5142.28
696.604	5216.01
696.793	5189.38
696.982	5203.72
697.171	5207.81
697.36	5330.69
697.549	5207.81
697.738	5236.49
697.927	5228.29
698.116	5275.4
698.305	5365.51
698.494	5283.59
698.683	5142.28
698.872	5361.41
699.061	5379.84
699.25	5107.46
699.438	5306.12
699.627	5332.74
699.816	5330.69
700.005	5129.99
700.193	5297.92
700.382	5396.23
700.571	5463.81
700.76	5476.1
700.948	5504.77
701.137	5402.37
701.326	5355.27
701.514	5453.57
701.703	5512.96
701.892	5373.7
702.08	5519.11
702.269	5400.32
702.457	5306.12
702.646	5476.1
702.834	5445.38
703.023	5498.63
703.212	5443.33
703.4	5488.39
703.589	5410.56
703.777	5555.97
703.965	5273.35
704.154	5394.18
704.342	5375.75
704.531	5564.16
704.719	5381.89
704.907	5469.95
705.096	5256.97
705.284	5424.9
705.472	5467.91
705.661	5365.51
705.849	5523.2
706.037	5472
706.226	5297.92
706.414	5306.12
706.602	5162.76
706.79	5293.83
706.979	5287.68
707.167	5418.75
707.355	5242.63
707.543	5320.45
707.731	5498.63
707.919	5445.38
708.107	5238.53
708.296	5388.04
708.484	5183.24
708.672	5349.12
708.86	5347.08
709.048	5308.16
709.236	5158.66
709.424	5377.8
709.612	5240.58
709.8	5211.91
709.988	5197.57
710.176	5322.5
710.364	5314.31
710.551	5269.25
710.739	5134.09
710.927	5193.48
711.115	5228.29
711.303	5369.6
711.491	5232.39
711.679	5259.01
711.866	5222.15
712.054	5271.3
712.242	5115.66
712.43	5400.32
712.617	5345.03
712.805	5093.13
712.993	5269.25
713.181	5211.91
713.368	5267.2
713.556	5201.67
713.744	5119.75
713.931	5289.73
714.119	5056.26
714.306	5072.65
714.494	5060.36
714.682	4986.63
714.869	5009.16
715.057	5117.7
715.244	5109.51
715.432	5111.56
715.619	5207.81
715.807	4968.2
715.994	4990.73
716.182	4972.3
716.369	5021.45
716.556	5181.19
716.744	5043.98
716.931	4962.06
717.119	5019.4
717.306	5158.66
717.493	4833.04
717.681	4929.29
717.868	5007.11
718.055	5033.74
718.242	4962.06
718.43	4904.71
718.617	4896.52
718.804	4847.37
718.991	4855.56
719.179	5039.88
719.366	4945.67
719.553	4964.11
719.74	4624.14
719.927	4781.84
720.114	4845.32
720.301	4779.79
720.488	4744.97
720.676	4919.05
720.863	4873.99
721.05	4865.8
721.237	4744.97
721.424	4740.88
721.611	4785.93
721.798	4728.59
721.985	4755.21
722.172	4769.55
722.358	4577.04
722.545	4681.49
722.732	4638.48
722.919	4693.77
723.106	4658.96
723.293	4699.92
723.48	4652.81
723.667	4583.18
723.853	4577.04
724.04	4638.48
724.227	4548.37
724.414	4630.29
724.6	4656.91
724.787	4605.71
724.974	4589.33
725.161	4554.51
725.347	4542.22
725.534	4632.33
725.72	4468.5
725.907	4511.5
726.094	4462.35
726.28	4474.64
726.467	4566.8
726.653	4392.72
726.84	4343.57
727.027	4491.02
727.213	4294.42
727.4	4519.7
727.586	4343.57
727.773	4476.69
727.959	4337.43
728.145	4402.96
728.332	4171.54
728.518	4192.02
728.705	4280.08
728.891	4366.1
729.077	4232.98
729.264	4345.62
729.45	4192.02
729.636	4355.86
729.823	4296.47
730.009	4286.23
730.195	4357.91
730.382	4204.31
730.568	4173.59
730.754	4230.93
730.94	4142.87
731.126	4169.49
731.313	4249.36
731.499	4124.44
731.685	4237.08
731.871	4151.06
732.057	4144.92
732.243	4054.81
732.429	4138.77
732.615	4026.14
732.801	4149.01
732.987	4093.72
733.173	4167.45
733.359	3991.32
733.545	4042.52
733.731	4003.61
733.917	3931.93
734.103	4091.67
734.289	3952.41
734.475	4108.05
734.661	4110.1
734.847	3886.87
735.033	3942.17
735.219	3868.44
735.404	4040.47
735.59	3796.76
735.776	3907.35
735.962	3852.06
736.148	3899.16
736.333	3864.35
736.519	3772.19
736.705	3780.38
736.89	3864.35
737.076	3698.46
737.262	3888.92
737.447	3766.04
737.633	3684.13
737.819	3794.72
738.004	3596.06
738.19	3749.66
738.375	3684.13
738.561	3944.22
738.747	3671.84
738.932	3677.98
739.118	3698.46
739.303	3774.24
739.489	3643.17
739.674	3657.5
739.859	3692.32
740.045	3489.57
740.23	3563.29
740.416	3524.38
740.601	3493.66
740.786	3473.18
740.972	3362.59
741.157	3561.25
741.342	3467.04
741.528	3374.88
741.713	3389.22
741.898	3483.42
742.084	3403.55
742.269	3387.17
742.454	3424.03
742.639	3434.27
742.824	3362.59
743.01	3401.51
743.195	3378.98
743.38	3252
743.565	3241.76
743.75	3301.15
743.935	3321.63
744.12	3426.08
744.305	3209
744.49	3176.23
744.675	3145.51
744.86	3149.61
745.045	3170.08
745.23	3184.42
745.415	3051.3
745.6	3108.65
745.785	3180.32
745.97	3108.65
746.155	3041.06
746.34	3008.3
746.525	3043.11
746.71	3051.3
746.895	2811.69
747.079	2926.38
747.264	2977.58
747.449	2889.51
747.634	2848.55
747.819	2983.72
748.003	2862.89
748.188	2848.55
748.373	2934.57
748.557	2789.16
748.742	2733.87
748.927	2811.69
749.111	2746.16
749.296	2649.9
749.481	2729.77
749.665	2727.72
749.85	2555.69
750.034	2686.76
750.219	2617.13
750.404	2531.12
750.588	2639.66
750.773	2502.45
750.957	2469.68
751.141	2494.26
751.326	2572.08
751.51	2469.68
751.695	2451.25
751.879	2430.77
752.064	2449.2
752.248	2404.14
752.432	2481.97
752.617	2457.39
752.801	2481.97
752.985	2484.02
753.17	2522.93
753.354	2428.72
753.538	2398
753.722	2246.45
753.907	2383.66
754.091	2289.46
754.275	2244.4
754.459	2244.4
754.643	2096.95
754.828	2307.89
755.012	2311.99
755.196	2131.76
755.38	2283.31
755.564	2232.12
755.748	2219.83
755.932	2144.05
756.116	2146.1
756.3	2152.24
756.484	2094.9
756.668	2094.9
756.852	1947.45
757.036	2064.18
757.22	2055.99
757.404	2012.98
757.588	1992.5
757.772	2053.94
757.956	2099
758.14	1988.41
758.323	1855.29
758.507	1929.02
758.691	1830.71
758.875	1996.6
759.059	2047.8
759.242	1922.87
759.426	1836.86
759.61	1830.71
759.794	1793.85
759.977	1984.31
760.161	1955.64
760.345	1812.28
760.528	1904.44
760.712	1828.67
760.895	1861.43
761.079	1799.99
761.263	1754.94
761.446	1687.36
761.63	1732.41
761.813	1777.47
761.997	1791.8
762.18	1740.6
762.364	1718.08
762.547	1724.22
762.731	1726.27
762.914	1734.46
763.098	1578.81
763.281	1687.36
763.464	1763.13
763.648	1658.68
763.831	1716.03
764.015	1601.34
764.198	1734.46
764.381	1593.15
764.564	1564.48
764.748	1564.48
764.931	1748.79
765.114	1601.34
765.297	1607.48
765.481	1554.24
765.664	1638.2
765.847	1576.77
766.03	1625.92
766.213	1564.48
766.397	1552.19
766.58	1525.57
766.763	1539.9
766.946	1525.57
767.129	1515.33
767.312	1498.94
767.495	1591.1
767.678	1525.57
767.861	1539.9
768.044	1554.24
768.227	1410.88
768.41	1453.89
768.593	1496.89
768.776	1521.47
768.959	1464.13
769.142	1527.61
769.324	1480.51
769.507	1472.32
769.69	1306.43
769.873	1427.26
770.056	1568.57
770.239	1429.31
770.421	1584.96
770.604	1519.42
770.787	1451.84
770.97	1433.41
771.152	1400.64
771.335	1400.64
771.518	1412.93
771.7	1443.65
771.883	1402.69
772.066	1347.39
772.248	1322.82
772.431	1396.54
772.613	1290.05
772.796	1376.06
772.978	1419.07
773.161	1421.12
773.343	1335.1
773.526	1288
773.708	1296.19
773.891	1300.29
774.073	1304.39
774.256	1357.63
774.438	1267.52
774.621	1283.91
774.803	1238.85
774.985	1179.46
775.168	1228.61
775.35	1199.94
775.532	1304.39
775.715	1191.75
775.897	1185.6
776.079	1226.56
776.261	1226.56
776.444	1167.17
776.626	1212.23
776.808	1218.37
776.99	1173.32
777.173	1187.65
777.355	1101.64
777.537	1189.7
777.719	1105.73
777.901	1099.59
778.083	1099.59
778.265	1097.54
778.447	1089.35
778.629	1062.73
778.811	1064.77
778.993	1058.63
779.175	1046.34
779.357	1021.77
779.539	989
779.721	1052.49
779.903	1009.48
780.085	1109.83
780.267	1052.49
780.449	1042.25
780.631	1081.16
780.812	1138.5
780.994	1091.4
781.176	976.71
781.358	1136.45
781.54	892.74
781.721	1032.01
781.903	962.37
782.085	894.79
782.267	1056.58
782.448	896.84
782.63	821.06
782.812	964.42
782.993	948.04
783.175	888.65
783.357	841.54
783.538	886.6
783.72	864.07
783.901	937.8
784.083	857.93
784.264	839.5
784.446	733
784.627	753.48
784.809	862.02
784.99	683.85
785.172	823.11
785.353	753.48
785.535	843.59
785.716	831.3
785.897	735.05
786.079	749.39
786.26	702.28
786.441	700.23
786.623	687.95
786.804	735.05
786.985	786.25
787.167	778.06
787.348	642.89
787.529	636.75
787.71	847.69
787.891	782.15
788.073	773.96
788.254	675.66
788.435	704.33
788.616	712.52
788.797	628.56
788.978	665.42
789.159	593.74
789.34	730.95
789.522	620.36
789.703	689.99
789.884	673.61
790.065	708.43
790.246	751.43
790.427	679.75
790.607	624.46
790.788	671.56
790.969	560.97
791.15	636.75
791.331	542.54
791.512	642.89
791.693	513.87
791.874	651.08
792.054	677.71
792.235	606.03
792.416	538.45
792.597	522.06
792.778	513.87
792.958	548.68
793.139	528.21
793.32	552.78
793.5	429.9
793.681	575.31
793.862	550.73
794.042	532.3
794.223	339.79
794.404	511.82
794.584	462.67
794.765	517.97
794.945	513.87
795.126	534.35
795.306	595.79
795.487	544.59
795.667	487.25
795.848	575.31
796.028	481.1
796.209	487.25
796.389	571.21
796.57	454.48
796.75	405.33
796.93	552.78
797.111	425.81
797.291	421.71
797.471	493.39
797.652	460.62
797.832	477.01
798.012	364.37
798.192	452.43
798.373	397.14
798.553	460.62
798.733	458.57
798.913	468.81
799.093	479.05
799.274	466.77
799.454	472.91
799.634	454.48
799.814	483.15
799.994	522.06
800.174	431.95
800.354	427.85
800.534	397.14
800.714	487.25
800.894	427.85
801.074	315.22
801.254	438.09
801.434	413.52
801.614	323.41
801.794	323.41
801.974	1408.83
802.154	368.46
802.334	472.91
802.514	393.04
802.693	452.43
802.873	350.03
803.053	403.28
803.233	450.38
803.413	315.22
803.592	399.18
803.772	333.65
803.952	479.05
804.131	423.76
804.311	472.91
804.491	472.91
804.67	378.7
804.85	264.02
805.03	448.33
805.209	397.14
805.389	395.09
805.568	335.7
805.748	345.94
805.928	421.71
806.107	327.5
806.287	298.83
806.466	335.7
806.646	216.91
806.825	339.79
807.004	282.45
807.184	339.79
807.363	366.42
807.543	302.93
807.722	255.83
807.901	378.7
808.081	386.9
808.26	221.01
808.439	323.41
808.619	298.83
808.798	311.12
808.977	333.65
809.156	317.26
809.336	311.12
809.515	319.31
809.694	319.31
809.873	268.11
810.052	225.11
810.231	317.26
810.411	341.84
810.59	294.74
810.769	309.07
810.948	270.16
811.127	241.49
811.306	270.16
811.485	251.73
811.664	364.37
811.843	268.11
812.022	294.74
812.201	311.12
812.38	255.83
812.559	208.72
812.737	290.64
812.916	161.62
813.095	218.96
813.274	247.63
813.453	323.41
813.632	331.6
813.811	294.74
813.989	233.3
814.168	270.16
814.347	288.59
814.526	259.92
814.704	274.26
814.883	321.36
815.062	245.59
815.24	253.78
815.419	194.39
815.598	249.68
815.776	132.95
815.955	202.58
816.133	132.95
816.312	261.97
816.49	198.48
816.669	323.41
816.847	223.06
817.026	227.15
817.204	270.16
817.383	208.72
817.561	178
817.74	178
817.918	251.73
818.097	163.67
818.275	196.43
818.453	268.11
818.632	300.88
818.81	188.24
818.988	245.59
819.167	192.34
819.345	196.43
819.523	208.72
819.701	173.91
819.879	259.92
820.058	132.95
820.236	257.87
820.414	214.87
820.592	200.53
820.77	227.15
820.948	190.29
821.127	194.39
821.305	188.24
821.483	178
821.661	212.82
821.839	208.72
822.017	233.3
822.195	184.15
822.373	192.34
822.551	173.91
822.729	266.07
822.907	114.52
823.085	186.19
823.262	274.26
823.44	167.76
823.618	171.86
823.796	186.19
823.974	163.67
824.152	69.46
824.329	130.9
824.507	110.42
824.685	223.06
824.863	106.32
825.04	182.1
825.218	184.15
825.396	126.8
825.574	147.28
825.751	206.67
825.929	182.1
826.107	81.75
826.284	184.15
826.462	186.19
826.639	135
826.817	83.8
826.994	223.06
827.172	104.28
827.349	208.72
827.527	175.95
827.704	198.48
827.882	165.71
828.059	190.29
828.237	128.85
828.414	87.89
828.591	87.89
828.769	218.96
828.946	128.85
829.124	161.62
829.301	253.78
829.478	145.24
829.655	184.15
829.833	173.91
830.01	100.18
830.187	106.32
830.364	124.76
830.542	202.58
830.719	212.82
830.896	190.29
831.073	147.28
831.25	118.61
831.427	155.47
831.604	169.81
831.782	100.18
831.959	126.8
832.136	71.51
832.313	77.65
832.49	120.66
832.667	132.95
832.844	94.04
833.021	175.95
833.198	112.47
833.374	159.57
833.551	98.13
833.728	14.17
833.905	157.52
834.082	167.76
834.259	112.47
834.436	153.43
834.612	157.52
834.789	167.76
834.966	126.8
835.143	130.9
835.319	40.79
835.496	145.24
835.673	143.19
835.85	178
836.026	151.38
836.203	96.08
836.38	106.32
836.556	79.7
836.733	137.04
836.909	204.63
837.086	163.67
837.262	155.47
837.439	100.18
837.616	65.36
837.792	55.12
837.968	126.8
838.145	42.84
838.321	159.57
838.498	118.61
838.674	178
838.851	141.14
839.027	89.94
839.203	102.23
839.38	69.46
839.556	40.79
839.732	165.71
839.909	91.99
840.085	155.47
840.261	36.69
840.437	67.41
840.614	67.41
840.79	132.95
840.966	63.32
841.142	116.56
841.318	89.94
841.494	139.09
841.671	145.24
841.847	57.17
842.023	42.84
842.199	112.47
842.375	102.23
842.551	53.08
842.727	61.27
842.903	223.06
843.079	75.6
843.255	104.28
843.431	67.41
843.607	3.93
843.783	20.31
843.959	112.47
844.134	81.75
844.31	83.8
844.486	98.13
844.662	32.6
844.838	46.93
845.013	87.89
845.189	102.23
845.365	165.71
845.541	89.94
845.716	110.42
845.892	130.9
846.068	16.21
846.244	91.99
846.419	98.13
846.595	51.03
846.77	42.84
846.946	126.8
847.122	-6.31
847.297	141.14
847.473	173.91
847.648	67.41
847.824	81.75
847.999	3.93
848.175	34.64
848.35	114.52
848.526	153.43
848.701	114.52
848.876	149.33
849.052	104.28
849.227	-4.27
849.403	87.89
849.578	30.55
849.753	94.04
849.929	108.37
850.104	-18.6
850.279	106.32
850.454	75.6
850.63	75.6
850.805	104.28
850.98	69.46
851.155	77.65
851.33	12.12
851.505	-8.36
851.681	89.94
851.856	16.21
852.031	87.89
852.206	67.41
852.381	51.03
852.556	42.84
852.731	12.12
852.906	137.04
853.081	10.07
853.256	132.95
853.431	42.84
853.606	-18.6
853.781	26.45
853.956	42.84
854.131	79.7
854.305	32.6
854.48	14.17
854.655	-32.94
854.83	28.5
855.005	46.93
855.18	65.36
855.354	75.6
855.529	44.88
855.704	89.94
855.879	79.7
856.053	59.22
856.228	53.08
856.403	30.55
856.577	85.84
856.752	18.26
856.926	71.51
857.101	79.7
857.276	63.32
857.45	32.6
857.625	59.22
857.799	69.46
857.974	-0.17
858.148	5.97
858.323	36.69
858.497	20.31
858.672	28.5
858.846	18.26
859.02	81.75
859.195	-4.27
859.369	67.41
859.543	42.84
859.718	73.56
859.892	24.4
860.066	22.36
860.241	-0.17
860.415	-39.08
860.589	77.65
860.763	24.4
860.938	28.5
861.112	-2.22
861.286	36.69
861.46	120.66
861.634	22.36
861.808	-4.27
861.982	28.5
862.157	-18.6
862.331	18.26
862.505	-65.71
862.679	-20.65
862.853	-4.27
863.027	71.51
863.201	114.52
863.375	67.41
863.549	91.99
863.722	77.65
863.896	171.86
864.07	36.69
864.244	51.03
864.418	94.04
864.592	16.21
864.766	10.07
864.939	16.21
865.113	14.17
865.287	157.52
865.461	40.79
865.634	63.32
865.808	73.56
865.982	26.45
866.156	46.93
866.329	32.6
866.503	-14.51
866.676	132.95
866.85	96.08
867.024	-12.46
867.197	32.6
867.371	102.23
867.544	-2.22
867.718	-73.9
867.891	61.27
868.065	-53.42
868.238	1.88
868.412	89.94
868.585	104.28
868.759	1.88
868.932	-2.22
869.105	-24.75
869.279	-51.37
869.452	59.22
869.625	61.27
869.799	3.93
869.972	-32.94
870.145	40.79
870.319	81.75
870.492	-24.75
870.665	67.41
870.838	12.12
871.011	-45.23
871.185	-2.22
871.358	26.45
871.531	81.75
871.704	-18.6
871.877	102.23
872.05	-63.66
872.223	-57.51
872.396	-0.17
872.569	75.6
872.742	-41.13
872.915	-2.22
873.088	5.97
873.261	-24.75
873.434	91.99
873.607	-24.75
873.78	63.32
873.953	-8.36
874.126	-34.99
874.299	-26.79
874.471	22.36
874.644	59.22
874.817	87.89
874.99	79.7
875.163	-18.6
875.335	51.03
875.508	-12.46
875.681	61.27
875.853	40.79
876.026	-10.41
876.199	24.4
876.371	3.93
876.544	-4.27
876.717	28.5
876.889	38.74
877.062	1.88
877.234	-0.17
877.407	-57.51
877.579	32.6
877.752	46.93
877.924	104.28
878.097	87.89
878.269	-2.22
878.442	57.17
878.614	57.17
878.786	28.5
878.959	18.26
879.131	-4.27
879.303	-45.23
879.476	48.98
879.648	96.08
879.82	10.07
879.993	-63.66
880.165	-6.31
880.337	-88.23
880.509	24.4
880.681	-98.47
880.854	46.93
881.026	73.56
881.198	128.85
881.37	8.02
881.542	-45.23
881.714	-34.99
881.886	-18.6
882.058	42.84
882.23	-57.51
882.402	63.32
882.574	63.32
882.746	85.84
882.918	114.52
883.09	10.07
883.262	-6.31
883.434	14.17
883.606	-69.8
883.778	34.64
883.95	20.31
884.122	30.55
884.293	30.55
884.465	51.03
884.637	69.46
884.809	38.74
884.98	85.84
885.152	-12.46
885.324	-20.65
885.496	-104.62
885.667	12.12
885.839	14.17
886.011	16.21
886.182	79.7
886.354	42.84
886.525	-49.32
886.697	46.93
886.869	30.55
887.04	8.02
887.212	173.91
887.383	69.46
887.555	22.36
887.726	28.5
887.897	-53.42
888.069	-16.55
888.24	40.79
888.412	36.69
888.583	63.32
888.754	-16.55
888.926	-110.76
889.097	1.88
889.268	-61.61
889.44	-71.85
889.611	-47.27
889.782	14.17
889.953	-43.18
890.125	48.98
890.296	-24.75
890.467	16.21
890.638	-20.65
890.809	-4.27
890.98	-20.65
891.151	59.22
891.323	55.12
891.494	-71.85
891.665	-0.17
891.836	18.26
892.007	77.65
892.178	83.8
892.349	-14.51
892.52	57.17
892.691	-22.7
892.862	-4.27
893.032	-137.38
893.203	26.45
893.374	42.84
893.545	120.66
893.716	-43.18
893.887	30.55
894.057	-41.13
894.228	-30.89
894.399	-104.62
894.57	26.45
894.74	36.69
894.911	38.74
895.082	38.74
895.253	26.45
895.423	24.4
895.594	30.55
895.764	-2.22
895.935	-82.09
896.106	48.98
896.276	-24.75
896.447	53.08
896.617	-14.51
896.788	-82.09
896.958	30.55
897.129	57.17
897.299	-0.17
897.47	-8.36
897.64	8.02
897.81	40.79
897.981	-10.41
898.151	36.69
898.322	8.02
898.492	71.51
898.662	26.45
898.832	18.26
899.003	8.02
899.173	-34.99
899.343	-2.22
899.513	-51.37
