Data from USB4F104151__66__12-12-32-003.txt Node

Date: Fri Mar 14 12:12:32 EDT 2025
User: louis
Spectrometer: USB4F10415
Trigger mode: 4
Integration Time (sec): 5.000000E-2
Scans to average: 1
Electric dark correction enabled: true
Nonlinearity correction enabled: false
Boxcar width: 0
XAxis mode: Wavelengths
Number of Pixels in Spectrum: 3648
>>>>>Begin Spectral Data<<<<<
178.204	-262.31
178.424	-262.31
178.644	-262.31
178.864	-284.84
179.084	-129.19
179.304	-59.56
179.524	-8.36
179.744	16.21
179.964	24.4
180.184	16.21
180.404	98.13
180.624	51.03
180.844	1.88
181.064	-82.09
181.283	3.93
181.503	-90.28
181.723	28.5
181.943	-39.08
182.163	94.04
182.383	-43.18
182.602	36.69
182.822	28.5
183.042	98.13
183.262	-24.75
183.482	79.7
183.701	-16.55
183.921	20.31
184.141	75.6
184.361	89.94
184.58	-12.46
184.8	-22.7
185.02	98.13
185.239	112.47
185.459	40.79
185.679	69.46
185.898	1.88
186.118	75.6
186.338	28.5
186.557	163.67
186.777	-0.17
186.997	89.94
187.216	40.79
187.436	194.39
187.655	34.64
187.875	104.28
188.095	1.88
188.314	102.23
188.534	102.23
188.753	-24.75
188.973	48.98
189.192	128.85
189.412	24.4
189.631	26.45
189.851	126.8
190.07	110.42
190.29	75.6
190.509	3.93
190.729	-39.08
190.948	83.8
191.168	159.57
191.387	30.55
191.607	16.21
191.826	118.61
192.045	36.69
192.265	67.41
192.484	69.46
192.704	26.45
192.923	-65.71
193.142	51.03
193.362	16.21
193.581	83.8
193.8	12.12
194.02	130.9
194.239	96.08
194.458	34.64
194.678	-47.27
194.897	3.93
195.116	57.17
195.335	61.27
195.555	85.84
195.774	67.41
195.993	-59.56
196.212	-14.51
196.432	48.98
196.651	10.07
196.87	63.32
197.089	110.42
197.308	102.23
197.528	118.61
197.747	3.93
197.966	34.64
198.185	184.15
198.404	1.88
198.623	61.27
198.842	91.99
199.062	65.36
199.281	81.75
199.5	79.7
199.719	122.71
199.938	139.09
200.157	81.75
200.376	94.04
200.595	108.37
200.814	85.84
201.033	3.93
201.252	124.76
201.471	48.98
201.69	79.7
201.909	1.88
202.128	108.37
202.347	44.88
202.566	18.26
202.785	-16.55
203.004	3.93
203.223	96.08
203.442	-2.22
203.661	83.8
203.879	71.51
204.098	98.13
204.317	-30.89
204.536	118.61
204.755	12.12
204.974	-0.17
205.193	18.26
205.411	175.95
205.63	77.65
205.849	48.98
206.068	-6.31
206.287	71.51
206.505	132.95
206.724	55.12
206.943	22.36
207.162	40.79
207.381	102.23
207.599	-43.18
207.818	24.4
208.037	1.88
208.255	-6.31
208.474	63.32
208.693	108.37
208.911	30.55
209.13	28.5
209.349	67.41
209.567	-6.31
209.786	104.28
210.005	8.02
210.223	1.88
210.442	18.26
210.661	75.6
210.879	83.8
211.098	3.93
211.316	61.27
211.535	112.47
211.753	18.26
211.972	20.31
212.191	3.93
212.409	98.13
212.628	-32.94
212.846	20.31
213.065	22.36
213.283	94.04
213.502	65.36
213.72	81.75
213.938	100.18
214.157	-0.17
214.375	87.89
214.594	20.31
214.812	61.27
215.031	26.45
215.249	59.22
215.467	42.84
215.686	-2.22
215.904	34.64
216.122	32.6
216.341	61.27
216.559	48.98
216.778	163.67
216.996	116.56
217.214	-53.42
217.432	-12.46
217.651	10.07
217.869	122.71
218.087	28.5
218.306	30.55
218.524	48.98
218.742	59.22
218.96	51.03
219.179	40.79
219.397	83.8
219.615	175.95
219.833	55.12
220.051	36.69
220.27	79.7
220.488	34.64
220.706	57.17
220.924	48.98
221.142	40.79
221.36	18.26
221.578	75.6
221.796	71.51
222.015	108.37
222.233	108.37
222.451	147.28
222.669	-20.65
222.887	32.6
223.105	42.84
223.323	79.7
223.541	5.97
223.759	-2.22
223.977	61.27
224.195	59.22
224.413	75.6
224.631	18.26
224.849	61.27
225.067	102.23
225.285	18.26
225.503	34.64
225.721	-22.7
225.939	5.97
226.157	40.79
226.375	163.67
226.592	65.36
226.81	57.17
227.028	61.27
227.246	83.8
227.464	79.7
227.682	96.08
227.9	44.88
228.117	79.7
228.335	51.03
228.553	42.84
228.771	16.21
228.989	32.6
229.206	85.84
229.424	-30.89
229.642	-30.89
229.86	1.88
230.077	104.28
230.295	102.23
230.513	96.08
230.731	85.84
230.948	128.85
231.166	130.9
231.384	63.32
231.601	63.32
231.819	167.76
232.037	18.26
232.254	65.36
232.472	-4.27
232.689	8.02
232.907	96.08
233.125	100.18
233.342	-2.22
233.56	-12.46
233.777	65.36
233.995	48.98
234.213	116.56
234.43	83.8
234.648	-2.22
234.865	1.88
235.083	91.99
235.3	32.6
235.518	48.98
235.735	77.65
235.953	106.32
236.17	8.02
236.388	5.97
236.605	38.74
236.822	89.94
237.04	51.03
237.257	63.32
237.475	3.93
237.692	57.17
237.909	110.42
238.127	-47.27
238.344	102.23
238.562	124.76
238.779	18.26
238.996	26.45
239.214	46.93
239.431	151.38
239.648	59.22
239.865	36.69
240.083	38.74
240.3	-4.27
240.517	20.31
240.735	8.02
240.952	38.74
241.169	120.66
241.386	28.5
241.603	73.56
241.821	1.88
242.038	81.75
242.255	73.56
242.472	-63.66
242.689	48.98
242.907	143.19
243.124	61.27
243.341	28.5
243.558	-8.36
243.775	26.45
243.992	-10.41
244.209	87.89
244.426	159.57
244.643	77.65
244.86	85.84
245.078	100.18
245.295	42.84
245.512	94.04
245.729	57.17
245.946	24.4
246.163	-8.36
246.38	46.93
246.597	63.32
246.814	46.93
247.031	8.02
247.248	75.6
247.464	42.84
247.681	-8.36
247.898	53.08
248.115	89.94
248.332	3.93
248.549	135
248.766	106.32
248.983	77.65
249.2	-26.79
249.417	38.74
249.633	89.94
249.85	67.41
250.067	-0.17
250.284	30.55
250.501	94.04
250.717	87.89
250.934	28.5
251.151	-37.03
251.368	10.07
251.585	-14.51
251.801	59.22
252.018	42.84
252.235	20.31
252.451	-43.18
252.668	18.26
252.885	75.6
253.102	26.45
253.318	24.4
253.535	3.93
253.752	48.98
253.968	87.89
254.185	-26.79
254.401	79.7
254.618	46.93
254.835	-4.27
255.051	114.52
255.268	-4.27
255.484	69.46
255.701	-22.7
255.917	24.4
256.134	-18.6
256.351	69.46
256.567	48.98
256.784	87.89
257	-14.51
257.217	114.52
257.433	100.18
257.65	91.99
257.866	48.98
258.082	-18.6
258.299	5.97
258.515	-10.41
258.732	-20.65
258.948	-4.27
259.165	5.97
259.381	-32.94
259.597	44.88
259.814	69.46
260.03	61.27
260.246	-12.46
260.463	1.88
260.679	143.19
260.895	48.98
261.112	91.99
261.328	10.07
261.544	14.17
261.761	130.9
261.977	10.07
262.193	-73.9
262.409	67.41
262.626	16.21
262.842	28.5
263.058	3.93
263.274	89.94
263.49	61.27
263.707	77.65
263.923	167.76
264.139	22.36
264.355	59.22
264.571	139.09
264.787	132.95
265.004	40.79
265.22	-37.03
265.436	20.31
265.652	118.61
265.868	89.94
266.084	-24.75
266.3	63.32
266.516	32.6
266.732	83.8
266.948	32.6
267.164	65.36
267.38	69.46
267.596	98.13
267.812	71.51
268.028	79.7
268.244	67.41
268.46	32.6
268.676	81.75
268.892	83.8
269.108	51.03
269.324	46.93
269.54	1.88
269.756	139.09
269.972	61.27
270.188	36.69
270.403	77.65
270.619	24.4
270.835	61.27
271.051	32.6
271.267	-12.46
271.483	57.17
271.698	30.55
271.914	81.75
272.13	24.4
272.346	149.33
272.562	18.26
272.777	48.98
272.993	14.17
273.209	61.27
273.425	-30.89
273.64	-34.99
273.856	89.94
274.072	-2.22
274.287	-65.71
274.503	57.17
274.719	114.52
274.934	40.79
275.15	5.97
275.366	-10.41
275.581	116.56
275.797	126.8
276.012	-34.99
276.228	139.09
276.444	-24.75
276.659	118.61
276.875	-49.32
277.09	85.84
277.306	20.31
277.521	77.65
277.737	-16.55
277.952	65.36
278.168	108.37
278.383	61.27
278.599	26.45
278.814	110.42
279.03	3.93
279.245	116.56
279.461	3.93
279.676	83.8
279.892	20.31
280.107	116.56
280.322	-20.65
280.538	20.31
280.753	44.88
280.969	32.6
281.184	22.36
281.399	85.84
281.615	28.5
281.83	44.88
282.045	-80.04
282.26	-39.08
282.476	42.84
282.691	85.84
282.906	12.12
283.122	3.93
283.337	-4.27
283.552	42.84
283.767	16.21
283.983	110.42
284.198	22.36
284.413	98.13
284.628	10.07
284.843	57.17
285.058	87.89
285.274	73.56
285.489	77.65
285.704	118.61
285.919	36.69
286.134	-20.65
286.349	24.4
286.564	-34.99
286.779	91.99
286.995	75.6
287.21	-22.7
287.425	16.21
287.64	18.26
287.855	124.76
288.07	-12.46
288.285	89.94
288.5	63.32
288.715	112.47
288.93	73.56
289.145	3.93
289.36	48.98
289.575	28.5
289.79	65.36
290.004	34.64
290.219	61.27
290.434	22.36
290.649	75.6
290.864	28.5
291.079	65.36
291.294	63.32
291.509	1.88
291.724	118.61
291.938	-26.79
292.153	34.64
292.368	20.31
292.583	61.27
292.798	46.93
293.012	14.17
293.227	112.47
293.442	38.74
293.657	130.9
293.871	85.84
294.086	132.95
294.301	180.05
294.516	165.71
294.73	104.28
294.945	-34.99
295.16	3.93
295.374	69.46
295.589	149.33
295.804	-0.17
296.018	51.03
296.233	87.89
296.447	55.12
296.662	34.64
296.877	159.57
297.091	106.32
297.306	48.98
297.52	24.4
297.735	48.98
297.949	40.79
298.164	57.17
298.378	89.94
298.593	48.98
298.807	20.31
299.022	69.46
299.236	22.36
299.451	-2.22
299.665	-18.6
299.88	65.36
300.094	147.28
300.309	48.98
300.523	94.04
300.737	-0.17
300.952	91.99
301.166	79.7
301.381	5.97
301.595	32.6
301.809	147.28
302.024	8.02
302.238	24.4
302.452	51.03
302.667	96.08
302.881	112.47
303.095	55.12
303.309	24.4
303.524	10.07
303.738	8.02
303.952	14.17
304.166	51.03
304.381	-24.75
304.595	196.43
304.809	-2.22
305.023	91.99
305.237	28.5
305.452	26.45
305.666	145.24
305.88	149.33
306.094	89.94
306.308	98.13
306.522	114.52
306.736	38.74
306.95	79.7
307.164	5.97
307.379	26.45
307.593	126.8
307.807	124.76
308.021	83.8
308.235	42.84
308.449	36.69
308.663	81.75
308.877	147.28
309.091	57.17
309.305	114.52
309.519	-71.85
309.733	104.28
309.947	16.21
310.161	106.32
310.374	65.36
310.588	65.36
310.802	38.74
311.016	32.6
311.23	104.28
311.444	20.31
311.658	61.27
311.872	63.32
312.085	71.51
312.299	34.64
312.513	89.94
312.727	44.88
312.941	3.93
313.154	34.64
313.368	120.66
313.582	36.69
313.796	145.24
314.009	26.45
314.223	-4.27
314.437	-4.27
314.651	94.04
314.864	-8.36
315.078	3.93
315.292	-12.46
315.505	87.89
315.719	83.8
315.933	55.12
316.146	28.5
316.36	-2.22
316.573	108.37
316.787	94.04
317.001	94.04
317.214	77.65
317.428	79.7
317.641	79.7
317.855	61.27
318.068	61.27
318.282	81.75
318.495	137.04
318.709	114.52
318.922	30.55
319.136	83.8
319.349	106.32
319.563	14.17
319.776	83.8
319.99	-22.7
320.203	63.32
320.417	40.79
320.63	71.51
320.843	10.07
321.057	55.12
321.27	57.17
321.483	1.88
321.697	126.8
321.91	112.47
322.124	137.04
322.337	104.28
322.55	108.37
322.763	104.28
322.977	65.36
323.19	40.79
323.403	12.12
323.617	61.27
323.83	96.08
324.043	40.79
324.256	16.21
324.469	100.18
324.683	173.91
324.896	59.22
325.109	40.79
325.322	51.03
325.535	147.28
325.748	100.18
325.962	94.04
326.175	38.74
326.388	85.84
326.601	48.98
326.814	51.03
327.027	81.75
327.24	122.71
327.453	12.12
327.666	22.36
327.879	130.9
328.092	75.6
328.305	42.84
328.518	32.6
328.731	46.93
328.944	30.55
329.157	79.7
329.37	38.74
329.583	155.47
329.796	116.56
330.009	14.17
330.222	55.12
330.435	118.61
330.648	32.6
330.861	128.85
331.073	67.41
331.286	141.14
331.499	96.08
331.712	14.17
331.925	71.51
332.138	30.55
332.35	155.47
332.563	63.32
332.776	57.17
332.989	120.66
333.202	63.32
333.414	79.7
333.627	96.08
333.84	28.5
334.053	53.08
334.265	85.84
334.478	83.8
334.691	79.7
334.903	59.22
335.116	-8.36
335.329	59.22
335.541	28.5
335.754	165.71
335.966	30.55
336.179	-14.51
336.392	44.88
336.604	104.28
336.817	71.51
337.029	69.46
337.242	20.31
337.454	161.62
337.667	106.32
337.88	79.7
338.092	67.41
338.305	87.89
338.517	-4.27
338.729	91.99
338.942	-8.36
339.154	24.4
339.367	51.03
339.579	79.7
339.792	5.97
340.004	77.65
340.217	132.95
340.429	73.56
340.641	34.64
340.854	-6.31
341.066	30.55
341.278	108.37
341.491	126.8
341.703	40.79
341.915	1.88
342.128	98.13
342.34	44.88
342.552	22.36
342.764	57.17
342.977	135
343.189	36.69
343.401	116.56
343.613	71.51
343.826	77.65
344.038	12.12
344.25	104.28
344.462	1.88
344.674	79.7
344.886	71.51
345.099	87.89
345.311	153.43
345.523	65.36
345.735	3.93
345.947	100.18
346.159	59.22
346.371	147.28
346.583	63.32
346.795	128.85
347.007	63.32
347.219	100.18
347.431	65.36
347.643	153.43
347.855	69.46
348.067	128.85
348.279	-18.6
348.491	57.17
348.703	18.26
348.915	59.22
349.127	79.7
349.339	59.22
349.551	81.75
349.763	153.43
349.975	38.74
350.187	110.42
350.399	118.61
350.61	145.24
350.822	32.6
351.034	77.65
351.246	24.4
351.458	32.6
351.669	75.6
351.881	73.56
352.093	116.56
352.305	48.98
352.517	98.13
352.728	200.53
352.94	51.03
353.152	1.88
353.363	8.02
353.575	116.56
353.787	91.99
353.999	-14.51
354.21	130.9
354.422	-47.27
354.633	1.88
354.845	44.88
355.057	-2.22
355.268	40.79
355.48	48.98
355.692	-59.56
355.903	-24.75
356.115	22.36
356.326	-49.32
356.538	65.36
356.749	18.26
356.961	165.71
357.172	59.22
357.384	18.26
357.595	253.78
357.807	73.56
358.018	34.64
358.23	51.03
358.441	124.76
358.653	104.28
358.864	83.8
359.075	-30.89
359.287	65.36
359.498	120.66
359.709	69.46
359.921	120.66
360.132	69.46
360.344	83.8
360.555	10.07
360.766	36.69
360.977	1.88
361.189	96.08
361.4	51.03
361.611	87.89
361.823	-4.27
362.034	51.03
362.245	22.36
362.456	53.08
362.667	18.26
362.879	71.51
363.09	55.12
363.301	67.41
363.512	87.89
363.723	106.32
363.935	67.41
364.146	79.7
364.357	63.32
364.568	110.42
364.779	-6.31
364.99	128.85
365.201	16.21
365.412	169.81
365.623	22.36
365.834	55.12
366.045	40.79
366.256	81.75
366.467	63.32
366.678	69.46
366.889	75.6
367.1	77.65
367.311	28.5
367.522	34.64
367.733	94.04
367.944	130.9
368.155	14.17
368.366	89.94
368.577	182.1
368.788	32.6
368.999	67.41
369.209	10.07
369.42	137.04
369.631	118.61
369.842	147.28
370.053	132.95
370.264	106.32
370.474	-22.7
370.685	83.8
370.896	46.93
371.107	79.7
371.317	83.8
371.528	48.98
371.739	126.8
371.95	48.98
372.16	77.65
372.371	83.8
372.582	28.5
372.792	81.75
373.003	102.23
373.214	28.5
373.424	44.88
373.635	1.88
373.846	139.09
374.056	57.17
374.267	53.08
374.477	51.03
374.688	112.47
374.898	59.22
375.109	53.08
375.319	40.79
375.53	141.14
375.74	145.24
375.951	71.51
376.161	73.56
376.372	180.05
376.582	65.36
376.793	98.13
377.003	46.93
377.214	-0.17
377.424	178
377.635	46.93
377.845	32.6
378.055	98.13
378.266	73.56
378.476	83.8
378.686	77.65
378.897	141.14
379.107	36.69
379.317	63.32
379.528	63.32
379.738	67.41
379.948	75.6
380.158	59.22
380.369	71.51
380.579	124.76
380.789	3.93
380.999	65.36
381.21	73.56
381.42	208.72
381.63	57.17
381.84	91.99
382.05	89.94
382.261	118.61
382.471	106.32
382.681	65.36
382.891	137.04
383.101	79.7
383.311	59.22
383.521	28.5
383.731	85.84
383.941	94.04
384.151	16.21
384.361	61.27
384.571	73.56
384.781	79.7
384.991	130.9
385.201	126.8
385.411	147.28
385.621	100.18
385.831	51.03
386.041	96.08
386.251	69.46
386.461	182.1
386.671	79.7
386.881	51.03
387.091	77.65
387.301	151.38
387.511	24.4
387.72	26.45
387.93	110.42
388.14	-2.22
388.35	145.24
388.56	116.56
388.769	167.76
388.979	69.46
389.189	81.75
389.399	36.69
389.609	100.18
389.818	65.36
390.028	96.08
390.238	91.99
390.447	8.02
390.657	116.56
390.867	55.12
391.076	-0.17
391.286	81.75
391.496	126.8
391.705	61.27
391.915	106.32
392.125	126.8
392.334	106.32
392.544	204.63
392.753	106.32
392.963	18.26
393.172	89.94
393.382	53.08
393.591	132.95
393.801	112.47
394.01	132.95
394.22	77.65
394.429	67.41
394.639	108.37
394.848	155.47
395.058	118.61
395.267	153.43
395.477	178
395.686	55.12
395.895	194.39
396.105	221.01
396.314	126.8
396.524	67.41
396.733	120.66
396.942	190.29
397.152	161.62
397.361	153.43
397.57	165.71
397.78	163.67
397.989	210.77
398.198	190.29
398.407	157.52
398.617	139.09
398.826	165.71
399.035	112.47
399.244	198.48
399.453	128.85
399.663	96.08
399.872	135
400.081	120.66
400.29	229.2
400.499	120.66
400.708	278.35
400.917	167.76
401.127	200.53
401.336	167.76
401.545	237.39
401.754	204.63
401.963	210.77
402.172	143.19
402.381	24.4
402.59	100.18
402.799	145.24
403.008	180.05
403.217	190.29
403.426	171.86
403.635	161.62
403.844	198.48
404.053	223.06
404.262	231.25
404.471	286.54
404.68	143.19
404.888	235.35
405.097	216.91
405.306	180.05
405.515	270.16
405.724	229.2
405.933	276.31
406.142	259.92
406.35	272.21
406.559	296.78
406.768	288.59
406.977	380.75
407.185	284.5
407.394	376.66
407.603	245.59
407.812	298.83
408.02	384.85
408.229	286.54
408.438	413.52
408.646	329.55
408.855	413.52
409.064	417.61
409.272	325.46
409.481	454.48
409.69	442.19
409.898	319.31
410.107	393.04
410.315	460.62
410.524	417.61
410.733	560.97
410.941	491.34
411.15	495.44
411.358	581.45
411.567	673.61
411.775	669.52
411.984	589.64
412.192	618.32
412.401	614.22
412.609	700.23
412.818	714.57
413.026	685.9
413.234	757.58
413.443	898.89
413.651	806.73
413.86	806.73
414.068	855.88
414.276	941.89
414.485	925.51
414.693	964.42
414.901	1034.05
415.11	991.05
415.318	991.05
415.526	1032.01
415.734	1056.58
415.943	1199.94
416.151	1019.72
416.359	1288
416.567	1238.85
416.776	1345.34
416.984	1257.28
417.192	1445.7
417.4	1376.06
417.608	1466.17
417.817	1468.22
418.025	1632.06
418.233	1732.41
418.441	1597.24
418.649	1759.03
418.857	1744.7
419.065	1791.8
419.273	1789.75
419.481	1873.72
419.689	2012.98
419.897	2062.13
420.105	2246.45
420.313	2277.17
420.521	2307.89
420.729	2367.28
420.937	2432.82
421.145	2453.3
421.353	2615.09
421.561	2836.27
421.769	2830.12
421.977	2826.03
422.185	2961.19
422.393	2920.23
422.601	3258.15
422.809	3170.08
423.017	3176.23
423.224	3254.05
423.432	3428.13
423.64	3501.86
423.848	3831.58
424.056	3723.04
424.263	3968.79
424.471	3819.29
424.679	3927.83
424.887	4136.73
425.094	4482.83
425.302	4413.2
425.51	4476.69
425.718	4759.31
425.925	4663.05
426.133	4826.89
426.341	5197.57
426.548	5355.27
426.756	5340.93
426.964	5332.74
427.171	5644.03
427.379	5850.88
427.586	5912.32
427.794	6227.7
428.001	6330.1
428.209	6749.93
428.417	6471.41
428.624	6907.63
428.832	7134.95
429.039	6999.79
429.247	6999.79
429.454	7532.26
429.662	8101.59
429.869	7579.36
430.076	8081.11
430.284	7925.47
430.491	8226.52
430.699	8552.15
430.906	8541.91
431.114	8746.7
431.321	9092.81
431.528	8980.17
431.736	9662.15
431.943	9963.2
432.15	9961.15
432.358	10186.43
432.565	10495.67
432.772	10436.28
432.979	10868.4
433.187	11253.42
433.394	11247.27
433.601	11828.9
433.808	11955.87
434.016	11869.86
434.223	12474.01
434.43	13084.3
434.637	12787.35
434.844	13336.2
435.052	13688.45
435.259	13764.23
435.466	13852.29
435.673	13598.34
435.88	14624.37
436.087	15384.17
436.294	15335.02
436.501	14902.9
436.708	15027.82
436.915	15611.5
437.122	16283.23
437.329	16225.89
437.537	16639.58
437.743	17010.26
437.95	17081.94
438.157	17589.83
438.364	18316.86
438.571	18216.51
438.778	17921.6
438.985	19805.74
439.192	18832.95
439.399	19430.96
439.606	19086.9
439.813	20252.19
440.02	21648.91
440.227	20979.22
440.433	20768.28
440.64	21059.09
440.847	21224.98
441.054	21865.99
441.261	23184.88
441.467	22490.62
441.674	23115.25
441.881	23848.43
442.088	23668.2
442.294	23440.88
442.501	23926.25
442.708	24282.59
442.914	25462.22
443.121	26166.73
443.328	25869.77
443.534	27301.3
443.741	26672.57
443.948	26176.97
444.154	28157.35
444.361	27878.83
444.568	28052.91
444.774	28169.64
444.981	28321.19
445.187	28937.63
445.394	30213.51
445.6	29732.24
445.807	32623.97
446.013	31001.98
446.22	31767.92
446.426	32697.7
446.633	33160.54
446.839	33994.06
447.046	32968.03
447.252	34325.83
447.459	34032.97
447.665	34213.2
447.871	35751.22
448.078	37133.6
448.284	34999.62
448.491	35878.19
448.697	37494.04
448.903	37829.91
449.11	38251.79
449.316	37471.51
449.522	37956.88
449.728	39089.41
449.935	38886.66
450.141	39230.72
450.347	39890.16
450.553	38518.03
450.76	38677.77
450.966	40131.82
451.172	39562.49
451.378	40492.27
451.584	40043.76
451.791	40451.31
451.997	40502.51
452.203	40836.33
452.409	40660.2
452.615	40682.73
452.821	39054.59
453.027	38272.27
453.233	40977.64
453.44	38993.15
453.646	39283.97
453.852	39390.46
454.058	39519.48
454.264	38579.46
454.47	39417.08
454.676	38327.56
454.882	39439.61
455.088	36332.84
455.294	36404.52
455.5	36701.48
455.705	37510.42
455.911	35980.59
456.117	35067.2
456.323	34366.79
456.529	32345.45
456.735	34106.7
456.941	32994.65
457.147	32660.83
457.352	31403.38
457.558	31194.49
457.764	31065.47
457.97	30545.28
458.176	29758.86
458.381	29642.13
458.587	28231.08
458.793	28503.46
458.999	26482.11
459.204	28482.98
459.41	27514.29
459.616	25884.11
459.821	26011.08
460.027	25441.75
460.233	24968.66
460.438	23963.11
460.644	24065.51
460.85	22785.53
461.055	22259.2
461.261	22466.05
461.466	20545.05
461.672	19865.13
461.878	21485.07
462.083	19938.85
462.289	19295.79
462.494	19486.25
462.7	18542.14
462.905	18046.53
463.111	18599.48
463.316	18882.1
463.522	18202.18
463.727	18075.2
463.932	18198.08
464.138	17440.33
464.343	17958.47
464.549	17231.44
464.754	17851.97
464.959	17716.81
465.165	17630.79
465.37	16428.63
465.575	16387.68
465.781	17030.74
465.986	16922.2
466.191	16395.87
466.397	16006.75
466.602	15128.17
466.807	15634.02
467.012	16049.76
467.218	15586.92
467.423	15650.41
467.628	15588.97
467.833	15969.89
468.038	15441.51
468.244	15115.89
468.449	15658.6
468.654	14999.15
468.859	15027.82
469.064	14880.37
469.269	14333.56
469.474	14081.66
469.679	14634.61
469.885	13917.82
470.09	14423.67
470.295	14141.05
470.5	13780.61
470.705	13739.65
470.91	13653.64
471.115	13368.97
471.32	13586.05
471.525	13461.13
471.73	13244.04
471.935	13092.49
472.139	12842.64
472.344	12752.53
472.549	12695.19
472.754	12674.71
472.959	12371.61
473.164	12099.23
473.369	11736.74
473.574	12152.48
473.778	12261.02
473.983	12041.89
474.188	11841.18
474.393	11204.27
474.598	11275.95
474.802	11269.8
475.007	11341.48
475.212	11460.26
475.417	10817.2
475.621	10651.31
475.826	10811.06
476.031	10632.88
476.235	10454.71
476.44	10497.72
476.645	10096.32
476.849	10374.84
477.054	10030.78
477.259	9938.62
477.463	9842.37
477.668	9801.41
477.872	9762.5
478.077	9666.24
478.282	9443.01
478.486	9311.94
478.691	9156.3
478.895	9035.47
479.1	9066.19
479.304	8971.98
479.509	8842.96
479.713	8867.53
479.918	8754.9
480.122	8466.13
480.326	8494.8
480.531	8660.69
480.735	8685.26
480.94	8396.5
481.144	8765.14
481.348	8423.12
481.553	8378.07
481.757	8330.97
481.961	8445.65
482.166	8525.52
482.37	8472.28
482.574	8244.95
482.778	8177.37
482.983	8283.86
483.187	8353.49
483.391	8355.54
483.595	8224.47
483.8	8029.91
484.004	8386.26
484.208	8238.81
484.412	8218.33
484.616	8230.62
484.821	8253.14
485.025	8195.8
485.229	8277.72
485.433	7993.05
485.637	8124.12
485.841	8224.47
486.045	8173.27
486.249	8179.42
486.453	8044.25
486.657	8423.12
486.861	8173.27
487.065	7769.82
487.269	7931.61
487.473	7847.65
487.677	7976.67
487.881	8400.6
488.085	8021.72
488.289	7890.65
488.493	8062.68
488.697	8134.36
488.901	8095.45
489.105	7907.04
489.309	8132.31
489.512	8128.22
489.716	8175.32
489.92	8124.12
490.124	8013.53
490.328	8062.68
490.531	8062.68
490.735	8203.99
490.939	8156.89
491.143	8195.8
491.346	8066.78
491.55	8343.25
491.754	8228.57
491.958	8296.15
492.161	8283.86
492.365	8249.05
492.569	8169.18
492.772	8492.76
492.976	8386.26
493.18	8365.78
493.383	8576.72
493.587	8552.15
493.79	8750.8
493.994	8480.47
494.197	8552.15
494.401	8793.81
494.605	8703.7
494.808	8888.01
495.012	8838.86
495.215	8859.34
495.419	9215.69
495.622	8912.59
495.825	9023.18
496.029	9174.73
496.232	9232.07
496.436	9236.17
496.639	9520.84
496.843	9346.76
497.046	9410.25
497.249	9553.6
497.453	9498.31
497.656	9817.79
497.859	9844.42
498.063	9991.87
498.266	10223.29
498.469	10151.61
498.673	10333.88
498.876	10340.02
499.079	10374.84
499.282	10417.85
499.485	10589.88
499.689	10647.22
499.892	10854.06
500.095	10860.21
500.298	10999.47
500.501	10852.02
500.705	11353.77
500.908	11275.95
501.111	11630.24
501.314	11695.78
501.517	11656.87
501.72	11964.06
501.923	11734.69
502.126	12097.18
502.329	12269.21
502.532	12490.39
502.735	12168.86
502.938	12455.58
503.141	12400.28
503.344	12697.24
503.547	12846.74
503.75	13149.84
503.953	13031.05
504.156	13104.78
504.359	13303.43
504.562	13510.28
504.765	13674.12
504.968	14136.96
505.17	13928.06
505.373	13946.5
505.576	14317.18
505.779	14296.7
505.982	14278.27
506.185	14726.77
506.387	14628.47
506.59	15066.74
506.793	15201.9
506.996	15083.12
507.198	15556.2
507.401	15117.93
507.604	15552.1
507.807	15804
508.009	16062.05
508.212	15865.44
508.415	16098.91
508.617	16238.17
508.82	16449.11
509.022	16442.97
509.225	16690.77
509.428	17167.95
509.63	16848.47
509.833	17245.77
510.035	17628.74
510.238	17378.89
510.44	17317.45
510.643	17651.27
510.845	17962.56
511.048	17843.78
511.25	18116.16
511.453	18120.26
511.655	18810.42
511.858	18466.36
512.06	18861.62
512.262	18904.63
512.465	19189.3
512.667	19248.69
512.87	19539.5
513.072	19582.51
513.274	20037.16
513.477	19658.28
513.679	20200.99
513.881	20338.21
514.084	20631.07
514.286	20524.57
514.488	20688.41
514.69	21210.64
514.893	21050.9
515.095	20979.22
515.297	21474.83
515.499	21358.1
515.701	21669.39
515.904	21687.82
516.106	22011.4
516.308	22289.92
516.51	22484.48
516.712	22285.83
516.914	22748.67
517.116	22787.58
517.318	22750.71
517.52	23080.44
517.722	23264.75
517.925	23191.03
518.127	23428.59
518.329	23791.08
518.531	23854.57
518.733	24051.17
518.935	24282.59
519.136	24288.74
519.338	24481.25
519.54	24509.92
519.742	24714.72
519.944	24831.45
520.146	25415.12
520.348	25468.37
520.55	25476.56
520.752	25619.92
520.954	26039.75
521.155	25644.49
521.357	26072.52
521.559	26459.59
521.761	26803.64
521.963	26469.83
522.164	26998.2
522.366	26895.8
522.568	26518.98
522.77	26701.25
522.971	27415.99
523.173	26969.53
523.375	27540.91
523.576	27317.68
523.778	27127.22
523.98	27758
524.181	27903.4
524.383	27958.7
524.584	27981.23
524.786	28247.46
524.988	27792.81
525.189	28493.22
525.391	28394.92
525.592	28435.88
525.794	28517.79
525.995	28695.97
526.197	28525.99
526.398	28702.11
526.6	29154.71
526.801	28831.13
527.003	28824.99
527.204	29351.32
527.406	29306.26
527.607	29117.85
527.808	29289.88
528.01	28857.76
528.211	29011.35
528.412	29810.06
528.614	29781.39
528.815	29308.31
529.016	29687.18
529.218	29253.01
529.419	29379.99
529.62	29556.11
529.822	29457.81
530.023	29310.36
530.224	29631.89
530.425	29644.18
530.626	29582.74
530.828	29556.11
531.029	29969.8
531.23	29668.75
531.431	29775.25
531.632	29750.67
531.833	29719.95
532.035	30195.08
532.236	29998.48
532.437	30068.11
532.638	29658.51
532.839	30305.67
533.04	30102.92
533.241	29746.58
533.442	30363.01
533.643	29861.26
533.844	30012.81
534.045	30229.9
534.246	29625.75
534.447	30129.55
534.648	30010.76
534.849	30143.88
535.05	29846.93
535.251	29894.03
535.451	30141.83
535.652	30395.78
535.853	29918.6
536.054	30051.72
536.255	29988.24
536.456	29457.81
536.657	30416.26
536.857	29801.87
537.058	29963.66
537.259	30016.91
537.46	29648.27
537.66	29734.29
537.861	30160.27
538.062	30021
538.263	30233.99
538.463	29986.19
538.664	29990.28
538.865	29744.53
539.065	30127.5
539.266	29652.37
539.466	30041.48
539.667	29699.47
539.868	30090.63
540.068	29848.97
540.269	29949.32
540.469	29818.25
540.67	29511.06
540.87	29279.64
541.071	29646.22
541.271	29902.22
541.472	29904.27
541.672	29826.45
541.873	29760.91
542.073	29461.91
542.274	30152.07
542.474	29736.34
542.675	29482.39
542.875	30047.63
543.075	29900.17
543.276	29330.84
543.476	30053.77
543.676	29789.58
543.877	29629.84
544.077	29779.34
544.277	29484.44
544.478	29724.05
544.678	30031.24
544.878	29646.22
545.078	29889.93
545.279	29435.28
545.479	29552.02
545.679	29885.84
545.879	29875.6
546.079	29705.62
546.28	29826.45
546.48	29293.97
546.68	29916.56
546.88	29781.39
547.08	29758.86
547.28	29359.51
547.48	29146.52
547.68	29623.7
547.88	29398.42
548.081	29861.26
548.281	29625.75
548.481	29521.3
548.681	29871.5
548.881	29511.06
549.081	29312.41
549.28	29648.27
549.48	29969.8
549.68	29697.42
549.88	29900.17
550.08	29488.53
550.28	29865.36
550.48	29771.15
550.68	29975.95
550.88	29613.46
551.08	29572.5
551.279	29423
551.479	29463.96
551.679	29543.83
551.879	29629.84
552.079	29791.63
552.278	29640.08
552.478	29341.08
552.678	29560.21
552.878	29457.81
553.077	29453.72
553.277	29429.14
553.477	29963.66
553.676	29210.01
553.876	29324.69
554.076	29732.24
554.275	29265.3
554.475	29150.62
554.674	29435.28
554.874	29713.81
555.074	29367.7
555.273	29554.07
555.473	29810.06
555.672	29248.92
555.872	29238.68
556.071	29484.44
556.271	29744.53
556.47	29455.76
556.67	28999.07
556.869	29199.77
557.068	29623.7
557.268	29265.3
557.467	29531.54
557.667	29312.41
557.866	29367.7
558.065	29175.19
558.265	28997.02
558.464	28970.4
558.663	29115.8
558.863	29068.7
559.062	29633.94
559.261	29019.55
559.461	29558.16
559.66	28974.49
559.859	29468.05
560.058	29083.03
560.258	29091.23
560.457	28847.52
560.656	29148.57
560.855	29105.56
561.054	29429.14
561.253	29083.03
561.453	29373.85
561.652	29212.06
561.851	29248.92
562.05	29224.34
562.249	28759.45
562.448	29519.25
562.647	29291.93
562.846	29031.83
563.045	29498.77
563.244	28966.3
563.443	29517.2
563.642	29169.05
563.841	29087.13
564.04	29154.71
564.239	29484.44
564.438	28888.48
564.637	28960.16
564.836	29107.61
565.035	28640.67
565.234	29310.36
565.432	29224.34
565.631	28712.35
565.83	29250.97
566.029	28802.46
566.228	28990.87
566.427	29017.5
566.625	28994.97
566.824	28728.73
567.023	29203.86
567.222	28755.36
567.42	29308.31
567.619	29078.94
567.818	28687.78
568.016	29064.6
568.215	29169.05
568.414	28982.68
568.612	29191.58
568.811	28585.38
569.01	29355.41
569.208	28632.48
569.407	28976.54
569.605	28669.34
569.804	29234.58
570.002	28937.63
570.201	29248.92
570.4	28589.47
570.598	28802.46
570.797	28640.67
570.995	28788.13
571.193	28655.01
571.392	29134.23
571.59	28466.59
571.789	28673.44
571.987	28939.68
572.186	28949.92
572.384	28831.13
572.582	29025.69
572.781	29066.65
572.979	28376.48
573.177	28835.23
573.376	28878.24
573.574	28638.62
573.772	28861.85
573.971	28738.97
574.169	28587.43
574.367	28247.46
574.565	28882.33
574.763	28476.83
574.962	28513.7
575.16	28439.97
575.358	28710.3
575.556	28167.59
575.754	28831.13
575.952	28466.59
576.151	28655.01
576.349	28298.66
576.547	28423.59
576.745	28638.62
576.943	28528.03
577.141	28356
577.339	28380.58
577.537	28401.06
577.735	28444.07
577.933	28294.57
578.131	28413.35
578.329	28196.26
578.527	28200.36
578.725	28485.03
578.923	28521.89
579.121	28245.41
579.319	28536.23
579.516	28376.48
579.714	28317.09
579.912	28288.42
580.11	27903.4
580.308	27999.66
580.506	28439.97
580.704	28188.07
580.901	28415.4
581.099	28927.39
581.297	28261.8
581.495	28267.94
581.692	28315.05
581.89	28067.24
582.088	28310.95
582.285	28401.06
582.483	28517.79
582.681	28325.29
582.878	27983.27
583.076	28155.3
583.274	28347.81
583.471	28245.41
583.669	28493.22
583.866	28044.71
584.064	28390.82
584.262	28124.58
584.459	28466.59
584.657	28356
584.854	28695.97
585.052	28386.72
585.249	28259.75
585.447	28413.35
585.644	28272.04
585.841	28519.84
586.039	28523.94
586.236	28341.67
586.434	28155.3
586.631	28114.34
586.828	28568.99
587.026	28650.91
587.223	28439.97
587.42	28269.99
587.618	28497.31
587.815	28532.13
588.012	28304.81
588.21	28554.66
588.407	28634.53
588.604	28517.79
588.801	28390.82
588.999	28335.52
589.196	28401.06
589.393	28747.17
589.59	28482.98
589.787	28693.92
589.984	28728.73
590.182	28607.9
590.379	28941.72
590.576	28593.57
590.773	28620.19
590.97	28618.14
591.167	28738.97
591.364	28753.31
591.561	29033.88
591.758	28810.65
591.955	28779.93
592.152	29095.32
592.349	28972.44
592.546	28906.91
592.743	29300.12
592.94	29107.61
593.137	29361.56
593.334	29416.85
593.531	29203.86
593.727	29369.75
593.924	29316.5
594.121	29406.61
594.318	29363.61
594.515	29250.97
594.712	29861.26
594.908	29400.47
595.105	29742.48
595.302	29459.86
595.499	29740.43
595.696	29953.42
595.892	29316.5
596.089	29848.97
596.286	30150.03
596.482	30145.93
596.679	30295.43
596.876	30522.76
597.072	30201.22
597.269	29971.85
597.466	30104.97
597.662	29953.42
597.859	30489.99
598.055	30406.02
598.252	30784.9
598.448	30784.9
598.645	30754.18
598.841	30641.54
599.038	31010.17
599.234	31194.49
599.431	30887.29
599.627	31083.9
599.824	31368.57
600.02	31487.35
600.217	31395.19
600.413	31438.2
600.609	31489.4
600.806	31448.44
601.002	32066.92
601.198	31956.33
601.395	31669.62
601.591	31935.85
601.787	31921.52
601.984	31960.43
602.18	32730.47
602.376	32200.04
602.572	32437.61
602.769	32513.38
602.965	32365.93
603.161	32953.69
603.357	32664.93
603.553	32734.56
603.75	33074.52
603.946	33445.21
604.142	33617.24
604.338	33056.09
604.534	33746.26
604.73	33568.09
604.926	33572.18
605.122	34024.78
605.318	34108.75
605.514	34293.07
605.71	34243.91
605.906	34315.59
606.102	34989.38
606.298	34770.24
606.494	35061.05
606.69	35315
606.886	35487.03
607.082	35235.13
607.278	35892.53
607.474	35571
607.67	36637.99
607.866	35540.28
608.062	36609.32
608.257	36138.29
608.453	36699.43
608.649	36709.67
608.845	36738.34
609.041	37002.53
609.236	37498.14
609.432	37502.23
609.628	37731.61
609.824	37766.42
610.019	37698.84
610.215	38237.45
610.411	38520.07
610.606	38554.89
610.802	38880.52
610.998	38554.89
611.193	39144.7
611.389	39003.39
611.584	39214.33
611.78	39787.77
611.976	40416.49
612.171	40250.61
612.367	40355.05
612.562	40443.12
612.758	40336.62
612.953	40492.27
613.149	41235.68
613.344	41000.16
613.539	41876.69
613.735	41747.67
613.93	42147.03
614.126	41702.62
614.321	42556.62
614.517	42202.32
614.712	42659.02
614.907	42751.18
615.103	43654.33
615.298	42925.25
615.493	43809.98
615.688	43285.7
615.884	44518.57
616.079	43818.17
616.274	44008.63
616.47	44170.42
616.665	44899.5
616.86	44260.53
617.055	44987.56
617.25	44950.7
617.445	45350.05
617.641	44692.65
617.836	45444.26
618.031	45522.08
618.226	45962.39
618.421	45604
618.616	46816.39
618.811	45837.47
619.006	46720.14
619.201	45790.36
619.396	46742.67
619.591	45970.58
619.786	46888.07
619.981	46558.35
620.176	47369.35
620.371	46724.24
620.566	46992.52
620.761	47121.54
620.956	47312
621.151	46914.7
621.346	46967.94
621.541	46658.7
621.735	47522.94
621.93	47029.38
622.125	47027.34
622.32	46689.42
622.515	47078.53
622.709	47195.27
622.904	47502.46
623.099	47236.23
623.294	47422.59
623.488	46605.45
623.683	47500.42
623.878	47326.34
624.072	47244.42
624.267	46853.26
624.462	47156.36
624.656	47170.69
624.851	47291.52
625.046	47137.93
625.24	47004.81
625.435	47008.9
625.629	46910.6
625.824	46443.66
626.018	46834.83
626.213	46228.63
626.407	46611.6
626.602	46109.85
626.796	46558.35
626.991	46230.68
627.185	46367.89
627.38	46304.4
627.574	46007.45
627.768	46247.06
627.963	46122.13
628.157	45798.55
628.352	46115.99
628.546	45053.09
628.74	46378.13
628.935	45862.04
629.129	46089.37
629.323	45552.8
629.517	45665.44
629.712	45628.57
629.906	45491.36
630.1	45032.61
630.294	45323.43
630.489	44864.68
630.683	45069.48
630.877	44747.95
631.071	44467.37
631.265	44817.58
631.459	44004.53
631.653	44377.26
631.848	44504.24
632.042	44022.97
632.236	44457.13
632.43	44211.38
632.624	44133.56
632.818	44199.09
633.012	43515.07
633.206	43676.86
633.4	43865.27
633.594	43396.29
633.788	43449.53
633.982	43699.39
634.176	43324.61
634.369	42788.04
634.563	43031.75
634.757	42798.28
634.951	43001.03
635.145	42642.63
635.339	43023.56
635.533	42216.66
635.726	42425.55
635.92	42085.59
636.114	42073.3
636.308	41684.19
636.501	41794.78
636.695	41614.55
636.889	41405.66
637.083	41559.26
637.276	40979.68
637.47	41264.35
637.664	40932.58
637.857	41047.27
638.051	41221.34
638.244	40332.53
638.438	40449.26
638.632	40156.4
638.825	40303.85
639.019	39959.8
639.212	39447.8
639.406	40101.11
639.599	39402.75
639.793	39857.4
639.986	39204.1
640.18	39054.59
640.373	39238.91
640.567	38714.63
640.76	39021.83
640.954	38247.69
641.147	38362.38
641.34	38108.43
641.534	38251.79
641.727	38079.76
641.92	37704.98
642.114	37436.7
642.307	38098.19
642.5	37041.44
642.694	37072.16
642.887	36871.46
643.08	37102.88
643.273	36902.18
643.467	37010.72
643.66	36101.42
643.853	36402.47
644.046	36109.61
644.239	36154.67
644.432	36033.84
644.626	35626.29
644.819	35175.74
645.012	35411.26
645.205	35620.15
645.398	34997.57
645.591	34970.94
645.784	35104.06
645.977	34407.75
646.17	34874.69
646.363	34407.75
646.556	34043.21
646.749	33815.89
646.942	34399.56
647.135	33889.62
647.328	33658.2
647.521	33123.68
647.714	32945.5
647.907	33068.38
648.099	32683.36
648.292	33119.58
648.485	32662.88
648.678	32540
648.871	32279.91
649.064	31751.54
649.256	32664.93
649.449	32159.08
649.642	31706.48
649.835	31337.85
650.027	31477.11
650.22	31434.1
650.413	31073.66
650.605	31114.62
650.798	30788.99
650.991	30539.14
651.183	30823.81
651.376	30225.8
651.568	29988.24
651.761	30502.28
651.954	30158.22
652.146	29816.21
652.339	29789.58
652.531	29441.43
652.724	29250.97
652.916	28931.48
653.109	28892.57
653.301	28911
653.494	28683.68
653.686	28057
653.879	28349.86
654.071	28487.07
654.263	28349.86
654.456	28204.45
654.648	28118.44
654.84	27315.64
655.033	27508.15
655.225	27348.4
655.417	27377.08
655.61	27233.72
655.802	27012.54
655.994	26680.77
656.186	26910.14
656.379	26359.24
656.571	26424.77
656.763	26037.7
656.955	25912.78
657.148	26064.33
657.34	25712.08
657.532	25386.45
657.724	25408.98
657.916	25501.14
658.108	25423.31
658.3	24915.42
658.492	25179.61
658.684	24608.22
658.876	24604.13
659.068	24567.26
659.26	24202.72
659.452	24438.24
659.644	24286.69
659.836	23973.35
660.028	24153.57
660.22	23322.1
660.412	23424.5
660.604	23207.41
660.796	23363.06
660.988	23254.51
661.18	22834.68
661.372	22617.6
661.563	22990.33
661.755	22398.46
661.947	22312.45
662.139	22007.3
662.331	21972.49
662.522	21800.46
662.714	22242.82
662.906	21730.83
663.097	21542.41
663.289	21562.89
663.481	21267.98
663.673	21179.92
663.864	20878.87
664.056	20706.84
664.247	20936.21
664.439	20549.15
664.631	20616.73
664.822	20532.76
665.014	20545.05
665.205	20002.34
665.397	20051.49
665.588	19803.69
665.78	19738.15
665.971	19568.17
666.163	19512.88
666.354	19689
666.546	19447.34
666.737	18814.52
666.929	19316.27
667.12	19119.67
667.311	18773.56
667.503	18558.52
667.694	18796.09
667.885	18441.79
668.077	18460.22
668.268	18386.49
668.459	18171.46
668.651	18028.1
668.842	18087.49
669.033	17737.29
669.224	17555.02
669.416	17804.87
669.607	17735.24
669.798	17032.79
669.989	17350.22
670.18	17346.12
670.371	16973.39
670.563	16854.61
670.754	17092.18
670.945	16741.97
671.136	16803.41
671.327	16442.97
671.518	16250.46
671.709	16531.03
671.9	16555.61
672.091	16217.69
672.282	16297.56
672.473	15793.76
672.664	16078.43
672.855	15820.39
673.046	15804
673.237	15881.83
673.428	15685.22
673.619	15617.64
673.809	15359.59
674	15306.35
674.191	15449.71
674.382	15152.75
674.573	15240.81
674.764	14933.62
674.954	15099.5
675.145	14790.26
675.336	14892.66
675.527	14849.65
675.717	14859.89
675.908	14773.88
676.099	14927.47
676.289	14364.28
676.48	14546.55
676.671	14042.75
676.861	14245.5
677.052	13985.41
677.243	13743.75
677.433	13936.26
677.624	13864.58
677.814	13899.39
678.005	13764.23
678.195	13764.23
678.386	13766.28
678.576	13571.72
678.767	13342.35
678.957	13448.84
679.148	13495.94
679.338	13479.56
679.529	13262.47
679.719	13004.43
679.909	13117.07
680.1	13051.53
680.29	13041.29
680.481	12904.08
680.671	12668.56
680.861	12510.87
681.052	12752.53
681.242	12607.12
681.432	12852.88
681.622	12418.71
681.813	12576.41
682.003	12287.64
682.193	12304.03
682.383	12590.74
682.573	12359.32
682.764	12433.05
682.954	12152.48
683.144	12148.38
683.334	12054.17
683.524	12211.87
683.714	12017.31
683.904	11746.98
684.094	12152.48
684.284	11984.54
684.474	11964.06
684.664	11695.78
684.854	11804.32
685.044	11671.2
685.234	11536.04
685.424	11495.08
685.614	11501.22
685.804	11617.96
685.994	11706.02
686.184	11556.52
686.374	11656.87
686.564	11296.42
686.753	11361.96
686.943	11181.74
687.133	11280.04
687.323	11040.43
687.513	10991.28
687.702	10991.28
687.892	11099.82
688.082	11009.71
688.272	11007.66
688.461	10995.37
688.651	11015.85
688.841	10753.71
689.03	10874.54
689.22	10632.88
689.41	10925.74
689.599	10616.5
689.789	10622.64
689.979	10608.31
690.168	10598.07
690.358	10395.32
690.547	10512.05
690.737	10542.77
690.926	10620.6
691.116	10450.61
691.305	10409.65
691.495	10307.26
691.684	10380.98
691.874	10266.3
692.063	10270.39
692.252	10272.44
692.442	10241.72
692.631	10024.64
692.82	10268.34
693.01	10147.51
693.199	9932.48
693.388	9879.23
693.578	9707.2
693.767	10094.27
693.956	9709.25
694.146	9881.28
694.335	9737.92
694.524	9819.84
694.713	9670.34
694.902	9653.95
695.092	9561.8
695.281	9549.51
695.47	9512.64
695.659	9420.49
695.848	9387.72
696.037	9422.53
696.226	9387.72
696.415	9211.59
696.604	9494.21
696.793	9182.92
696.982	9279.18
697.171	9189.07
697.36	9146.06
697.549	9047.76
697.738	9111.24
697.927	9162.44
698.116	9135.82
698.305	8984.27
698.494	8926.93
698.683	8793.81
698.872	9031.37
699.061	8830.67
699.25	8765.14
699.438	8718.03
699.627	8734.42
699.816	8629.97
700.005	8455.89
700.193	8625.87
700.382	8398.55
700.571	8576.72
700.76	8353.49
700.948	8429.27
701.137	8376.02
701.326	8423.12
701.514	8160.98
701.703	8365.78
701.892	7995.1
702.08	8220.38
702.269	8103.64
702.457	7991
702.646	8081.11
702.834	7861.98
703.023	7870.17
703.212	8160.98
703.4	7997.15
703.589	7743.2
703.777	7851.74
703.965	7775.97
704.154	7716.58
704.342	7724.77
704.531	7751.39
704.719	7761.63
704.907	7784.16
705.096	7472.87
705.284	7378.66
705.472	7427.81
705.661	7552.74
705.849	7468.77
706.037	7458.53
706.226	7300.84
706.414	7368.42
706.602	7157.48
706.79	7298.79
706.979	7059.18
707.167	7151.34
707.355	7087.85
707.543	7012.07
707.731	7061.23
707.919	6895.34
708.107	6983.4
708.296	6838
708.484	6921.96
708.672	7003.88
708.86	6842.09
709.048	6706.93
709.236	6766.32
709.424	6852.33
709.612	6467.31
709.8	6643.44
709.988	6670.06
710.176	6514.42
710.364	6541.04
710.551	6446.83
710.739	6485.75
710.927	6475.51
711.115	6389.49
711.303	6334.2
711.491	6328.05
711.679	6106.87
711.866	6201.08
712.054	6317.81
712.242	6260.47
712.43	6246.13
712.617	6233.85
712.805	6043.39
712.993	6043.39
713.181	5863.16
713.368	6022.91
713.556	5893.88
713.744	5639.94
713.931	5961.47
714.119	5822.2
714.306	5660.41
714.494	5852.92
714.682	5752.57
714.869	5678.85
715.057	5691.13
715.244	5574.4
715.432	5617.41
715.619	5619.46
715.807	5582.59
715.994	5568.26
716.182	5287.68
716.369	5521.15
716.556	5517.06
716.744	5285.64
716.931	5379.84
717.119	5340.93
717.306	5254.92
717.493	5222.15
717.681	5216.01
717.868	5181.19
718.055	5209.86
718.242	5173
718.43	5187.33
718.617	4982.54
718.804	5041.93
718.991	5041.93
719.179	5027.59
719.366	4960.01
719.553	4835.08
719.74	4943.63
719.927	4871.95
720.114	4753.16
720.301	4851.47
720.488	4751.12
720.676	4736.78
720.863	4716.3
721.05	4857.61
721.237	4632.33
721.424	4695.82
721.611	4607.76
721.798	4591.38
721.985	4509.46
722.172	4402.96
722.358	4462.35
722.545	4515.6
722.732	4456.21
722.919	4585.23
723.106	4384.53
723.293	4380.43
723.48	4542.22
723.667	4292.37
723.853	4368.15
724.04	4372.24
724.227	4405.01
724.414	4097.81
724.6	4259.6
724.787	4284.18
724.974	4198.17
725.161	4073.24
725.347	3952.41
725.534	4046.62
725.72	4132.63
725.907	4095.77
726.094	4069.14
726.28	4067.1
726.467	4101.91
726.653	3931.93
726.84	4040.47
727.027	4022.04
727.213	3858.2
727.4	3839.77
727.586	3845.91
727.773	3817.24
727.959	3792.67
728.145	3802.91
728.332	3755.8
728.518	3618.59
728.705	3659.55
728.891	3651.36
729.077	3702.56
729.264	3747.61
729.45	3632.93
729.636	3688.22
729.823	3501.86
730.009	3677.98
730.195	3522.34
730.382	3643.17
730.568	3587.87
730.754	3395.36
730.94	3477.28
731.126	3473.18
731.313	3288.87
731.499	3499.81
731.685	3532.58
731.871	3376.93
732.057	3301.15
732.243	3499.81
732.429	3165.99
732.615	3297.06
732.801	3413.79
732.987	3229.48
733.173	3176.23
733.359	3309.35
733.545	3213.09
733.731	3233.57
733.917	3135.27
734.103	3213.09
734.289	3180.32
734.475	3016.49
734.661	3127.08
734.847	3118.89
735.033	3147.56
735.219	3067.69
735.404	3030.82
735.59	3002.15
735.776	2905.9
735.962	3084.07
736.148	3094.31
736.333	2961.19
736.519	2809.64
736.705	2873.13
736.89	2836.27
737.076	2973.48
737.262	2879.27
737.447	2731.82
737.633	2803.5
737.819	2993.96
738.004	2764.59
738.19	2797.35
738.375	2690.86
738.561	2750.25
738.747	2737.96
738.932	2809.64
739.118	2678.57
739.303	2758.44
739.489	2744.11
739.674	2600.75
739.859	2625.33
740.045	2594.61
740.23	2594.61
740.416	2424.62
740.601	2649.9
740.786	2563.89
740.972	2500.4
741.157	2522.93
741.342	2477.87
741.528	2369.33
741.713	2572.08
741.898	2422.58
742.084	2416.43
742.269	2406.19
742.454	2553.65
742.639	2463.54
742.824	2373.43
743.01	2504.5
743.195	2348.85
743.38	2410.29
743.565	2297.65
743.75	2453.3
743.935	2467.63
744.12	2418.48
744.305	2211.64
744.49	2279.22
744.675	2373.43
744.86	2148.15
745.045	2164.53
745.23	2215.73
745.415	2182.96
745.6	2195.25
745.785	2211.64
745.97	2240.31
746.155	2055.99
746.34	2150.2
746.525	2152.24
746.71	2217.78
746.895	2080.57
747.079	1998.65
747.264	1957.69
747.449	2121.52
747.634	2176.82
747.819	2060.09
748.003	1941.3
748.188	1994.55
748.373	1996.6
748.557	2101.05
748.742	2019.13
748.927	1998.65
749.111	1890.1
749.296	1974.07
749.481	1996.6
749.665	1935.16
749.85	1926.97
750.034	1967.93
750.219	1838.91
750.404	1933.11
750.588	1910.58
750.773	1824.57
750.957	1959.74
751.141	1824.57
751.326	1804.09
751.51	1834.81
751.695	1759.03
751.879	1806.14
752.064	1849.15
752.248	1814.33
752.432	1783.61
752.617	1673.02
752.801	1802.04
752.985	1679.16
753.17	1771.32
753.354	1804.09
753.538	1779.51
753.722	1576.77
753.907	1681.21
754.091	1621.82
754.275	1617.72
754.459	1429.31
754.643	1580.86
754.828	1519.42
755.012	1642.3
755.196	1402.69
755.38	1595.2
755.564	1431.36
755.748	1609.53
755.932	1460.03
756.116	1533.76
756.3	1537.85
756.484	1513.28
756.668	1513.28
756.852	1402.69
757.036	1466.17
757.22	1464.13
757.404	1402.69
757.588	1453.89
757.772	1423.17
757.956	1408.83
758.14	1429.31
758.323	1298.24
758.507	1371.97
758.691	1410.88
758.875	1406.78
759.059	1406.78
759.242	1357.63
759.426	1361.73
759.61	1324.87
759.794	1294.15
759.977	1402.69
760.161	1410.88
760.345	1384.26
760.528	1408.83
760.712	1265.47
760.895	1310.53
761.079	1242.95
761.263	1318.72
761.446	1247.04
761.63	1310.53
761.813	1302.34
761.997	1263.43
762.18	1187.65
762.364	1326.91
762.547	1249.09
762.731	1150.79
762.914	1244.99
763.098	1244.99
763.281	1183.56
763.464	1212.23
763.648	1187.65
763.831	1206.08
764.015	1212.23
764.198	1285.95
764.381	1177.41
764.564	1171.27
764.748	1197.89
764.931	1230.66
765.114	1140.55
765.297	1195.84
765.481	1226.56
765.664	1175.36
765.847	1144.64
766.03	1208.13
766.213	1253.19
766.397	1070.92
766.58	1191.75
766.763	1191.75
766.946	1109.83
767.129	1103.68
767.312	1189.7
767.495	1146.69
767.678	1079.11
767.861	1154.88
768.044	1161.03
768.227	1115.97
768.41	1109.83
768.593	1154.88
768.776	1199.94
768.959	1120.07
769.142	1113.92
769.324	978.76
769.507	1021.77
769.69	1017.67
769.873	1044.29
770.056	1154.88
770.239	1097.54
770.421	1089.35
770.604	1128.26
770.787	1060.68
770.97	1083.2
771.152	1085.25
771.335	1158.98
771.518	1113.92
771.7	982.85
771.883	1142.6
772.066	970.57
772.248	1032.01
772.431	1085.25
772.613	1046.34
772.796	1021.77
772.978	1142.6
773.161	1113.92
773.343	952.13
773.526	1007.43
773.708	962.37
773.891	1122.12
774.073	1011.53
774.256	921.42
774.438	1109.83
774.621	935.75
774.803	982.85
774.985	921.42
775.168	929.61
775.35	907.08
775.532	993.09
775.715	905.03
775.897	880.46
776.079	952.13
776.261	970.57
776.444	954.18
776.626	1060.68
776.808	974.66
776.99	862.02
777.173	917.32
777.355	868.17
777.537	933.7
777.719	919.37
777.901	849.74
778.083	905.03
778.265	931.66
778.447	882.5
778.629	825.16
778.811	853.83
778.993	829.26
779.175	892.74
779.357	855.88
779.539	857.93
779.721	868.17
779.903	927.56
780.085	780.11
780.267	800.59
780.449	808.78
780.631	939.85
780.812	935.75
780.994	698.19
781.176	835.4
781.358	714.57
781.54	712.52
781.721	806.73
781.903	868.17
782.085	716.62
782.267	712.52
782.448	669.52
782.63	730.95
782.812	751.43
782.993	739.15
783.175	780.11
783.357	675.66
783.538	677.71
783.72	692.04
783.901	704.33
784.083	706.38
784.264	728.91
784.446	737.1
784.627	712.52
784.809	657.23
784.99	679.75
785.172	722.76
785.353	614.22
785.535	767.82
785.716	610.12
785.897	587.6
786.079	616.27
786.26	612.17
786.441	663.37
786.623	528.21
786.804	597.84
786.985	640.84
787.167	597.84
787.348	571.21
787.529	618.32
787.71	655.18
787.891	556.88
788.073	515.92
788.254	563.02
788.435	671.56
788.616	546.64
788.797	630.6
788.978	579.4
789.159	483.15
789.34	661.32
789.522	452.43
789.703	556.88
789.884	591.69
790.065	474.96
790.246	571.21
790.427	472.91
790.607	575.31
790.788	517.97
790.969	380.75
791.15	581.45
791.331	462.67
791.512	479.05
791.693	491.34
791.874	460.62
792.054	606.03
792.235	552.78
792.416	423.76
792.597	472.91
792.778	436.05
792.958	495.44
793.139	548.68
793.32	434
793.5	423.76
793.681	470.86
793.862	571.21
794.042	395.09
794.223	468.81
794.404	444.24
794.584	388.94
794.765	401.23
794.945	401.23
795.126	366.42
795.306	425.81
795.487	427.85
795.667	403.28
795.848	413.52
796.028	423.76
796.209	388.94
796.389	474.96
796.57	405.33
796.75	399.18
796.93	366.42
797.111	395.09
797.291	376.66
797.471	407.38
797.652	378.7
797.832	335.7
798.012	399.18
798.192	302.93
798.373	337.74
798.553	401.23
798.733	421.71
798.913	419.66
799.093	345.94
799.274	319.31
799.454	446.29
799.634	339.79
799.814	362.32
799.994	352.08
800.174	327.5
800.354	333.65
800.534	288.59
800.714	321.36
800.894	247.63
801.074	321.36
801.254	352.08
801.434	407.38
801.614	268.11
801.794	329.55
801.974	1154.88
802.154	333.65
802.334	378.7
802.514	284.5
802.693	288.59
802.873	319.31
803.053	354.13
803.233	366.42
803.413	302.93
803.592	331.6
803.772	325.46
803.952	362.32
804.131	231.25
804.311	364.37
804.491	401.23
804.67	268.11
804.85	239.44
805.03	397.14
805.209	360.27
805.389	261.97
805.568	247.63
805.748	198.48
805.928	270.16
806.107	345.94
806.287	325.46
806.466	300.88
806.646	296.78
806.825	331.6
807.004	259.92
807.184	268.11
807.363	235.35
807.543	315.22
807.722	180.05
807.901	378.7
808.081	241.49
808.26	173.91
808.439	257.87
808.619	253.78
808.798	221.01
808.977	227.15
809.156	325.46
809.336	278.35
809.515	266.07
809.694	175.95
809.873	261.97
810.052	257.87
810.231	294.74
810.411	223.06
810.59	292.69
810.769	214.87
810.948	253.78
811.127	175.95
811.306	227.15
811.485	155.47
811.664	282.45
811.843	276.31
812.022	192.34
812.201	214.87
812.38	311.12
812.559	182.1
812.737	208.72
812.916	231.25
813.095	128.85
813.274	239.44
813.453	200.53
813.632	231.25
813.811	233.3
813.989	198.48
814.168	296.78
814.347	175.95
814.526	200.53
814.704	145.24
814.883	276.31
815.062	151.38
815.24	253.78
815.419	157.52
815.598	173.91
815.776	108.37
815.955	175.95
816.133	139.09
816.312	206.67
816.49	137.04
816.669	268.11
816.847	145.24
817.026	223.06
817.204	225.11
817.383	163.67
817.561	147.28
817.74	233.3
817.918	192.34
818.097	130.9
818.275	200.53
818.453	204.63
818.632	169.81
818.81	178
818.988	106.32
819.167	104.28
819.345	178
819.523	126.8
819.701	180.05
819.879	108.37
820.058	157.52
820.236	137.04
820.414	188.24
820.592	190.29
820.77	190.29
820.948	69.46
821.127	130.9
821.305	110.42
821.483	137.04
821.661	182.1
821.839	67.41
822.017	89.94
822.195	83.8
822.373	135
822.551	309.07
822.729	161.62
822.907	126.8
823.085	173.91
823.262	100.18
823.44	42.84
823.618	137.04
823.796	130.9
823.974	153.43
824.152	83.8
824.329	153.43
824.507	143.19
824.685	130.9
824.863	132.95
825.04	128.85
825.218	178
825.396	157.52
825.574	157.52
825.751	157.52
825.929	128.85
826.107	85.84
826.284	171.86
826.462	118.61
826.639	178
826.817	81.75
826.994	143.19
827.172	87.89
827.349	233.3
827.527	118.61
827.704	161.62
827.882	163.67
828.059	118.61
828.237	124.76
828.414	141.14
828.591	67.41
828.769	124.76
828.946	112.47
829.124	94.04
829.301	163.67
829.478	194.39
829.655	63.32
829.833	83.8
830.01	-0.17
830.187	163.67
830.364	175.95
830.542	130.9
830.719	130.9
830.896	221.01
831.073	102.23
831.25	143.19
831.427	139.09
831.604	91.99
831.782	118.61
831.959	106.32
832.136	12.12
832.313	116.56
832.49	75.6
832.667	104.28
832.844	65.36
833.021	190.29
833.198	122.71
833.374	61.27
833.551	40.79
833.728	89.94
833.905	147.28
834.082	-24.75
834.259	171.86
834.436	128.85
834.612	116.56
834.789	110.42
834.966	132.95
835.143	73.56
835.319	20.31
835.496	147.28
835.673	180.05
835.85	122.71
836.026	184.15
836.203	122.71
836.38	55.12
836.556	69.46
836.733	108.37
836.909	165.71
837.086	63.32
837.262	73.56
837.439	126.8
837.616	100.18
837.792	120.66
837.968	73.56
838.145	34.64
838.321	104.28
838.498	124.76
838.674	132.95
838.851	112.47
839.027	26.45
839.203	112.47
839.38	159.57
839.556	75.6
839.732	163.67
839.909	104.28
840.085	71.51
840.261	28.5
840.437	85.84
840.614	16.21
840.79	100.18
840.966	83.8
841.142	151.38
841.318	55.12
841.494	126.8
841.671	132.95
841.847	83.8
842.023	20.31
842.199	145.24
842.375	143.19
842.551	122.71
842.727	14.17
842.903	124.76
843.079	-0.17
843.255	77.65
843.431	57.17
843.607	85.84
843.783	96.08
843.959	114.52
844.134	55.12
844.31	77.65
844.486	42.84
844.662	48.98
844.838	118.61
845.013	100.18
845.189	151.38
845.365	96.08
845.541	55.12
845.716	137.04
845.892	87.89
846.068	69.46
846.244	22.36
846.419	151.38
846.595	-10.41
846.77	40.79
846.946	128.85
847.122	1.88
847.297	55.12
847.473	87.89
847.648	-30.89
847.824	110.42
847.999	53.08
848.175	22.36
848.35	71.51
848.526	32.6
848.701	73.56
848.876	96.08
849.052	71.51
849.227	-0.17
849.403	63.32
849.578	5.97
849.753	30.55
849.929	24.4
850.104	57.17
850.279	-20.65
850.454	102.23
850.63	104.28
850.805	53.08
850.98	69.46
851.155	89.94
851.33	67.41
851.505	36.69
851.681	65.36
851.856	-0.17
852.031	85.84
852.206	67.41
852.381	87.89
852.556	75.6
852.731	102.23
852.906	190.29
853.081	128.85
853.256	71.51
853.431	102.23
853.606	57.17
853.781	85.84
853.956	-24.75
854.131	24.4
854.305	89.94
854.48	-14.51
854.655	34.64
854.83	-22.7
855.005	18.26
855.18	-0.17
855.354	-2.22
855.529	79.7
855.704	8.02
855.879	122.71
856.053	46.93
856.228	61.27
856.403	63.32
856.577	104.28
856.752	-32.94
856.926	30.55
857.101	71.51
857.276	22.36
857.45	32.6
857.625	57.17
857.799	139.09
857.974	42.84
858.148	14.17
858.323	77.65
858.497	53.08
858.672	16.21
858.846	26.45
859.02	77.65
859.195	-0.17
859.369	53.08
859.543	44.88
859.718	5.97
859.892	32.6
860.066	69.46
860.241	46.93
860.415	30.55
860.589	71.51
860.763	10.07
860.938	-0.17
861.112	110.42
861.286	42.84
861.46	-12.46
861.634	-49.32
861.808	135
861.982	34.64
862.157	-30.89
862.331	14.17
862.505	28.5
862.679	36.69
862.853	87.89
863.027	75.6
863.201	71.51
863.375	1.88
863.549	10.07
863.722	51.03
863.896	110.42
864.07	36.69
864.244	53.08
864.418	130.9
864.592	104.28
864.766	55.12
864.939	44.88
865.113	36.69
865.287	55.12
865.461	12.12
865.634	53.08
865.808	14.17
865.982	-12.46
866.156	-0.17
866.329	18.26
866.503	79.7
866.676	30.55
866.85	14.17
867.024	40.79
867.197	59.22
867.371	40.79
867.544	24.4
867.718	28.5
867.891	163.67
868.065	10.07
868.238	57.17
868.412	149.33
868.585	100.18
868.759	61.27
868.932	-0.17
869.105	5.97
869.279	16.21
869.452	20.31
869.625	59.22
869.799	42.84
869.972	-34.99
870.145	-24.75
870.319	89.94
870.492	44.88
870.665	10.07
870.838	57.17
871.011	-49.32
871.185	24.4
871.358	44.88
871.531	-0.17
871.704	-24.75
871.877	89.94
872.05	20.31
872.223	-41.13
872.396	30.55
872.569	75.6
872.742	-2.22
872.915	83.8
873.088	5.97
873.261	-8.36
873.434	46.93
873.607	32.6
873.78	71.51
873.953	-26.79
874.126	48.98
874.299	112.47
874.471	-16.55
874.644	18.26
874.817	65.36
874.99	130.9
875.163	61.27
875.335	69.46
875.508	81.75
875.681	165.71
875.853	-24.75
876.026	57.17
876.199	79.7
876.371	5.97
876.544	-6.31
876.717	-12.46
876.889	8.02
877.062	85.84
877.234	-49.32
877.407	10.07
877.579	-41.13
877.752	42.84
877.924	24.4
878.097	81.75
878.269	12.12
878.442	3.93
878.614	57.17
878.786	91.99
878.959	81.75
879.131	-49.32
879.303	-86.19
879.476	-2.22
879.648	-14.51
879.82	67.41
879.993	-8.36
880.165	-53.42
880.337	18.26
880.509	-43.18
880.681	-14.51
880.854	24.4
881.026	44.88
881.198	114.52
881.37	-8.36
881.542	71.51
881.714	-8.36
881.886	-6.31
882.058	-12.46
882.23	24.4
882.402	5.97
882.574	61.27
882.746	59.22
882.918	24.4
883.09	32.6
883.262	-2.22
883.434	1.88
883.606	-10.41
883.778	48.98
883.95	128.85
884.122	-39.08
884.293	59.22
884.465	106.32
884.637	139.09
884.809	-18.6
884.98	83.8
885.152	-4.27
885.324	40.79
885.496	-12.46
885.667	26.45
885.839	30.55
886.011	89.94
886.182	24.4
886.354	38.74
886.525	1.88
886.697	14.17
886.869	57.17
887.04	-28.84
887.212	67.41
887.383	53.08
887.555	-4.27
887.726	-14.51
887.897	-57.51
888.069	36.69
888.24	22.36
888.412	-4.27
888.583	-14.51
888.754	36.69
888.926	-82.09
889.097	-55.47
889.268	20.31
889.44	12.12
889.611	-8.36
889.782	-84.14
889.953	-98.47
890.125	48.98
890.296	-82.09
890.467	-24.75
890.638	-34.99
890.809	61.27
890.98	32.6
891.151	44.88
891.323	130.9
891.494	-0.17
891.665	42.84
891.836	-18.6
892.007	8.02
892.178	48.98
892.349	55.12
892.52	20.31
892.691	83.8
892.862	22.36
893.032	-16.55
893.203	12.12
893.374	24.4
893.545	75.6
893.716	26.45
893.887	10.07
894.057	-0.17
894.228	30.55
894.399	-30.89
894.57	18.26
894.74	61.27
894.911	36.69
895.082	26.45
895.253	48.98
895.423	12.12
895.594	-20.65
895.764	75.6
895.935	16.21
896.106	-2.22
896.276	-14.51
896.447	-6.31
896.617	12.12
896.788	55.12
896.958	-10.41
897.129	10.07
897.299	16.21
897.47	30.55
897.64	51.03
897.81	-75.95
897.981	65.36
898.151	-77.99
898.322	32.6
898.492	28.5
898.662	-4.27
898.832	-37.03
899.003	69.46
899.173	-6.31
899.343	-73.9
899.513	-22.7
