Data from USB4F104151__43__12-12-03-907.txt Node

Date: Fri Mar 14 12:12:03 EDT 2025
User: louis
Spectrometer: USB4F10415
Trigger mode: 4
Integration Time (sec): 5.000000E-2
Scans to average: 1
Electric dark correction enabled: true
Nonlinearity correction enabled: false
Boxcar width: 0
XAxis mode: Wavelengths
Number of Pixels in Spectrum: 3648
>>>>>Begin Spectral Data<<<<<
178.204	-146.94
178.424	-146.94
178.644	-146.94
178.864	-275.96
179.084	-159.23
179.304	-52.74
179.524	43.52
179.744	-60.93
179.964	96.77
180.184	6.66
180.404	-11.78
180.624	16.9
180.844	-3.58
181.064	-38.4
181.283	-19.97
181.503	-15.87
181.723	39.42
181.943	-52.74
182.163	207.36
182.383	20.99
182.602	102.91
182.822	53.76
183.042	61.95
183.262	-11.78
183.482	47.62
183.701	59.9
183.921	37.38
184.141	-60.93
184.361	92.67
184.58	-30.21
184.8	-52.74
185.02	23.04
185.239	121.34
185.459	53.76
185.679	59.9
185.898	-15.87
186.118	2.56
186.338	-22.02
186.557	55.81
186.777	61.95
186.997	31.23
187.216	43.52
187.436	88.57
187.655	33.28
187.875	102.91
188.095	4.61
188.314	119.29
188.534	64
188.753	43.52
188.973	37.38
189.192	96.77
189.412	82.43
189.631	107.01
189.851	82.43
190.07	115.2
190.29	-36.35
190.509	53.76
190.729	109.05
190.948	107.01
191.168	285.18
191.387	113.15
191.607	29.18
191.826	-1.54
192.045	18.94
192.265	31.23
192.484	39.42
192.704	-7.68
192.923	29.18
193.142	82.43
193.362	94.72
193.581	154.11
193.8	121.34
194.02	78.33
194.239	74.24
194.458	39.42
194.678	16.9
194.897	98.81
195.116	16.9
195.335	107.01
195.555	61.95
195.774	74.24
195.993	64
196.212	80.38
196.432	8.7
196.651	111.1
196.87	12.8
197.089	217.6
197.308	125.44
197.528	68.09
197.747	10.75
197.966	88.57
198.185	102.91
198.404	72.19
198.623	41.47
198.842	35.33
199.062	39.42
199.281	111.1
199.5	51.71
199.719	84.48
199.938	39.42
200.157	115.2
200.376	88.57
200.595	125.44
200.814	115.2
201.033	8.7
201.252	156.16
201.471	47.62
201.69	84.48
201.909	78.33
202.128	66.05
202.347	-3.58
202.566	125.44
202.785	12.8
203.004	2.56
203.223	184.83
203.442	43.52
203.661	23.04
203.879	29.18
204.098	98.81
204.317	4.61
204.536	66.05
204.755	39.42
204.974	74.24
205.193	-58.88
205.411	147.97
205.63	2.56
205.849	53.76
206.068	37.38
206.287	107.01
206.505	55.81
206.724	45.57
206.943	86.53
207.162	12.8
207.381	59.9
207.599	49.66
207.818	70.14
208.037	-30.21
208.255	33.28
208.474	70.14
208.693	158.21
208.911	45.57
209.13	98.81
209.349	45.57
209.567	94.72
209.786	94.72
210.005	35.33
210.223	82.43
210.442	47.62
210.661	29.18
210.879	43.52
211.098	20.99
211.316	25.09
211.535	129.53
211.753	111.1
211.972	8.7
212.191	25.09
212.409	55.81
212.628	72.19
212.846	2.56
213.065	47.62
213.283	104.96
213.502	37.38
213.72	25.09
213.938	43.52
214.157	86.53
214.375	88.57
214.594	70.14
214.812	72.19
215.031	92.67
215.249	2.56
215.467	82.43
215.686	14.85
215.904	55.81
216.122	16.9
216.341	135.68
216.559	23.04
216.778	119.29
216.996	135.68
217.214	47.62
217.432	27.14
217.651	41.47
217.869	59.9
218.087	49.66
218.306	16.9
218.524	35.33
218.742	-3.58
218.96	104.96
219.179	4.61
219.397	18.94
219.615	127.49
219.833	57.86
220.051	25.09
220.27	51.71
220.488	70.14
220.706	94.72
220.924	41.47
221.142	-7.68
221.36	72.19
221.578	80.38
221.796	74.24
222.015	86.53
222.233	33.28
222.451	180.73
222.669	39.42
222.887	129.53
223.105	57.86
223.323	25.09
223.541	16.9
223.759	76.29
223.977	88.57
224.195	104.96
224.413	92.67
224.631	90.62
224.849	72.19
225.067	129.53
225.285	23.04
225.503	43.52
225.721	-99.84
225.939	25.09
226.157	18.94
226.375	143.87
226.592	2.56
226.81	31.23
227.028	135.68
227.246	115.2
227.464	72.19
227.682	188.93
227.9	76.29
228.117	96.77
228.335	66.05
228.553	111.1
228.771	117.25
228.989	45.57
229.206	88.57
229.424	-36.35
229.642	-15.87
229.86	74.24
230.077	102.91
230.295	94.72
230.513	92.67
230.731	98.81
230.948	111.1
231.166	127.49
231.384	-24.06
231.601	61.95
231.819	70.14
232.037	76.29
232.254	107.01
232.472	37.38
232.689	29.18
232.907	94.72
233.125	68.09
233.342	74.24
233.56	12.8
233.777	154.11
233.995	12.8
234.213	12.8
234.43	37.38
234.648	51.71
234.865	27.14
235.083	39.42
235.3	35.33
235.518	98.81
235.735	98.81
235.953	84.48
236.17	25.09
236.388	2.56
236.605	121.34
236.822	102.91
237.04	131.58
237.257	150.01
237.475	33.28
237.692	53.76
237.909	90.62
238.127	41.47
238.344	57.86
238.562	23.04
238.779	49.66
238.996	31.23
239.214	72.19
239.431	39.42
239.648	23.04
239.865	68.09
240.083	78.33
240.3	20.99
240.517	113.15
240.735	70.14
240.952	104.96
241.169	90.62
241.386	61.95
241.603	47.62
241.821	53.76
242.038	39.42
242.255	100.86
242.472	47.62
242.689	68.09
242.907	35.33
243.124	14.85
243.341	6.66
243.558	35.33
243.775	37.38
243.992	37.38
244.209	70.14
244.426	104.96
244.643	25.09
244.86	45.57
245.078	45.57
245.295	41.47
245.512	119.29
245.729	12.8
245.946	72.19
246.163	39.42
246.38	35.33
246.597	78.33
246.814	37.38
247.031	82.43
247.248	59.9
247.464	61.95
247.681	84.48
247.898	107.01
248.115	76.29
248.332	6.66
248.549	121.34
248.766	102.91
248.983	119.29
249.2	41.47
249.417	119.29
249.633	-5.63
249.85	100.86
250.067	43.52
250.284	115.2
250.501	145.92
250.717	115.2
250.934	8.7
251.151	31.23
251.368	64
251.585	72.19
251.801	111.1
252.018	70.14
252.235	117.25
252.451	-22.02
252.668	-17.92
252.885	61.95
253.102	102.91
253.318	37.38
253.535	78.33
253.752	2.56
253.968	121.34
254.185	-13.82
254.401	-3.58
254.618	133.63
254.835	20.99
255.051	170.49
255.268	90.62
255.484	86.53
255.701	-3.58
255.917	121.34
256.134	-19.97
256.351	12.8
256.567	10.75
256.784	39.42
257	-7.68
257.217	131.58
257.433	74.24
257.65	55.81
257.866	61.95
258.082	31.23
258.299	49.66
258.515	131.58
258.732	-5.63
258.948	-11.78
259.165	156.16
259.381	18.94
259.597	31.23
259.814	18.94
260.03	39.42
260.246	76.29
260.463	76.29
260.679	78.33
260.895	102.91
261.112	158.21
261.328	53.76
261.544	31.23
261.761	197.12
261.977	113.15
262.193	23.04
262.409	47.62
262.626	84.48
262.842	66.05
263.058	35.33
263.274	94.72
263.49	64
263.707	115.2
263.923	-1.54
264.139	2.56
264.355	35.33
264.571	141.82
264.787	-13.82
265.004	57.86
265.22	80.38
265.436	53.76
265.652	66.05
265.868	135.68
266.084	20.99
266.3	64
266.516	64
266.732	6.66
266.948	23.04
267.164	90.62
267.38	145.92
267.596	70.14
267.812	102.91
268.028	53.76
268.244	66.05
268.46	64
268.676	-7.68
268.892	-3.58
269.108	-1.54
269.324	64
269.54	-26.11
269.756	137.73
269.972	41.47
270.188	37.38
270.403	-9.73
270.619	29.18
270.835	-7.68
271.051	59.9
271.267	-11.78
271.483	66.05
271.698	119.29
271.914	12.8
272.13	80.38
272.346	-1.54
272.562	51.71
272.777	113.15
272.993	14.85
273.209	49.66
273.425	16.9
273.64	-13.82
273.856	57.86
274.072	76.29
274.287	55.81
274.503	90.62
274.719	61.95
274.934	29.18
275.15	61.95
275.366	37.38
275.581	-34.3
275.797	57.86
276.012	-28.16
276.228	-5.63
276.444	0.51
276.659	170.49
276.875	-30.21
277.09	-11.78
277.306	94.72
277.521	86.53
277.737	35.33
277.952	107.01
278.168	96.77
278.383	88.57
278.599	111.1
278.814	55.81
279.03	-7.68
279.245	115.2
279.461	53.76
279.676	76.29
279.892	57.86
280.107	12.8
280.322	4.61
280.538	33.28
280.753	57.86
280.969	92.67
281.184	76.29
281.399	98.81
281.615	64
281.83	94.72
282.045	4.61
282.26	37.38
282.476	4.61
282.691	129.53
282.906	55.81
283.122	102.91
283.337	23.04
283.552	82.43
283.767	12.8
283.983	68.09
284.198	88.57
284.413	61.95
284.628	-26.11
284.843	41.47
285.058	23.04
285.274	25.09
285.489	-11.78
285.704	55.81
285.919	16.9
286.134	43.52
286.349	70.14
286.564	61.95
286.779	53.76
286.995	72.19
287.21	41.47
287.425	127.49
287.64	-28.16
287.855	64
288.07	18.94
288.285	94.72
288.5	29.18
288.715	127.49
288.93	27.14
289.145	14.85
289.36	147.97
289.575	35.33
289.79	31.23
290.004	57.86
290.219	66.05
290.434	47.62
290.649	70.14
290.864	90.62
291.079	82.43
291.294	-7.68
291.509	82.43
291.724	45.57
291.938	100.86
292.153	100.86
292.368	84.48
292.583	119.29
292.798	80.38
293.012	31.23
293.227	8.7
293.442	-30.21
293.657	119.29
293.871	92.67
294.086	82.43
294.301	195.07
294.516	66.05
294.73	35.33
294.945	-3.58
295.16	78.33
295.374	53.76
295.589	82.43
295.804	39.42
296.018	57.86
296.233	127.49
296.447	53.76
296.662	-54.78
296.877	180.73
297.091	51.71
297.306	55.81
297.52	57.86
297.735	74.24
297.949	88.57
298.164	72.19
298.378	27.14
298.593	6.66
298.807	-15.87
299.022	61.95
299.236	172.54
299.451	35.33
299.665	66.05
299.88	72.19
300.094	47.62
300.309	23.04
300.523	45.57
300.737	0.51
300.952	37.38
301.166	57.86
301.381	92.67
301.595	94.72
301.809	-30.21
302.024	4.61
302.238	6.66
302.452	125.44
302.667	98.81
302.881	64
303.095	86.53
303.309	98.81
303.524	76.29
303.738	59.9
303.952	35.33
304.166	88.57
304.381	-3.58
304.595	92.67
304.809	27.14
305.023	94.72
305.237	74.24
305.452	6.66
305.666	119.29
305.88	117.25
306.094	88.57
306.308	70.14
306.522	102.91
306.736	84.48
306.95	139.77
307.164	0.51
307.379	35.33
307.593	72.19
307.807	78.33
308.021	98.81
308.235	102.91
308.449	-5.63
308.663	127.49
308.877	133.63
309.091	98.81
309.305	78.33
309.519	-62.98
309.733	68.09
309.947	37.38
310.161	123.39
310.374	66.05
310.588	170.49
310.802	23.04
311.016	23.04
311.23	8.7
311.444	2.56
311.658	33.28
311.872	31.23
312.085	109.05
312.299	68.09
312.513	4.61
312.727	31.23
312.941	-17.92
313.154	55.81
313.368	64
313.582	47.62
313.796	78.33
314.009	53.76
314.223	107.01
314.437	39.42
314.651	82.43
314.864	25.09
315.078	57.86
315.292	0.51
315.505	49.66
315.719	84.48
315.933	-24.06
316.146	51.71
316.36	57.86
316.573	98.81
316.787	113.15
317.001	121.34
317.214	23.04
317.428	121.34
317.641	45.57
317.855	45.57
318.068	76.29
318.282	119.29
318.495	164.35
318.709	154.11
318.922	107.01
319.136	170.49
319.349	47.62
319.563	51.71
319.776	57.86
319.99	-40.45
320.203	72.19
320.417	80.38
320.63	80.38
320.843	100.86
321.057	104.96
321.27	94.72
321.483	80.38
321.697	172.54
321.91	80.38
322.124	104.96
322.337	61.95
322.55	72.19
322.763	68.09
322.977	102.91
323.19	104.96
323.403	76.29
323.617	43.52
323.83	78.33
324.043	111.1
324.256	45.57
324.469	102.91
324.683	147.97
324.896	94.72
325.109	84.48
325.322	8.7
325.535	127.49
325.748	55.81
325.962	45.57
326.175	92.67
326.388	41.47
326.601	119.29
326.814	61.95
327.027	-1.54
327.24	139.77
327.453	-3.58
327.666	76.29
327.879	119.29
328.092	70.14
328.305	33.28
328.518	66.05
328.731	55.81
328.944	35.33
329.157	70.14
329.37	76.29
329.583	178.69
329.796	127.49
330.009	82.43
330.222	61.95
330.435	84.48
330.648	104.96
330.861	78.33
331.073	47.62
331.286	88.57
331.499	47.62
331.712	51.71
331.925	53.76
332.138	117.25
332.35	107.01
332.563	39.42
332.776	57.86
332.989	-46.59
333.202	78.33
333.414	94.72
333.627	39.42
333.84	27.14
334.053	47.62
334.265	25.09
334.478	68.09
334.691	61.95
334.903	51.71
335.116	49.66
335.329	-3.58
335.541	27.14
335.754	84.48
335.966	59.9
336.179	94.72
336.392	-34.3
336.604	51.71
336.817	102.91
337.029	84.48
337.242	-1.54
337.454	90.62
337.667	90.62
337.88	53.76
338.092	117.25
338.305	170.49
338.517	4.61
338.729	135.68
338.942	125.44
339.154	64
339.367	10.75
339.579	70.14
339.792	-22.02
340.004	119.29
340.217	-44.54
340.429	-34.3
340.641	-9.73
340.854	66.05
341.066	25.09
341.278	113.15
341.491	111.1
341.703	90.62
341.915	20.99
342.128	94.72
342.34	49.66
342.552	14.85
342.764	121.34
342.977	80.38
343.189	27.14
343.401	35.33
343.613	53.76
343.826	51.71
344.038	-5.63
344.25	59.9
344.462	111.1
344.674	55.81
344.886	100.86
345.099	76.29
345.311	127.49
345.523	96.77
345.735	8.7
345.947	98.81
346.159	45.57
346.371	53.76
346.583	70.14
346.795	190.97
347.007	80.38
347.219	53.76
347.431	74.24
347.643	143.87
347.855	78.33
348.067	129.53
348.279	-22.02
348.491	98.81
348.703	88.57
348.915	45.57
349.127	86.53
349.339	64
349.551	80.38
349.763	143.87
349.975	20.99
350.187	92.67
350.399	143.87
350.61	45.57
350.822	43.52
351.034	111.1
351.246	59.9
351.458	117.25
351.669	49.66
351.881	94.72
352.093	158.21
352.305	188.93
352.517	43.52
352.728	92.67
352.94	92.67
353.152	145.92
353.363	64
353.575	72.19
353.787	80.38
353.999	135.68
354.21	135.68
354.422	59.9
354.633	68.09
354.845	123.39
355.057	18.94
355.268	94.72
355.48	127.49
355.692	47.62
355.903	131.58
356.115	23.04
356.326	-36.35
356.538	180.73
356.749	16.9
356.961	160.25
357.172	88.57
357.384	33.28
357.595	125.44
357.807	57.86
358.018	111.1
358.23	82.43
358.441	143.87
358.653	76.29
358.864	129.53
359.075	6.66
359.287	117.25
359.498	59.9
359.709	90.62
359.921	55.81
360.132	109.05
360.344	4.61
360.555	55.81
360.766	88.57
360.977	70.14
361.189	109.05
361.4	72.19
361.611	150.01
361.823	96.77
362.034	113.15
362.245	88.57
362.456	125.44
362.667	0.51
362.879	115.2
363.09	102.91
363.301	84.48
363.512	104.96
363.723	86.53
363.935	104.96
364.146	164.35
364.357	88.57
364.568	86.53
364.779	55.81
364.99	170.49
365.201	82.43
365.412	78.33
365.623	-38.4
365.834	104.96
366.045	45.57
366.256	172.54
366.467	150.01
366.678	35.33
366.889	100.86
367.1	125.44
367.311	68.09
367.522	100.86
367.733	8.7
367.944	47.62
368.155	-19.97
368.366	76.29
368.577	72.19
368.788	86.53
368.999	96.77
369.209	57.86
369.42	254.46
369.631	107.01
369.842	115.2
370.053	61.95
370.264	156.16
370.474	-22.02
370.685	168.45
370.896	74.24
371.107	111.1
371.317	55.81
371.528	68.09
371.739	72.19
371.95	96.77
372.16	94.72
372.371	45.57
372.582	-5.63
372.792	57.86
373.003	121.34
373.214	74.24
373.424	152.06
373.635	88.57
373.846	154.11
374.056	113.15
374.267	51.71
374.477	90.62
374.688	82.43
374.898	133.63
375.109	82.43
375.319	70.14
375.53	129.53
375.74	166.4
375.951	74.24
376.161	121.34
376.372	86.53
376.582	98.81
376.793	47.62
377.003	80.38
377.214	92.67
377.424	100.86
377.635	143.87
377.845	72.19
378.055	123.39
378.266	14.85
378.476	98.81
378.686	14.85
378.897	109.05
379.107	119.29
379.317	123.39
379.528	-5.63
379.738	64
379.948	55.81
380.158	90.62
380.369	78.33
380.579	113.15
380.789	43.52
380.999	80.38
381.21	121.34
381.42	195.07
381.63	123.39
381.84	94.72
382.05	104.96
382.261	94.72
382.471	203.26
382.681	37.38
382.891	195.07
383.101	121.34
383.311	35.33
383.521	82.43
383.731	164.35
383.941	143.87
384.151	31.23
384.361	70.14
384.571	102.91
384.781	127.49
384.991	150.01
385.201	143.87
385.411	107.01
385.621	115.2
385.831	39.42
386.041	100.86
386.251	84.48
386.461	113.15
386.671	47.62
386.881	121.34
387.091	90.62
387.301	176.64
387.511	104.96
387.72	68.09
387.93	33.28
388.14	47.62
388.35	129.53
388.56	43.52
388.769	166.4
388.979	53.76
389.189	84.48
389.399	55.81
389.609	166.4
389.818	137.73
390.028	147.97
390.238	119.29
390.447	92.67
390.657	123.39
390.867	115.2
391.076	59.9
391.286	115.2
391.496	90.62
391.705	66.05
391.915	129.53
392.125	164.35
392.334	113.15
392.544	145.92
392.753	135.68
392.963	88.57
393.172	164.35
393.382	25.09
393.591	143.87
393.801	72.19
394.01	207.36
394.22	188.93
394.429	137.73
394.639	78.33
394.848	64
395.058	107.01
395.267	72.19
395.477	94.72
395.686	137.73
395.895	186.88
396.105	250.36
396.314	166.4
396.524	143.87
396.733	102.91
396.942	180.73
397.152	150.01
397.361	201.21
397.57	131.58
397.78	160.25
397.989	186.88
398.198	285.18
398.407	180.73
398.617	78.33
398.826	143.87
399.035	205.31
399.244	221.69
399.453	219.64
399.663	238.08
399.872	252.41
400.081	102.91
400.29	188.93
400.499	184.83
400.708	225.79
400.917	145.92
401.127	184.83
401.336	182.78
401.545	231.93
401.754	281.08
401.963	168.45
402.172	147.97
402.381	125.44
402.59	197.12
402.799	193.02
403.008	193.02
403.217	209.4
403.426	180.73
403.635	209.4
403.844	213.5
404.053	180.73
404.262	229.88
404.471	317.95
404.68	227.84
404.888	199.16
405.097	170.49
405.306	186.88
405.515	250.36
405.724	309.76
405.933	279.04
406.142	246.27
406.35	254.46
406.559	315.9
406.768	305.66
406.977	352.76
407.185	305.66
407.394	381.43
407.603	326.14
407.812	342.52
408.02	365.05
408.229	342.52
408.438	395.77
408.646	383.48
408.855	330.23
409.064	434.68
409.272	412.15
409.481	477.69
409.69	489.98
409.898	416.25
410.107	477.69
410.315	506.36
410.524	455.16
410.733	604.66
410.941	504.31
411.15	610.81
411.358	645.62
411.567	674.29
411.775	686.58
411.984	686.58
412.192	700.92
412.401	664.05
412.609	805.36
412.818	809.46
413.026	811.51
413.234	803.32
413.443	883.19
413.651	801.27
413.86	821.75
414.068	995.82
414.276	1018.35
414.485	977.39
414.693	1085.94
414.901	1085.94
415.11	1204.72
415.318	1180.14
415.526	1212.91
415.734	1237.49
415.943	1282.54
416.151	1389.03
416.359	1239.53
416.567	1434.09
416.776	1446.38
416.984	1434.09
417.192	1567.21
417.4	1626.6
417.608	1571.3
417.817	1640.93
418.025	1776.1
418.233	1898.98
418.441	1831.4
418.649	1989.09
418.857	2030.05
419.065	2134.5
419.273	1995.23
419.481	2193.89
419.689	2255.33
419.897	2275.81
420.105	2466.27
420.313	2417.12
420.521	2642.39
420.729	2570.71
420.937	2527.71
421.145	2886.1
421.353	2925.01
421.561	3088.85
421.769	3103.18
421.977	3103.18
422.185	3099.09
422.393	3307.98
422.601	3684.81
422.809	3606.98
423.017	3518.92
423.224	3670.47
423.432	3834.31
423.64	3940.8
423.848	4305.34
424.056	4114.88
424.263	4452.8
424.471	4512.19
424.679	4551.1
424.887	4772.28
425.094	4897.21
425.302	5028.28
425.51	5157.3
425.718	5233.07
425.925	5347.76
426.133	5591.47
426.341	6019.49
426.548	6042.02
426.756	6121.89
426.964	6367.65
427.171	6527.39
427.379	6726.04
427.586	6767
427.794	7041.43
428.001	7524.75
428.209	7596.43
428.417	7565.71
428.624	8089.99
428.832	8028.55
429.039	7815.56
429.247	8010.12
429.454	8776.06
429.662	9189.75
429.869	8728.95
430.076	9277.81
430.284	9017.72
430.491	9329.01
430.699	9845.1
430.906	9863.53
431.114	10084.71
431.321	10221.92
431.528	10565.98
431.736	11288.92
431.943	11737.42
432.15	11254.1
432.358	11688.27
432.565	12349.76
432.772	12192.07
432.979	12693.82
433.187	13005.11
433.394	13017.4
433.601	13857.07
433.808	14176.55
434.016	14162.22
434.223	14524.71
434.43	15110.43
434.637	15079.71
434.844	15665.42
435.052	16113.93
435.259	16052.49
435.466	16150.79
435.673	16146.7
435.88	17418.49
436.087	17907.95
436.294	17852.66
436.501	17406.2
436.708	17778.93
436.915	18413.8
437.122	18983.13
437.329	18917.6
437.537	19712.21
437.743	20312.27
437.95	19876.05
438.157	21012.67
438.364	21717.17
438.571	21657.78
438.778	21840.05
438.985	23904.4
439.192	22655.14
439.399	23220.38
439.606	22931.62
439.813	23902.36
440.02	25913.46
440.227	25073.79
440.433	24903.81
440.64	25989.24
440.847	25464.96
441.054	26130.55
441.261	27826.26
441.467	27240.54
441.674	28217.43
441.881	29106.24
442.088	28723.27
442.294	28868.68
442.501	29116.48
442.708	29835.32
442.914	30963.75
443.121	32264.21
443.328	31227.94
443.534	33703.93
443.741	32526.35
443.948	32170.01
444.154	34631.66
444.361	34267.13
444.568	34625.52
444.774	34527.22
444.981	34891.76
445.187	36077.53
445.394	36980.68
445.6	36794.32
445.807	40163.23
446.013	38604.72
446.22	39462.82
446.426	40413.08
446.633	40662.93
446.839	42168.19
447.046	40402.84
447.252	42631.03
447.459	42952.56
447.665	42442.62
447.871	44459.87
448.078	46014.27
448.284	44257.12
448.491	44760.92
448.697	46509.88
448.903	47480.62
449.11	47499.05
449.316	46731.06
449.522	47621.93
449.728	48828.18
449.935	49215.25
450.141	49211.15
450.347	50056.96
450.553	48201.5
450.76	48881.43
450.966	50120.45
451.172	49948.42
451.378	51142.39
451.584	50073.35
451.791	51261.17
451.997	50843.38
452.203	51568.37
452.409	51240.69
452.615	51457.77
452.821	49512.2
453.027	49329.94
453.233	51312.37
453.44	49284.88
453.646	49837.83
453.852	50261.76
454.058	50923.25
454.264	48975.64
454.47	50265.86
454.676	48830.23
454.882	50450.17
455.088	46296.89
455.294	46761.78
455.5	47437.61
455.705	47759.14
455.911	45729.61
456.117	45234
456.323	44521.3
456.529	42096.51
456.735	43589.48
456.941	42792.82
457.147	41594.76
457.352	40667.03
457.558	40191.9
457.764	39942.05
457.97	39071.66
458.176	38627.25
458.381	38481.84
458.587	36962.25
458.793	36585.43
458.999	34664.43
459.204	37203.91
459.41	35880.92
459.616	33386.5
459.821	33884.15
460.027	33613.82
460.233	32696.33
460.438	31182.88
460.644	31375.39
460.85	29622.33
461.055	29290.56
461.261	29243.46
461.466	27091.04
461.672	26202.22
461.878	28045.4
462.083	26273.9
462.289	25614.46
462.494	25428.09
462.7	24262.8
462.905	23722.13
463.111	24287.37
463.316	24385.68
463.522	24064.14
463.727	23986.32
463.932	23756.95
464.138	23892.12
464.343	23644.31
464.549	23181.47
464.754	23603.35
464.959	23468.19
465.165	23355.55
465.37	22403.24
465.575	21592.25
465.781	22460.59
465.986	22847.65
466.191	21717.17
466.397	21196.99
466.602	20021.45
466.807	20873.41
467.012	21076.16
467.218	20949.18
467.423	20611.27
467.628	20492.49
467.833	21924.02
468.038	20781.25
468.244	20357.32
468.449	21031.1
468.654	20099.28
468.859	19810.51
469.064	19687.64
469.269	19030.24
469.474	19316.95
469.679	19570.9
469.885	19157.21
470.09	19212.51
470.295	19267.8
470.5	18495.72
470.705	18569.44
470.91	18278.63
471.115	18122.99
471.32	18544.87
471.525	18393.32
471.73	17664.24
471.935	17887.47
472.139	17244.41
472.344	17275.13
472.549	17043.71
472.754	17330.42
472.959	16666.88
473.164	16337.16
473.369	16216.33
473.574	16382.21
473.778	16107.79
473.983	16169.23
474.188	16187.66
474.393	15423.76
474.598	15491.35
474.802	15255.83
475.007	15241.5
475.212	15288.6
475.417	14491.94
475.621	14864.67
475.826	14473.51
476.031	14377.25
476.235	14188.84
476.44	14500.13
476.645	13981.99
476.849	14053.67
477.054	13912.36
477.259	13672.75
477.463	13525.3
477.668	13265.21
477.872	13390.13
478.077	13068.6
478.282	12773.69
478.486	12650.81
478.691	12638.53
478.895	12759.36
479.1	12503.36
479.304	12640.58
479.509	12106.06
479.713	12374.34
479.918	12048.71
480.122	11886.92
480.326	11964.75
480.531	12175.69
480.735	11850.06
480.94	11725.13
481.144	12030.28
481.348	11530.58
481.553	11825.48
481.757	11376.98
481.961	11336.02
482.166	11704.65
482.37	11467.09
482.574	11407.7
482.778	11399.51
482.983	11747.66
483.187	11495.76
483.391	11620.69
483.595	11399.51
483.8	11430.23
484.004	11491.66
484.208	11704.65
484.412	11262.29
484.616	11391.31
484.821	11503.95
485.025	11323.73
485.229	11458.9
485.433	11284.82
485.637	11247.96
485.841	11229.52
486.045	11360.59
486.249	11223.38
486.453	11163.99
486.657	11198.81
486.861	11436.37
487.065	11112.79
487.269	11338.07
487.473	10836.31
487.677	11301.2
487.881	11520.34
488.085	11157.85
488.289	11374.93
488.493	11235.67
488.697	11368.79
488.901	11221.33
489.105	11293.01
489.309	11383.12
489.512	11651.41
489.716	11483.47
489.92	11579.73
490.124	11321.68
490.328	11598.16
490.531	11471.18
490.735	11639.12
490.939	11688.27
491.143	11544.91
491.346	11616.59
491.55	11755.85
491.754	11528.53
491.958	11727.18
492.161	11780.43
492.365	11768.14
492.569	11778.38
492.772	11893.07
492.976	11882.83
493.18	11938.12
493.383	12030.28
493.587	12249.41
493.79	12097.86
493.994	12210.5
494.197	12187.97
494.401	12478.79
494.605	12368.2
494.808	12566.85
495.012	12589.38
495.215	12695.87
495.419	12886.33
495.622	12439.87
495.825	12749.12
496.029	13023.55
496.232	12982.59
496.436	13134.14
496.639	13646.13
496.843	13240.63
497.046	13388.08
497.249	13691.18
497.453	13777.2
497.656	13889.84
497.859	13943.08
498.063	13957.42
498.266	14459.17
498.469	14367.01
498.673	14522.66
498.876	14651.68
499.079	14754.08
499.282	14653.73
499.485	15114.52
499.689	15341.85
499.892	15182.1
500.095	15464.72
500.298	15880.46
500.501	15712.53
500.705	15993.1
500.908	16310.54
501.111	16236.81
501.314	16558.34
501.517	16562.44
501.72	16969.98
501.923	16679.17
502.126	17201.4
502.329	17371.38
502.532	17580.28
502.735	17570.04
502.938	18094.32
503.141	17977.58
503.344	18239.72
503.547	18176.23
503.75	18526.44
503.953	18807.01
504.156	18868.45
504.359	19364.06
504.562	19169.5
504.765	19775.7
504.968	19931.34
505.17	19941.58
505.373	19892.43
505.576	20451.53
505.779	20623.56
505.982	20803.78
506.185	21094.59
506.387	21176.51
506.59	21162.17
506.793	21930.16
506.996	21643.45
507.198	22302.89
507.401	22141.1
507.604	22366.38
507.807	22638.76
508.009	22855.84
508.212	22968.48
508.415	23349.4
508.617	23679.13
508.82	23697.56
509.022	23629.98
509.225	24309.9
509.428	24215.69
509.63	24553.61
509.833	24670.34
510.035	24801.41
510.238	25161.86
510.44	25450.62
510.643	25651.32
510.845	25753.72
511.048	25788.53
511.25	25981.04
511.453	26308.72
511.655	27381.85
511.858	26640.49
512.06	27166.82
512.262	27437.15
512.465	27105.38
512.667	27615.32
512.87	27963.48
513.072	28225.62
513.274	28686.41
513.477	28749.9
513.679	29018.18
513.881	29311.04
514.084	29251.65
514.286	29177.92
514.488	29548.61
514.69	30545.97
514.893	30138.42
515.095	30601.26
515.297	30844.97
515.499	31150.12
515.701	31076.39
515.904	31490.08
516.106	31410.21
516.308	32253.97
516.51	32163.86
516.712	31916.06
516.914	32667.66
517.116	32972.81
517.318	33310.72
517.52	33021.96
517.722	33458.18
517.925	34131.96
518.127	33841.15
518.329	34220.02
518.531	34078.71
518.733	34762.73
518.935	34832.36
519.136	34861.04
519.338	35661.79
519.54	35422.18
519.742	35815.39
519.944	35575.78
520.146	36278.23
520.348	36446.16
520.55	36941.77
520.752	36442.07
520.954	37109.71
521.155	36927.44
521.357	37720
521.559	37699.52
521.761	38254.52
521.963	37922.75
522.164	38451.13
522.366	38416.31
522.568	38565.81
522.77	38596.53
522.971	39210.92
523.173	38825.9
523.375	39401.38
523.576	39286.7
523.778	39370.66
523.98	40183.71
524.181	39843.74
524.383	40040.35
524.584	40109.98
524.786	40347.54
524.988	39796.64
525.189	40611.73
525.391	40550.29
525.592	41095.05
525.794	40916.88
525.995	40933.26
526.197	40779.67
526.398	41064.33
526.6	41203.6
526.801	41195.4
527.003	41512.84
527.204	41545.61
527.406	41484.17
527.607	41383.82
527.808	41975.68
528.01	41185.16
528.211	42086.27
528.412	42188.67
528.614	42094.46
528.815	42370.94
529.016	42282.87
529.218	42219.39
529.419	42454.9
529.62	42235.77
529.822	42147.71
530.023	42309.5
530.224	42370.94
530.425	42131.33
530.626	42459
530.828	42381.18
531.029	42751.86
531.23	42456.95
531.431	42065.79
531.632	42364.79
531.833	42805.11
532.035	42729.33
532.236	42680.18
532.437	43106.16
532.638	42200.96
532.839	42456.95
533.04	42887.03
533.241	42426.23
533.442	43061.1
533.643	42774.39
533.844	42850.16
534.045	43050.86
534.246	42413.94
534.447	42874.74
534.648	42594.17
534.849	43018.1
535.05	42307.45
535.251	42913.65
535.451	42739.57
535.652	42735.48
535.853	42381.18
536.054	42762.1
536.255	42401.66
536.456	42325.88
536.657	43032.43
536.857	42667.89
537.058	42471.29
537.259	42958.7
537.46	42504.06
537.66	42471.29
537.861	42571.64
538.062	42323.83
538.263	42874.74
538.463	42270.59
538.664	42526.58
538.865	42461.05
539.065	42549.11
539.266	42356.6
539.466	42588.02
539.667	41990.02
539.868	42450.81
540.068	42188.67
540.269	42084.22
540.469	42770.29
540.67	42268.54
540.87	42299.26
541.071	42090.37
541.271	42534.77
541.472	42336.12
541.672	41764.74
541.873	42121.09
542.073	41873.28
542.274	42405.75
542.474	41977.73
542.675	41981.82
542.875	42495.86
543.075	42114.94
543.276	41478.02
543.476	42262.4
543.676	42002.3
543.877	42237.82
544.077	42037.12
544.277	42084.22
544.478	41772.93
544.678	41865.09
544.878	42125.18
545.078	41691.01
545.279	41680.77
545.479	41770.88
545.679	41998.21
545.879	41713.54
546.079	41848.71
546.28	41977.73
546.48	41183.12
546.68	41975.68
546.88	41871.23
547.08	41977.73
547.28	41791.36
547.48	41187.21
547.68	41906.05
547.88	41518.98
548.081	41770.88
548.281	41854.85
548.481	41539.46
548.681	41899.9
548.881	41934.72
549.081	41441.16
549.28	41443.21
549.48	41537.41
549.68	41588.61
549.88	41875.33
550.08	41193.36
550.28	41985.92
550.48	41422.73
550.68	41594.76
550.88	41377.67
551.08	41406.34
551.279	41467.78
551.479	41232.27
551.679	41289.61
551.879	41469.83
552.079	41668.48
552.278	40939.41
552.478	41523.08
552.678	41504.65
552.878	41529.22
553.077	41377.67
553.277	40968.08
553.477	41774.98
553.676	41162.64
553.876	41025.42
554.076	41103.24
554.275	41009.04
554.475	40505.24
554.674	41289.61
554.874	41269.13
555.074	40918.93
555.273	41213.84
555.473	41426.82
555.672	40931.22
555.872	41164.68
556.071	41154.44
556.271	41074.57
556.47	41176.97
556.67	40609.68
556.869	40744.85
557.068	40970.13
557.268	41064.33
557.467	41146.25
557.667	40951.7
557.866	40984.46
558.065	40849.3
558.265	40560.53
558.464	40765.33
558.663	40771.47
558.863	40734.61
559.062	41074.57
559.261	40185.75
559.461	40847.25
559.66	40480.66
559.859	40497.05
560.058	40617.88
560.258	41021.33
560.457	40456.09
560.656	40957.84
560.855	40224.67
561.054	40843.15
561.253	39788.45
561.453	40570.77
561.652	40724.37
561.851	40406.94
562.05	40456.09
562.249	39710.63
562.448	40783.76
562.647	40275.87
562.846	40474.52
563.045	40167.32
563.244	39722.91
563.443	40568.72
563.642	39829.41
563.841	40486.81
564.04	40271.77
564.239	40304.54
564.438	39890.85
564.637	40128.41
564.836	40613.78
565.035	39727.01
565.234	40005.53
565.432	40148.89
565.631	39843.74
565.83	40458.13
566.029	40198.04
566.228	39847.84
566.427	40071.07
566.625	39829.41
566.824	39571.36
567.023	40159.13
567.222	39321.51
567.42	40097.69
567.619	39810.98
567.818	39704.48
568.016	39391.14
568.215	40275.87
568.414	39657.38
568.612	39931.81
568.811	39837.6
569.01	39536.55
569.208	39135.15
569.407	39546.79
569.605	39200.68
569.804	39487.4
570.002	39391.14
570.201	39358.38
570.4	39212.97
570.598	39325.61
570.797	39374.76
570.995	39729.06
571.193	38586.29
571.392	39563.17
571.59	39122.86
571.789	39301.03
571.987	39088.04
572.186	38969.26
572.384	38850.48
572.582	39061.42
572.781	38977.45
572.979	38635.44
573.177	38911.92
573.376	38979.5
573.574	38832.05
573.772	38901.68
573.971	38399.93
574.169	38313.91
574.367	38305.72
574.565	39006.12
574.763	38461.37
574.962	38225.85
575.16	38180.79
575.358	38498.23
575.556	38037.44
575.754	38660.02
575.952	38172.6
576.151	38518.71
576.349	37971.9
576.547	37908.41
576.745	37900.22
576.943	38096.83
577.141	38004.67
577.339	38295.48
577.537	38084.54
577.735	37760.96
577.933	37582.79
578.131	38152.12
578.329	37416.9
578.527	37619.65
578.725	38045.63
578.923	37969.85
579.121	37488.58
579.319	37535.68
579.516	37709.76
579.714	37734.34
579.912	37490.63
580.11	37558.21
580.308	37259.21
580.506	37296.07
580.704	37031.88
580.901	37431.24
581.099	37539.78
581.297	37076.94
581.495	37150.67
581.692	37103.56
581.89	36999.12
582.088	37031.88
582.285	36786.13
582.483	36843.47
582.681	36751.31
582.878	36704.21
583.076	36855.76
583.274	37226.44
583.471	36845.52
583.669	36839.37
583.866	36638.67
584.064	36640.72
584.262	36173.78
584.459	36681.68
584.657	36181.98
584.854	36591.57
585.052	35987.42
585.249	36521.94
585.447	36671.44
585.644	36112.34
585.841	36112.34
586.039	36442.07
586.236	35905.5
586.434	36192.22
586.631	35743.71
586.828	36313.05
587.026	36220.89
587.223	36052.95
587.42	35985.37
587.618	35864.54
587.815	35602.4
588.012	35606.5
588.21	35651.55
588.407	35979.23
588.604	35958.75
588.801	35735.52
588.999	35637.22
589.196	35606.5
589.393	35430.37
589.59	35518.43
589.787	35536.87
589.984	35205.09
590.182	35147.75
590.379	35438.56
590.576	35180.52
590.773	35307.49
590.97	34977.77
591.167	35516.39
591.364	35004.39
591.561	35303.4
591.758	34828.27
591.955	35071.98
592.152	35016.68
592.349	35186.66
592.546	34949.1
592.743	35280.87
592.94	34772.97
593.137	35403.75
593.334	35088.36
593.531	34897.9
593.727	35237.86
593.924	35076.07
594.121	34672.62
594.318	35043.31
594.515	34355.19
594.712	34940.91
594.908	34949.1
595.105	35063.78
595.302	34742.25
595.499	34826.22
595.696	34801.64
595.892	34383.86
596.089	35166.18
596.286	34772.97
596.482	34822.12
596.679	34830.32
596.876	34988.01
597.072	34770.93
597.269	34932.71
597.466	34701.29
597.662	34580.46
597.859	34492.4
598.055	34615.28
598.252	34412.53
598.448	34871.28
598.645	34605.04
598.841	34465.78
599.038	34525.17
599.234	35059.69
599.431	34652.14
599.627	34689.01
599.824	34926.57
600.02	34654.19
600.217	34990.06
600.413	34787.31
600.609	34977.77
600.806	34514.93
601.002	34588.66
601.198	34660.34
601.395	34793.45
601.591	34770.93
601.787	34856.94
601.984	34660.34
602.18	35069.93
602.376	34875.37
602.572	34846.7
602.769	35004.39
602.965	34793.45
603.161	35008.49
603.357	34936.81
603.553	34705.39
603.75	35258.34
603.946	35076.07
604.142	35153.9
604.338	34926.57
604.534	35332.07
604.73	34842.6
604.926	35104.74
605.122	35356.64
605.318	35137.51
605.514	34926.57
605.71	34994.15
605.906	35547.11
606.102	35526.63
606.298	35553.25
606.494	35467.23
606.69	35727.33
606.886	35663.84
607.082	35557.35
607.278	35946.46
607.474	35512.29
607.67	36245.46
607.866	35512.29
608.062	36194.26
608.257	36036.57
608.453	36151.26
608.649	36317.14
608.845	35669.98
609.041	36024.28
609.236	36753.36
609.432	36749.26
609.628	36204.5
609.824	36569.04
610.019	36526.03
610.215	37027.79
610.411	37302.21
610.606	36857.81
610.802	37261.26
610.998	37117.9
611.193	37332.93
611.389	36958.16
611.584	37334.98
611.78	37109.71
611.976	37519.3
612.171	37941.18
612.367	37287.88
612.562	37511.11
612.758	37392.33
612.953	37355.46
613.149	38440.89
613.344	37957.56
613.539	38713.27
613.735	38496.18
613.93	38207.42
614.126	38424.5
614.321	38920.11
614.517	38729.65
614.712	38832.05
614.907	38834.1
615.103	39675.81
615.298	38901.68
615.493	39272.36
615.688	38950.83
615.884	39819.17
616.079	39100.33
616.274	39597.99
616.47	39602.08
616.665	39823.26
616.86	39509.93
617.055	39788.45
617.25	39765.92
617.445	40001.44
617.641	39434.15
617.836	40095.64
618.031	39813.02
618.226	40837.01
618.421	40128.41
618.616	40617.88
618.811	39663.52
619.006	40675.22
619.201	39864.22
619.396	40572.82
619.591	40085.4
619.786	40427.42
619.981	40224.67
620.176	40552.34
620.371	40318.87
620.566	40523.67
620.761	40107.93
620.956	40519.57
621.151	40146.84
621.346	40103.84
621.541	39968.67
621.735	40282.01
621.93	39983.01
622.125	39931.81
622.32	39841.7
622.515	40294.3
622.709	39538.6
622.904	40388.5
623.099	40036.25
623.294	39833.5
623.488	39520.16
623.683	39890.85
623.878	39288.74
624.072	39133.1
624.267	39686.05
624.462	39665.57
624.656	39090.09
624.851	39280.55
625.046	39471.01
625.24	39440.29
625.435	38612.91
625.629	39157.67
625.824	38619.06
626.018	38830
626.213	38291.38
626.407	38752.18
626.602	38475.7
626.796	38633.39
626.991	38807.47
627.185	38053.82
627.38	38096.83
627.574	37994.43
627.768	38006.72
627.963	37932.99
628.157	37642.18
628.352	38285.24
628.546	37318.6
628.74	37795.78
628.935	37423.04
629.129	37806.02
629.323	37193.67
629.517	37474.24
629.712	36859.85
629.906	37179.34
630.1	36722.64
630.294	37058.51
630.489	36710.35
630.683	36728.78
630.877	36267.99
631.071	36335.57
631.265	36544.47
631.459	36423.64
631.653	36149.21
631.848	36251.61
632.042	36063.19
632.236	36169.69
632.43	35790.81
632.624	35958.75
632.818	35473.38
633.012	35608.54
633.206	35766.24
633.4	35858.4
633.594	34772.97
633.788	35336.16
633.982	35413.99
634.176	35016.68
634.369	34727.92
634.563	34658.29
634.757	34748.4
634.951	34942.95
635.145	34111.48
635.339	34361.33
635.533	34131.96
635.726	34480.11
635.92	34279.41
636.114	33816.57
636.308	34017.27
636.501	33529.86
636.695	33886.2
636.889	33454.08
637.083	33265.67
637.276	33163.27
637.47	32899.08
637.664	33019.91
637.857	33208.33
638.051	32837.64
638.244	32876.55
638.438	32833.55
638.632	32688.14
638.825	32397.33
639.019	31969.3
639.212	32346.13
639.406	31989.78
639.599	32127
639.793	32010.26
639.986	31324.19
640.18	31510.56
640.373	31678.49
640.567	31135.78
640.76	31510.56
640.954	30955.56
641.147	30748.71
641.34	30674.99
641.534	30902.31
641.727	30521.39
641.92	30650.41
642.114	30453.81
642.307	30201.91
642.5	30068.79
642.694	29837.37
642.887	29859.9
643.08	30226.48
643.273	29483.07
643.467	29478.97
643.66	29540.41
643.853	29308.99
644.046	28991.56
644.239	28901.45
644.432	28899.4
644.626	28665.93
644.819	28592.2
645.012	28657.74
645.205	28655.69
645.398	28260.43
645.591	28067.92
645.784	27988.05
645.977	27623.51
646.17	27832.41
646.363	27316.32
646.556	26962.02
646.749	26949.73
646.942	27297.89
647.135	27101.28
647.328	26845.29
647.521	26656.87
647.714	26304.62
647.907	26613.87
648.099	26204.27
648.292	26175.6
648.485	26253.42
648.678	25825.4
648.871	25698.42
649.064	25299.07
649.256	25725.05
649.449	25274.49
649.642	25034.88
649.835	24975.49
650.027	24701.06
650.22	24627.34
650.413	24451.21
650.605	24694.92
650.798	24430.73
650.991	24221.84
651.183	24113.3
651.376	23748.76
651.568	24203.41
651.761	23726.23
651.954	23386.27
652.146	23763.09
652.339	23318.68
652.531	22974.63
652.724	23144.61
652.916	22581.42
653.109	23046.3
653.301	22876.32
653.494	22757.54
653.686	22270.12
653.879	22622.37
654.071	22069.42
654.263	21991.6
654.456	21942.45
654.648	22032.56
654.84	21115.07
655.033	21248.19
655.225	21326.01
655.417	21153.98
655.61	21108.93
655.802	21031.1
655.994	20803.78
656.186	20590.79
656.379	20213.96
656.571	20408.52
656.763	20154.57
656.955	19964.11
657.148	19785.94
657.34	20007.12
657.532	19525.85
657.724	19417.3
657.916	19534.04
658.108	19402.97
658.3	19005.66
658.492	18976.99
658.684	18481.38
658.876	18821.34
659.068	18546.92
659.26	18491.62
659.452	18413.8
659.644	18137.32
659.836	18043.12
660.028	18235.63
660.22	17596.66
660.412	17631.47
660.604	17371.38
660.796	17488.12
660.988	17436.92
661.18	17047.8
661.372	16998.65
661.563	16994.56
661.755	16933.12
661.947	16808.19
662.139	16650.5
662.331	16314.63
662.522	16197.9
662.714	16093.45
662.906	16118.03
663.097	15986.96
663.289	15671.57
663.481	15567.12
663.673	15534.35
663.864	15479.06
664.056	15323.41
664.247	15325.46
664.439	15122.71
664.631	15104.28
664.822	14915.87
665.014	14838.05
665.205	14747.93
665.397	14565.67
665.588	14434.6
665.78	14264.61
665.971	14303.53
666.163	14268.71
666.354	14096.68
666.546	14115.11
666.737	13779.25
666.929	13691.18
667.12	13707.57
667.311	13566.26
667.503	13230.39
667.694	13465.91
667.885	13193.53
668.077	13216.05
668.268	13127.99
668.459	13211.96
668.651	12890.43
668.842	12890.43
669.033	12699.97
669.224	12407.11
669.416	12841.28
669.607	12505.41
669.798	12276.04
669.989	12603.71
670.18	12163.4
670.371	12108.1
670.563	11970.89
670.754	12157.25
670.945	11974.99
671.136	12042.57
671.327	12058.95
671.518	11762
671.709	11694.41
671.9	11659.6
672.091	11581.78
672.282	11544.91
672.473	11342.16
672.664	11514.19
672.855	11383.12
673.046	11467.09
673.237	11153.75
673.428	11082.07
673.619	11082.07
673.809	11120.98
674	10977.62
674.191	10836.31
674.382	10838.36
674.573	10697.05
674.764	10764.64
674.954	10529.12
675.145	10666.33
675.336	10551.65
675.527	10594.65
675.717	10760.54
675.908	10385.76
676.099	10355.04
676.289	10441.06
676.48	10289.51
676.671	10439.01
676.861	10293.6
677.052	10088.81
677.243	10172.77
677.433	10246.5
677.624	10254.69
677.814	10058.09
678.005	10101.09
678.195	10025.32
678.386	9922.92
678.576	9744.75
678.767	9636.2
678.957	9679.21
679.148	9779.56
679.338	9701.74
679.529	9685.36
679.719	9673.07
679.909	9797.99
680.1	9615.73
680.29	9693.55
680.481	9466.22
680.671	9552.24
680.861	9367.92
681.052	9501.04
681.242	9345.39
681.432	9554.29
681.622	9322.87
681.813	9277.81
682.003	9185.65
682.193	9261.43
682.383	9335.15
682.573	9374.06
682.764	9163.12
682.954	9064.82
683.144	9222.52
683.334	9165.17
683.524	9234.8
683.714	9279.86
683.904	8948.09
684.094	9066.87
684.284	9148.79
684.474	9269.62
684.664	9073.01
684.854	9083.25
685.044	9034.1
685.234	8825.21
685.424	9050.49
685.614	9025.91
685.804	8919.42
685.994	9044.34
686.184	9073.01
686.374	8819.07
686.564	8794.49
686.753	8847.74
686.943	8857.98
687.133	9048.44
687.323	8761.72
687.513	8855.93
687.702	8769.91
687.892	8823.16
688.082	8712.57
688.272	8696.19
688.461	8812.92
688.651	8980.85
688.841	8704.38
689.03	8741.24
689.22	8800.63
689.41	8862.07
689.599	8661.37
689.789	8653.18
689.979	8802.68
690.168	8524.16
690.358	8595.84
690.547	8653.18
690.737	8503.68
690.926	8612.22
691.116	8532.35
691.305	8747.39
691.495	8415.62
691.684	8548.73
691.874	8690.04
692.063	8477.05
692.252	8636.8
692.442	8284.55
692.631	8321.41
692.82	8419.71
693.01	8354.18
693.199	8374.66
693.388	8335.74
693.578	8395.14
693.767	8554.88
693.956	8425.86
694.146	8368.51
694.335	8444.29
694.524	8325.5
694.713	8214.91
694.902	8298.88
695.092	8407.42
695.281	8212.87
695.47	8259.97
695.659	8259.97
695.848	8096.13
696.037	8200.58
696.226	8165.76
696.415	8278.4
696.604	8186.24
696.793	8161.67
696.982	8067.46
697.171	8073.6
697.36	8143.24
697.549	7979.4
697.738	7989.64
697.927	8042.89
698.116	7852.42
698.305	8079.75
698.494	7868.81
698.683	7954.82
698.872	8012.17
699.061	7805.32
699.25	7911.82
699.438	7877
699.627	7711.11
699.816	7881.1
700.005	7682.44
700.193	7704.97
700.382	7633.29
700.571	7590.28
700.76	7612.81
700.948	7680.39
701.137	7569.8
701.326	7524.75
701.514	7506.32
701.703	7496.08
701.892	7309.71
702.08	7868.81
702.269	7561.61
702.457	7377.3
702.646	7502.22
702.834	7303.57
703.023	7270.8
703.212	7254.42
703.4	7152.02
703.589	7260.56
703.777	7233.94
703.965	7328.14
704.154	7186.83
704.342	7010.71
704.531	7365.01
704.719	6973.85
704.907	7178.64
705.096	6883.73
705.284	6910.36
705.472	6891.93
705.661	7086.48
705.849	7027.09
706.037	7094.68
706.226	6992.28
706.414	7061.91
706.602	6885.78
706.79	6832.54
706.979	6836.63
707.167	6644.12
707.355	6730.14
707.543	6693.27
707.731	6779.29
707.919	6572.44
708.107	6695.32
708.296	6404.51
708.484	6445.47
708.672	6607.26
708.86	6474.14
709.048	6402.46
709.236	6513.05
709.424	6533.53
709.612	6431.13
709.8	6439.33
709.988	6361.5
710.176	6443.42
710.364	6324.64
710.551	6263.2
710.739	6148.51
710.927	6177.19
711.115	6199.71
711.303	6201.76
711.491	6230.43
711.679	6029.73
711.866	6093.22
712.054	6060.45
712.242	6048.16
712.43	5792.17
712.617	5962.15
712.805	5898.66
712.993	5738.92
713.181	5863.85
713.368	5818.79
713.556	5919.14
713.744	5542.32
713.931	5865.89
714.119	5712.3
714.306	5652.91
714.494	5548.46
714.682	5638.57
714.869	5624.23
715.057	5724.58
715.244	5446.06
715.432	5654.95
715.619	5515.69
715.807	5575.08
715.994	5648.81
716.182	5558.7
716.369	5517.74
716.556	5603.75
716.744	5429.68
716.931	5304.75
717.119	5476.78
717.306	5179.82
717.493	5446.06
717.681	5220.78
717.868	5366.19
718.055	5282.22
718.242	5185.97
718.43	5179.82
718.617	5085.62
718.804	5286.32
718.991	5220.78
719.179	5128.63
719.366	4999.6
719.553	5171.63
719.74	5097.91
719.927	5001.65
720.114	4934.07
720.301	4878.77
720.488	4637.11
720.676	4790.71
720.863	4835.77
721.05	4852.15
721.237	4800.95
721.424	4796.85
721.611	4708.79
721.798	4751.8
721.985	4790.71
722.172	4669.88
722.358	4680.12
722.545	4635.07
722.732	4647.35
722.919	4647.35
723.106	4557.24
723.293	4528.57
723.48	4413.88
723.667	4471.23
723.853	4651.45
724.04	4604.35
724.227	4524.47
724.414	4397.5
724.6	4553.15
724.787	4430.27
724.974	4454.84
725.161	4426.17
725.347	4297.15
725.534	4413.88
725.72	4403.64
725.907	4348.35
726.094	4407.74
726.28	4272.57
726.467	4319.68
726.653	4327.87
726.84	4391.36
727.027	4245.95
727.213	4225.47
727.4	4229.57
727.586	4291.01
727.773	4096.45
727.959	4032.96
728.145	4151.74
728.332	4174.27
728.518	4080.07
728.705	4149.7
728.891	4008.39
729.077	3996.1
729.264	3918.28
729.45	3869.12
729.636	3940.8
729.823	3887.56
730.009	3949
730.195	3965.38
730.382	3951.04
730.568	3801.54
730.754	3877.32
730.94	3740.1
731.126	3770.82
731.313	3772.87
731.499	3803.59
731.685	3764.68
731.871	3836.36
732.057	3860.93
732.243	3660.23
732.429	3682.76
732.615	3733.96
732.801	3561.93
732.987	3549.64
733.173	3664.33
733.359	3658.18
733.545	3682.76
733.731	3473.87
733.917	3604.94
734.103	3594.7
734.289	3531.21
734.475	3346.89
734.661	3576.27
734.847	3496.39
735.033	3529.16
735.219	3623.37
735.404	3475.91
735.59	3482.06
735.776	3348.94
735.962	3346.89
736.148	3465.68
736.333	3443.15
736.519	3336.65
736.705	3320.27
736.89	3246.54
737.076	3281.36
737.262	3228.11
737.447	3238.35
737.633	3242.45
737.819	3279.31
738.004	3183.06
738.19	3217.87
738.375	3107.28
738.561	3287.5
738.747	3307.98
738.932	3156.43
739.118	3152.34
739.303	3168.72
739.489	3135.95
739.674	3183.06
739.859	3066.32
740.045	3047.89
740.23	2939.35
740.416	2886.1
740.601	3154.38
740.786	2949.59
740.972	2933.2
741.157	2908.63
741.342	2922.96
741.528	2857.43
741.713	2953.68
741.898	3025.36
742.084	2853.33
742.269	2830.8
742.454	2726.36
742.639	2927.06
742.824	2785.75
743.01	2875.86
743.195	2896.34
743.38	2720.21
743.565	2654.68
743.75	2847.19
743.935	2722.26
744.12	2836.95
744.305	2593.24
744.49	2654.68
744.675	2669.02
744.86	2529.75
745.045	2728.41
745.23	2562.52
745.415	2539.99
745.6	2644.44
745.785	2607.58
745.97	2585.05
746.155	2542.04
746.34	2607.58
746.525	2480.6
746.71	2603.48
746.895	2476.51
747.079	2398.68
747.264	2408.92
747.449	2525.66
747.634	2587.1
747.819	2503.13
748.003	2195.93
748.188	2406.88
748.373	2404.83
748.557	2361.82
748.742	2343.39
748.927	2376.16
749.111	2232.8
749.296	2329.05
749.481	2314.72
749.665	2320.86
749.85	2240.99
750.034	2212.32
750.219	2210.27
750.404	2183.65
750.588	2249.18
750.773	2095.58
750.957	2163.17
751.141	2075.1
751.326	2083.3
751.51	2107.87
751.695	2062.82
751.879	2066.91
752.064	2116.06
752.248	1931.75
752.432	2056.67
752.617	1956.32
752.801	2083.3
752.985	2013.67
753.17	2068.96
753.354	1939.94
753.538	2036.19
753.722	1919.46
753.907	1937.89
754.091	1821.16
754.275	1960.42
754.459	1806.82
754.643	1843.68
754.828	1892.84
755.012	1853.92
755.196	1796.58
755.38	1784.29
755.564	1864.16
755.748	1851.88
755.932	1821.16
756.116	1815.01
756.3	1784.29
756.484	1704.42
756.668	1772
756.852	1708.52
757.036	1731.05
757.22	1714.66
757.404	1702.37
757.588	1632.74
757.772	1677.8
757.956	1726.95
758.14	1759.72
758.323	1569.26
758.507	1724.9
758.691	1591.78
758.875	1608.17
759.059	1628.65
759.242	1610.22
759.426	1561.06
759.61	1602.02
759.794	1608.17
759.977	1763.81
760.161	1653.22
760.345	1563.11
760.528	1495.53
760.712	1526.25
760.895	1473
761.079	1518.06
761.263	1559.02
761.446	1595.88
761.63	1559.02
761.813	1503.72
761.997	1391.08
762.18	1454.57
762.364	1415.66
762.547	1429.99
762.731	1499.63
762.914	1495.53
763.098	1466.86
763.281	1456.62
763.464	1446.38
763.648	1368.56
763.831	1366.51
764.015	1380.84
764.198	1456.62
764.381	1395.18
764.564	1337.84
764.748	1391.08
764.931	1325.55
765.114	1407.47
765.297	1415.66
765.481	1372.65
765.664	1249.77
765.847	1378.79
766.03	1348.08
766.213	1346.03
766.397	1407.47
766.58	1300.97
766.763	1415.66
766.946	1372.65
767.129	1368.56
767.312	1296.88
767.495	1339.88
767.678	1294.83
767.861	1384.94
768.044	1315.31
768.227	1317.36
768.41	1300.97
768.593	1305.07
768.776	1276.4
768.959	1339.88
769.142	1386.99
769.324	1284.59
769.507	1204.72
769.69	1241.58
769.873	1147.37
770.056	1509.86
770.239	1188.33
770.421	1341.93
770.604	1341.93
770.787	1288.68
770.97	1268.2
771.152	1159.66
771.335	1229.29
771.518	1147.37
771.7	1221.1
771.883	1251.82
772.066	1157.61
772.248	1319.4
772.431	1202.67
772.613	1253.87
772.796	1180.14
772.978	1286.64
773.161	1305.07
773.343	1110.51
773.526	1192.43
773.708	1270.25
773.891	1087.98
774.073	1092.08
774.256	1282.54
774.438	1178.09
774.621	1106.42
774.803	1208.81
774.985	1106.42
775.168	1049.07
775.35	1044.98
775.532	1145.33
775.715	1077.74
775.897	995.82
776.079	1071.6
776.261	1065.46
776.444	1139.18
776.626	1022.45
776.808	1073.65
776.99	1038.83
777.173	1034.74
777.355	954.87
777.537	1077.74
777.719	1008.11
777.901	1049.07
778.083	993.78
778.265	831.99
778.447	995.82
778.629	846.32
778.811	946.67
778.993	956.91
779.175	934.39
779.357	870.9
779.539	1036.78
779.721	852.47
779.903	971.25
780.085	901.62
780.267	799.22
780.449	934.39
780.631	999.92
780.812	989.68
780.994	932.34
781.176	821.75
781.358	872.95
781.54	819.7
781.721	911.86
781.903	854.51
782.085	799.22
782.267	948.72
782.448	782.84
782.63	842.23
782.812	776.69
782.993	793.08
783.175	811.51
783.357	782.84
783.538	852.47
783.72	748.02
783.901	829.94
784.083	811.51
784.264	760.31
784.446	743.92
784.627	698.87
784.809	784.88
784.99	752.12
785.172	662.01
785.353	711.16
785.535	795.12
785.716	606.71
785.897	666.1
786.079	686.58
786.26	717.3
786.441	684.53
786.623	643.57
786.804	616.95
786.985	629.24
787.167	696.82
787.348	666.1
787.529	614.9
787.71	643.57
787.891	702.97
788.073	588.28
788.254	578.04
788.435	705.01
788.616	635.38
788.797	580.09
788.978	549.37
789.159	563.7
789.34	625.14
789.522	641.53
789.703	612.85
789.884	586.23
790.065	565.75
790.246	649.72
790.427	655.86
790.607	649.72
790.788	645.62
790.969	561.66
791.15	580.09
791.331	641.53
791.512	446.97
791.693	571.9
791.874	518.65
792.054	561.66
792.235	541.18
792.416	483.83
792.597	528.89
792.778	610.81
792.958	537.08
793.139	571.9
793.32	565.75
793.5	483.83
793.681	616.95
793.862	571.9
794.042	426.49
794.223	457.21
794.404	403.96
794.584	422.39
794.765	406.01
794.945	498.17
795.126	561.66
795.306	440.83
795.487	451.07
795.667	483.83
795.848	473.59
796.028	432.63
796.209	489.98
796.389	502.26
796.57	516.6
796.75	393.72
796.93	416.25
797.111	459.26
797.291	522.74
797.471	416.25
797.652	395.77
797.832	373.24
798.012	471.54
798.192	446.97
798.373	344.57
798.553	399.87
798.733	469.5
798.913	428.54
799.093	336.38
799.274	389.63
799.454	430.59
799.634	469.5
799.814	389.63
799.994	369.15
800.174	424.44
800.354	375.29
800.534	416.25
800.714	328.19
800.894	283.13
801.074	365.05
801.254	279.04
801.434	375.29
801.614	406.01
801.794	352.76
801.974	1429.99
802.154	356.86
802.334	371.19
802.514	279.04
802.693	412.15
802.873	313.85
803.053	399.87
803.233	342.52
803.413	320
803.592	291.32
803.772	317.95
803.952	295.42
804.131	279.04
804.311	383.48
804.491	428.54
804.67	279.04
804.85	356.86
805.03	299.52
805.209	389.63
805.389	293.37
805.568	293.37
805.748	326.14
805.928	315.9
806.107	371.19
806.287	268.8
806.466	414.2
806.646	373.24
806.825	293.37
807.004	272.89
807.184	332.28
807.363	379.39
807.543	303.61
807.722	285.18
807.901	373.24
808.081	322.04
808.26	219.64
808.439	252.41
808.619	281.08
808.798	264.7
808.977	266.75
809.156	285.18
809.336	285.18
809.515	309.76
809.694	215.55
809.873	276.99
810.052	240.12
810.231	266.75
810.411	223.74
810.59	352.76
810.769	242.17
810.948	305.66
811.127	266.75
811.306	170.49
811.485	264.7
811.664	272.89
811.843	219.64
812.022	227.84
812.201	285.18
812.38	197.12
812.559	215.55
812.737	260.6
812.916	188.93
813.095	201.21
813.274	213.5
813.453	256.51
813.632	209.4
813.811	274.94
813.989	207.36
814.168	223.74
814.347	123.39
814.526	211.45
814.704	270.84
814.883	207.36
815.062	233.98
815.24	307.71
815.419	223.74
815.598	264.7
815.776	147.97
815.955	207.36
816.133	211.45
816.312	213.5
816.49	158.21
816.669	193.02
816.847	170.49
817.026	215.55
817.204	168.45
817.383	279.04
817.561	190.97
817.74	283.13
817.918	322.04
818.097	139.77
818.275	133.63
818.453	168.45
818.632	256.51
818.81	168.45
818.988	219.64
819.167	131.58
819.345	199.16
819.523	209.4
819.701	141.82
819.879	248.32
820.058	145.92
820.236	207.36
820.414	238.08
820.592	201.21
820.77	164.35
820.948	147.97
821.127	129.53
821.305	195.07
821.483	135.68
821.661	293.37
821.839	154.11
822.017	184.83
822.195	180.73
822.373	170.49
822.551	221.69
822.729	203.26
822.907	197.12
823.085	242.17
823.262	129.53
823.44	154.11
823.618	184.83
823.796	137.73
823.974	180.73
824.152	117.25
824.329	100.86
824.507	186.88
824.685	172.54
824.863	195.07
825.04	141.82
825.218	145.92
825.396	147.97
825.574	121.34
825.751	86.53
825.929	233.98
826.107	90.62
826.284	121.34
826.462	143.87
826.639	92.67
826.817	127.49
826.994	195.07
827.172	207.36
827.349	195.07
827.527	176.64
827.704	186.88
827.882	41.47
828.059	162.3
828.237	82.43
828.414	219.64
828.591	25.09
828.769	229.88
828.946	131.58
829.124	240.12
829.301	227.84
829.478	131.58
829.655	205.31
829.833	213.5
830.01	61.95
830.187	100.86
830.364	211.45
830.542	98.81
830.719	186.88
830.896	162.3
831.073	111.1
831.25	219.64
831.427	217.6
831.604	115.2
831.782	45.57
831.959	166.4
832.136	98.81
832.313	107.01
832.49	86.53
832.667	147.97
832.844	109.05
833.021	188.93
833.198	111.1
833.374	154.11
833.551	160.25
833.728	82.43
833.905	156.16
834.082	-19.97
834.259	176.64
834.436	160.25
834.612	121.34
834.789	160.25
834.966	119.29
835.143	129.53
835.319	68.09
835.496	145.92
835.673	123.39
835.85	172.54
836.026	113.15
836.203	98.81
836.38	143.87
836.556	113.15
836.733	113.15
836.909	125.44
837.086	96.77
837.262	47.62
837.439	137.73
837.616	53.76
837.792	123.39
837.968	78.33
838.145	6.66
838.321	90.62
838.498	121.34
838.674	143.87
838.851	102.91
839.027	145.92
839.203	117.25
839.38	121.34
839.556	78.33
839.732	166.4
839.909	45.57
840.085	102.91
840.261	64
840.437	152.06
840.614	121.34
840.79	119.29
840.966	150.01
841.142	94.72
841.318	143.87
841.494	121.34
841.671	150.01
841.847	39.42
842.023	43.52
842.199	137.73
842.375	125.44
842.551	16.9
842.727	45.57
842.903	150.01
843.079	55.81
843.255	135.68
843.431	129.53
843.607	57.86
843.783	39.42
843.959	47.62
844.134	16.9
844.31	205.31
844.486	84.48
844.662	109.05
844.838	78.33
845.013	43.52
845.189	84.48
845.365	88.57
845.541	82.43
845.716	94.72
845.892	111.1
846.068	100.86
846.244	107.01
846.419	61.95
846.595	76.29
846.77	66.05
846.946	111.1
847.122	16.9
847.297	43.52
847.473	127.49
847.648	29.18
847.824	72.19
847.999	-34.3
848.175	92.67
848.35	78.33
848.526	121.34
848.701	74.24
848.876	121.34
849.052	55.81
849.227	86.53
849.403	37.38
849.578	111.1
849.753	41.47
849.929	115.2
850.104	80.38
850.279	70.14
850.454	129.53
850.63	111.1
850.805	100.86
850.98	119.29
851.155	33.28
851.33	76.29
851.505	12.8
851.681	133.63
851.856	23.04
852.031	104.96
852.206	92.67
852.381	12.8
852.556	39.42
852.731	64
852.906	121.34
853.081	49.66
853.256	113.15
853.431	43.52
853.606	88.57
853.781	18.94
853.956	-22.02
854.131	115.2
854.305	86.53
854.48	96.77
854.655	51.71
854.83	23.04
855.005	78.33
855.18	98.81
855.354	76.29
855.529	86.53
855.704	18.94
855.879	135.68
856.053	23.04
856.228	84.48
856.403	-11.78
856.577	125.44
856.752	-48.64
856.926	61.95
857.101	64
857.276	33.28
857.45	92.67
857.625	76.29
857.799	133.63
857.974	74.24
858.148	-46.59
858.323	88.57
858.497	29.18
858.672	18.94
858.846	0.51
859.02	16.9
859.195	-36.35
859.369	76.29
859.543	39.42
859.718	137.73
859.892	49.66
860.066	64
860.241	39.42
860.415	96.77
860.589	68.09
860.763	-3.58
860.938	49.66
861.112	72.19
861.286	12.8
861.46	68.09
861.634	-13.82
861.808	115.2
861.982	-89.6
862.157	115.2
862.331	66.05
862.505	78.33
862.679	25.09
862.853	33.28
863.027	90.62
863.201	41.47
863.375	86.53
863.549	16.9
863.722	61.95
863.896	121.34
864.07	-5.63
864.244	25.09
864.418	47.62
864.592	109.05
864.766	41.47
864.939	86.53
865.113	51.71
865.287	135.68
865.461	55.81
865.634	25.09
865.808	53.76
865.982	51.71
866.156	35.33
866.329	-11.78
866.503	-24.06
866.676	72.19
866.85	53.76
867.024	29.18
867.197	82.43
867.371	29.18
867.544	72.19
867.718	23.04
867.891	88.57
868.065	10.75
868.238	61.95
868.412	135.68
868.585	16.9
868.759	45.57
868.932	-56.83
869.105	-56.83
869.279	55.81
869.452	-13.82
869.625	31.23
869.799	0.51
869.972	47.62
870.145	80.38
870.319	113.15
870.492	16.9
870.665	-19.97
870.838	-17.92
871.011	-3.58
871.185	29.18
871.358	14.85
871.531	143.87
871.704	43.52
871.877	47.62
872.05	-24.06
872.223	12.8
872.396	33.28
872.569	45.57
872.742	8.7
872.915	10.75
873.088	-1.54
873.261	70.14
873.434	41.47
873.607	-7.68
873.78	66.05
873.953	23.04
874.126	70.14
874.299	-19.97
874.471	-5.63
874.644	47.62
874.817	86.53
874.99	154.11
875.163	33.28
875.335	10.75
875.508	-7.68
875.681	88.57
875.853	-24.06
876.026	31.23
876.199	20.99
876.371	76.29
876.544	94.72
876.717	-1.54
876.889	18.94
877.062	59.9
877.234	-30.21
877.407	-9.73
877.579	59.9
877.752	16.9
877.924	-3.58
878.097	78.33
878.269	-22.02
878.442	72.19
878.614	6.66
878.786	119.29
878.959	68.09
879.131	33.28
879.303	-67.07
879.476	76.29
879.648	49.66
879.82	-9.73
879.993	-1.54
880.165	37.38
880.337	-83.45
880.509	23.04
880.681	-19.97
880.854	88.57
881.026	0.51
881.198	92.67
881.37	35.33
881.542	43.52
881.714	70.14
881.886	2.56
882.058	70.14
882.23	86.53
882.402	39.42
882.574	27.14
882.746	49.66
882.918	84.48
883.09	18.94
883.262	-15.87
883.434	88.57
883.606	-69.12
883.778	-67.07
883.95	55.81
884.122	72.19
884.293	115.2
884.465	84.48
884.637	55.81
884.809	-24.06
884.98	-40.45
885.152	39.42
885.324	92.67
885.496	-7.68
885.667	29.18
885.839	-13.82
886.011	147.97
886.182	64
886.354	104.96
886.525	35.33
886.697	55.81
886.869	-3.58
887.04	41.47
887.212	158.21
887.383	82.43
887.555	16.9
887.726	35.33
887.897	51.71
888.069	43.52
888.24	68.09
888.412	-11.78
888.583	2.56
888.754	-5.63
888.926	-5.63
889.097	2.56
889.268	10.75
889.44	29.18
889.611	8.7
889.782	51.71
889.953	-26.11
890.125	39.42
890.296	27.14
890.467	-52.74
890.638	-5.63
890.809	-36.35
890.98	64
891.151	-17.92
891.323	129.53
891.494	-30.21
891.665	-11.78
891.836	0.51
892.007	-46.59
892.178	39.42
892.349	-46.59
892.52	-7.68
892.691	33.28
892.862	-50.69
893.032	-40.45
893.203	12.8
893.374	-3.58
893.545	72.19
893.716	-73.21
893.887	25.09
894.057	27.14
894.228	-60.93
894.399	39.42
894.57	96.77
894.74	29.18
894.911	-1.54
895.082	-34.3
895.253	37.38
895.423	2.56
895.594	41.47
895.764	51.71
895.935	-58.88
896.106	57.86
896.276	4.61
896.447	35.33
896.617	-42.5
896.788	-28.16
896.958	-24.06
897.129	-13.82
897.299	4.61
897.47	33.28
897.64	51.71
897.81	-9.73
897.981	29.18
898.151	-44.54
898.322	-17.92
898.492	8.7
898.662	-30.21
898.832	-36.35
899.003	-7.68
899.173	51.71
899.343	72.19
899.513	35.33
