Data from USB4F104151__31__12-11-50-809.txt Node

Date: Fri Mar 14 12:11:50 EDT 2025
User: louis
Spectrometer: USB4F10415
Trigger mode: 4
Integration Time (sec): 5.000000E-2
Scans to average: 1
Electric dark correction enabled: true
Nonlinearity correction enabled: false
Boxcar width: 0
XAxis mode: Wavelengths
Number of Pixels in Spectrum: 3648
>>>>>Begin Spectral Data<<<<<
178.204	-257.02
178.424	-257.02
178.644	-257.02
178.864	-218.11
179.084	-197.63
179.304	-9.22
179.524	-56.32
179.744	-17.41
179.964	5.12
180.184	-15.36
180.404	62.46
180.624	89.09
180.844	41.98
181.064	-41.98
181.283	13.31
181.503	-58.37
181.723	-13.31
181.943	-1.02
182.163	41.98
182.383	-29.7
182.602	33.79
182.822	82.94
183.042	39.94
183.262	68.61
183.482	-1.02
183.701	-54.27
183.921	-27.65
184.141	-41.98
184.361	11.26
184.58	119.81
184.8	23.55
185.02	-9.22
185.239	29.7
185.459	-27.65
185.679	80.89
185.898	-50.18
186.118	125.95
186.338	46.08
186.557	31.74
186.777	-41.98
186.997	46.08
187.216	-17.41
187.436	105.47
187.655	52.22
187.875	66.56
188.095	-11.26
188.314	89.09
188.534	91.13
188.753	21.5
188.973	54.27
189.192	33.79
189.412	52.22
189.631	3.07
189.851	50.18
190.07	66.56
190.29	-13.31
190.509	-58.37
190.729	5.12
190.948	62.46
191.168	248.83
191.387	80.89
191.607	44.03
191.826	35.84
192.045	-44.03
192.265	35.84
192.484	39.94
192.704	46.08
192.923	-21.5
193.142	46.08
193.362	84.99
193.581	3.07
193.8	46.08
194.02	125.95
194.239	58.37
194.458	17.41
194.678	25.6
194.897	-17.41
195.116	138.24
195.335	-1.02
195.555	-9.22
195.774	19.46
195.993	58.37
196.212	35.84
196.432	97.28
196.651	-1.02
196.87	-31.74
197.089	87.04
197.308	138.24
197.528	93.18
197.747	-31.74
197.966	13.31
198.185	60.42
198.404	-5.12
198.623	5.12
198.842	56.32
199.062	130.05
199.281	146.43
199.5	48.13
199.719	-11.26
199.938	35.84
200.157	80.89
200.376	60.42
200.595	93.18
200.814	99.33
201.033	-19.46
201.252	117.76
201.471	80.89
201.69	52.22
201.909	27.65
202.128	46.08
202.347	44.03
202.566	50.18
202.785	5.12
203.004	11.26
203.223	115.71
203.442	-11.26
203.661	-1.02
203.879	-13.31
204.098	39.94
204.317	25.6
204.536	60.42
204.755	-44.03
204.974	-7.17
205.193	41.98
205.411	144.38
205.63	13.31
205.849	15.36
206.068	33.79
206.287	27.65
206.505	50.18
206.724	23.55
206.943	103.42
207.162	-19.46
207.381	87.04
207.599	19.46
207.818	-15.36
208.037	-15.36
208.255	39.94
208.474	27.65
208.693	48.13
208.911	44.03
209.13	25.6
209.349	-5.12
209.567	68.61
209.786	142.33
210.005	62.46
210.223	17.41
210.442	-35.84
210.661	37.89
210.879	64.51
211.098	-50.18
211.316	62.46
211.535	1.02
211.753	1.02
211.972	33.79
212.191	-19.46
212.409	35.84
212.628	74.75
212.846	-23.55
213.065	25.6
213.283	68.61
213.502	76.8
213.72	62.46
213.938	95.23
214.157	-23.55
214.375	60.42
214.594	33.79
214.812	21.5
215.031	66.56
215.249	82.94
215.467	25.6
215.686	64.51
215.904	64.51
216.122	-29.7
216.341	111.61
216.559	134.14
216.778	48.13
216.996	21.5
217.214	33.79
217.432	9.22
217.651	80.89
217.869	25.6
218.087	-19.46
218.306	37.89
218.524	60.42
218.742	1.02
218.96	11.26
219.179	-15.36
219.397	-9.22
219.615	168.96
219.833	89.09
220.051	-3.07
220.27	134.14
220.488	46.08
220.706	-5.12
220.924	27.65
221.142	33.79
221.36	-13.31
221.578	23.55
221.796	7.17
222.015	-3.07
222.233	-78.85
222.451	68.61
222.669	-15.36
222.887	105.47
223.105	13.31
223.323	25.6
223.541	-25.6
223.759	72.7
223.977	23.55
224.195	89.09
224.413	23.55
224.631	54.27
224.849	25.6
225.067	144.38
225.285	-52.22
225.503	5.12
225.721	-117.76
225.939	48.13
226.157	48.13
226.375	105.47
226.592	7.17
226.81	76.8
227.028	66.56
227.246	66.56
227.464	93.18
227.682	87.04
227.9	93.18
228.117	64.51
228.335	-1.02
228.553	1.02
228.771	13.31
228.989	48.13
229.206	134.14
229.424	-37.89
229.642	-44.03
229.86	-48.13
230.077	29.7
230.295	31.74
230.513	91.13
230.731	105.47
230.948	78.85
231.166	156.67
231.384	-33.79
231.601	-5.12
231.819	84.99
232.037	-1.02
232.254	-3.07
232.472	-50.18
232.689	-33.79
232.907	138.24
233.125	46.08
233.342	5.12
233.56	-11.26
233.777	41.98
233.995	-15.36
234.213	23.55
234.43	66.56
234.648	70.65
234.865	-9.22
235.083	82.94
235.3	-11.26
235.518	58.37
235.735	123.9
235.953	80.89
236.17	19.46
236.388	70.65
236.605	60.42
236.822	82.94
237.04	76.8
237.257	66.56
237.475	-25.6
237.692	37.89
237.909	41.98
238.127	-33.79
238.344	13.31
238.562	41.98
238.779	58.37
238.996	-35.84
239.214	33.79
239.431	52.22
239.648	5.12
239.865	62.46
240.083	78.85
240.3	76.8
240.517	78.85
240.735	-9.22
240.952	66.56
241.169	146.43
241.386	9.22
241.603	19.46
241.821	-15.36
242.038	35.84
242.255	111.61
242.472	-7.17
242.689	48.13
242.907	164.86
243.124	37.89
243.341	1.02
243.558	-44.03
243.775	-91.13
243.992	-48.13
244.209	97.28
244.426	123.9
244.643	-3.07
244.86	60.42
245.078	-3.07
245.295	41.98
245.512	7.17
245.729	-1.02
245.946	56.32
246.163	-11.26
246.38	62.46
246.597	7.17
246.814	39.94
247.031	-7.17
247.248	29.7
247.464	58.37
247.681	19.46
247.898	60.42
248.115	138.24
248.332	-21.5
248.549	76.8
248.766	109.57
248.983	62.46
249.2	58.37
249.417	101.37
249.633	80.89
249.85	11.26
250.067	-9.22
250.284	21.5
250.501	72.7
250.717	39.94
250.934	44.03
251.151	21.5
251.368	62.46
251.585	44.03
251.801	80.89
252.018	23.55
252.235	54.27
252.451	31.74
252.668	7.17
252.885	68.61
253.102	19.46
253.318	27.65
253.535	60.42
253.752	13.31
253.968	3.07
254.185	-62.46
254.401	-1.02
254.618	50.18
254.835	91.13
255.051	142.33
255.268	50.18
255.484	76.8
255.701	3.07
255.917	27.65
256.134	-46.08
256.351	62.46
256.567	68.61
256.784	13.31
257	-50.18
257.217	7.17
257.433	58.37
257.65	23.55
257.866	41.98
258.082	-27.65
258.299	-66.56
258.515	17.41
258.732	37.89
258.948	39.94
259.165	54.27
259.381	-15.36
259.597	-27.65
259.814	82.94
260.03	15.36
260.246	11.26
260.463	-5.12
260.679	56.32
260.895	84.99
261.112	15.36
261.328	-17.41
261.544	-23.55
261.761	54.27
261.977	-52.22
262.193	5.12
262.409	13.31
262.626	50.18
262.842	99.33
263.058	48.13
263.274	25.6
263.49	3.07
263.707	74.75
263.923	44.03
264.139	-119.81
264.355	48.13
264.571	134.14
264.787	-48.13
265.004	115.71
265.22	19.46
265.436	23.55
265.652	78.85
265.868	84.99
266.084	41.98
266.3	9.22
266.516	-13.31
266.732	95.23
266.948	15.36
267.164	-31.74
267.38	-5.12
267.596	66.56
267.812	146.43
268.028	82.94
268.244	76.8
268.46	44.03
268.676	-9.22
268.892	62.46
269.108	35.84
269.324	3.07
269.54	-29.7
269.756	70.65
269.972	-21.5
270.188	52.22
270.403	48.13
270.619	70.65
270.835	7.17
271.051	-17.41
271.267	25.6
271.483	54.27
271.698	125.95
271.914	17.41
272.13	66.56
272.346	48.13
272.562	-3.07
272.777	52.22
272.993	-15.36
273.209	17.41
273.425	52.22
273.64	-60.42
273.856	64.51
274.072	-11.26
274.287	-27.65
274.503	35.84
274.719	84.99
274.934	7.17
275.15	3.07
275.366	17.41
275.581	29.7
275.797	-17.41
276.012	23.55
276.228	15.36
276.444	-19.46
276.659	146.43
276.875	1.02
277.09	60.42
277.306	-50.18
277.521	48.13
277.737	68.61
277.952	35.84
278.168	60.42
278.383	60.42
278.599	15.36
278.814	41.98
279.03	27.65
279.245	21.5
279.461	64.51
279.676	128
279.892	-15.36
280.107	76.8
280.322	-13.31
280.538	66.56
280.753	-13.31
280.969	7.17
281.184	56.32
281.399	113.66
281.615	78.85
281.83	19.46
282.045	74.75
282.26	-39.94
282.476	35.84
282.691	56.32
282.906	39.94
283.122	78.85
283.337	29.7
283.552	68.61
283.767	-46.08
283.983	-1.02
284.198	48.13
284.413	66.56
284.628	-60.42
284.843	60.42
285.058	66.56
285.274	1.02
285.489	-29.7
285.704	52.22
285.919	-1.02
286.134	37.89
286.349	-1.02
286.564	21.5
286.779	93.18
286.995	-23.55
287.21	-35.84
287.425	25.6
287.64	-56.32
287.855	-21.5
288.07	35.84
288.285	103.42
288.5	35.84
288.715	111.61
288.93	1.02
289.145	-80.89
289.36	41.98
289.575	74.75
289.79	56.32
290.004	82.94
290.219	54.27
290.434	-23.55
290.649	21.5
290.864	21.5
291.079	1.02
291.294	64.51
291.509	7.17
291.724	25.6
291.938	66.56
292.153	-3.07
292.368	-13.31
292.583	39.94
292.798	82.94
293.012	-19.46
293.227	29.7
293.442	-35.84
293.657	25.6
293.871	99.33
294.086	117.76
294.301	117.76
294.516	72.7
294.73	23.55
294.945	-78.85
295.16	60.42
295.374	64.51
295.589	84.99
295.804	17.41
296.018	19.46
296.233	58.37
296.447	5.12
296.662	-48.13
296.877	109.57
297.091	58.37
297.306	11.26
297.52	56.32
297.735	-1.02
297.949	111.61
298.164	58.37
298.378	41.98
298.593	-7.17
298.807	9.22
299.022	66.56
299.236	11.26
299.451	134.14
299.665	-35.84
299.88	128
300.094	46.08
300.309	17.41
300.523	46.08
300.737	21.5
300.952	13.31
301.166	64.51
301.381	-17.41
301.595	74.75
301.809	58.37
302.024	33.79
302.238	46.08
302.452	39.94
302.667	64.51
302.881	115.71
303.095	37.89
303.309	66.56
303.524	-15.36
303.738	31.74
303.952	39.94
304.166	7.17
304.381	-11.26
304.595	164.86
304.809	-15.36
305.023	7.17
305.237	-48.13
305.452	80.89
305.666	117.76
305.88	62.46
306.094	33.79
306.308	17.41
306.522	130.05
306.736	56.32
306.95	56.32
307.164	-11.26
307.379	60.42
307.593	168.96
307.807	66.56
308.021	9.22
308.235	68.61
308.449	15.36
308.663	68.61
308.877	148.48
309.091	62.46
309.305	60.42
309.519	-7.17
309.733	70.65
309.947	-80.89
310.161	56.32
310.374	41.98
310.588	84.99
310.802	-56.32
311.016	-58.37
311.23	41.98
311.444	3.07
311.658	99.33
311.872	105.47
312.085	44.03
312.299	84.99
312.513	74.75
312.727	48.13
312.941	-9.22
313.154	44.03
313.368	21.5
313.582	-15.36
313.796	5.12
314.009	-37.89
314.223	39.94
314.437	50.18
314.651	23.55
314.864	46.08
315.078	9.22
315.292	-23.55
315.505	-1.02
315.719	109.57
315.933	-11.26
316.146	9.22
316.36	-23.55
316.573	109.57
316.787	76.8
317.001	41.98
317.214	7.17
317.428	33.79
317.641	-21.5
317.855	-5.12
318.068	13.31
318.282	-56.32
318.495	193.53
318.709	74.75
318.922	21.5
319.136	44.03
319.349	3.07
319.563	5.12
319.776	70.65
319.99	-48.13
320.203	78.85
320.417	62.46
320.63	54.27
320.843	136.19
321.057	50.18
321.27	62.46
321.483	123.9
321.697	66.56
321.91	-9.22
322.124	-37.89
322.337	84.99
322.55	-5.12
322.763	1.02
322.977	7.17
323.19	-91.13
323.403	54.27
323.617	1.02
323.83	17.41
324.043	70.65
324.256	66.56
324.469	-7.17
324.683	11.26
324.896	-19.46
325.109	15.36
325.322	-50.18
325.535	144.38
325.748	84.99
325.962	9.22
326.175	58.37
326.388	39.94
326.601	82.94
326.814	-17.41
327.027	37.89
327.24	146.43
327.453	-37.89
327.666	39.94
327.879	84.99
328.092	9.22
328.305	29.7
328.518	29.7
328.731	-33.79
328.944	64.51
329.157	97.28
329.37	44.03
329.583	136.19
329.796	78.85
330.009	-21.5
330.222	74.75
330.435	39.94
330.648	87.04
330.861	17.41
331.073	54.27
331.286	134.14
331.499	91.13
331.712	-74.75
331.925	33.79
332.138	7.17
332.35	70.65
332.563	-1.02
332.776	130.05
332.989	29.7
333.202	9.22
333.414	-21.5
333.627	56.32
333.84	52.22
334.053	119.81
334.265	89.09
334.478	5.12
334.691	-13.31
334.903	56.32
335.116	95.23
335.329	15.36
335.541	7.17
335.754	68.61
335.966	41.98
336.179	-15.36
336.392	29.7
336.604	48.13
336.817	7.17
337.029	80.89
337.242	66.56
337.454	89.09
337.667	-15.36
337.88	107.52
338.092	44.03
338.305	15.36
338.517	37.89
338.729	60.42
338.942	171.01
339.154	-60.42
339.367	9.22
339.579	17.41
339.792	25.6
340.004	68.61
340.217	5.12
340.429	82.94
340.641	15.36
340.854	-23.55
341.066	48.13
341.278	89.09
341.491	113.66
341.703	-3.07
341.915	-7.17
342.128	99.33
342.34	23.55
342.552	48.13
342.764	46.08
342.977	35.84
343.189	82.94
343.401	5.12
343.613	-5.12
343.826	15.36
344.038	46.08
344.25	119.81
344.462	46.08
344.674	5.12
344.886	3.07
345.099	56.32
345.311	74.75
345.523	29.7
345.735	-44.03
345.947	37.89
346.159	33.79
346.371	7.17
346.583	39.94
346.795	78.85
347.007	-19.46
347.219	9.22
347.431	7.17
347.643	21.5
347.855	46.08
348.067	9.22
348.279	5.12
348.491	33.79
348.703	19.46
348.915	50.18
349.127	-31.74
349.339	-1.02
349.551	15.36
349.763	44.03
349.975	33.79
350.187	50.18
350.399	41.98
350.61	105.47
350.822	41.98
351.034	80.89
351.246	31.74
351.458	54.27
351.669	91.13
351.881	62.46
352.093	84.99
352.305	76.8
352.517	58.37
352.728	41.98
352.94	21.5
353.152	80.89
353.363	-107.52
353.575	50.18
353.787	117.76
353.999	39.94
354.21	123.9
354.422	-35.84
354.633	21.5
354.845	29.7
355.057	37.89
355.268	41.98
355.48	70.65
355.692	-15.36
355.903	23.55
356.115	113.66
356.326	-76.8
356.538	44.03
356.749	82.94
356.961	107.52
357.172	72.7
357.384	29.7
357.595	166.91
357.807	19.46
358.018	29.7
358.23	31.74
358.441	70.65
358.653	52.22
358.864	62.46
359.075	-35.84
359.287	89.09
359.498	62.46
359.709	72.7
359.921	7.17
360.132	-3.07
360.344	-15.36
360.555	13.31
360.766	91.13
360.977	72.7
361.189	97.28
361.4	62.46
361.611	44.03
361.823	78.85
362.034	-1.02
362.245	7.17
362.456	17.41
362.667	48.13
362.879	-33.79
363.09	74.75
363.301	68.61
363.512	35.84
363.723	56.32
363.935	37.89
364.146	39.94
364.357	60.42
364.568	109.57
364.779	-11.26
364.99	123.9
365.201	-27.65
365.412	56.32
365.623	-107.52
365.834	-29.7
366.045	68.61
366.256	84.99
366.467	15.36
366.678	-17.41
366.889	-68.61
367.1	52.22
367.311	113.66
367.522	5.12
367.733	78.85
367.944	111.61
368.155	60.42
368.366	64.51
368.577	7.17
368.788	91.13
368.999	-19.46
369.209	82.94
369.42	179.2
369.631	189.44
369.842	56.32
370.053	60.42
370.264	74.75
370.474	33.79
370.685	5.12
370.896	41.98
371.107	56.32
371.317	105.47
371.528	-3.07
371.739	142.33
371.95	91.13
372.16	66.56
372.371	25.6
372.582	101.37
372.792	54.27
373.003	17.41
373.214	64.51
373.424	125.95
373.635	48.13
373.846	68.61
374.056	76.8
374.267	58.37
374.477	48.13
374.688	50.18
374.898	41.98
375.109	9.22
375.319	56.32
375.53	-1.02
375.74	58.37
375.951	46.08
376.161	107.52
376.372	17.41
376.582	44.03
376.793	23.55
377.003	11.26
377.214	60.42
377.424	146.43
377.635	74.75
377.845	44.03
378.055	191.49
378.266	-1.02
378.476	25.6
378.686	19.46
378.897	99.33
379.107	25.6
379.317	82.94
379.528	-3.07
379.738	31.74
379.948	-33.79
380.158	99.33
380.369	82.94
380.579	35.84
380.789	44.03
380.999	84.99
381.21	78.85
381.42	78.85
381.63	64.51
381.84	50.18
382.05	33.79
382.261	50.18
382.471	91.13
382.681	-33.79
382.891	80.89
383.101	91.13
383.311	-37.89
383.521	-15.36
383.731	103.42
383.941	89.09
384.151	-27.65
384.361	60.42
384.571	58.37
384.781	21.5
384.991	144.38
385.201	134.14
385.411	87.04
385.621	58.37
385.831	29.7
386.041	64.51
386.251	80.89
386.461	138.24
386.671	23.55
386.881	-9.22
387.091	25.6
387.301	87.04
387.511	9.22
387.72	33.79
387.93	48.13
388.14	31.74
388.35	15.36
388.56	107.52
388.769	29.7
388.979	27.65
389.189	5.12
389.399	11.26
389.609	109.57
389.818	76.8
390.028	52.22
390.238	93.18
390.447	-29.7
390.657	82.94
390.867	-3.07
391.076	-13.31
391.286	35.84
391.496	-11.26
391.705	17.41
391.915	74.75
392.125	93.18
392.334	-1.02
392.544	82.94
392.753	33.79
392.963	27.65
393.172	111.61
393.382	-48.13
393.591	113.66
393.801	64.51
394.01	123.9
394.22	15.36
394.429	107.52
394.639	50.18
394.848	168.96
395.058	9.22
395.267	11.26
395.477	109.57
395.686	15.36
395.895	84.99
396.105	154.62
396.314	56.32
396.524	62.46
396.733	80.89
396.942	25.6
397.152	19.46
397.361	56.32
397.57	234.49
397.78	41.98
397.989	60.42
398.198	214.01
398.407	31.74
398.617	89.09
398.826	33.79
399.035	25.6
399.244	66.56
399.453	105.47
399.663	54.27
399.872	119.81
400.081	84.99
400.29	80.89
400.499	3.07
400.708	146.43
400.917	17.41
401.127	46.08
401.336	70.65
401.545	154.62
401.754	91.13
401.963	134.14
402.172	93.18
402.381	27.65
402.59	162.81
402.799	56.32
403.008	87.04
403.217	115.71
403.426	183.29
403.635	7.17
403.844	84.99
404.053	107.52
404.262	68.61
404.471	152.57
404.68	111.61
404.888	99.33
405.097	146.43
405.306	132.09
405.515	158.72
405.724	33.79
405.933	130.05
406.142	101.37
406.35	168.96
406.559	132.09
406.768	74.75
406.977	197.63
407.185	150.53
407.394	171.01
407.603	109.57
407.812	189.44
408.02	218.11
408.229	183.29
408.438	185.34
408.646	142.33
408.855	154.62
409.064	187.39
409.272	168.96
409.481	232.44
409.69	224.25
409.898	146.43
410.107	189.44
410.315	242.68
410.524	187.39
410.733	191.49
410.941	283.64
411.15	347.13
411.358	226.3
411.567	263.16
411.775	320.51
411.984	338.94
412.192	293.88
412.401	355.32
412.609	359.42
412.818	435.19
413.026	457.72
413.234	447.48
413.443	451.58
413.651	474.1
413.86	496.63
414.068	449.53
414.276	445.43
414.485	486.39
414.693	500.73
414.901	568.31
415.11	539.64
415.318	525.3
415.526	560.12
415.734	601.08
415.943	680.95
416.151	652.28
416.359	607.22
416.567	607.22
416.776	648.18
416.984	730.1
417.192	832.5
417.4	693.24
417.608	697.33
417.817	834.55
418.025	848.88
418.233	910.32
418.441	834.55
418.649	848.88
418.857	996.34
419.065	1043.44
419.273	1041.39
419.481	1035.25
419.689	945.14
419.897	1192.94
420.105	1113.07
420.313	1235.95
420.521	1235.95
420.729	1197.04
420.937	1235.95
421.145	1295.34
421.353	1332.2
421.561	1416.17
421.769	1471.47
421.977	1498.09
422.185	1510.38
422.393	1604.58
422.601	1721.32
422.809	1801.19
423.017	1678.31
423.224	1758.18
423.432	1758.18
423.64	1899.49
423.848	1993.7
424.056	1946.59
424.263	2126.82
424.471	2120.67
424.679	2114.53
424.887	2278.37
425.094	2448.35
425.302	2286.56
425.51	2485.21
425.718	2542.55
425.925	2628.57
426.133	2511.83
426.341	2763.73
426.548	2761.69
426.756	2976.72
426.964	2903
427.171	3068.88
427.379	3079.12
427.586	3240.91
427.794	3380.17
428.001	3406.8
428.209	3666.89
428.417	3460.04
428.624	3720.14
428.832	3847.11
429.039	3642.31
429.247	3787.72
429.454	4002.75
429.662	4193.22
429.869	4355.01
430.076	4330.43
430.284	4166.59
430.491	4553.66
430.699	4582.33
430.906	4621.24
431.114	4752.31
431.321	4924.34
431.528	4916.15
431.736	5411.76
431.943	5628.84
432.15	5303.22
432.358	5452.72
432.565	5956.52
432.772	5538.73
432.979	6015.91
433.187	6046.63
433.394	6095.78
433.601	6568.86
433.808	6474.65
434.016	6564.76
434.223	6822.81
434.43	7336.85
434.637	7105.43
434.844	7576.46
435.052	7631.76
435.259	7652.24
435.466	7697.29
435.673	7598.99
435.88	8172.42
436.087	8557.44
436.294	8442.75
436.501	8285.06
436.708	8549.25
436.915	8760.19
437.122	9192.31
437.329	9225.08
437.537	9337.71
437.743	9360.24
437.95	9530.22
438.157	10093.41
438.364	10244.96
438.571	10181.48
438.778	10204
438.985	11045.72
439.192	10910.55
439.399	11113.3
439.606	10810.2
439.813	11531.09
440.02	12190.53
440.227	12186.44
440.433	12026.7
440.64	12065.61
440.847	12139.33
441.054	12395.33
441.261	13108.02
441.467	13177.65
441.674	13364.02
441.881	13761.33
442.088	13699.89
442.294	13777.71
442.501	14048.04
442.708	14304.04
442.914	14709.54
443.121	15432.47
443.328	15076.12
443.534	16005.9
443.741	15411.99
443.948	15465.24
444.154	16601.86
444.361	16270.09
444.568	16491.27
444.774	16415.49
444.981	16581.38
445.187	17328.89
445.394	18096.88
445.6	17767.15
445.807	19561.17
446.013	18510.57
446.22	18776.8
446.426	19782.35
446.633	19651.28
446.839	20687.56
447.046	19432.15
447.252	20781.76
447.459	20630.21
447.665	20384.46
447.871	21664.44
448.078	22184.62
448.284	21557.94
448.491	22114.99
448.697	22911.65
448.903	23394.97
449.11	23311
449.316	22721.19
449.522	23268
449.728	24083.09
449.935	24183.44
450.141	24238.73
450.347	24816.26
450.553	24015.51
450.76	24316.56
450.966	24822.41
451.172	24752.77
451.378	25371.26
451.584	24744.58
451.791	25406.08
451.997	25531
452.203	25571.96
452.409	25805.43
452.615	25477.76
452.821	24711.81
453.027	24423.05
453.233	25500.28
453.44	24654.47
453.646	24963.72
453.852	24654.47
454.058	25051.78
454.264	24386.19
454.47	24892.04
454.676	24330.89
454.882	25164.42
455.088	22790.82
455.294	23382.68
455.5	23974.55
455.705	24212.11
455.911	22805.16
456.117	22239.92
456.323	21949.11
456.529	20931.26
456.735	21826.23
456.941	21316.28
457.147	21027.52
457.352	20566.73
457.558	20177.61
457.764	20427.46
457.97	19378.9
458.176	19174.11
458.381	18997.98
458.587	18236.14
458.793	18639.59
458.999	17251.06
459.204	18391.78
459.41	17820.4
459.616	16909.05
459.821	16747.26
460.027	16714.5
460.233	16427.78
460.438	15500.05
460.644	15868.69
460.85	15043.35
461.055	14711.58
461.261	14521.12
461.466	13382.45
461.672	12985.15
461.878	14031.66
462.083	13130.55
462.289	12673.85
462.494	12608.32
462.7	12182.34
462.905	11764.56
463.111	12151.62
463.316	12225.35
463.522	11852.62
463.727	12018.5
463.932	12014.41
464.138	11760.46
464.343	11821.9
464.549	11465.55
464.754	11891.53
464.959	11739.98
465.165	11713.36
465.37	11215.7
465.575	10959.7
465.781	11137.88
465.986	11299.67
466.191	10881.88
466.397	10623.84
466.602	10105.7
466.807	10437.47
467.012	10656.61
467.218	10400.61
467.423	10378.08
467.628	10466.14
467.833	10791.77
468.038	10451.81
468.244	10179.43
468.449	10335.07
468.654	10173.28
468.859	9952.1
469.064	9743.21
469.269	9722.73
469.474	9874.28
469.679	9640.81
469.885	9661.29
470.09	9638.76
470.295	9589.61
470.5	9253.75
470.705	9472.88
470.91	9317.23
471.115	9081.72
471.32	9300.85
471.525	9100.15
471.73	9106.29
471.935	8852.34
472.139	8479.61
472.344	8696.7
472.549	8674.17
472.754	8514.43
472.959	8360.83
473.164	8280.96
473.369	7953.29
473.574	8317.83
473.778	8272.77
473.983	8184.71
474.188	8110.98
474.393	7779.21
474.598	7680.91
474.802	7535.5
475.007	7625.61
475.212	7707.53
475.417	7277.46
475.621	7375.76
475.826	7238.55
476.031	7396.24
476.235	7205.78
476.44	7244.69
476.645	7154.58
476.849	7041.94
477.054	6878.1
477.259	6779.8
477.463	6953.88
477.668	6767.51
477.872	6798.23
478.077	6560.67
478.282	6505.37
478.486	6345.63
478.691	6515.61
478.895	6402.97
479.1	6382.49
479.304	6396.83
479.509	6179.75
479.713	6216.61
479.918	6079.4
480.122	6056.87
480.326	6134.69
480.531	6194.08
480.735	6003.62
480.94	5909.41
481.144	6237.09
481.348	5794.73
481.553	6024.1
481.757	5718.95
481.961	5931.94
482.166	5868.45
482.37	6038.44
482.574	5772.2
482.778	5815.21
482.983	5823.4
483.187	5755.82
483.391	6042.53
483.595	5864.36
483.8	5735.34
484.004	5788.58
484.208	5862.31
484.412	5868.45
484.616	5680.04
484.821	5911.46
485.025	5645.23
485.229	5956.52
485.433	5807.02
485.637	5757.86
485.841	5667.75
486.045	5804.97
486.249	5751.72
486.453	5579.69
486.657	5753.77
486.861	5643.18
487.065	5614.51
487.269	5651.37
487.473	5444.52
487.677	5698.47
487.881	5819.3
488.085	5753.77
488.289	5764.01
488.493	5735.34
488.697	5790.63
488.901	5725.1
489.105	5761.96
489.309	5753.77
489.512	5809.06
489.716	5710.76
489.92	5677.99
490.124	5653.42
490.328	5895.08
490.531	5651.37
490.735	6058.92
490.939	5807.02
491.143	5774.25
491.346	5968.8
491.55	5878.69
491.754	5835.69
491.958	5940.13
492.161	6001.57
492.365	5979.04
492.569	5911.46
492.772	6112.16
492.976	6130.59
493.18	6093.73
493.383	5899.17
493.587	6187.94
493.79	6120.35
493.994	6142.88
494.197	6212.51
494.401	6241.18
494.605	6071.2
494.808	6402.97
495.012	6294.43
495.215	6435.74
495.419	6497.18
495.622	6349.73
495.825	6529.95
496.029	6312.86
496.232	6650.78
496.436	6435.74
496.639	6845.34
496.843	6753.18
497.046	6751.13
497.249	6890.39
497.453	7105.43
497.656	6808.47
497.859	6890.39
498.063	7166.87
498.266	7160.72
498.469	7089.04
498.673	7349.14
498.876	7299.98
499.079	7553.93
499.282	7500.69
499.485	7818.12
499.689	7533.45
499.892	7875.46
500.095	7715.72
500.298	8106.88
500.501	7881.61
500.705	7988.1
500.908	8297.35
501.111	8237.95
501.314	8373.12
501.517	8395.65
501.72	8606.59
501.923	8512.38
502.126	8792.95
502.329	8600.44
502.532	8809.34
502.735	9081.72
502.938	9024.37
503.141	9356.15
503.344	9311.09
503.547	9450.35
503.75	9085.81
503.953	9501.55
504.156	9433.97
504.359	9669.48
504.562	9622.38
504.765	9919.34
504.968	10146.66
505.17	10156.9
505.373	10117.99
505.576	10482.53
505.779	10466.14
505.982	10367.84
506.185	10849.11
506.387	10736.48
506.59	10810.2
506.793	10988.38
506.996	10918.75
507.198	11281.24
507.401	11187.03
507.604	11264.85
507.807	11567.95
508.009	11502.42
508.212	11651.92
508.415	11748.17
508.617	11553.62
508.82	11801.42
509.022	11932.49
509.225	12225.35
509.428	12196.68
509.63	12436.29
509.833	12587.84
510.035	12815.16
510.238	12536.64
510.44	12702.53
510.643	13011.77
510.845	13218.61
511.048	12831.55
511.25	13165.37
511.453	13345.59
511.655	13681.46
511.858	13839.15
512.06	13923.12
512.262	14089
512.465	13620.02
512.667	14023.47
512.87	13962.03
513.072	14236.45
513.274	14406.44
513.477	14580.51
513.679	14748.45
513.881	14662.43
514.084	15043.35
514.286	14797.6
514.488	14953.24
514.69	15493.91
514.893	15448.85
515.095	15522.58
515.297	15567.63
515.499	15596.31
515.701	15749.9
515.904	15866.64
516.106	16106.25
516.308	16112.39
516.51	16648.96
516.712	16481.03
516.914	16249.61
517.116	16810.75
517.318	16890.62
517.52	16864
517.722	16683.78
517.925	17318.65
518.127	17318.65
518.329	17326.84
518.531	17150.71
518.733	17607.41
518.935	17636.08
519.136	17830.64
519.338	17996.53
519.54	18023.15
519.742	18170.6
519.944	18457.32
520.146	18381.54
520.348	18705.12
520.55	18871.01
520.752	18559.72
520.954	18897.63
521.155	18885.34
521.357	19176.16
521.559	19253.98
521.761	19684.05
521.963	19229.4
522.164	19487.45
522.366	19618.52
522.568	19790.55
522.77	19518.17
522.971	20230.86
523.173	19755.73
523.375	19909.33
523.576	20167.37
523.778	20093.65
523.98	20288.2
524.181	20345.55
524.383	20320.97
524.584	20585.16
524.786	20425.42
524.988	20585.16
525.189	20763.33
525.391	20642.5
525.592	20736.71
525.794	20767.43
525.995	20884.16
526.197	21152.45
526.398	21390.01
526.6	21248.7
526.801	21080.77
527.003	21236.41
527.204	20947.65
527.406	21408.44
527.607	21435.06
527.808	21363.39
528.01	20986.56
528.211	21328.57
528.412	21695.16
528.614	21574.33
528.815	21652.15
529.016	21529.27
529.218	21457.59
529.419	21496.5
529.62	21846.71
529.822	21322.43
530.023	21283.52
530.224	21519.03
530.425	21756.6
530.626	21359.29
530.828	21508.79
531.029	22139.57
531.23	21566.13
531.431	21764.79
531.632	21830.32
531.833	21635.77
532.035	21748.4
532.236	21656.25
532.437	21928.63
532.638	21646.01
532.839	21682.87
533.04	21564.09
533.241	21666.49
533.442	22078.13
533.643	21746.36
533.844	21785.27
534.045	21770.93
534.246	22033.07
534.447	21840.56
534.648	21904.05
534.849	21760.69
535.05	21584.57
535.251	21705.4
535.451	21637.81
535.652	21693.11
535.853	21717.68
536.054	21924.53
536.255	21799.6
536.456	21482.17
536.657	22049.46
536.857	21789.36
537.058	21746.36
537.259	21963.44
537.46	21828.27
537.66	21807.8
537.861	21631.67
538.062	21836.47
538.263	21826.23
538.463	21621.43
538.664	21662.39
538.865	21555.9
539.065	22035.12
539.266	21562.04
539.466	21867.19
539.667	21603
539.868	21746.36
540.068	21664.44
540.269	22010.54
540.469	21981.87
540.67	21678.77
540.87	21793.46
541.071	21723.83
541.271	21922.48
541.472	21678.77
541.672	21457.59
541.873	21533.37
542.073	21164.73
542.274	21686.97
542.474	21578.42
542.675	21285.56
542.875	21699.25
543.075	21269.18
543.276	21273.28
543.476	21523.13
543.676	21586.61
543.877	21555.9
544.077	21516.98
544.277	21455.54
544.478	21504.7
544.678	21490.36
544.878	21383.87
545.078	21318.33
545.279	21324.47
545.479	21166.78
545.679	21181.12
545.879	21871.28
546.079	21338.81
546.28	21387.96
546.48	21174.97
546.68	21484.22
546.88	21613.24
547.08	21670.58
547.28	21369.53
547.48	21275.32
547.68	21498.55
547.88	21134.01
548.081	21303.99
548.281	21179.07
548.481	21424.83
548.681	21502.65
548.881	21478.07
549.081	21426.87
549.28	21199.55
549.48	21654.2
549.68	21490.36
549.88	21697.2
550.08	21025.47
550.28	21375.67
550.48	21541.56
550.68	21209.79
550.88	21138.11
551.08	21303.99
551.279	21447.35
551.479	21084.86
551.679	21271.23
551.879	21181.12
552.079	21357.24
552.278	21117.63
552.478	21318.33
552.678	20927.17
552.878	21482.17
553.077	20974.27
553.277	21070.53
553.477	21355.19
553.676	21232.32
553.876	21279.42
554.076	21248.7
554.275	21152.45
554.475	20701.89
554.674	21252.8
554.874	21185.21
555.074	21136.06
555.273	21365.43
555.473	21252.8
555.672	20966.08
555.872	21097.15
556.071	21054.14
556.271	21254.84
556.47	20980.42
556.67	20974.27
556.869	20941.5
557.068	21258.94
557.268	21121.73
557.467	20994.75
557.667	21142.21
557.866	21050.05
558.065	21101.25
558.265	20593.35
558.464	20742.85
558.663	21193.4
558.863	20837.06
559.062	21187.26
559.261	20882.11
559.461	21148.35
559.66	20976.32
559.859	20861.63
560.058	20925.12
560.258	21029.57
560.457	20558.53
560.656	20896.45
560.855	20849.35
561.054	21242.56
561.253	20630.21
561.453	20830.91
561.652	20900.55
561.851	20812.48
562.05	20953.79
562.249	20761.28
562.448	21068.48
562.647	20542.15
562.846	20871.87
563.045	20937.41
563.244	20914.88
563.443	20947.65
563.642	20693.7
563.841	20878.02
564.04	20765.38
564.239	20964.03
564.438	20665.03
564.637	20734.66
564.836	20712.13
565.035	20611.78
565.234	20765.38
565.432	20769.48
565.631	20654.79
565.83	20443.85
566.029	20536.01
566.228	20273.87
566.427	20710.08
566.625	20744.9
566.824	20351.69
567.023	20769.48
567.222	20611.78
567.42	20628.17
567.619	20425.42
567.818	20511.43
568.016	20617.93
568.215	20775.62
568.414	20595.4
568.612	20789.95
568.811	20550.34
569.01	20574.92
569.208	20222.67
569.407	20603.59
569.605	20269.77
569.804	20638.41
570.002	20277.96
570.201	20316.87
570.4	20308.68
570.598	20359.88
570.797	20099.79
570.995	20419.27
571.193	20099.79
571.392	20400.84
571.59	20220.62
571.789	20540.1
571.987	20159.18
572.186	20011.73
572.384	20128.46
572.582	20396.74
572.781	20325.07
572.979	20052.69
573.177	20019.92
573.376	20325.07
573.574	20359.88
573.772	20085.45
573.971	20005.58
574.169	19917.52
574.367	19995.34
574.565	20490.95
574.763	19907.28
574.962	19905.23
575.16	19794.64
575.358	20171.47
575.556	19591.89
575.754	20171.47
575.952	19882.7
576.151	19958.48
576.349	19821.27
576.547	19684.05
576.745	20187.85
576.943	19794.64
577.141	20042.45
577.339	19864.27
577.537	19950.29
577.735	19886.8
577.933	19581.65
578.131	19589.85
578.329	19747.54
578.527	19651.28
578.725	19763.92
578.923	19612.37
579.121	19735.25
579.319	19659.48
579.516	19665.62
579.714	19524.31
579.912	19395.29
580.11	19518.17
580.308	19403.48
580.506	19524.31
580.704	19321.56
580.901	19538.65
581.099	19636.95
581.297	19229.4
581.495	19542.74
581.692	19612.37
581.89	19299.03
582.088	19260.12
582.285	19215.07
582.483	19245.79
582.681	19270.36
582.878	19241.69
583.076	19282.65
583.274	19356.38
583.471	19065.57
583.669	19303.13
583.866	19233.5
584.064	19413.72
584.262	19096.28
584.459	19131.1
584.657	19235.55
584.854	19393.24
585.052	18778.85
585.249	19065.57
585.447	18954.97
585.644	18954.97
585.841	18971.36
586.039	19266.27
586.236	18985.69
586.434	18842.34
586.631	18768.61
586.828	18877.15
587.026	19034.85
587.223	18750.18
587.42	18713.31
587.618	19196.64
587.815	18922.21
588.012	18877.15
588.21	18903.78
588.407	18901.73
588.604	18604.77
588.801	18778.85
588.999	18782.95
589.196	18639.59
589.393	18864.86
589.59	18897.63
589.787	19135.2
589.984	19002.08
590.182	18422.5
590.379	18830.05
590.576	18406.12
590.773	18606.82
590.97	18545.38
591.167	18676.45
591.364	18424.55
591.561	18490.09
591.758	18737.89
591.955	18459.37
592.152	18635.49
592.349	18404.07
592.546	18731.75
592.743	18582.24
592.94	18412.26
593.137	18549.48
593.334	18830.05
593.531	18379.5
593.727	18471.65
593.924	18739.94
594.121	18377.45
594.318	18610.92
594.515	18356.97
594.712	18852.58
594.908	18346.73
595.105	18514.66
595.302	18447.08
595.499	18529
595.696	18340.58
595.892	18381.54
596.089	18682.59
596.286	18289.38
596.482	18506.47
596.679	18608.87
596.876	18471.65
597.072	18412.26
597.269	18627.3
597.466	18242.28
597.662	18324.2
597.859	18320.1
598.055	18612.96
598.252	18363.11
598.448	18621.16
598.645	18383.59
598.841	18359.02
599.038	18334.44
599.234	18553.57
599.431	18346.73
599.627	18381.54
599.824	18752.23
600.02	18229.99
600.217	18539.24
600.413	18424.55
600.609	18565.86
600.806	18717.41
601.002	18690.79
601.198	18373.35
601.395	18488.04
601.591	18602.72
601.787	18617.06
601.984	18680.55
602.18	18590.44
602.376	18604.77
602.572	18690.79
602.769	18784.99
602.965	18447.08
603.161	18803.43
603.357	18508.52
603.553	18746.08
603.75	18610.92
603.946	18404.07
604.142	18737.89
604.338	18633.44
604.534	18651.88
604.73	18488.04
604.926	18561.76
605.122	18836.19
605.318	18674.4
605.514	18938.59
605.71	18717.41
605.906	18600.68
606.102	18756.32
606.298	19051.23
606.494	18760.42
606.69	19014.37
606.886	18864.86
607.082	18598.63
607.278	18909.92
607.474	18635.49
607.67	18774.75
607.866	18526.95
608.062	19069.66
608.257	18893.54
608.453	19075.8
608.649	19040.99
608.845	18957.02
609.041	18946.78
609.236	19088.09
609.432	19256.03
609.628	19360.47
609.824	19251.93
610.019	19270.36
610.215	19319.51
610.411	19194.59
610.606	19288.79
610.802	19325.66
610.998	19208.92
611.193	19571.41
611.389	19397.34
611.584	19469.01
611.78	19190.49
611.976	19477.21
612.171	19589.85
612.367	19761.87
612.562	19528.41
612.758	19360.47
612.953	19362.52
613.149	19485.4
613.344	19575.51
613.539	19921.62
613.735	19770.07
613.93	20122.32
614.126	19874.51
614.321	20341.45
614.517	19600.08
614.712	19876.56
614.907	19755.73
615.103	20021.97
615.298	19915.47
615.493	20335.31
615.688	19765.97
615.884	20335.31
616.079	19970.77
616.274	19884.75
616.47	19798.74
616.665	20069.07
616.86	19987.15
617.055	20226.76
617.25	20085.45
617.445	20126.41
617.641	19708.63
617.836	20257.48
618.031	19688.15
618.226	20128.46
618.421	19794.64
618.616	20001.49
618.811	19876.56
619.006	20302.54
619.201	19557.08
619.396	19978.96
619.591	19612.37
619.786	20239.05
619.981	19737.3
620.176	19884.75
620.371	19792.59
620.566	19886.8
620.761	19821.27
620.956	19780.31
621.151	19464.92
621.346	19735.25
621.541	19536.6
621.735	19583.7
621.93	19673.81
622.125	19505.88
622.32	19192.54
622.515	19317.47
622.709	19333.85
622.904	19172.06
623.099	19110.62
623.294	19180.25
623.488	19061.47
623.683	19249.88
623.878	18719.46
624.072	19231.45
624.267	18969.31
624.462	18840.29
624.656	18696.93
624.851	18725.6
625.046	18967.26
625.24	18508.52
625.435	18449.13
625.629	18533.09
625.824	18336.49
626.018	18338.54
626.213	17867.5
626.407	18500.33
626.602	17847.02
626.796	18227.95
626.991	18017.01
627.185	18166.51
627.38	17851.12
627.574	17824.5
627.768	17826.54
627.963	17691.38
628.157	17574.64
628.352	17718
628.546	17349.37
628.74	17580.79
628.935	17187.58
629.129	17445.62
629.323	17228.54
629.517	17273.59
629.712	17255.16
629.906	17093.37
630.1	16894.72
630.294	17031.93
630.489	17087.23
630.683	17140.47
630.877	16614.15
631.071	16493.32
631.265	16702.21
631.459	16390.92
631.653	16124.68
631.848	16435.97
632.042	16294.66
632.236	16317.19
632.43	16216.84
632.624	16298.76
632.818	16188.17
633.012	15842.06
633.206	15827.73
633.4	16055.05
633.594	15799.05
633.788	15819.53
633.982	15706.9
634.176	15958.8
634.369	15518.48
634.563	15760.14
634.757	15461.14
634.951	15577.87
635.145	15414.04
635.339	15364.89
635.533	15239.96
635.726	15487.76
635.92	14906.14
636.114	15207.19
636.308	15088.41
636.501	14938.91
636.695	14809.89
636.889	14476.07
637.083	14570.27
637.276	14476.07
637.47	14590.75
637.664	14504.74
637.857	14834.46
638.051	14349.09
638.244	14273.32
638.438	14211.88
638.632	14175.02
638.825	14054.19
639.019	13753.13
639.212	13947.69
639.406	14000.94
639.599	13804.33
639.793	13570.86
639.986	13372.21
640.18	13384.5
640.373	13495.09
640.567	12991.29
640.76	13398.84
640.954	13165.37
641.147	13261.62
641.34	12999.48
641.534	12897.08
641.727	12913.47
641.92	12962.62
642.114	12981.05
642.307	12706.62
642.5	12735.29
642.694	12411.71
642.887	12311.36
643.08	12426.05
643.273	12399.43
643.467	12229.45
643.66	12143.43
643.853	12350.28
644.046	11979.59
644.239	12018.5
644.432	11727.69
644.626	11613.01
644.819	11668.3
645.012	11580.24
645.205	11701.07
645.398	11852.62
645.591	11336.53
645.784	11434.83
645.977	11115.35
646.17	11023.19
646.363	11481.94
646.556	10830.68
646.749	11080.53
646.942	10945.37
647.135	10777.44
647.328	10769.24
647.521	10623.84
647.714	10705.76
647.907	10556.25
648.099	10435.42
648.292	10441.57
648.485	10552.16
648.678	10097.51
648.871	10271.59
649.064	9986.92
649.256	10128.23
649.449	10009.45
649.642	10132.33
649.835	9894.76
650.027	9839.47
650.22	10027.88
650.413	9855.85
650.605	9634.67
650.798	9474.93
650.991	9290.61
651.183	9515.89
651.376	9597.81
651.568	9505.65
651.761	9276.27
651.954	9083.77
652.146	9296.75
652.339	9266.03
652.531	9194.36
652.724	9210.74
652.916	8895.35
653.109	8883.06
653.301	9126.77
653.494	8889.21
653.686	8704.89
653.879	8846.2
654.071	8661.88
654.263	8579.97
654.456	8561.53
654.648	8637.31
654.84	8575.87
655.033	8434.56
655.225	8424.32
655.417	8328.06
655.61	8397.7
655.802	8332.16
655.994	8293.25
656.186	8156.04
656.379	8115.08
656.571	8231.81
656.763	7854.98
656.955	8090.5
657.148	7926.66
657.34	7830.41
657.532	7830.41
657.724	7859.08
657.916	7590.8
658.108	7588.75
658.3	7568.27
658.492	7594.89
658.684	7451.53
658.876	7431.05
659.068	7404.43
659.26	7261.07
659.452	7125.91
659.644	7127.96
659.836	7099.28
660.028	7154.58
660.22	6816.66
660.412	7150.48
660.604	6792.09
660.796	7023.51
660.988	6933.4
661.18	6800.28
661.372	6658.97
661.563	6794.14
661.755	6749.08
661.947	6476.7
662.139	6525.85
662.331	6628.25
662.522	6550.43
662.714	6329.25
662.906	6441.89
663.097	6136.74
663.289	6280.1
663.481	6040.48
663.673	6171.55
663.864	6022.05
664.056	6022.05
664.247	6192.03
664.439	6024.1
664.631	5936.04
664.822	5796.78
665.014	5841.83
665.205	5737.38
665.397	5716.9
665.588	5809.06
665.78	5764.01
665.971	5596.07
666.163	5540.78
666.354	5761.96
666.546	5434.29
666.737	5530.54
666.929	5422
667.12	5272.5
667.311	5348.27
667.503	5333.93
667.694	5440.43
667.885	5258.16
668.077	5221.3
668.268	5309.36
668.459	5280.69
668.651	5098.42
668.842	5241.78
669.033	5088.18
669.224	4928.44
669.416	5227.44
669.607	5012.4
669.798	4955.06
669.989	5182.38
670.18	5002.16
670.371	4985.78
670.563	4895.67
670.754	4821.94
670.945	4787.13
671.136	4864.95
671.327	4662.2
671.518	4772.79
671.709	4797.37
671.9	4826.04
672.091	4832.18
672.282	4707.26
672.473	4539.32
672.664	4533.18
672.855	4760.5
673.046	4690.87
673.237	4737.98
673.428	4611
673.619	4451.26
673.809	4555.71
674	4475.84
674.191	4533.18
674.382	4498.36
674.573	4469.69
674.764	4451.26
674.954	4586.43
675.145	4498.36
675.336	4348.86
675.527	4383.68
675.717	4404.16
675.908	4307.9
676.099	4307.9
676.289	4285.37
676.48	4438.97
676.671	4336.57
676.861	4303.81
677.052	4334.53
677.243	4289.47
677.433	4279.23
677.624	4355.01
677.814	4393.92
678.005	4230.08
678.195	4209.6
678.386	4277.18
678.576	4275.13
678.767	4211.65
678.957	4109.25
679.148	4207.55
679.338	4201.41
679.529	4096.96
679.719	4191.17
679.909	4268.99
680.1	4234.18
680.29	4158.4
680.481	4053.95
680.671	4209.6
680.861	4225.98
681.052	4121.54
681.242	4029.38
681.432	4101.06
681.622	4096.96
681.813	4096.96
682.003	4195.26
682.193	4152.26
682.383	3978.18
682.573	4148.16
682.764	4152.26
682.954	4166.59
683.144	4207.55
683.334	4131.78
683.524	4049.86
683.714	4154.3
683.904	4119.49
684.094	4185.02
684.284	4035.52
684.474	4119.49
684.664	4174.78
684.854	4211.65
685.044	4109.25
685.234	4109.25
685.424	3937.22
685.614	4027.33
685.804	4080.58
685.994	4146.11
686.184	4228.03
686.374	4262.85
686.564	3935.17
686.753	4256.7
686.943	4094.91
687.133	4035.52
687.323	4041.67
687.513	4234.18
687.702	4123.59
687.892	4004.8
688.082	4029.38
688.272	4035.52
688.461	4004.8
688.651	4199.36
688.841	3996.61
689.03	3941.32
689.22	4037.57
689.41	4041.67
689.599	4076.48
689.789	4068.29
689.979	4121.54
690.168	4156.35
690.358	4019.14
690.547	4023.23
690.737	4015.04
690.926	4123.59
691.116	3955.65
691.305	4228.03
691.495	4101.06
691.684	4115.39
691.874	4068.29
692.063	4012.99
692.252	4045.76
692.442	4004.8
692.631	4074.43
692.82	4144.06
693.01	4121.54
693.199	4133.82
693.388	4029.38
693.578	4117.44
693.767	4107.2
693.956	4275.13
694.146	4142.02
694.335	4119.49
694.524	4234.18
694.713	4146.11
694.902	4201.41
695.092	4103.11
695.281	4236.22
695.47	4148.16
695.659	4203.46
695.848	4129.73
696.037	4148.16
696.226	4150.21
696.415	4019.14
696.604	4105.15
696.793	4240.32
696.982	4035.52
697.171	4191.17
697.36	4191.17
697.549	4139.97
697.738	4064.19
697.927	3972.04
698.116	4232.13
698.305	4223.94
698.494	4232.13
698.683	4268.99
698.872	4279.23
699.061	4187.07
699.25	4033.47
699.438	4201.41
699.627	4219.84
699.816	4256.7
700.005	4209.6
700.193	4168.64
700.382	4279.23
700.571	4328.38
700.76	4236.22
700.948	4385.73
701.137	4318.14
701.326	4320.19
701.514	4238.27
701.703	4211.65
701.892	4199.36
702.08	4293.57
702.269	4348.86
702.457	4254.66
702.646	4230.08
702.834	4232.13
703.023	4213.7
703.212	4197.31
703.4	4182.98
703.589	4158.4
703.777	4258.75
703.965	4072.39
704.154	4170.69
704.342	4236.22
704.531	4111.3
704.719	4101.06
704.907	4340.67
705.096	4162.5
705.284	4336.57
705.472	4086.72
705.661	4346.81
705.849	4307.9
706.037	4312
706.226	4072.39
706.414	4178.88
706.602	4137.92
706.79	4230.08
706.979	4191.17
707.167	4178.88
707.355	4072.39
707.543	4135.87
707.731	4215.74
707.919	4139.97
708.107	4109.25
708.296	4248.51
708.484	4166.59
708.672	4084.67
708.86	4139.97
709.048	4080.58
709.236	4178.88
709.424	4225.98
709.612	4281.28
709.8	3963.84
709.988	4185.02
710.176	4045.76
710.364	4201.41
710.551	4113.35
710.739	3943.36
710.927	4125.63
711.115	4131.78
711.303	4164.54
711.491	4094.91
711.679	4045.76
711.866	3986.37
712.054	3951.56
712.242	3988.42
712.43	4129.73
712.617	4025.28
712.805	4096.96
712.993	4094.91
713.181	3818.44
713.368	4060.1
713.556	4006.85
713.744	3865.54
713.931	4084.67
714.119	3965.89
714.306	3933.12
714.494	3935.17
714.682	3840.97
714.869	3873.73
715.057	3898.31
715.244	3830.73
715.432	3906.5
715.619	3996.61
715.807	3918.79
715.994	3955.65
716.182	3828.68
716.369	3922.88
716.556	3976.13
716.744	3900.36
716.931	3820.49
717.119	3982.28
717.306	4047.81
717.493	3912.64
717.681	3757
717.868	3759.05
718.055	3982.28
718.242	3791.81
718.43	3877.83
718.617	3697.61
718.804	4092.87
718.991	3865.54
719.179	3724.23
719.366	3736.52
719.553	3877.83
719.74	3664.84
719.927	3744.71
720.114	3605.45
720.301	3619.78
720.488	3754.95
720.676	3654.6
720.863	3802.05
721.05	3668.94
721.237	3730.38
721.424	3722.18
721.611	3775.43
721.798	3701.7
721.985	3550.15
722.172	3634.12
722.358	3525.58
722.545	3505.1
722.732	3509.19
722.919	3593.16
723.106	3562.44
723.293	3527.63
723.48	3570.63
723.667	3591.11
723.853	3689.42
724.04	3673.03
724.227	3591.11
724.414	3488.71
724.6	3431.37
724.787	3593.16
724.974	3533.77
725.161	3507.15
725.347	3398.6
725.534	3496.91
725.72	3546.06
725.907	3529.67
726.094	3460.04
726.28	3361.74
726.467	3349.45
726.653	3441.61
726.84	3355.6
727.027	3556.3
727.213	3322.83
727.4	3453.9
727.586	3324.88
727.773	3376.08
727.959	3351.5
728.145	3398.6
728.332	3371.98
728.518	3275.73
728.705	3414.99
728.891	3288.01
729.077	3402.7
729.264	3275.73
729.45	3390.41
729.636	3363.79
729.823	3355.6
730.009	3339.21
730.195	3296.21
730.382	3308.49
730.568	3230.67
730.754	3177.42
730.94	3316.69
731.126	3226.57
731.313	3398.6
731.499	3113.94
731.685	3228.62
731.871	3335.12
732.057	3105.74
732.243	3204.05
732.429	3199.95
732.615	3216.33
732.801	3171.28
732.987	3210.19
733.173	3064.79
733.359	3195.86
733.545	3238.86
733.731	3021.78
733.917	3161.04
734.103	3230.67
734.289	3150.8
734.475	3038.16
734.661	3251.15
734.847	3003.35
735.033	3058.64
735.219	3140.56
735.404	3126.22
735.59	3089.36
735.776	2941.91
735.962	3079.12
736.148	3128.27
736.333	3009.49
736.519	3005.39
736.705	3009.49
736.89	2976.72
737.076	3032.02
737.262	2894.8
737.447	2896.85
737.633	2913.24
737.819	2997.2
738.004	2857.94
738.19	2880.47
738.375	2800.6
738.561	2950.1
738.747	2862.04
738.932	2788.31
739.118	2819.03
739.303	2698.2
739.489	2739.16
739.674	2687.96
739.859	2683.86
740.045	2675.67
740.23	2735.06
740.416	2618.33
740.601	2782.17
740.786	2649.05
740.972	2552.79
741.157	2765.78
741.342	2626.52
741.528	2587.61
741.713	2712.53
741.898	2671.58
742.084	2603.99
742.269	2642.9
742.454	2628.57
742.639	2595.8
742.824	2706.39
743.01	2667.48
743.195	2649.05
743.38	2487.26
743.565	2593.75
743.75	2575.32
743.935	2454.49
744.12	2524.12
744.305	2503.64
744.49	2388.96
744.675	2470.87
744.86	2434.01
745.045	2417.63
745.23	2378.72
745.415	2407.39
745.6	2405.34
745.785	2399.2
745.97	2311.13
746.155	2378.72
746.34	2235.36
746.525	2411.48
746.71	2276.32
746.895	2278.37
747.079	2261.98
747.264	2335.71
747.449	2319.32
747.634	2190.3
747.819	2184.16
748.003	2321.37
748.188	2065.38
748.373	2167.77
748.557	2251.74
748.742	2135.01
748.927	1991.65
749.111	2124.77
749.296	2225.12
749.481	2106.34
749.665	2137.06
749.85	2092
750.034	2081.76
750.219	2069.47
750.404	2042.85
750.588	2026.47
750.773	1922.02
750.957	2012.13
751.141	1932.26
751.326	2057.18
751.51	1915.87
751.695	1932.26
751.879	1983.46
752.064	2036.7
752.248	1997.79
752.432	1981.41
752.617	2089.95
752.801	1899.49
752.985	1768.42
753.17	1817.57
753.354	1889.25
753.538	1899.49
753.722	1827.81
753.907	1692.65
754.091	1702.89
754.275	1819.62
754.459	1696.74
754.643	1694.69
754.828	1739.75
755.012	1704.93
755.196	1655.78
755.38	1655.78
755.564	1735.65
755.748	1674.21
755.932	1633.26
756.116	1602.54
756.3	1700.84
756.484	1608.68
756.668	1754.09
756.852	1483.75
757.036	1569.77
757.22	1565.67
757.404	1573.86
757.588	1545.19
757.772	1522.66
757.956	1479.66
758.14	1649.64
758.323	1559.53
758.507	1553.38
758.691	1448.94
758.875	1469.42
759.059	1459.18
759.242	1514.47
759.426	1485.8
759.61	1377.26
759.794	1473.51
759.977	1493.99
760.161	1516.52
760.345	1401.83
760.528	1471.47
760.712	1510.38
760.895	1393.64
761.079	1473.51
761.263	1463.27
761.446	1313.77
761.63	1405.93
761.813	1410.03
761.997	1313.77
762.18	1313.77
762.364	1401.83
762.547	1287.15
762.731	1293.29
762.914	1317.87
763.098	1256.43
763.281	1313.77
763.464	1256.43
763.648	1281
763.831	1336.3
764.015	1213.42
764.198	1297.39
764.381	1258.48
764.564	1254.38
764.748	1291.24
764.931	1330.16
765.114	1158.13
765.297	1268.72
765.481	1373.16
765.664	1197.04
765.847	1133.55
766.03	1182.7
766.213	1225.71
766.397	1235.95
766.58	1264.62
766.763	1221.61
766.946	1117.17
767.129	1225.71
767.312	1184.75
767.495	1141.74
767.678	1278.96
767.861	1233.9
768.044	1209.33
768.227	1172.46
768.41	1131.5
768.593	1250.28
768.776	1156.08
768.959	1182.7
769.142	1281
769.324	1143.79
769.507	1143.79
769.69	1117.17
769.873	984.05
770.056	1250.28
770.239	1166.32
770.421	1106.93
770.604	1184.75
770.787	1078.26
770.97	1014.77
771.152	1010.67
771.335	1125.36
771.518	1070.06
771.7	1254.38
771.883	1170.41
772.066	979.95
772.248	1133.55
772.431	1065.97
772.613	1139.69
772.796	1004.53
772.978	988.14
773.161	1055.73
773.343	977.91
773.526	971.76
773.708	957.43
773.891	902.13
774.073	1025.01
774.256	887.79
774.438	1006.58
774.621	1012.72
774.803	1004.53
774.985	906.23
775.168	1027.06
775.35	914.42
775.532	986.1
775.715	941.04
775.897	1047.54
776.079	902.13
776.261	1029.1
776.444	830.45
776.626	816.12
776.808	947.19
776.99	818.16
777.173	848.88
777.355	930.8
777.537	838.64
777.719	855.03
777.901	914.42
778.083	822.26
778.265	887.79
778.447	857.07
778.629	809.97
778.811	867.31
778.993	861.17
779.175	814.07
779.357	723.96
779.539	822.26
779.721	875.51
779.903	801.78
780.085	766.96
780.267	809.97
780.449	773.11
780.631	893.94
780.812	803.83
780.994	695.29
781.176	801.78
781.358	736.24
781.54	711.67
781.721	764.92
781.903	766.96
782.085	795.64
782.267	834.55
782.448	654.33
782.63	695.29
782.812	635.89
782.993	703.48
783.175	689.14
783.357	654.33
783.538	668.66
783.72	703.48
783.901	664.57
784.083	738.29
784.264	693.24
784.446	611.32
784.627	551.93
784.809	666.61
784.99	654.33
785.172	556.02
785.353	607.22
785.535	596.98
785.716	629.75
785.897	582.65
786.079	646.13
786.26	560.12
786.441	539.64
786.623	562.17
786.804	572.41
786.985	521.21
787.167	646.13
787.348	601.08
787.529	510.97
787.71	754.68
787.891	586.74
788.073	400.38
788.254	543.74
788.435	558.07
788.616	510.97
788.797	441.34
788.978	539.64
789.159	510.97
789.34	506.87
789.522	523.26
789.703	508.92
789.884	502.78
790.065	556.02
790.246	474.1
790.427	478.2
790.607	601.08
790.788	457.72
790.969	457.72
791.15	459.77
791.331	463.86
791.512	482.3
791.693	463.86
791.874	427
792.054	502.78
792.235	408.57
792.416	404.47
792.597	412.67
792.778	482.3
792.958	447.48
793.139	435.19
793.32	474.1
793.5	435.19
793.681	449.53
793.862	408.57
794.042	340.99
794.223	320.51
794.404	416.76
794.584	355.32
794.765	394.23
794.945	386.04
795.126	502.78
795.306	445.43
795.487	392.19
795.667	371.71
795.848	443.39
796.028	314.36
796.209	386.04
796.389	451.58
796.57	496.63
796.75	316.41
796.93	306.17
797.111	330.75
797.291	365.56
797.471	422.91
797.652	390.14
797.832	353.27
798.012	396.28
798.192	357.37
798.373	369.66
798.553	383.99
798.733	320.51
798.913	271.36
799.093	340.99
799.274	297.98
799.454	361.47
799.634	330.75
799.814	437.24
799.994	412.67
800.174	363.51
800.354	289.79
800.534	211.96
800.714	343.03
800.894	295.93
801.074	281.6
801.254	304.12
801.434	363.51
801.614	289.79
801.794	248.83
801.974	1352.68
802.154	291.84
802.334	386.04
802.514	175.1
802.693	281.6
802.873	302.08
803.053	369.66
803.233	312.32
803.413	238.59
803.592	236.54
803.772	195.58
803.952	218.11
804.131	248.83
804.311	279.55
804.491	261.12
804.67	300.03
804.85	254.97
805.03	261.12
805.209	369.66
805.389	261.12
805.568	302.08
805.748	263.16
805.928	201.72
806.107	216.06
806.287	275.45
806.466	263.16
806.646	228.35
806.825	228.35
807.004	250.88
807.184	279.55
807.363	254.97
807.543	205.82
807.722	226.3
807.901	248.83
808.081	322.56
808.26	211.96
808.439	164.86
808.619	283.64
808.798	185.34
808.977	312.32
809.156	287.74
809.336	242.68
809.515	193.53
809.694	119.81
809.873	197.63
810.052	207.87
810.231	232.44
810.411	216.06
810.59	355.32
810.769	250.88
810.948	218.11
811.127	158.72
811.306	244.73
811.485	216.06
811.664	281.6
811.843	261.12
812.022	218.11
812.201	195.58
812.38	205.82
812.559	228.35
812.737	193.53
812.916	146.43
813.095	189.44
813.274	222.2
813.453	195.58
813.632	181.25
813.811	201.72
813.989	183.29
814.168	171.01
814.347	209.92
814.526	181.25
814.704	265.21
814.883	244.73
815.062	136.19
815.24	228.35
815.419	95.23
815.598	203.77
815.776	62.46
815.955	171.01
816.133	123.9
816.312	123.9
816.49	164.86
816.669	166.91
816.847	134.14
817.026	142.33
817.204	189.44
817.383	107.52
817.561	123.9
817.74	119.81
817.918	162.81
818.097	140.29
818.275	173.05
818.453	177.15
818.632	193.53
818.81	130.05
818.988	166.91
819.167	64.51
819.345	107.52
819.523	154.62
819.701	54.27
819.879	162.81
820.058	205.82
820.236	236.54
820.414	162.81
820.592	171.01
820.77	228.35
820.948	138.24
821.127	107.52
821.305	199.68
821.483	168.96
821.661	283.64
821.839	156.67
822.017	89.09
822.195	68.61
822.373	171.01
822.551	160.77
822.729	156.67
822.907	66.56
823.085	160.77
823.262	183.29
823.44	52.22
823.618	144.38
823.796	76.8
823.974	132.09
824.152	46.08
824.329	93.18
824.507	84.99
824.685	72.7
824.863	128
825.04	97.28
825.218	183.29
825.396	166.91
825.574	82.94
825.751	52.22
825.929	166.91
826.107	82.94
826.284	111.61
826.462	111.61
826.639	113.66
826.817	117.76
826.994	158.72
827.172	164.86
827.349	187.39
827.527	91.13
827.704	95.23
827.882	115.71
828.059	175.1
828.237	107.52
828.414	119.81
828.591	62.46
828.769	70.65
828.946	25.6
829.124	76.8
829.301	177.15
829.478	121.85
829.655	130.05
829.833	91.13
830.01	115.71
830.187	95.23
830.364	62.46
830.542	68.61
830.719	154.62
830.896	171.01
831.073	76.8
831.25	150.53
831.427	99.33
831.604	146.43
831.782	132.09
831.959	173.05
832.136	123.9
832.313	105.47
832.49	125.95
832.667	74.75
832.844	29.7
833.021	207.87
833.198	107.52
833.374	80.89
833.551	72.7
833.728	107.52
833.905	60.42
834.082	-11.26
834.259	128
834.436	103.42
834.612	33.79
834.789	25.6
834.966	23.55
835.143	95.23
835.319	23.55
835.496	89.09
835.673	138.24
835.85	173.05
836.026	50.18
836.203	144.38
836.38	68.61
836.556	64.51
836.733	107.52
836.909	168.96
837.086	3.07
837.262	15.36
837.439	46.08
837.616	62.46
837.792	107.52
837.968	84.99
838.145	5.12
838.321	74.75
838.498	115.71
838.674	54.27
838.851	156.67
839.027	35.84
839.203	50.18
839.38	101.37
839.556	1.02
839.732	64.51
839.909	29.7
840.085	7.17
840.261	46.08
840.437	109.57
840.614	3.07
840.79	130.05
840.966	48.13
841.142	74.75
841.318	78.85
841.494	103.42
841.671	82.94
841.847	-7.17
842.023	56.32
842.199	74.75
842.375	87.04
842.551	-1.02
842.727	-3.07
842.903	179.2
843.079	-5.12
843.255	91.13
843.431	74.75
843.607	70.65
843.783	-7.17
843.959	31.74
844.134	50.18
844.31	72.7
844.486	60.42
844.662	7.17
844.838	78.85
845.013	13.31
845.189	29.7
845.365	74.75
845.541	44.03
845.716	31.74
845.892	31.74
846.068	15.36
846.244	1.02
846.419	76.8
846.595	-21.5
846.77	56.32
846.946	3.07
847.122	99.33
847.297	-33.79
847.473	82.94
847.648	-27.65
847.824	60.42
847.999	-68.61
848.175	5.12
848.35	60.42
848.526	56.32
848.701	74.75
848.876	105.47
849.052	33.79
849.227	72.7
849.403	-58.37
849.578	70.65
849.753	78.85
849.929	103.42
850.104	89.09
850.279	84.99
850.454	15.36
850.63	78.85
850.805	44.03
850.98	58.37
851.155	54.27
851.33	76.8
851.505	5.12
851.681	46.08
851.856	-9.22
852.031	113.66
852.206	70.65
852.381	-15.36
852.556	23.55
852.731	60.42
852.906	60.42
853.081	62.46
853.256	97.28
853.431	-15.36
853.606	-5.12
853.781	-3.07
853.956	9.22
854.131	109.57
854.305	-21.5
854.48	41.98
854.655	41.98
854.83	-15.36
855.005	97.28
855.18	-9.22
855.354	9.22
855.529	68.61
855.704	119.81
855.879	62.46
856.053	-46.08
856.228	-27.65
856.403	-50.18
856.577	46.08
856.752	44.03
856.926	66.56
857.101	1.02
857.276	39.94
857.45	72.7
857.625	31.74
857.799	1.02
857.974	29.7
858.148	-17.41
858.323	50.18
858.497	-17.41
858.672	68.61
858.846	-27.65
859.02	58.37
859.195	72.7
859.369	-1.02
859.543	-9.22
859.718	37.89
859.892	64.51
860.066	119.81
860.241	64.51
860.415	17.41
860.589	-27.65
860.763	13.31
860.938	44.03
861.112	50.18
861.286	39.94
861.46	111.61
861.634	58.37
861.808	37.89
861.982	13.31
862.157	-46.08
862.331	68.61
862.505	31.74
862.679	19.46
862.853	62.46
863.027	82.94
863.201	35.84
863.375	39.94
863.549	41.98
863.722	23.55
863.896	97.28
864.07	1.02
864.244	58.37
864.418	66.56
864.592	13.31
864.766	93.18
864.939	111.61
865.113	9.22
865.287	121.85
865.461	-62.46
865.634	-21.5
865.808	27.65
865.982	-3.07
866.156	31.74
866.329	-78.85
866.503	9.22
866.676	101.37
866.85	62.46
867.024	-41.98
867.197	31.74
867.371	39.94
867.544	-23.55
867.718	-13.31
867.891	35.84
868.065	3.07
868.238	13.31
868.412	87.04
868.585	9.22
868.759	-19.46
868.932	35.84
869.105	-76.8
869.279	27.65
869.452	-35.84
869.625	-60.42
869.799	-15.36
869.972	-44.03
870.145	76.8
870.319	68.61
870.492	31.74
870.665	25.6
870.838	-9.22
871.011	-72.7
871.185	46.08
871.358	-35.84
871.531	-62.46
871.704	-19.46
871.877	13.31
872.05	-13.31
872.223	-27.65
872.396	-31.74
872.569	31.74
872.742	-13.31
872.915	50.18
873.088	66.56
873.261	-3.07
873.434	19.46
873.607	-19.46
873.78	-5.12
873.953	-56.32
874.126	-5.12
874.299	80.89
874.471	11.26
874.644	62.46
874.817	-35.84
874.99	93.18
875.163	-60.42
875.335	54.27
875.508	35.84
875.681	15.36
875.853	-7.17
876.026	-25.6
876.199	37.89
876.371	25.6
876.544	37.89
876.717	-78.85
876.889	27.65
877.062	-44.03
877.234	19.46
877.407	-78.85
877.579	7.17
877.752	46.08
877.924	21.5
878.097	54.27
878.269	46.08
878.442	7.17
878.614	78.85
878.786	1.02
878.959	64.51
879.131	-9.22
879.303	-50.18
879.476	62.46
879.648	19.46
879.82	82.94
879.993	15.36
880.165	-37.89
880.337	-56.32
880.509	-13.31
880.681	-7.17
880.854	-29.7
881.026	-1.02
881.198	52.22
881.37	31.74
881.542	-39.94
881.714	15.36
881.886	58.37
882.058	-7.17
882.23	-46.08
882.402	-48.13
882.574	21.5
882.746	44.03
882.918	46.08
883.09	64.51
883.262	-46.08
883.434	-1.02
883.606	-13.31
883.778	-54.27
883.95	76.8
884.122	-78.85
884.293	27.65
884.465	13.31
884.637	41.98
884.809	-52.22
884.98	-3.07
885.152	50.18
885.324	48.13
885.496	-35.84
885.667	62.46
885.839	33.79
886.011	66.56
886.182	-33.79
886.354	97.28
886.525	25.6
886.697	64.51
886.869	-3.07
887.04	-58.37
887.212	-48.13
887.383	89.09
887.555	70.65
887.726	39.94
887.897	72.7
888.069	-13.31
888.24	41.98
888.412	5.12
888.583	39.94
888.754	33.79
888.926	-66.56
889.097	-15.36
889.268	-39.94
889.44	46.08
889.611	-87.04
889.782	19.46
889.953	-52.22
890.125	-31.74
890.296	-37.89
890.467	-56.32
890.638	-35.84
890.809	-5.12
890.98	-46.08
891.151	37.89
891.323	70.65
891.494	44.03
891.665	35.84
891.836	-76.8
892.007	9.22
892.178	41.98
892.349	62.46
892.52	-46.08
892.691	11.26
892.862	23.55
893.032	-84.99
893.203	52.22
893.374	-29.7
893.545	7.17
893.716	-9.22
893.887	21.5
894.057	11.26
894.228	64.51
894.399	-5.12
894.57	148.48
894.74	3.07
894.911	-19.46
895.082	-74.75
895.253	48.13
895.423	-29.7
895.594	111.61
895.764	70.65
895.935	-33.79
896.106	60.42
896.276	1.02
896.447	-7.17
896.617	-39.94
896.788	-82.94
896.958	-11.26
897.129	-13.31
897.299	-52.22
897.47	64.51
897.64	21.5
897.81	19.46
897.981	56.32
898.151	-7.17
898.322	11.26
898.492	48.13
898.662	52.22
898.832	-5.12
899.003	-35.84
899.173	-15.36
899.343	-1.02
899.513	-52.22
