Data from USB4F104151__29__12-11-46-309.txt Node

Date: Fri Mar 14 12:11:46 EDT 2025
User: louis
Spectrometer: USB4F10415
Trigger mode: 4
Integration Time (sec): 5.000000E-2
Scans to average: 1
Electric dark correction enabled: true
Nonlinearity correction enabled: false
Boxcar width: 0
XAxis mode: Wavelengths
Number of Pixels in Spectrum: 3648
>>>>>Begin Spectral Data<<<<<
178.204	-162.98
178.424	-162.98
178.644	-162.98
178.864	-218.28
179.084	-148.65
179.304	-66.73
179.524	4.95
179.744	0.85
179.964	64.34
180.184	2.9
180.404	25.43
180.624	-9.39
180.844	31.57
181.064	-54.44
181.283	-11.43
181.503	-62.63
181.723	74.58
181.943	-76.97
182.163	136.02
182.383	-17.58
182.602	45.91
182.822	41.81
183.042	-38.06
183.262	19.29
183.482	35.67
183.701	62.29
183.921	13.14
184.141	-13.48
184.361	105.3
184.58	115.54
184.8	72.53
185.02	-27.82
185.239	-5.29
185.459	39.76
185.679	115.54
185.898	-31.91
186.118	35.67
186.338	121.68
186.557	33.62
186.777	0.85
186.997	72.53
187.216	72.53
187.436	133.97
187.655	99.16
187.875	35.67
188.095	33.62
188.314	109.4
188.534	164.69
188.753	97.11
188.973	54.1
189.192	80.72
189.412	84.82
189.631	29.52
189.851	97.11
190.07	60.24
190.29	-38.06
190.509	15.19
190.729	45.91
190.948	82.77
191.168	246.61
191.387	37.72
191.607	31.57
191.826	41.81
192.045	21.33
192.265	-25.77
192.484	45.91
192.704	84.82
192.923	97.11
193.142	86.87
193.362	109.4
193.581	58.2
193.8	64.34
194.02	74.58
194.239	-15.53
194.458	86.87
194.678	84.82
194.897	17.24
195.116	111.44
195.335	-72.87
195.555	127.83
195.774	43.86
195.993	88.92
196.212	50
196.432	-13.48
196.651	64.34
196.87	25.43
197.089	97.11
197.308	64.34
197.528	70.48
197.747	-7.34
197.966	58.2
198.185	152.4
198.404	17.24
198.623	133.97
198.842	66.39
199.062	37.72
199.281	86.87
199.5	-3.24
199.719	78.68
199.938	35.67
200.157	93.01
200.376	111.44
200.595	101.2
200.814	78.68
201.033	72.53
201.252	123.73
201.471	109.4
201.69	58.2
201.909	68.44
202.128	105.3
202.347	37.72
202.566	-15.53
202.785	41.81
203.004	7
203.223	185.17
203.442	58.2
203.661	33.62
203.879	109.4
204.098	31.57
204.317	-11.43
204.536	60.24
204.755	84.82
204.974	148.31
205.193	62.29
205.411	109.4
205.63	50
205.849	-29.87
206.068	-1.19
206.287	27.48
206.505	93.01
206.724	27.48
206.943	-54.44
207.162	86.87
207.381	41.81
207.599	-58.54
207.818	84.82
208.037	33.62
208.255	33.62
208.474	78.68
208.693	11.09
208.911	41.81
209.13	115.54
209.349	2.9
209.567	101.2
209.786	50
210.005	50
210.223	35.67
210.442	17.24
210.661	105.3
210.879	103.25
211.098	27.48
211.316	78.68
211.535	21.33
211.753	109.4
211.972	-1.19
212.191	35.67
212.409	31.57
212.628	62.29
212.846	50
213.065	66.39
213.283	82.77
213.502	90.96
213.72	39.76
213.938	47.96
214.157	68.44
214.375	76.63
214.594	-7.34
214.812	25.43
215.031	-19.63
215.249	9.05
215.467	78.68
215.686	52.05
215.904	131.92
216.122	21.33
216.341	68.44
216.559	27.48
216.778	125.78
216.996	95.06
217.214	-31.91
217.432	-1.19
217.651	15.19
217.869	25.43
218.087	-31.91
218.306	68.44
218.524	23.38
218.742	35.67
218.96	119.64
219.179	29.52
219.397	47.96
219.615	88.92
219.833	70.48
220.051	-50.35
220.27	125.78
220.488	72.53
220.706	-7.34
220.924	37.72
221.142	90.96
221.36	27.48
221.578	97.11
221.796	21.33
222.015	-62.63
222.233	82.77
222.451	25.43
222.669	52.05
222.887	140.12
223.105	2.9
223.323	-11.43
223.541	15.19
223.759	25.43
223.977	121.68
224.195	45.91
224.413	-36.01
224.631	88.92
224.849	56.15
225.067	103.25
225.285	60.24
225.503	35.67
225.721	-13.48
225.939	4.95
226.157	50
226.375	117.59
226.592	-40.11
226.81	9.05
227.028	35.67
227.246	101.2
227.464	68.44
227.682	-13.48
227.9	50
228.117	99.16
228.335	93.01
228.553	72.53
228.771	60.24
228.989	39.76
229.206	39.76
229.424	60.24
229.642	80.72
229.86	-36.01
230.077	-11.43
230.295	60.24
230.513	97.11
230.731	68.44
230.948	66.39
231.166	76.63
231.384	41.81
231.601	27.48
231.819	119.64
232.037	-27.82
232.254	23.38
232.472	7
232.689	80.72
232.907	140.12
233.125	72.53
233.342	27.48
233.56	43.86
233.777	-38.06
233.995	33.62
234.213	68.44
234.43	35.67
234.648	101.2
234.865	33.62
235.083	41.81
235.3	127.83
235.518	39.76
235.735	156.5
235.953	68.44
236.17	-9.39
236.388	0.85
236.605	60.24
236.822	152.4
237.04	72.53
237.257	144.21
237.475	-13.48
237.692	50
237.909	37.72
238.127	-29.87
238.344	105.3
238.562	27.48
238.779	-13.48
238.996	-23.72
239.214	84.82
239.431	86.87
239.648	90.96
239.865	72.53
240.083	101.2
240.3	101.2
240.517	43.86
240.735	60.24
240.952	111.44
241.169	60.24
241.386	99.16
241.603	9.05
241.821	23.38
242.038	115.54
242.255	76.63
242.472	11.09
242.689	13.14
242.907	50
243.124	23.38
243.341	84.82
243.558	43.86
243.775	-46.25
243.992	-52.39
244.209	68.44
244.426	107.35
244.643	43.86
244.86	82.77
245.078	74.58
245.295	-7.34
245.512	11.09
245.729	33.62
245.946	101.2
246.163	68.44
246.38	23.38
246.597	45.91
246.814	68.44
247.031	23.38
247.248	27.48
247.464	50
247.681	27.48
247.898	33.62
248.115	9.05
248.332	-48.3
248.549	78.68
248.766	95.06
248.983	189.27
249.2	23.38
249.417	33.62
249.633	4.95
249.85	39.76
250.067	-66.73
250.284	52.05
250.501	115.54
250.717	123.73
250.934	-38.06
251.151	47.96
251.368	23.38
251.585	33.62
251.801	76.63
252.018	-7.34
252.235	76.63
252.451	4.95
252.668	-5.29
252.885	19.29
253.102	41.81
253.318	15.19
253.535	66.39
253.752	41.81
253.968	45.91
254.185	19.29
254.401	95.06
254.618	70.48
254.835	31.57
255.051	84.82
255.268	66.39
255.484	43.86
255.701	-23.72
255.917	33.62
256.134	-58.54
256.351	45.91
256.567	9.05
256.784	43.86
257	-40.11
257.217	66.39
257.433	15.19
257.65	95.06
257.866	97.11
258.082	13.14
258.299	4.95
258.515	101.2
258.732	47.96
258.948	9.05
259.165	107.35
259.381	84.82
259.597	90.96
259.814	54.1
260.03	2.9
260.246	9.05
260.463	68.44
260.679	56.15
260.895	29.52
261.112	62.29
261.328	29.52
261.544	23.38
261.761	154.45
261.977	13.14
262.193	-62.63
262.409	56.15
262.626	15.19
262.842	52.05
263.058	19.29
263.274	70.48
263.49	95.06
263.707	76.63
263.923	54.1
264.139	-62.63
264.355	74.58
264.571	174.93
264.787	109.4
265.004	56.15
265.22	37.72
265.436	78.68
265.652	45.91
265.868	101.2
266.084	19.29
266.3	54.1
266.516	-7.34
266.732	60.24
266.948	125.78
267.164	50
267.38	-1.19
267.596	13.14
267.812	113.49
268.028	19.29
268.244	-7.34
268.46	80.72
268.676	-3.24
268.892	82.77
269.108	-3.24
269.324	107.35
269.54	-36.01
269.756	25.43
269.972	-40.11
270.188	47.96
270.403	19.29
270.619	13.14
270.835	33.62
271.051	15.19
271.267	13.14
271.483	37.72
271.698	58.2
271.914	13.14
272.13	33.62
272.346	41.81
272.562	17.24
272.777	82.77
272.993	25.43
273.209	17.24
273.425	95.06
273.64	72.53
273.856	43.86
274.072	47.96
274.287	-3.24
274.503	76.63
274.719	47.96
274.934	4.95
275.15	-62.63
275.366	45.91
275.581	9.05
275.797	52.05
276.012	84.82
276.228	68.44
276.444	113.49
276.659	54.1
276.875	0.85
277.09	54.1
277.306	-11.43
277.521	23.38
277.737	80.72
277.952	115.54
278.168	60.24
278.383	136.02
278.599	33.62
278.814	113.49
279.03	84.82
279.245	133.97
279.461	19.29
279.676	119.64
279.892	-9.39
280.107	19.29
280.322	39.76
280.538	101.2
280.753	33.62
280.969	152.4
281.184	-1.19
281.399	2.9
281.615	7
281.83	86.87
282.045	-29.87
282.26	17.24
282.476	9.05
282.691	68.44
282.906	35.67
283.122	25.43
283.337	47.96
283.552	127.83
283.767	60.24
283.983	127.83
284.198	-29.87
284.413	74.58
284.628	0.85
284.843	74.58
285.058	99.16
285.274	9.05
285.489	-9.39
285.704	131.92
285.919	2.9
286.134	-3.24
286.349	105.3
286.564	0.85
286.779	142.16
286.995	-1.19
287.21	17.24
287.425	25.43
287.64	-13.48
287.855	9.05
288.07	-36.01
288.285	80.72
288.5	99.16
288.715	97.11
288.93	74.58
289.145	23.38
289.36	56.15
289.575	-50.35
289.79	82.77
290.004	66.39
290.219	123.73
290.434	93.01
290.649	4.95
290.864	47.96
291.079	33.62
291.294	86.87
291.509	41.81
291.724	41.81
291.938	45.91
292.153	101.2
292.368	74.58
292.583	66.39
292.798	45.91
293.012	107.35
293.227	97.11
293.442	84.82
293.657	58.2
293.871	93.01
294.086	23.38
294.301	160.59
294.516	117.59
294.73	31.57
294.945	70.48
295.16	-1.19
295.374	105.3
295.589	144.21
295.804	9.05
296.018	90.96
296.233	129.88
296.447	-1.19
296.662	47.96
296.877	62.29
297.091	97.11
297.306	-60.59
297.52	17.24
297.735	107.35
297.949	50
298.164	78.68
298.378	62.29
298.593	-13.48
298.807	27.48
299.022	68.44
299.236	72.53
299.451	37.72
299.665	56.15
299.88	111.44
300.094	88.92
300.309	80.72
300.523	74.58
300.737	25.43
300.952	115.54
301.166	-3.24
301.381	23.38
301.595	2.9
301.809	54.1
302.024	39.76
302.238	-1.19
302.452	43.86
302.667	43.86
302.881	113.49
303.095	103.25
303.309	13.14
303.524	37.72
303.738	41.81
303.952	-11.43
304.166	76.63
304.381	-25.77
304.595	99.16
304.809	-52.39
305.023	76.63
305.237	80.72
305.452	-38.06
305.666	62.29
305.88	103.25
306.094	78.68
306.308	82.77
306.522	93.01
306.736	74.58
306.95	62.29
307.164	13.14
307.379	25.43
307.593	123.73
307.807	52.05
308.021	84.82
308.235	56.15
308.449	-15.53
308.663	72.53
308.877	140.12
309.091	21.33
309.305	121.68
309.519	-9.39
309.733	133.97
309.947	-95.4
310.161	148.31
310.374	117.59
310.588	68.44
310.802	68.44
311.016	58.2
311.23	125.78
311.444	-21.67
311.658	43.86
311.872	43.86
312.085	86.87
312.299	39.76
312.513	138.07
312.727	107.35
312.941	93.01
313.154	52.05
313.368	127.83
313.582	33.62
313.796	97.11
314.009	35.67
314.223	84.82
314.437	23.38
314.651	93.01
314.864	-27.82
315.078	2.9
315.292	35.67
315.505	19.29
315.719	70.48
315.933	-9.39
316.146	9.05
316.36	25.43
316.573	70.48
316.787	78.68
317.001	80.72
317.214	29.52
317.428	66.39
317.641	-9.39
317.855	2.9
318.068	27.48
318.282	88.92
318.495	152.4
318.709	84.82
318.922	21.33
319.136	93.01
319.349	56.15
319.563	70.48
319.776	-1.19
319.99	-56.49
320.203	43.86
320.417	9.05
320.63	9.05
320.843	105.3
321.057	68.44
321.27	21.33
321.483	133.97
321.697	99.16
321.91	43.86
322.124	107.35
322.337	45.91
322.55	35.67
322.763	31.57
322.977	15.19
323.19	-9.39
323.403	125.78
323.617	29.52
323.83	131.92
324.043	25.43
324.256	90.96
324.469	13.14
324.683	107.35
324.896	21.33
325.109	107.35
325.322	27.48
325.535	107.35
325.748	90.96
325.962	-38.06
326.175	131.92
326.388	66.39
326.601	78.68
326.814	62.29
327.027	84.82
327.24	170.83
327.453	-25.77
327.666	-17.58
327.879	123.73
328.092	99.16
328.305	70.48
328.518	88.92
328.731	25.43
328.944	54.1
329.157	76.63
329.37	-11.43
329.583	107.35
329.796	58.2
330.009	54.1
330.222	37.72
330.435	109.4
330.648	60.24
330.861	60.24
331.073	54.1
331.286	60.24
331.499	23.38
331.712	-36.01
331.925	70.48
332.138	29.52
332.35	93.01
332.563	9.05
332.776	164.69
332.989	27.48
333.202	43.86
333.414	101.2
333.627	-3.24
333.84	29.52
334.053	54.1
334.265	13.14
334.478	72.53
334.691	27.48
334.903	97.11
335.116	35.67
335.329	66.39
335.541	60.24
335.754	50
335.966	37.72
336.179	35.67
336.392	41.81
336.604	99.16
336.817	76.63
337.029	72.53
337.242	70.48
337.454	88.92
337.667	72.53
337.88	90.96
338.092	62.29
338.305	78.68
338.517	90.96
338.729	80.72
338.942	138.07
339.154	78.68
339.367	47.96
339.579	82.77
339.792	21.33
340.004	64.34
340.217	37.72
340.429	76.63
340.641	-29.87
340.854	-21.67
341.066	2.9
341.278	168.79
341.491	140.12
341.703	31.57
341.915	-7.34
342.128	101.2
342.34	80.72
342.552	45.91
342.764	64.34
342.977	72.53
343.189	99.16
343.401	144.21
343.613	13.14
343.826	86.87
344.038	17.24
344.25	99.16
344.462	88.92
344.674	125.78
344.886	50
345.099	97.11
345.311	58.2
345.523	97.11
345.735	25.43
345.947	15.19
346.159	90.96
346.371	50
346.583	70.48
346.795	158.55
347.007	11.09
347.219	160.59
347.431	29.52
347.643	121.68
347.855	-3.24
348.067	170.83
348.279	27.48
348.491	-31.91
348.703	82.77
348.915	47.96
349.127	13.14
349.339	-48.3
349.551	25.43
349.763	93.01
349.975	82.77
350.187	109.4
350.399	107.35
350.61	19.29
350.822	76.63
351.034	47.96
351.246	76.63
351.458	13.14
351.669	103.25
351.881	119.64
352.093	111.44
352.305	52.05
352.517	113.49
352.728	107.35
352.94	72.53
353.152	52.05
353.363	62.29
353.575	50
353.787	76.63
353.999	35.67
354.21	129.88
354.422	35.67
354.633	-44.2
354.845	17.24
355.057	37.72
355.268	121.68
355.48	66.39
355.692	-5.29
355.903	109.4
356.115	52.05
356.326	15.19
356.538	58.2
356.749	170.83
356.961	62.29
357.172	41.81
357.384	27.48
357.595	74.58
357.807	74.58
358.018	17.24
358.23	97.11
358.441	103.25
358.653	148.31
358.864	-31.91
359.075	29.52
359.287	72.53
359.498	117.59
359.709	43.86
359.921	37.72
360.132	86.87
360.344	70.48
360.555	-1.19
360.766	0.85
360.977	23.38
361.189	27.48
361.4	93.01
361.611	121.68
361.823	131.92
362.034	80.72
362.245	0.85
362.456	41.81
362.667	158.55
362.879	47.96
363.09	78.68
363.301	60.24
363.512	64.34
363.723	17.24
363.935	54.1
364.146	138.07
364.357	84.82
364.568	52.05
364.779	23.38
364.99	166.74
365.201	35.67
365.412	129.88
365.623	11.09
365.834	101.2
366.045	58.2
366.256	117.59
366.467	31.57
366.678	27.48
366.889	11.09
367.1	-3.24
367.311	111.44
367.522	19.29
367.733	109.4
367.944	82.77
368.155	88.92
368.366	88.92
368.577	80.72
368.788	37.72
368.999	35.67
369.209	76.63
369.42	176.98
369.631	115.54
369.842	47.96
370.053	62.29
370.264	60.24
370.474	52.05
370.685	9.05
370.896	90.96
371.107	150.36
371.317	154.45
371.528	103.25
371.739	101.2
371.95	19.29
372.16	101.2
372.371	37.72
372.582	54.1
372.792	164.69
373.003	84.82
373.214	97.11
373.424	119.64
373.635	37.72
373.846	95.06
374.056	99.16
374.267	58.2
374.477	78.68
374.688	23.38
374.898	19.29
375.109	84.82
375.319	7
375.53	105.3
375.74	50
375.951	17.24
376.161	113.49
376.372	109.4
376.582	56.15
376.793	52.05
377.003	78.68
377.214	68.44
377.424	62.29
377.635	82.77
377.845	15.19
378.055	99.16
378.266	41.81
378.476	47.96
378.686	58.2
378.897	101.2
379.107	131.92
379.317	54.1
379.528	66.39
379.738	82.77
379.948	70.48
380.158	160.59
380.369	105.3
380.579	64.34
380.789	9.05
380.999	54.1
381.21	109.4
381.42	136.02
381.63	95.06
381.84	45.91
382.05	13.14
382.261	62.29
382.471	123.73
382.681	56.15
382.891	142.16
383.101	74.58
383.311	-72.87
383.521	129.88
383.731	21.33
383.941	136.02
384.151	101.2
384.361	41.81
384.571	29.52
384.781	95.06
384.991	131.92
385.201	176.98
385.411	23.38
385.621	62.29
385.831	47.96
386.041	33.62
386.251	123.73
386.461	68.44
386.671	58.2
386.881	88.92
387.091	47.96
387.301	58.2
387.511	-9.39
387.72	97.11
387.93	99.16
388.14	15.19
388.35	13.14
388.56	99.16
388.769	119.64
388.979	64.34
389.189	-74.92
389.399	101.2
389.609	133.97
389.818	121.68
390.028	72.53
390.238	93.01
390.447	66.39
390.657	162.64
390.867	140.12
391.076	50
391.286	99.16
391.496	140.12
391.705	101.2
391.915	80.72
392.125	148.31
392.334	66.39
392.544	99.16
392.753	119.64
392.963	43.86
393.172	140.12
393.382	76.63
393.591	191.31
393.801	17.24
394.01	66.39
394.22	99.16
394.429	68.44
394.639	105.3
394.848	90.96
395.058	84.82
395.267	97.11
395.477	109.4
395.686	64.34
395.895	209.75
396.105	193.36
396.314	84.82
396.524	97.11
396.733	82.77
396.942	107.35
397.152	78.68
397.361	82.77
397.57	140.12
397.78	90.96
397.989	47.96
398.198	185.17
398.407	76.63
398.617	111.44
398.826	113.49
399.035	88.92
399.244	189.27
399.453	136.02
399.663	164.69
399.872	234.32
400.081	4.95
400.29	183.12
400.499	80.72
400.708	125.78
400.917	115.54
401.127	138.07
401.336	68.44
401.545	99.16
401.754	207.7
401.963	117.59
402.172	136.02
402.381	121.68
402.59	95.06
402.799	164.69
403.008	215.89
403.217	187.22
403.426	148.31
403.635	113.49
403.844	133.97
404.053	148.31
404.262	121.68
404.471	185.17
404.68	187.22
404.888	197.46
405.097	217.94
405.306	222.03
405.515	168.79
405.724	146.26
405.933	140.12
406.142	291.66
406.35	213.84
406.559	217.94
406.768	275.28
406.977	287.57
407.185	197.46
407.394	193.36
407.603	183.12
407.812	265.04
408.02	234.32
408.229	287.57
408.438	246.61
408.646	217.94
408.855	277.33
409.064	301.9
409.272	297.81
409.481	281.43
409.69	275.28
409.898	291.66
410.107	308.05
410.315	353.1
410.524	285.52
410.733	293.71
410.941	285.52
411.15	441.17
411.358	373.58
411.567	465.74
411.775	453.45
411.984	428.88
412.192	498.51
412.401	402.26
412.609	590.67
412.818	580.43
413.026	578.38
413.234	535.37
413.443	594.76
413.651	537.42
413.86	525.13
414.068	711.5
414.276	711.5
414.485	619.34
414.693	656.2
414.901	813.9
415.11	709.45
415.318	701.26
415.526	861
415.734	766.79
415.943	840.52
416.151	838.47
416.359	858.95
416.567	867.14
416.776	934.73
416.984	928.58
417.192	1092.42
417.4	1020.74
417.608	1051.46
417.817	1041.22
418.025	1184.58
418.233	1176.39
418.441	1188.68
418.649	1237.83
418.857	1389.38
419.065	1303.36
419.273	1260.35
419.481	1409.86
419.689	1364.8
419.897	1559.36
420.105	1583.93
420.313	1573.69
420.521	1639.23
420.729	1737.53
420.937	1850.17
421.145	1864.5
421.353	1891.13
421.561	2048.82
421.769	1975.1
421.977	2147.12
422.185	2161.46
422.393	2298.67
422.601	2388.78
422.809	2411.31
423.017	2267.95
423.224	2485.04
423.432	2759.47
423.64	2532.14
423.848	2722.6
424.056	2695.98
424.263	2997.03
424.471	3019.56
424.679	3089.19
424.887	3183.4
425.094	3300.13
425.302	3261.22
425.51	3343.14
425.718	3418.91
425.925	3496.74
426.133	3738.4
426.341	3805.98
426.548	3967.77
426.756	4061.98
426.964	4031.26
427.171	4229.91
427.379	4430.61
427.586	4403.99
427.794	4655.89
428.001	4834.06
428.209	5042.95
428.417	4885.26
428.624	5376.77
428.832	5339.91
429.039	5452.55
429.247	5313.28
429.454	5784.32
429.662	6243.06
429.869	5892.86
430.076	6138.62
430.284	6091.51
430.491	6267.64
430.699	6730.48
430.906	6707.95
431.114	6746.86
431.321	6957.8
431.528	7154.41
431.736	7647.97
431.943	7846.62
432.15	7531.23
432.358	7592.67
432.565	8162.01
432.772	8080.09
432.979	8547.03
433.187	8727.25
433.394	8757.97
433.601	9308.87
433.808	9482.95
434.016	9446.09
434.223	9675.46
434.43	10373.82
434.637	10216.12
434.844	10613.43
435.052	10918.57
435.259	10900.14
435.466	10977.97
435.673	10951.34
435.88	11696.8
436.087	12339.87
436.294	12276.38
436.501	11977.37
436.708	12065.44
436.915	12503.7
437.122	13146.76
437.329	13019.79
437.537	13419.14
437.743	13752.96
437.95	13595.27
438.157	14439.03
438.364	14901.87
438.571	14625.4
438.778	14783.09
438.985	16347.74
439.192	15546.98
439.399	15735.4
439.606	15704.68
439.813	16677.46
440.02	17392.2
440.227	17486.41
440.433	17211.98
440.64	17697.35
440.847	17416.78
441.054	17812.04
441.261	19280.43
441.467	18723.38
441.674	19294.77
441.881	20040.23
442.088	19937.83
442.294	19612.2
442.501	20517.4
442.708	20826.65
442.914	21387.79
443.121	22397.44
443.328	21957.13
443.534	23190
443.741	22704.63
443.948	22458.88
444.154	23968.23
444.361	24060.39
444.568	23824.87
444.774	24023.53
444.981	24166.88
445.187	24975.83
445.394	25815.5
445.6	25475.54
445.807	28043.69
446.013	26755.52
446.22	27447.73
446.426	28658.08
446.633	28785.05
446.839	29876.62
447.046	28387.75
447.252	29968.78
447.459	30232.97
447.665	29755.79
447.871	31506.8
448.078	32608.61
448.284	31017.34
448.491	31887.73
448.697	32946.53
448.903	33917.26
449.11	33556.82
449.316	32946.53
449.522	33921.36
449.728	35160.38
449.935	35000.64
450.141	35182.91
450.347	35510.58
450.553	34427.21
450.76	35033.41
450.966	36004.14
451.172	35318.07
451.378	36612.39
451.584	35860.79
451.791	36790.56
451.997	36634.92
452.203	37497.11
452.409	37320.99
452.615	36757.8
452.821	35643.7
453.027	35205.44
453.233	37239.07
453.44	36016.43
453.646	35922.23
453.852	36284.72
454.058	36813.09
454.264	35615.03
454.47	36436.27
454.676	35535.16
454.882	36559.14
455.088	33474.9
455.294	33886.54
455.5	34466.12
455.705	34552.13
455.911	33438.04
456.117	32620.9
456.323	32129.39
456.529	30587.27
456.735	32031.08
456.941	31357.3
457.147	30540.16
457.352	29434.26
457.558	29536.66
457.764	29473.17
457.97	28594.59
458.176	28232.1
458.381	28199.34
458.587	26728.89
458.793	26679.74
458.999	25354.71
459.204	27146.68
459.41	26591.68
459.616	24461.79
459.821	24685.02
460.027	24422.88
460.233	23904.74
460.438	22845.94
460.644	23042.55
460.85	21885.45
461.055	21731.85
461.261	21570.06
461.466	19995.17
461.672	19245.62
461.878	20773.4
462.083	19601.96
462.289	18909.75
462.494	18903.6
462.7	18000.45
462.905	17484.36
463.111	17988.16
463.316	18444.86
463.522	17832.52
463.727	17957.44
463.932	17549.9
464.138	17388.11
464.343	17508.94
464.549	16964.18
464.754	17848.9
464.959	17685.06
465.165	17310.29
465.37	16659.03
465.575	16241.25
465.781	16738.9
465.986	17148.5
466.191	16292.44
466.397	15897.19
466.602	15413.87
466.807	15938.15
467.012	15874.66
467.218	15688.29
467.423	15467.11
467.628	15708.77
467.833	16044.64
468.038	15657.57
468.244	15211.12
468.449	15753.83
468.654	15340.14
468.859	15268.46
469.064	14912.11
469.269	14557.82
469.474	14621.3
469.679	14942.83
469.885	14559.86
470.09	14609.01
470.295	14690.93
470.5	14025.34
470.705	14234.24
470.91	13992.58
471.115	14051.97
471.32	13935.23
471.525	13861.51
471.73	13685.38
471.935	13421.19
472.139	13124.24
472.344	13073.04
472.549	13130.38
472.754	12999.31
472.959	12606.1
473.164	12690.07
473.369	12456.6
473.574	12620.44
473.778	12624.53
473.983	12438.17
474.188	12362.39
474.393	11758.24
474.598	11748
474.802	11801.25
475.007	11465.38
475.212	11877.02
475.417	11330.22
475.621	11205.29
475.826	11178.67
476.031	11000.49
476.235	10867.38
476.44	11049.64
476.645	10828.46
476.849	11129.52
477.054	10607.28
477.259	10666.67
477.463	10496.69
477.668	10343.1
477.872	10406.58
478.077	9939.65
478.282	9896.64
478.486	10044.09
478.691	9849.54
478.895	9575.11
479.1	9710.27
479.304	9675.46
479.509	9642.69
479.713	9714.37
479.918	9429.7
480.122	9366.21
480.326	9282.25
480.531	9480.9
480.735	9358.02
480.94	9073.35
481.144	9437.89
481.348	8975.05
481.553	9337.54
481.757	8893.13
481.961	9128.65
482.166	9120.46
482.37	9136.84
482.574	8946.38
482.778	8956.62
482.983	9026.25
483.187	8870.61
483.391	9149.13
483.595	8821.45
483.8	8833.74
484.004	9216.71
484.208	9175.75
484.412	8968.91
484.616	8962.76
484.821	8938.19
485.025	8743.63
485.229	8934.09
485.433	8948.43
485.637	8989.39
485.841	8895.18
486.045	8868.56
486.249	8960.72
486.453	8886.99
486.657	9116.36
486.861	9052.88
487.065	8712.91
487.269	8932.05
487.473	8803.02
487.677	8878.8
487.881	9089.74
488.085	8889.04
488.289	9005.77
488.493	9073.35
488.697	9153.23
488.901	9204.42
489.105	9024.2
489.309	9040.59
489.512	9097.93
489.716	9204.42
489.92	9118.41
490.124	9018.06
490.328	9257.67
490.531	8993.48
490.735	9286.34
490.939	9214.66
491.143	9190.09
491.346	9089.74
491.55	9310.92
491.754	9243.34
491.958	9216.71
492.161	9329.35
492.365	9405.13
492.569	9384.65
492.772	9536.2
492.976	9505.48
493.18	9589.44
493.383	9663.17
493.587	9706.18
493.79	9794.24
493.994	9771.71
494.197	9687.75
494.401	9712.32
494.605	9769.66
494.808	9888.45
495.012	10156.73
495.215	9863.87
495.419	10212.03
495.622	9968.32
495.825	10250.94
496.029	10404.53
496.232	10586.8
496.436	10386.1
496.639	10658.48
496.843	10615.48
497.046	10668.72
497.249	11045.55
497.453	10969.77
497.656	11090.6
497.859	11246.25
498.063	11256.49
498.266	11547.3
498.469	11283.11
498.673	11539.11
498.876	11848.35
499.079	11799.2
499.282	12227.23
499.485	12151.45
499.689	12186.27
499.892	12130.97
500.095	12337.82
500.298	12591.77
500.501	12509.85
500.705	12710.55
500.908	12978.83
501.111	13089.42
501.314	13036.17
501.517	13361.8
501.72	13435.53
501.923	13331.08
502.126	13978.24
502.329	13714.05
502.532	14092.93
502.735	14242.43
502.938	14479.99
503.141	14516.86
503.344	14457.46
503.547	14834.29
503.75	15014.51
503.953	15106.67
504.156	15188.59
504.359	15241.84
504.562	15647.33
504.765	15821.41
504.968	15788.64
505.17	15989.35
505.373	16013.92
505.576	16327.26
505.779	16446.04
505.982	16681.56
506.185	16806.48
506.387	16755.29
506.59	17142.35
506.793	17490.51
506.996	17502.79
507.198	18043.46
507.401	17760.84
507.604	18029.12
507.807	18256.45
508.009	18502.2
508.212	18295.36
508.415	18797.11
508.617	18760.25
508.82	18848.31
509.022	18807.35
509.225	19536.43
509.428	19493.42
509.63	19757.61
509.833	19628.59
510.035	20191.78
510.238	19989.03
510.44	20367.9
510.643	20691.48
510.845	20779.54
511.048	20787.74
511.25	20912.66
511.453	21111.32
511.655	21869.06
511.858	21590.54
512.06	21697.03
512.262	21864.97
512.465	21766.67
512.667	22446.59
512.87	22559.23
513.072	22385.15
513.274	22774.27
513.477	22893.05
513.679	23142.9
513.881	23321.07
514.084	23765.48
514.286	23665.13
514.488	23605.74
514.69	24560.09
514.893	24535.52
515.095	24480.22
515.297	24865.24
515.499	25186.77
515.701	25147.86
515.904	25479.63
516.106	25606.61
516.308	25512.4
516.51	25866.7
516.712	25962.95
516.914	26001.86
517.116	26874.3
517.318	26288.58
517.52	26581.44
517.722	26749.37
517.925	26884.54
518.127	27435.44
518.329	27335.09
518.531	27378.1
518.733	28008.87
518.935	28010.92
519.136	27949.48
519.338	28506.53
519.54	28617.12
519.742	28770.72
519.944	28772.77
520.146	29098.39
520.348	29211.03
520.55	29190.55
520.752	29432.21
520.954	30095.75
521.155	29723.02
521.357	30105.99
521.559	30327.17
521.761	31072.64
521.963	30892.41
522.164	30663.04
522.366	30884.22
522.568	31046.01
522.77	31154.55
522.971	31594.87
523.173	31299.96
523.375	31721.84
523.576	31310.2
523.778	31658.35
523.98	31904.11
524.181	32260.46
524.383	31744.37
524.584	32762.21
524.786	32850.27
524.988	32518.5
525.189	32698.72
525.391	33093.98
525.592	32999.77
525.794	33132.89
525.995	33098.08
526.197	32985.44
526.398	33360.22
526.6	33294.68
526.801	33093.98
527.003	33493.33
527.204	33298.78
527.406	33708.37
527.607	33374.55
527.808	33636.69
528.01	33565.01
528.211	33507.67
528.412	34267.47
528.614	33950.03
528.815	34054.48
529.016	34435.4
529.218	34197.84
529.419	34158.92
529.62	33706.32
529.822	34369.86
530.023	34421.06
530.224	34427.21
530.425	34107.72
530.626	34300.23
530.828	33866.06
531.029	34543.94
531.23	33907.02
531.431	34292.04
531.632	34140.49
531.833	34795.84
532.035	34152.78
532.236	34429.26
532.437	34328.91
532.638	34171.21
532.839	34500.93
533.04	34527.56
533.241	34214.22
533.442	34890.05
533.643	34351.43
533.844	34498.89
534.045	34261.32
534.246	34167.12
534.447	34343.24
534.648	34099.53
534.849	33911.12
535.05	33790.29
535.251	34447.69
535.451	34160.97
535.652	34433.35
535.853	33997.13
536.054	34156.88
536.255	34416.97
536.456	34326.86
536.657	34347.34
536.857	34214.22
537.058	34081.1
537.259	34238.79
537.46	33970.51
537.66	33902.93
537.861	34126.16
538.062	33788.24
538.263	34349.39
538.463	33769.81
538.664	33937.74
538.865	34376.01
539.065	33952.08
539.266	33810.77
539.466	34447.69
539.667	33892.69
539.868	33937.74
540.068	33833.3
540.269	33558.87
540.469	34115.92
540.67	34034
540.87	33886.54
541.071	33730.9
541.271	33851.73
541.472	33896.78
541.672	33454.42
541.873	33278.3
542.073	33489.24
542.274	34013.52
542.474	33677.65
542.675	33374.55
542.875	33618.26
543.075	33509.72
543.276	33452.37
543.476	33763.67
543.676	33558.87
543.877	33671.51
544.077	33548.63
544.277	33294.68
544.478	33155.42
544.678	33653.08
544.878	33364.31
545.078	33454.42
545.279	32960.86
545.479	33229.15
545.679	33280.35
545.879	33263.96
546.079	33651.03
546.28	33200.47
546.48	32997.73
546.68	33229.15
546.88	33235.29
547.08	33470.81
547.28	32977.25
547.48	33028.45
547.68	33286.49
547.88	32989.53
548.081	33044.83
548.281	33255.77
548.481	33083.74
548.681	33366.36
548.881	33409.37
549.081	32995.68
549.28	32788.83
549.48	33124.7
549.68	33200.47
549.88	33589.59
550.08	32833.89
550.28	32780.64
550.48	33014.11
550.68	33079.64
550.88	32620.9
551.08	32848.22
551.279	33038.69
551.479	32729.44
551.679	32794.98
551.879	32842.08
552.079	32799.07
552.278	32846.18
552.478	32493.93
552.678	32815.46
552.878	33077.6
553.077	32690.53
553.277	32213.35
553.477	33343.83
553.676	32604.52
553.876	32373.1
554.076	32686.43
554.275	32741.73
554.475	32366.95
554.674	32735.59
554.874	32989.53
555.074	32563.56
555.273	32457.06
555.473	32532.84
555.672	32336.23
555.872	32481.64
556.071	32606.56
556.271	32717.15
556.47	32215.4
556.67	32194.92
556.869	32401.77
557.068	32244.07
557.268	32123.24
557.467	32436.58
557.667	32221.55
557.866	32506.21
558.065	32325.99
558.265	32278.89
558.464	32045.42
558.663	32366.95
558.863	32162.15
559.062	32371.05
559.261	31953.26
559.461	32471.4
559.66	31687.03
559.859	32047.47
560.058	31867.25
560.258	32315.75
560.457	31365.49
560.656	32258.41
560.855	31852.91
561.054	31897.97
561.253	31789.42
561.453	31897.97
561.652	31971.69
561.851	32297.32
562.05	31965.55
562.249	31785.33
562.448	31908.21
562.647	31983.98
562.846	31527.28
563.045	31986.03
563.244	31545.72
563.443	31574.39
563.642	31281.53
563.841	31437.17
564.04	31576.44
564.239	31871.34
564.438	31199.61
564.637	31854.96
564.836	31629.68
565.035	31023.48
565.234	31601.01
565.432	31340.92
565.631	31383.93
565.83	31699.31
566.029	30937.47
566.228	31189.37
566.427	31320.44
566.625	30896.51
566.824	31089.02
567.023	31136.12
567.222	30269.83
567.42	31271.29
567.619	30914.94
567.818	31150.46
568.016	30988.67
568.215	31052.16
568.414	30912.89
568.612	31115.64
568.811	30814.59
569.01	31259
569.208	30511.49
569.407	31138.17
569.605	30577.03
569.804	30970.24
570.002	30480.77
570.201	30808.45
570.4	30134.67
570.598	30232.97
570.797	30407.05
570.995	30427.53
571.193	30294.41
571.392	30376.33
571.59	29905.29
571.789	30366.09
571.987	30257.54
572.186	29964.68
572.384	29950.35
572.582	30550.4
572.781	30140.81
572.979	29473.17
573.177	30192.01
573.376	30177.67
573.574	29725.07
573.772	29424.02
573.971	30048.65
574.169	29895.05
574.367	29342.1
574.565	29864.33
574.763	29489.56
574.962	29665.68
575.16	29165.98
575.358	29426.07
575.556	29251.99
575.754	29651.34
575.952	29086.11
576.151	29430.16
576.349	28969.37
576.547	28926.36
576.745	29192.6
576.943	29039
577.141	29194.65
577.339	29245.85
577.537	29217.18
577.735	28971.42
577.933	28383.65
578.131	29098.39
578.329	28754.33
578.527	28410.28
578.725	28723.62
578.923	28780.96
579.121	28131.75
579.319	28518.82
579.516	28971.42
579.714	28252.58
579.912	28045.74
580.11	28543.39
580.308	28391.84
580.506	28365.22
580.704	27799.98
580.901	28144.04
581.099	28635.55
581.297	28168.62
581.495	28090.79
581.692	28131.75
581.89	27857.32
582.088	28275.11
582.285	27777.45
582.483	27869.61
582.681	27558.32
582.878	27437.49
583.076	27363.76
583.274	27642.29
583.471	26978.75
583.669	27668.91
583.866	26982.84
584.064	27277.75
584.262	26954.17
584.459	27300.28
584.657	27273.65
584.854	27359.67
585.052	26905.02
585.249	27066.81
585.447	27271.61
585.644	26513.86
585.841	26628.54
586.039	26905.02
586.236	26675.65
586.434	26530.24
586.631	26827.2
586.828	26515.9
587.026	26749.37
587.223	26532.29
587.42	26218.95
587.618	26456.51
587.815	26034.63
588.012	26237.38
588.21	26163.65
588.407	26356.16
588.604	26100.17
588.801	25848.27
588.999	26010.06
589.196	25620.94
589.393	25684.43
589.59	25713.1
589.787	25661.9
589.984	25588.17
590.182	25401.81
590.379	25735.63
590.576	25414.1
590.773	25457.1
590.97	25055.7
591.167	25467.34
591.364	25074.13
591.561	25545.17
591.758	25170.39
591.955	25094.61
592.152	25199.06
592.349	24916.44
592.546	24840.67
592.743	25074.13
592.94	24586.72
593.137	24682.97
593.334	24736.22
593.531	24426.98
593.727	24375.78
593.924	24832.47
594.121	24515.04
594.318	24582.62
594.515	23919.08
594.712	24576.48
594.908	24252.9
595.105	24175.08
595.302	23957.99
595.499	24127.97
595.696	24230.37
595.892	23871.98
596.089	24060.39
596.286	24082.92
596.482	23953.9
596.679	23955.94
596.876	23714.28
597.072	23429.62
597.269	23878.12
597.466	23411.18
597.662	23204.34
597.859	23267.83
598.055	23271.92
598.252	23482.86
598.448	23155.19
598.645	23435.76
598.841	23169.52
599.038	23136.76
599.234	22907.38
599.431	23151.09
599.627	22999.54
599.824	23136.76
600.02	22856.18
600.217	22942.2
600.413	22749.69
600.609	22548.99
600.806	22567.42
601.002	22524.41
601.198	22532.61
601.395	22475.26
601.591	22231.55
601.787	22514.17
601.984	22249.99
602.18	22415.87
602.376	22016.52
602.572	22188.55
602.769	22444.54
602.965	21993.99
603.161	22043.14
603.357	21793.29
603.553	21674.51
603.75	21709.32
603.946	21715.47
604.142	21713.42
604.338	21455.37
604.534	21557.77
604.73	21467.66
604.926	21504.53
605.122	21662.22
605.318	21357.07
605.514	21527.05
605.71	20937.24
605.906	21303.82
606.102	21148.18
606.298	21156.37
606.494	21078.55
606.69	21316.11
606.886	21051.92
607.082	20879.89
607.278	21029.4
607.474	21146.13
607.67	20988.44
607.866	20554.27
608.062	21107.22
608.257	20482.59
608.453	20736.54
608.649	20855.32
608.845	20441.63
609.041	20331.04
609.236	20566.56
609.432	20498.97
609.628	20425.25
609.824	20492.83
610.019	20343.33
610.215	20300.32
610.411	20806.17
610.606	20204.07
610.802	20288.03
610.998	20290.08
611.193	20310.56
611.389	20118.05
611.584	19964.45
611.78	19900.97
611.976	19784.23
612.171	19980.84
612.367	19946.02
612.562	19716.65
612.758	19706.41
612.953	19835.43
613.149	19882.53
613.344	19636.78
613.539	19960.36
613.735	19604.01
613.93	19778.09
614.126	19915.3
614.321	19872.29
614.517	19757.61
614.712	19431.98
614.907	19481.13
615.103	19653.16
615.298	19278.38
615.493	19845.67
615.688	19278.38
615.884	19911.21
616.079	18874.93
616.274	19409.45
616.47	19216.94
616.665	19106.35
616.86	19014.2
617.055	18872.89
617.25	19063.35
617.445	19288.62
617.641	18860.6
617.836	19018.29
618.031	18817.59
618.226	18874.93
618.421	19051.06
618.616	18801.21
618.811	18563.64
619.006	18919.99
619.201	18553.4
619.396	18530.87
619.591	18113.09
619.786	18502.2
619.981	17930.82
620.176	18266.69
620.371	18006.59
620.566	18227.78
620.761	18049.6
620.956	18135.62
621.151	17787.46
621.346	18010.69
621.541	17807.94
621.735	17752.65
621.93	17558.09
622.125	17400.4
622.32	17369.68
622.515	17523.27
622.709	17074.77
622.904	17250.89
623.099	17064.53
623.294	17099.34
623.488	16699.99
623.683	16736.85
623.878	16583.26
624.072	16806.48
624.267	16548.44
624.462	16564.82
624.656	16589.4
624.851	16591.45
625.046	16177.76
625.24	16134.75
625.435	16099.94
625.629	16112.22
625.824	15678.05
626.018	15999.59
626.213	15553.13
626.407	15678.05
626.602	15518.31
626.796	15633
626.991	15503.98
627.185	15305.32
627.38	15219.31
627.574	15129.2
627.768	15329.9
627.963	14994.03
628.157	14815.86
628.352	14817.91
628.546	14631.54
628.74	14604.92
628.935	14707.32
629.129	14967.41
629.323	14586.49
629.517	14406.27
629.712	14353.02
629.906	14342.78
630.1	14027.39
630.294	14357.11
630.489	14117.5
630.683	14201.47
630.877	13965.95
631.071	13888.13
631.265	13937.28
631.459	13658.76
631.653	13607.56
631.848	13838.98
632.042	13480.58
632.236	13640.33
632.43	13470.34
632.624	13550.21
632.818	13525.64
633.012	13259.4
633.206	13122.19
633.4	13083.28
633.594	12997.26
633.788	12931.73
633.982	13044.37
634.176	12810.9
634.369	12653.2
634.563	12530.33
634.757	12477.08
634.951	12673.68
635.145	12382.87
635.339	12706.45
635.533	12421.78
635.726	12196.51
635.92	12212.89
636.114	12188.32
636.308	12147.36
636.501	12239.51
636.695	12266.14
636.889	11799.2
637.083	11971.23
637.276	11782.82
637.47	11625.12
637.664	11508.39
637.857	11707.04
638.051	11645.6
638.244	11426.47
638.438	11489.96
638.632	11524.77
638.825	11397.8
639.019	11365.03
639.212	11295.4
639.406	11176.62
639.599	11205.29
639.793	11098.8
639.986	10824.37
640.18	10984.11
640.373	10711.73
640.567	10789.55
640.76	10703.54
640.954	10482.36
641.147	10574.52
641.34	10580.66
641.534	10662.58
641.727	10570.42
641.92	10535.6
642.114	10388.15
642.307	10353.34
642.5	10142.39
642.694	10042.04
642.887	9913.02
643.08	10201.79
643.273	10246.84
643.467	10025.66
643.66	9777.86
643.853	9949.89
644.046	9595.59
644.239	9657.03
644.432	9636.55
644.626	9659.07
644.819	9577.16
645.012	9429.7
645.205	9493.19
645.398	9362.12
645.591	9239.24
645.784	9427.65
645.977	9196.23
646.17	9351.88
646.363	9007.82
646.556	9071.31
646.749	9071.31
646.942	9204.42
647.135	8919.76
647.328	8905.42
647.521	8866.51
647.714	8753.87
647.907	8846.03
648.099	8686.29
648.292	8893.13
648.485	8729.3
648.678	8602.32
648.871	8420.05
649.064	8630.99
649.256	8616.66
649.449	8399.57
649.642	8356.57
649.835	8295.13
650.027	8428.24
650.22	8315.61
650.413	8147.67
650.605	8186.58
650.798	8227.54
650.991	8061.66
651.183	8006.36
651.376	8065.75
651.568	7783.13
651.761	7836.38
651.954	7809.76
652.146	8043.23
652.339	7799.52
652.531	7772.89
652.724	7832.29
652.916	7715.55
653.109	7549.67
653.301	7598.82
653.494	7686.88
653.686	7705.31
653.879	7574.24
654.071	7539.43
654.263	7449.32
654.456	7277.29
654.648	7439.08
654.84	7342.82
655.033	7238.37
655.225	7312.1
655.417	7301.86
655.61	7318.25
655.802	7254.76
655.994	7265
656.186	7090.92
656.379	7166.7
656.571	6974.19
656.763	6865.64
656.955	6900.46
657.148	6841.07
657.34	6933.23
657.532	6769.39
657.724	6916.84
657.916	6761.2
658.108	6679.28
658.3	6744.81
658.492	6759.15
658.684	6550.26
658.876	6628.08
659.068	6603.5
659.26	6464.24
659.452	6562.55
659.644	6419.19
659.836	6449.91
660.028	6437.62
660.22	6357.75
660.412	6320.88
660.604	6294.26
660.796	6386.42
660.988	6316.79
661.18	6228.73
661.372	6296.31
661.563	6320.88
661.755	6083.32
661.947	5899
662.139	6058.74
662.331	6079.22
662.522	6028.03
662.714	5843.71
662.906	5839.61
663.097	5933.82
663.289	5942.01
663.481	5927.67
663.673	6011.64
663.864	5753.6
664.056	5751.55
664.247	5825.28
664.439	5714.69
664.631	5831.42
664.822	5651.2
665.014	5657.34
665.205	5653.25
665.397	5790.46
665.588	5651.2
665.78	5497.6
665.971	5741.31
666.163	5540.61
666.354	5526.27
666.546	5503.75
666.737	5526.27
666.929	5382.92
667.12	5569.28
667.311	5354.24
667.503	5266.18
667.694	5354.24
667.885	5380.87
668.077	5423.87
668.268	5141.25
668.459	5114.63
668.651	5352.2
668.842	5339.91
669.033	5141.25
669.224	5133.06
669.416	5243.65
669.607	5372.68
669.798	5124.87
669.989	5350.15
670.18	5028.62
670.371	5169.93
670.563	4993.8
670.754	5190.41
670.945	5167.88
671.136	5081.86
671.327	5010.18
671.518	5030.66
671.709	5163.78
671.9	5040.9
672.091	5065.48
672.282	4981.51
672.473	4899.59
672.664	4875.02
672.855	4862.73
673.046	4997.9
673.237	5034.76
673.428	4803.34
673.619	4961.03
673.809	4819.72
674	4893.45
674.191	4911.88
674.382	4922.12
674.573	4877.07
674.764	4860.68
674.954	4842.25
675.145	4870.92
675.336	4748.04
675.527	4868.88
675.717	4754.19
675.908	4702.99
676.099	4776.72
676.289	4784.91
676.48	4774.67
676.671	4801.29
676.861	4848.4
677.052	4725.52
677.243	4735.76
677.433	4596.5
677.624	4770.57
677.814	4746
678.005	4737.81
678.195	4750.09
678.386	4799.24
678.576	4717.33
678.767	4623.12
678.957	4782.86
679.148	4633.36
679.338	4741.9
679.529	4739.85
679.719	4733.71
679.909	4829.96
680.1	4819.72
680.29	4623.12
680.481	4780.81
680.671	4879.11
680.861	4725.52
681.052	4823.82
681.242	4651.79
681.432	4829.96
681.622	4686.61
681.813	4756.24
682.003	4737.81
682.193	4662.03
682.383	4811.53
682.573	4684.56
682.764	4723.47
682.954	4764.43
683.144	4682.51
683.334	4707.09
683.524	4682.51
683.714	4686.61
683.904	4686.61
684.094	4631.31
684.284	4627.21
684.474	4696.85
684.664	4610.83
684.854	4629.26
685.044	4504.34
685.234	4578.06
685.424	4563.73
685.614	4602.64
685.804	4698.89
685.994	4711.18
686.184	4651.79
686.374	4463.38
686.564	4504.34
686.753	4496.14
686.943	4561.68
687.133	4504.34
687.323	4395.79
687.513	4522.77
687.702	4277.01
687.892	4389.65
688.082	4455.19
688.272	4465.43
688.461	4444.95
688.651	4428.56
688.841	4383.51
689.03	4338.45
689.22	4227.86
689.41	4236.05
689.599	4295.44
689.789	4260.63
689.979	4354.83
690.168	4086.55
690.358	4170.52
690.547	4166.42
690.737	4066.07
690.926	4098.84
691.116	4096.79
691.305	4158.23
691.495	4154.13
691.684	4057.88
691.874	4068.12
692.063	4039.45
692.252	3988.25
692.442	3865.37
692.631	3894.04
692.82	4021.02
693.01	3908.38
693.199	3996.44
693.388	4039.45
693.578	3973.91
693.767	4066.07
693.956	3992.34
694.146	3836.7
694.335	3828.51
694.524	3900.19
694.713	3943.19
694.902	3848.99
695.092	3859.23
695.281	3701.53
695.47	3830.55
695.659	3869.47
695.848	3767.07
696.037	3713.82
696.226	3894.04
696.415	3812.12
696.604	3906.33
696.793	3846.94
696.982	3894.04
697.171	3818.27
697.36	3871.51
697.549	3844.89
697.738	3891.99
697.927	3869.47
698.116	3871.51
698.305	3654.43
698.494	3801.88
698.683	3918.62
698.872	3918.62
699.061	3836.7
699.25	3713.82
699.438	3914.52
699.627	3836.7
699.816	3801.88
700.005	3797.79
700.193	3728.16
700.382	3711.77
700.571	3935
700.76	3822.36
700.948	3896.09
701.137	3846.94
701.326	3828.51
701.514	3826.46
701.703	3857.18
701.892	3910.43
702.08	4074.26
702.269	3867.42
702.457	3889.95
702.646	3822.36
702.834	3894.04
703.023	4023.06
703.212	4025.11
703.4	3963.67
703.589	3871.51
703.777	3990.3
703.965	3904.28
704.154	3857.18
704.342	3912.47
704.531	3932.95
704.719	3851.03
704.907	3943.19
705.096	3945.24
705.284	4041.5
705.472	4047.64
705.661	3930.91
705.849	3998.49
706.037	3986.2
706.226	4000.54
706.414	4027.16
706.602	3961.62
706.79	4096.79
706.979	3953.43
707.167	3896.09
707.355	3955.48
707.543	4117.27
707.731	4123.41
707.919	3869.47
708.107	3982.1
708.296	3990.3
708.484	4012.82
708.672	4078.36
708.86	3990.3
709.048	3988.25
709.236	4002.58
709.424	4256.53
709.612	4094.74
709.8	4121.37
709.988	3951.39
710.176	4123.41
710.364	4160.28
710.551	4203.29
710.739	4064.02
710.927	3980.06
711.115	4193.05
711.303	4102.93
711.491	4162.33
711.679	4051.74
711.866	4008.73
712.054	4231.96
712.242	4049.69
712.43	4180.76
712.617	4236.05
712.805	4111.13
712.993	4031.26
713.181	4141.85
713.368	4107.03
713.556	4203.29
713.744	4150.04
713.931	4264.72
714.119	4152.09
714.306	4229.91
714.494	4102.93
714.682	4158.23
714.869	4094.74
715.057	4209.43
715.244	4211.48
715.432	4203.29
715.619	4330.26
715.807	4176.66
715.994	4191
716.182	4268.82
716.369	4201.24
716.556	4408.08
716.744	4229.91
716.931	4098.84
717.119	4311.83
717.306	4238.1
717.493	4174.61
717.681	4285.2
717.868	4209.43
718.055	4143.89
718.242	4219.67
718.43	4358.93
718.617	4287.25
718.804	4311.83
718.991	4348.69
719.179	4451.09
719.366	4301.59
719.553	4264.72
719.74	4465.43
719.927	4158.23
720.114	4387.6
720.301	4135.7
720.488	4303.64
720.676	4231.96
720.863	4270.87
721.05	4514.58
721.237	4236.05
721.424	4291.35
721.611	4408.08
721.798	4293.4
721.985	4348.69
722.172	4383.51
722.358	4465.43
722.545	4403.99
722.732	4320.02
722.919	4496.14
723.106	4264.72
723.293	4299.54
723.48	4403.99
723.667	4399.89
723.853	4360.98
724.04	4461.33
724.227	4346.64
724.414	4479.76
724.6	4367.12
724.787	4455.19
724.974	4481.81
725.161	4522.77
725.347	4383.51
725.534	4596.5
725.72	4426.51
725.907	4573.97
726.094	4369.17
726.28	4387.6
726.467	4410.13
726.653	4377.36
726.84	4320.02
727.027	4516.62
727.213	4332.31
727.4	4475.67
727.586	4442.9
727.773	4487.95
727.959	4332.31
728.145	4490
728.332	4444.95
728.518	4420.37
728.705	4373.27
728.891	4379.41
729.077	4412.18
729.264	4393.75
729.45	4367.12
729.636	4432.66
729.823	4219.67
730.009	4586.26
730.195	4236.05
730.382	4313.88
730.568	4475.67
730.754	4418.32
730.94	4457.23
731.126	4465.43
731.313	4543.25
731.499	4469.52
731.685	4387.6
731.871	4614.93
732.057	4446.99
732.243	4256.53
732.429	4453.14
732.615	4438.8
732.801	4580.11
732.987	4449.04
733.173	4518.67
733.359	4408.08
733.545	4453.14
733.731	4342.55
733.917	4363.03
734.103	4449.04
734.289	4381.46
734.475	4356.88
734.661	4479.76
734.847	4346.64
735.033	4395.79
735.219	4416.27
735.404	4371.22
735.59	4356.88
735.776	4248.34
735.962	4258.58
736.148	4326.16
736.333	4332.31
736.519	4123.41
736.705	4352.79
736.89	4320.02
737.076	4289.3
737.262	4152.09
737.447	4399.89
737.633	4313.88
737.819	4412.18
738.004	4217.62
738.19	4313.88
738.375	4156.18
738.561	4330.26
738.747	4219.67
738.932	4223.76
739.118	4109.08
739.303	4193.05
739.489	4250.39
739.674	4227.86
739.859	4141.85
740.045	4279.06
740.23	4191
740.416	4162.33
740.601	4219.67
740.786	4057.88
740.972	4037.4
741.157	4047.64
741.342	4178.71
741.528	3902.23
741.713	4006.68
741.898	3959.58
742.084	3980.06
742.269	3973.91
742.454	4008.73
742.639	4082.46
742.824	3951.39
743.01	3924.76
743.195	3971.86
743.38	3842.84
743.565	3900.19
743.75	3818.27
743.935	3801.88
744.12	3836.7
744.305	3633.95
744.49	3752.73
744.675	3592.99
744.86	3746.59
745.045	3783.45
745.23	3836.7
745.415	3771.16
745.6	3777.31
745.785	3728.16
745.97	3701.53
746.155	3685.15
746.34	3695.39
746.525	3582.75
746.71	3650.33
746.895	3541.79
747.079	3658.53
747.264	3676.96
747.449	3666.72
747.634	3490.59
747.819	3568.41
748.003	3336.99
748.188	3363.62
748.373	3453.73
748.557	3410.72
748.742	3367.71
748.927	3377.95
749.111	3361.57
749.296	3318.56
749.481	3248.93
749.665	3279.65
749.85	3203.88
750.034	3283.75
750.219	3031.85
750.404	3238.69
750.588	3119.91
750.773	2968.36
750.957	3279.65
751.141	3169.06
751.326	3152.68
751.51	2992.94
751.695	3060.52
751.879	3044.13
752.064	3023.66
752.248	2990.89
752.432	3021.61
752.617	2890.54
752.801	2892.59
752.985	3025.7
753.17	2851.63
753.354	2929.45
753.538	2804.52
753.722	2775.85
753.907	2853.67
754.091	2808.62
754.275	2788.14
754.459	2700.08
754.643	2620.21
754.828	2614.06
755.012	2685.74
755.196	2583.34
755.38	2646.83
755.564	2677.55
755.748	2569.01
755.932	2663.21
756.116	2589.49
756.3	2552.62
756.484	2495.28
756.668	2581.29
756.852	2491.18
757.036	2536.24
757.22	2493.23
757.404	2409.26
757.588	2321.2
757.772	2526
757.956	2347.83
758.14	2337.59
758.323	2353.97
758.507	2372.4
758.691	2284.34
758.875	2378.55
759.059	2313.01
759.242	2204.47
759.426	2282.29
759.61	2270
759.794	2315.06
759.977	2167.6
760.161	2321.2
760.345	2300.72
760.528	2198.32
760.712	2153.27
760.895	2319.15
761.079	2097.97
761.263	2140.98
761.446	2140.98
761.63	2124.6
761.813	2157.36
761.997	2102.07
762.18	2120.5
762.364	1964.86
762.547	2110.26
762.731	2034.49
762.914	2057.01
763.098	2007.86
763.281	2011.96
763.464	1925.94
763.648	1999.67
763.831	1930.04
764.015	1884.98
764.198	2036.53
764.381	1911.61
764.564	1921.85
764.748	1944.38
764.931	1923.9
765.114	1940.28
765.297	1932.09
765.481	1870.65
765.664	1844.03
765.847	1786.68
766.03	1874.74
766.213	1854.27
766.397	1893.18
766.58	1846.07
766.763	1889.08
766.946	1813.31
767.129	1778.49
767.312	1856.31
767.495	1825.59
767.678	1762.11
767.861	1854.27
768.044	1805.11
768.227	1753.91
768.41	1796.92
768.593	1874.74
768.776	1739.58
768.959	1864.5
769.142	1829.69
769.324	1731.39
769.507	1741.63
769.69	1616.7
769.873	1717.05
770.056	1786.68
770.239	1588.03
770.421	1686.33
770.604	1760.06
770.787	1665.85
770.97	1616.7
771.152	1510.21
771.335	1641.28
771.518	1606.46
771.7	1624.89
771.883	1674.04
772.066	1653.56
772.248	1647.42
772.431	1633.08
772.613	1661.76
772.796	1477.44
772.978	1614.65
773.161	1588.03
773.343	1485.63
773.526	1430.34
773.708	1454.91
773.891	1426.24
774.073	1471.29
774.256	1407.81
774.438	1481.53
774.621	1407.81
774.803	1440.58
774.985	1487.68
775.168	1342.27
775.35	1366.85
775.532	1530.69
775.715	1422.14
775.897	1309.51
776.079	1440.58
776.261	1397.57
776.444	1305.41
776.626	1313.6
776.808	1411.9
776.99	1264.45
777.173	1303.36
777.355	1297.22
777.537	1440.58
777.719	1352.51
777.901	1313.6
778.083	1233.73
778.265	1153.86
778.447	1342.27
778.629	1301.31
778.811	1227.59
778.993	1291.07
779.175	1186.63
779.357	1225.54
779.539	1131.33
779.721	1180.48
779.903	1135.43
780.085	1184.58
780.267	1151.81
780.449	1141.57
780.631	1092.42
780.812	1198.92
780.994	1127.24
781.176	1117
781.358	1092.42
781.54	1125.19
781.721	1133.38
781.903	1080.13
782.085	1108.8
782.267	1092.42
782.448	944.97
782.63	938.82
782.812	1110.85
782.993	1043.27
783.175	1018.69
783.357	1010.5
783.538	1012.55
783.72	949.06
783.901	940.87
784.083	985.93
784.264	895.82
784.446	893.77
784.627	781.13
784.809	932.68
784.99	848.71
785.172	895.82
785.353	949.06
785.535	889.67
785.716	932.68
785.897	908.1
786.079	832.33
786.26	926.54
786.441	908.1
786.623	848.71
786.804	893.77
786.985	787.27
787.167	850.76
787.348	834.38
787.529	846.66
787.71	942.92
787.891	865.1
788.073	727.88
788.254	734.03
788.435	840.52
788.616	846.66
788.797	639.82
788.978	756.55
789.159	738.12
789.34	754.51
789.522	705.35
789.703	742.22
789.884	746.31
790.065	748.36
790.246	731.98
790.427	766.79
790.607	777.03
790.788	779.08
790.969	668.49
791.15	686.92
791.331	617.29
791.512	629.58
791.693	609.1
791.874	609.1
792.054	820.04
792.235	725.83
792.416	611.15
792.597	592.72
792.778	588.62
792.958	699.21
793.139	609.1
793.32	682.83
793.5	680.78
793.681	627.53
793.862	562
794.042	613.2
794.223	535.37
794.404	586.57
794.584	535.37
794.765	531.28
794.945	650.06
795.126	559.95
795.306	602.96
795.487	547.66
795.667	547.66
795.848	570.19
796.028	555.85
796.209	521.04
796.389	580.43
796.57	580.43
796.75	555.85
796.93	600.91
797.111	504.65
797.291	639.82
797.471	570.19
797.652	564.04
797.832	578.38
798.012	576.33
798.192	422.73
798.373	492.37
798.553	541.52
798.733	584.52
798.913	492.37
799.093	500.56
799.274	500.56
799.454	514.89
799.634	525.13
799.814	492.37
799.994	525.13
800.174	465.74
800.354	430.93
800.534	441.17
800.714	555.85
800.894	392.02
801.074	400.21
801.254	475.98
801.434	596.81
801.614	506.7
801.794	426.83
801.974	1473.34
802.154	443.21
802.334	496.46
802.514	418.64
802.693	435.02
802.873	424.78
803.053	516.94
803.233	551.76
803.413	402.26
803.592	334.67
803.772	439.12
803.952	406.35
804.131	349.01
804.311	500.56
804.491	402.26
804.67	482.13
804.85	422.73
805.03	361.3
805.209	400.21
805.389	320.34
805.568	435.02
805.748	332.62
805.928	349.01
806.107	445.26
806.287	484.17
806.466	441.17
806.646	383.82
806.825	355.15
807.004	383.82
807.184	351.06
807.363	422.73
807.543	385.87
807.722	400.21
807.901	381.78
808.081	420.69
808.26	336.72
808.439	340.82
808.619	437.07
808.798	383.82
808.977	318.29
809.156	404.3
809.336	424.78
809.515	389.97
809.694	289.62
809.873	283.47
810.052	387.92
810.231	361.3
810.411	379.73
810.59	351.06
810.769	346.96
810.948	336.72
811.127	160.59
811.306	342.86
811.485	207.7
811.664	338.77
811.843	256.85
812.022	375.63
812.201	418.64
812.38	265.04
812.559	246.61
812.737	349.01
812.916	275.28
813.095	293.71
813.274	289.62
813.453	357.2
813.632	332.62
813.811	359.25
813.989	205.65
814.168	258.9
814.347	312.14
814.526	281.43
814.704	273.23
814.883	361.3
815.062	158.55
815.24	332.62
815.419	293.71
815.598	267.09
815.776	164.69
815.955	230.23
816.133	209.75
816.312	310.1
816.49	215.89
816.669	269.14
816.847	205.65
817.026	242.51
817.204	267.09
817.383	262.99
817.561	224.08
817.74	281.43
817.918	299.86
818.097	234.32
818.275	242.51
818.453	254.8
818.632	285.52
818.81	197.46
818.988	174.93
819.167	228.18
819.345	189.27
819.523	287.57
819.701	277.33
819.879	232.27
820.058	246.61
820.236	252.75
820.414	158.55
820.592	189.27
820.77	215.89
820.948	215.89
821.127	242.51
821.305	273.23
821.483	176.98
821.661	213.84
821.839	271.19
822.017	209.75
822.195	271.19
822.373	226.13
822.551	183.12
822.729	185.17
822.907	191.31
823.085	246.61
823.262	236.37
823.44	160.59
823.618	234.32
823.796	201.55
823.974	246.61
824.152	234.32
824.329	275.28
824.507	142.16
824.685	164.69
824.863	199.51
825.04	183.12
825.218	154.45
825.396	142.16
825.574	187.22
825.751	193.36
825.929	158.55
826.107	127.83
826.284	195.41
826.462	217.94
826.639	140.12
826.817	117.59
826.994	158.55
827.172	115.54
827.349	260.95
827.527	152.4
827.704	262.99
827.882	246.61
828.059	189.27
828.237	166.74
828.414	303.95
828.591	160.59
828.769	146.26
828.946	174.93
829.124	195.41
829.301	228.18
829.478	181.07
829.655	172.88
829.833	105.3
830.01	113.49
830.187	219.99
830.364	213.84
830.542	213.84
830.719	217.94
830.896	254.8
831.073	133.97
831.25	189.27
831.427	215.89
831.604	105.3
831.782	183.12
831.959	150.36
832.136	105.3
832.313	183.12
832.49	86.87
832.667	176.98
832.844	207.7
833.021	269.14
833.198	109.4
833.374	90.96
833.551	168.79
833.728	125.78
833.905	115.54
834.082	72.53
834.259	54.1
834.436	146.26
834.612	99.16
834.789	193.36
834.966	181.07
835.143	189.27
835.319	115.54
835.496	191.31
835.673	127.83
835.85	119.64
836.026	82.77
836.203	93.01
836.38	146.26
836.556	138.07
836.733	136.02
836.909	123.73
837.086	189.27
837.262	58.2
837.439	109.4
837.616	101.2
837.792	162.64
837.968	156.5
838.145	66.39
838.321	154.45
838.498	109.4
838.674	209.75
838.851	160.59
839.027	99.16
839.203	90.96
839.38	144.21
839.556	111.44
839.732	176.98
839.909	148.31
840.085	146.26
840.261	99.16
840.437	84.82
840.614	170.83
840.79	168.79
840.966	123.73
841.142	146.26
841.318	95.06
841.494	129.88
841.671	156.5
841.847	76.63
842.023	80.72
842.199	158.55
842.375	119.64
842.551	27.48
842.727	86.87
842.903	166.74
843.079	131.92
843.255	140.12
843.431	90.96
843.607	138.07
843.783	7
843.959	66.39
844.134	125.78
844.31	193.36
844.486	70.48
844.662	121.68
844.838	52.05
845.013	95.06
845.189	181.07
845.365	58.2
845.541	125.78
845.716	105.3
845.892	35.67
846.068	133.97
846.244	93.01
846.419	97.11
846.595	64.34
846.77	41.81
846.946	105.3
847.122	125.78
847.297	62.29
847.473	168.79
847.648	70.48
847.824	115.54
847.999	33.62
848.175	47.96
848.35	129.88
848.526	148.31
848.701	74.58
848.876	66.39
849.052	129.88
849.227	62.29
849.403	33.62
849.578	105.3
849.753	109.4
849.929	101.2
850.104	62.29
850.279	109.4
850.454	107.35
850.63	15.19
850.805	136.02
850.98	4.95
851.155	64.34
851.33	115.54
851.505	17.24
851.681	78.68
851.856	21.33
852.031	50
852.206	90.96
852.381	9.05
852.556	90.96
852.731	101.2
852.906	131.92
853.081	84.82
853.256	174.93
853.431	13.14
853.606	62.29
853.781	160.59
853.956	29.52
854.131	64.34
854.305	0.85
854.48	62.29
854.655	86.87
854.83	31.57
855.005	86.87
855.18	56.15
855.354	72.53
855.529	47.96
855.704	4.95
855.879	144.21
856.053	90.96
856.228	76.63
856.403	25.43
856.577	45.91
856.752	-21.67
856.926	90.96
857.101	9.05
857.276	-23.72
857.45	33.62
857.625	39.76
857.799	105.3
857.974	105.3
858.148	41.81
858.323	58.2
858.497	52.05
858.672	-44.2
858.846	47.96
859.02	121.68
859.195	60.24
859.369	82.77
859.543	64.34
859.718	41.81
859.892	33.62
860.066	90.96
860.241	11.09
860.415	-19.63
860.589	41.81
860.763	76.63
860.938	19.29
861.112	41.81
861.286	54.1
861.46	88.92
861.634	21.33
861.808	125.78
861.982	88.92
862.157	-9.39
862.331	27.48
862.505	35.67
862.679	0.85
862.853	74.58
863.027	64.34
863.201	150.36
863.375	11.09
863.549	25.43
863.722	70.48
863.896	101.2
864.07	-46.25
864.244	47.96
864.418	115.54
864.592	-7.34
864.766	23.38
864.939	109.4
865.113	-46.25
865.287	133.97
865.461	50
865.634	-5.29
865.808	2.9
865.982	-19.63
866.156	80.72
866.329	50
866.503	13.14
866.676	54.1
866.85	35.67
867.024	-56.49
867.197	72.53
867.371	43.86
867.544	78.68
867.718	23.38
867.891	29.52
868.065	0.85
868.238	37.72
868.412	140.12
868.585	21.33
868.759	31.57
868.932	-3.24
869.105	4.95
869.279	-5.29
869.452	-9.39
869.625	68.44
869.799	74.58
869.972	21.33
870.145	111.44
870.319	60.24
870.492	-27.82
870.665	9.05
870.838	-11.43
871.011	54.1
871.185	29.52
871.358	17.24
871.531	-29.87
871.704	39.76
871.877	54.1
872.05	64.34
872.223	-5.29
872.396	52.05
872.569	58.2
872.742	23.38
872.915	27.48
873.088	41.81
873.261	45.91
873.434	105.3
873.607	58.2
873.78	72.53
873.953	-76.97
874.126	76.63
874.299	97.11
874.471	7
874.644	9.05
874.817	-7.34
874.99	74.58
875.163	21.33
875.335	2.9
875.508	82.77
875.681	25.43
875.853	-5.29
876.026	-11.43
876.199	11.09
876.371	15.19
876.544	9.05
876.717	19.29
876.889	21.33
877.062	37.72
877.234	-13.48
877.407	56.15
877.579	-13.48
877.752	31.57
877.924	-17.58
878.097	54.1
878.269	47.96
878.442	41.81
878.614	80.72
878.786	13.14
878.959	68.44
879.131	103.25
879.303	-23.72
879.476	7
879.648	88.92
879.82	19.29
879.993	45.91
880.165	33.62
880.337	-25.77
880.509	41.81
880.681	-1.19
880.854	-23.72
881.026	68.44
881.198	90.96
881.37	0.85
881.542	-13.48
881.714	-25.77
881.886	43.86
882.058	23.38
882.23	27.48
882.402	-38.06
882.574	9.05
882.746	103.25
882.918	74.58
883.09	76.63
883.262	-29.87
883.434	-56.49
883.606	-23.72
883.778	99.16
883.95	43.86
884.122	-58.54
884.293	107.35
884.465	31.57
884.637	45.91
884.809	-5.29
884.98	0.85
885.152	41.81
885.324	56.15
885.496	-21.67
885.667	-9.39
885.839	41.81
886.011	33.62
886.182	39.76
886.354	33.62
886.525	4.95
886.697	52.05
886.869	-25.77
887.04	43.86
887.212	31.57
887.383	90.96
887.555	60.24
887.726	37.72
887.897	27.48
888.069	41.81
888.24	-27.82
888.412	0.85
888.583	33.62
888.754	35.67
888.926	-31.91
889.097	35.67
889.268	2.9
889.44	-11.43
889.611	-21.67
889.782	-60.59
889.953	-21.67
890.125	17.24
890.296	-54.44
890.467	58.2
890.638	-13.48
890.809	-3.24
890.98	-50.35
891.151	17.24
891.323	72.53
891.494	-27.82
891.665	29.52
891.836	-42.15
892.007	11.09
892.178	19.29
892.349	119.64
892.52	-38.06
892.691	-29.87
892.862	-38.06
893.032	-25.77
893.203	9.05
893.374	7
893.545	82.77
893.716	52.05
893.887	90.96
894.057	68.44
894.228	43.86
894.399	7
894.57	76.63
894.74	-23.72
894.911	27.48
895.082	-48.3
895.253	-31.91
895.423	56.15
895.594	66.39
895.764	-19.63
895.935	-58.54
896.106	-38.06
896.276	9.05
896.447	64.34
896.617	-13.48
896.788	13.14
896.958	70.48
897.129	39.76
897.299	19.29
897.47	86.87
897.64	45.91
897.81	-3.24
897.981	72.53
898.151	11.09
898.322	95.06
898.492	62.29
898.662	39.76
898.832	80.72
899.003	0.85
899.173	93.01
899.343	23.38
899.513	-29.87
