Data from USB4F104151__85__12-13-00-041.txt Node

Date: Fri Mar 14 12:13:00 EDT 2025
User: louis
Spectrometer: USB4F10415
Trigger mode: 4
Integration Time (sec): 5.000000E-2
Scans to average: 1
Electric dark correction enabled: true
Nonlinearity correction enabled: false
Boxcar width: 0
XAxis mode: Wavelengths
Number of Pixels in Spectrum: 3648
>>>>>Begin Spectral Data<<<<<
178.204	-218.28
178.424	-218.28
178.644	-218.28
178.864	-253.09
179.084	-201.9
179.304	-85.16
179.524	7
179.744	-31.91
179.964	52.05
180.184	-19.63
180.404	-11.43
180.624	-44.2
180.844	-64.68
181.064	35.67
181.283	41.81
181.503	23.38
181.723	97.11
181.943	-9.39
182.163	99.16
182.383	33.62
182.602	82.77
182.822	144.21
183.042	25.43
183.262	-7.34
183.482	-50.35
183.701	-29.87
183.921	-25.77
184.141	-9.39
184.361	66.39
184.58	43.86
184.8	-93.35
185.02	-58.54
185.239	47.96
185.459	9.05
185.679	21.33
185.898	-7.34
186.118	105.3
186.338	13.14
186.557	58.2
186.777	-19.63
186.997	-15.53
187.216	39.76
187.436	86.87
187.655	41.81
187.875	11.09
188.095	58.2
188.314	27.48
188.534	-31.91
188.753	-19.63
188.973	25.43
189.192	107.35
189.412	15.19
189.631	-42.15
189.851	-42.15
190.07	160.59
190.29	-9.39
190.509	-17.58
190.729	-27.82
190.948	80.72
191.168	176.98
191.387	76.63
191.607	21.33
191.826	86.87
192.045	-15.53
192.265	-21.67
192.484	21.33
192.704	25.43
192.923	4.95
193.142	66.39
193.362	56.15
193.581	90.96
193.8	31.57
194.02	-29.87
194.239	-52.39
194.458	17.24
194.678	31.57
194.897	-13.48
195.116	4.95
195.335	-42.15
195.555	56.15
195.774	-27.82
195.993	86.87
196.212	-40.11
196.432	-3.24
196.651	4.95
196.87	-15.53
197.089	72.53
197.308	82.77
197.528	56.15
197.747	-70.83
197.966	7
198.185	107.35
198.404	-3.24
198.623	4.95
198.842	0.85
199.062	72.53
199.281	76.63
199.5	7
199.719	66.39
199.938	37.72
200.157	131.92
200.376	9.05
200.595	56.15
200.814	-13.48
201.033	-54.44
201.252	13.14
201.471	-23.72
201.69	-21.67
201.909	27.48
202.128	25.43
202.347	45.91
202.566	-11.43
202.785	-15.53
203.004	-72.87
203.223	76.63
203.442	-27.82
203.661	-85.16
203.879	21.33
204.098	37.72
204.317	-38.06
204.536	52.05
204.755	-29.87
204.974	23.38
205.193	15.19
205.411	66.39
205.63	41.81
205.849	13.14
206.068	29.52
206.287	-38.06
206.505	41.81
206.724	4.95
206.943	-27.82
207.162	-38.06
207.381	56.15
207.599	-13.48
207.818	25.43
208.037	11.09
208.255	-9.39
208.474	-42.15
208.693	84.82
208.911	39.76
209.13	17.24
209.349	-33.96
209.567	-17.58
209.786	111.44
210.005	66.39
210.223	-13.48
210.442	-64.68
210.661	80.72
210.879	-5.29
211.098	-33.96
211.316	15.19
211.535	11.09
211.753	52.05
211.972	37.72
212.191	-62.63
212.409	45.91
212.628	47.96
212.846	-89.26
213.065	95.06
213.283	62.29
213.502	0.85
213.72	-13.48
213.938	62.29
214.157	9.05
214.375	113.49
214.594	-17.58
214.812	43.86
215.031	84.82
215.249	-29.87
215.467	-44.2
215.686	27.48
215.904	52.05
216.122	9.05
216.341	39.76
216.559	13.14
216.778	99.16
216.996	105.3
217.214	17.24
217.432	45.91
217.651	-62.63
217.869	50
218.087	-7.34
218.306	-7.34
218.524	76.63
218.742	-83.11
218.96	74.58
219.179	23.38
219.397	29.52
219.615	123.73
219.833	31.57
220.051	2.9
220.27	62.29
220.488	86.87
220.706	-19.63
220.924	-60.59
221.142	4.95
221.36	64.34
221.578	-7.34
221.796	43.86
222.015	21.33
222.233	82.77
222.451	21.33
222.669	-56.49
222.887	64.34
223.105	52.05
223.323	62.29
223.541	-7.34
223.759	43.86
223.977	-1.19
224.195	72.53
224.413	62.29
224.631	23.38
224.849	-9.39
225.067	136.02
225.285	-19.63
225.503	50
225.721	-25.77
225.939	0.85
226.157	21.33
226.375	207.7
226.592	-27.82
226.81	27.48
227.028	11.09
227.246	136.02
227.464	15.19
227.682	52.05
227.9	56.15
228.117	4.95
228.335	-3.24
228.553	41.81
228.771	54.1
228.989	21.33
229.206	37.72
229.424	-89.26
229.642	-11.43
229.86	-29.87
230.077	29.52
230.295	7
230.513	9.05
230.731	43.86
230.948	95.06
231.166	115.54
231.384	43.86
231.601	35.67
231.819	136.02
232.037	-5.29
232.254	-56.49
232.472	52.05
232.689	68.44
232.907	9.05
233.125	-5.29
233.342	-42.15
233.56	72.53
233.777	-36.01
233.995	0.85
234.213	21.33
234.43	-27.82
234.648	-7.34
234.865	-1.19
235.083	60.24
235.3	2.9
235.518	37.72
235.735	52.05
235.953	54.1
236.17	58.2
236.388	-56.49
236.605	-9.39
236.822	-1.19
237.04	7
237.257	4.95
237.475	-3.24
237.692	17.24
237.909	58.2
238.127	-62.63
238.344	-25.77
238.562	-5.29
238.779	-52.39
238.996	-7.34
239.214	-21.67
239.431	41.81
239.648	-36.01
239.865	117.59
240.083	37.72
240.3	9.05
240.517	0.85
240.735	-38.06
240.952	88.92
241.169	62.29
241.386	50
241.603	17.24
241.821	-56.49
242.038	66.39
242.255	19.29
242.472	-11.43
242.689	4.95
242.907	82.77
243.124	7
243.341	-33.96
243.558	-56.49
243.775	-17.58
243.992	-17.58
244.209	-5.29
244.426	35.67
244.643	27.48
244.86	31.57
245.078	-3.24
245.295	-11.43
245.512	-1.19
245.729	-29.87
245.946	88.92
246.163	45.91
246.38	-5.29
246.597	-27.82
246.814	29.52
247.031	47.96
247.248	13.14
247.464	17.24
247.681	4.95
247.898	29.52
248.115	41.81
248.332	-50.35
248.549	50
248.766	66.39
248.983	-1.19
249.2	58.2
249.417	41.81
249.633	-25.77
249.85	35.67
250.067	33.62
250.284	-11.43
250.501	70.48
250.717	43.86
250.934	-1.19
251.151	-27.82
251.368	-68.78
251.585	39.76
251.801	15.19
252.018	-27.82
252.235	50
252.451	-58.54
252.668	-38.06
252.885	68.44
253.102	66.39
253.318	-31.91
253.535	-25.77
253.752	-11.43
253.968	19.29
254.185	33.62
254.401	70.48
254.618	50
254.835	-11.43
255.051	72.53
255.268	27.48
255.484	78.68
255.701	45.91
255.917	9.05
256.134	56.15
256.351	78.68
256.567	-3.24
256.784	-31.91
257	-62.63
257.217	19.29
257.433	23.38
257.65	-31.91
257.866	76.63
258.082	-9.39
258.299	-15.53
258.515	-36.01
258.732	-97.45
258.948	-7.34
259.165	97.11
259.381	-3.24
259.597	86.87
259.814	-27.82
260.03	11.09
260.246	31.57
260.463	84.82
260.679	11.09
260.895	-9.39
261.112	13.14
261.328	7
261.544	76.63
261.761	158.55
261.977	-115.88
262.193	-36.01
262.409	-27.82
262.626	39.76
262.842	-25.77
263.058	-89.26
263.274	-5.29
263.49	35.67
263.707	35.67
263.923	58.2
264.139	-52.39
264.355	-29.87
264.571	41.81
264.787	47.96
265.004	97.11
265.22	78.68
265.436	-21.67
265.652	-7.34
265.868	2.9
266.084	-44.2
266.3	50
266.516	-44.2
266.732	21.33
266.948	29.52
267.164	-56.49
267.38	29.52
267.596	35.67
267.812	97.11
268.028	84.82
268.244	-68.78
268.46	50
268.676	21.33
268.892	95.06
269.108	-40.11
269.324	-87.21
269.54	-52.39
269.756	70.48
269.972	11.09
270.188	-38.06
270.403	-36.01
270.619	-11.43
270.835	13.14
271.051	15.19
271.267	2.9
271.483	-33.96
271.698	17.24
271.914	17.24
272.13	33.62
272.346	23.38
272.562	-9.39
272.777	97.11
272.993	-66.73
273.209	-11.43
273.425	-29.87
273.64	-87.21
273.856	-27.82
274.072	-48.3
274.287	-23.72
274.503	25.43
274.719	2.9
274.934	-23.72
275.15	-29.87
275.366	33.62
275.581	-15.53
275.797	9.05
276.012	29.52
276.228	33.62
276.444	74.58
276.659	43.86
276.875	21.33
277.09	2.9
277.306	-58.54
277.521	-21.67
277.737	31.57
277.952	19.29
278.168	4.95
278.383	68.44
278.599	62.29
278.814	27.48
279.03	62.29
279.245	52.05
279.461	11.09
279.676	47.96
279.892	-50.35
280.107	-7.34
280.322	19.29
280.538	17.24
280.753	-17.58
280.969	-48.3
281.184	41.81
281.399	29.52
281.615	-40.11
281.83	13.14
282.045	-31.91
282.26	-60.59
282.476	56.15
282.691	4.95
282.906	25.43
283.122	-17.58
283.337	-33.96
283.552	41.81
283.767	-64.68
283.983	-19.63
284.198	7
284.413	54.1
284.628	4.95
284.843	11.09
285.058	-17.58
285.274	-29.87
285.489	41.81
285.704	43.86
285.919	-25.77
286.134	-21.67
286.349	50
286.564	-40.11
286.779	74.58
286.995	50
287.21	-89.26
287.425	109.4
287.64	-62.63
287.855	-5.29
288.07	-33.96
288.285	103.25
288.5	27.48
288.715	50
288.93	25.43
289.145	19.29
289.36	7
289.575	21.33
289.79	68.44
290.004	-48.3
290.219	88.92
290.434	2.9
290.649	15.19
290.864	-17.58
291.079	54.1
291.294	31.57
291.509	107.35
291.724	13.14
291.938	7
292.153	-46.25
292.368	39.76
292.583	-1.19
292.798	-13.48
293.012	17.24
293.227	72.53
293.442	-1.19
293.657	45.91
293.871	23.38
294.086	19.29
294.301	113.49
294.516	95.06
294.73	21.33
294.945	27.48
295.16	-50.35
295.374	74.58
295.589	70.48
295.804	-3.24
296.018	2.9
296.233	70.48
296.447	41.81
296.662	2.9
296.877	2.9
297.091	78.68
297.306	9.05
297.52	-27.82
297.735	11.09
297.949	-7.34
298.164	54.1
298.378	88.92
298.593	84.82
298.807	-21.67
299.022	-1.19
299.236	50
299.451	15.19
299.665	19.29
299.88	-15.53
300.094	7
300.309	-25.77
300.523	54.1
300.737	-25.77
300.952	45.91
301.166	-1.19
301.381	0.85
301.595	7
301.809	-85.16
302.024	7
302.238	62.29
302.452	68.44
302.667	0.85
302.881	41.81
303.095	43.86
303.309	33.62
303.524	-19.63
303.738	-19.63
303.952	-15.53
304.166	-17.58
304.381	-70.83
304.595	113.49
304.809	-11.43
305.023	52.05
305.237	-56.49
305.452	25.43
305.666	52.05
305.88	41.81
306.094	2.9
306.308	47.96
306.522	35.67
306.736	62.29
306.95	52.05
307.164	-17.58
307.379	19.29
307.593	111.44
307.807	56.15
308.021	144.21
308.235	27.48
308.449	-21.67
308.663	2.9
308.877	129.88
309.091	-15.53
309.305	70.48
309.519	-76.97
309.733	-15.53
309.947	-5.29
310.161	35.67
310.374	-29.87
310.588	86.87
310.802	-36.01
311.016	27.48
311.23	-19.63
311.444	-60.59
311.658	-56.49
311.872	21.33
312.085	13.14
312.299	80.72
312.513	99.16
312.727	-11.43
312.941	-48.3
313.154	-9.39
313.368	2.9
313.582	-25.77
313.796	-19.63
314.009	41.81
314.223	52.05
314.437	105.3
314.651	-1.19
314.864	-17.58
315.078	-29.87
315.292	-60.59
315.505	-40.11
315.719	-15.53
315.933	90.96
316.146	33.62
316.36	-56.49
316.573	72.53
316.787	47.96
317.001	-17.58
317.214	17.24
317.428	17.24
317.641	-13.48
317.855	29.52
318.068	-62.63
318.282	43.86
318.495	131.92
318.709	2.9
318.922	27.48
319.136	84.82
319.349	64.34
319.563	-25.77
319.776	84.82
319.99	-58.54
320.203	21.33
320.417	-27.82
320.63	-9.39
320.843	99.16
321.057	88.92
321.27	-25.77
321.483	84.82
321.697	86.87
321.91	-46.25
322.124	-29.87
322.337	29.52
322.55	13.14
322.763	64.34
322.977	-52.39
323.19	-27.82
323.403	41.81
323.617	25.43
323.83	90.96
324.043	-15.53
324.256	4.95
324.469	-40.11
324.683	45.91
324.896	-11.43
325.109	-15.53
325.322	-62.63
325.535	70.48
325.748	97.11
325.962	29.52
326.175	47.96
326.388	29.52
326.601	101.2
326.814	60.24
327.027	80.72
327.24	60.24
327.453	-58.54
327.666	13.14
327.879	31.57
328.092	95.06
328.305	35.67
328.518	-76.97
328.731	-29.87
328.944	13.14
329.157	52.05
329.37	47.96
329.583	84.82
329.796	62.29
330.009	-93.35
330.222	-13.48
330.435	33.62
330.648	2.9
330.861	27.48
331.073	-3.24
331.286	82.77
331.499	66.39
331.712	19.29
331.925	2.9
332.138	-5.29
332.35	64.34
332.563	-31.91
332.776	23.38
332.989	-87.21
333.202	62.29
333.414	60.24
333.627	58.2
333.84	72.53
334.053	62.29
334.265	25.43
334.478	-13.48
334.691	35.67
334.903	37.72
335.116	-15.53
335.329	27.48
335.541	17.24
335.754	2.9
335.966	11.09
336.179	13.14
336.392	4.95
336.604	0.85
336.817	58.2
337.029	-7.34
337.242	-25.77
337.454	60.24
337.667	-36.01
337.88	70.48
338.092	13.14
338.305	31.57
338.517	15.19
338.729	19.29
338.942	-27.82
339.154	-3.24
339.367	-58.54
339.579	0.85
339.792	-40.11
340.004	62.29
340.217	13.14
340.429	68.44
340.641	-19.63
340.854	0.85
341.066	-5.29
341.278	60.24
341.491	45.91
341.703	29.52
341.915	9.05
342.128	27.48
342.34	-46.25
342.552	11.09
342.764	-25.77
342.977	39.76
343.189	11.09
343.401	7
343.613	-89.26
343.826	21.33
344.038	-23.72
344.25	-5.29
344.462	-17.58
344.674	-17.58
344.886	27.48
345.099	19.29
345.311	-23.72
345.523	62.29
345.735	-52.39
345.947	-11.43
346.159	29.52
346.371	-1.19
346.583	58.2
346.795	119.64
347.007	-11.43
347.219	-56.49
347.431	21.33
347.643	99.16
347.855	23.38
348.067	50
348.279	-15.53
348.491	11.09
348.703	0.85
348.915	52.05
349.127	33.62
349.339	72.53
349.551	47.96
349.763	-21.67
349.975	60.24
350.187	-5.29
350.399	78.68
350.61	41.81
350.822	-5.29
351.034	15.19
351.246	-15.53
351.458	23.38
351.669	62.29
351.881	47.96
352.093	52.05
352.305	39.76
352.517	43.86
352.728	95.06
352.94	-56.49
353.152	-62.63
353.363	-23.72
353.575	76.63
353.787	47.96
353.999	72.53
354.21	29.52
354.422	-40.11
354.633	15.19
354.845	33.62
355.057	-46.25
355.268	31.57
355.48	-13.48
355.692	-42.15
355.903	25.43
356.115	-15.53
356.326	-62.63
356.538	90.96
356.749	25.43
356.961	113.49
357.172	17.24
357.384	11.09
357.595	105.3
357.807	7
358.018	37.72
358.23	21.33
358.441	86.87
358.653	13.14
358.864	11.09
359.075	-31.91
359.287	31.57
359.498	7
359.709	37.72
359.921	-17.58
360.132	70.48
360.344	-7.34
360.555	15.19
360.766	25.43
360.977	-9.39
361.189	56.15
361.4	-1.19
361.611	56.15
361.823	35.67
362.034	119.64
362.245	-85.16
362.456	-79.02
362.667	47.96
362.879	-33.96
363.09	33.62
363.301	37.72
363.512	95.06
363.723	45.91
363.935	56.15
364.146	54.1
364.357	37.72
364.568	35.67
364.779	37.72
364.99	35.67
365.201	27.48
365.412	58.2
365.623	9.05
365.834	41.81
366.045	82.77
366.256	62.29
366.467	86.87
366.678	-56.49
366.889	-3.24
367.1	35.67
367.311	-25.77
367.522	-89.26
367.733	129.88
367.944	11.09
368.155	11.09
368.366	27.48
368.577	117.59
368.788	39.76
368.999	4.95
369.209	68.44
369.42	148.31
369.631	133.97
369.842	90.96
370.053	-7.34
370.264	45.91
370.474	-33.96
370.685	47.96
370.896	-13.48
371.107	101.2
371.317	72.53
371.528	-64.68
371.739	66.39
371.95	2.9
372.16	-29.87
372.371	-52.39
372.582	0.85
372.792	-5.29
373.003	29.52
373.214	133.97
373.424	33.62
373.635	-29.87
373.846	103.25
374.056	-11.43
374.267	-5.29
374.477	39.76
374.688	-3.24
374.898	23.38
375.109	107.35
375.319	93.01
375.53	19.29
375.74	74.58
375.951	56.15
376.161	52.05
376.372	162.64
376.582	-7.34
376.793	27.48
377.003	-48.3
377.214	17.24
377.424	56.15
377.635	17.24
377.845	-11.43
378.055	54.1
378.266	-42.15
378.476	54.1
378.686	31.57
378.897	19.29
379.107	33.62
379.317	60.24
379.528	84.82
379.738	56.15
379.948	41.81
380.158	11.09
380.369	50
380.579	-44.2
380.789	0.85
380.999	15.19
381.21	13.14
381.42	74.58
381.63	-11.43
381.84	21.33
382.05	-19.63
382.261	33.62
382.471	39.76
382.681	-46.25
382.891	-9.39
383.101	88.92
383.311	-21.67
383.521	-9.39
383.731	-31.91
383.941	56.15
384.151	19.29
384.361	43.86
384.571	29.52
384.781	54.1
384.991	80.72
385.201	74.58
385.411	35.67
385.621	60.24
385.831	-33.96
386.041	39.76
386.251	4.95
386.461	50
386.671	2.9
386.881	41.81
387.091	35.67
387.301	127.83
387.511	-13.48
387.72	17.24
387.93	-11.43
388.14	43.86
388.35	-1.19
388.56	-21.67
388.769	76.63
388.979	76.63
389.189	43.86
389.399	-17.58
389.609	90.96
389.818	117.59
390.028	0.85
390.238	99.16
390.447	15.19
390.657	2.9
390.867	39.76
391.076	17.24
391.286	68.44
391.496	88.92
391.705	2.9
391.915	103.25
392.125	66.39
392.334	-31.91
392.544	107.35
392.753	82.77
392.963	-21.67
393.172	64.34
393.382	58.2
393.591	183.12
393.801	54.1
394.01	129.88
394.22	123.73
394.429	84.82
394.639	76.63
394.848	-29.87
395.058	78.68
395.267	29.52
395.477	166.74
395.686	93.01
395.895	107.35
396.105	41.81
396.314	80.72
396.524	80.72
396.733	47.96
396.942	121.68
397.152	58.2
397.361	45.91
397.57	76.63
397.78	99.16
397.989	86.87
398.198	133.97
398.407	140.12
398.617	101.2
398.826	109.4
399.035	50
399.244	115.54
399.453	64.34
399.663	105.3
399.872	90.96
400.081	35.67
400.29	168.79
400.499	19.29
400.708	43.86
400.917	84.82
401.127	31.57
401.336	119.64
401.545	164.69
401.754	117.59
401.963	52.05
402.172	103.25
402.381	52.05
402.59	54.1
402.799	105.3
403.008	148.31
403.217	119.64
403.426	60.24
403.635	27.48
403.844	142.16
404.053	158.55
404.262	101.2
404.471	166.74
404.68	119.64
404.888	105.3
405.097	140.12
405.306	138.07
405.515	174.93
405.724	138.07
405.933	136.02
406.142	156.5
406.35	160.59
406.559	109.4
406.768	179.03
406.977	215.89
407.185	176.98
407.394	142.16
407.603	125.78
407.812	234.32
408.02	228.18
408.229	125.78
408.438	215.89
408.646	97.11
408.855	166.74
409.064	250.71
409.272	131.92
409.481	222.03
409.69	138.07
409.898	156.5
410.107	234.32
410.315	312.14
410.524	273.23
410.733	156.5
410.941	176.98
411.15	277.33
411.358	301.9
411.567	353.1
411.775	301.9
411.984	275.28
412.192	293.71
412.401	310.1
412.609	402.26
412.818	439.12
413.026	312.14
413.234	443.21
413.443	416.59
413.651	387.92
413.86	437.07
414.068	527.18
414.276	623.44
414.485	387.92
414.693	508.75
414.901	627.53
415.11	562
415.318	590.67
415.526	578.38
415.734	592.72
415.943	600.91
416.151	731.98
416.359	715.59
416.567	736.07
416.776	652.11
416.984	822.09
417.192	873.29
417.4	805.71
417.608	830.28
417.817	758.6
418.025	861
418.233	1043.27
418.441	922.44
418.649	994.12
418.857	1028.93
419.065	1073.99
419.273	1004.36
419.481	1190.72
419.689	1233.73
419.897	1276.74
420.105	1260.35
420.313	1305.41
420.521	1405.76
420.729	1379.14
420.937	1389.38
421.145	1387.33
421.353	1612.6
421.561	1579.84
421.769	1585.98
421.977	1680.19
422.185	1710.91
422.393	1764.15
422.601	1772.35
422.809	1790.78
423.017	1862.46
423.224	1927.99
423.432	2069.3
423.64	2011.96
423.848	2204.47
424.056	2198.32
424.263	2356.02
424.471	2280.24
424.679	2384.69
424.887	2366.26
425.094	2603.82
425.302	2585.39
425.51	2632.49
425.718	2726.7
425.925	2902.83
426.133	2911.02
426.341	2988.84
426.548	3234.6
426.756	3132.2
426.964	3318.56
427.171	3408.67
427.379	3490.59
427.586	3476.26
427.794	3679.01
428.001	3885.85
428.209	3992.34
428.417	4008.73
428.624	4205.33
428.832	4356.88
429.039	4297.49
429.247	4174.61
429.454	4670.22
429.662	4866.83
429.869	4573.97
430.076	4907.79
430.284	4784.91
430.491	4975.37
430.699	5239.56
430.906	5282.56
431.114	5384.96
431.321	5511.94
431.528	5733.12
431.736	6044.41
431.943	6339.32
432.15	5985.02
432.358	6085.37
432.565	6566.64
432.772	6484.72
432.979	6906.6
433.187	7121.64
433.394	7056.11
433.601	7539.43
433.808	7430.88
434.016	7279.33
434.223	7865.05
434.43	8217.3
434.637	8250.07
434.844	8678.1
435.052	8798.93
435.259	8522.45
435.466	8729.3
435.673	8786.64
435.88	9341.64
436.087	9712.32
436.294	9663.17
436.501	9579.2
436.708	9622.21
436.915	9896.64
437.122	10429.11
437.329	10324.66
437.537	10756.79
437.743	10955.44
437.95	11066.03
438.157	11446.95
438.364	11692.71
438.571	11686.56
438.778	11971.23
438.985	12972.69
439.192	12333.72
439.399	12757.65
439.606	12661.4
439.813	13331.08
440.02	14027.39
440.227	13976.19
440.433	13679.24
440.64	14230.14
440.847	13904.51
441.054	14236.28
441.261	15358.57
441.467	14981.74
441.674	15475.31
441.881	16052.83
442.088	15942.24
442.294	15665.77
442.501	16216.67
442.708	16722.52
442.914	17214.03
443.121	17850.95
443.328	17472.07
443.534	18770.49
443.741	17945.16
443.948	17893.96
444.154	19409.45
444.361	19143.22
444.568	19122.74
444.774	19198.51
444.981	19366.45
445.187	20054.56
445.394	20744.73
445.6	20605.47
445.807	22440.45
446.013	21660.17
446.22	21844.49
446.426	22745.59
446.633	22833.66
446.839	23914.98
447.046	22835.7
447.252	23839.21
447.459	24195.56
447.665	23990.76
447.871	25287.12
448.078	26251.72
448.284	25049.56
448.491	25684.43
448.697	26864.06
448.903	26835.39
449.11	27226.55
449.316	26644.93
449.522	27367.86
449.728	27990.44
449.935	28301.73
450.141	28238.25
450.347	28772.77
450.553	27507.12
450.76	28027.31
450.966	29432.21
451.172	28891.55
451.378	29651.34
451.584	29223.32
451.791	29571.47
451.997	29858.19
452.203	30216.58
452.409	30077.32
452.615	29723.02
452.821	28860.83
453.027	28301.73
453.233	29708.69
453.44	28838.3
453.646	29159.83
453.852	28926.36
454.058	29401.49
454.264	28678.56
454.47	29360.53
454.676	28666.27
454.882	29610.39
455.088	27191.73
455.294	27470.26
455.5	27978.15
455.705	28101.03
455.911	26728.89
456.117	26485.19
456.323	26171.85
456.529	24646.11
456.735	25905.61
456.941	25366.99
457.147	24523.23
457.352	24164.84
457.558	23546.35
457.764	23489.01
457.97	23486.96
458.176	22628.86
458.381	22897.14
458.587	21641.74
458.793	21568.01
458.999	20726.3
459.204	22254.08
459.41	21316.11
459.616	19567.15
459.821	19894.82
460.027	19730.98
460.233	19352.11
460.438	18649.66
460.644	18731.58
460.85	17695.3
461.055	17676.87
461.261	17615.43
461.466	16265.82
461.672	15467.11
461.878	17177.17
462.083	15669.86
462.289	15307.37
462.494	15372.91
462.7	14672.5
462.905	14248.57
463.111	14652.02
463.316	14721.65
463.522	14281.34
463.727	14543.48
463.932	14512.76
464.138	14291.58
464.343	14400.12
464.549	13890.18
464.754	14326.39
464.959	14180.99
465.165	14187.13
465.37	13529.73
465.575	13124.24
465.781	13593.22
465.986	13843.07
466.191	13464.2
466.397	12950.16
466.602	12468.89
466.807	12714.64
467.012	13075.09
467.218	12716.69
467.423	12651.16
467.628	12835.47
467.833	12972.69
468.038	12763.79
468.244	12274.33
468.449	12638.87
468.654	12544.66
468.859	12167.84
469.064	12366.49
469.269	11772.58
469.474	12044.96
469.679	12135.07
469.885	11780.77
470.09	11883.17
470.295	11979.42
470.5	11385.51
470.705	11752.1
470.91	11360.94
471.115	11219.63
471.32	11627.17
471.525	11440.81
471.73	11168.43
471.935	11012.78
472.139	10627.76
472.344	10609.33
472.549	10824.37
472.754	10549.94
472.959	10287.8
473.164	10252.98
473.369	10052.28
473.574	10379.96
473.778	10304.18
473.983	10005.18
474.188	10056.38
474.393	9444.04
474.598	9538.24
474.802	9538.24
475.007	9554.63
475.212	9650.88
475.417	9255.62
475.621	9114.31
475.826	9396.93
476.031	9052.88
476.235	8856.27
476.44	8993.48
476.645	8975.05
476.849	8889.04
477.054	8682.19
477.259	8567.51
477.463	8680.14
477.668	8383.19
477.872	8534.74
478.077	8182.49
478.282	8186.58
478.486	8043.23
478.691	7903.96
478.895	8010.46
479.1	8067.8
479.304	7977.69
479.509	7815.9
479.713	8008.41
479.918	7584.48
480.122	7613.15
480.326	7750.37
480.531	7578.34
480.735	7635.68
480.94	7500.51
481.144	7746.27
481.348	7369.44
481.553	7568.1
481.757	7338.73
481.961	7394.02
482.166	7580.39
482.37	7471.84
482.574	7312.1
482.778	7410.4
482.983	7529.19
483.187	7285.48
483.391	7389.92
483.595	7330.53
483.8	7361.25
484.004	7355.11
484.208	7404.26
484.412	7451.36
484.616	7414.5
484.821	7416.55
485.025	7305.96
485.229	7553.76
485.433	7238.37
485.637	7289.57
485.841	7269.09
486.045	7412.45
486.249	7293.67
486.453	7195.37
486.657	7398.12
486.861	7455.46
487.065	7295.72
487.269	7348.97
487.473	7305.96
487.677	7588.58
487.881	7414.5
488.085	7279.33
488.289	7582.43
488.493	7260.9
488.697	7441.12
488.901	7477.99
489.105	7449.32
489.309	7502.56
489.512	7369.44
489.716	7445.22
489.92	7375.59
490.124	7305.96
490.328	7639.78
490.531	7381.73
490.735	7531.23
490.939	7551.71
491.143	7549.67
491.346	7486.18
491.55	7690.98
491.754	7502.56
491.958	7682.78
492.161	7805.66
492.365	7650.02
492.569	7781.09
492.772	7697.12
492.976	7957.21
493.18	7885.53
493.383	7963.36
493.587	8061.66
493.79	8030.94
493.994	7920.35
494.197	8133.34
494.401	8385.24
494.605	7998.17
494.808	8430.29
495.012	8350.42
495.215	8446.68
495.419	8487.64
495.622	8446.68
495.825	8553.17
496.029	8487.64
496.232	8862.41
496.436	8653.52
496.639	8970.96
496.843	8921.81
497.046	9140.94
497.249	9069.26
497.453	9155.27
497.656	9321.16
497.859	9233.1
498.063	9134.79
498.266	9577.16
498.469	9644.74
498.673	9601.73
498.876	9796.29
499.079	9878.21
499.282	9937.6
499.485	10226.36
499.689	10076.86
499.892	10259.13
500.095	10343.1
500.298	10609.33
500.501	10511.03
500.705	10693.3
500.908	10977.97
501.111	10873.52
501.314	11203.24
501.517	11096.75
501.72	11424.42
501.923	11088.56
502.126	11862.69
502.329	11678.37
502.532	11899.55
502.735	11612.84
502.938	12155.55
503.141	12133.02
503.344	12190.36
503.547	12331.67
503.75	12208.8
503.953	12595.86
504.156	13056.65
504.359	12765.84
504.562	13161.1
504.765	13435.53
504.968	13365.9
505.17	13523.59
505.373	13396.62
505.576	13759.11
505.779	13908.61
505.982	13937.28
506.185	14287.48
506.387	14219.9
506.59	14072.45
506.793	14623.35
506.996	14475.9
507.198	15065.71
507.401	15084.14
507.604	15250.03
507.807	15553.13
508.009	15712.87
508.212	15522.41
508.415	15886.95
508.617	16024.16
508.82	16069.22
509.022	16065.12
509.225	16339.55
509.428	16503.39
509.63	16699.99
509.833	16673.37
510.035	17205.84
510.238	16939.6
510.44	17087.06
510.643	17517.13
510.845	17627.72
511.048	17494.6
511.25	17838.66
511.453	17924.68
511.655	18336.32
511.858	18264.64
512.06	18369.09
512.262	18637.37
512.465	18741.82
512.667	18881.08
512.87	19218.99
513.072	19057.2
513.274	19573.29
513.477	19970.6
513.679	19497.52
513.881	20220.45
514.084	20210.21
514.286	20083.23
514.488	20306.46
514.69	20863.51
514.893	20767.26
515.095	20769.3
515.297	21264.91
515.499	20949.53
515.701	21215.76
515.904	21684.75
516.106	21889.54
516.308	22057.48
516.51	22149.64
516.712	22131.2
516.914	22585.85
517.116	22532.61
517.318	22688.25
517.52	22727.16
517.722	22868.47
517.925	23101.94
518.127	23718.38
518.329	23349.75
518.531	23646.7
518.733	24228.32
518.935	24113.64
519.136	24146.4
519.338	24216.04
519.54	24451.55
519.742	24601.05
519.944	24973.78
520.146	25440.72
520.348	24969.69
520.55	25309.65
520.752	25338.32
520.954	25455.06
521.155	25545.17
521.357	25948.62
521.559	26137.03
521.761	26677.69
521.963	26190.28
522.164	26593.73
522.366	26311.11
522.568	26950.07
522.77	27031.99
522.971	27673.01
523.173	26941.88
523.375	27320.76
523.576	27281.85
523.778	27349.43
523.98	27369.91
524.181	27855.28
524.383	27855.28
524.584	27941.29
524.786	28041.64
524.988	28162.47
525.189	28385.7
525.391	28287.4
525.592	28522.91
525.794	28500.39
525.995	28823.97
526.197	28834.21
526.398	28471.71
526.6	29094.3
526.801	29139.35
527.003	29297.05
527.204	28709.28
527.406	28971.42
527.607	29366.68
527.808	29708.69
528.01	28723.62
528.211	29313.43
528.412	29792.65
528.614	29860.24
528.815	29723.02
529.016	29876.62
529.218	29690.26
529.419	29518.23
529.62	29491.6
529.822	30042.51
530.023	29845.9
530.224	29852.05
530.425	29809.04
530.626	29540.75
530.828	29600.15
531.029	30351.75
531.23	29763.98
531.431	29563.28
531.632	30095.75
531.833	29931.92
532.035	30126.47
532.236	29899.15
532.437	30263.69
532.638	29915.53
532.839	30331.27
533.04	30323.08
533.241	29792.65
533.442	30560.64
533.643	29923.72
533.844	29923.72
534.045	30071.18
534.246	29940.11
534.447	30296.46
534.648	30034.32
534.849	30081.42
535.05	30114.19
535.251	30417.29
535.451	29909.39
535.652	30087.56
535.853	30103.95
536.054	30429.57
536.255	29931.92
536.456	29786.51
536.657	30339.46
536.857	29759.89
537.058	29655.44
537.259	30099.85
537.46	29993.36
537.66	30026.12
537.861	30212.49
538.062	30073.23
538.263	30155.15
538.463	29956.49
538.664	30130.57
538.865	30171.53
539.065	30224.78
539.266	29626.77
539.466	30159.24
539.667	29626.77
539.868	30402.95
540.068	29806.99
540.269	30058.89
540.469	29944.2
540.67	30054.79
540.87	30032.27
541.071	29325.72
541.271	30230.92
541.472	30075.27
541.672	29850
541.873	29804.94
542.073	29381.01
542.274	29929.87
542.474	29608.34
542.675	29946.25
542.875	30101.9
543.075	30089.61
543.276	29272.47
543.476	29888.91
543.676	29665.68
543.877	29860.24
544.077	29811.09
544.277	29829.52
544.478	29747.6
544.678	29782.41
544.878	29645.2
545.078	29477.27
545.279	29854.09
545.479	29327.77
545.679	29815.18
545.879	29428.12
546.079	30017.93
546.28	29569.43
546.48	29170.07
546.68	29866.38
546.88	29761.94
547.08	29809.04
547.28	29528.47
547.48	29305.24
547.68	29409.68
547.88	29297.05
548.081	29698.45
548.281	29333.91
548.481	29649.3
548.681	29729.17
548.881	29467.03
549.081	29534.61
549.28	29338.01
549.48	29548.95
549.68	29180.31
549.88	29917.58
550.08	29088.15
550.28	29579.67
550.48	29254.04
550.68	29591.95
550.88	29200.79
551.08	29442.45
551.279	29622.67
551.479	29383.06
551.679	29335.96
551.879	29325.72
552.079	29548.95
552.278	29438.36
552.478	29538.71
552.678	29290.9
552.878	29084.06
553.077	29303.19
553.277	29112.73
553.477	29536.66
553.676	29374.87
553.876	29245.85
554.076	29223.32
554.275	28995.99
554.475	28615.07
554.674	28930.46
554.874	29055.39
555.074	28967.32
555.273	29084.06
555.473	29153.69
555.672	29151.64
555.872	28907.93
556.071	29137.3
556.271	29321.62
556.47	28746.14
556.67	28823.97
556.869	29139.35
557.068	29012.38
557.268	28420.52
557.467	28805.53
557.667	29086.11
557.866	28709.28
558.065	28905.88
558.265	28613.02
558.464	28572.07
558.663	29075.87
558.863	28279.21
559.062	29184.41
559.261	28805.53
559.461	29290.9
559.66	28535.2
559.859	28856.73
560.058	28373.41
560.258	28432.8
560.457	28432.8
560.656	28703.14
560.855	28955.04
561.054	28449.19
561.253	28617.12
561.453	28797.34
561.652	28610.98
561.851	28721.57
562.05	28537.25
562.249	28170.66
562.448	28887.45
562.647	28332.45
562.846	28359.08
563.045	28256.68
563.244	28217.77
563.443	28731.81
563.642	28023.21
563.841	28406.18
564.04	28279.21
564.239	28610.98
564.438	27929
564.637	28289.45
564.836	28289.45
565.035	27986.35
565.234	28207.53
565.432	27976.11
565.631	27926.96
565.83	28230.05
566.029	28008.87
566.228	27947.43
566.427	28232.1
566.625	27838.89
566.824	27775.41
567.023	27820.46
567.222	27576.75
567.42	27978.15
567.619	28070.31
567.818	27804.08
568.016	27724.21
568.215	28166.57
568.414	28092.84
568.612	28187.05
568.811	27675.06
569.01	27912.62
569.208	27349.43
569.407	27554.22
569.605	27453.87
569.804	27857.32
570.002	27879.85
570.201	27572.66
570.4	27675.06
570.598	27417.01
570.797	27351.48
570.995	27546.03
571.193	27185.59
571.392	27630
571.59	27089.34
571.789	27562.42
571.987	27216.31
572.186	27093.43
572.384	27070.9
572.582	27294.13
572.781	27177.4
572.979	26843.58
573.177	27107.77
573.376	27021.75
573.574	26640.83
573.772	27226.55
573.971	26841.53
574.169	26651.07
574.367	26393.03
574.565	26689.98
574.763	26866.11
574.962	26968.51
575.16	26390.98
575.358	26790.33
575.556	26329.54
575.754	26550.72
575.952	26337.73
576.151	26585.54
576.349	26423.75
576.547	26397.12
576.745	26405.31
576.943	26517.95
577.141	26331.59
577.339	26347.97
577.537	26337.73
577.735	26204.61
577.933	26085.83
578.131	26149.32
578.329	26104.26
578.527	25971.15
578.725	26200.52
578.923	25897.42
579.121	25948.62
579.319	26008.01
579.516	25960.91
579.714	26108.36
579.912	25539.02
580.11	25702.86
580.308	25668.05
580.506	25526.74
580.704	25326.03
580.901	25487.82
581.099	25731.53
581.297	25309.65
581.495	25315.8
581.692	25559.5
581.89	24969.69
582.088	25233.88
582.285	25186.77
582.483	25305.56
582.681	25067.99
582.878	25164.25
583.076	25002.46
583.274	25006.55
583.471	24904.15
583.669	24705.5
583.866	24732.12
584.064	25049.56
584.262	24519.14
584.459	24838.62
584.657	24928.73
584.854	24799.71
585.052	24312.29
585.249	24668.64
585.447	24570.33
585.644	24248.8
585.841	24455.65
586.039	24658.4
586.236	24087.01
586.434	24082.92
586.631	24170.98
586.828	24443.36
587.026	24357.35
587.223	24302.05
587.42	24037.86
587.618	24064.49
587.815	23751.15
588.012	23644.65
588.21	23656.94
588.407	23888.36
588.604	23622.12
588.801	23437.81
588.999	23742.96
589.196	23517.68
589.393	23523.82
589.59	23292.4
589.787	23003.64
589.984	23333.36
590.182	23220.72
590.379	23355.89
590.576	23196.15
590.773	23153.14
590.97	23030.26
591.167	23173.62
591.364	22909.43
591.561	22866.42
591.758	22929.91
591.955	22850.04
592.152	22938.1
592.349	22950.39
592.546	22860.28
592.743	22712.83
592.94	22383.1
593.137	22342.14
593.334	22612.48
593.531	22620.67
593.727	22348.29
593.924	22329.86
594.121	22274.56
594.318	22548.99
594.515	22100.48
594.712	22417.92
594.908	22327.81
595.105	22344.19
595.302	21776.91
595.499	22344.19
595.696	21776.91
595.892	21729.8
596.089	22215.17
596.286	21852.68
596.482	21551.63
596.679	21864.97
596.876	21840.39
597.072	21817.86
597.269	21676.55
597.466	21350.93
597.662	21301.78
597.859	21641.74
598.055	21641.74
598.252	21586.44
598.448	21174.8
598.645	21185.04
598.841	21283.34
599.038	21393.93
599.234	20939.29
599.431	20580.89
599.627	21053.97
599.824	21189.14
600.02	20953.62
600.217	21088.79
600.413	20896.28
600.609	20711.96
600.806	20888.09
601.002	20902.42
601.198	20423.2
601.395	20734.49
601.591	20521.5
601.787	20546.08
601.984	20533.79
602.18	20410.91
602.376	20550.17
602.572	20345.37
602.769	20417.05
602.965	20073
603.161	20113.95
603.357	20324.9
603.553	20163.11
603.75	19976.74
603.946	19946.02
604.142	20173.35
604.338	20052.52
604.534	20265.5
604.73	19909.16
604.926	19907.11
605.122	20349.47
605.318	19849.77
605.514	19794.47
605.71	19579.43
605.906	19751.46
606.102	19606.06
606.298	19927.59
606.494	19485.23
606.69	19483.18
606.886	19896.87
607.082	19245.62
607.278	19753.51
607.474	19319.34
607.67	19505.71
607.866	19429.93
608.062	19401.26
608.257	19259.95
608.453	19384.88
608.649	19503.66
608.845	19167.79
609.041	19272.24
609.236	19327.53
609.432	19356.21
609.628	19130.93
609.824	19292.72
610.019	19038.77
610.215	19114.55
610.411	19356.21
610.606	18852.41
610.802	19028.53
610.998	19128.88
611.193	19055.15
611.389	18717.24
611.584	19051.06
611.78	19024.44
611.976	18764.34
612.171	19364.4
612.367	19116.59
612.562	18981.43
612.758	18692.66
612.953	18590.27
613.149	19075.63
613.344	18520.63
613.539	18688.57
613.735	18696.76
613.93	18893.37
614.126	18635.32
614.321	18889.27
614.517	18891.32
614.712	18547.26
614.907	18506.3
615.103	18809.4
615.298	18260.54
615.493	18645.56
615.688	18444.86
615.884	18979.38
616.079	18272.83
616.274	18668.09
616.47	18393.66
616.665	18582.07
616.86	18096.71
617.055	18328.13
617.25	18250.3
617.445	18367.04
617.641	18199.1
617.836	18039.36
618.031	17934.92
618.226	18160.19
618.421	18233.92
618.616	18281.02
618.811	17693.26
619.006	18012.74
619.201	17809.99
619.396	18012.74
619.591	17533.51
619.786	17885.76
619.981	17814.09
620.176	17515.08
620.371	17449.55
620.566	17527.37
620.761	17328.72
620.956	17597
621.151	17265.23
621.346	17386.06
621.541	17130.06
621.735	17248.85
621.93	16800.34
622.125	16831.06
622.32	16761.43
622.515	16998.99
622.709	16763.48
622.904	16808.53
623.099	16802.39
623.294	16568.92
623.488	16263.77
623.683	16644.7
623.878	15999.59
624.072	16468.57
624.267	16257.63
624.462	16355.93
624.656	15815.27
624.851	16147.04
625.046	15821.41
625.24	15682.15
625.435	15948.39
625.629	15669.86
625.824	15651.43
626.018	15600.23
626.213	15008.37
626.407	15546.98
626.602	15213.17
626.796	15225.45
626.991	15114.86
627.185	15196.78
627.38	14973.55
627.574	14899.83
627.768	14946.93
627.963	14721.65
628.157	14627.45
628.352	14795.38
628.546	14176.89
628.74	14750.32
628.935	14512.76
629.129	14477.94
629.323	14015.1
629.517	14189.18
629.712	14058.11
629.906	14226.04
630.1	13943.42
630.294	14133.89
630.489	13992.58
630.683	13800.07
630.877	13789.83
631.071	13695.62
631.265	13603.46
631.459	13675.14
631.653	13341.32
631.848	13437.58
632.042	13482.63
632.236	13314.7
632.43	13413
632.624	13380.23
632.818	13218.44
633.012	13226.64
633.206	13044.37
633.4	13015.69
633.594	13011.6
633.788	12929.68
633.982	12956.3
634.176	12819.09
634.369	12667.54
634.563	12642.96
634.757	12642.96
634.951	12491.41
635.145	12479.13
635.339	12581.53
635.533	12210.84
635.726	12319.39
635.92	12216.99
636.114	12245.66
636.308	12257.95
636.501	12090.01
636.695	11977.37
636.889	11844.26
637.083	11905.7
637.276	11688.61
637.47	11713.19
637.664	11688.61
637.857	11731.62
638.051	11766.43
638.244	11442.85
638.438	11494.05
638.632	11571.88
638.825	11389.61
639.019	11311.78
639.212	11291.31
639.406	11164.33
639.599	11152.04
639.793	11170.47
639.986	10787.5
640.18	11049.64
640.373	10904.24
640.567	10869.42
640.76	10914.48
640.954	10758.83
641.147	10709.68
641.34	10554.04
641.534	10480.31
641.727	10664.63
641.92	10726.07
642.114	10476.21
642.307	10332.86
642.5	10445.49
642.694	10005.18
642.887	10087.1
643.08	10246.84
643.273	10384.05
643.467	10078.91
643.66	10013.37
643.853	9718.47
644.046	9784
644.239	9913.02
644.432	9683.65
644.626	9659.07
644.819	9847.49
645.012	9771.71
645.205	9818.82
645.398	9485
645.591	9405.13
645.784	9482.95
645.977	9280.2
646.17	9347.78
646.363	9255.62
646.556	9097.93
646.749	9128.65
646.942	9061.07
647.135	9140.94
647.328	9089.74
647.521	8962.76
647.714	8805.07
647.907	8807.12
648.099	8843.98
648.292	8962.76
648.485	8741.58
648.678	8841.93
648.871	8737.49
649.064	8516.31
649.256	8620.75
649.449	8528.6
649.642	8424.15
649.835	8397.53
650.027	8276.7
650.22	8153.82
650.413	8239.83
650.605	8164.06
650.798	8262.36
650.991	8340.18
651.183	8176.34
651.376	7977.69
651.568	8129.24
651.761	8030.94
651.954	7877.34
652.146	7748.32
652.339	7830.24
652.531	7828.19
652.724	7799.52
652.916	7627.49
653.109	7545.57
653.301	7770.85
653.494	7658.21
653.686	7453.41
653.879	7609.06
654.071	7725.79
654.263	7340.77
654.456	7338.73
654.648	7492.32
654.84	7250.66
655.033	7219.94
655.225	7367.4
655.417	7199.46
655.61	7228.14
655.802	7248.61
655.994	7244.52
656.186	6951.66
656.379	7203.56
656.571	6980.33
656.763	6908.65
656.955	6916.84
657.148	6888.17
657.34	6955.76
657.532	6892.27
657.724	6734.57
657.916	6722.29
658.108	6843.12
658.3	6712.05
658.492	6671.09
658.684	6615.79
658.876	6652.66
659.068	6578.93
659.26	6445.81
659.452	6486.77
659.644	6521.59
659.836	6294.26
660.028	6384.37
660.22	6179.58
660.412	6161.14
660.604	6191.86
660.796	6163.19
660.988	6470.39
661.18	6044.41
661.372	6058.74
661.563	6140.66
661.755	5892.86
661.947	6015.74
662.139	5933.82
662.331	5845.76
662.522	5935.87
662.714	5878.52
662.906	5708.54
663.097	5831.42
663.289	5702.4
663.481	5784.32
663.673	5751.55
663.864	5563.14
664.056	5585.66
664.247	5677.82
664.439	5688.06
664.631	5552.9
664.822	5575.42
665.014	5421.83
665.205	5403.39
665.397	5380.87
665.588	5593.86
665.78	5262.09
665.971	5567.23
666.163	5477.12
666.354	5292.8
666.546	5335.81
666.737	5151.49
666.929	5266.18
667.12	5247.75
667.311	5274.37
667.503	5155.59
667.694	5159.69
667.885	5153.54
668.077	5186.31
668.268	5069.58
668.459	5116.68
668.651	5190.41
668.842	5063.43
669.033	4965.13
669.224	5079.82
669.416	4854.54
669.607	4997.9
669.798	4879.11
669.989	4911.88
670.18	4901.64
670.371	5063.43
670.563	4713.23
670.754	4944.65
670.945	4754.19
671.136	4756.24
671.327	4805.39
671.518	4637.45
671.709	4979.47
671.9	4848.4
672.091	4860.68
672.282	4670.22
672.473	4905.74
672.664	4686.61
672.855	4791.05
673.046	4768.52
673.237	4698.89
673.428	4643.6
673.619	4702.99
673.809	4549.39
674	4555.54
674.191	4647.69
674.382	4582.16
674.573	4627.21
674.764	4551.44
674.954	4594.45
675.145	4496.14
675.336	4438.8
675.527	4547.34
675.717	4666.13
675.908	4270.87
676.099	4416.27
676.289	4490
676.48	4498.19
676.671	4381.46
676.861	4442.9
677.052	4467.47
677.243	4315.92
677.433	4371.22
677.624	4467.47
677.814	4418.32
678.005	4451.09
678.195	4371.22
678.386	4383.51
678.576	4360.98
678.767	4334.36
678.957	4389.65
679.148	4535.06
679.338	4467.47
679.529	4393.75
679.719	4324.12
679.909	4309.78
680.1	4199.19
680.29	4406.03
680.481	4205.33
680.671	4227.86
680.861	4156.18
681.052	4383.51
681.242	4172.57
681.432	4260.63
681.622	4223.76
681.813	4193.05
682.003	4182.81
682.193	4250.39
682.383	4297.49
682.573	4066.07
682.764	4231.96
682.954	4203.29
683.144	4215.57
683.334	4209.43
683.524	4371.22
683.714	4246.29
683.904	4129.56
684.094	4283.16
684.284	4240.15
684.474	4244.24
684.664	4285.2
684.854	4283.16
685.044	4049.69
685.234	4234
685.424	4182.81
685.614	4182.81
685.804	4246.29
685.994	4066.07
686.184	4152.09
686.374	4166.42
686.564	4125.46
686.753	4086.55
686.943	3889.95
687.133	3978.01
687.323	4027.16
687.513	4074.26
687.702	4051.74
687.892	3935
688.082	4090.65
688.272	3963.67
688.461	3949.34
688.651	3859.23
688.841	3830.55
689.03	3887.9
689.22	3861.27
689.41	3961.62
689.599	3840.79
689.789	3902.23
689.979	3935
690.168	3980.06
690.358	3828.51
690.547	3955.48
690.737	3705.63
690.926	3853.08
691.116	3646.24
691.305	4008.73
691.495	3791.64
691.684	3736.35
691.874	3730.2
692.063	3873.56
692.252	3732.25
692.442	3789.6
692.631	3681.05
692.82	3851.03
693.01	3734.3
693.199	3617.57
693.388	3629.85
693.578	3611.42
693.767	3621.66
693.956	3672.86
694.146	3552.03
694.335	3605.28
694.524	3660.57
694.713	3607.33
694.902	3646.24
695.092	3623.71
695.281	3556.13
695.47	3605.28
695.659	3429.15
695.848	3541.79
696.037	3572.51
696.226	3633.95
696.415	3578.65
696.604	3771.16
696.793	3664.67
696.982	3668.77
697.171	3701.53
697.36	3633.95
697.549	3533.6
697.738	3617.57
697.927	3549.98
698.116	3547.94
698.305	3617.57
698.494	3513.12
698.683	3625.76
698.872	3662.62
699.061	3656.48
699.25	3679.01
699.438	3625.76
699.627	3752.73
699.816	3773.21
700.005	3531.55
700.193	3640.09
700.382	3693.34
700.571	3652.38
700.76	3638.05
700.948	3650.33
701.137	3629.85
701.326	3601.18
701.514	3549.98
701.703	3818.27
701.892	3756.83
702.08	3736.35
702.269	3605.28
702.457	3740.44
702.646	3715.87
702.834	3748.64
703.023	3693.34
703.212	3762.97
703.4	3648.29
703.589	3562.27
703.777	3740.44
703.965	3580.7
704.154	3767.07
704.342	3611.42
704.531	3570.46
704.719	3750.68
704.907	3748.64
705.096	3617.57
705.284	3842.84
705.472	3732.25
705.661	3689.25
705.849	3687.2
706.037	3760.92
706.226	3728.16
706.414	3853.08
706.602	3627.81
706.79	3756.83
706.979	3722.01
707.167	3752.73
707.355	3685.15
707.543	3631.9
707.731	3613.47
707.919	3736.35
708.107	3672.86
708.296	3633.95
708.484	3658.53
708.672	3762.97
708.86	3791.64
709.048	3681.05
709.236	3728.16
709.424	3765.02
709.612	3961.62
709.8	3724.06
709.988	3664.67
710.176	3803.93
710.364	3713.82
710.551	3744.54
710.739	3705.63
710.927	3730.2
711.115	3605.28
711.303	3670.81
711.491	3619.61
711.679	3781.4
711.866	3918.62
712.054	3859.23
712.242	3853.08
712.43	3824.41
712.617	3734.3
712.805	3805.98
712.993	3805.98
713.181	3605.28
713.368	3746.59
713.556	3928.86
713.744	3762.97
713.931	3881.75
714.119	3824.41
714.306	3689.25
714.494	3746.59
714.682	3672.86
714.869	3795.74
715.057	3679.01
715.244	3732.25
715.432	3773.21
715.619	3803.93
715.807	3848.99
715.994	3834.65
716.182	3865.37
716.369	3762.97
716.556	3994.39
716.744	3689.25
716.931	3687.2
717.119	3730.2
717.306	3752.73
717.493	3818.27
717.681	3703.58
717.868	3803.93
718.055	3726.11
718.242	3746.59
718.43	3711.77
718.617	3689.25
718.804	3742.49
718.991	3783.45
719.179	3693.34
719.366	3689.25
719.553	3785.5
719.74	3748.64
719.927	3773.21
720.114	3816.22
720.301	3793.69
720.488	3683.1
720.676	3670.81
720.863	3900.19
721.05	3818.27
721.237	3883.8
721.424	3797.79
721.611	3820.32
721.798	3744.54
721.985	3846.94
722.172	3717.92
722.358	3736.35
722.545	3756.83
722.732	3670.81
722.919	3896.09
723.106	3769.12
723.293	3793.69
723.48	3844.89
723.667	3636
723.853	3877.66
724.04	3740.44
724.227	3728.16
724.414	3691.29
724.6	3830.55
724.787	3754.78
724.974	3795.74
725.161	3638.05
725.347	3674.91
725.534	3715.87
725.72	3625.76
725.907	3693.34
726.094	3732.25
726.28	3722.01
726.467	3576.61
726.653	3592.99
726.84	3728.16
727.027	3777.31
727.213	3701.53
727.4	3670.81
727.586	3676.96
727.773	3636
727.959	3691.29
728.145	3713.82
728.332	3691.29
728.518	3570.46
728.705	3781.4
728.891	3674.91
729.077	3642.14
729.264	3719.96
729.45	3771.16
729.636	3636
729.823	3531.55
730.009	3777.31
730.195	3668.77
730.382	3578.65
730.568	3576.61
730.754	3644.19
730.94	3656.48
731.126	3709.72
731.313	3615.52
731.499	3574.56
731.685	3480.35
731.871	3560.22
732.057	3633.95
732.243	3535.65
732.429	3570.46
732.615	3685.15
732.801	3658.53
732.987	3603.23
733.173	3562.27
733.359	3535.65
733.545	3601.18
733.731	3576.61
733.917	3623.71
734.103	3500.83
734.289	3668.77
734.475	3470.11
734.661	3613.47
734.847	3539.74
735.033	3463.97
735.219	3605.28
735.404	3515.17
735.59	3414.82
735.776	3492.64
735.962	3496.74
736.148	3588.89
736.333	3521.31
736.519	3281.7
736.705	3511.07
736.89	3562.27
737.076	3597.09
737.262	3341.09
737.447	3433.25
737.633	3412.77
737.819	3437.34
738.004	3406.63
738.19	3373.86
738.375	3234.6
738.561	3375.91
738.747	3402.53
738.932	3293.99
739.118	3525.41
739.303	3412.77
739.489	3408.67
739.674	3214.12
739.859	3273.51
740.045	3257.12
740.23	3402.53
740.416	3146.53
740.601	3185.44
740.786	3265.32
740.972	3076.9
741.157	3189.54
741.342	3195.68
741.528	3126.05
741.713	3210.02
741.898	3109.67
742.084	3111.72
742.269	3019.56
742.454	3062.57
742.639	3115.81
742.824	3085.09
743.01	3150.63
743.195	3142.44
743.38	2986.79
743.565	2931.5
743.75	2976.55
743.935	2999.08
744.12	3042.09
744.305	2939.69
744.49	2990.89
744.675	3062.57
744.86	2880.3
745.045	2931.5
745.23	3005.22
745.415	2849.58
745.6	3007.27
745.785	2947.88
745.97	2794.28
746.155	2788.14
746.34	2796.33
746.525	2802.47
746.71	2827.05
746.895	2671.4
747.079	2773.8
747.264	2849.58
747.449	2734.89
747.634	2767.66
747.819	2683.69
748.003	2601.77
748.188	2630.45
748.373	2718.51
748.557	2523.95
748.742	2571.05
748.927	2560.81
749.111	2530.09
749.296	2482.99
749.481	2575.15
749.665	2511.66
749.85	2493.23
750.034	2491.18
750.219	2442.03
750.404	2493.23
750.588	2485.04
750.773	2296.63
750.957	2429.74
751.141	2390.83
751.326	2480.94
751.51	2392.88
751.695	2227
751.879	2196.28
752.064	2394.93
752.248	2276.15
752.432	2419.5
752.617	2429.74
752.801	2227
752.985	2222.9
753.17	2298.67
753.354	2310.96
753.538	2169.65
753.722	2138.93
753.907	2186.04
754.091	2181.94
754.275	2181.94
754.459	2052.92
754.643	1948.47
754.828	2116.41
755.012	2175.8
755.196	2091.83
755.38	2073.4
755.564	2130.74
755.748	2003.77
755.932	2095.93
756.116	2061.11
756.3	1975.1
756.484	1936.18
756.668	1989.43
756.852	2022.2
757.036	1764.15
757.22	1788.73
757.404	1882.94
757.588	1891.13
757.772	1839.93
757.956	1813.31
758.14	1760.06
758.323	1741.63
758.507	1801.02
758.691	1807.16
758.875	1762.11
759.059	1878.84
759.242	1674.04
759.426	1790.78
759.61	1925.94
759.794	1669.95
759.977	1747.77
760.161	1856.31
760.345	1602.36
760.528	1745.72
760.712	1676.09
760.895	1768.25
761.079	1719.1
761.263	1680.19
761.446	1524.54
761.63	1618.75
761.813	1694.52
761.997	1612.6
762.18	1633.08
762.364	1690.43
762.547	1510.21
762.731	1581.89
762.914	1590.08
763.098	1545.02
763.281	1559.36
763.464	1551.17
763.648	1596.22
763.831	1557.31
764.015	1499.97
764.198	1465.15
764.381	1557.31
764.564	1585.98
764.748	1497.92
764.931	1454.91
765.114	1420.1
765.297	1542.97
765.481	1344.32
765.664	1463.1
765.847	1481.53
766.03	1465.15
766.213	1354.56
766.397	1340.22
766.58	1432.38
766.763	1346.37
766.946	1430.34
767.129	1448.77
767.312	1309.51
767.495	1387.33
767.678	1383.23
767.861	1438.53
768.044	1411.9
768.227	1459.01
768.41	1442.62
768.593	1301.31
768.776	1346.37
768.959	1375.04
769.142	1463.1
769.324	1348.42
769.507	1424.19
769.69	1274.69
769.873	1311.55
770.056	1459.01
770.239	1327.94
770.421	1323.84
770.604	1344.32
770.787	1190.72
770.97	1329.99
771.152	1231.68
771.335	1344.32
771.518	1246.02
771.7	1360.7
771.883	1315.65
772.066	1223.49
772.248	1276.74
772.431	1254.21
772.613	1311.55
772.796	1205.06
772.978	1250.11
773.161	1250.11
773.343	1254.21
773.526	1180.48
773.708	1188.68
773.891	1198.92
774.073	1114.95
774.256	1094.47
774.438	1188.68
774.621	1102.66
774.803	1241.92
774.985	1209.15
775.168	1053.51
775.35	1153.86
775.532	1055.56
775.715	1123.14
775.897	1076.04
776.079	996.17
776.261	1045.32
776.444	1067.85
776.626	1061.7
776.808	1039.17
776.99	1049.41
777.173	1045.32
777.355	994.12
777.537	1053.51
777.719	1071.94
777.901	971.59
778.083	1092.42
778.265	992.07
778.447	979.78
778.629	934.73
778.811	996.17
778.993	940.87
779.175	1008.45
779.357	949.06
779.539	938.82
779.721	815.94
779.903	877.38
780.085	932.68
780.267	805.71
780.449	930.63
780.631	930.63
780.812	926.54
780.994	865.1
781.176	815.94
781.358	863.05
781.54	766.79
781.721	906.06
781.903	897.86
782.085	895.82
782.267	815.94
782.448	795.47
782.63	772.94
782.812	826.18
782.993	783.18
783.175	885.58
783.357	803.66
783.538	787.27
783.72	744.27
783.901	834.38
784.083	742.22
784.264	750.41
784.446	750.41
784.627	639.82
784.809	701.26
784.99	568.14
785.172	770.89
785.353	680.78
785.535	721.74
785.716	619.34
785.897	668.49
786.079	686.92
786.26	676.68
786.441	668.49
786.623	586.57
786.804	670.54
786.985	631.63
787.167	676.68
787.348	607.05
787.529	611.15
787.71	688.97
787.891	670.54
788.073	576.33
788.254	576.33
788.435	693.07
788.616	592.72
788.797	512.85
788.978	596.81
789.159	600.91
789.34	592.72
789.522	570.19
789.703	570.19
789.884	586.57
790.065	611.15
790.246	678.73
790.427	518.99
790.607	574.28
790.788	574.28
790.969	523.09
791.15	527.18
791.331	449.36
791.512	482.13
791.693	447.31
791.874	469.84
792.054	578.38
792.235	545.61
792.416	498.51
792.597	461.65
792.778	465.74
792.958	510.8
793.139	478.03
793.32	457.55
793.5	461.65
793.681	588.62
793.862	475.98
794.042	535.37
794.223	461.65
794.404	355.15
794.584	453.45
794.765	447.31
794.945	510.8
795.126	437.07
795.306	488.27
795.487	453.45
795.667	555.85
795.848	475.98
796.028	430.93
796.209	426.83
796.389	457.55
796.57	389.97
796.75	381.78
796.93	426.83
797.111	369.49
797.291	455.5
797.471	482.13
797.652	453.45
797.832	324.43
798.012	453.45
798.192	463.69
798.373	402.26
798.553	396.11
798.733	340.82
798.913	297.81
799.093	346.96
799.274	410.45
799.454	387.92
799.634	422.73
799.814	353.1
799.994	467.79
800.174	441.17
800.354	357.2
800.534	351.06
800.714	406.35
800.894	260.95
801.074	324.43
801.254	281.43
801.434	394.06
801.614	330.58
801.794	320.34
801.974	1356.61
802.154	340.82
802.334	379.73
802.514	306
802.693	244.56
802.873	273.23
803.053	349.01
803.233	340.82
803.413	293.71
803.592	281.43
803.772	213.84
803.952	217.94
804.131	160.59
804.311	363.34
804.491	308.05
804.67	228.18
804.85	250.71
805.03	306
805.209	328.53
805.389	306
805.568	279.38
805.748	273.23
805.928	246.61
806.107	379.73
806.287	285.52
806.466	385.87
806.646	244.56
806.825	228.18
807.004	295.76
807.184	248.66
807.363	228.18
807.543	308.05
807.722	217.94
807.901	258.9
808.081	232.27
808.26	119.64
808.439	224.08
808.619	197.46
808.798	226.13
808.977	326.48
809.156	297.81
809.336	346.96
809.515	185.17
809.694	179.03
809.873	193.36
810.052	181.07
810.231	322.38
810.411	222.03
810.59	219.99
810.769	248.66
810.948	250.71
811.127	158.55
811.306	213.84
811.485	197.46
811.664	308.05
811.843	279.38
812.022	271.19
812.201	322.38
812.38	258.9
812.559	181.07
812.737	250.71
812.916	176.98
813.095	201.55
813.274	191.31
813.453	211.79
813.632	256.85
813.811	187.22
813.989	131.92
814.168	164.69
814.347	148.31
814.526	172.88
814.704	238.42
814.883	189.27
815.062	148.31
815.24	258.9
815.419	211.79
815.598	230.23
815.776	117.59
815.955	193.36
816.133	170.83
816.312	201.55
816.49	82.77
816.669	250.71
816.847	179.03
817.026	201.55
817.204	111.44
817.383	162.64
817.561	146.26
817.74	193.36
817.918	113.49
818.097	207.7
818.275	90.96
818.453	189.27
818.632	185.17
818.81	183.12
818.988	168.79
819.167	164.69
819.345	238.42
819.523	224.08
819.701	179.03
819.879	179.03
820.058	121.68
820.236	201.55
820.414	113.49
820.592	187.22
820.77	146.26
820.948	152.4
821.127	109.4
821.305	189.27
821.483	129.88
821.661	156.5
821.839	164.69
822.017	68.44
822.195	156.5
822.373	103.25
822.551	125.78
822.729	148.31
822.907	160.59
823.085	168.79
823.262	152.4
823.44	97.11
823.618	68.44
823.796	115.54
823.974	129.88
824.152	109.4
824.329	129.88
824.507	168.79
824.685	170.83
824.863	95.06
825.04	117.59
825.218	172.88
825.396	156.5
825.574	136.02
825.751	185.17
825.929	170.83
826.107	107.35
826.284	142.16
826.462	129.88
826.639	72.53
826.817	35.67
826.994	166.74
827.172	82.77
827.349	183.12
827.527	152.4
827.704	125.78
827.882	142.16
828.059	41.81
828.237	84.82
828.414	146.26
828.591	54.1
828.769	150.36
828.946	41.81
829.124	146.26
829.301	179.03
829.478	172.88
829.655	174.93
829.833	47.96
830.01	78.68
830.187	103.25
830.364	107.35
830.542	29.52
830.719	193.36
830.896	101.2
831.073	103.25
831.25	125.78
831.427	93.01
831.604	72.53
831.782	111.44
831.959	144.21
832.136	68.44
832.313	80.72
832.49	45.91
832.667	136.02
832.844	107.35
833.021	127.83
833.198	199.51
833.374	101.2
833.551	101.2
833.728	60.24
833.905	80.72
834.082	74.58
834.259	183.12
834.436	162.64
834.612	33.62
834.789	70.48
834.966	41.81
835.143	111.44
835.319	-33.96
835.496	146.26
835.673	138.07
835.85	101.2
836.026	52.05
836.203	115.54
836.38	52.05
836.556	97.11
836.733	109.4
836.909	103.25
837.086	50
837.262	11.09
837.439	11.09
837.616	60.24
837.792	88.92
837.968	7
838.145	-19.63
838.321	113.49
838.498	109.4
838.674	115.54
838.851	56.15
839.027	88.92
839.203	33.62
839.38	111.44
839.556	41.81
839.732	103.25
839.909	15.19
840.085	113.49
840.261	0.85
840.437	60.24
840.614	-1.19
840.79	70.48
840.966	140.12
841.142	76.63
841.318	45.91
841.494	103.25
841.671	115.54
841.847	27.48
842.023	70.48
842.199	41.81
842.375	60.24
842.551	68.44
842.727	11.09
842.903	95.06
843.079	50
843.255	119.64
843.431	-27.82
843.607	64.34
843.783	-36.01
843.959	50
844.134	84.82
844.31	127.83
844.486	72.53
844.662	-3.24
844.838	86.87
845.013	74.58
845.189	54.1
845.365	127.83
845.541	76.63
845.716	76.63
845.892	39.76
846.068	25.43
846.244	-9.39
846.419	121.68
846.595	-23.72
846.77	31.57
846.946	113.49
847.122	21.33
847.297	62.29
847.473	111.44
847.648	-21.67
847.824	60.24
847.999	-85.16
848.175	39.76
848.35	72.53
848.526	47.96
848.701	68.44
848.876	41.81
849.052	56.15
849.227	68.44
849.403	62.29
849.578	29.52
849.753	35.67
849.929	19.29
850.104	9.05
850.279	54.1
850.454	-50.35
850.63	25.43
850.805	76.63
850.98	29.52
851.155	-9.39
851.33	80.72
851.505	-52.39
851.681	39.76
851.856	58.2
852.031	-5.29
852.206	84.82
852.381	7
852.556	43.86
852.731	25.43
852.906	9.05
853.081	50
853.256	142.16
853.431	-40.11
853.606	41.81
853.781	31.57
853.956	-140.46
854.131	-11.43
854.305	47.96
854.48	11.09
854.655	-5.29
854.83	-27.82
855.005	0.85
855.18	-27.82
855.354	21.33
855.529	35.67
855.704	-17.58
855.879	2.9
856.053	-27.82
856.228	62.29
856.403	37.72
856.577	33.62
856.752	2.9
856.926	13.14
857.101	7
857.276	13.14
857.45	82.77
857.625	119.64
857.799	39.76
857.974	19.29
858.148	-27.82
858.323	58.2
858.497	-54.44
858.672	-91.31
858.846	2.9
859.02	125.78
859.195	-66.73
859.369	33.62
859.543	19.29
859.718	31.57
859.892	21.33
860.066	88.92
860.241	15.19
860.415	68.44
860.589	41.81
860.763	2.9
860.938	0.85
861.112	4.95
861.286	-13.48
861.46	23.38
861.634	4.95
861.808	4.95
861.982	-27.82
862.157	-70.83
862.331	-3.24
862.505	-54.44
862.679	-5.29
862.853	35.67
863.027	0.85
863.201	37.72
863.375	7
863.549	103.25
863.722	31.57
863.896	47.96
864.07	-7.34
864.244	-33.96
864.418	72.53
864.592	47.96
864.766	54.1
864.939	33.62
865.113	-52.39
865.287	4.95
865.461	-19.63
865.634	66.39
865.808	-54.44
865.982	47.96
866.156	-15.53
866.329	-25.77
866.503	19.29
866.676	21.33
866.85	2.9
867.024	-13.48
867.197	9.05
867.371	43.86
867.544	27.48
867.718	-31.91
867.891	60.24
868.065	-5.29
868.238	-27.82
868.412	2.9
868.585	7
868.759	-44.2
868.932	-1.19
869.105	-27.82
869.279	19.29
869.452	-33.96
869.625	-5.29
869.799	9.05
869.972	-87.21
870.145	-64.68
870.319	31.57
870.492	15.19
870.665	-23.72
870.838	2.9
871.011	-101.55
871.185	-46.25
871.358	33.62
871.531	7
871.704	-25.77
871.877	27.48
872.05	11.09
872.223	-105.64
872.396	31.57
872.569	-68.78
872.742	-42.15
872.915	62.29
873.088	-23.72
873.261	-70.83
873.434	-5.29
873.607	-5.29
873.78	4.95
873.953	-42.15
874.126	-46.25
874.299	-21.67
874.471	62.29
874.644	0.85
874.817	90.96
874.99	15.19
875.163	-31.91
875.335	27.48
875.508	0.85
875.681	90.96
875.853	-48.3
876.026	-11.43
876.199	-46.25
876.371	50
876.544	60.24
876.717	11.09
876.889	-7.34
877.062	2.9
877.234	-68.78
877.407	-70.83
877.579	-13.48
877.752	7
877.924	-44.2
878.097	37.72
878.269	-5.29
878.442	15.19
878.614	21.33
878.786	-15.53
878.959	-107.69
879.131	-38.06
879.303	-29.87
879.476	31.57
879.648	56.15
879.82	-21.67
879.993	-29.87
880.165	-44.2
880.337	-50.35
880.509	-11.43
880.681	-11.43
880.854	11.09
881.026	56.15
881.198	78.68
881.37	-23.72
881.542	-85.16
881.714	-60.59
881.886	-3.24
882.058	-1.19
882.23	52.05
882.402	-27.82
882.574	60.24
882.746	60.24
882.918	68.44
883.09	54.1
883.262	47.96
883.434	-5.29
883.606	-58.54
883.778	19.29
883.95	78.68
884.122	-79.02
884.293	-64.68
884.465	-23.72
884.637	21.33
884.809	-31.91
884.98	45.91
885.152	-70.83
885.324	56.15
885.496	-62.63
885.667	-29.87
885.839	-52.39
886.011	21.33
886.182	-33.96
886.354	23.38
886.525	-29.87
886.697	-42.15
886.869	-25.77
887.04	-42.15
887.212	0.85
887.383	80.72
887.555	-13.48
887.726	-33.96
887.897	-60.59
888.069	2.9
888.24	-11.43
888.412	-70.83
888.583	-74.92
888.754	-62.63
888.926	-52.39
889.097	-27.82
889.268	-48.3
889.44	-31.91
889.611	-60.59
889.782	-58.54
889.953	-58.54
890.125	-21.67
890.296	-44.2
890.467	25.43
890.638	-138.41
890.809	2.9
890.98	-64.68
891.151	-40.11
891.323	19.29
891.494	-36.01
891.665	-62.63
891.836	4.95
892.007	19.29
892.178	47.96
892.349	-3.24
892.52	-95.4
892.691	-1.19
892.862	-36.01
893.032	-29.87
893.203	25.43
893.374	-60.59
893.545	43.86
893.716	-31.91
893.887	37.72
894.057	-15.53
894.228	-31.91
894.399	-3.24
894.57	150.36
894.74	-46.25
894.911	2.9
895.082	-60.59
895.253	-48.3
895.423	-29.87
895.594	9.05
895.764	-29.87
895.935	-76.97
896.106	-44.2
896.276	-44.2
896.447	23.38
896.617	-109.74
896.788	-60.59
896.958	-38.06
897.129	-89.26
897.299	-9.39
897.47	60.24
897.64	-68.78
897.81	7
897.981	58.2
898.151	-70.83
898.322	-3.24
898.492	33.62
898.662	-60.59
898.832	-33.96
899.003	17.24
899.173	68.44
899.343	-44.2
899.513	-105.64
