Data from USB4F104151__32__12-11-51-147.txt Node

Date: Fri Mar 14 12:11:51 EDT 2025
User: louis
Spectrometer: USB4F10415
Trigger mode: 4
Integration Time (sec): 5.000000E-2
Scans to average: 1
Electric dark correction enabled: true
Nonlinearity correction enabled: false
Boxcar width: 0
XAxis mode: Wavelengths
Number of Pixels in Spectrum: 3648
>>>>>Begin Spectral Data<<<<<
178.204	-273.06
178.424	-273.06
178.644	-273.06
178.864	-185
179.084	-199.34
179.304	15.7
179.524	1.37
179.744	60.76
179.964	-8.87
180.184	-70.31
180.404	7.51
180.624	-0.68
180.844	-29.35
181.064	-60.07
181.283	-4.78
181.503	-4.78
181.723	93.52
181.943	-39.59
182.163	124.24
182.383	-17.07
182.602	64.85
182.822	109.91
183.042	60.76
183.262	52.56
183.482	62.8
183.701	89.43
183.921	27.99
184.141	-4.78
184.361	23.89
184.58	32.08
184.8	11.61
185.02	34.13
185.239	95.57
185.459	50.52
185.679	97.62
185.898	-86.7
186.118	40.28
186.338	7.51
186.557	89.43
186.777	34.13
186.997	17.75
187.216	-21.16
187.436	58.71
187.655	68.95
187.875	75.09
188.095	-51.88
188.314	64.85
188.534	66.9
188.753	-37.55
188.973	15.7
189.192	46.42
189.412	58.71
189.631	19.8
189.851	50.52
190.07	68.95
190.29	11.61
190.509	79.19
190.729	58.71
190.948	7.51
191.168	214.35
191.387	95.57
191.607	-29.35
191.826	-6.83
192.045	1.37
192.265	40.28
192.484	79.19
192.704	107.86
192.923	-60.07
193.142	87.38
193.362	23.89
193.581	44.37
193.8	44.37
194.02	126.29
194.239	71
194.458	79.19
194.678	-41.64
194.897	5.46
195.116	-35.5
195.335	103.76
195.555	36.18
195.774	66.9
195.993	42.32
196.212	15.7
196.432	-41.64
196.651	-4.78
196.87	-10.92
197.089	144.72
197.308	56.66
197.528	93.52
197.747	-60.07
197.966	-66.22
198.185	97.62
198.404	7.51
198.623	36.18
198.842	17.75
199.062	11.61
199.281	44.37
199.5	15.7
199.719	-60.07
199.938	5.46
200.157	54.61
200.376	77.14
200.595	68.95
200.814	48.47
201.033	-2.73
201.252	79.19
201.471	17.75
201.69	62.8
201.909	7.51
202.128	79.19
202.347	-21.16
202.566	42.32
202.785	-51.88
203.004	3.41
203.223	142.68
203.442	71
203.661	23.89
203.879	3.41
204.098	105.81
204.317	-21.16
204.536	54.61
204.755	-2.73
204.974	19.8
205.193	-8.87
205.411	150.87
205.63	79.19
205.849	19.8
206.068	40.28
206.287	-17.07
206.505	91.48
206.724	-45.74
206.943	-4.78
207.162	-43.69
207.381	11.61
207.599	38.23
207.818	-39.59
208.037	-8.87
208.255	-21.16
208.474	34.13
208.693	-35.5
208.911	-27.31
209.13	21.84
209.349	13.65
209.567	52.56
209.786	52.56
210.005	91.48
210.223	21.84
210.442	-58.03
210.661	77.14
210.879	23.89
211.098	27.99
211.316	62.8
211.535	-12.97
211.753	46.42
211.972	25.94
212.191	81.24
212.409	-4.78
212.628	64.85
212.846	-58.03
213.065	58.71
213.283	83.28
213.502	-23.21
213.72	50.52
213.938	-45.74
214.157	15.7
214.375	68.95
214.594	34.13
214.812	97.62
215.031	68.95
215.249	7.51
215.467	50.52
215.686	1.37
215.904	140.63
216.122	60.76
216.341	68.95
216.559	42.32
216.778	105.81
216.996	15.7
217.214	23.89
217.432	-0.68
217.651	-6.83
217.869	38.23
218.087	11.61
218.306	-82.6
218.524	58.71
218.742	-58.03
218.96	23.89
219.179	3.41
219.397	7.51
219.615	126.29
219.833	56.66
220.051	3.41
220.27	134.48
220.488	54.61
220.706	48.47
220.924	-41.64
221.142	5.46
221.36	34.13
221.578	89.43
221.796	1.37
222.015	15.7
222.233	17.75
222.451	73.04
222.669	1.37
222.887	60.76
223.105	-45.74
223.323	46.42
223.541	-6.83
223.759	126.29
223.977	27.99
224.195	73.04
224.413	79.19
224.631	-23.21
224.849	56.66
225.067	97.62
225.285	19.8
225.503	38.23
225.721	-33.45
225.939	42.32
226.157	-12.97
226.375	101.72
226.592	-8.87
226.81	-17.07
227.028	71
227.246	105.81
227.464	85.33
227.682	48.47
227.9	68.95
228.117	40.28
228.335	68.95
228.553	13.65
228.771	42.32
228.989	-4.78
229.206	-21.16
229.424	27.99
229.642	-31.4
229.86	62.8
230.077	89.43
230.295	-23.21
230.513	27.99
230.731	13.65
230.948	97.62
231.166	42.32
231.384	-10.92
231.601	-47.79
231.819	97.62
232.037	-58.03
232.254	68.95
232.472	13.65
232.689	-4.78
232.907	85.33
233.125	-70.31
233.342	-41.64
233.56	-43.69
233.777	-33.45
233.995	-25.26
234.213	71
234.43	5.46
234.648	83.28
234.865	13.65
235.083	23.89
235.3	15.7
235.518	25.94
235.735	109.91
235.953	93.52
236.17	-4.78
236.388	50.52
236.605	68.95
236.822	126.29
237.04	99.67
237.257	60.76
237.475	-33.45
237.692	30.04
237.909	27.99
238.127	3.41
238.344	103.76
238.562	56.66
238.779	-53.93
238.996	-58.03
239.214	91.48
239.431	40.28
239.648	27.99
239.865	13.65
240.083	23.89
240.3	30.04
240.517	1.37
240.735	30.04
240.952	73.04
241.169	116.05
241.386	36.18
241.603	-17.07
241.821	11.61
242.038	34.13
242.255	73.04
242.472	-4.78
242.689	52.56
242.907	13.65
243.124	89.43
243.341	11.61
243.558	-10.92
243.775	46.42
243.992	-23.21
244.209	130.39
244.426	87.38
244.643	71
244.86	-15.02
245.078	52.56
245.295	36.18
245.512	13.65
245.729	21.84
245.946	-27.31
246.163	23.89
246.38	48.47
246.597	17.75
246.814	48.47
247.031	50.52
247.248	27.99
247.464	15.7
247.681	75.09
247.898	15.7
248.115	58.71
248.332	-35.5
248.549	79.19
248.766	52.56
248.983	109.91
249.2	66.9
249.417	-21.16
249.633	-0.68
249.85	11.61
250.067	-15.02
250.284	79.19
250.501	36.18
250.717	17.75
250.934	-49.83
251.151	-12.97
251.368	13.65
251.585	58.71
251.801	17.75
252.018	-58.03
252.235	-23.21
252.451	-29.35
252.668	34.13
252.885	23.89
253.102	-27.31
253.318	5.46
253.535	-27.31
253.752	3.41
253.968	5.46
254.185	-33.45
254.401	-41.64
254.618	52.56
254.835	42.32
255.051	85.33
255.268	-15.02
255.484	-10.92
255.701	7.51
255.917	79.19
256.134	-92.84
256.351	-8.87
256.567	-15.02
256.784	64.85
257	-0.68
257.217	77.14
257.433	-21.16
257.65	95.57
257.866	-25.26
258.082	9.56
258.299	17.75
258.515	77.14
258.732	3.41
258.948	9.56
259.165	15.7
259.381	-55.98
259.597	81.24
259.814	30.04
260.03	48.47
260.246	3.41
260.463	44.37
260.679	87.38
260.895	19.8
261.112	13.65
261.328	34.13
261.544	-62.12
261.761	120.15
261.977	-23.21
262.193	1.37
262.409	75.09
262.626	134.48
262.842	-47.79
263.058	-12.97
263.274	48.47
263.49	58.71
263.707	79.19
263.923	62.8
264.139	-33.45
264.355	44.37
264.571	73.04
264.787	32.08
265.004	111.96
265.22	48.47
265.436	21.84
265.652	30.04
265.868	-2.73
266.084	-27.31
266.3	23.89
266.516	1.37
266.732	5.46
266.948	71
267.164	27.99
267.38	17.75
267.596	5.46
267.812	48.47
268.028	21.84
268.244	-74.41
268.46	5.46
268.676	54.61
268.892	48.47
269.108	-8.87
269.324	-51.88
269.54	-60.07
269.756	44.37
269.972	-86.7
270.188	11.61
270.403	-47.79
270.619	3.41
270.835	-4.78
271.051	56.66
271.267	-2.73
271.483	-25.26
271.698	75.09
271.914	-47.79
272.13	44.37
272.346	21.84
272.562	36.18
272.777	23.89
272.993	9.56
273.209	-0.68
273.425	48.47
273.64	23.89
273.856	7.51
274.072	27.99
274.287	46.42
274.503	13.65
274.719	56.66
274.934	71
275.15	-23.21
275.366	56.66
275.581	27.99
275.797	-10.92
276.012	13.65
276.228	-12.97
276.444	-41.64
276.659	95.57
276.875	5.46
277.09	11.61
277.306	-21.16
277.521	-12.97
277.737	-8.87
277.952	-12.97
278.168	42.32
278.383	-4.78
278.599	-0.68
278.814	64.85
279.03	-21.16
279.245	120.15
279.461	48.47
279.676	36.18
279.892	3.41
280.107	-92.84
280.322	-39.59
280.538	66.9
280.753	32.08
280.969	116.05
281.184	3.41
281.399	83.28
281.615	56.66
281.83	-19.11
282.045	-41.64
282.26	1.37
282.476	-33.45
282.691	91.48
282.906	-8.87
283.122	7.51
283.337	-19.11
283.552	62.8
283.767	-17.07
283.983	79.19
284.198	-19.11
284.413	-25.26
284.628	-29.35
284.843	-101.03
285.058	62.8
285.274	-21.16
285.489	-6.83
285.704	52.56
285.919	-27.31
286.134	-43.69
286.349	64.85
286.564	-15.02
286.779	79.19
286.995	9.56
287.21	-72.36
287.425	77.14
287.64	-53.93
287.855	-0.68
288.07	-41.64
288.285	38.23
288.5	3.41
288.715	-66.22
288.93	34.13
289.145	-68.27
289.36	64.85
289.575	-6.83
289.79	85.33
290.004	7.51
290.219	107.86
290.434	46.42
290.649	-33.45
290.864	23.89
291.079	54.61
291.294	36.18
291.509	-12.97
291.724	5.46
291.938	-21.16
292.153	-41.64
292.368	13.65
292.583	-51.88
292.798	13.65
293.012	150.87
293.227	40.28
293.442	52.56
293.657	30.04
293.871	71
294.086	64.85
294.301	124.24
294.516	46.42
294.73	30.04
294.945	-23.21
295.16	-0.68
295.374	89.43
295.589	7.51
295.804	-10.92
296.018	75.09
296.233	95.57
296.447	46.42
296.662	-29.35
296.877	87.38
297.091	71
297.306	64.85
297.52	56.66
297.735	27.99
297.949	-27.31
298.164	30.04
298.378	-21.16
298.593	77.14
298.807	23.89
299.022	50.52
299.236	50.52
299.451	52.56
299.665	40.28
299.88	34.13
300.094	38.23
300.309	-33.45
300.523	7.51
300.737	62.8
300.952	30.04
301.166	25.94
301.381	-23.21
301.595	-80.55
301.809	1.37
302.024	7.51
302.238	13.65
302.452	107.86
302.667	34.13
302.881	73.04
303.095	118.1
303.309	56.66
303.524	7.51
303.738	-23.21
303.952	-21.16
304.166	71
304.381	-49.83
304.595	75.09
304.809	48.47
305.023	36.18
305.237	-17.07
305.452	1.37
305.666	40.28
305.88	99.67
306.094	11.61
306.308	50.52
306.522	111.96
306.736	-31.4
306.95	48.47
307.164	-6.83
307.379	46.42
307.593	93.52
307.807	56.66
308.021	54.61
308.235	-37.55
308.449	-15.02
308.663	-10.92
308.877	85.33
309.091	75.09
309.305	40.28
309.519	-17.07
309.733	116.05
309.947	-0.68
310.161	46.42
310.374	79.19
310.588	101.72
310.802	-47.79
311.016	36.18
311.23	-4.78
311.444	-23.21
311.658	-45.74
311.872	11.61
312.085	-0.68
312.299	46.42
312.513	130.39
312.727	9.56
312.941	-45.74
313.154	75.09
313.368	-8.87
313.582	71
313.796	-29.35
314.009	15.7
314.223	161.11
314.437	-35.5
314.651	5.46
314.864	5.46
315.078	48.47
315.292	-31.4
315.505	-49.83
315.719	50.52
315.933	-0.68
316.146	-107.18
316.36	30.04
316.573	83.28
316.787	-2.73
317.001	62.8
317.214	1.37
317.428	-2.73
317.641	-6.83
317.855	-45.74
318.068	-4.78
318.282	9.56
318.495	128.34
318.709	17.75
318.922	75.09
319.136	56.66
319.349	56.66
319.563	-23.21
319.776	68.95
319.99	-23.21
320.203	34.13
320.417	-15.02
320.63	85.33
320.843	73.04
321.057	34.13
321.27	23.89
321.483	71
321.697	114
321.91	-8.87
322.124	56.66
322.337	-27.31
322.55	-31.4
322.763	-49.83
322.977	-23.21
323.19	-15.02
323.403	-19.11
323.617	50.52
323.83	71
324.043	30.04
324.256	38.23
324.469	1.37
324.683	130.39
324.896	-12.97
325.109	54.61
325.322	-68.27
325.535	-8.87
325.748	38.23
325.962	-15.02
326.175	58.71
326.388	34.13
326.601	99.67
326.814	11.61
327.027	30.04
327.24	99.67
327.453	-37.55
327.666	54.61
327.879	32.08
328.092	9.56
328.305	13.65
328.518	-70.31
328.731	34.13
328.944	42.32
329.157	42.32
329.37	19.8
329.583	128.34
329.796	107.86
330.009	-109.23
330.222	114
330.435	46.42
330.648	58.71
330.861	1.37
331.073	44.37
331.286	1.37
331.499	-8.87
331.712	-0.68
331.925	5.46
332.138	15.7
332.35	36.18
332.563	-6.83
332.776	71
332.989	-10.92
333.202	-37.55
333.414	23.89
333.627	34.13
333.84	40.28
334.053	62.8
334.265	-12.97
334.478	7.51
334.691	-2.73
334.903	64.85
335.116	3.41
335.329	64.85
335.541	-21.16
335.754	23.89
335.966	7.51
336.179	11.61
336.392	91.48
336.604	5.46
336.817	21.84
337.029	48.47
337.242	40.28
337.454	27.99
337.667	5.46
337.88	97.62
338.092	-17.07
338.305	81.24
338.517	50.52
338.729	89.43
338.942	40.28
339.154	-41.64
339.367	-6.83
339.579	44.37
339.792	-27.31
340.004	52.56
340.217	-29.35
340.429	48.47
340.641	-98.99
340.854	11.61
341.066	58.71
341.278	103.76
341.491	99.67
341.703	19.8
341.915	30.04
342.128	9.56
342.34	99.67
342.552	3.41
342.764	46.42
342.977	-2.73
343.189	-15.02
343.401	-41.64
343.613	-27.31
343.826	-47.79
344.038	-58.03
344.25	38.23
344.462	42.32
344.674	-2.73
344.886	17.75
345.099	25.94
345.311	79.19
345.523	-27.31
345.735	-64.17
345.947	36.18
346.159	30.04
346.371	-0.68
346.583	-2.73
346.795	111.96
347.007	-39.59
347.219	5.46
347.431	-35.5
347.643	77.14
347.855	-0.68
348.067	71
348.279	-60.07
348.491	54.61
348.703	9.56
348.915	36.18
349.127	9.56
349.339	30.04
349.551	-6.83
349.763	5.46
349.975	34.13
350.187	99.67
350.399	95.57
350.61	17.75
350.822	15.7
351.034	21.84
351.246	-60.07
351.458	44.37
351.669	93.52
351.881	60.76
352.093	54.61
352.305	148.82
352.517	9.56
352.728	89.43
352.94	71
353.152	58.71
353.363	-19.11
353.575	-2.73
353.787	87.38
353.999	38.23
354.21	122.2
354.422	36.18
354.633	3.41
354.845	19.8
355.057	-8.87
355.268	85.33
355.48	116.05
355.692	-39.59
355.903	15.7
356.115	-27.31
356.326	-8.87
356.538	62.8
356.749	87.38
356.961	66.9
357.172	-29.35
357.384	-29.35
357.595	130.39
357.807	21.84
358.018	-37.55
358.23	75.09
358.441	87.38
358.653	17.75
358.864	118.1
359.075	17.75
359.287	34.13
359.498	38.23
359.709	58.71
359.921	-12.97
360.132	40.28
360.344	25.94
360.555	-37.55
360.766	71
360.977	1.37
361.189	40.28
361.4	85.33
361.611	36.18
361.823	148.82
362.034	60.76
362.245	-72.36
362.456	-8.87
362.667	46.42
362.879	-0.68
363.09	40.28
363.301	75.09
363.512	7.51
363.723	46.42
363.935	-8.87
364.146	122.2
364.357	32.08
364.568	116.05
364.779	-12.97
364.99	79.19
365.201	46.42
365.412	83.28
365.623	-39.59
365.834	3.41
366.045	5.46
366.256	44.37
366.467	46.42
366.678	17.75
366.889	-12.97
367.1	-10.92
367.311	42.32
367.522	46.42
367.733	7.51
367.944	64.85
368.155	32.08
368.366	107.86
368.577	56.66
368.788	1.37
368.999	11.61
369.209	56.66
369.42	118.1
369.631	79.19
369.842	44.37
370.053	23.89
370.264	128.34
370.474	-2.73
370.685	73.04
370.896	105.81
371.107	42.32
371.317	120.15
371.528	-15.02
371.739	85.33
371.95	44.37
372.16	38.23
372.371	-49.83
372.582	-31.4
372.792	52.56
373.003	56.66
373.214	46.42
373.424	54.61
373.635	-39.59
373.846	122.2
374.056	75.09
374.267	30.04
374.477	-29.35
374.688	23.89
374.898	23.89
375.109	38.23
375.319	122.2
375.53	64.85
375.74	85.33
375.951	58.71
376.161	58.71
376.372	91.48
376.582	1.37
376.793	105.81
377.003	-84.65
377.214	27.99
377.424	30.04
377.635	54.61
377.845	-86.7
378.055	75.09
378.266	44.37
378.476	60.76
378.686	77.14
378.897	52.56
379.107	50.52
379.317	-27.31
379.528	7.51
379.738	40.28
379.948	3.41
380.158	-12.97
380.369	46.42
380.579	111.96
380.789	40.28
380.999	87.38
381.21	103.76
381.42	71
381.63	36.18
381.84	56.66
382.05	-39.59
382.261	42.32
382.471	-2.73
382.681	19.8
382.891	54.61
383.101	52.56
383.311	13.65
383.521	-6.83
383.731	21.84
383.941	40.28
384.151	38.23
384.361	-15.02
384.571	1.37
384.781	81.24
384.991	150.87
385.201	91.48
385.411	130.39
385.621	7.51
385.831	44.37
386.041	27.99
386.251	50.52
386.461	87.38
386.671	-49.83
386.881	3.41
387.091	11.61
387.301	60.76
387.511	13.65
387.72	103.76
387.93	21.84
388.14	9.56
388.35	128.34
388.56	60.76
388.769	73.04
388.979	79.19
389.189	-6.83
389.399	27.99
389.609	66.9
389.818	46.42
390.028	19.8
390.238	107.86
390.447	54.61
390.657	32.08
390.867	1.37
391.076	-21.16
391.286	30.04
391.496	58.71
391.705	52.56
391.915	42.32
392.125	32.08
392.334	7.51
392.544	40.28
392.753	77.14
392.963	11.61
393.172	56.66
393.382	-17.07
393.591	142.68
393.801	105.81
394.01	103.76
394.22	52.56
394.429	36.18
394.639	87.38
394.848	-15.02
395.058	-2.73
395.267	42.32
395.477	52.56
395.686	-0.68
395.895	118.1
396.105	99.67
396.314	68.95
396.524	56.66
396.733	-23.21
396.942	128.34
397.152	79.19
397.361	5.46
397.57	116.05
397.78	116.05
397.989	91.48
398.198	234.83
398.407	103.76
398.617	21.84
398.826	58.71
399.035	50.52
399.244	99.67
399.453	68.95
399.663	46.42
399.872	83.28
400.081	15.7
400.29	161.11
400.499	25.94
400.708	212.31
400.917	52.56
401.127	23.89
401.336	77.14
401.545	277.84
401.754	122.2
401.963	19.8
402.172	46.42
402.381	54.61
402.59	140.63
402.799	81.24
403.008	183.63
403.217	101.72
403.426	95.57
403.635	101.72
403.844	109.91
404.053	79.19
404.262	56.66
404.471	111.96
404.68	27.99
404.888	66.9
405.097	89.43
405.306	44.37
405.515	140.63
405.724	40.28
405.933	77.14
406.142	152.91
406.35	152.91
406.559	109.91
406.768	111.96
406.977	183.63
407.185	159.06
407.394	206.16
407.603	103.76
407.812	185.68
408.02	181.59
408.229	189.78
408.438	163.15
408.646	142.68
408.855	189.78
409.064	214.35
409.272	150.87
409.481	279.89
409.69	185.68
409.898	165.2
410.107	212.31
410.315	251.22
410.524	177.49
410.733	240.98
410.941	234.83
411.15	253.27
411.358	322.9
411.567	341.33
411.775	298.32
411.984	308.56
412.192	333.14
412.401	326.99
412.609	435.53
412.818	413.01
413.026	425.29
413.234	351.57
413.443	456.01
413.651	318.8
413.86	320.85
414.068	539.98
414.276	521.55
414.485	480.59
414.693	591.18
414.901	582.99
415.11	509.26
415.318	458.06
415.526	533.84
415.734	544.08
415.943	621.9
416.151	673.1
416.359	542.03
416.567	707.91
416.776	673.1
416.984	644.43
417.192	740.68
417.4	761.16
417.608	693.58
417.817	677.19
418.025	738.63
418.233	871.75
418.441	773.45
418.649	830.79
418.857	877.9
419.065	1011.01
419.273	908.62
419.481	996.68
419.689	1051.97
419.897	1150.28
420.105	1082.69
420.313	1045.83
420.521	1291.59
420.729	1269.06
420.937	1221.95
421.145	1191.24
421.353	1396.03
421.561	1461.57
421.769	1428.8
421.977	1406.27
422.185	1553.73
422.393	1541.44
422.601	1678.65
422.809	1641.79
423.017	1731.9
423.224	1709.37
423.432	1922.36
423.64	1836.35
423.848	2129.2
424.056	1838.39
424.263	2172.21
424.471	2090.29
424.679	2065.72
424.887	2284.85
425.094	2436.4
425.302	2397.49
425.51	2438.45
425.718	2452.78
425.925	2620.72
426.133	2790.7
426.341	2858.28
426.548	2901.29
426.756	2782.51
426.964	2970.92
427.171	2952.49
427.379	2952.49
427.586	3089.7
427.794	3132.71
428.001	3427.62
428.209	3638.56
428.417	3556.64
428.624	3790.11
428.832	3812.64
429.039	3656.99
429.247	3708.19
429.454	4185.37
429.662	4433.17
429.869	4205.85
430.076	4388.11
430.284	4265.24
430.491	4560.14
430.699	4773.13
430.906	4678.93
431.114	4629.77
431.321	4945.16
431.528	4973.83
431.736	5334.28
431.943	5680.38
432.15	5311.75
432.358	5487.87
432.565	5756.16
432.772	5678.33
432.979	5930.23
433.187	6200.57
433.394	6173.94
433.601	6495.47
433.808	6671.6
434.016	6591.73
434.223	6954.22
434.43	7333.09
434.637	7068.91
434.844	7613.67
435.052	7759.07
435.259	7691.49
435.466	7924.96
435.673	7632.1
435.88	8088.79
436.087	8453.33
436.294	8584.4
436.501	8428.76
436.708	8389.85
436.915	8656.08
437.122	9223.37
437.329	9096.39
437.537	9495.75
437.743	9489.6
437.95	9499.84
438.157	10071.23
438.364	10192.06
438.571	10085.56
438.778	10110.14
438.985	11285.67
439.192	10853.55
439.399	11293.86
439.606	10968.24
439.813	11572.39
440.02	12194.97
440.227	12012.7
440.433	11736.23
440.64	12264.6
440.847	12123.29
441.054	12184.73
441.261	13307.02
441.467	12833.94
441.674	13378.7
441.881	13960.32
442.088	13954.18
442.294	13761.67
442.501	14056.57
442.708	14406.78
442.914	14634.1
443.121	15522.92
443.328	15148.14
443.534	16331.87
443.741	15768.68
443.948	15643.75
444.154	16665.69
444.361	16573.53
444.568	16501.85
444.774	16788.57
444.981	16858.2
445.187	17570.89
445.394	18140.22
445.6	17994.82
445.807	19520.56
446.013	18721.85
446.22	18965.56
446.426	19721.26
446.633	20151.33
446.839	20595.74
447.046	20059.17
447.252	20968.47
447.459	21058.58
447.665	20401.18
447.871	21603.34
448.078	22729.72
448.284	21306.38
448.491	22303.74
448.697	22940.66
448.903	23325.68
449.11	23227.38
449.316	22965.24
449.522	23358.45
449.728	24185.83
449.935	24286.18
450.141	24427.49
450.347	24968.15
450.553	23895.02
450.76	24097.77
450.966	25048.02
451.172	24615.9
451.378	25736.14
451.584	24634.33
451.791	25797.58
451.997	25547.73
452.203	25842.63
452.409	25760.72
452.615	25623.5
452.821	24542.17
453.027	24275.94
453.233	26002.38
453.44	24691.68
453.646	24929.24
453.852	25183.19
454.058	25379.79
454.264	24648.67
454.47	25336.79
454.676	24347.62
454.882	25215.96
455.088	22985.72
455.294	23522.29
455.5	23925.74
455.705	24171.49
455.911	23143.41
456.117	22692.86
456.323	22281.22
456.529	20816.92
456.735	21775.37
456.941	21314.58
457.147	20732.95
457.352	20259.87
457.558	20106.27
457.764	20229.15
457.97	19770.41
458.176	19205.17
458.381	19184.69
458.587	18455.61
458.793	18553.91
458.999	17214.54
459.204	18357.31
459.41	18203.71
459.616	16897.11
459.821	16608.34
460.027	16587.86
460.233	16297.05
460.438	15477.87
460.644	15604.84
460.85	15010.93
461.055	14767.22
461.261	14881.91
461.466	13909.12
461.672	13059.21
461.878	14148.73
462.083	13112.46
462.289	12698.77
462.494	12756.11
462.7	12229.79
462.905	11986.08
463.111	12350.62
463.316	12438.68
463.522	12115.1
463.727	11957.41
463.932	12135.58
464.138	11801.76
464.343	11891.87
464.549	11672.74
464.754	11861.15
464.959	11619.49
465.165	11801.76
465.37	11302.06
465.575	11033.77
465.781	11308.2
465.986	11513
466.191	10972.33
466.397	10724.53
466.602	10323.13
466.807	10636.47
467.012	10581.17
467.218	10572.98
467.423	10333.37
467.628	10460.34
467.833	10798.26
468.038	10278.07
468.244	10167.48
468.449	10493.11
468.654	10179.77
468.859	9950.4
469.064	9919.68
469.269	9665.73
469.474	9632.96
469.679	9981.12
469.885	9487.56
470.09	9708.74
470.295	9532.61
470.5	9352.39
470.705	9458.88
470.91	9424.07
471.115	9254.09
471.32	9413.83
471.525	9086.15
471.73	9104.59
471.935	8946.89
472.139	8547.54
472.344	8832.21
472.549	8504.53
472.754	8709.33
472.959	8395.99
473.164	8348.89
473.369	8094.94
473.574	8461.52
473.778	8402.13
473.983	8199.38
474.188	8350.93
474.393	7816.41
474.598	7687.39
474.802	7863.52
475.007	7634.14
475.212	7707.87
475.417	7449.83
475.621	7687.39
475.826	7347.43
476.031	7351.53
476.235	7179.5
476.44	7279.85
476.645	6948.08
476.849	6982.89
477.054	7058.67
477.259	6808.81
477.463	7044.33
477.668	6716.65
477.872	6909.16
478.077	6812.91
478.282	6515.95
478.486	6450.42
478.691	6272.25
478.895	6313.2
479.1	6468.85
479.304	6362.36
479.509	6094.07
479.713	6288.63
479.918	6202.61
480.122	6065.4
480.326	6145.27
480.531	6124.79
480.735	6026.49
480.94	5782.78
481.144	6137.08
481.348	5938.43
481.553	5913.85
481.757	5860.6
481.961	5797.12
482.166	6024.44
482.37	5956.86
482.574	5754.11
482.778	5956.86
482.983	5919.99
483.187	5739.77
483.391	5864.7
483.595	5979.39
483.8	5655.81
484.004	5854.46
484.208	5881.08
484.412	5944.57
484.616	5842.17
484.821	5803.26
485.025	5713.15
485.229	5825.79
485.433	5651.71
485.637	5813.5
485.841	5745.92
486.045	5696.77
486.249	5723.39
486.453	5772.54
486.657	5645.57
486.861	5707.01
487.065	5627.14
487.269	5633.28
487.473	5635.33
487.677	5756.16
487.881	5823.74
488.085	5815.55
488.289	5797.12
488.493	5674.24
488.697	5784.83
488.901	5682.43
489.105	5778.69
489.309	5803.26
489.512	5737.73
489.716	5715.2
489.92	5858.56
490.124	5713.15
490.328	5909.76
490.531	5780.73
490.735	5911.8
490.939	5965.05
491.143	5848.32
491.346	5780.73
491.55	5893.37
491.754	5721.34
491.958	6077.69
492.161	6055.16
492.365	5930.23
492.569	5995.77
492.772	6102.26
492.976	6036.73
493.18	6020.35
493.383	6155.51
493.587	6376.69
493.79	6282.49
493.994	6167.8
494.197	6141.18
494.401	6284.53
494.605	6305.01
494.808	6233.33
495.012	6509.81
495.215	6341.88
495.419	6618.35
495.622	6345.97
495.825	6511.86
496.029	6442.23
496.232	6624.5
496.436	6573.3
496.639	6970.6
496.843	6683.89
497.046	7017.71
497.249	6845.68
497.453	6950.12
497.656	7001.32
497.859	7163.11
498.063	7259.37
498.266	7365.86
498.469	7283.94
498.673	7337.19
498.876	7503.07
499.079	7427.3
499.282	7372
499.485	7773.41
499.689	7791.84
499.892	7875.81
500.095	7677.15
500.298	7927
500.501	7709.92
500.705	8121.56
500.908	8066.27
501.111	8355.03
501.314	8426.71
501.517	8508.63
501.72	8572.11
501.923	8402.13
502.126	8660.18
502.329	8971.47
502.532	8959.18
502.735	8973.52
502.938	9192.65
503.141	9174.22
503.344	9309.38
503.547	9233.61
503.75	9286.86
503.953	9643.2
504.156	9592
504.359	9698.5
504.562	9604.29
504.765	9817.28
504.968	10136.76
505.17	9954.49
505.373	10282.17
505.576	10241.21
505.779	10572.98
505.982	10556.6
506.185	10745.01
506.387	10667.19
506.59	10810.54
506.793	11058.35
506.996	10884.27
507.198	11279.53
507.401	11275.43
507.604	11283.63
507.807	11605.16
508.009	11574.44
508.212	11658.4
508.415	11904.16
508.617	11965.6
508.82	11902.11
509.022	12082.33
509.225	12227.74
509.428	12584.09
509.63	12465.3
509.833	12364.95
510.035	12610.71
510.238	12780.69
510.44	13098.13
510.643	12969.1
510.845	13249.68
511.048	13075.6
511.25	13255.82
511.453	13415.56
511.655	13923.46
511.858	13495.43
512.06	13700.23
512.262	13960.32
512.465	13935.74
512.667	14005.38
512.87	13921.41
513.072	14425.21
513.274	14713.97
513.477	14527.61
513.679	14804.08
513.881	14804.08
514.084	14859.38
514.286	14961.78
514.488	15203.44
514.69	15563.88
514.893	15709.29
515.095	15502.44
515.297	15725.67
515.499	15819.88
515.701	16041.06
515.904	16188.51
516.106	16215.13
516.308	16174.17
516.51	16399.45
516.712	16606.3
516.914	16661.59
517.116	16825.43
517.318	16766.04
517.52	17081.42
517.722	16999.51
517.925	17151.06
518.127	17519.69
518.329	17531.98
518.531	17445.96
518.733	17669.19
518.935	18025.54
519.136	17810.5
519.338	17962.05
519.54	17947.72
519.742	18388.03
519.944	18676.79
520.146	18639.93
520.348	18803.77
520.55	18625.59
520.752	18996.28
520.954	18902.07
521.155	18900.02
521.357	19102.77
521.559	19260.46
521.761	19323.95
521.963	19332.14
522.164	19538.99
522.366	19567.66
522.568	19729.45
522.77	19934.25
522.971	20100.13
523.173	19962.92
523.375	19901.48
523.576	20098.08
523.778	19760.17
523.98	20599.83
524.181	20534.3
524.383	20804.63
524.584	20696.09
524.786	20605.98
524.988	20349.98
525.189	20616.22
525.391	21048.34
525.592	21072.92
525.794	20958.23
525.995	20970.52
526.197	20890.65
526.398	20972.57
526.6	21072.92
526.801	21253.14
527.003	21326.86
527.204	21271.57
527.406	21400.59
527.607	21509.13
527.808	21425.17
528.01	21470.22
528.211	21298.19
528.412	21875.72
528.614	21707.79
528.815	21801.99
529.016	21767.18
529.218	21472.27
529.419	21578.76
529.62	21787.66
529.822	21609.48
530.023	21730.31
530.224	21949.45
530.425	21793.8
530.626	21546
530.828	21638.16
531.029	21969.93
531.23	22004.74
531.431	21781.51
531.632	21568.52
531.833	21967.88
532.035	22039.56
532.236	21949.45
532.437	22064.13
532.638	21855.24
532.839	22092.8
533.04	21777.42
533.241	21695.5
533.442	22244.35
533.643	21949.45
533.844	21939.21
534.045	21974.02
534.246	21525.52
534.447	22119.43
534.648	21875.72
534.849	21863.43
535.05	21869.58
535.251	21959.69
535.451	21797.9
535.652	21769.23
535.853	22090.76
536.054	21722.12
536.255	22010.89
536.456	21625.87
536.657	22133.76
536.857	21896.2
537.058	21808.14
537.259	21931.01
537.46	22076.42
537.66	21556.24
537.861	22043.65
538.062	21724.17
538.263	21861.38
538.463	21679.11
538.664	21892.1
538.865	21801.99
539.065	22105.09
539.266	21646.35
539.466	21767.18
539.667	21459.98
539.868	21900.3
540.068	21416.97
540.269	21867.53
540.469	21789.7
540.67	21707.79
540.87	21642.25
541.071	22111.24
541.271	21705.74
541.472	21623.82
541.672	21589
541.873	21380.11
542.073	21263.38
542.274	21629.96
542.474	21718.03
542.675	21468.17
542.875	22014.98
543.075	21896.2
543.276	21373.97
543.476	21744.65
543.676	21699.59
543.877	21875.72
544.077	21595.15
544.277	21447.69
544.478	21703.69
544.678	21568.52
544.878	21281.81
545.078	21443.6
545.279	21337.1
545.479	21382.16
545.679	21378.06
545.879	21683.21
546.079	21546
546.28	21589
546.48	21306.38
546.68	21763.08
546.88	21410.83
547.08	21738.51
547.28	21539.85
547.48	21527.56
547.68	21451.79
547.88	21400.59
548.081	21548.04
548.281	21343.25
548.481	21290
548.681	21627.92
548.881	21244.95
549.081	21494.8
549.28	21208.08
549.48	21496.85
549.68	21361.68
549.88	21337.1
550.08	21226.51
550.28	21300.24
550.48	21462.03
550.68	21546
550.88	21333.01
551.08	21115.92
551.279	21646.35
551.479	21179.41
551.679	21083.16
551.879	21097.49
552.079	21275.66
552.278	21109.78
552.478	21373.97
552.678	21242.9
552.878	21617.68
553.077	21298.19
553.277	21490.7
553.477	21576.72
553.676	21507.09
553.876	21361.68
554.076	21275.66
554.275	21083.16
554.475	20931.61
554.674	21337.1
554.874	21312.53
555.074	21107.73
555.273	21464.08
555.473	21302.29
555.672	21017.62
555.872	21034
556.071	21388.3
556.271	21482.51
556.47	21031.96
556.67	21054.48
556.869	21027.86
557.068	21214.23
557.268	21275.66
557.467	21111.83
557.667	21122.07
557.866	21117.97
558.065	20937.75
558.265	21017.62
558.464	20907.03
558.663	21376.02
558.863	20991
559.062	21353.49
559.261	20919.32
559.461	21402.64
559.66	20902.93
559.859	21091.35
560.058	20866.07
560.258	21197.84
560.457	20501.53
560.656	21056.53
560.855	21148.69
561.054	20991
561.253	21054.48
561.453	21210.13
561.652	20964.37
561.851	20956.18
562.05	20821.02
562.249	20845.59
562.448	20941.85
562.647	20829.21
562.846	20935.7
563.045	20814.87
563.244	20778.01
563.443	21036.05
563.642	20405.28
563.841	20898.84
564.04	20694.04
564.239	21062.68
564.438	20861.97
564.637	20872.21
564.836	20849.69
565.035	20726.81
565.234	21066.77
565.432	20929.56
565.631	20700.19
565.83	20771.86
566.029	20712.47
566.228	20659.23
566.427	20655.13
566.625	20927.51
566.824	20452.38
567.023	20870.17
567.222	20376.61
567.42	20974.61
567.619	20704.28
567.818	20745.24
568.016	20421.66
568.215	20831.26
568.414	20511.77
568.612	20687.9
568.811	20573.21
569.01	20679.71
569.208	20446.24
569.407	20499.48
569.605	20427.81
569.804	20790.3
570.002	20487.2
570.201	20479
570.4	20282.4
570.598	20667.42
570.797	20337.69
570.995	20632.6
571.193	20007.97
571.392	20489.24
571.59	20483.1
571.789	20540.44
571.987	20483.1
572.186	20315.17
572.384	20266.02
572.582	20548.64
572.781	20624.41
572.979	19852.33
573.177	20544.54
573.376	20524.06
573.574	20169.76
573.772	20018.21
573.971	20020.26
574.169	20106.27
574.367	20321.31
574.565	20530.2
574.763	19860.52
574.962	19913.77
575.16	20001.83
575.358	20225.06
575.556	19973.16
575.754	20024.36
575.952	19960.87
576.151	20098.08
576.349	19768.36
576.547	19858.47
576.745	19940.39
576.943	19901.48
577.141	19837.99
577.339	19831.85
577.537	19881
577.735	19948.58
577.933	19989.54
578.131	19874.85
578.329	19737.64
578.527	19919.91
578.725	19719.21
578.923	19743.78
579.121	19721.26
579.319	19743.78
579.516	19950.63
579.714	19645.48
579.912	19440.68
580.11	19342.38
580.308	19500.08
580.506	19444.78
580.704	19194.93
580.901	19606.57
581.099	19602.47
581.297	19440.68
581.495	19274.8
581.692	19567.66
581.89	19317.81
582.088	19696.68
582.285	19354.67
582.483	19452.97
582.681	19792.94
582.878	19448.88
583.076	19164.21
583.274	19407.92
583.471	19522.6
583.669	19260.46
583.866	19219.5
584.064	19434.54
584.262	18807.86
584.459	19442.73
584.657	19160.11
584.854	19477.55
585.052	18957.36
585.249	19104.82
585.447	19289.13
585.644	19082.29
585.841	19260.46
586.039	19377.2
586.236	18865.21
586.434	19024.95
586.631	18885.69
586.828	19274.8
587.026	18957.36
587.223	18930.74
587.42	19162.16
587.618	18981.94
587.815	18760.76
588.012	18662.46
588.21	18965.56
588.407	19065.91
588.604	18766.9
588.801	18738.23
588.999	18918.45
589.196	18879.54
589.393	18879.54
589.59	18633.78
589.787	18629.69
589.984	18697.27
590.182	18562.11
590.379	18900.02
590.576	18709.56
590.773	18693.18
590.97	18859.06
591.167	18762.81
591.364	18582.59
591.561	18703.42
591.758	18674.74
591.955	18807.86
592.152	18660.41
592.349	18621.5
592.546	18474.04
592.743	18717.75
592.94	18355.26
593.137	18598.97
593.334	18713.66
593.531	18414.65
593.727	18459.71
593.924	18734.14
594.121	18762.81
594.318	18504.76
594.515	18420.8
594.712	18666.55
594.908	18742.33
595.105	18678.84
595.302	18457.66
595.499	18379.84
595.696	18326.59
595.892	18330.69
596.089	18609.21
596.286	18861.11
596.482	18445.37
596.679	18635.83
596.876	18594.87
597.072	18558.01
597.269	18613.31
597.466	18545.72
597.662	18553.91
597.859	18756.66
598.055	18725.94
598.252	18525.24
598.448	18750.52
598.645	18420.8
598.841	18453.56
599.038	18699.32
599.234	18433.08
599.431	18377.79
599.627	18703.42
599.824	18709.56
600.02	18383.93
600.217	18646.07
600.413	18515
600.609	18621.5
600.806	18592.83
601.002	18756.66
601.198	18662.46
601.395	18824.25
601.591	18654.26
601.787	18736.18
601.984	18592.83
602.18	18940.98
602.376	18576.44
602.572	18814.01
602.769	18795.57
602.965	18727.99
603.161	18500.67
603.357	18848.82
603.553	18783.29
603.75	18504.76
603.946	18535.48
604.142	19139.63
604.338	18517.05
604.534	18633.78
604.73	18392.12
604.926	18676.79
605.122	18664.5
605.318	18940.98
605.514	18672.7
605.71	18713.66
605.906	18848.82
606.102	18838.58
606.298	19059.76
606.494	18945.08
606.69	18676.79
606.886	18830.39
607.082	18803.77
607.278	19059.76
607.474	18994.23
607.67	19282.99
607.866	19100.72
608.062	19192.88
608.257	19307.57
608.453	19051.57
608.649	19326
608.845	19262.51
609.041	19035.19
609.236	19305.52
609.432	19162.16
609.628	19366.96
609.824	19465.26
610.019	19113.01
610.215	19383.34
610.411	19545.13
610.606	19323.95
610.802	19389.49
610.998	19352.62
611.193	19467.31
611.389	19393.58
611.584	19723.3
611.78	19401.77
611.976	19487.79
612.171	19688.49
612.367	19493.93
612.562	19489.84
612.758	19668.01
612.953	19651.63
613.149	20069.41
613.344	19618.86
613.539	19907.62
613.735	19592.23
613.93	19694.63
614.126	19620.91
614.321	20093.99
614.517	19893.29
614.712	19774.5
614.907	19715.11
615.103	20020.26
615.298	20096.03
615.493	20132.9
615.688	19872.81
615.884	20608.03
616.079	20083.75
616.274	20034.6
616.47	20118.56
616.665	20274.21
616.86	19858.47
617.055	20182.05
617.25	20157.47
617.445	20063.27
617.641	19782.7
617.836	20216.86
618.031	19805.22
618.226	20220.96
618.421	20294.69
618.616	20270.11
618.811	19954.72
619.006	19997.73
619.201	19608.62
619.396	20247.58
619.591	19647.53
619.786	19971.11
619.981	19780.65
620.176	20050.98
620.371	19657.77
620.566	19905.57
620.761	19837.99
620.956	19749.93
621.151	19622.95
621.346	19694.63
621.541	19237.94
621.735	19817.51
621.93	19409.97
622.125	19586.09
622.32	19330.09
622.515	19373.1
622.709	19213.36
622.904	19301.42
623.099	19049.52
623.294	19409.97
623.488	18830.39
623.683	19090.48
623.878	18852.92
624.072	18945.08
624.267	19039.28
624.462	18873.4
624.656	18869.3
624.851	18680.89
625.046	18676.79
625.24	18998.32
625.435	18537.53
625.629	18672.7
625.824	18607.16
626.018	18459.71
626.213	18183.23
626.407	18390.08
626.602	17976.39
626.796	17787.97
626.991	18185.28
627.185	18095.17
627.38	17957.96
627.574	17816.65
627.768	17769.54
627.963	17761.35
628.157	17585.22
628.352	17843.27
628.546	17450.06
628.74	17869.89
628.935	17318.99
629.129	17308.75
629.323	17181.78
629.517	17192.01
629.712	17247.31
629.906	17261.65
630.1	17173.58
630.294	17083.47
630.489	16811.09
630.683	17036.37
630.877	16895.06
631.071	16884.82
631.265	16714.84
631.459	16641.11
631.653	16847.96
631.848	16555.1
632.042	16313.44
632.236	16544.86
632.43	16342.11
632.624	16317.53
632.818	16178.27
633.012	15938.66
633.206	16026.72
633.4	16129.12
633.594	15914.08
633.788	16082.02
633.982	15909.99
634.176	15821.92
634.369	15592.55
634.563	15330.41
634.757	15557.74
634.951	15539.3
635.145	15287.4
635.339	15373.42
635.533	15131.76
635.726	15451.24
635.92	15058.03
636.114	15035.5
636.308	15033.46
636.501	14808.18
636.695	14777.46
636.889	14529.66
637.083	14646.39
637.276	14730.36
637.47	14627.96
637.664	14453.88
637.857	14548.09
638.051	14539.9
638.244	14273.66
638.438	14562.42
638.632	14206.08
638.825	13941.89
639.019	14171.26
639.212	13712.52
639.406	14103.68
639.599	13882.5
639.793	13759.62
639.986	13470.86
640.18	13601.93
640.373	13614.21
640.567	13317.26
640.76	13290.63
640.954	13235.34
641.147	13290.63
641.34	13147.28
641.534	12997.77
641.727	12819.6
641.92	12936.34
642.114	12901.52
642.307	12848.27
642.5	12573.85
642.694	12840.08
642.887	12410.01
643.08	12541.08
643.273	12278.94
643.467	12252.31
643.66	12127.39
643.853	12108.96
644.046	11816.1
644.239	12098.72
644.432	11971.74
644.626	11826.34
644.819	11660.45
645.012	11541.67
645.205	11711.65
645.398	11631.78
645.591	11443.37
645.784	11676.84
645.977	11228.33
646.17	11119.79
646.363	11160.75
646.556	11080.88
646.749	11015.34
646.942	10978.48
647.135	10927.28
647.328	10925.23
647.521	10865.84
647.714	10552.5
647.907	10636.47
648.099	10462.39
648.292	10486.97
648.485	10486.97
648.678	10163.39
648.871	10421.43
649.064	10202.3
649.256	10226.87
649.449	9884.86
649.642	10108.09
649.835	10042.56
650.027	9909.44
650.22	9905.34
650.413	9782.46
650.605	9669.83
650.798	9804.99
650.991	9581.76
651.183	9411.78
651.376	9469.12
651.568	9336.01
651.761	9239.75
651.954	9307.34
652.146	9266.38
652.339	9348.29
652.531	9172.17
652.724	9088.2
652.916	9012.43
653.109	9002.19
653.301	9016.52
653.494	8957.13
653.686	9039.05
653.879	8877.26
654.071	8637.65
654.263	8608.98
654.456	8649.94
654.648	8647.89
654.84	8477.91
655.033	8352.98
655.225	8299.73
655.417	8226.01
655.61	8285.4
655.802	8498.39
655.994	8307.93
656.186	8176.86
656.379	8047.83
656.571	8148.18
656.763	7847.13
656.955	7894.24
657.148	8066.27
657.34	7943.39
657.532	7845.09
657.724	7750.88
657.916	7582.95
658.108	7718.11
658.3	7668.96
658.492	7484.64
658.684	7482.6
658.876	7572.71
659.068	7453.92
659.26	7281.89
659.452	7120.1
659.644	7394.53
659.836	7161.06
660.028	7068.91
660.22	6919.4
660.412	7085.29
660.604	6894.83
660.796	6978.79
660.988	6835.44
661.18	6685.94
661.372	6737.13
661.563	6730.99
661.755	6620.4
661.947	6571.25
662.139	6647.02
662.331	6567.15
662.522	6423.8
662.714	6259.96
662.906	6282.49
663.097	6305.01
663.289	6339.83
663.481	6169.85
663.673	6132.98
663.864	6100.22
664.056	6087.93
664.247	6135.03
664.439	5956.86
664.631	5885.18
664.822	6073.59
665.014	5883.13
665.205	5922.04
665.397	5750.01
665.588	5747.97
665.78	5725.44
665.971	5729.53
666.163	5793.02
666.354	5645.57
666.546	5606.66
666.737	5463.3
666.929	5469.44
667.12	5608.7
667.311	5365
667.503	5297.41
667.694	5420.29
667.885	5324.04
668.077	5330.18
668.268	5145.86
668.459	5235.97
668.651	5080.33
668.842	5211.4
669.033	5119.24
669.224	5172.49
669.416	5143.81
669.607	5084.42
669.798	5125.38
669.989	5102.86
670.18	5096.71
670.371	4859.15
670.563	4822.28
670.754	4924.68
670.945	4785.42
671.136	4838.67
671.327	4760.84
671.518	4740.36
671.709	4764.94
671.9	4910.35
672.091	4793.61
672.282	4769.04
672.473	4687.12
672.664	4658.45
672.855	4482.32
673.046	4629.77
673.237	4605.2
673.428	4640.01
673.619	4623.63
673.809	4494.61
674	4713.74
674.191	4523.28
674.382	4554
674.573	4502.8
674.764	4535.57
674.954	4502.8
675.145	4470.03
675.336	4369.68
675.527	4304.15
675.717	4414.74
675.908	4345.11
676.099	4443.41
676.289	4222.23
676.48	4281.62
676.671	4345.11
676.861	4355.35
677.052	4375.83
677.243	4289.81
677.433	4400.4
677.624	4347.15
677.814	4267.28
678.005	4363.54
678.195	4404.5
678.386	3986.71
678.576	4195.61
678.767	4193.56
678.957	4093.21
679.148	4160.79
679.338	4414.74
679.529	4144.41
679.719	4257.04
679.909	4273.43
680.1	4255
680.29	4150.55
680.481	4082.97
680.671	4302.1
680.861	4175.13
681.052	4226.32
681.242	4269.33
681.432	4259.09
681.622	4060.44
681.813	4209.94
682.003	4160.79
682.193	4060.44
682.383	4224.28
682.573	4078.87
682.764	4101.4
682.954	4128.02
683.144	4109.59
683.334	4140.31
683.524	4078.87
683.714	4146.45
683.904	4048.15
684.094	4162.84
684.284	4183.32
684.474	4207.89
684.664	4152.6
684.854	4111.64
685.044	4138.26
685.234	4201.75
685.424	4064.54
685.614	4078.87
685.804	4003.1
685.994	4214.04
686.184	4080.92
686.374	4230.42
686.564	4107.54
686.753	4173.08
686.943	3990.81
687.133	4109.59
687.323	4031.77
687.513	4388.11
687.702	4197.65
687.892	4056.34
688.082	4019.48
688.272	4171.03
688.461	4164.89
688.651	4154.65
688.841	4173.08
689.03	4121.88
689.22	4252.95
689.41	4234.52
689.599	4130.07
689.789	4015.38
689.979	4289.81
690.168	4134.17
690.358	3955.99
690.547	4134.17
690.737	4220.18
690.926	4111.64
691.116	4091.16
691.305	4082.97
691.495	4064.54
691.684	4062.49
691.874	4175.13
692.063	4072.73
692.252	4136.21
692.442	4158.74
692.631	4103.45
692.82	3974.42
693.01	4205.85
693.199	4091.16
693.388	4179.22
693.578	4130.07
693.767	4277.52
693.956	4082.97
694.146	4087.06
694.335	4209.94
694.524	4119.83
694.713	4044.06
694.902	4058.39
695.092	4123.93
695.281	4222.23
695.47	3996.95
695.659	4023.58
695.848	4125.97
696.037	4138.26
696.226	4224.28
696.415	4203.8
696.604	4314.39
696.793	4396.31
696.982	4396.31
697.171	4218.13
697.36	4269.33
697.549	4298
697.738	4119.83
697.927	4287.76
698.116	4332.82
698.305	4334.87
698.494	4281.62
698.683	4138.26
698.872	4261.14
699.061	4162.84
699.25	4168.98
699.438	4287.76
699.627	4304.15
699.816	4318.48
700.005	4197.65
700.193	4255
700.382	4467.99
700.571	4302.1
700.76	4185.37
700.948	4289.81
701.137	4353.3
701.326	4365.59
701.514	4355.35
701.703	4320.53
701.892	4375.83
702.08	4578.58
702.269	4211.99
702.457	4240.66
702.646	4406.55
702.834	4199.7
703.023	4386.07
703.212	4373.78
703.4	4349.2
703.589	4203.8
703.777	4242.71
703.965	4209.94
704.154	4181.27
704.342	4177.17
704.531	4252.95
704.719	4111.64
704.907	4211.99
705.096	4277.52
705.284	4250.9
705.472	4222.23
705.661	4277.52
705.849	4420.88
706.037	4283.67
706.226	4205.85
706.414	4298
706.602	4162.84
706.79	4224.28
706.979	4230.42
707.167	4287.76
707.355	4134.17
707.543	4228.37
707.731	4142.36
707.919	4273.43
708.107	4117.78
708.296	4171.03
708.484	4302.1
708.672	4201.75
708.86	4289.81
709.048	4177.17
709.236	4187.41
709.424	4252.95
709.612	4158.74
709.8	4072.73
709.988	4187.41
710.176	4183.32
710.364	4107.54
710.551	4074.78
710.739	4097.3
710.927	4105.49
711.115	4066.58
711.303	4273.43
711.491	4134.17
711.679	3984.66
711.866	4015.38
712.054	3992.86
712.242	4168.98
712.43	4025.62
712.617	4132.12
712.805	4039.96
712.993	4148.5
713.181	3929.37
713.368	4056.34
713.556	4078.87
713.744	3904.79
713.931	4005.14
714.119	3994.9
714.306	4054.3
714.494	4003.1
714.682	4011.29
714.869	3900.7
715.057	3943.71
715.244	3851.55
715.432	3972.38
715.619	3927.32
715.807	3949.85
715.994	3968.28
716.182	3874.07
716.369	3902.75
716.556	3968.28
716.744	3855.64
716.931	3921.18
717.119	3839.26
717.306	3859.74
717.493	3759.39
717.681	3939.61
717.868	3851.55
718.055	3773.72
718.242	3661.09
718.43	3886.36
718.617	3798.3
718.804	3888.41
718.991	3724.57
719.179	3798.3
719.366	3747.1
719.553	3818.78
719.74	3786.01
719.927	3808.54
720.114	3728.67
720.301	3706.14
720.488	3718.43
720.676	3691.8
720.863	3740.96
721.05	3880.22
721.237	3800.35
721.424	3667.23
721.611	3693.85
721.798	3659.04
721.985	3640.61
722.172	3530.02
722.358	3634.46
722.545	3730.72
722.732	3579.17
722.919	3656.99
723.106	3722.52
723.293	3736.86
723.48	3599.65
723.667	3513.63
723.853	3562.78
724.04	3642.65
724.227	3630.37
724.414	3491.1
724.6	3513.63
724.787	3532.06
724.974	3579.17
725.161	3663.13
725.347	3474.72
725.534	3501.34
725.72	3644.7
725.907	3507.49
726.094	3474.72
726.28	3417.38
726.467	3499.3
726.653	3288.36
726.84	3550.5
727.027	3626.27
727.213	3351.84
727.4	3345.7
727.586	3458.34
727.773	3493.15
727.959	3390.75
728.145	3446.05
728.332	3349.79
728.518	3390.75
728.705	3444
728.891	3425.57
729.077	3382.56
729.264	3384.61
729.45	3372.32
729.636	3403.04
729.823	3454.24
730.009	3415.33
730.195	3271.97
730.382	3476.77
730.568	3452.19
730.754	3276.07
730.94	3292.45
731.126	3321.12
731.313	3333.41
731.499	3206.44
731.685	3259.68
731.871	3249.44
732.057	3222.82
732.243	3241.25
732.429	3267.88
732.615	3194.15
732.801	3175.72
732.987	3253.54
733.173	3128.61
733.359	3218.72
733.545	3167.52
733.731	3179.81
733.917	3235.11
734.103	3161.38
734.289	3085.61
734.475	3063.08
734.661	3167.52
734.847	3052.84
735.033	3028.26
735.219	3099.94
735.404	3147.05
735.59	3032.36
735.776	3003.69
735.962	3104.04
736.148	3015.98
736.333	3122.47
736.519	2843.95
736.705	3114.28
736.89	2917.67
737.076	3058.98
737.262	2886.95
737.447	2886.95
737.633	2968.87
737.819	2950.44
738.004	2948.39
738.19	3007.78
738.375	2786.6
738.561	2987.3
738.747	2968.87
738.932	2786.6
739.118	2975.02
739.303	2979.11
739.489	2813.23
739.674	2893.1
739.859	2802.99
740.045	2866.47
740.23	2721.07
740.416	2671.92
740.601	2768.17
740.786	2862.38
740.972	2737.45
741.157	2766.12
741.342	2649.39
741.528	2669.87
741.713	2698.54
741.898	2628.91
742.084	2729.26
742.269	2678.06
742.454	2700.59
742.639	2637.1
742.824	2571.57
743.01	2690.35
743.195	2618.67
743.38	2637.1
743.565	2559.28
743.75	2614.57
743.935	2489.65
744.12	2522.41
744.305	2465.07
744.49	2618.67
744.675	2512.18
744.86	2645.29
745.045	2450.74
745.23	2452.78
745.415	2569.52
745.6	2553.13
745.785	2395.44
745.97	2329.91
746.155	2379.06
746.34	2340.15
746.525	2331.95
746.71	2358.58
746.895	2243.89
747.079	2323.76
747.264	2225.46
747.449	2268.47
747.634	2260.27
747.819	2245.94
748.003	2243.89
748.188	2284.85
748.373	2286.9
748.557	2172.21
748.742	2118.96
748.927	2088.25
749.111	2184.5
749.296	2149.68
749.481	2123.06
749.665	2137.4
749.85	2143.54
750.034	2139.44
750.219	1940.79
750.404	2104.63
750.588	1961.27
750.773	1981.75
750.957	2030.9
751.141	2018.61
751.326	2053.43
751.51	1891.64
751.695	1885.5
751.879	2045.24
752.064	2010.42
752.248	1961.27
752.432	1946.94
752.617	1922.36
752.801	1967.42
752.985	1883.45
753.17	1817.91
753.354	1901.88
753.538	1858.87
753.722	1842.49
753.907	1783.1
754.091	1838.39
754.275	1842.49
754.459	1623.36
754.643	1719.61
754.828	1744.19
755.012	1817.91
755.196	1647.93
755.38	1715.52
755.564	1656.12
755.748	1725.75
755.932	1654.08
756.116	1686.84
756.3	1609.02
756.484	1611.07
756.668	1649.98
756.852	1563.97
757.036	1617.21
757.22	1572.16
757.404	1594.68
757.588	1578.3
757.772	1547.58
757.956	1510.72
758.14	1631.55
758.323	1416.51
758.507	1609.02
758.691	1449.28
758.875	1606.97
759.059	1529.15
759.242	1592.64
759.426	1389.89
759.61	1553.73
759.794	1494.33
759.977	1400.13
760.161	1551.68
760.345	1459.52
760.528	1430.85
760.712	1510.72
760.895	1369.41
761.079	1393.98
761.263	1350.98
761.446	1426.75
761.63	1346.88
761.813	1469.76
761.997	1269.06
762.18	1346.88
762.364	1426.75
762.547	1213.76
762.731	1334.59
762.914	1373.5
763.098	1291.59
763.281	1217.86
763.464	1219.91
763.648	1299.78
763.831	1234.24
764.015	1283.39
764.198	1342.78
764.381	1389.89
764.564	1183.04
764.748	1260.87
764.931	1252.67
765.114	1310.02
765.297	1211.71
765.481	1295.68
765.664	1299.78
765.847	1269.06
766.03	1267.01
766.213	1205.57
766.397	1148.23
766.58	1230.15
766.763	1221.95
766.946	1166.66
767.129	1201.47
767.312	1166.66
767.495	1144.13
767.678	1236.29
767.861	1207.62
768.044	1154.37
768.227	1215.81
768.41	1156.42
768.593	1189.19
768.776	1068.36
768.959	1137.99
769.142	1312.07
769.324	1111.36
769.507	1092.93
769.69	1129.8
769.873	1115.46
770.056	1236.29
770.239	1113.41
770.421	1109.32
770.604	1207.62
770.787	1164.61
770.97	1072.45
771.152	1080.64
771.335	1082.69
771.518	980.29
771.7	1068.36
771.883	1166.66
772.066	1045.83
772.248	1037.64
772.431	1150.28
772.613	1119.56
772.796	970.05
772.978	1072.45
773.161	1097.03
773.343	1086.79
773.526	984.39
773.708	1017.16
773.891	927.05
774.073	1004.87
774.256	1033.54
774.438	968.01
774.621	1074.5
774.803	1051.97
774.985	900.42
775.168	994.63
775.35	1004.87
775.532	1060.17
775.715	838.98
775.897	976.2
776.079	910.66
776.261	875.85
776.444	935.24
776.626	861.51
776.808	900.42
776.99	699.72
777.173	970.05
777.355	927.05
777.537	947.53
777.719	781.64
777.901	830.79
778.083	898.38
778.265	806.22
778.447	939.34
778.629	761.16
778.811	869.7
778.993	857.42
779.175	785.74
779.357	861.51
779.539	683.34
779.721	791.88
779.903	861.51
780.085	804.17
780.267	767.31
780.449	798.03
780.631	830.79
780.812	791.88
780.994	785.74
781.176	699.72
781.358	787.79
781.54	765.26
781.721	841.03
781.903	812.36
782.085	746.83
782.267	787.79
782.448	617.8
782.63	722.25
782.812	726.35
782.993	724.3
783.175	636.24
783.357	568.65
783.538	697.67
783.72	695.63
783.901	603.47
784.083	705.87
784.264	640.33
784.446	589.13
784.627	621.9
784.809	648.52
784.99	572.75
785.172	662.86
785.353	613.71
785.535	617.8
785.716	585.04
785.897	595.28
786.079	619.85
786.26	568.65
786.441	634.19
786.623	458.06
786.804	574.8
786.985	611.66
787.167	539.98
787.348	525.65
787.529	503.12
787.71	617.8
787.891	511.31
788.073	464.21
788.254	531.79
788.435	609.61
788.616	458.06
788.797	517.45
788.978	550.22
789.159	462.16
789.34	542.03
789.522	533.84
789.703	447.82
789.884	443.73
790.065	449.87
790.246	580.94
790.427	447.82
790.607	517.45
790.788	472.4
790.969	429.39
791.15	507.21
791.331	496.97
791.512	472.4
791.693	478.54
791.874	384.34
792.054	513.36
792.235	470.35
792.416	441.68
792.597	372.05
792.778	429.39
792.958	372.05
793.139	419.15
793.32	468.3
793.5	253.27
793.681	431.44
793.862	449.87
794.042	425.29
794.223	439.63
794.404	306.51
794.584	322.9
794.765	404.82
794.945	349.52
795.126	316.75
795.306	406.86
795.487	363.86
795.667	392.53
795.848	372.05
796.028	343.38
796.209	380.24
796.389	394.58
796.57	388.43
796.75	238.93
796.93	378.19
797.111	357.71
797.291	310.61
797.471	341.33
797.652	263.51
797.832	331.09
798.012	423.25
798.192	267.6
798.373	308.56
798.553	331.09
798.733	390.48
798.913	300.37
799.093	324.94
799.274	425.29
799.454	329.04
799.634	427.34
799.814	337.23
799.994	300.37
800.174	265.55
800.354	382.29
800.534	230.74
800.714	263.51
800.894	249.17
801.074	347.47
801.254	216.4
801.434	400.72
801.614	275.79
801.794	265.55
801.974	1346.88
802.154	269.65
802.334	310.61
802.514	277.84
802.693	232.79
802.873	281.94
803.053	271.7
803.233	263.51
803.413	249.17
803.592	249.17
803.772	253.27
803.952	261.46
804.131	200.02
804.311	281.94
804.491	329.04
804.67	226.64
804.85	273.75
805.03	255.31
805.209	298.32
805.389	234.83
805.568	228.69
805.748	236.88
805.928	218.45
806.107	183.63
806.287	292.18
806.466	326.99
806.646	324.94
806.825	236.88
807.004	245.07
807.184	265.55
807.363	286.03
807.543	306.51
807.722	165.2
807.901	308.56
808.081	226.64
808.26	159.06
808.439	202.07
808.619	251.22
808.798	204.11
808.977	159.06
809.156	224.59
809.336	298.32
809.515	224.59
809.694	126.29
809.873	204.11
810.052	251.22
810.231	335.18
810.411	202.07
810.59	167.25
810.769	259.41
810.948	249.17
811.127	146.77
811.306	294.22
811.485	232.79
811.664	300.37
811.843	165.2
812.022	159.06
812.201	163.15
812.38	204.11
812.559	200.02
812.737	200.02
812.916	140.63
813.095	122.2
813.274	173.39
813.453	163.15
813.632	230.74
813.811	191.83
813.989	77.14
814.168	204.11
814.347	97.62
814.526	245.07
814.704	273.75
814.883	249.17
815.062	179.54
815.24	187.73
815.419	107.86
815.598	216.4
815.776	132.44
815.955	134.48
816.133	124.24
816.312	161.11
816.49	193.87
816.669	154.96
816.847	122.2
817.026	183.63
817.204	152.91
817.383	165.2
817.561	122.2
817.74	169.3
817.918	101.72
818.097	124.24
818.275	177.49
818.453	185.68
818.632	175.44
818.81	150.87
818.988	79.19
819.167	73.04
819.345	99.67
819.523	146.77
819.701	197.97
819.879	165.2
820.058	81.24
820.236	144.72
820.414	132.44
820.592	177.49
820.77	163.15
820.948	75.09
821.127	138.58
821.305	187.73
821.483	48.47
821.661	126.29
821.839	183.63
822.017	83.28
822.195	124.24
822.373	187.73
822.551	103.76
822.729	247.12
822.907	97.62
823.085	103.76
823.262	116.05
823.44	99.67
823.618	95.57
823.796	165.2
823.974	25.94
824.152	93.52
824.329	142.68
824.507	185.68
824.685	107.86
824.863	36.18
825.04	126.29
825.218	142.68
825.396	122.2
825.574	68.95
825.751	66.9
825.929	114
826.107	91.48
826.284	187.73
826.462	93.52
826.639	1.37
826.817	30.04
826.994	154.96
827.172	73.04
827.349	175.44
827.527	146.77
827.704	140.63
827.882	126.29
828.059	36.18
828.237	93.52
828.414	58.71
828.591	81.24
828.769	111.96
828.946	48.47
829.124	148.82
829.301	120.15
829.478	62.8
829.655	126.29
829.833	132.44
830.01	27.99
830.187	107.86
830.364	111.96
830.542	142.68
830.719	173.39
830.896	116.05
831.073	134.48
831.25	130.39
831.427	64.85
831.604	30.04
831.782	36.18
831.959	71
832.136	83.28
832.313	122.2
832.49	95.57
832.667	79.19
832.844	142.68
833.021	93.52
833.198	105.81
833.374	91.48
833.551	79.19
833.728	120.15
833.905	120.15
834.082	-12.97
834.259	50.52
834.436	132.44
834.612	9.56
834.789	134.48
834.966	105.81
835.143	71
835.319	87.38
835.496	114
835.673	89.43
835.85	23.89
836.026	46.42
836.203	152.91
836.38	169.3
836.556	99.67
836.733	-10.92
836.909	81.24
837.086	-19.11
837.262	30.04
837.439	83.28
837.616	56.66
837.792	95.57
837.968	34.13
838.145	36.18
838.321	75.09
838.498	91.48
838.674	120.15
838.851	99.67
839.027	36.18
839.203	38.23
839.38	97.62
839.556	68.95
839.732	97.62
839.909	83.28
840.085	32.08
840.261	-35.5
840.437	60.76
840.614	27.99
840.79	109.91
840.966	85.33
841.142	19.8
841.318	48.47
841.494	132.44
841.671	118.1
841.847	71
842.023	62.8
842.199	83.28
842.375	101.72
842.551	17.75
842.727	62.8
842.903	44.37
843.079	79.19
843.255	154.96
843.431	64.85
843.607	36.18
843.783	-23.21
843.959	21.84
844.134	52.56
844.31	144.72
844.486	36.18
844.662	-2.73
844.838	7.51
845.013	114
845.189	116.05
845.365	3.41
845.541	-4.78
845.716	62.8
845.892	81.24
846.068	-12.97
846.244	-21.16
846.419	79.19
846.595	-25.26
846.77	-68.27
846.946	159.06
847.122	-25.26
847.297	9.56
847.473	122.2
847.648	44.37
847.824	30.04
847.999	17.75
848.175	3.41
848.35	40.28
848.526	85.33
848.701	83.28
848.876	60.76
849.052	73.04
849.227	42.32
849.403	17.75
849.578	60.76
849.753	75.09
849.929	44.37
850.104	62.8
850.279	73.04
850.454	68.95
850.63	60.76
850.805	103.76
850.98	19.8
851.155	17.75
851.33	27.99
851.505	-10.92
851.681	27.99
851.856	-27.31
852.031	13.65
852.206	42.32
852.381	71
852.556	-53.93
852.731	36.18
852.906	40.28
853.081	27.99
853.256	85.33
853.431	30.04
853.606	30.04
853.781	-45.74
853.956	-29.35
854.131	101.72
854.305	13.65
854.48	25.94
854.655	19.8
854.83	27.99
855.005	38.23
855.18	52.56
855.354	42.32
855.529	17.75
855.704	13.65
855.879	71
856.053	-27.31
856.228	48.47
856.403	-17.07
856.577	87.38
856.752	-37.55
856.926	23.89
857.101	3.41
857.276	13.65
857.45	81.24
857.625	50.52
857.799	48.47
857.974	36.18
858.148	-21.16
858.323	46.42
858.497	-60.07
858.672	9.56
858.846	-21.16
859.02	134.48
859.195	-4.78
859.369	13.65
859.543	48.47
859.718	56.66
859.892	44.37
860.066	-12.97
860.241	25.94
860.415	-4.78
860.589	13.65
860.763	62.8
860.938	-68.27
861.112	56.66
861.286	40.28
861.46	1.37
861.634	-10.92
861.808	140.63
861.982	23.89
862.157	-8.87
862.331	-12.97
862.505	-15.02
862.679	-21.16
862.853	-64.17
863.027	-17.07
863.201	175.44
863.375	56.66
863.549	32.08
863.722	46.42
863.896	42.32
864.07	17.75
864.244	5.46
864.418	-15.02
864.592	-2.73
864.766	-17.07
864.939	9.56
865.113	-21.16
865.287	64.85
865.461	19.8
865.634	-4.78
865.808	11.61
865.982	27.99
866.156	-55.98
866.329	-21.16
866.503	62.8
866.676	30.04
866.85	87.38
867.024	-25.26
867.197	-23.21
867.371	-21.16
867.544	32.08
867.718	19.8
867.891	50.52
868.065	-39.59
868.238	-15.02
868.412	46.42
868.585	7.51
868.759	-41.64
868.932	48.47
869.105	-25.26
869.279	-19.11
869.452	-10.92
869.625	56.66
869.799	42.32
869.972	13.65
870.145	3.41
870.319	68.95
870.492	-31.4
870.665	-80.55
870.838	-53.93
871.011	-15.02
871.185	-35.5
871.358	5.46
871.531	27.99
871.704	-17.07
871.877	-72.36
872.05	-17.07
872.223	-15.02
872.396	-0.68
872.569	46.42
872.742	-39.59
872.915	19.8
873.088	-64.17
873.261	-82.6
873.434	-4.78
873.607	-29.35
873.78	-31.4
873.953	23.89
874.126	-23.21
874.299	87.38
874.471	7.51
874.644	-8.87
874.817	38.23
874.99	38.23
875.163	-17.07
875.335	-37.55
875.508	-12.97
875.681	42.32
875.853	38.23
876.026	-21.16
876.199	25.94
876.371	44.37
876.544	-64.17
876.717	-2.73
876.889	1.37
877.062	46.42
877.234	-78.51
877.407	-29.35
877.579	17.75
877.752	11.61
877.924	-2.73
878.097	9.56
878.269	9.56
878.442	-6.83
878.614	-37.55
878.786	-33.45
878.959	95.57
879.131	27.99
879.303	-107.18
879.476	-12.97
879.648	48.47
879.82	40.28
879.993	-78.51
880.165	-90.79
880.337	-82.6
880.509	-12.97
880.681	-6.83
880.854	-33.45
881.026	-41.64
881.198	87.38
881.37	-4.78
881.542	-27.31
881.714	32.08
881.886	52.56
882.058	-21.16
882.23	36.18
882.402	-35.5
882.574	1.37
882.746	34.13
882.918	-21.16
883.09	25.94
883.262	-58.03
883.434	27.99
883.606	-49.83
883.778	-35.5
883.95	34.13
884.122	-62.12
884.293	23.89
884.465	30.04
884.637	107.86
884.809	-60.07
884.98	-47.79
885.152	23.89
885.324	42.32
885.496	-60.07
885.667	-37.55
885.839	15.7
886.011	48.47
886.182	-12.97
886.354	19.8
886.525	13.65
886.697	68.95
886.869	-25.26
887.04	-47.79
887.212	3.41
887.383	30.04
887.555	-23.21
887.726	-53.93
887.897	38.23
888.069	-27.31
888.24	-21.16
888.412	64.85
888.583	56.66
888.754	-15.02
888.926	-129.7
889.097	-51.88
889.268	-86.7
889.44	-21.16
889.611	-92.84
889.782	-45.74
889.953	-96.94
890.125	54.61
890.296	-64.17
890.467	-19.11
890.638	5.46
890.809	56.66
890.98	-15.02
891.151	34.13
891.323	40.28
891.494	56.66
891.665	7.51
891.836	30.04
892.007	-8.87
892.178	17.75
892.349	-53.93
892.52	-49.83
892.691	50.52
892.862	-35.5
893.032	-41.64
893.203	19.8
893.374	-8.87
893.545	40.28
893.716	-12.97
893.887	68.95
894.057	-47.79
894.228	50.52
894.399	19.8
894.57	52.56
894.74	83.28
894.911	46.42
895.082	-86.7
895.253	64.85
895.423	-0.68
895.594	1.37
895.764	-43.69
895.935	15.7
896.106	9.56
896.276	-70.31
896.447	-37.55
896.617	-62.12
896.788	-29.35
896.958	-62.12
897.129	-51.88
897.299	-47.79
897.47	-4.78
897.64	27.99
897.81	-49.83
897.981	-29.35
898.151	-72.36
898.322	-8.87
898.492	56.66
898.662	-6.83
898.832	-39.59
899.003	13.65
899.173	9.56
899.343	25.94
899.513	-4.78
