Data from USB4F104151__12__12-11-30-911.txt Node

Date: Fri Mar 14 12:11:30 EDT 2025
User: louis
Spectrometer: USB4F10415
Trigger mode: 4
Integration Time (sec): 5.000000E-2
Scans to average: 1
Electric dark correction enabled: true
Nonlinearity correction enabled: false
Boxcar width: 0
XAxis mode: Wavelengths
Number of Pixels in Spectrum: 3648
>>>>>Begin Spectral Data<<<<<
178.204	-242.85
178.424	-242.85
178.644	-242.85
178.864	-218.28
179.084	-253.09
179.304	-111.78
179.524	-33.96
179.744	31.57
179.964	58.2
180.184	39.76
180.404	-7.34
180.624	23.38
180.844	-60.59
181.064	21.33
181.283	109.4
181.503	-93.35
181.723	23.38
181.943	-25.77
182.163	97.11
182.383	60.24
182.602	-25.77
182.822	39.76
183.042	2.9
183.262	54.1
183.482	-48.3
183.701	39.76
183.921	68.44
184.141	21.33
184.361	152.4
184.58	-5.29
184.8	4.95
185.02	-23.72
185.239	45.91
185.459	78.68
185.679	35.67
185.898	-40.11
186.118	47.96
186.338	27.48
186.557	74.58
186.777	25.43
186.997	21.33
187.216	-7.34
187.436	136.02
187.655	0.85
187.875	41.81
188.095	125.78
188.314	33.62
188.534	13.14
188.753	-44.2
188.973	111.44
189.192	152.4
189.412	-17.58
189.631	45.91
189.851	-9.39
190.07	105.3
190.29	21.33
190.509	11.09
190.729	-21.67
190.948	150.36
191.168	226.13
191.387	127.83
191.607	-58.54
191.826	78.68
192.045	-7.34
192.265	-13.48
192.484	15.19
192.704	-11.43
192.923	11.09
193.142	111.44
193.362	80.72
193.581	50
193.8	4.95
194.02	62.29
194.239	-38.06
194.458	23.38
194.678	21.33
194.897	35.67
195.116	43.86
195.335	70.48
195.555	37.72
195.774	-33.96
195.993	-33.96
196.212	78.68
196.432	-15.53
196.651	-11.43
196.87	-5.29
197.089	146.26
197.308	33.62
197.528	93.01
197.747	-29.87
197.966	56.15
198.185	109.4
198.404	-58.54
198.623	74.58
198.842	50
199.062	142.16
199.281	93.01
199.5	27.48
199.719	27.48
199.938	17.24
200.157	2.9
200.376	15.19
200.595	45.91
200.814	93.01
201.033	45.91
201.252	103.25
201.471	72.53
201.69	43.86
201.909	41.81
202.128	43.86
202.347	47.96
202.566	-13.48
202.785	76.63
203.004	41.81
203.223	144.21
203.442	21.33
203.661	11.09
203.879	11.09
204.098	56.15
204.317	-11.43
204.536	27.48
204.755	66.39
204.974	27.48
205.193	56.15
205.411	103.25
205.63	115.54
205.849	52.05
206.068	43.86
206.287	-1.19
206.505	103.25
206.724	39.76
206.943	-7.34
207.162	7
207.381	-13.48
207.599	9.05
207.818	-1.19
208.037	-25.77
208.255	-11.43
208.474	-21.67
208.693	37.72
208.911	15.19
209.13	15.19
209.349	95.06
209.567	17.24
209.786	50
210.005	39.76
210.223	47.96
210.442	-23.72
210.661	70.48
210.879	35.67
211.098	-3.24
211.316	90.96
211.535	109.4
211.753	37.72
211.972	15.19
212.191	-19.63
212.409	37.72
212.628	62.29
212.846	45.91
213.065	39.76
213.283	39.76
213.502	45.91
213.72	-7.34
213.938	0.85
214.157	23.38
214.375	76.63
214.594	0.85
214.812	45.91
215.031	-7.34
215.249	29.52
215.467	19.29
215.686	-9.39
215.904	99.16
216.122	9.05
216.341	111.44
216.559	25.43
216.778	19.29
216.996	82.77
217.214	80.72
217.432	2.9
217.651	37.72
217.869	2.9
218.087	-21.67
218.306	33.62
218.524	90.96
218.742	21.33
218.96	25.43
219.179	33.62
219.397	109.4
219.615	129.88
219.833	-23.72
220.051	-48.3
220.27	105.3
220.488	54.1
220.706	31.57
220.924	9.05
221.142	-83.11
221.36	60.24
221.578	-5.29
221.796	-21.67
222.015	54.1
222.233	39.76
222.451	-3.24
222.669	86.87
222.887	60.24
223.105	-9.39
223.323	64.34
223.541	4.95
223.759	37.72
223.977	33.62
224.195	86.87
224.413	50
224.631	68.44
224.849	31.57
225.067	82.77
225.285	56.15
225.503	29.52
225.721	-31.91
225.939	93.01
226.157	-40.11
226.375	226.13
226.592	7
226.81	29.52
227.028	74.58
227.246	54.1
227.464	60.24
227.682	50
227.9	72.53
228.117	4.95
228.335	27.48
228.553	39.76
228.771	21.33
228.989	62.29
229.206	33.62
229.424	-58.54
229.642	0.85
229.86	-11.43
230.077	123.73
230.295	54.1
230.513	0.85
230.731	74.58
230.948	138.07
231.166	80.72
231.384	-5.29
231.601	29.52
231.819	86.87
232.037	-29.87
232.254	-15.53
232.472	-29.87
232.689	21.33
232.907	93.01
233.125	33.62
233.342	19.29
233.56	-3.24
233.777	-11.43
233.995	23.38
234.213	78.68
234.43	47.96
234.648	2.9
234.865	4.95
235.083	56.15
235.3	70.48
235.518	97.11
235.735	142.16
235.953	39.76
236.17	25.43
236.388	-33.96
236.605	29.52
236.822	-5.29
237.04	80.72
237.257	37.72
237.475	56.15
237.692	2.9
237.909	-13.48
238.127	-29.87
238.344	15.19
238.562	47.96
238.779	-29.87
238.996	-15.53
239.214	78.68
239.431	152.4
239.648	15.19
239.865	70.48
240.083	23.38
240.3	35.67
240.517	35.67
240.735	47.96
240.952	72.53
241.169	39.76
241.386	-33.96
241.603	84.82
241.821	-36.01
242.038	50
242.255	80.72
242.472	33.62
242.689	47.96
242.907	80.72
243.124	97.11
243.341	27.48
243.558	-44.2
243.775	-19.63
243.992	-27.82
244.209	140.12
244.426	115.54
244.643	105.3
244.86	39.76
245.078	64.34
245.295	72.53
245.512	-11.43
245.729	17.24
245.946	33.62
246.163	52.05
246.38	82.77
246.597	62.29
246.814	-1.19
247.031	52.05
247.248	72.53
247.464	99.16
247.681	45.91
247.898	127.83
248.115	47.96
248.332	15.19
248.549	7
248.766	13.14
248.983	41.81
249.2	107.35
249.417	33.62
249.633	0.85
249.85	78.68
250.067	56.15
250.284	-3.24
250.501	138.07
250.717	70.48
250.934	-44.2
251.151	78.68
251.368	82.77
251.585	2.9
251.801	0.85
252.018	-9.39
252.235	80.72
252.451	33.62
252.668	11.09
252.885	162.64
253.102	86.87
253.318	19.29
253.535	50
253.752	25.43
253.968	-46.25
254.185	95.06
254.401	11.09
254.618	41.81
254.835	-19.63
255.051	52.05
255.268	-17.58
255.484	7
255.701	-54.44
255.917	68.44
256.134	7
256.351	4.95
256.567	-13.48
256.784	60.24
257	-15.53
257.217	70.48
257.433	80.72
257.65	86.87
257.866	27.48
258.082	-68.78
258.299	41.81
258.515	80.72
258.732	21.33
258.948	93.01
259.165	-23.72
259.381	-13.48
259.597	133.97
259.814	72.53
260.03	15.19
260.246	-52.39
260.463	4.95
260.679	60.24
260.895	7
261.112	72.53
261.328	70.48
261.544	-44.2
261.761	140.12
261.977	11.09
262.193	-48.3
262.409	113.49
262.626	50
262.842	47.96
263.058	21.33
263.274	13.14
263.49	21.33
263.707	74.58
263.923	101.2
264.139	-40.11
264.355	-56.49
264.571	25.43
264.787	11.09
265.004	52.05
265.22	23.38
265.436	62.29
265.652	25.43
265.868	52.05
266.084	0.85
266.3	-9.39
266.516	-33.96
266.732	64.34
266.948	50
267.164	23.38
267.38	39.76
267.596	43.86
267.812	33.62
268.028	-31.91
268.244	19.29
268.46	13.14
268.676	43.86
268.892	29.52
269.108	-7.34
269.324	41.81
269.54	-31.91
269.756	103.25
269.972	-7.34
270.188	-62.63
270.403	15.19
270.619	31.57
270.835	95.06
271.051	58.2
271.267	9.05
271.483	-74.92
271.698	29.52
271.914	86.87
272.13	-27.82
272.346	-1.19
272.562	-40.11
272.777	86.87
272.993	-11.43
273.209	52.05
273.425	62.29
273.64	-21.67
273.856	17.24
274.072	-25.77
274.287	-74.92
274.503	78.68
274.719	27.48
274.934	86.87
275.15	-15.53
275.366	52.05
275.581	37.72
275.797	4.95
276.012	33.62
276.228	33.62
276.444	101.2
276.659	117.59
276.875	-89.26
277.09	35.67
277.306	-17.58
277.521	29.52
277.737	39.76
277.952	54.1
278.168	17.24
278.383	82.77
278.599	37.72
278.814	64.34
279.03	9.05
279.245	111.44
279.461	37.72
279.676	25.43
279.892	-64.68
280.107	-3.24
280.322	9.05
280.538	13.14
280.753	29.52
280.969	35.67
281.184	-19.63
281.399	41.81
281.615	29.52
281.83	82.77
282.045	-21.67
282.26	-50.35
282.476	-27.82
282.691	70.48
282.906	-11.43
283.122	58.2
283.337	47.96
283.552	-17.58
283.767	17.24
283.983	152.4
284.198	41.81
284.413	37.72
284.628	50
284.843	7
285.058	70.48
285.274	19.29
285.489	-21.67
285.704	62.29
285.919	4.95
286.134	27.48
286.349	72.53
286.564	54.1
286.779	45.91
286.995	33.62
287.21	29.52
287.425	64.34
287.64	21.33
287.855	-1.19
288.07	72.53
288.285	76.63
288.5	60.24
288.715	115.54
288.93	-17.58
289.145	-33.96
289.36	121.68
289.575	2.9
289.79	11.09
290.004	-21.67
290.219	111.44
290.434	4.95
290.649	-3.24
290.864	21.33
291.079	2.9
291.294	31.57
291.509	-27.82
291.724	-50.35
291.938	-17.58
292.153	72.53
292.368	9.05
292.583	52.05
292.798	-1.19
293.012	35.67
293.227	15.19
293.442	-60.59
293.657	80.72
293.871	68.44
294.086	64.34
294.301	131.92
294.516	-13.48
294.73	-21.67
294.945	-85.16
295.16	-31.91
295.374	54.1
295.589	205.65
295.804	43.86
296.018	-25.77
296.233	66.39
296.447	27.48
296.662	-52.39
296.877	64.34
297.091	56.15
297.306	27.48
297.52	11.09
297.735	41.81
297.949	23.38
298.164	54.1
298.378	99.16
298.593	-44.2
298.807	17.24
299.022	60.24
299.236	70.48
299.451	47.96
299.665	21.33
299.88	-21.67
300.094	72.53
300.309	66.39
300.523	29.52
300.737	60.24
300.952	68.44
301.166	66.39
301.381	-21.67
301.595	-33.96
301.809	125.78
302.024	35.67
302.238	-31.91
302.452	21.33
302.667	25.43
302.881	97.11
303.095	17.24
303.309	45.91
303.524	-11.43
303.738	56.15
303.952	-50.35
304.166	11.09
304.381	-101.55
304.595	33.62
304.809	-13.48
305.023	31.57
305.237	80.72
305.452	11.09
305.666	82.77
305.88	41.81
306.094	88.92
306.308	21.33
306.522	64.34
306.736	11.09
306.95	107.35
307.164	-36.01
307.379	4.95
307.593	60.24
307.807	90.96
308.021	70.48
308.235	101.2
308.449	15.19
308.663	68.44
308.877	131.92
309.091	-48.3
309.305	13.14
309.519	-23.72
309.733	64.34
309.947	-36.01
310.161	7
310.374	86.87
310.588	43.86
310.802	-15.53
311.016	109.4
311.23	50
311.444	-40.11
311.658	-46.25
311.872	27.48
312.085	86.87
312.299	47.96
312.513	35.67
312.727	76.63
312.941	13.14
313.154	4.95
313.368	62.29
313.582	56.15
313.796	86.87
314.009	2.9
314.223	90.96
314.437	93.01
314.651	127.83
314.864	-70.83
315.078	29.52
315.292	-21.67
315.505	-13.48
315.719	-27.82
315.933	64.34
316.146	13.14
316.36	-44.2
316.573	72.53
316.787	84.82
317.001	19.29
317.214	13.14
317.428	39.76
317.641	-64.68
317.855	23.38
318.068	66.39
318.282	62.29
318.495	113.49
318.709	74.58
318.922	35.67
319.136	95.06
319.349	39.76
319.563	11.09
319.776	43.86
319.99	0.85
320.203	119.64
320.417	27.48
320.63	39.76
320.843	111.44
321.057	-3.24
321.27	54.1
321.483	27.48
321.697	136.02
321.91	-48.3
322.124	70.48
322.337	60.24
322.55	39.76
322.763	2.9
322.977	90.96
323.19	13.14
323.403	64.34
323.617	-11.43
323.83	146.26
324.043	52.05
324.256	-23.72
324.469	23.38
324.683	80.72
324.896	84.82
325.109	17.24
325.322	-19.63
325.535	-11.43
325.748	119.64
325.962	-9.39
326.175	62.29
326.388	64.34
326.601	43.86
326.814	37.72
327.027	-7.34
327.24	125.78
327.453	-52.39
327.666	64.34
327.879	103.25
328.092	50
328.305	2.9
328.518	29.52
328.731	-29.87
328.944	13.14
329.157	25.43
329.37	60.24
329.583	86.87
329.796	74.58
330.009	-5.29
330.222	56.15
330.435	27.48
330.648	-5.29
330.861	-3.24
331.073	64.34
331.286	15.19
331.499	70.48
331.712	-58.54
331.925	82.77
332.138	-54.44
332.35	52.05
332.563	0.85
332.776	58.2
332.989	2.9
333.202	17.24
333.414	11.09
333.627	37.72
333.84	58.2
334.053	35.67
334.265	33.62
334.478	64.34
334.691	52.05
334.903	45.91
335.116	-76.97
335.329	41.81
335.541	101.2
335.754	43.86
335.966	54.1
336.179	13.14
336.392	-23.72
336.604	35.67
336.817	103.25
337.029	-31.91
337.242	68.44
337.454	117.59
337.667	31.57
337.88	74.58
338.092	4.95
338.305	68.44
338.517	88.92
338.729	60.24
338.942	35.67
339.154	-3.24
339.367	-25.77
339.579	90.96
339.792	66.39
340.004	78.68
340.217	-21.67
340.429	29.52
340.641	19.29
340.854	9.05
341.066	47.96
341.278	33.62
341.491	115.54
341.703	13.14
341.915	25.43
342.128	72.53
342.34	50
342.552	-3.24
342.764	13.14
342.977	21.33
343.189	7
343.401	43.86
343.613	-5.29
343.826	25.43
344.038	13.14
344.25	86.87
344.462	29.52
344.674	80.72
344.886	82.77
345.099	62.29
345.311	-21.67
345.523	-74.92
345.735	-5.29
345.947	-27.82
346.159	66.39
346.371	54.1
346.583	-27.82
346.795	199.51
347.007	111.44
347.219	27.48
347.431	-60.59
347.643	111.44
347.855	56.15
348.067	13.14
348.279	-3.24
348.491	-38.06
348.703	72.53
348.915	-23.72
349.127	43.86
349.339	101.2
349.551	4.95
349.763	88.92
349.975	31.57
350.187	62.29
350.399	97.11
350.61	84.82
350.822	19.29
351.034	58.2
351.246	-1.19
351.458	125.78
351.669	68.44
351.881	33.62
352.093	47.96
352.305	39.76
352.517	-17.58
352.728	72.53
352.94	31.57
353.152	78.68
353.363	23.38
353.575	70.48
353.787	62.29
353.999	72.53
354.21	88.92
354.422	35.67
354.633	13.14
354.845	33.62
355.057	27.48
355.268	-40.11
355.48	37.72
355.692	21.33
355.903	41.81
356.115	19.29
356.326	-44.2
356.538	37.72
356.749	35.67
356.961	113.49
357.172	-70.83
357.384	-25.77
357.595	54.1
357.807	43.86
358.018	45.91
358.23	-11.43
358.441	125.78
358.653	-1.19
358.864	29.52
359.075	84.82
359.287	4.95
359.498	-11.43
359.709	62.29
359.921	37.72
360.132	54.1
360.344	50
360.555	2.9
360.766	41.81
360.977	-19.63
361.189	146.26
361.4	33.62
361.611	93.01
361.823	78.68
362.034	35.67
362.245	-15.53
362.456	19.29
362.667	-29.87
362.879	-27.82
363.09	99.16
363.301	-3.24
363.512	80.72
363.723	-44.2
363.935	-36.01
364.146	101.2
364.357	43.86
364.568	25.43
364.779	-23.72
364.99	152.4
365.201	23.38
365.412	88.92
365.623	-38.06
365.834	41.81
366.045	-36.01
366.256	58.2
366.467	47.96
366.678	70.48
366.889	37.72
367.1	4.95
367.311	68.44
367.522	19.29
367.733	86.87
367.944	29.52
368.155	11.09
368.366	-1.19
368.577	70.48
368.788	11.09
368.999	52.05
369.209	45.91
369.42	88.92
369.631	170.83
369.842	35.67
370.053	-27.82
370.264	70.48
370.474	13.14
370.685	29.52
370.896	56.15
371.107	111.44
371.317	66.39
371.528	-3.24
371.739	72.53
371.95	50
372.16	78.68
372.371	-19.63
372.582	60.24
372.792	23.38
373.003	117.59
373.214	25.43
373.424	82.77
373.635	0.85
373.846	50
374.056	50
374.267	50
374.477	9.05
374.688	-15.53
374.898	29.52
375.109	4.95
375.319	-40.11
375.53	115.54
375.74	64.34
375.951	41.81
376.161	-25.77
376.372	27.48
376.582	-5.29
376.793	54.1
377.003	72.53
377.214	-31.91
377.424	76.63
377.635	56.15
377.845	-15.53
378.055	101.2
378.266	-48.3
378.476	60.24
378.686	13.14
378.897	70.48
379.107	76.63
379.317	-5.29
379.528	58.2
379.738	29.52
379.948	-1.19
380.158	97.11
380.369	62.29
380.579	47.96
380.789	60.24
380.999	107.35
381.21	52.05
381.42	115.54
381.63	-11.43
381.84	129.88
382.05	45.91
382.261	54.1
382.471	111.44
382.681	66.39
382.891	117.59
383.101	70.48
383.311	-46.25
383.521	-52.39
383.731	90.96
383.941	113.49
384.151	66.39
384.361	4.95
384.571	39.76
384.781	31.57
384.991	133.97
385.201	54.1
385.411	117.59
385.621	78.68
385.831	15.19
386.041	60.24
386.251	47.96
386.461	54.1
386.671	39.76
386.881	109.4
387.091	45.91
387.301	43.86
387.511	-13.48
387.72	70.48
387.93	95.06
388.14	-66.73
388.35	66.39
388.56	97.11
388.769	72.53
388.979	-31.91
389.189	70.48
389.399	-7.34
389.609	131.92
389.818	144.21
390.028	62.29
390.238	95.06
390.447	-105.64
390.657	70.48
390.867	-38.06
391.076	-42.15
391.286	78.68
391.496	95.06
391.705	33.62
391.915	82.77
392.125	123.73
392.334	7
392.544	80.72
392.753	50
392.963	9.05
393.172	2.9
393.382	7
393.591	113.49
393.801	-52.39
394.01	88.92
394.22	80.72
394.429	70.48
394.639	60.24
394.848	58.2
395.058	50
395.267	64.34
395.477	82.77
395.686	103.25
395.895	146.26
396.105	172.88
396.314	11.09
396.524	0.85
396.733	50
396.942	119.64
397.152	4.95
397.361	68.44
397.57	9.05
397.78	39.76
397.989	76.63
398.198	203.6
398.407	39.76
398.617	39.76
398.826	78.68
399.035	125.78
399.244	150.36
399.453	35.67
399.663	90.96
399.872	121.68
400.081	13.14
400.29	70.48
400.499	-1.19
400.708	123.73
400.917	11.09
401.127	88.92
401.336	25.43
401.545	133.97
401.754	136.02
401.963	181.07
402.172	78.68
402.381	72.53
402.59	54.1
402.799	52.05
403.008	101.2
403.217	133.97
403.426	133.97
403.635	29.52
403.844	95.06
404.053	150.36
404.262	115.54
404.471	168.79
404.68	144.21
404.888	127.83
405.097	-7.34
405.306	131.92
405.515	133.97
405.724	109.4
405.933	138.07
406.142	43.86
406.35	156.5
406.559	99.16
406.768	142.16
406.977	217.94
407.185	115.54
407.394	181.07
407.603	129.88
407.812	170.83
408.02	201.55
408.229	191.31
408.438	150.36
408.646	119.64
408.855	142.16
409.064	129.88
409.272	162.64
409.481	234.32
409.69	172.88
409.898	119.64
410.107	250.71
410.315	228.18
410.524	176.98
410.733	203.6
410.941	230.23
411.15	244.56
411.358	349.01
411.567	291.66
411.775	236.37
411.984	256.85
412.192	273.23
412.401	273.23
412.609	326.48
412.818	285.52
413.026	336.72
413.234	322.38
413.443	363.34
413.651	314.19
413.86	414.54
414.068	486.22
414.276	424.78
414.485	365.39
414.693	484.17
414.901	496.46
415.11	441.17
415.318	494.41
415.526	547.66
415.734	508.75
415.943	559.95
416.151	668.49
416.359	568.14
416.567	588.62
416.776	643.92
416.984	625.48
417.192	717.64
417.4	688.97
417.608	648.01
417.817	590.67
418.025	717.64
418.233	875.34
418.441	785.23
418.649	738.12
418.857	840.52
419.065	922.44
419.273	727.88
419.481	889.67
419.689	992.07
419.897	959.3
420.105	942.92
420.313	1073.99
420.521	987.97
420.729	1024.84
420.937	1102.66
421.145	1223.49
421.353	1233.73
421.561	1246.02
421.769	1356.61
421.977	1289.03
422.185	1332.03
422.393	1426.24
422.601	1465.15
422.809	1583.93
423.017	1426.24
423.224	1622.84
423.432	1655.61
423.64	1502.01
423.848	1827.64
424.056	1667.9
424.263	1923.9
424.471	1901.37
424.679	1927.99
424.887	2032.44
425.094	2186.04
425.302	2116.41
425.51	2165.56
425.718	2175.8
425.925	2186.04
426.133	2270
426.341	2562.86
426.548	2476.85
426.756	2526
426.964	2556.72
427.171	2564.91
427.379	2736.94
427.586	2708.27
427.794	3019.56
428.001	3044.13
428.209	3144.49
428.417	3083.05
428.624	3287.84
428.832	3328.8
429.039	3214.12
429.247	3302.18
429.454	3584.8
429.662	3902.23
429.869	3734.3
430.076	3797.79
430.284	3717.92
430.491	3943.19
430.699	4125.46
430.906	4041.5
431.114	4047.64
431.321	4389.65
431.528	4381.46
431.736	4725.52
431.943	5022.47
432.15	4662.03
432.358	4768.52
432.565	5036.81
432.772	5010.18
432.979	5309.19
433.187	5309.19
433.394	5407.49
433.601	5837.56
433.808	5849.85
434.016	5583.62
434.223	5913.34
434.43	6372.08
434.637	6357.75
434.844	6525.68
435.052	6681.33
435.259	6693.62
435.466	6771.44
435.673	6523.63
435.88	7076.59
436.087	7443.17
436.294	7445.22
436.501	7252.71
436.708	7455.46
436.915	7629.54
437.122	8006.36
437.329	7836.38
437.537	8096.47
437.743	8284.89
437.95	8450.77
438.157	8817.36
438.364	8790.74
438.571	8991.44
438.778	8942.28
438.985	9775.81
439.192	9435.85
439.399	9652.93
439.606	9714.37
439.813	9882.3
440.02	10646.19
440.227	10443.45
440.433	10384.05
440.64	10871.47
440.847	10631.86
441.054	10803.89
441.261	11797.15
441.467	11494.05
441.674	11866.78
441.881	11924.13
442.088	12118.68
442.294	12024.48
442.501	12141.21
442.708	12638.87
442.914	13058.7
443.121	13589.13
443.328	13187.72
443.534	14125.69
443.741	13570.69
443.948	13402.76
444.154	14541.43
444.361	14436.99
444.568	14613.11
444.774	14379.64
444.981	14688.89
445.187	15272.56
445.394	15538.79
445.6	15557.22
445.807	16945.75
446.013	16132.7
446.22	16593.5
446.426	17068.62
446.633	17304.14
446.839	17721.93
447.046	16984.66
447.252	18025.03
447.459	18047.55
447.665	18053.7
447.871	18965.04
448.078	19999.27
448.284	18698.81
448.491	19016.24
448.697	19913.25
448.903	20167.2
449.11	20236.83
449.316	19747.37
449.522	20130.34
449.728	20578.84
449.935	20898.33
450.141	20828.7
450.347	21203.47
450.553	20638.23
450.76	20996.63
450.966	21561.87
451.172	21361.17
451.378	21936.65
451.584	21420.56
451.791	21944.84
451.997	21697.03
452.203	22440.45
452.409	22503.93
452.615	22004.23
452.821	21189.14
453.027	21107.22
453.233	21838.34
453.44	20935.19
453.646	21682.7
453.852	21467.66
454.058	21750.28
454.264	21201.43
454.47	21484.05
454.676	21058.07
454.882	21717.51
455.088	19751.46
455.294	20363.81
455.5	20529.69
455.705	20660.76
455.911	19776.04
456.117	19352.11
456.323	19081.78
456.529	18258.49
456.735	18942.52
456.941	18338.37
457.147	18096.71
457.352	17357.39
457.558	17216.08
457.764	17429.07
457.97	16972.37
458.176	16687.7
458.381	16495.19
458.587	15944.29
458.793	15811.17
458.999	14803.57
459.204	16300.64
459.41	15397.48
459.616	14637.69
459.821	14477.94
460.027	14465.66
460.233	14164.61
460.438	13562.5
460.644	13396.62
460.85	12868.24
461.055	12741.27
461.261	12589.72
461.466	11872.93
461.672	11485.86
461.878	12126.88
462.083	11397.8
462.289	11045.55
462.494	11070.12
462.7	10373.82
462.905	10199.74
463.111	10689.2
463.316	10644.15
463.522	10463.93
463.727	10322.62
463.932	10267.32
464.138	10099.39
464.343	10177.21
464.549	9865.92
464.754	10384.05
464.959	10173.11
465.165	10042.04
465.37	9530.05
465.575	9431.75
465.781	9867.97
465.986	9753.28
466.191	9454.28
466.397	9401.03
466.602	8809.17
466.807	9112.27
467.012	9358.02
467.218	9263.82
467.423	8870.61
467.628	9001.68
467.833	9267.91
468.038	9061.07
468.244	8753.87
468.449	9188.04
468.654	8678.1
468.859	8776.4
469.064	8555.22
469.269	8553.17
469.474	8477.4
469.679	8614.61
469.885	8293.08
470.09	8442.58
470.295	8360.66
470.5	8084.19
470.705	8299.22
470.91	7971.55
471.115	8086.23
471.32	8116.95
471.525	7975.64
471.73	7953.12
471.935	7842.53
472.139	7432.93
472.344	7566.05
472.549	7475.94
472.754	7394.02
472.959	7156.46
473.164	7103.21
473.369	7160.55
473.574	7365.35
473.778	6945.52
473.983	7262.95
474.188	7095.02
474.393	6785.77
474.598	6929.13
474.802	7002.86
475.007	6771.44
475.212	6685.42
475.417	6437.62
475.621	6511.35
475.826	6482.67
476.031	6347.51
476.235	6222.58
476.44	6312.69
476.645	6249.21
476.849	6066.94
477.054	6126.33
477.259	6111.99
477.463	6109.94
477.668	5942.01
477.872	5956.35
478.077	5831.42
478.282	5655.3
478.486	5882.62
478.691	5595.9
478.895	5485.31
479.1	5520.13
479.304	5659.39
479.509	5262.09
479.713	5669.63
479.918	5556.99
480.122	5262.09
480.326	5169.93
480.531	5362.44
480.735	5290.76
480.94	5255.94
481.144	5481.22
481.348	5190.41
481.553	5106.44
481.757	4975.37
481.961	5133.06
482.166	5395.2
482.37	5112.58
482.574	5141.25
482.778	5088.01
482.983	5167.88
483.187	5198.6
483.391	5235.46
483.595	5071.62
483.8	5071.62
484.004	5292.8
484.208	5155.59
484.412	5163.78
484.616	5092.1
484.821	4963.08
485.025	5024.52
485.229	5190.41
485.433	5045
485.637	5143.3
485.841	4924.17
486.045	5047.05
486.249	5032.71
486.453	5055.24
486.657	4983.56
486.861	5040.9
487.065	5026.57
487.269	5014.28
487.473	4983.56
487.677	5171.97
487.881	5229.32
488.085	5120.78
488.289	5100.3
488.493	5104.39
488.697	5100.3
488.901	5319.43
489.105	5180.17
489.309	5174.02
489.512	5329.67
489.716	5354.24
489.92	5239.56
490.124	5110.54
490.328	5296.9
490.531	5186.31
490.735	5178.12
490.939	5135.11
491.143	5251.85
491.346	5231.37
491.55	5278.47
491.754	5382.92
491.958	5288.71
492.161	5284.61
492.365	5266.18
492.569	5296.9
492.772	5344
492.976	5352.2
493.18	5352.2
493.383	5520.13
493.587	5405.44
493.79	5446.4
493.994	5462.79
494.197	5612.29
494.401	5571.33
494.605	5591.81
494.808	5620.48
495.012	5671.68
495.215	5706.49
495.419	5950.2
495.622	5612.29
495.825	5716.73
496.029	5821.18
496.232	5960.44
496.436	5911.29
496.639	6089.46
496.843	6075.13
497.046	6109.94
497.249	6181.62
497.453	6183.67
497.656	6167.29
497.859	6277.88
498.063	6269.69
498.266	6503.15
498.469	6501.11
498.673	6505.2
498.876	6656.75
499.079	6718.19
499.282	6677.23
499.485	7076.59
499.689	6980.33
499.892	6886.12
500.095	6980.33
500.298	7070.44
500.501	7207.66
500.705	7310.05
500.908	7525.09
501.111	7490.28
501.314	7453.41
501.517	7578.34
501.72	7539.43
501.923	7555.81
502.126	7869.15
502.329	8035.03
502.532	8071.9
502.735	8123.1
502.938	8116.95
503.141	8272.6
503.344	8393.43
503.547	8375
503.75	8407.77
503.953	8622.8
504.156	8674
504.359	8602.32
504.562	8495.83
504.765	9052.88
504.968	8991.44
505.17	9028.3
505.373	9138.89
505.576	9392.84
505.779	9329.35
505.982	9319.11
506.185	9671.36
506.387	9659.07
506.59	9626.31
506.793	9867.97
506.996	9882.3
507.198	10119.87
507.401	10037.95
507.604	10144.44
507.807	10373.82
508.009	10435.25
508.212	10539.7
508.415	10574.52
508.617	10744.5
508.82	10783.41
509.022	10705.59
509.225	10986.16
509.428	11057.84
509.63	11215.53
509.833	11178.67
510.035	11485.86
510.238	11369.13
510.44	11729.57
510.643	11596.45
510.845	11752.1
511.048	11836.06
511.25	11989.66
511.453	12036.77
511.655	12432.02
511.858	12303
512.06	12546.71
512.262	12507.8
512.465	12806.8
512.667	12675.73
512.87	12903.06
513.072	12817.04
513.274	13157
513.477	13009.55
513.679	13331.08
513.881	13388.43
514.084	13441.67
514.286	13593.22
514.488	13746.82
514.69	14037.63
514.893	13972.1
515.095	13881.99
515.297	14045.82
515.499	14117.5
515.701	14312.06
515.904	14344.83
516.106	14457.46
516.308	14652.02
516.51	14647.93
516.712	14754.42
516.914	15143.53
517.116	15192.69
517.318	15379.05
517.52	15290.99
517.722	15164.01
517.925	15391.34
518.127	15620.71
518.329	15733.35
518.531	15399.53
518.733	16034.4
518.935	15864.42
519.136	15968.87
519.338	16255.58
519.54	16372.32
519.742	16376.41
519.944	16544.34
520.146	16716.37
520.348	16712.28
520.55	16470.62
520.752	16665.18
520.954	17132.11
521.155	16943.7
521.357	16982.61
521.559	17619.53
521.761	17474.12
521.963	17463.88
522.164	17500.75
522.366	17633.86
522.568	17531.47
522.77	17582.67
522.971	17838.66
523.173	17867.33
523.375	18221.63
523.576	17816.13
523.778	17949.25
523.98	18240.06
524.181	18461.24
524.383	18211.39
524.584	18659.9
524.786	18453.05
524.988	18530.87
525.189	18700.86
525.391	18729.53
525.592	18862.65
525.794	18790.97
525.995	18807.35
526.197	18721.34
526.398	18858.55
526.6	19180.08
526.801	18960.95
527.003	19378.73
527.204	18934.32
527.406	19130.93
527.607	19028.53
527.808	19374.64
528.01	18922.04
528.211	19229.23
528.412	19708.46
528.614	19456.56
528.815	19427.88
529.016	19655.21
529.218	19405.36
529.419	19470.89
529.62	19479.08
529.822	19487.28
530.023	19511.85
530.224	19767.85
530.425	19462.7
530.626	19307.05
530.828	19556.91
531.029	20038.18
531.23	19552.81
531.431	19466.8
531.632	19540.52
531.833	19733.03
532.035	19622.44
532.236	19532.33
532.437	20048.42
532.638	19669.55
532.839	19642.92
533.04	19651.11
533.241	19425.84
533.442	19991.08
533.643	19567.15
533.844	19771.94
534.045	19552.81
534.246	19368.49
534.447	19745.32
534.648	19700.26
534.849	19702.31
535.05	19608.11
535.251	19722.79
535.451	19591.72
535.652	19913.25
535.853	19423.79
536.054	19749.42
536.255	19513.9
536.456	19632.68
536.657	19538.48
536.857	19558.95
537.058	19630.63
537.259	19649.07
537.46	19507.76
537.66	19487.28
537.861	19413.55
538.062	19403.31
538.263	19704.36
538.463	19653.16
538.664	19450.41
538.865	19667.5
539.065	19636.78
539.266	19483.18
539.466	19751.46
539.667	19812.9
539.868	19798.57
540.068	19425.84
540.269	19563.05
540.469	19712.55
540.67	19536.43
540.87	19497.52
541.071	19601.96
541.271	19534.38
541.472	19407.41
541.672	19534.38
541.873	19272.24
542.073	19192.37
542.274	19485.23
542.474	19442.22
542.675	19200.56
542.875	19323.44
543.075	19104.31
543.276	18829.88
543.476	19386.93
543.676	19399.21
543.877	19450.41
544.077	19546.67
544.277	19204.66
544.478	19399.21
544.678	19272.24
544.878	19452.46
545.078	19071.54
545.279	19008.05
545.479	19237.42
545.679	19251.76
545.879	19380.78
546.079	19474.99
546.28	19137.07
546.48	18909.75
546.68	19294.77
546.88	19059.25
547.08	19313.2
547.28	19194.42
547.48	18862.65
547.68	19300.91
547.88	19010.1
548.081	19153.46
548.281	19081.78
548.481	18874.93
548.681	19147.31
548.881	18977.33
549.081	19225.14
549.28	19178.03
549.48	19053.11
549.68	19075.63
549.88	19372.59
550.08	19044.91
550.28	19130.93
550.48	19165.74
550.68	19067.44
550.88	19102.26
551.08	19016.24
551.279	18915.89
551.479	19065.39
551.679	19130.93
551.879	18999.86
552.079	19198.51
552.278	18895.41
552.478	18987.57
552.678	18764.34
552.878	19001.91
553.077	18723.38
553.277	18608.7
553.477	19057.2
553.676	18915.89
553.876	18731.58
554.076	18815.54
554.275	18592.31
554.475	18604.6
554.674	18774.58
554.874	18930.23
555.074	18899.51
555.273	18840.12
555.473	19178.03
555.672	18803.25
555.872	18856.5
556.071	18893.37
556.271	19079.73
556.47	18893.37
556.67	18614.84
556.869	18594.36
557.068	18760.25
557.268	18610.75
557.467	18750.01
557.667	18893.37
557.866	18489.92
558.065	18731.58
558.265	18729.53
558.464	18485.82
558.663	18838.07
558.863	18432.57
559.062	18930.23
559.261	18543.16
559.461	19020.34
559.66	18215.49
559.859	18459.2
560.058	18348.61
560.258	18313.79
560.457	18326.08
560.656	18645.56
560.855	18524.73
561.054	18674.23
561.253	18475.58
561.453	18743.86
561.652	18534.97
561.851	18334.27
562.05	18403.9
562.249	18383.42
562.448	18803.25
562.647	18233.92
562.846	18242.11
563.045	18242.11
563.244	18334.27
563.443	18690.62
563.642	17984.07
563.841	18264.64
564.04	18360.89
564.239	18315.84
564.438	18209.34
564.637	18367.04
564.836	18602.55
565.035	18068.03
565.234	18326.08
565.432	18008.64
565.631	18154.05
565.83	18219.58
566.029	18170.43
566.228	18065.99
566.427	18180.67
566.625	18313.79
566.824	17936.96
567.023	18152
567.222	17721.93
567.42	18199.1
567.619	18115.14
567.818	17869.38
568.016	18135.62
568.215	18102.85
568.414	17836.61
568.612	18143.81
568.811	18078.27
569.01	18082.37
569.208	17848.9
569.407	18027.07
569.605	17717.83
569.804	18065.99
570.002	17850.95
570.201	17830.47
570.4	17717.83
570.598	17975.88
570.797	17717.83
570.995	17492.55
571.193	17418.83
571.392	17969.73
571.59	17734.21
571.789	17799.75
571.987	17789.51
572.186	17654.34
572.384	17517.13
572.582	17822.28
572.781	17756.74
572.979	17427.02
573.177	17754.69
573.376	17691.21
573.574	17441.36
573.772	17390.16
573.971	17568.33
574.169	17338.96
574.367	17281.61
574.565	17455.69
574.763	17308.24
574.962	17150.54
575.16	17060.43
575.358	17467.98
575.556	17060.43
575.754	17302.09
575.952	17097.3
576.151	17414.73
576.349	16931.41
576.547	17203.79
576.745	17136.21
576.943	17037.91
577.141	16929.36
577.339	17465.93
577.537	17130.06
577.735	16998.99
577.933	17027.67
578.131	17140.3
578.329	17072.72
578.527	16964.18
578.725	16962.13
578.923	16955.99
579.121	17048.15
579.319	17066.58
579.516	17119.82
579.714	17089.1
579.912	16763.48
580.11	16661.08
580.308	16837.2
580.506	16667.22
580.704	16548.44
580.901	16650.84
581.099	16710.23
581.297	16618.07
581.495	16685.65
581.692	16699.99
581.89	16265.82
582.088	16829.01
582.285	16661.08
582.483	16790.1
582.681	16806.48
582.878	16380.51
583.076	16312.92
583.274	16650.84
583.471	16413.27
583.669	16175.71
583.866	16075.36
584.064	16704.09
584.262	16294.49
584.459	16329.31
584.657	16384.6
584.854	16372.32
585.052	16038.5
585.249	16157.28
585.447	16190.05
585.644	15764.07
585.841	16106.08
586.039	16339.55
586.236	16306.78
586.434	16190.05
586.631	16282.2
586.828	16093.79
587.026	16204.38
587.223	16188
587.42	16024.16
587.618	15936.1
587.815	15942.24
588.012	15719.01
588.21	16024.16
588.407	15903.33
588.604	15825.51
588.801	15514.22
588.999	15768.16
589.196	15716.97
589.393	15731.3
589.59	15798.88
589.787	15796.84
589.984	15434.35
590.182	15649.38
590.379	15659.62
590.576	15501.93
590.773	15567.46
590.97	15377
591.167	15725.16
591.364	15540.84
591.561	15594.09
591.758	15553.13
591.955	15311.47
592.152	15784.55
592.349	15358.57
592.546	15698.53
592.743	15516.26
592.94	15268.46
593.137	15571.56
593.334	15483.5
593.531	15319.66
593.727	15473.26
593.924	15506.02
594.121	15067.76
594.318	15379.05
594.515	15258.22
594.712	15465.07
594.908	15430.25
595.105	15379.05
595.302	15315.56
595.499	15151.73
595.696	15073.9
595.892	15295.08
596.089	15348.33
596.286	15258.22
596.482	15323.76
596.679	15157.87
596.876	15381.1
597.072	15026.8
597.269	15252.08
597.466	15116.91
597.662	15098.48
597.859	15082.1
598.055	15200.88
598.252	15047.28
598.448	15071.86
598.645	15307.37
598.841	14881.39
599.038	15213.17
599.234	15342.19
599.431	14953.07
599.627	15190.64
599.824	15475.31
600.02	15010.42
600.217	15055.47
600.413	15237.74
600.609	14977.65
600.806	15176.3
601.002	15272.56
601.198	15112.81
601.395	15188.59
601.591	15184.49
601.787	15170.16
601.984	15135.34
602.18	15180.4
602.376	15053.42
602.572	14969.46
602.769	15110.77
602.965	14928.5
603.161	15139.44
603.357	15114.86
603.553	14928.5
603.75	15235.69
603.946	14852.72
604.142	15116.91
604.338	15078
604.534	15415.91
604.73	14965.36
604.926	14994.03
605.122	15270.51
605.318	15071.86
605.514	15250.03
605.71	15104.62
605.906	15340.14
606.102	15108.72
606.298	15301.23
606.494	15164.01
606.69	15356.52
606.886	15409.77
607.082	15317.61
607.278	15256.17
607.474	15055.47
607.67	15438.44
607.866	15041.14
608.062	15327.85
608.257	15372.91
608.453	15188.59
608.649	15280.75
608.845	15299.18
609.041	15493.74
609.236	15489.64
609.432	15168.11
609.628	15227.5
609.824	15526.5
610.019	15323.76
610.215	15585.9
610.411	15770.21
610.606	15649.38
610.802	15817.32
610.998	15653.48
611.193	15327.85
611.389	15669.86
611.584	15696.49
611.78	15563.37
611.976	15524.46
612.171	15938.15
612.367	15848.04
612.562	15544.94
612.758	15497.83
612.953	15508.07
613.149	15862.37
613.344	15848.04
613.539	15831.65
613.735	15876.71
613.93	15829.6
614.126	15927.91
614.321	16061.02
614.517	15884.9
614.712	15815.27
614.907	15913.57
615.103	16089.7
615.298	15831.65
615.493	16104.03
615.688	15813.22
615.884	16427.61
616.079	15757.92
616.274	16001.63
616.47	16171.61
616.665	16071.26
616.86	15901.28
617.055	16030.3
617.25	16185.95
617.445	16020.06
617.641	15956.58
617.836	16073.31
618.031	15960.67
618.226	16056.93
618.421	16370.27
618.616	16204.38
618.811	15868.52
619.006	16155.23
619.201	15909.47
619.396	16085.6
619.591	15811.17
619.786	16255.58
619.981	15751.78
620.176	16134.75
620.371	15616.62
620.566	16040.54
620.761	15938.15
620.956	15635.05
621.151	15671.91
621.346	15837.8
621.541	15633
621.735	15929.95
621.93	15293.04
622.125	15667.81
622.32	15372.91
622.515	15542.89
622.709	15542.89
622.904	15528.55
623.099	15213.17
623.294	15415.91
623.488	15391.34
623.683	15614.57
623.878	15110.77
624.072	15313.52
624.267	15497.83
624.462	15182.45
624.656	15000.18
624.851	15215.21
625.046	14910.07
625.24	14991.98
625.435	14862.96
625.629	14682.74
625.824	15012.46
626.018	14944.88
626.213	14596.73
626.407	14817.91
626.602	14910.07
626.796	14750.32
626.991	14725.75
627.185	14389.88
627.38	14383.74
627.574	14385.79
627.768	14371.45
627.963	14402.17
628.157	14449.27
628.352	14129.79
628.546	14201.47
628.74	14303.87
628.935	14137.98
629.129	14277.24
629.323	13937.28
629.517	13802.11
629.712	13996.67
629.906	13908.61
630.1	13787.78
630.294	13914.75
630.489	13621.89
630.683	13986.43
630.877	13574.79
631.071	13499.02
631.265	13523.59
631.459	13599.37
631.653	13404.81
631.848	13456.01
632.042	13363.85
632.236	13286.03
632.43	13537.93
632.624	13261.45
632.818	13109.9
633.012	13343.37
633.206	13240.97
633.4	12964.5
633.594	13019.79
633.788	12917.39
633.982	13105.81
634.176	12814.99
634.369	12726.93
634.563	12831.38
634.757	12683.92
634.951	12636.82
635.145	12366.49
635.339	12749.46
635.533	12561.05
635.726	12659.35
635.92	12397.21
636.114	12612.24
636.308	12216.99
636.501	12122.78
636.695	12161.69
636.889	11940.51
637.083	12075.68
637.276	11944.61
637.47	11844.26
637.664	11967.13
637.857	11948.7
638.051	11811.49
638.244	11838.11
638.438	11678.37
638.632	11717.28
638.825	11502.25
639.019	11594.4
639.212	11401.9
639.406	11485.86
639.599	11158.19
639.793	11416.23
639.986	11037.36
640.18	11352.74
640.373	11178.67
640.567	10873.52
640.76	10877.62
640.954	10957.49
641.147	10881.71
641.34	10902.19
641.534	10928.81
641.727	10781.36
641.92	10822.32
642.114	10707.63
642.307	10597.04
642.5	10379.96
642.694	10316.47
642.887	10416.82
643.08	10369.72
643.273	10443.45
643.467	10345.14
643.66	9927.36
643.853	9982.65
644.046	10189.5
644.239	10140.35
644.432	9919.17
644.626	9929.41
644.819	9757.38
645.012	9884.35
645.205	9761.47
645.398	9665.22
645.591	9663.17
645.784	9407.17
645.977	9304.78
646.17	9530.05
646.363	9372.36
646.556	9153.23
646.749	9241.29
646.942	9179.85
647.135	9171.66
647.328	9331.4
647.521	9089.74
647.714	8917.71
647.907	8811.21
648.099	8749.78
648.292	8807.12
648.485	8788.69
648.678	8688.34
648.871	8784.59
649.064	8446.68
649.256	8753.87
649.449	8585.94
649.642	8571.6
649.835	8372.95
650.027	8415.96
650.22	8483.54
650.413	8266.46
650.605	8243.93
650.798	8106.71
650.991	8143.58
651.183	8026.84
651.376	8149.72
651.568	8014.56
651.761	7928.54
651.954	7838.43
652.146	7832.29
652.339	7961.31
652.531	7887.58
652.724	7684.83
652.916	7539.43
653.109	7457.51
653.301	7703.26
653.494	7801.57
653.686	7488.23
653.879	7488.23
654.071	7484.13
654.263	7283.43
654.456	7404.26
654.648	7400.16
654.84	7221.99
655.033	7389.92
655.225	7076.59
655.417	7070.44
655.61	7105.26
655.802	7142.12
655.994	7009
656.186	6918.89
656.379	6918.89
656.571	6832.88
656.763	6834.93
656.955	6847.21
657.148	6693.62
657.34	6712.05
657.532	6595.31
657.724	6671.09
657.916	6540.02
658.108	6714.09
658.3	6566.64
658.492	6580.98
658.684	6419.19
658.876	6449.91
659.068	6306.55
659.26	6087.42
659.452	6023.93
659.644	6224.63
659.836	6040.31
660.028	6071.03
660.22	6064.89
660.412	6099.7
660.604	5952.25
660.796	5808.89
660.988	5860.09
661.18	6130.42
661.372	5741.31
661.563	5761.79
661.755	5630.72
661.947	5776.13
662.139	5704.45
662.331	5696.25
662.522	5454.59
662.714	5501.7
662.906	5364.48
663.097	5475.07
663.289	5262.09
663.481	5413.63
663.673	5462.79
663.864	5190.41
664.056	5204.74
664.247	5311.24
664.439	5122.82
664.631	5032.71
664.822	5128.97
665.014	5257.99
665.205	5161.73
665.397	5051.14
665.588	4958.99
665.78	5059.34
665.971	4961.03
666.163	4889.35
666.354	5022.47
666.546	4776.72
666.737	4819.72
666.929	4795.15
667.12	4948.75
667.311	4746
667.503	4723.47
667.694	4842.25
667.885	4664.08
668.077	4619.02
668.268	4625.17
668.459	4682.51
668.651	4707.09
668.842	4621.07
669.033	4590.35
669.224	4508.43
669.416	4754.19
669.607	4490
669.798	4422.42
669.989	4461.33
670.18	4279.06
670.371	4451.09
670.563	4322.07
670.754	4305.68
670.945	4225.81
671.136	4475.67
671.327	4152.09
671.518	4299.54
671.709	4381.46
671.9	4330.26
672.091	4246.29
672.282	4311.83
672.473	4025.11
672.664	4023.06
672.855	4227.86
673.046	4090.65
673.237	4197.14
673.428	4053.78
673.619	4141.85
673.809	3984.15
674	3975.96
674.191	4094.74
674.382	4023.06
674.573	4027.16
674.764	4057.88
674.954	4150.04
675.145	4033.3
675.336	3943.19
675.527	3955.48
675.717	3867.42
675.908	3984.15
676.099	3924.76
676.289	3857.18
676.48	3826.46
676.671	3711.77
676.861	3969.82
677.052	3722.01
677.243	3930.91
677.433	3832.6
677.624	3851.03
677.814	3898.14
678.005	3900.19
678.195	3828.51
678.386	3773.21
678.576	3779.36
678.767	3615.52
678.957	3691.29
679.148	3857.18
679.338	3803.93
679.529	3779.36
679.719	3801.88
679.909	3816.22
680.1	3820.32
680.29	3785.5
680.481	3724.06
680.671	3771.16
680.861	3885.85
681.052	3736.35
681.242	3670.81
681.432	3742.49
681.622	3607.33
681.813	3461.92
682.003	3830.55
682.193	3730.2
682.383	3797.79
682.573	3672.86
682.764	3592.99
682.954	3722.01
683.144	3595.04
683.334	3578.65
683.524	3525.41
683.714	3805.98
683.904	3814.17
684.094	3646.24
684.284	3726.11
684.474	3769.12
684.664	3650.33
684.854	3531.55
685.044	3672.86
685.234	3556.13
685.424	3705.63
685.614	3496.74
685.804	3664.67
685.994	3574.56
686.184	3613.47
686.374	3775.26
686.564	3488.54
686.753	3392.29
686.943	3509.02
687.133	3668.77
687.323	3543.84
687.513	3541.79
687.702	3486.5
687.892	3560.22
688.082	3568.41
688.272	3586.85
688.461	3472.16
688.651	3703.58
688.841	3693.34
689.03	3476.26
689.22	3429.15
689.41	3474.21
689.599	3445.54
689.789	3527.46
689.979	3494.69
690.168	3570.46
690.358	3543.84
690.547	3474.21
690.737	3621.66
690.926	3511.07
691.116	3584.8
691.305	3625.76
691.495	3437.34
691.684	3394.34
691.874	3547.94
692.063	3607.33
692.252	3490.59
692.442	3529.5
692.631	3509.02
692.82	3423.01
693.01	3478.3
693.199	3484.45
693.388	3416.87
693.578	3416.87
693.767	3482.4
693.956	3525.41
694.146	3506.98
694.335	3472.16
694.524	3537.7
694.713	3562.27
694.902	3375.91
695.092	3380
695.281	3517.22
695.47	3451.68
695.659	3566.37
695.848	3541.79
696.037	3351.33
696.226	3445.54
696.415	3474.21
696.604	3517.22
696.793	3552.03
696.982	3398.43
697.171	3674.91
697.36	3654.43
697.549	3584.8
697.738	3451.68
697.927	3554.08
698.116	3572.51
698.305	3623.71
698.494	3601.18
698.683	3640.09
698.872	3519.26
699.061	3603.23
699.25	3599.13
699.438	3744.54
699.627	3621.66
699.816	3705.63
700.005	3486.5
700.193	3691.29
700.382	3531.55
700.571	3531.55
700.76	3625.76
700.948	3605.28
701.137	3592.99
701.326	3691.29
701.514	3549.98
701.703	3676.96
701.892	3549.98
702.08	3732.25
702.269	3566.37
702.457	3681.05
702.646	3504.93
702.834	3613.47
703.023	3623.71
703.212	3566.37
703.4	3541.79
703.589	3486.5
703.777	3762.97
703.965	3638.05
704.154	3613.47
704.342	3646.24
704.531	3623.71
704.719	3476.26
704.907	3627.81
705.096	3535.65
705.284	3574.56
705.472	3588.89
705.661	3642.14
705.849	3633.95
706.037	3672.86
706.226	3691.29
706.414	3588.89
706.602	3617.57
706.79	3574.56
706.979	3613.47
707.167	3457.82
707.355	3574.56
707.543	3701.53
707.731	3609.37
707.919	3552.03
708.107	3603.23
708.296	3582.75
708.484	3568.41
708.672	3724.06
708.86	3525.41
709.048	3607.33
709.236	3607.33
709.424	3605.28
709.612	3535.65
709.8	3683.1
709.988	3668.77
710.176	3562.27
710.364	3535.65
710.551	3574.56
710.739	3504.93
710.927	3621.66
711.115	3615.52
711.303	3492.64
711.491	3527.46
711.679	3351.33
711.866	3517.22
712.054	3537.7
712.242	3468.06
712.43	3549.98
712.617	3457.82
712.805	3494.69
712.993	3447.58
713.181	3453.73
713.368	3500.83
713.556	3500.83
713.744	3502.88
713.931	3625.76
714.119	3578.65
714.306	3472.16
714.494	3470.11
714.682	3500.83
714.869	3320.61
715.057	3580.7
715.244	3361.57
715.432	3511.07
715.619	3582.75
715.807	3410.72
715.994	3461.92
716.182	3480.35
716.369	3459.87
716.556	3463.97
716.744	3429.15
716.931	3457.82
717.119	3549.98
717.306	3494.69
717.493	3451.68
717.681	3427.11
717.868	3459.87
718.055	3457.82
718.242	3382.05
718.43	3441.44
718.617	3410.72
718.804	3388.19
718.991	3359.52
719.179	3423.01
719.366	3380
719.553	3392.29
719.74	3322.66
719.927	3347.23
720.114	3394.34
720.301	3371.81
720.488	3375.91
720.676	3324.71
720.863	3332.9
721.05	3619.61
721.237	3347.23
721.424	3384.1
721.611	3355.43
721.798	3336.99
721.985	3277.6
722.172	3382.05
722.358	3285.8
722.545	3318.56
722.732	3287.84
722.919	3351.33
723.106	3347.23
723.293	3357.47
723.48	3271.46
723.667	3230.5
723.853	3287.84
724.04	3293.99
724.227	3269.41
724.414	3216.16
724.6	3162.92
724.787	3246.88
724.974	3226.4
725.161	3332.9
725.347	3109.67
725.534	3289.89
725.72	3255.08
725.907	3244.84
726.094	3193.64
726.28	3152.68
726.467	3177.25
726.653	3121.96
726.84	3224.36
727.027	3320.61
727.213	3144.49
727.4	3238.69
727.586	3105.57
727.773	3164.97
727.959	2962.22
728.145	3271.46
728.332	3207.97
728.518	3128.1
728.705	3103.53
728.891	3093.29
729.077	3234.6
729.264	3218.21
729.45	2992.94
729.636	3095.33
729.823	2937.64
730.009	3146.53
730.195	3115.81
730.382	3119.91
730.568	3095.33
730.754	3134.25
730.94	3115.81
731.126	3015.46
731.313	3007.27
731.499	3050.28
731.685	2999.08
731.871	3003.18
732.057	3044.13
732.243	3152.68
732.429	2935.59
732.615	3095.33
732.801	3027.75
732.987	3076.9
733.173	3001.13
733.359	2853.67
733.545	2974.5
733.731	2943.78
733.917	2927.4
734.103	2935.59
734.289	3033.9
734.475	2933.54
734.661	2949.93
734.847	3001.13
735.033	3009.32
735.219	2849.58
735.404	2892.59
735.59	2974.5
735.776	2894.63
735.962	2878.25
736.148	2882.35
736.333	2853.67
736.519	2816.81
736.705	2865.96
736.89	2859.82
737.076	2831.15
737.262	2765.61
737.447	2718.51
737.633	2853.67
737.819	2767.66
738.004	2855.72
738.19	2802.47
738.375	2710.32
738.561	2790.19
738.747	2784.04
738.932	2671.4
739.118	2814.76
739.303	2726.7
739.489	2681.64
739.674	2679.6
739.859	2730.8
740.045	2716.46
740.23	2702.12
740.416	2589.49
740.601	2564.91
740.786	2712.36
740.972	2566.96
741.157	2624.3
741.342	2601.77
741.528	2632.49
741.713	2583.34
741.898	2497.33
742.084	2562.86
742.269	2577.2
742.454	2564.91
742.639	2515.76
742.824	2554.67
743.01	2612.01
743.195	2564.91
743.38	2425.65
743.565	2452.27
743.75	2509.62
743.935	2460.46
744.12	2491.18
744.305	2362.16
744.49	2439.98
744.675	2540.33
744.86	2374.45
745.045	2405.17
745.23	2302.77
745.415	2282.29
745.6	2392.88
745.785	2259.76
745.97	2204.47
746.155	2462.51
746.34	2323.25
746.525	2329.39
746.71	2286.39
746.895	2206.52
747.079	2181.94
747.264	2227
747.449	2196.28
747.634	2243.38
747.819	2208.56
748.003	2210.61
748.188	2079.54
748.373	2212.66
748.557	2026.29
748.742	2157.36
748.927	2095.93
749.111	2026.29
749.296	2143.03
749.481	2149.17
749.665	2022.2
749.85	2083.64
750.034	1956.66
750.219	1960.76
750.404	2046.77
750.588	2034.49
750.773	1934.14
750.957	1930.04
751.141	1917.75
751.326	1837.88
751.51	1874.74
751.695	1932.09
751.879	1878.84
752.064	1975.1
752.248	1895.22
752.432	1825.59
752.617	1864.5
752.801	1917.75
752.985	1844.03
753.17	1831.74
753.354	1880.89
753.538	1815.35
753.722	1782.59
753.907	1735.48
754.091	1735.48
754.275	1762.11
754.459	1690.43
754.643	1665.85
754.828	1758.01
755.012	1700.67
755.196	1706.81
755.38	1626.94
755.564	1538.88
755.748	1545.02
755.932	1647.42
756.116	1604.41
756.3	1622.84
756.484	1471.29
756.668	1602.36
756.852	1567.55
757.036	1526.59
757.22	1502.01
757.404	1502.01
757.588	1563.45
757.772	1534.78
757.956	1545.02
758.14	1631.04
758.323	1426.24
758.507	1540.93
758.691	1516.35
758.875	1485.63
759.059	1530.69
759.242	1444.67
759.426	1420.1
759.61	1522.49
759.794	1389.38
759.977	1463.1
760.161	1504.06
760.345	1407.81
760.528	1409.86
760.712	1379.14
760.895	1436.48
761.079	1383.23
761.263	1366.85
761.446	1354.56
761.63	1354.56
761.813	1452.86
761.997	1338.18
762.18	1391.42
762.364	1383.23
762.547	1246.02
762.731	1231.68
762.914	1250.11
763.098	1229.63
763.281	1225.54
763.464	1338.18
763.648	1276.74
763.831	1229.63
764.015	1207.11
764.198	1157.96
764.381	1256.26
764.564	1264.45
764.748	1221.44
764.931	1227.59
765.114	1178.44
765.297	1297.22
765.481	1143.62
765.664	1160
765.847	1215.3
766.03	1203.01
766.213	1135.43
766.397	1129.28
766.58	1174.34
766.763	1221.44
766.946	1108.8
767.129	1174.34
767.312	1184.58
767.495	1149.76
767.678	1129.28
767.861	1162.05
768.044	1272.64
768.227	1184.58
768.41	1135.43
768.593	1168.2
768.776	1147.72
768.959	1229.63
769.142	1151.81
769.324	1137.48
769.507	1119.04
769.69	1117
769.873	1135.43
770.056	1205.06
770.239	1014.6
770.421	1184.58
770.604	1076.04
770.787	1092.42
770.97	1045.32
771.152	1086.28
771.335	1053.51
771.518	1018.69
771.7	1067.85
771.883	1045.32
772.066	1024.84
772.248	1151.81
772.431	1057.61
772.613	1094.47
772.796	979.78
772.978	1000.26
773.161	1061.7
773.343	951.11
773.526	1024.84
773.708	895.82
773.891	842.57
774.073	969.54
774.256	951.11
774.438	1057.61
774.621	897.86
774.803	961.35
774.985	934.73
775.168	944.97
775.35	895.82
775.532	967.49
775.715	938.82
775.897	877.38
776.079	844.62
776.261	901.96
776.444	889.67
776.626	881.48
776.808	848.71
776.99	758.6
777.173	881.48
777.355	729.93
777.537	914.25
777.719	867.14
777.901	840.52
778.083	793.42
778.265	766.79
778.447	795.47
778.629	674.64
778.811	764.75
778.993	840.52
779.175	854.86
779.357	754.51
779.539	645.96
779.721	807.75
779.903	832.33
780.085	719.69
780.267	756.55
780.449	793.42
780.631	785.23
780.812	734.03
780.994	813.9
781.176	682.83
781.358	691.02
781.54	652.11
781.721	713.55
781.903	846.66
782.085	672.59
782.267	852.81
782.448	676.68
782.63	648.01
782.812	674.64
782.993	709.45
783.175	693.07
783.357	691.02
783.538	641.87
783.72	643.92
783.901	658.25
784.083	629.58
784.264	637.77
784.446	668.49
784.627	676.68
784.809	572.24
784.99	492.37
785.172	631.63
785.353	543.57
785.535	572.24
785.716	574.28
785.897	600.91
786.079	602.96
786.26	621.39
786.441	516.94
786.623	541.52
786.804	564.04
786.985	602.96
787.167	584.52
787.348	510.8
787.529	480.08
787.71	557.9
787.891	619.34
788.073	533.33
788.254	537.42
788.435	484.17
788.616	578.38
788.797	445.26
788.978	484.17
789.159	502.61
789.34	480.08
789.522	551.76
789.703	392.02
789.884	480.08
790.065	482.13
790.246	510.8
790.427	424.78
790.607	539.47
790.788	549.71
790.969	398.16
791.15	488.27
791.331	402.26
791.512	469.84
791.693	334.67
791.874	447.31
792.054	492.37
792.235	410.45
792.416	416.59
792.597	471.89
792.778	406.35
792.958	480.08
793.139	455.5
793.32	463.69
793.5	353.1
793.681	396.11
793.862	383.82
794.042	420.69
794.223	353.1
794.404	412.5
794.584	367.44
794.765	369.49
794.945	422.73
795.126	437.07
795.306	471.89
795.487	238.42
795.667	338.77
795.848	478.03
796.028	387.92
796.209	379.73
796.389	437.07
796.57	355.15
796.75	242.51
796.93	377.68
797.111	371.54
797.291	277.33
797.471	379.73
797.652	361.3
797.832	338.77
798.012	346.96
798.192	357.2
798.373	363.34
798.553	334.67
798.733	258.9
798.913	258.9
799.093	258.9
799.274	375.63
799.454	332.62
799.634	336.72
799.814	316.24
799.994	367.44
800.174	365.39
800.354	336.72
800.534	226.13
800.714	342.86
800.894	201.55
801.074	297.81
801.254	289.62
801.434	373.58
801.614	256.85
801.794	168.79
801.974	1207.11
802.154	246.61
802.334	375.63
802.514	244.56
802.693	252.75
802.873	262.99
803.053	291.66
803.233	285.52
803.413	209.75
803.592	322.38
803.772	254.8
803.952	301.9
804.131	252.75
804.311	346.96
804.491	275.28
804.67	242.51
804.85	250.71
805.03	281.43
805.209	332.62
805.389	299.86
805.568	226.13
805.748	285.52
805.928	189.27
806.107	303.95
806.287	267.09
806.466	224.08
806.646	258.9
806.825	228.18
807.004	246.61
807.184	213.84
807.363	295.76
807.543	273.23
807.722	193.36
807.901	234.32
808.081	222.03
808.26	158.55
808.439	226.13
808.619	211.79
808.798	131.92
808.977	197.46
809.156	260.95
809.336	211.79
809.515	281.43
809.694	113.49
809.873	240.47
810.052	232.27
810.231	181.07
810.411	174.93
810.59	254.8
810.769	205.65
810.948	234.32
811.127	111.44
811.306	179.03
811.485	275.28
811.664	250.71
811.843	176.98
812.022	201.55
812.201	127.83
812.38	234.32
812.559	127.83
812.737	160.59
812.916	107.35
813.095	144.21
813.274	201.55
813.453	172.88
813.632	279.38
813.811	205.65
813.989	109.4
814.168	230.23
814.347	160.59
814.526	236.37
814.704	254.8
814.883	320.34
815.062	240.47
815.24	183.12
815.419	162.64
815.598	205.65
815.776	103.25
815.955	203.6
816.133	179.03
816.312	107.35
816.49	115.54
816.669	176.98
816.847	207.7
817.026	129.88
817.204	127.83
817.383	152.4
817.561	148.31
817.74	201.55
817.918	176.98
818.097	166.74
818.275	123.73
818.453	160.59
818.632	166.74
818.81	166.74
818.988	99.16
819.167	162.64
819.345	160.59
819.523	156.5
819.701	228.18
819.879	185.17
820.058	97.11
820.236	183.12
820.414	113.49
820.592	78.68
820.77	113.49
820.948	144.21
821.127	82.77
821.305	97.11
821.483	176.98
821.661	138.07
821.839	101.2
822.017	119.64
822.195	109.4
822.373	238.42
822.551	123.73
822.729	156.5
822.907	111.44
823.085	146.26
823.262	72.53
823.44	152.4
823.618	150.36
823.796	129.88
823.974	129.88
824.152	127.83
824.329	103.25
824.507	129.88
824.685	111.44
824.863	103.25
825.04	95.06
825.218	185.17
825.396	93.01
825.574	129.88
825.751	74.58
825.929	101.2
826.107	105.3
826.284	142.16
826.462	150.36
826.639	21.33
826.817	35.67
826.994	105.3
827.172	80.72
827.349	176.98
827.527	33.62
827.704	176.98
827.882	226.13
828.059	78.68
828.237	33.62
828.414	179.03
828.591	80.72
828.769	115.54
828.946	88.92
829.124	101.2
829.301	158.55
829.478	123.73
829.655	107.35
829.833	115.54
830.01	80.72
830.187	154.45
830.364	170.83
830.542	101.2
830.719	148.31
830.896	119.64
831.073	158.55
831.25	74.58
831.427	13.14
831.604	2.9
831.782	15.19
831.959	29.52
832.136	2.9
832.313	107.35
832.49	72.53
832.667	115.54
832.844	103.25
833.021	86.87
833.198	125.78
833.374	117.59
833.551	86.87
833.728	56.15
833.905	121.68
834.082	-21.67
834.259	41.81
834.436	105.3
834.612	2.9
834.789	93.01
834.966	129.88
835.143	35.67
835.319	-13.48
835.496	88.92
835.673	142.16
835.85	72.53
836.026	131.92
836.203	148.31
836.38	95.06
836.556	-7.34
836.733	11.09
836.909	95.06
837.086	21.33
837.262	60.24
837.439	62.29
837.616	33.62
837.792	0.85
837.968	119.64
838.145	-23.72
838.321	131.92
838.498	41.81
838.674	101.2
838.851	19.29
839.027	54.1
839.203	17.24
839.38	4.95
839.556	68.44
839.732	58.2
839.909	113.49
840.085	58.2
840.261	7
840.437	101.2
840.614	0.85
840.79	107.35
840.966	19.29
841.142	70.48
841.318	4.95
841.494	80.72
841.671	80.72
841.847	45.91
842.023	-31.91
842.199	121.68
842.375	93.01
842.551	-7.34
842.727	-25.77
842.903	101.2
843.079	-11.43
843.255	136.02
843.431	33.62
843.607	88.92
843.783	-15.53
843.959	131.92
844.134	-17.58
844.31	54.1
844.486	43.86
844.662	68.44
844.838	4.95
845.013	117.59
845.189	54.1
845.365	56.15
845.541	99.16
845.716	45.91
845.892	37.72
846.068	80.72
846.244	-5.29
846.419	86.87
846.595	15.19
846.77	-5.29
846.946	99.16
847.122	-54.44
847.297	7
847.473	78.68
847.648	25.43
847.824	50
847.999	-42.15
848.175	2.9
848.35	72.53
848.526	117.59
848.701	43.86
848.876	97.11
849.052	138.07
849.227	64.34
849.403	-13.48
849.578	15.19
849.753	43.86
849.929	166.74
850.104	-25.77
850.279	-9.39
850.454	37.72
850.63	27.48
850.805	66.39
850.98	127.83
851.155	-38.06
851.33	19.29
851.505	-91.31
851.681	111.44
851.856	35.67
852.031	90.96
852.206	54.1
852.381	23.38
852.556	-38.06
852.731	33.62
852.906	4.95
853.081	23.38
853.256	95.06
853.431	74.58
853.606	-38.06
853.781	150.36
853.956	-1.19
854.131	29.52
854.305	-7.34
854.48	50
854.655	68.44
854.83	70.48
855.005	-40.11
855.18	58.2
855.354	23.38
855.529	80.72
855.704	25.43
855.879	84.82
856.053	-19.63
856.228	60.24
856.403	-9.39
856.577	41.81
856.752	-44.2
856.926	21.33
857.101	-11.43
857.276	-101.55
857.45	74.58
857.625	88.92
857.799	-48.3
857.974	43.86
858.148	-19.63
858.323	86.87
858.497	-3.24
858.672	64.34
858.846	62.29
859.02	107.35
859.195	19.29
859.369	23.38
859.543	86.87
859.718	54.1
859.892	27.48
860.066	-15.53
860.241	-19.63
860.415	-36.01
860.589	-52.39
860.763	45.91
860.938	13.14
861.112	7
861.286	21.33
861.46	-27.82
861.634	-1.19
861.808	99.16
861.982	21.33
862.157	-91.31
862.331	41.81
862.505	-9.39
862.679	-33.96
862.853	25.43
863.027	29.52
863.201	215.89
863.375	-19.63
863.549	21.33
863.722	2.9
863.896	33.62
864.07	9.05
864.244	-25.77
864.418	84.82
864.592	52.05
864.766	-68.78
864.939	45.91
865.113	-50.35
865.287	103.25
865.461	-17.58
865.634	-5.29
865.808	37.72
865.982	25.43
866.156	-3.24
866.329	15.19
866.503	-21.67
866.676	64.34
866.85	93.01
867.024	-19.63
867.197	56.15
867.371	-19.63
867.544	19.29
867.718	-42.15
867.891	84.82
868.065	35.67
868.238	-70.83
868.412	133.97
868.585	2.9
868.759	-46.25
868.932	-54.44
869.105	-17.58
869.279	-44.2
869.452	-46.25
869.625	39.76
869.799	68.44
869.972	-15.53
870.145	0.85
870.319	9.05
870.492	21.33
870.665	-72.87
870.838	-15.53
871.011	-60.59
871.185	68.44
871.358	-81.07
871.531	7
871.704	43.86
871.877	-21.67
872.05	4.95
872.223	-38.06
872.396	117.59
872.569	39.76
872.742	-60.59
872.915	117.59
873.088	35.67
873.261	0.85
873.434	37.72
873.607	7
873.78	62.29
873.953	-48.3
874.126	52.05
874.299	35.67
874.471	-13.48
874.644	74.58
874.817	74.58
874.99	19.29
875.163	-15.53
875.335	-44.2
875.508	29.52
875.681	27.48
875.853	39.76
876.026	0.85
876.199	0.85
876.371	-17.58
876.544	-21.67
876.717	52.05
876.889	-25.77
877.062	17.24
877.234	-60.59
877.407	9.05
877.579	19.29
877.752	-62.63
877.924	-76.97
878.097	-27.82
878.269	50
878.442	-17.58
878.614	33.62
878.786	9.05
878.959	-3.24
879.131	82.77
879.303	-66.73
879.476	-3.24
879.648	15.19
879.82	-5.29
879.993	-42.15
880.165	-38.06
880.337	-52.39
880.509	52.05
880.681	-58.54
880.854	-50.35
881.026	56.15
881.198	25.43
881.37	-3.24
881.542	33.62
881.714	-46.25
881.886	7
882.058	-17.58
882.23	35.67
882.402	-5.29
882.574	-3.24
882.746	33.62
882.918	27.48
883.09	43.86
883.262	-1.19
883.434	21.33
883.606	-91.31
883.778	4.95
883.95	19.29
884.122	45.91
884.293	45.91
884.465	-5.29
884.637	45.91
884.809	-23.72
884.98	15.19
885.152	7
885.324	43.86
885.496	-5.29
885.667	-21.67
885.839	-42.15
886.011	86.87
886.182	27.48
886.354	-5.29
886.525	11.09
886.697	37.72
886.869	13.14
887.04	-93.35
887.212	58.2
887.383	23.38
887.555	23.38
887.726	97.11
887.897	-29.87
888.069	37.72
888.24	35.67
888.412	-60.59
888.583	-15.53
888.754	45.91
888.926	-52.39
889.097	-23.72
889.268	-58.54
889.44	-27.82
889.611	9.05
889.782	62.29
889.953	17.24
890.125	37.72
890.296	0.85
890.467	-29.87
890.638	-23.72
890.809	4.95
890.98	19.29
891.151	54.1
891.323	37.72
891.494	-50.35
891.665	-17.58
891.836	-11.43
892.007	-27.82
892.178	25.43
892.349	0.85
892.52	2.9
892.691	19.29
892.862	-21.67
893.032	-36.01
893.203	-11.43
893.374	13.14
893.545	76.63
893.716	-29.87
893.887	-23.72
894.057	-36.01
894.228	-15.53
894.399	-15.53
894.57	13.14
894.74	19.29
894.911	11.09
895.082	-91.31
895.253	-38.06
895.423	-7.34
895.594	76.63
895.764	-33.96
895.935	-46.25
896.106	41.81
896.276	54.1
896.447	7
896.617	-15.53
896.788	-17.58
896.958	15.19
897.129	7
897.299	29.52
897.47	43.86
897.64	-29.87
897.81	-48.3
897.981	15.19
898.151	-62.63
898.322	35.67
898.492	-7.34
898.662	15.19
898.832	-7.34
899.003	-50.35
899.173	13.14
899.343	-56.49
899.513	-68.78
