Data from USB4F104151__17__12-11-38-110.txt Node

Date: Fri Mar 14 12:11:38 EDT 2025
User: louis
Spectrometer: USB4F10415
Trigger mode: 4
Integration Time (sec): 5.000000E-2
Scans to average: 1
Electric dark correction enabled: true
Nonlinearity correction enabled: false
Boxcar width: 0
XAxis mode: Wavelengths
Number of Pixels in Spectrum: 3648
>>>>>Begin Spectral Data<<<<<
178.204	-209.06
178.424	-209.06
178.644	-209.06
178.864	-215.21
179.084	-188.58
179.304	10.07
179.524	46.93
179.744	-53.42
179.964	24.4
180.184	-20.65
180.404	-39.08
180.624	12.12
180.844	-30.89
181.064	-22.7
181.283	-26.79
181.503	38.74
181.723	61.27
181.943	-49.32
182.163	118.61
182.383	3.93
182.602	55.12
182.822	77.65
183.042	53.08
183.262	30.55
183.482	36.69
183.701	8.02
183.921	55.12
184.141	10.07
184.361	65.36
184.58	114.52
184.8	8.02
185.02	20.31
185.239	57.17
185.459	85.84
185.679	48.98
185.898	-18.6
186.118	89.94
186.338	32.6
186.557	65.36
186.777	1.88
186.997	-0.17
187.216	67.41
187.436	112.47
187.655	59.22
187.875	32.6
188.095	-6.31
188.314	83.8
188.534	85.84
188.753	-28.84
188.973	48.98
189.192	73.56
189.412	67.41
189.631	75.6
189.851	-0.17
190.07	116.56
190.29	-26.79
190.509	-22.7
190.729	36.69
190.948	85.84
191.168	288.59
191.387	126.8
191.607	106.32
191.826	32.6
192.045	40.79
192.265	-14.51
192.484	46.93
192.704	5.97
192.923	3.93
193.142	151.38
193.362	53.08
193.581	46.93
193.8	126.8
194.02	67.41
194.239	-37.03
194.458	24.4
194.678	32.6
194.897	-16.55
195.116	30.55
195.335	48.98
195.555	89.94
195.774	85.84
195.993	48.98
196.212	36.69
196.432	59.22
196.651	85.84
196.87	-28.84
197.089	190.29
197.308	104.28
197.528	89.94
197.747	-26.79
197.966	40.79
198.185	124.76
198.404	57.17
198.623	46.93
198.842	28.5
199.062	104.28
199.281	28.5
199.5	69.46
199.719	102.23
199.938	14.17
200.157	48.98
200.376	81.75
200.595	18.26
200.814	38.74
201.033	-20.65
201.252	139.09
201.471	151.38
201.69	98.13
201.909	57.17
202.128	59.22
202.347	69.46
202.566	44.88
202.785	26.45
203.004	36.69
203.223	135
203.442	16.21
203.661	-37.03
203.879	16.21
204.098	106.32
204.317	-20.65
204.536	51.03
204.755	55.12
204.974	147.28
205.193	130.9
205.411	91.99
205.63	77.65
205.849	20.31
206.068	73.56
206.287	-14.51
206.505	53.08
206.724	-12.46
206.943	-18.6
207.162	22.36
207.381	48.98
207.599	77.65
207.818	8.02
208.037	18.26
208.255	61.27
208.474	81.75
208.693	-0.17
208.911	69.46
209.13	28.5
209.349	96.08
209.567	12.12
209.786	112.47
210.005	124.76
210.223	79.7
210.442	-88.23
210.661	98.13
210.879	71.51
211.098	46.93
211.316	3.93
211.535	57.17
211.753	14.17
211.972	-47.27
212.191	44.88
212.409	10.07
212.628	63.32
212.846	-18.6
213.065	73.56
213.283	71.51
213.502	16.21
213.72	-26.79
213.938	73.56
214.157	65.36
214.375	71.51
214.594	81.75
214.812	34.64
215.031	1.88
215.249	32.6
215.467	10.07
215.686	67.41
215.904	28.5
216.122	44.88
216.341	135
216.559	61.27
216.778	96.08
216.996	51.03
217.214	-14.51
217.432	-2.22
217.651	-41.13
217.869	73.56
218.087	24.4
218.306	22.36
218.524	83.8
218.742	20.31
218.96	73.56
219.179	-10.41
219.397	67.41
219.615	122.71
219.833	32.6
220.051	-0.17
220.27	85.84
220.488	46.93
220.706	10.07
220.924	71.51
221.142	83.8
221.36	-4.27
221.578	34.64
221.796	18.26
222.015	89.94
222.233	-2.22
222.451	151.38
222.669	38.74
222.887	87.89
223.105	42.84
223.323	36.69
223.541	-28.84
223.759	32.6
223.977	-14.51
224.195	53.08
224.413	100.18
224.631	108.37
224.849	-53.42
225.067	91.99
225.285	53.08
225.503	-32.94
225.721	-22.7
225.939	16.21
226.157	36.69
226.375	112.47
226.592	-24.75
226.81	112.47
227.028	147.28
227.246	106.32
227.464	48.98
227.682	-12.46
227.9	48.98
228.117	91.99
228.335	20.31
228.553	-6.31
228.771	28.5
228.989	32.6
229.206	67.41
229.424	34.64
229.642	53.08
229.86	18.26
230.077	96.08
230.295	59.22
230.513	5.97
230.731	36.69
230.948	204.63
231.166	16.21
231.384	98.13
231.601	102.23
231.819	67.41
232.037	18.26
232.254	-2.22
232.472	83.8
232.689	34.64
232.907	124.76
233.125	1.88
233.342	3.93
233.56	-18.6
233.777	91.99
233.995	67.41
234.213	36.69
234.43	79.7
234.648	59.22
234.865	42.84
235.083	20.31
235.3	46.93
235.518	36.69
235.735	102.23
235.953	94.04
236.17	-45.23
236.388	14.17
236.605	16.21
236.822	108.37
237.04	91.99
237.257	18.26
237.475	-28.84
237.692	73.56
237.909	61.27
238.127	67.41
238.344	67.41
238.562	89.94
238.779	42.84
238.996	-41.13
239.214	83.8
239.431	83.8
239.648	34.64
239.865	48.98
240.083	110.42
240.3	5.97
240.517	34.64
240.735	28.5
240.952	83.8
241.169	32.6
241.386	61.27
241.603	42.84
241.821	-10.41
242.038	167.76
242.255	30.55
242.472	1.88
242.689	89.94
242.907	141.14
243.124	22.36
243.341	104.28
243.558	32.6
243.775	-51.37
243.992	-65.71
244.209	14.17
244.426	118.61
244.643	65.36
244.86	22.36
245.078	67.41
245.295	16.21
245.512	26.45
245.729	-6.31
245.946	14.17
246.163	83.8
246.38	48.98
246.597	141.14
246.814	102.23
247.031	36.69
247.248	32.6
247.464	91.99
247.681	57.17
247.898	44.88
248.115	110.42
248.332	26.45
248.549	32.6
248.766	79.7
248.983	81.75
249.2	59.22
249.417	100.18
249.633	34.64
249.85	26.45
250.067	61.27
250.284	10.07
250.501	94.04
250.717	44.88
250.934	-47.27
251.151	63.32
251.368	-28.84
251.585	79.7
251.801	57.17
252.018	14.17
252.235	81.75
252.451	-12.46
252.668	102.23
252.885	67.41
253.102	-14.51
253.318	-6.31
253.535	26.45
253.752	1.88
253.968	102.23
254.185	-10.41
254.401	36.69
254.618	44.88
254.835	-61.61
255.051	108.37
255.268	100.18
255.484	40.79
255.701	18.26
255.917	65.36
256.134	-16.55
256.351	124.76
256.567	36.69
256.784	-37.03
257	-51.37
257.217	57.17
257.433	44.88
257.65	32.6
257.866	96.08
258.082	3.93
258.299	48.98
258.515	112.47
258.732	69.46
258.948	-53.42
259.165	79.7
259.381	30.55
259.597	-10.41
259.814	20.31
260.03	53.08
260.246	59.22
260.463	48.98
260.679	81.75
260.895	1.88
261.112	46.93
261.328	69.46
261.544	26.45
261.761	182.1
261.977	26.45
262.193	1.88
262.409	85.84
262.626	44.88
262.842	-6.31
263.058	32.6
263.274	73.56
263.49	114.52
263.707	34.64
263.923	38.74
264.139	-10.41
264.355	12.12
264.571	104.28
264.787	-4.27
265.004	75.6
265.22	12.12
265.436	63.32
265.652	-24.75
265.868	100.18
266.084	-32.94
266.3	-43.18
266.516	-12.46
266.732	12.12
266.948	-39.08
267.164	67.41
267.38	14.17
267.596	122.71
267.812	159.57
268.028	118.61
268.244	-14.51
268.46	89.94
268.676	14.17
268.892	30.55
269.108	8.02
269.324	-51.37
269.54	-20.65
269.756	94.04
269.972	53.08
270.188	10.07
270.403	-28.84
270.619	28.5
270.835	77.65
271.051	14.17
271.267	32.6
271.483	24.4
271.698	-2.22
271.914	75.6
272.13	-26.79
272.346	40.79
272.562	-43.18
272.777	128.85
272.993	55.12
273.209	-63.66
273.425	26.45
273.64	71.51
273.856	116.56
274.072	5.97
274.287	42.84
274.503	44.88
274.719	67.41
274.934	81.75
275.15	48.98
275.366	10.07
275.581	-30.89
275.797	3.93
276.012	77.65
276.228	34.64
276.444	14.17
276.659	75.6
276.875	24.4
277.09	69.46
277.306	8.02
277.521	55.12
277.737	48.98
277.952	79.7
278.168	34.64
278.383	-53.42
278.599	24.4
278.814	67.41
279.03	96.08
279.245	114.52
279.461	22.36
279.676	83.8
279.892	-30.89
280.107	-47.27
280.322	40.79
280.538	61.27
280.753	1.88
280.969	42.84
281.184	-20.65
281.399	28.5
281.615	36.69
281.83	57.17
282.045	-6.31
282.26	3.93
282.476	122.71
282.691	106.32
282.906	44.88
283.122	102.23
283.337	22.36
283.552	3.93
283.767	14.17
283.983	96.08
284.198	-2.22
284.413	61.27
284.628	-37.03
284.843	61.27
285.058	73.56
285.274	16.21
285.489	-6.31
285.704	98.13
285.919	-4.27
286.134	36.69
286.349	14.17
286.564	48.98
286.779	96.08
286.995	42.84
287.21	-37.03
287.425	61.27
287.64	24.4
287.855	77.65
288.07	67.41
288.285	67.41
288.5	122.71
288.715	26.45
288.93	26.45
289.145	-63.66
289.36	8.02
289.575	32.6
289.79	167.76
290.004	16.21
290.219	200.53
290.434	98.13
290.649	-28.84
290.864	-57.51
291.079	36.69
291.294	91.99
291.509	69.46
291.724	40.79
291.938	-24.75
292.153	-10.41
292.368	44.88
292.583	65.36
292.798	55.12
293.012	46.93
293.227	110.42
293.442	-12.46
293.657	67.41
293.871	159.57
294.086	44.88
294.301	116.56
294.516	71.51
294.73	75.6
294.945	-45.23
295.16	38.74
295.374	67.41
295.589	100.18
295.804	-2.22
296.018	22.36
296.233	-24.75
296.447	153.43
296.662	-24.75
296.877	110.42
297.091	51.03
297.306	30.55
297.52	30.55
297.735	-14.51
297.949	26.45
298.164	61.27
298.378	38.74
298.593	79.7
298.807	79.7
299.022	5.97
299.236	141.14
299.451	22.36
299.665	14.17
299.88	67.41
300.094	28.5
300.309	83.8
300.523	73.56
300.737	24.4
300.952	112.47
301.166	26.45
301.381	-80.04
301.595	8.02
301.809	98.13
302.024	65.36
302.238	12.12
302.452	67.41
302.667	-49.32
302.881	75.6
303.095	22.36
303.309	24.4
303.524	8.02
303.738	38.74
303.952	16.21
304.166	83.8
304.381	-108.71
304.595	81.75
304.809	-37.03
305.023	34.64
305.237	-14.51
305.452	67.41
305.666	69.46
305.88	108.37
306.094	135
306.308	85.84
306.522	51.03
306.736	40.79
306.95	-18.6
307.164	18.26
307.379	61.27
307.593	44.88
307.807	55.12
308.021	108.37
308.235	116.56
308.449	-37.03
308.663	75.6
308.877	145.24
309.091	139.09
309.305	75.6
309.519	-82.09
309.733	42.84
309.947	-16.55
310.161	85.84
310.374	53.08
310.588	124.76
310.802	-55.47
311.016	8.02
311.23	51.03
311.444	-20.65
311.658	32.6
311.872	59.22
312.085	57.17
312.299	114.52
312.513	40.79
312.727	65.36
312.941	44.88
313.154	-2.22
313.368	63.32
313.582	59.22
313.796	46.93
314.009	36.69
314.223	89.94
314.437	137.04
314.651	24.4
314.864	-6.31
315.078	-12.46
315.292	-94.38
315.505	-20.65
315.719	26.45
315.933	32.6
316.146	53.08
316.36	36.69
316.573	126.8
316.787	69.46
317.001	-0.17
317.214	40.79
317.428	28.5
317.641	-65.71
317.855	-14.51
318.068	32.6
318.282	71.51
318.495	161.62
318.709	-10.41
318.922	20.31
319.136	128.85
319.349	73.56
319.563	20.31
319.776	73.56
319.99	48.98
320.203	57.17
320.417	61.27
320.63	61.27
320.843	114.52
321.057	3.93
321.27	40.79
321.483	-24.75
321.697	108.37
321.91	87.89
322.124	87.89
322.337	106.32
322.55	-45.23
322.763	73.56
322.977	12.12
323.19	16.21
323.403	5.97
323.617	30.55
323.83	85.84
324.043	98.13
324.256	26.45
324.469	-26.79
324.683	-14.51
324.896	-8.36
325.109	55.12
325.322	-51.37
325.535	20.31
325.748	24.4
325.962	-6.31
326.175	73.56
326.388	122.71
326.601	30.55
326.814	22.36
327.027	69.46
327.24	128.85
327.453	-24.75
327.666	114.52
327.879	63.32
328.092	-32.94
328.305	51.03
328.518	36.69
328.731	44.88
328.944	53.08
329.157	87.89
329.37	5.97
329.583	128.85
329.796	85.84
330.009	-45.23
330.222	10.07
330.435	55.12
330.648	104.28
330.861	20.31
331.073	36.69
331.286	30.55
331.499	67.41
331.712	8.02
331.925	40.79
332.138	180.05
332.35	120.66
332.563	-14.51
332.776	110.42
332.989	-4.27
333.202	46.93
333.414	26.45
333.627	91.99
333.84	-55.47
334.053	132.95
334.265	59.22
334.478	26.45
334.691	12.12
334.903	81.75
335.116	-0.17
335.329	28.5
335.541	59.22
335.754	100.18
335.966	14.17
336.179	-10.41
336.392	18.26
336.604	126.8
336.817	77.65
337.029	36.69
337.242	32.6
337.454	75.6
337.667	5.97
337.88	108.37
338.092	126.8
338.305	24.4
338.517	73.56
338.729	30.55
338.942	124.76
339.154	46.93
339.367	96.08
339.579	42.84
339.792	18.26
340.004	59.22
340.217	18.26
340.429	85.84
340.641	-4.27
340.854	3.93
341.066	3.93
341.278	38.74
341.491	112.47
341.703	91.99
341.915	61.27
342.128	53.08
342.34	26.45
342.552	40.79
342.764	48.98
342.977	-18.6
343.189	36.69
343.401	22.36
343.613	44.88
343.826	51.03
344.038	38.74
344.25	24.4
344.462	8.02
344.674	83.8
344.886	40.79
345.099	20.31
345.311	-16.55
345.523	38.74
345.735	14.17
345.947	67.41
346.159	28.5
346.371	18.26
346.583	-16.55
346.795	108.37
347.007	18.26
347.219	26.45
347.431	5.97
347.643	40.79
347.855	53.08
348.067	108.37
348.279	44.88
348.491	30.55
348.703	69.46
348.915	69.46
349.127	-84.14
349.339	26.45
349.551	53.08
349.763	1.88
349.975	16.21
350.187	96.08
350.399	96.08
350.61	18.26
350.822	16.21
351.034	55.12
351.246	79.7
351.458	67.41
351.669	55.12
351.881	59.22
352.093	77.65
352.305	73.56
352.517	38.74
352.728	81.75
352.94	30.55
353.152	10.07
353.363	22.36
353.575	79.7
353.787	63.32
353.999	130.9
354.21	155.47
354.422	1.88
354.633	5.97
354.845	30.55
355.057	67.41
355.268	22.36
355.48	108.37
355.692	36.69
355.903	48.98
356.115	8.02
356.326	-24.75
356.538	149.33
356.749	91.99
356.961	5.97
357.172	48.98
357.384	57.17
357.595	223.06
357.807	53.08
358.018	46.93
358.23	44.88
358.441	102.23
358.653	24.4
358.864	18.26
359.075	10.07
359.287	116.56
359.498	81.75
359.709	87.89
359.921	48.98
360.132	14.17
360.344	30.55
360.555	46.93
360.766	65.36
360.977	53.08
361.189	79.7
361.4	42.84
361.611	128.85
361.823	38.74
362.034	14.17
362.245	-4.27
362.456	44.88
362.667	83.8
362.879	36.69
363.09	53.08
363.301	89.94
363.512	34.64
363.723	69.46
363.935	40.79
364.146	106.32
364.357	57.17
364.568	59.22
364.779	-53.42
364.99	108.37
365.201	34.64
365.412	65.36
365.623	1.88
365.834	38.74
366.045	8.02
366.256	36.69
366.467	48.98
366.678	26.45
366.889	-22.7
367.1	-37.03
367.311	32.6
367.522	18.26
367.733	118.61
367.944	85.84
368.155	26.45
368.366	46.93
368.577	63.32
368.788	75.6
368.999	8.02
369.209	149.33
369.42	151.38
369.631	192.34
369.842	65.36
370.053	-8.36
370.264	44.88
370.474	-8.36
370.685	53.08
370.896	-41.13
371.107	114.52
371.317	63.32
371.528	-22.7
371.739	87.89
371.95	59.22
372.16	63.32
372.371	-63.66
372.582	18.26
372.792	73.56
373.003	16.21
373.214	73.56
373.424	77.65
373.635	48.98
373.846	42.84
374.056	32.6
374.267	98.13
374.477	-30.89
374.688	22.36
374.898	120.66
375.109	124.76
375.319	14.17
375.53	53.08
375.74	57.17
375.951	75.6
376.161	1.88
376.372	79.7
376.582	73.56
376.793	20.31
377.003	75.6
377.214	-24.75
377.424	69.46
377.635	-26.79
377.845	5.97
378.055	8.02
378.266	26.45
378.476	36.69
378.686	14.17
378.897	79.7
379.107	65.36
379.317	104.28
379.528	-43.18
379.738	81.75
379.948	-4.27
380.158	102.23
380.369	85.84
380.579	65.36
380.789	5.97
380.999	87.89
381.21	69.46
381.42	81.75
381.63	87.89
381.84	120.66
382.05	46.93
382.261	143.19
382.471	81.75
382.681	77.65
382.891	180.05
383.101	114.52
383.311	77.65
383.521	-34.99
383.731	48.98
383.941	145.24
384.151	91.99
384.361	-14.51
384.571	40.79
384.781	85.84
384.991	118.61
385.201	206.67
385.411	94.04
385.621	71.51
385.831	83.8
386.041	94.04
386.251	40.79
386.461	55.12
386.671	87.89
386.881	63.32
387.091	-6.31
387.301	89.94
387.511	44.88
387.72	22.36
387.93	51.03
388.14	-28.84
388.35	126.8
388.56	-16.55
388.769	73.56
388.979	32.6
389.189	18.26
389.399	141.14
389.609	38.74
389.818	112.47
390.028	-2.22
390.238	85.84
390.447	-16.55
390.657	75.6
390.867	32.6
391.076	-55.47
391.286	69.46
391.496	69.46
391.705	98.13
391.915	61.27
392.125	122.71
392.334	32.6
392.544	65.36
392.753	116.56
392.963	114.52
393.172	59.22
393.382	87.89
393.591	163.67
393.801	81.75
394.01	104.28
394.22	69.46
394.429	53.08
394.639	61.27
394.848	69.46
395.058	24.4
395.267	67.41
395.477	108.37
395.686	-55.47
395.895	200.53
396.105	216.91
396.314	116.56
396.524	18.26
396.733	30.55
396.942	118.61
397.152	184.15
397.361	75.6
397.57	65.36
397.78	96.08
397.989	26.45
398.198	184.15
398.407	77.65
398.617	38.74
398.826	85.84
399.035	51.03
399.244	94.04
399.453	77.65
399.663	155.47
399.872	110.42
400.081	-22.7
400.29	143.19
400.499	53.08
400.708	75.6
400.917	30.55
401.127	159.57
401.336	106.32
401.545	159.57
401.754	112.47
401.963	63.32
402.172	55.12
402.381	36.69
402.59	98.13
402.799	85.84
403.008	81.75
403.217	188.24
403.426	96.08
403.635	-14.51
403.844	118.61
404.053	130.9
404.262	77.65
404.471	157.52
404.68	120.66
404.888	79.7
405.097	81.75
405.306	206.67
405.515	161.62
405.724	194.39
405.933	194.39
406.142	153.43
406.35	173.91
406.559	114.52
406.768	221.01
406.977	200.53
407.185	135
407.394	145.24
407.603	120.66
407.812	169.81
408.02	145.24
408.229	227.15
408.438	114.52
408.646	108.37
408.855	186.19
409.064	132.95
409.272	223.06
409.481	192.34
409.69	192.34
409.898	221.01
410.107	184.15
410.315	239.44
410.524	196.43
410.733	157.52
410.941	128.85
411.15	173.91
411.358	200.53
411.567	264.02
411.775	229.2
411.984	302.93
412.192	380.75
412.401	315.22
412.609	309.07
412.818	315.22
413.026	325.46
413.234	317.26
413.443	364.37
413.651	321.36
413.86	440.14
414.068	434
414.276	417.61
414.485	386.9
414.693	499.53
414.901	526.16
415.11	462.67
415.318	401.23
415.526	468.81
415.734	458.57
415.943	548.68
416.151	446.29
416.359	501.58
416.567	511.82
416.776	491.34
416.984	626.51
417.192	722.76
417.4	634.7
417.608	583.5
417.817	579.4
418.025	698.19
418.233	802.63
418.441	679.75
418.649	788.3
418.857	773.96
419.065	839.5
419.273	790.35
419.481	878.41
419.689	954.18
419.897	915.27
420.105	876.36
420.313	991.05
420.521	1101.64
420.729	1095.49
420.937	1079.11
421.145	1097.54
421.353	1132.36
421.561	1224.51
421.769	1234.75
421.977	1228.61
422.185	1275.71
422.393	1288
422.601	1472.32
422.809	1412.93
423.017	1400.64
423.224	1460.03
423.432	1523.52
423.64	1453.89
423.848	1603.39
424.056	1562.43
424.263	1797.95
424.471	1775.42
424.679	1867.58
424.887	1900.34
425.094	2037.56
425.302	2000.69
425.51	2096.95
425.718	2090.81
425.925	2150.2
426.133	2142
426.341	2309.94
426.548	2398
426.756	2428.72
426.964	2441.01
427.171	2629.42
427.379	2776.87
427.586	2735.92
427.794	2875.18
428.001	2899.75
428.209	3131.17
428.417	3022.63
428.624	3088.17
428.832	3133.22
429.039	3184.42
429.247	3120.93
429.454	3577.63
429.662	3688.22
429.869	3434.27
430.076	3675.93
430.284	3491.62
430.491	3790.62
430.699	3974.94
430.906	3895.07
431.114	3933.98
431.321	4087.57
431.528	4263.7
431.736	4603.66
431.943	4632.33
432.15	4542.22
432.358	4767.5
432.565	4853.52
432.772	4890.38
432.979	4986.63
433.187	5324.55
433.394	5211.91
433.601	5494.53
433.808	5633.79
434.016	5629.7
434.223	5746.43
434.43	6063.86
434.637	5914.36
434.844	6278.9
435.052	6538.99
435.259	6604.53
435.466	6469.36
435.673	6457.07
435.88	6762.22
436.087	7163.62
436.294	7220.97
436.501	6993.64
436.708	7028.46
436.915	7374.56
437.122	7694.05
437.329	7491.3
437.537	7878.37
437.743	8068.83
437.95	8058.59
438.157	8373.97
438.364	8799.95
438.571	8670.93
438.778	8601.3
438.985	9492.16
439.192	9035.47
439.399	9518.79
439.606	9043.66
439.813	9686.72
440.02	10184.38
440.227	10090.17
440.433	10133.18
440.64	10544.82
440.847	10145.47
441.054	10497.72
441.261	11241.13
441.467	11173.55
441.674	11435.69
441.881	12002.97
442.088	11603.62
442.294	11720.35
442.501	11894.43
442.708	12281.5
442.914	12463.77
443.121	13362.83
443.328	12973.71
443.534	13831.81
443.741	13536.9
443.948	13088.4
444.154	14296.7
444.361	13977.22
444.568	14120.57
444.774	14407.29
444.981	14333.56
445.187	14886.51
445.394	15427.18
445.6	15119.98
445.807	16754.26
446.013	15865.44
446.22	16289.37
446.426	16987.73
446.633	17034.83
446.839	17677.9
447.046	16862.8
447.252	17888.84
447.459	17679.94
447.665	17782.34
447.871	18746.94
448.078	19369.52
448.284	18556.47
448.491	19232.3
448.697	19912.23
448.903	20268.58
449.11	20084.26
449.316	19760.68
449.522	20133.41
449.728	20672.03
449.935	20770.33
450.141	20815.38
450.347	21655.05
450.553	20710.94
450.76	20821.53
450.966	21677.58
451.172	21675.53
451.378	22081.03
451.584	21450.25
451.791	22201.86
451.997	21947.91
452.203	22386.18
452.409	22582.78
452.615	22179.33
452.821	21177.87
453.027	21204.5
453.233	22316.54
453.44	21452.3
453.646	21820.94
453.852	21757.45
454.058	22349.31
454.264	21229.07
454.47	21902.86
454.676	21345.81
454.882	21941.77
455.088	20153.89
455.294	20479.52
455.5	20631.07
455.705	20934.17
455.911	20174.37
456.117	19680.81
456.323	19277.36
456.529	18269.76
456.735	19033.65
456.941	18734.65
457.147	18601.53
457.352	18028.1
457.558	17479.24
457.764	17663.56
457.97	17446.48
458.176	16809.56
458.381	17241.68
458.587	16397.92
458.793	16105.06
458.999	15365.74
459.204	16531.03
459.41	16025.18
459.616	14943.86
459.821	14749.3
460.027	14585.46
460.233	14589.56
460.438	13921.92
460.644	14034.56
460.85	13233.8
461.055	13237.9
461.261	13115.02
461.466	11939.49
461.672	11818.66
461.878	12586.65
462.083	11794.08
462.289	11615.91
462.494	11460.26
462.7	10831.54
462.905	10620.6
463.111	10950.32
463.316	10942.13
463.522	10714.8
463.727	10976.94
463.932	10862.26
464.138	10661.55
464.343	10731.19
464.549	10514.1
464.754	10725.04
464.959	10690.23
465.165	10639.03
465.37	10104.51
465.575	9879.23
465.781	10282.68
465.986	10360.5
466.191	9858.75
466.397	9791.17
466.602	9322.18
466.807	9516.74
467.012	9578.18
467.218	9717.44
467.423	9348.81
467.628	9467.59
467.833	9858.75
468.038	9555.65
468.244	9062.09
468.449	9543.36
468.654	9309.9
468.859	9164.49
469.064	9215.69
469.269	8701.65
469.474	8726.22
469.679	8894.16
469.885	8625.87
470.09	8904.4
470.295	8879.82
470.5	8806.09
470.705	8607.44
470.91	8412.88
471.115	8328.92
471.32	8472.28
471.525	8431.32
471.73	8341.21
471.935	8341.21
472.139	8054.49
472.344	8013.53
472.549	7919.32
472.754	7845.6
472.959	7780.06
473.164	7628.51
473.369	7345.89
473.574	7704.29
473.778	7571.17
473.983	7425.76
474.188	7597.79
474.393	7151.34
474.598	7292.65
474.802	7096.04
475.007	7165.67
475.212	7180.01
475.417	6743.79
475.621	6772.46
475.826	6924.01
476.031	6694.64
476.235	6620.91
476.44	6706.93
476.645	6510.32
476.849	6522.61
477.054	6297.33
477.259	6307.57
477.463	6629.1
477.668	6422.26
477.872	6375.16
478.077	6149.88
478.282	5924.6
478.486	6133.5
478.691	5959.42
478.895	6029.05
479.1	5932.79
479.304	5992.19
479.509	5871.36
479.713	5754.62
479.918	5590.78
480.122	5699.33
480.326	5728
480.531	5715.71
480.735	5539.58
480.94	5807.87
481.144	5799.68
481.348	5455.62
481.553	5596.93
481.757	5459.71
481.961	5639.94
482.166	5566.21
482.37	5410.56
482.574	5502.72
482.778	5459.71
482.983	5562.11
483.187	5523.2
483.391	5746.43
483.595	5482.24
483.8	5379.84
484.004	5451.52
484.208	5547.78
484.412	5535.49
484.616	5551.87
484.821	5566.21
485.025	5345.03
485.229	5558.02
485.433	5529.34
485.637	5426.95
485.841	5447.43
486.045	5400.32
486.249	5480.19
486.453	5373.7
486.657	5490.43
486.861	5428.99
487.065	5420.8
487.269	5498.63
487.473	5269.25
487.677	5568.26
487.881	5693.18
488.085	5449.47
488.289	5510.91
488.493	5512.96
488.697	5709.57
488.901	5459.71
489.105	5381.89
489.309	5453.57
489.512	5547.78
489.716	5658.37
489.92	5537.54
490.124	5523.2
490.328	5584.64
490.531	5529.34
490.735	5490.43
490.939	5703.42
491.143	5506.82
491.346	5537.54
491.55	5697.28
491.754	5570.3
491.958	5826.3
492.161	5687.04
492.365	5656.32
492.569	5742.33
492.772	5676.8
492.976	5881.6
493.18	5768.96
493.383	5963.51
493.587	5940.99
493.79	5959.42
493.994	5990.14
494.197	6024.95
494.401	6078.2
494.605	6180.6
494.808	6291.19
495.012	6235.89
495.215	6366.96
495.419	6385.4
495.622	6115.06
495.825	6237.94
496.029	6389.49
496.232	6422.26
496.436	6270.71
496.639	6538.99
496.843	6559.47
497.046	6792.94
497.249	6805.23
497.453	6731.5
497.656	6950.64
497.859	7055.08
498.063	7093.99
498.266	6981.35
498.469	7087.85
498.673	7038.7
498.876	7249.64
499.079	7376.61
499.282	7317.22
499.485	7456.48
499.689	7390.95
499.892	7530.21
500.095	7644.9
500.298	7943.9
500.501	7845.6
500.705	8005.34
500.908	8210.14
501.111	8160.98
501.314	8181.46
501.517	8093.4
501.72	8216.28
501.923	8410.84
502.126	8509.14
502.329	8634.07
502.532	8539.86
502.735	8703.7
502.938	9105.1
503.141	8992.46
503.344	9002.7
503.547	8986.32
503.75	9217.74
503.953	9455.3
504.156	9551.56
504.359	9668.29
504.562	9602.75
504.765	9727.68
504.968	9825.98
505.17	10034.88
505.373	10041.02
505.576	10108.6
505.779	10258.1
505.982	10196.67
506.185	10528.44
506.387	10630.84
506.59	10653.36
506.793	10729.14
506.996	10669.75
507.198	11085.48
507.401	10884.78
507.604	11327.14
507.807	11601.57
508.009	11321
508.212	11361.96
508.415	11620
508.617	11712.16
508.82	11746.98
509.022	11794.08
509.225	11998.88
509.428	12414.62
509.63	12400.28
509.833	12314.27
510.035	12476.05
510.238	12578.45
510.44	12752.53
510.643	12809.87
510.845	12934.8
511.048	12863.12
511.25	12963.47
511.453	13078.16
511.655	13997.7
511.858	13514.38
512.06	13573.77
512.262	13756.04
512.465	13772.42
512.667	14020.22
512.87	13887.11
513.072	14036.61
513.274	14466.68
513.477	14587.51
513.679	14712.44
513.881	14769.78
514.084	14820.98
514.286	15056.5
514.488	15050.35
514.69	15234.67
514.893	15283.82
515.095	15330.92
515.297	15388.27
515.499	15548.01
515.701	15650.41
515.904	15965.79
516.106	15994.47
516.308	16160.35
516.51	16340.57
516.712	16244.32
516.914	16582.23
517.116	16608.86
517.318	16727.64
517.52	17006.16
517.722	16979.54
517.925	17098.32
518.127	17301.07
518.329	17430.09
518.531	17229.39
518.733	17458.76
518.935	17829.45
519.136	17798.73
519.338	17935.94
519.54	18015.81
519.742	18232.9
519.944	18429.5
520.146	18480.7
520.348	18757.18
520.55	18835
520.752	18630.2
520.954	19025.46
521.155	19017.27
521.357	19314.22
521.559	19160.62
521.761	19447.34
521.963	19379.76
522.164	19473.96
522.366	19306.03
522.568	19715.62
522.77	19893.8
522.971	20008.48
523.173	19975.72
523.375	20299.3
523.576	20067.88
523.778	20086.31
523.98	20284.96
524.181	20319.78
524.383	20575.77
524.584	20858.39
524.786	20874.77
524.988	20540.96
525.189	21206.55
525.391	21034.52
525.592	20700.7
525.794	21077.52
525.995	21071.38
526.197	21161.49
526.398	21040.66
526.6	21179.92
526.801	21145.11
527.003	21442.06
527.204	21523.98
527.406	21476.88
527.607	21427.73
527.808	21673.48
528.01	21181.97
528.211	21575.18
528.412	22091.27
528.614	21771.79
528.815	21808.65
529.016	21913.09
529.218	21743.11
529.419	21941.77
529.62	21976.58
529.822	21894.66
530.023	21878.28
530.224	22103.56
530.425	22011.4
530.626	21833.22
530.828	21857.8
531.029	22195.71
531.23	22253.06
531.431	21800.46
531.632	22107.65
531.833	22150.66
532.035	22158.85
532.236	22093.32
532.437	22017.54
532.638	21927.43
532.839	22038.02
533.04	22089.22
533.241	21863.94
533.442	22218.24
533.643	22130.18
533.844	21931.53
534.045	22105.6
534.246	21970.44
534.447	22013.45
534.648	21956.1
534.849	21820.94
535.05	22074.88
535.251	22087.17
535.451	22119.94
535.652	22046.21
535.853	21972.49
536.054	22216.19
536.255	22150.66
536.456	21947.91
536.657	22013.45
536.857	22066.69
537.058	21849.61
537.259	22398.46
537.46	22081.03
537.66	21943.81
537.861	22003.21
538.062	21872.14
538.263	22076.93
538.463	21933.57
538.664	22091.27
538.865	22025.73
539.065	22031.88
539.266	21685.77
539.466	21954.05
539.667	22003.21
539.868	22328.83
540.068	22130.18
540.269	22005.25
540.469	21980.68
540.67	21952.01
540.87	21775.88
541.071	21880.33
541.271	21825.03
541.472	21917.19
541.672	21806.6
541.873	21900.81
542.073	21638.67
542.274	22408.7
542.474	21636.62
542.675	21687.82
542.875	21997.06
543.075	21857.8
543.276	21513.74
543.476	21990.92
543.676	21820.94
543.877	22212.1
544.077	21919.24
544.277	21841.42
544.478	22121.99
544.678	22144.52
544.878	21829.13
545.078	21755.4
545.279	21761.55
545.479	21610
545.679	21587.47
545.879	21911.05
546.079	21919.24
546.28	21483.02
546.48	21648.91
546.68	21841.42
546.88	21757.45
547.08	21620.24
547.28	21630.48
547.48	21603.85
547.68	21698.06
547.88	21433.87
548.081	21771.79
548.281	21552.65
548.481	21583.37
548.681	21775.88
548.881	21564.94
549.081	21470.73
549.28	21610
549.48	21661.19
549.68	21714.44
549.88	21874.18
550.08	21593.61
550.28	21677.58
550.48	21839.37
550.68	21810.7
550.88	21480.97
551.08	21638.67
551.279	21947.91
551.479	21141.01
551.679	21820.94
551.879	21530.12
552.079	21679.63
552.278	21198.35
552.478	21816.84
552.678	21448.21
552.878	21669.39
553.077	21470.73
553.277	21472.78
553.477	21577.23
553.676	21485.07
553.876	21634.57
554.076	21202.45
554.275	21339.66
554.475	21155.35
554.674	21589.52
554.874	21358.1
555.074	21390.86
555.273	21554.7
555.473	21736.97
555.672	21583.37
555.872	21790.22
556.071	21708.3
556.271	21456.4
556.47	21429.77
556.67	21165.59
556.869	21239.31
557.068	21427.73
557.268	21415.44
557.467	21394.96
557.667	21659.15
557.866	21327.38
558.065	21298.7
558.265	21499.41
558.464	21386.77
558.663	21405.2
558.863	21339.66
559.062	21341.71
559.261	21175.83
559.461	21605.9
559.66	20743.7
559.859	21308.94
560.058	21009.94
560.258	21276.18
560.457	21020.18
560.656	21349.9
560.855	21104.15
561.054	21104.15
561.253	21208.59
561.453	20989.46
561.652	21331.47
561.851	21569.04
562.05	21224.98
562.249	21188.11
562.448	21259.79
562.647	20938.26
562.846	21175.83
563.045	21274.13
563.244	20848.15
563.443	20999.7
563.642	20942.36
563.841	20872.73
564.04	21001.75
564.239	21067.28
564.438	20911.64
564.637	20872.73
564.836	21306.9
565.035	20887.06
565.234	20815.38
565.432	20782.62
565.631	20764.18
565.83	21122.58
566.029	20940.31
566.228	20903.45
566.427	20712.99
566.625	20700.7
566.824	20528.67
567.023	20839.96
567.222	20321.82
567.42	20862.49
567.619	20839.96
567.818	20753.94
568.016	20725.27
568.215	20655.64
568.414	20743.7
568.612	20825.62
568.811	20491.8
569.01	20512.28
569.208	20545.05
569.407	20831.77
569.605	20715.03
569.804	20905.49
570.002	20647.45
570.201	20581.92
570.4	20696.6
570.598	20354.59
570.797	20782.62
570.995	20586.01
571.193	20305.44
571.392	20483.61
571.59	20303.39
571.789	20375.07
571.987	20309.54
572.186	20248.1
572.384	20291.1
572.582	20330.02
572.781	20465.18
572.979	20031.01
573.177	20198.95
573.376	20207.14
573.574	20031.01
573.772	20180.51
573.971	19877.41
574.169	20145.7
574.367	19672.62
574.565	19969.57
574.763	19975.72
574.962	19832.36
575.16	19586.6
575.358	19805.74
575.556	19783.21
575.754	20219.42
575.952	19592.75
576.151	20172.32
576.349	19820.07
576.547	19523.12
576.745	19940.9
576.943	19734.06
577.141	19766.82
577.339	19676.71
577.537	19625.51
577.735	19674.67
577.933	19441.2
578.131	19787.3
578.329	19668.52
578.527	19242.54
578.725	19502.64
578.923	19248.69
579.121	19478.06
579.319	19326.51
579.516	19707.43
579.714	19459.63
579.912	19576.36
580.11	19297.84
580.308	19392.05
580.506	19199.54
580.704	18765.37
580.901	19334.7
581.099	19342.89
581.297	19103.28
581.495	18984.5
581.692	19084.85
581.89	19021.36
582.088	19291.69
582.285	19039.79
582.483	19125.81
582.681	18982.45
582.878	18929.2
583.076	18714.17
583.274	18892.34
583.471	18714.17
583.669	18609.72
583.866	18683.45
584.064	18853.43
584.262	18626.11
584.459	18791.99
584.657	18665.02
584.854	18794.04
585.052	18546.23
585.249	18513.47
585.447	18789.94
585.644	18394.68
585.841	18683.45
586.039	18751.03
586.236	18374.2
586.434	18351.68
586.631	18153.02
586.828	18310.72
587.026	18138.69
587.223	18386.49
587.42	18081.35
587.618	18263.61
587.815	18050.63
588.012	18015.81
588.21	17876.55
588.407	18181.7
588.604	18110.02
588.801	18087.49
588.999	17823.3
589.196	18019.91
589.393	17725
589.59	17825.35
589.787	17565.26
589.984	17874.5
590.182	17681.99
590.379	17751.62
590.576	17565.26
590.773	17927.75
590.97	17608.26
591.167	17915.46
591.364	17538.63
591.561	17636.94
591.758	17452.62
591.955	17358.41
592.152	17491.53
592.349	17350.22
592.546	17681.99
592.743	17202.77
592.94	17180.24
593.137	17536.59
593.334	17374.8
593.531	17217.1
593.727	17260.11
593.924	17290.83
594.121	16922.2
594.318	17184.34
594.515	16948.82
594.712	17262.16
594.908	17206.86
595.105	17141.33
595.302	16696.92
595.499	17000.02
595.696	16967.25
595.892	16739.93
596.089	16856.66
596.286	16834.13
596.482	16959.06
596.679	16832.08
596.876	16873.04
597.072	16821.84
597.269	16664.15
597.466	16762.45
597.662	16428.63
597.859	16703.06
598.055	16653.91
598.252	16397.92
598.448	16625.24
598.645	16387.68
598.841	16391.77
599.038	16402.01
599.234	16666.2
599.431	16264.8
599.627	16242.27
599.824	16322.14
600.02	16375.39
600.217	16363.1
600.413	16367.2
600.609	16258.65
600.806	16272.99
601.002	16189.02
601.198	16100.96
601.395	16070.24
601.591	15988.32
601.787	16088.67
601.984	15908.45
602.18	16047.71
602.376	15832.68
602.572	15918.69
602.769	15855.2
602.965	15957.6
603.161	16035.42
603.357	15758.95
603.553	15853.16
603.75	15914.59
603.946	16023.14
604.142	15863.4
604.338	15578.73
604.534	15939.17
604.73	15636.07
604.926	15648.36
605.122	15775.33
605.318	15666.79
605.514	15713.89
605.71	15574.63
605.906	15693.41
606.102	15468.14
606.298	15558.25
606.494	15373.93
606.69	15634.02
606.886	15502.95
607.082	15167.09
607.278	15476.33
607.474	15287.92
607.67	15572.58
607.866	15195.76
608.062	15582.82
608.257	15455.85
608.453	15140.46
608.649	15527.53
608.845	15119.98
609.041	15128.17
609.236	15363.69
609.432	15152.75
609.628	15216.24
609.824	15244.91
610.019	14833.27
610.215	15048.3
610.411	15263.34
610.606	15162.99
610.802	15126.13
610.998	14880.37
611.193	15113.84
611.389	15038.06
611.584	15124.08
611.78	14863.99
611.976	15033.97
612.171	15197.81
612.367	15095.41
612.562	14970.48
612.758	14724.72
612.953	14767.73
613.149	15105.65
613.344	14833.27
613.539	14952.05
613.735	14845.55
613.93	14997.1
614.126	14745.2
614.321	14986.86
614.517	14784.12
614.712	14931.57
614.907	14618.23
615.103	14775.92
615.298	14810.74
615.493	14827.12
615.688	14816.88
615.884	14866.03
616.079	14640.76
616.274	14749.3
616.47	14741.11
616.665	14667.38
616.86	14567.03
617.055	14704.24
617.25	14577.27
617.445	14591.61
617.641	14497.4
617.836	14438.01
618.031	14360.19
618.226	14567.03
618.421	14300.8
618.616	14511.74
618.811	14169.73
619.006	14304.89
619.201	14128.77
619.396	14028.42
619.591	13926.02
619.786	14143.1
619.981	14112.38
620.176	14030.46
620.371	13885.06
620.566	14067.33
620.761	13979.26
620.956	14046.85
621.151	13614.73
621.346	14001.79
621.541	13647.49
621.735	13821.57
621.93	13639.3
622.125	13581.96
622.32	13328.01
622.515	13481.61
622.709	13311.63
622.904	13381.26
623.099	13252.24
623.294	13422.22
623.488	13141.64
623.683	13217.42
623.878	13198.99
624.072	13082.25
624.267	12963.47
624.462	12795.54
624.656	12910.22
624.851	12791.44
625.046	12633.75
625.24	12764.82
625.435	12580.5
625.629	12627.6
625.824	12687
626.018	12285.59
626.213	12390.04
626.407	12404.38
626.602	12240.54
626.796	12304.03
626.991	12277.4
627.185	12220.06
627.38	12099.23
627.574	11974.3
627.768	11826.85
627.963	11792.03
628.157	11763.36
628.352	11937.44
628.546	11568.8
628.74	11808.42
628.935	11384.49
629.129	11642.53
629.323	11226.79
629.517	11470.5
629.712	11411.11
629.906	11490.98
630.1	11196.07
630.294	11417.26
630.489	11255.47
630.683	11110.06
630.877	10976.94
631.071	10954.41
631.265	11026.09
631.459	11148.97
631.653	10852.02
631.848	10874.54
632.042	10806.96
632.236	10849.97
632.43	10565.3
632.624	10712.75
632.818	10688.18
633.012	10569.4
633.206	10522.29
633.4	10516.15
633.594	10305.21
633.788	10428.09
633.982	10247.86
634.176	10348.22
634.369	10086.08
634.563	10301.11
634.757	10104.51
634.951	10081.98
635.145	10135.23
635.339	10024.64
635.533	9993.92
635.726	10032.83
635.92	9725.63
636.114	9782.98
636.308	10120.89
636.501	9701.06
636.695	9594.56
636.889	9402.05
637.083	9526.98
637.276	9735.87
637.47	9457.35
637.664	9578.18
637.857	9357
638.051	9344.71
638.244	8980.17
638.438	9227.98
638.632	9180.87
638.825	9066.19
639.019	9070.28
639.212	8953.55
639.406	8961.74
639.599	8877.77
639.793	9014.99
639.986	8754.9
640.18	8752.85
640.373	8638.16
640.567	8554.19
640.76	8566.48
640.954	8562.39
641.147	8642.26
641.34	8488.66
641.534	8478.42
641.727	8351.45
641.92	8464.08
642.114	8271.58
642.307	8128.22
642.5	8234.71
642.694	8013.53
642.887	8007.39
643.08	8228.57
643.273	8130.27
643.467	7878.37
643.66	7880.41
643.853	7769.82
644.046	7855.84
644.239	7679.71
644.432	7745.25
644.626	7667.42
644.819	7724.77
645.012	7671.52
645.205	7667.42
645.398	7677.66
645.591	7421.67
645.784	7354.09
645.977	7384.8
646.17	7464.68
646.363	7288.55
646.556	7276.26
646.749	7274.21
646.942	7233.25
647.135	7106.28
647.328	7091.95
647.521	6876.91
647.714	7010.03
647.907	7022.31
648.099	6891.24
648.292	7048.94
648.485	7020.27
648.678	6786.8
648.871	6729.45
649.064	6903.53
649.256	6772.46
649.449	6577.9
649.642	6651.63
649.835	6475.51
650.027	6700.78
650.22	6485.75
650.413	6590.19
650.605	6555.38
650.798	6438.64
650.991	6250.23
651.183	6448.88
651.376	6244.09
651.568	6223.61
651.761	6227.7
651.954	6280.95
652.146	6213.37
652.339	6268.66
652.531	6029.05
652.724	5981.95
652.916	6024.95
653.109	5897.98
653.301	5924.6
653.494	5940.99
653.686	5981.95
653.879	6061.82
654.071	5816.06
654.263	5748.48
654.456	5854.97
654.648	5832.44
654.84	5758.72
655.033	5730.05
655.225	5592.83
655.417	5502.72
655.61	5674.75
655.802	5705.47
655.994	5621.5
656.186	5537.54
656.379	5549.82
656.571	5512.96
656.763	5410.56
656.955	5420.8
657.148	5355.27
657.34	5445.38
657.532	5199.62
657.724	5144.33
657.916	5261.06
658.108	5312.26
658.3	5256.97
658.492	5187.33
658.684	5121.8
658.876	5117.7
659.068	5062.41
659.26	5144.33
659.452	5066.5
659.644	4912.91
659.836	4974.35
660.028	4947.72
660.22	4869.9
660.412	4968.2
660.604	4876.04
660.796	4892.43
660.988	4765.45
661.18	4802.32
661.372	4787.98
661.563	4790.03
661.755	4661.01
661.947	4689.68
662.139	4620.05
662.331	4560.66
662.522	4642.57
662.714	4468.5
662.906	4505.36
663.097	4441.87
663.289	4462.35
663.481	4362
663.673	4409.11
663.864	4507.41
664.056	4325.14
664.247	4171.54
664.439	4427.54
664.631	4362
664.822	4359.95
665.014	4323.09
665.205	4202.26
665.397	4185.88
665.588	4300.56
665.78	4167.45
665.971	4175.64
666.163	4286.23
666.354	4151.06
666.546	4218.64
666.737	4095.77
666.929	4118.29
667.12	4153.11
667.311	4146.97
667.503	3993.37
667.694	4187.93
667.885	4026.14
668.077	4036.38
668.268	3956.5
668.459	4128.53
668.651	4019.99
668.842	4065.05
669.033	3784.48
669.224	4040.47
669.416	4073.24
669.607	3882.78
669.798	4005.66
669.989	4007.7
670.18	3903.26
670.371	4030.23
670.563	3766.04
670.754	3802.91
670.945	3929.88
671.136	3997.46
671.327	3819.29
671.518	3997.46
671.709	3843.87
671.9	3880.73
672.091	3866.39
672.282	3753.76
672.473	3901.21
672.664	3737.37
672.855	3608.35
673.046	3829.53
673.237	3864.35
673.428	3776.28
673.619	3890.97
673.809	3819.29
674	3901.21
674.191	3731.23
674.382	3794.72
674.573	3802.91
674.764	3702.56
674.954	3809.05
675.145	3540.77
675.336	3622.69
675.527	3804.96
675.717	3780.38
675.908	3729.18
676.099	3630.88
676.289	3659.55
676.48	3733.28
676.671	3737.37
676.861	3727.13
677.052	3723.04
677.243	3634.97
677.433	3577.63
677.624	3667.74
677.814	3729.18
678.005	3606.3
678.195	3733.28
678.386	3772.19
678.576	3680.03
678.767	3643.17
678.957	3723.04
679.148	3823.39
679.338	3809.05
679.529	3737.37
679.719	3594.01
679.909	3733.28
680.1	3749.66
680.29	3823.39
680.481	3677.98
680.671	3684.13
680.861	3790.62
681.052	3688.22
681.242	3776.28
681.432	3798.81
681.622	3792.67
681.813	3751.71
682.003	3784.48
682.193	3868.44
682.383	3870.49
682.573	3786.52
682.764	3768.09
682.954	3780.38
683.144	3800.86
683.334	3706.65
683.524	3850.01
683.714	3897.11
683.904	3899.16
684.094	3747.61
684.284	3827.48
684.474	3907.35
684.664	3764
684.854	3794.72
685.044	3708.7
685.234	3725.08
685.424	3729.18
685.614	3712.8
685.804	3878.68
685.994	3462.94
686.184	3757.85
686.374	3733.28
686.564	3694.36
686.753	3815.2
686.943	3637.02
687.133	3714.84
687.323	3477.28
687.513	3766.04
687.702	3587.87
687.892	3624.73
688.082	3673.89
688.272	3626.78
688.461	3548.96
688.651	3518.24
688.841	3731.23
689.03	3508
689.22	3682.08
689.41	3772.19
689.599	3544.86
689.789	3522.34
689.979	3733.28
690.168	3475.23
690.358	3571.49
690.547	3532.58
690.737	3534.62
690.926	3522.34
691.116	3520.29
691.305	3483.42
691.495	3487.52
691.684	3393.31
691.874	3430.18
692.063	3383.07
692.252	3493.66
692.442	3421.99
692.631	3368.74
692.82	3352.35
693.01	3303.2
693.199	3297.06
693.388	3374.88
693.578	3378.98
693.767	3350.31
693.956	3233.57
694.146	3268.39
694.335	3315.49
694.524	3305.25
694.713	3381.03
694.902	3290.92
695.092	3258.15
695.281	3252
695.47	3335.97
695.659	3270.44
695.848	3348.26
696.037	3256.1
696.226	3323.68
696.415	3292.96
696.604	3475.23
696.793	3358.5
696.982	3286.82
697.171	3401.51
697.36	3245.86
697.549	3419.94
697.738	3292.96
697.927	3598.11
698.116	3409.7
698.305	3346.21
698.494	3383.07
698.683	3395.36
698.872	3469.09
699.061	3368.74
699.25	3295.01
699.438	3356.45
699.627	3260.2
699.816	3475.23
700.005	3356.45
700.193	3362.59
700.382	3401.51
700.571	3362.59
700.76	3319.59
700.948	3483.42
701.137	3460.9
701.326	3522.34
701.514	3264.29
701.703	3409.7
701.892	3544.86
702.08	3481.38
702.269	3458.85
702.457	3301.15
702.646	3573.53
702.834	3442.46
703.023	3405.6
703.212	3342.11
703.4	3391.27
703.589	3370.79
703.777	3469.09
703.965	3331.87
704.154	3489.57
704.342	3493.66
704.531	3526.43
704.719	3419.94
704.907	3581.73
705.096	3530.53
705.284	3424.03
705.472	3544.86
705.661	3532.58
705.849	3661.6
706.037	3444.51
706.226	3557.15
706.414	3745.56
706.602	3559.2
706.79	3645.21
706.979	3575.58
707.167	3446.56
707.355	3565.34
707.543	3493.66
707.731	3594.01
707.919	3608.35
708.107	3563.29
708.296	3569.44
708.484	3436.32
708.672	3628.83
708.86	3508
709.048	3589.92
709.236	3409.7
709.424	3571.49
709.612	3766.04
709.8	3497.76
709.988	3591.97
710.176	3559.2
710.364	3700.51
710.551	3673.89
710.739	3524.38
710.927	3671.84
711.115	3743.52
711.303	3684.13
711.491	3684.13
711.679	3557.15
711.866	3716.89
712.054	3696.41
712.242	3604.25
712.43	3827.48
712.617	3655.45
712.805	3661.6
712.993	3626.78
713.181	3665.69
713.368	3671.84
713.556	3712.8
713.744	3583.77
713.931	3845.91
714.119	3651.36
714.306	3698.46
714.494	3698.46
714.682	3581.73
714.869	3458.85
715.057	3766.04
715.244	3596.06
715.432	3757.85
715.619	3667.74
715.807	3682.08
715.994	3886.87
716.182	3600.16
716.369	3847.96
716.556	3837.72
716.744	3686.17
716.931	3684.13
717.119	3764
717.306	3690.27
717.493	3753.76
717.681	3858.2
717.868	3761.95
718.055	3913.5
718.242	3764
718.43	3790.62
718.617	3917.59
718.804	3723.04
718.991	3706.65
719.179	3854.11
719.366	3733.28
719.553	3899.16
719.74	3759.9
719.927	3796.76
720.114	3759.9
720.301	3735.32
720.488	3835.67
720.676	3768.09
720.863	3774.24
721.05	3782.43
721.237	3819.29
721.424	3675.93
721.611	3768.09
721.798	3987.22
721.985	3764
722.172	3696.41
722.358	3802.91
722.545	3845.91
722.732	3903.26
722.919	3911.45
723.106	3800.86
723.293	3979.03
723.48	3780.38
723.667	3690.27
723.853	3890.97
724.04	3817.24
724.227	3653.41
724.414	3835.67
724.6	3688.22
724.787	3919.64
724.974	3929.88
725.161	3893.02
725.347	3735.32
725.534	3917.59
725.72	3907.35
725.907	3944.22
726.094	3786.52
726.28	3749.66
726.467	3764
726.653	3764
726.84	3796.76
727.027	3858.2
727.213	3817.24
727.4	3870.49
727.586	3852.06
727.773	3866.39
727.959	3907.35
728.145	3807
728.332	3833.63
728.518	3776.28
728.705	3983.13
728.891	3839.77
729.077	3948.31
729.264	3796.76
729.45	3858.2
729.636	3921.69
729.823	3739.42
730.009	3925.79
730.195	3845.91
730.382	3874.59
730.568	3907.35
730.754	3952.41
730.94	3823.39
731.126	3946.27
731.313	4009.75
731.499	3911.45
731.685	3860.25
731.871	3847.96
732.057	3827.48
732.243	3911.45
732.429	3841.82
732.615	3882.78
732.801	4001.56
732.987	3757.85
733.173	3833.63
733.359	3852.06
733.545	3827.48
733.731	3804.96
733.917	3837.72
734.103	3895.07
734.289	3813.15
734.475	3659.55
734.661	3890.97
734.847	3782.43
735.033	3825.43
735.219	3688.22
735.404	3780.38
735.59	3870.49
735.776	3626.78
735.962	3880.73
736.148	3868.44
736.333	3819.29
736.519	3700.51
736.705	3866.39
736.89	3735.32
737.076	3684.13
737.262	3598.11
737.447	3620.64
737.633	3696.41
737.819	3839.77
738.004	3624.73
738.19	3610.4
738.375	3804.96
738.561	3712.8
738.747	3565.34
738.932	3643.17
739.118	3606.3
739.303	3712.8
739.489	3559.2
739.674	3563.29
739.859	3628.83
740.045	3712.8
740.23	3690.27
740.416	3493.66
740.601	3596.06
740.786	3520.29
740.972	3559.2
741.157	3546.91
741.342	3487.52
741.528	3368.74
741.713	3495.71
741.898	3536.67
742.084	3464.99
742.269	3376.93
742.454	3565.34
742.639	3532.58
742.824	3518.24
743.01	3583.77
743.195	3464.99
743.38	3407.65
743.565	3393.31
743.75	3325.73
743.935	3299.11
744.12	3411.75
744.305	3295.01
744.49	3254.05
744.675	3270.44
744.86	3252
745.045	3247.91
745.23	3262.24
745.415	3299.11
745.6	3266.34
745.785	3215.14
745.97	3256.1
746.155	3139.37
746.34	3172.13
746.525	3174.18
746.71	3200.8
746.895	2975.53
747.079	3098.41
747.264	3028.78
747.449	3090.21
747.634	2975.53
747.819	3063.59
748.003	3006.25
748.188	3016.49
748.373	3008.3
748.557	3047.21
748.742	2840.36
748.927	2858.79
749.111	2895.66
749.296	2840.36
749.481	2864.94
749.665	2805.55
749.85	2752.3
750.034	2709.29
750.219	2801.45
750.404	2733.87
750.588	2713.39
750.773	2543.41
750.957	2748.2
751.141	2586.41
751.326	2690.86
751.51	2606.89
751.695	2570.03
751.879	2672.43
752.064	2651.95
752.248	2512.69
752.432	2586.41
752.617	2662.19
752.801	2649.9
752.985	2494.26
753.17	2522.93
753.354	2559.79
753.538	2367.28
753.722	2516.78
753.907	2320.18
754.091	2324.27
754.275	2338.61
754.459	2395.95
754.643	2260.79
754.828	2340.66
755.012	2297.65
755.196	2180.92
755.38	2168.63
755.564	2178.87
755.748	2223.92
755.932	2137.91
756.116	2246.45
756.3	2250.55
756.484	2105.14
756.668	2316.08
756.852	2043.7
757.036	2172.72
757.22	2076.47
757.404	2080.57
757.588	2060.09
757.772	2031.41
757.956	2074.42
758.14	2156.34
758.323	1982.26
758.507	2068.28
758.691	1955.64
758.875	2084.66
759.059	2002.74
759.242	1969.98
759.426	2043.7
759.61	2027.32
759.794	1892.15
759.977	1912.63
760.161	2041.65
760.345	1861.43
760.528	1926.97
760.712	1892.15
760.895	1945.4
761.079	1941.3
761.263	1812.28
761.446	1802.04
761.63	1769.27
761.813	1972.02
761.997	1941.3
762.18	1724.22
762.364	1783.61
762.547	1732.41
762.731	1734.46
762.914	1840.95
763.098	1812.28
763.281	1820.47
763.464	1693.5
763.648	1683.26
763.831	1769.27
764.015	1658.68
764.198	1658.68
764.381	1773.37
764.564	1765.18
764.748	1580.86
764.931	1564.48
765.114	1589.05
765.297	1615.68
765.481	1494.85
765.664	1609.53
765.847	1613.63
766.03	1730.36
766.213	1601.34
766.397	1646.4
766.58	1611.58
766.763	1640.25
766.946	1544
767.129	1578.81
767.312	1500.99
767.495	1554.24
767.678	1546.05
767.861	1617.72
768.044	1533.76
768.227	1529.66
768.41	1546.05
768.593	1492.8
768.776	1486.65
768.959	1507.13
769.142	1535.81
769.324	1474.37
769.507	1482.56
769.69	1511.23
769.873	1435.46
770.056	1675.07
770.239	1412.93
770.421	1466.17
770.604	1449.79
770.787	1490.75
770.97	1457.98
771.152	1374.02
771.335	1500.99
771.518	1400.64
771.7	1468.22
771.883	1423.17
772.066	1435.46
772.248	1388.35
772.431	1509.18
772.613	1382.21
772.796	1242.95
772.978	1351.49
773.161	1378.11
773.343	1331.01
773.526	1328.96
773.708	1261.38
773.891	1275.71
774.073	1306.43
774.256	1275.71
774.438	1310.53
774.621	1193.8
774.803	1244.99
774.985	1214.27
775.168	1214.27
775.35	1095.49
775.532	1210.18
775.715	1128.26
775.897	1124.16
776.079	1120.07
776.261	1226.56
776.444	1120.07
776.626	1091.4
776.808	1154.88
776.99	1132.36
777.173	1181.51
777.355	1165.12
777.537	1150.79
777.719	1113.92
777.901	1097.54
778.083	1144.64
778.265	976.71
778.447	1058.63
778.629	1105.73
778.811	1068.87
778.993	1052.49
779.175	1064.77
779.357	1021.77
779.539	976.71
779.721	974.66
779.903	1046.34
780.085	970.57
780.267	1027.91
780.449	978.76
780.631	1056.58
780.812	1001.29
780.994	962.37
781.176	954.18
781.358	952.13
781.54	974.66
781.721	986.95
781.903	1007.43
782.085	943.94
782.267	896.84
782.448	833.35
782.63	950.09
782.812	894.79
782.993	855.88
783.175	943.94
783.357	814.92
783.538	927.56
783.72	864.07
783.901	755.53
784.083	872.26
784.264	888.65
784.446	819.02
784.627	819.02
784.809	782.15
784.99	749.39
785.172	767.82
785.353	837.45
785.535	800.59
785.716	735.05
785.897	683.85
786.079	796.49
786.26	704.33
786.441	771.91
786.623	692.04
786.804	706.38
786.985	720.71
787.167	638.8
787.348	726.86
787.529	577.36
787.71	741.19
787.891	646.99
788.073	692.04
788.254	679.75
788.435	702.28
788.616	669.52
788.797	642.89
788.978	689.99
789.159	569.16
789.34	714.57
789.522	640.84
789.703	558.92
789.884	632.65
790.065	622.41
790.246	708.43
790.427	624.46
790.607	618.32
790.788	628.56
790.969	610.12
791.15	554.83
791.331	601.93
791.512	567.12
791.693	585.55
791.874	542.54
792.054	671.56
792.235	601.93
792.416	579.4
792.597	556.88
792.778	524.11
792.958	511.82
793.139	575.31
793.32	683.85
793.5	513.87
793.681	591.69
793.862	587.6
794.042	542.54
794.223	458.57
794.404	538.45
794.584	497.49
794.765	538.45
794.945	591.69
795.126	550.73
795.306	536.4
795.487	462.67
795.667	483.15
795.848	499.53
796.028	483.15
796.209	569.16
796.389	544.59
796.57	528.21
796.75	390.99
796.93	511.82
797.111	405.33
797.291	450.38
797.471	558.92
797.652	378.7
797.832	378.7
798.012	507.73
798.192	413.52
798.373	517.97
798.553	397.14
798.733	434
798.913	376.66
799.093	417.61
799.274	481.1
799.454	393.04
799.634	477.01
799.814	468.81
799.994	466.77
800.174	495.44
800.354	368.46
800.534	323.41
800.714	456.53
800.894	403.28
801.074	474.96
801.254	450.38
801.434	524.11
801.614	364.37
801.794	261.97
801.974	1347.39
802.154	360.27
802.334	362.32
802.514	356.18
802.693	358.22
802.873	366.42
803.053	399.18
803.233	388.94
803.413	413.52
803.592	302.93
803.772	372.56
803.952	372.56
804.131	311.12
804.311	388.94
804.491	440.14
804.67	341.84
804.85	331.6
805.03	399.18
805.209	440.14
805.389	317.26
805.568	329.55
805.748	368.46
805.928	378.7
806.107	380.75
806.287	321.36
806.466	307.02
806.646	282.45
806.825	304.98
807.004	345.94
807.184	296.78
807.363	331.6
807.543	341.84
807.722	249.68
807.901	302.93
808.081	354.13
808.26	261.97
808.439	294.74
808.619	261.97
808.798	235.35
808.977	243.54
809.156	304.98
809.336	368.46
809.515	403.28
809.694	253.78
809.873	241.49
810.052	292.69
810.231	368.46
810.411	276.31
810.59	317.26
810.769	339.79
810.948	313.17
811.127	204.63
811.306	302.93
811.485	274.26
811.664	311.12
811.843	241.49
812.022	259.92
812.201	239.44
812.38	251.73
812.559	249.68
812.737	360.27
812.916	163.67
813.095	245.59
813.274	329.55
813.453	249.68
813.632	257.87
813.811	227.15
813.989	169.81
814.168	268.11
814.347	237.39
814.526	208.72
814.704	294.74
814.883	255.83
815.062	206.67
815.24	280.4
815.419	188.24
815.598	261.97
815.776	223.06
815.955	261.97
816.133	198.48
816.312	178
816.49	255.83
816.669	196.43
816.847	266.07
817.026	190.29
817.204	243.54
817.383	225.11
817.561	163.67
817.74	329.55
817.918	278.35
818.097	225.11
818.275	233.3
818.453	300.88
818.632	284.5
818.81	221.01
818.988	194.39
819.167	126.8
819.345	155.47
819.523	231.25
819.701	159.57
819.879	182.1
820.058	257.87
820.236	212.82
820.414	126.8
820.592	206.67
820.77	194.39
820.948	137.04
821.127	147.28
821.305	167.76
821.483	184.15
821.661	241.49
821.839	200.53
822.017	157.52
822.195	245.59
822.373	132.95
822.551	198.48
822.729	321.36
822.907	153.43
823.085	171.86
823.262	186.19
823.44	169.81
823.618	110.42
823.796	257.87
823.974	153.43
824.152	153.43
824.329	143.19
824.507	231.25
824.685	221.01
824.863	210.77
825.04	227.15
825.218	159.57
825.396	184.15
825.574	208.72
825.751	178
825.929	145.24
826.107	159.57
826.284	192.34
826.462	225.11
826.639	114.52
826.817	120.66
826.994	141.14
827.172	159.57
827.349	264.02
827.527	161.62
827.704	118.61
827.882	208.72
828.059	141.14
828.237	98.13
828.414	151.38
828.591	51.03
828.769	141.14
828.946	135
829.124	143.19
829.301	190.29
829.478	196.43
829.655	132.95
829.833	175.95
830.01	110.42
830.187	145.24
830.364	98.13
830.542	188.24
830.719	216.91
830.896	214.87
831.073	128.85
831.25	167.76
831.427	135
831.604	171.86
831.782	55.12
831.959	53.08
832.136	126.8
832.313	132.95
832.49	98.13
832.667	100.18
832.844	178
833.021	214.87
833.198	210.77
833.374	159.57
833.551	118.61
833.728	85.84
833.905	128.85
834.082	-16.55
834.259	175.95
834.436	198.48
834.612	69.46
834.789	169.81
834.966	169.81
835.143	79.7
835.319	61.27
835.496	106.32
835.673	137.04
835.85	159.57
836.026	128.85
836.203	212.82
836.38	128.85
836.556	42.84
836.733	48.98
836.909	200.53
837.086	87.89
837.262	24.4
837.439	118.61
837.616	34.64
837.792	55.12
837.968	110.42
838.145	28.5
838.321	81.75
838.498	112.47
838.674	161.62
838.851	214.87
839.027	139.09
839.203	77.65
839.38	85.84
839.556	91.99
839.732	118.61
839.909	100.18
840.085	157.52
840.261	-2.22
840.437	59.22
840.614	106.32
840.79	190.29
840.966	141.14
841.142	83.8
841.318	141.14
841.494	63.32
841.671	137.04
841.847	22.36
842.023	100.18
842.199	89.94
842.375	151.38
842.551	-2.22
842.727	26.45
842.903	165.71
843.079	24.4
843.255	173.91
843.431	108.37
843.607	173.91
843.783	-14.51
843.959	85.84
844.134	53.08
844.31	100.18
844.486	94.04
844.662	32.6
844.838	85.84
845.013	104.28
845.189	128.85
845.365	108.37
845.541	89.94
845.716	151.38
845.892	175.95
846.068	100.18
846.244	65.36
846.419	40.79
846.595	161.62
846.77	81.75
846.946	83.8
847.122	48.98
847.297	85.84
847.473	100.18
847.648	48.98
847.824	135
847.999	22.36
848.175	102.23
848.35	75.6
848.526	77.65
848.701	77.65
848.876	100.18
849.052	149.33
849.227	83.8
849.403	16.21
849.578	108.37
849.753	24.4
849.929	175.95
850.104	18.26
850.279	94.04
850.454	42.84
850.63	61.27
850.805	34.64
850.98	55.12
851.155	149.33
851.33	87.89
851.505	20.31
851.681	141.14
851.856	44.88
852.031	75.6
852.206	77.65
852.381	-6.31
852.556	81.75
852.731	22.36
852.906	44.88
853.081	87.89
853.256	114.52
853.431	14.17
853.606	81.75
853.781	67.41
853.956	24.4
854.131	77.65
854.305	51.03
854.48	71.51
854.655	18.26
854.83	32.6
855.005	59.22
855.18	71.51
855.354	46.93
855.529	46.93
855.704	55.12
855.879	65.36
856.053	81.75
856.228	132.95
856.403	-6.31
856.577	85.84
856.752	-10.41
856.926	79.7
857.101	48.98
857.276	51.03
857.45	139.09
857.625	65.36
857.799	32.6
857.974	59.22
858.148	-12.46
858.323	87.89
858.497	10.07
858.672	141.14
858.846	87.89
859.02	96.08
859.195	36.69
859.369	73.56
859.543	91.99
859.718	40.79
859.892	98.13
860.066	3.93
860.241	24.4
860.415	30.55
860.589	71.51
860.763	63.32
860.938	12.12
861.112	53.08
861.286	-30.89
861.46	83.8
861.634	106.32
861.808	100.18
861.982	81.75
862.157	59.22
862.331	12.12
862.505	-12.46
862.679	30.55
862.853	48.98
863.027	91.99
863.201	71.51
863.375	24.4
863.549	32.6
863.722	48.98
863.896	87.89
864.07	8.02
864.244	102.23
864.418	122.71
864.592	51.03
864.766	59.22
864.939	53.08
865.113	-55.47
865.287	94.04
865.461	-37.03
865.634	63.32
865.808	24.4
865.982	51.03
866.156	-28.84
866.329	-37.03
866.503	63.32
866.676	83.8
866.85	-6.31
867.024	-10.41
867.197	26.45
867.371	124.76
867.544	3.93
867.718	-45.23
867.891	69.46
868.065	-39.08
868.238	32.6
868.412	102.23
868.585	1.88
868.759	-10.41
868.932	30.55
869.105	94.04
869.279	-10.41
869.452	-53.42
869.625	-14.51
869.799	44.88
869.972	-39.08
870.145	1.88
870.319	67.41
870.492	1.88
870.665	-2.22
870.838	-22.7
871.011	-39.08
871.185	48.98
871.358	30.55
871.531	94.04
871.704	-16.55
871.877	-6.31
872.05	-4.27
872.223	59.22
872.396	96.08
872.569	85.84
872.742	-22.7
872.915	94.04
873.088	38.74
873.261	-22.7
873.434	94.04
873.607	14.17
873.78	83.8
873.953	22.36
874.126	57.17
874.299	61.27
874.471	-32.94
874.644	53.08
874.817	89.94
874.99	83.8
875.163	10.07
875.335	-16.55
875.508	-75.95
875.681	75.6
875.853	32.6
876.026	-8.36
876.199	120.66
876.371	24.4
876.544	-4.27
876.717	65.36
876.889	51.03
877.062	61.27
877.234	-4.27
877.407	-47.27
877.579	-10.41
877.752	-22.7
877.924	57.17
878.097	16.21
878.269	28.5
878.442	59.22
878.614	-0.17
878.786	73.56
878.959	30.55
879.131	65.36
879.303	-18.6
879.476	14.17
879.648	8.02
879.82	63.32
879.993	-10.41
880.165	-39.08
880.337	16.21
880.509	40.79
880.681	-4.27
880.854	-41.13
881.026	51.03
881.198	122.71
881.37	-2.22
881.542	-34.99
881.714	3.93
881.886	-20.65
882.058	8.02
882.23	-8.36
882.402	-67.75
882.574	53.08
882.746	79.7
882.918	108.37
883.09	71.51
883.262	-30.89
883.434	20.31
883.606	20.31
883.778	-22.7
883.95	73.56
884.122	1.88
884.293	38.74
884.465	-10.41
884.637	100.18
884.809	28.5
884.98	61.27
885.152	53.08
885.324	63.32
885.496	8.02
885.667	40.79
885.839	-57.51
886.011	163.67
886.182	77.65
886.354	26.45
886.525	38.74
886.697	8.02
886.869	-39.08
887.04	42.84
887.212	83.8
887.383	104.28
887.555	1.88
887.726	-37.03
887.897	-22.7
888.069	36.69
888.24	-2.22
888.412	-34.99
888.583	57.17
888.754	98.13
888.926	-24.75
889.097	55.12
889.268	32.6
889.44	-14.51
889.611	12.12
889.782	-80.04
889.953	1.88
890.125	65.36
890.296	-14.51
890.467	-80.04
890.638	32.6
890.809	48.98
890.98	-49.32
891.151	61.27
891.323	71.51
891.494	40.79
891.665	91.99
891.836	-18.6
892.007	36.69
892.178	5.97
892.349	24.4
892.52	-69.8
892.691	-4.27
892.862	-30.89
893.032	-49.32
893.203	30.55
893.374	1.88
893.545	1.88
893.716	-22.7
893.887	48.98
894.057	-32.94
894.228	18.26
894.399	28.5
894.57	110.42
894.74	-47.27
894.911	85.84
895.082	79.7
895.253	-14.51
895.423	55.12
895.594	108.37
895.764	22.36
895.935	-67.75
896.106	1.88
896.276	-18.6
896.447	36.69
896.617	-20.65
896.788	-12.46
896.958	16.21
897.129	65.36
897.299	-2.22
897.47	55.12
897.64	61.27
897.81	-28.84
897.981	38.74
898.151	-12.46
898.322	91.99
898.492	83.8
898.662	26.45
898.832	-110.76
899.003	63.32
899.173	63.32
899.343	-32.94
899.513	42.84
