Data from USB4F104151__26__12-11-45-359.txt Node

Date: Fri Mar 14 12:11:45 EDT 2025
User: louis
Spectrometer: USB4F10415
Trigger mode: 4
Integration Time (sec): 5.000000E-2
Scans to average: 1
Electric dark correction enabled: true
Nonlinearity correction enabled: false
Boxcar width: 0
XAxis mode: Wavelengths
Number of Pixels in Spectrum: 3648
>>>>>Begin Spectral Data<<<<<
178.204	-190.63
178.424	-190.63
178.644	-190.63
178.864	-164.01
179.084	-182.44
179.304	-30.89
179.524	-24.75
179.744	51.03
179.964	110.42
180.184	-32.94
180.404	18.26
180.624	-16.55
180.844	36.69
181.064	-77.99
181.283	-2.22
181.503	-55.47
181.723	24.4
181.943	14.17
182.163	145.24
182.383	38.74
182.602	110.42
182.822	81.75
183.042	91.99
183.262	96.08
183.482	67.41
183.701	28.5
183.921	38.74
184.141	-12.46
184.361	71.51
184.58	24.4
184.8	28.5
185.02	28.5
185.239	122.71
185.459	3.93
185.679	120.66
185.898	16.21
186.118	132.95
186.338	-4.27
186.557	69.46
186.777	61.27
186.997	67.41
187.216	18.26
187.436	108.37
187.655	34.64
187.875	106.32
188.095	-0.17
188.314	173.91
188.534	114.52
188.753	30.55
188.973	59.22
189.192	89.94
189.412	40.79
189.631	59.22
189.851	73.56
190.07	120.66
190.29	-22.7
190.509	18.26
190.729	85.84
190.948	73.56
191.168	311.12
191.387	73.56
191.607	40.79
191.826	16.21
192.045	79.7
192.265	-0.17
192.484	85.84
192.704	67.41
192.923	-12.46
193.142	190.29
193.362	46.93
193.581	57.17
193.8	89.94
194.02	153.43
194.239	77.65
194.458	112.47
194.678	12.12
194.897	28.5
195.116	73.56
195.335	10.07
195.555	102.23
195.774	22.36
195.993	122.71
196.212	8.02
196.432	18.26
196.651	38.74
196.87	48.98
197.089	204.63
197.308	126.8
197.528	26.45
197.747	-14.51
197.966	26.45
198.185	98.13
198.404	-2.22
198.623	137.04
198.842	130.9
199.062	106.32
199.281	126.8
199.5	10.07
199.719	-18.6
199.938	83.8
200.157	94.04
200.376	143.19
200.595	151.38
200.814	104.28
201.033	59.22
201.252	85.84
201.471	69.46
201.69	132.95
201.909	-4.27
202.128	36.69
202.347	108.37
202.566	-10.41
202.785	-28.84
203.004	22.36
203.223	165.71
203.442	38.74
203.661	34.64
203.879	53.08
204.098	98.13
204.317	-34.99
204.536	96.08
204.755	94.04
204.974	69.46
205.193	26.45
205.411	169.81
205.63	69.46
205.849	61.27
206.068	83.8
206.287	102.23
206.505	81.75
206.724	79.7
206.943	8.02
207.162	46.93
207.381	85.84
207.599	65.36
207.818	57.17
208.037	71.51
208.255	22.36
208.474	91.99
208.693	30.55
208.911	135
209.13	198.48
209.349	20.31
209.567	106.32
209.786	77.65
210.005	61.27
210.223	81.75
210.442	-16.55
210.661	61.27
210.879	71.51
211.098	46.93
211.316	34.64
211.535	61.27
211.753	75.6
211.972	42.84
212.191	53.08
212.409	94.04
212.628	96.08
212.846	-16.55
213.065	112.47
213.283	100.18
213.502	40.79
213.72	67.41
213.938	40.79
214.157	16.21
214.375	122.71
214.594	96.08
214.812	67.41
215.031	-10.41
215.249	-2.22
215.467	-37.03
215.686	-12.46
215.904	85.84
216.122	18.26
216.341	91.99
216.559	48.98
216.778	120.66
216.996	1.88
217.214	59.22
217.432	59.22
217.651	91.99
217.869	34.64
218.087	96.08
218.306	-24.75
218.524	104.28
218.742	57.17
218.96	67.41
219.179	12.12
219.397	69.46
219.615	114.52
219.833	73.56
220.051	24.4
220.27	102.23
220.488	61.27
220.706	130.9
220.924	26.45
221.142	69.46
221.36	75.6
221.578	40.79
221.796	57.17
222.015	61.27
222.233	65.36
222.451	128.85
222.669	-6.31
222.887	87.89
223.105	-20.65
223.323	-37.03
223.541	-14.51
223.759	77.65
223.977	-6.31
224.195	108.37
224.413	38.74
224.631	75.6
224.849	71.51
225.067	48.98
225.285	32.6
225.503	75.6
225.721	-12.46
225.939	63.32
226.157	98.13
226.375	216.91
226.592	36.69
226.81	8.02
227.028	159.57
227.246	153.43
227.464	10.07
227.682	112.47
227.9	59.22
228.117	32.6
228.335	110.42
228.553	-10.41
228.771	102.23
228.989	61.27
229.206	75.6
229.424	-22.7
229.642	89.94
229.86	5.97
230.077	73.56
230.295	26.45
230.513	155.47
230.731	28.5
230.948	149.33
231.166	96.08
231.384	24.4
231.601	87.89
231.819	59.22
232.037	-59.56
232.254	-71.85
232.472	-12.46
232.689	53.08
232.907	63.32
233.125	104.28
233.342	-6.31
233.56	67.41
233.777	40.79
233.995	87.89
234.213	130.9
234.43	1.88
234.648	18.26
234.865	34.64
235.083	63.32
235.3	22.36
235.518	71.51
235.735	141.14
235.953	57.17
236.17	63.32
236.388	75.6
236.605	-37.03
236.822	110.42
237.04	1.88
237.257	63.32
237.475	12.12
237.692	79.7
237.909	44.88
238.127	8.02
238.344	65.36
238.562	38.74
238.779	-2.22
238.996	-6.31
239.214	51.03
239.431	67.41
239.648	48.98
239.865	53.08
240.083	75.6
240.3	28.5
240.517	-30.89
240.735	67.41
240.952	141.14
241.169	124.76
241.386	83.8
241.603	75.6
241.821	-16.55
242.038	91.99
242.255	24.4
242.472	32.6
242.689	59.22
242.907	130.9
243.124	71.51
243.341	104.28
243.558	24.4
243.775	28.5
243.992	-73.9
244.209	87.89
244.426	194.39
244.643	114.52
244.86	75.6
245.078	132.95
245.295	65.36
245.512	-37.03
245.729	-0.17
245.946	44.88
246.163	51.03
246.38	83.8
246.597	-14.51
246.814	34.64
247.031	12.12
247.248	38.74
247.464	98.13
247.681	-41.13
247.898	65.36
248.115	36.69
248.332	26.45
248.549	71.51
248.766	157.52
248.983	69.46
249.2	12.12
249.417	16.21
249.633	81.75
249.85	71.51
250.067	38.74
250.284	61.27
250.501	16.21
250.717	102.23
250.934	-0.17
251.151	65.36
251.368	55.12
251.585	102.23
251.801	10.07
252.018	22.36
252.235	24.4
252.451	94.04
252.668	53.08
252.885	153.43
253.102	130.9
253.318	-4.27
253.535	28.5
253.752	-12.46
253.968	83.8
254.185	28.5
254.401	1.88
254.618	81.75
254.835	36.69
255.051	96.08
255.268	143.19
255.484	36.69
255.701	22.36
255.917	77.65
256.134	5.97
256.351	5.97
256.567	53.08
256.784	114.52
257	-20.65
257.217	135
257.433	79.7
257.65	-4.27
257.866	61.27
258.082	-75.95
258.299	-10.41
258.515	53.08
258.732	20.31
258.948	100.18
259.165	126.8
259.381	57.17
259.597	87.89
259.814	79.7
260.03	81.75
260.246	28.5
260.463	69.46
260.679	77.65
260.895	3.93
261.112	73.56
261.328	26.45
261.544	36.69
261.761	214.87
261.977	12.12
262.193	-14.51
262.409	118.61
262.626	85.84
262.842	122.71
263.058	28.5
263.274	91.99
263.49	108.37
263.707	100.18
263.923	59.22
264.139	3.93
264.355	-6.31
264.571	114.52
264.787	110.42
265.004	122.71
265.22	20.31
265.436	85.84
265.652	30.55
265.868	149.33
266.084	20.31
266.3	59.22
266.516	26.45
266.732	79.7
266.948	12.12
267.164	5.97
267.38	122.71
267.596	38.74
267.812	184.15
268.028	69.46
268.244	46.93
268.46	61.27
268.676	128.85
268.892	-16.55
269.108	18.26
269.324	8.02
269.54	1.88
269.756	106.32
269.972	-20.65
270.188	-0.17
270.403	26.45
270.619	122.71
270.835	89.94
271.051	24.4
271.267	16.21
271.483	32.6
271.698	98.13
271.914	44.88
272.13	36.69
272.346	102.23
272.562	116.56
272.777	139.09
272.993	51.03
273.209	57.17
273.425	112.47
273.64	71.51
273.856	132.95
274.072	26.45
274.287	-22.7
274.503	18.26
274.719	81.75
274.934	79.7
275.15	16.21
275.366	1.88
275.581	5.97
275.797	53.08
276.012	91.99
276.228	75.6
276.444	57.17
276.659	167.76
276.875	57.17
277.09	36.69
277.306	77.65
277.521	44.88
277.737	38.74
277.952	63.32
278.168	87.89
278.383	26.45
278.599	-18.6
278.814	102.23
279.03	59.22
279.245	135
279.461	-55.47
279.676	108.37
279.892	-30.89
280.107	-12.46
280.322	91.99
280.538	55.12
280.753	34.64
280.969	85.84
281.184	-2.22
281.399	30.55
281.615	91.99
281.83	141.14
282.045	38.74
282.26	32.6
282.476	89.94
282.691	48.98
282.906	96.08
283.122	36.69
283.337	3.93
283.552	124.76
283.767	-2.22
283.983	55.12
284.198	-37.03
284.413	102.23
284.628	-32.94
284.843	32.6
285.058	69.46
285.274	65.36
285.489	16.21
285.704	69.46
285.919	89.94
286.134	75.6
286.349	38.74
286.564	-20.65
286.779	126.8
286.995	38.74
287.21	-12.46
287.425	98.13
287.64	10.07
287.855	126.8
288.07	-30.89
288.285	81.75
288.5	44.88
288.715	79.7
288.93	87.89
289.145	51.03
289.36	42.84
289.575	79.7
289.79	108.37
290.004	8.02
290.219	81.75
290.434	32.6
290.649	12.12
290.864	69.46
291.079	44.88
291.294	71.51
291.509	81.75
291.724	51.03
291.938	32.6
292.153	91.99
292.368	20.31
292.583	34.64
292.798	94.04
293.012	102.23
293.227	1.88
293.442	59.22
293.657	28.5
293.871	91.99
294.086	67.41
294.301	73.56
294.516	67.41
294.73	32.6
294.945	75.6
295.16	59.22
295.374	81.75
295.589	98.13
295.804	34.64
296.018	38.74
296.233	63.32
296.447	85.84
296.662	-10.41
296.877	20.31
297.091	59.22
297.306	59.22
297.52	53.08
297.735	-10.41
297.949	26.45
298.164	42.84
298.378	20.31
298.593	-24.75
298.807	42.84
299.022	77.65
299.236	102.23
299.451	34.64
299.665	-2.22
299.88	67.41
300.094	26.45
300.309	85.84
300.523	51.03
300.737	122.71
300.952	36.69
301.166	104.28
301.381	55.12
301.595	14.17
301.809	61.27
302.024	48.98
302.238	71.51
302.452	57.17
302.667	63.32
302.881	98.13
303.095	42.84
303.309	116.56
303.524	22.36
303.738	30.55
303.952	108.37
304.166	89.94
304.381	14.17
304.595	102.23
304.809	38.74
305.023	98.13
305.237	20.31
305.452	26.45
305.666	69.46
305.88	51.03
306.094	48.98
306.308	44.88
306.522	114.52
306.736	91.99
306.95	145.24
307.164	36.69
307.379	8.02
307.593	81.75
307.807	85.84
308.021	79.7
308.235	36.69
308.449	51.03
308.663	102.23
308.877	145.24
309.091	18.26
309.305	89.94
309.519	-24.75
309.733	100.18
309.947	51.03
310.161	26.45
310.374	149.33
310.588	75.6
310.802	28.5
311.016	65.36
311.23	16.21
311.444	-28.84
311.658	59.22
311.872	141.14
312.085	20.31
312.299	34.64
312.513	28.5
312.727	26.45
312.941	10.07
313.154	65.36
313.368	55.12
313.582	18.26
313.796	22.36
314.009	18.26
314.223	145.24
314.437	57.17
314.651	63.32
314.864	-26.79
315.078	14.17
315.292	-30.89
315.505	-6.31
315.719	44.88
315.933	73.56
316.146	5.97
316.36	10.07
316.573	26.45
316.787	67.41
317.001	139.09
317.214	-22.7
317.428	87.89
317.641	22.36
317.855	-12.46
318.068	-0.17
318.282	-6.31
318.495	167.76
318.709	71.51
318.922	28.5
319.136	120.66
319.349	114.52
319.563	12.12
319.776	71.51
319.99	-16.55
320.203	135
320.417	48.98
320.63	75.6
320.843	18.26
321.057	98.13
321.27	73.56
321.483	55.12
321.697	96.08
321.91	73.56
322.124	73.56
322.337	94.04
322.55	-6.31
322.763	16.21
322.977	77.65
323.19	16.21
323.403	42.84
323.617	-0.17
323.83	79.7
324.043	44.88
324.256	34.64
324.469	3.93
324.683	169.81
324.896	38.74
325.109	10.07
325.322	-71.85
325.535	141.14
325.748	67.41
325.962	8.02
326.175	77.65
326.388	149.33
326.601	71.51
326.814	18.26
327.027	30.55
327.24	165.71
327.453	96.08
327.666	81.75
327.879	75.6
328.092	89.94
328.305	100.18
328.518	-0.17
328.731	-10.41
328.944	91.99
329.157	46.93
329.37	65.36
329.583	89.94
329.796	173.91
330.009	40.79
330.222	112.47
330.435	94.04
330.648	46.93
330.861	57.17
331.073	130.9
331.286	147.28
331.499	100.18
331.712	53.08
331.925	-4.27
332.138	116.56
332.35	163.67
332.563	42.84
332.776	57.17
332.989	-32.94
333.202	77.65
333.414	77.65
333.627	57.17
333.84	55.12
334.053	34.64
334.265	18.26
334.478	22.36
334.691	108.37
334.903	38.74
335.116	34.64
335.329	55.12
335.541	73.56
335.754	130.9
335.966	42.84
336.179	36.69
336.392	73.56
336.604	40.79
336.817	104.28
337.029	102.23
337.242	22.36
337.454	167.76
337.667	3.93
337.88	118.61
338.092	87.89
338.305	85.84
338.517	71.51
338.729	126.8
338.942	159.57
339.154	36.69
339.367	-22.7
339.579	57.17
339.792	40.79
340.004	132.95
340.217	28.5
340.429	51.03
340.641	34.64
340.854	114.52
341.066	30.55
341.278	55.12
341.491	139.09
341.703	96.08
341.915	-12.46
342.128	96.08
342.34	67.41
342.552	-16.55
342.764	10.07
342.977	24.4
343.189	63.32
343.401	42.84
343.613	32.6
343.826	36.69
344.038	1.88
344.25	116.56
344.462	10.07
344.674	141.14
344.886	112.47
345.099	46.93
345.311	141.14
345.523	71.51
345.735	57.17
345.947	51.03
346.159	61.27
346.371	51.03
346.583	5.97
346.795	139.09
347.007	77.65
347.219	20.31
347.431	55.12
347.643	61.27
347.855	26.45
348.067	24.4
348.279	10.07
348.491	53.08
348.703	102.23
348.915	14.17
349.127	24.4
349.339	96.08
349.551	44.88
349.763	69.46
349.975	14.17
350.187	145.24
350.399	51.03
350.61	151.38
350.822	89.94
351.034	53.08
351.246	106.32
351.458	51.03
351.669	42.84
351.881	87.89
352.093	63.32
352.305	112.47
352.517	114.52
352.728	89.94
352.94	147.28
353.152	73.56
353.363	63.32
353.575	67.41
353.787	110.42
353.999	130.9
354.21	118.61
354.422	16.21
354.633	61.27
354.845	28.5
355.057	24.4
355.268	77.65
355.48	61.27
355.692	20.31
355.903	118.61
356.115	44.88
356.326	48.98
356.538	67.41
356.749	59.22
356.961	175.95
357.172	81.75
357.384	18.26
357.595	186.19
357.807	10.07
358.018	89.94
358.23	108.37
358.441	161.62
358.653	116.56
358.864	100.18
359.075	59.22
359.287	100.18
359.498	104.28
359.709	106.32
359.921	104.28
360.132	65.36
360.344	110.42
360.555	12.12
360.766	112.47
360.977	83.8
361.189	104.28
361.4	46.93
361.611	110.42
361.823	79.7
362.034	75.6
362.245	-75.95
362.456	59.22
362.667	51.03
362.879	75.6
363.09	42.84
363.301	171.86
363.512	118.61
363.723	51.03
363.935	132.95
364.146	135
364.357	18.26
364.568	44.88
364.779	34.64
364.99	171.86
365.201	12.12
365.412	98.13
365.623	12.12
365.834	61.27
366.045	89.94
366.256	126.8
366.467	46.93
366.678	36.69
366.889	89.94
367.1	102.23
367.311	128.85
367.522	22.36
367.733	102.23
367.944	108.37
368.155	83.8
368.366	110.42
368.577	110.42
368.788	44.88
368.999	38.74
369.209	100.18
369.42	157.52
369.631	163.67
369.842	30.55
370.053	40.79
370.264	149.33
370.474	-24.75
370.685	40.79
370.896	57.17
371.107	102.23
371.317	147.28
371.528	85.84
371.739	69.46
371.95	81.75
372.16	-34.99
372.371	42.84
372.582	-4.27
372.792	-0.17
373.003	-10.41
373.214	59.22
373.424	38.74
373.635	-47.27
373.846	87.89
374.056	116.56
374.267	139.09
374.477	59.22
374.688	12.12
374.898	100.18
375.109	96.08
375.319	85.84
375.53	96.08
375.74	157.52
375.951	79.7
376.161	85.84
376.372	96.08
376.582	79.7
376.793	102.23
377.003	53.08
377.214	61.27
377.424	44.88
377.635	106.32
377.845	-6.31
378.055	59.22
378.266	5.97
378.476	10.07
378.686	26.45
378.897	83.8
379.107	100.18
379.317	71.51
379.528	83.8
379.738	91.99
379.948	16.21
380.158	94.04
380.369	38.74
380.579	94.04
380.789	87.89
380.999	132.95
381.21	94.04
381.42	188.24
381.63	104.28
381.84	75.6
382.05	167.76
382.261	71.51
382.471	79.7
382.681	24.4
382.891	116.56
383.101	100.18
383.311	69.46
383.521	38.74
383.731	85.84
383.941	91.99
384.151	67.41
384.361	26.45
384.571	32.6
384.781	108.37
384.991	100.18
385.201	100.18
385.411	77.65
385.621	53.08
385.831	94.04
386.041	137.04
386.251	85.84
386.461	108.37
386.671	77.65
386.881	116.56
387.091	46.93
387.301	77.65
387.511	108.37
387.72	130.9
387.93	44.88
388.14	42.84
388.35	30.55
388.56	110.42
388.769	75.6
388.979	18.26
389.189	28.5
389.399	94.04
389.609	106.32
389.818	132.95
390.028	71.51
390.238	91.99
390.447	89.94
390.657	-20.65
390.867	26.45
391.076	65.36
391.286	81.75
391.496	94.04
391.705	137.04
391.915	143.19
392.125	108.37
392.334	-10.41
392.544	157.52
392.753	85.84
392.963	53.08
393.172	67.41
393.382	40.79
393.591	104.28
393.801	51.03
394.01	135
394.22	128.85
394.429	118.61
394.639	57.17
394.848	112.47
395.058	65.36
395.267	122.71
395.477	145.24
395.686	143.19
395.895	175.95
396.105	159.57
396.314	147.28
396.524	108.37
396.733	100.18
396.942	81.75
397.152	69.46
397.361	186.19
397.57	100.18
397.78	94.04
397.989	132.95
398.198	155.47
398.407	48.98
398.617	79.7
398.826	94.04
399.035	102.23
399.244	214.87
399.453	124.76
399.663	161.62
399.872	100.18
400.081	55.12
400.29	216.91
400.499	87.89
400.708	182.1
400.917	151.38
401.127	137.04
401.336	143.19
401.545	141.14
401.754	210.77
401.963	69.46
402.172	163.67
402.381	71.51
402.59	91.99
402.799	188.24
403.008	110.42
403.217	110.42
403.426	145.24
403.635	73.56
403.844	159.57
404.053	190.29
404.262	143.19
404.471	276.31
404.68	118.61
404.888	200.53
405.097	149.33
405.306	169.81
405.515	130.9
405.724	206.67
405.933	290.64
406.142	171.86
406.35	280.4
406.559	178
406.768	210.77
406.977	268.11
407.185	274.26
407.394	200.53
407.603	227.15
407.812	231.25
408.02	325.46
408.229	171.86
408.438	292.69
408.646	200.53
408.855	202.58
409.064	282.45
409.272	264.02
409.481	309.07
409.69	257.87
409.898	288.59
410.107	300.88
410.315	425.81
410.524	257.87
410.733	417.61
410.941	376.66
411.15	407.38
411.358	413.52
411.567	499.53
411.775	470.86
411.984	454.48
412.192	503.63
412.401	499.53
412.609	565.07
412.818	554.83
413.026	542.54
413.234	567.12
413.443	567.12
413.651	606.03
413.86	646.99
414.068	692.04
414.276	671.56
414.485	649.04
414.693	728.91
414.901	798.54
415.11	710.47
415.318	712.52
415.526	786.25
415.734	821.06
415.943	864.07
416.151	905.03
416.359	849.74
416.567	1017.67
416.776	833.35
416.984	1081.16
417.192	958.28
417.4	939.85
417.608	1050.44
417.817	997.19
418.025	1142.6
418.233	1216.32
418.441	1156.93
418.649	1324.87
418.857	1322.82
419.065	1439.55
419.273	1181.51
419.481	1326.91
419.689	1462.08
419.897	1535.81
420.105	1400.64
420.313	1685.31
420.521	1775.42
420.729	1664.83
420.937	1822.52
421.145	1904.44
421.353	1888.06
421.561	1990.45
421.769	2004.79
421.977	2127.67
422.185	2131.76
422.393	2279.22
422.601	2266.93
422.809	2287.41
423.017	2285.36
423.224	2305.84
423.432	2545.45
423.64	2518.83
423.848	2791.21
424.056	2654
424.263	2944.81
424.471	2887.47
424.679	3036.97
424.887	3198.76
425.094	3243.81
425.302	3385.12
425.51	3411.75
425.718	3522.34
425.925	3579.68
426.133	3708.7
426.341	3940.12
426.548	3823.39
426.756	4116.25
426.964	4097.81
427.171	4224.79
427.379	4329.24
427.586	4437.78
427.794	4597.52
428.001	4886.28
428.209	4984.59
428.417	4955.91
428.624	5183.24
428.832	5234.44
429.039	5273.35
429.247	5158.66
429.454	5818.11
429.662	5965.56
429.869	5697.28
430.076	6129.4
430.284	5811.96
430.491	6311.67
430.699	6561.52
430.906	6577.9
431.114	6788.85
431.321	7003.88
431.528	7188.2
431.736	7495.39
431.943	7900.89
432.15	7499.49
432.358	7661.28
432.565	8189.66
432.772	8177.37
432.979	8548.05
433.187	8519.38
433.394	8675.02
433.601	9291.46
433.808	9332.42
434.016	9221.83
434.223	9682.63
434.43	10139.32
434.637	10032.83
434.844	10829.49
435.052	10935.98
435.259	10729.14
435.466	10862.26
435.673	10688.18
435.88	11333.29
436.087	12015.26
436.294	11959.97
436.501	11769.51
436.708	11945.63
436.915	12555.93
437.122	13069.97
437.329	12975.76
437.537	13313.67
437.743	13584.01
437.95	13686.4
438.157	13893.25
438.364	14505.59
438.571	14513.78
438.778	14694.01
438.985	16162.4
439.192	15402.6
439.399	15853.16
439.606	15564.39
439.813	16209.5
440.02	17129.04
440.227	17047.12
440.433	17010.26
440.64	17698.38
440.847	17407.56
441.054	17903.17
441.261	18777.65
441.467	18529.85
441.674	19103.28
441.881	19584.55
442.088	19629.61
442.294	19668.52
442.501	20229.66
442.708	20454.94
442.914	21186.07
443.121	22214.15
443.328	21599.76
443.534	23213.56
443.741	22709.75
443.948	22144.52
444.154	23801.32
444.361	23504.37
444.568	23645.68
444.774	23774.7
444.981	23918.06
445.187	24919.51
445.394	25841.1
445.6	25341.39
445.807	27905.45
446.013	26641.85
446.22	26824.12
446.426	27993.51
446.633	28509.6
446.839	29529.49
447.046	27975.08
447.252	29781.39
447.459	29715.86
447.665	29509.01
447.871	31020.41
448.078	32490.85
448.284	31020.41
448.491	31384.95
448.697	32744.8
448.903	33174.88
449.11	33553.75
449.316	33015.13
449.522	33406.3
449.728	34458.95
449.935	34469.19
450.141	34454.86
450.347	35439.93
450.553	34000.21
450.76	34606.41
450.966	35870
451.172	35315
451.378	36175.15
451.584	35087.68
451.791	36848.93
451.997	35933.49
452.203	36488.49
452.409	36930.85
452.615	36240.68
452.821	35280.19
453.027	34776.39
453.233	36724
453.44	35175.74
453.646	35853.62
453.852	35937.58
454.058	36259.12
454.264	34966.85
454.47	36140.33
454.676	35130.69
454.882	36293.93
455.088	33187.16
455.294	33228.12
455.5	34057.55
455.705	34331.98
455.911	32922.97
456.117	32523.62
456.323	31860.08
456.529	30182.79
456.735	31378.81
456.941	30852.48
457.147	30117.26
457.352	29273.49
457.558	28839.33
457.764	28960.16
457.97	28390.82
458.176	27913.64
458.381	27897.26
458.587	26240.45
458.793	26658.24
458.999	24839.64
459.204	26709.44
459.41	25968.07
459.616	24268.26
459.821	24157.67
460.027	24425.95
460.233	23485.93
460.438	22789.63
460.644	22760.95
460.85	21861.9
461.055	21364.24
461.261	21294.61
461.466	19633.71
461.672	19226.16
461.878	20600.35
462.083	19082.8
462.289	18828.85
462.494	18669.11
462.7	17616.46
462.905	17262.16
463.111	17798.73
463.316	17806.92
463.522	17475.15
463.727	17608.26
463.932	17532.49
464.138	17448.52
464.343	17454.67
464.549	16926.29
464.754	17370.7
464.959	17213.01
465.165	17012.31
465.37	16488.03
465.575	16272.99
465.781	16545.37
465.986	16723.54
466.191	16051.81
466.397	15599.21
466.602	14919.28
466.807	15601.26
467.012	15832.68
467.218	15507.05
467.423	15414.89
467.628	15302.25
467.833	16154.21
468.038	15316.59
468.244	14970.48
468.449	15472.23
468.654	14915.19
468.859	14857.84
469.064	14651
469.269	14216.83
469.474	14462.58
469.679	14685.81
469.885	14362.23
470.09	14452.34
470.295	14399.1
470.5	14239.36
470.705	14280.32
470.91	13950.59
471.115	13696.64
471.32	13805.19
471.525	13747.84
471.73	13483.66
471.935	13143.69
472.139	12955.28
472.344	12863.12
472.549	13018.77
472.754	12836.5
472.959	12541.59
473.164	12437.14
473.369	12189.34
473.574	12711.57
473.778	12326.55
473.983	12400.28
474.188	12267.16
474.393	11611.81
474.598	11640.48
474.802	11591.33
475.007	11640.48
475.212	11593.38
475.417	11198.12
475.621	11075.24
475.826	11099.82
476.031	11062.96
476.235	10731.19
476.44	10905.26
476.645	10671.79
476.849	10716.85
477.054	10538.68
477.259	10548.92
477.463	10577.59
477.668	10180.28
477.872	10262.2
478.077	10163.9
478.282	9750.21
478.486	9848.51
478.691	9612.99
478.895	9696.96
479.1	9651.91
479.304	9656
479.509	9395.91
479.713	9672.39
479.918	9197.26
480.122	9266.89
480.326	9260.74
480.531	9260.74
480.735	9152.2
480.94	9090.76
481.144	9322.18
481.348	8943.31
481.553	9037.52
481.757	8943.31
481.961	9113.29
482.166	9121.48
482.37	8918.73
482.574	9019.08
482.778	8697.55
482.983	8910.54
483.187	9090.76
483.391	9154.25
483.595	8699.6
483.8	8730.32
484.004	9029.32
484.208	9098.95
484.412	8881.87
484.616	8853.2
484.821	8892.11
485.025	8804.05
485.229	9158.35
485.433	8851.15
485.637	8898.25
485.841	8797.9
486.045	8900.3
486.249	8926.93
486.453	8660.69
486.657	8855.25
486.861	8869.58
487.065	8572.63
487.269	8793.81
487.473	8832.72
487.677	8658.64
487.881	9035.47
488.085	8920.78
488.289	8894.16
488.493	8734.42
488.697	9045.71
488.901	8871.63
489.105	8670.93
489.309	8978.12
489.512	8967.88
489.716	8939.21
489.92	8836.81
490.124	8808.14
490.328	9141.96
490.531	8888.01
490.735	9080.52
490.939	9068.23
491.143	8980.17
491.346	9107.15
491.55	9264.84
491.754	9064.14
491.958	9205.45
492.161	9316.04
492.365	9174.73
492.569	9289.42
492.772	9260.74
492.976	9385.67
493.18	9633.47
493.383	9488.07
493.587	9621.19
493.79	9739.97
493.994	9598.66
494.197	9533.12
494.401	9676.48
494.605	9819.84
494.808	9811.65
495.012	9836.22
495.215	10055.36
495.419	10268.34
495.622	9850.56
495.825	10172.09
496.029	10186.43
496.232	10260.15
496.436	10350.26
496.639	10780.34
496.843	10585.78
497.046	10729.14
497.249	10852.02
497.453	10788.53
497.656	11140.78
497.859	10800.82
498.063	11110.06
498.266	11478.69
498.469	11318.95
498.673	11417.26
498.876	11613.86
499.079	11785.89
499.282	11681.44
499.485	12177.05
499.689	12054.17
499.892	12197.53
500.095	12285.59
500.298	12377.75
500.501	12199.58
500.705	12709.52
500.908	12732.05
501.111	13147.79
501.314	12957.33
501.517	13067.92
501.72	13463.18
501.923	13332.11
502.126	13758.08
502.329	14001.79
502.532	13948.54
502.735	14126.72
502.938	14331.51
503.141	14241.4
503.344	14583.41
503.547	14442.1
503.75	14769.78
503.953	14845.55
504.156	15173.23
504.359	15187.57
504.562	15115.89
504.765	15578.73
504.968	15847.01
505.17	16031.33
505.373	15908.45
505.576	16516.7
505.779	16234.08
505.982	16453.21
506.185	16664.15
506.387	16864.85
506.59	16852.56
506.793	17108.56
506.996	17172.05
507.198	17593.93
507.401	17407.56
507.604	17559.11
507.807	18089.54
508.009	17915.46
508.212	18130.5
508.415	18388.54
508.617	18681.4
508.82	18703.93
509.022	18687.54
509.225	19084.85
509.428	18990.64
509.63	19381.81
509.833	19484.2
510.035	19871.27
510.238	19930.66
510.44	20119.07
510.643	20188.71
510.845	20784.66
511.048	20305.44
511.25	20856.34
511.453	20796.95
511.655	21710.35
511.858	21050.9
512.06	21302.8
512.262	21945.86
512.465	21714.44
512.667	22230.53
512.87	22296.07
513.072	22318.59
513.274	22447.61
513.477	22801.91
513.679	23088.63
513.881	23133.68
514.084	23369.2
514.286	23576.05
514.488	23477.74
514.69	24118.76
514.893	24153.57
515.095	24366.56
515.297	24573.41
515.499	24524.26
515.701	24993.24
515.904	25116.12
516.106	25302.48
516.308	25306.58
516.51	25626.06
516.712	25779.66
516.914	25810.38
517.116	26226.12
517.318	26527.17
517.52	26410.43
517.722	26559.94
517.925	26572.22
518.127	26838.46
518.329	26992.06
518.531	27065.78
518.733	27717.04
518.935	27977.13
519.136	27813.29
519.338	28118.44
519.54	27954.6
519.742	28143.02
519.944	28386.72
520.146	28720.54
520.348	28784.03
520.55	29123.99
520.752	28984.73
520.954	29584.79
521.155	29324.69
521.357	29818.25
521.559	29805.97
521.761	30002.57
521.963	29945.23
522.164	30389.64
522.366	30514.56
522.568	30838.14
522.77	30821.76
522.971	31286.65
523.173	31049.08
523.375	31350.13
523.576	31501.68
523.778	31237.5
523.98	31550.84
524.181	31710.58
524.383	31688.05
524.584	31995.25
524.786	32079.21
524.988	31831.41
525.189	32226.67
525.391	32154.99
525.592	32509.29
525.794	32605.54
525.995	32927.07
526.197	32728.42
526.398	32611.68
526.6	33111.39
526.801	33127.77
527.003	33013.09
527.204	32970.08
527.406	33570.13
527.607	33092.96
527.808	33535.32
528.01	32957.79
528.211	33211.74
528.412	33731.92
528.614	33758.55
528.815	33502.55
529.016	34063.69
529.218	33598.8
529.419	33893.71
529.62	33865.04
529.822	33639.76
530.023	33877.33
530.224	33682.77
530.425	33539.41
530.626	33942.86
530.828	33656.15
531.029	34022.73
531.23	33371.48
531.431	33807.7
531.632	33932.62
531.833	33887.57
532.035	33600.85
532.236	33736.02
532.437	34047.31
532.638	33822.03
532.839	34037.07
533.04	34184.52
533.241	33725.78
533.442	34014.54
533.643	34049.36
533.844	33813.84
534.045	34229.58
534.246	33277.27
534.447	33613.14
534.648	33852.75
534.849	34106.7
535.05	33760.59
535.251	33844.56
535.451	33574.23
535.652	34065.74
535.853	33776.98
536.054	33707.35
536.255	33973.58
536.456	34008.4
536.657	34319.69
536.857	33539.41
537.058	33600.85
537.259	34381.13
537.46	33533.27
537.66	33559.89
537.861	33709.39
538.062	33559.89
538.263	33881.42
538.463	33592.66
538.664	33799.51
538.865	33580.37
539.065	34012.49
539.266	33207.64
539.466	33539.41
539.667	33285.47
539.868	33668.44
540.068	33754.45
540.269	33467.73
540.469	33385.82
540.67	33586.52
540.87	33543.51
541.071	33357.14
541.271	33441.11
541.472	33559.89
541.672	33058.14
541.873	33148.25
542.073	32808.29
542.274	33631.57
542.474	33351
542.675	33125.72
542.875	33676.63
543.075	33275.23
543.276	33017.18
543.476	33613.14
543.676	33041.76
543.877	33064.28
544.077	33086.81
544.277	32705.89
544.478	32879.97
544.678	33023.33
544.878	33013.09
545.078	32873.82
545.279	32925.02
545.479	32828.77
545.679	32875.87
545.879	33127.77
546.079	33183.07
546.28	32746.85
546.48	32421.22
546.68	33156.44
546.88	32994.65
547.08	32916.83
547.28	33074.52
547.48	32609.64
547.68	32994.65
547.88	32695.65
548.081	33092.96
548.281	32765.28
548.481	32257.39
548.681	32660.83
548.881	32703.84
549.081	32644.45
549.28	32482.66
549.48	32935.26
549.68	32580.96
549.88	33060.19
550.08	32441.7
550.28	32783.71
550.48	32492.9
550.68	32726.37
550.88	32343.4
551.08	32623.97
551.279	32456.04
551.479	32648.55
551.679	32691.55
551.879	32142.7
552.079	32705.89
552.278	32396.65
552.478	32410.98
552.678	32048.49
552.878	32619.88
553.077	32583.01
553.277	31929.71
553.477	32505.19
553.676	32318.82
553.876	32157.03
554.076	32392.55
554.275	32257.39
554.475	31827.31
554.674	32060.78
554.874	32228.71
555.074	32171.37
555.273	32148.84
555.473	32394.6
555.672	31843.7
555.872	32136.55
556.071	31999.34
556.271	32064.88
556.47	32015.72
556.67	32124.27
556.869	32195.95
557.068	31925.61
557.268	31929.71
557.467	31829.36
557.667	31876.46
557.866	31843.7
558.065	32085.36
558.265	31305.08
558.464	31892.85
558.663	32273.77
558.863	31618.42
559.062	32152.94
559.261	31729.01
559.461	32318.82
559.66	31464.82
559.859	31853.94
560.058	31391.09
560.258	31823.22
560.457	31477.11
560.656	31585.65
560.855	31323.51
561.054	31980.91
561.253	31155.58
561.453	31468.92
561.652	31894.89
561.851	31669.62
562.05	31604.08
562.249	31284.6
562.448	31522.16
562.647	31233.4
562.846	31247.74
563.045	31475.06
563.244	31260.02
563.443	31718.77
563.642	31059.32
563.841	31278.46
564.04	31395.19
564.239	31628.66
564.438	30958.97
564.637	31323.51
564.836	31274.36
565.035	30829.95
565.234	30909.82
565.432	30713.22
565.631	31149.43
565.83	31206.78
566.029	30698.88
566.228	30877.05
566.427	31249.78
566.625	30426.5
566.824	30582.15
567.023	30832
567.222	30555.52
567.42	30856.57
567.619	30649.73
567.818	30670.21
568.016	30569.86
568.215	30938.49
568.414	30776.7
568.612	30567.81
568.811	30473.6
569.01	30619.01
569.208	30256.52
569.407	30500.23
569.605	30348.68
569.804	30627.2
570.002	30322.05
570.201	30211.46
570.4	30244.23
570.598	30018.96
570.797	30373.25
570.995	30088.59
571.193	29521.3
571.392	30233.99
571.59	30088.59
571.789	29861.26
571.987	29934.99
572.186	29869.45
572.384	29707.66
572.582	29967.76
572.781	29973.9
572.979	29238.68
573.177	29715.86
573.376	30033.29
573.574	29722
573.772	29848.97
573.971	29443.48
574.169	29128.09
574.367	29248.92
574.565	29599.12
574.763	29312.41
574.962	28931.48
575.16	28865.95
575.358	29199.77
575.556	28612
575.754	29527.44
575.952	28878.24
576.151	29418.9
576.349	28878.24
576.547	28939.68
576.745	28659.1
576.943	29183.38
577.141	28796.32
577.339	28980.64
577.537	28808.61
577.735	28257.7
577.933	28640.67
578.131	28589.47
578.329	28423.59
578.527	28511.65
578.725	28767.65
578.923	28388.77
579.121	28097.96
579.319	28298.66
579.516	28165.54
579.714	28358.05
579.912	28210.6
580.11	28013.99
580.308	28106.15
580.506	28054.95
580.704	27692.46
580.901	27966.89
581.099	28024.23
581.297	27821.48
581.495	27669.94
581.692	28124.58
581.89	27635.12
582.088	27997.61
582.285	27614.64
582.483	27825.58
582.681	27502
582.878	27243.96
583.076	27102.65
583.274	27248.05
583.471	27018.68
583.669	27063.74
583.866	26721.73
584.064	27221.43
584.262	26955.19
584.459	26959.29
584.657	26795.45
584.854	27235.77
585.052	26545.6
585.249	26715.58
585.447	26660.29
585.644	26506.69
585.841	26631.61
586.039	26676.67
586.236	26138.05
586.434	26496.45
586.631	26049.99
586.828	26656.19
587.026	26176.97
587.223	26101.19
587.42	26011.08
587.618	26084.81
587.815	25853.39
588.012	25837
588.21	25908.68
588.407	25906.63
588.604	25804.24
588.801	25640.4
588.999	25644.49
589.196	25865.67
589.393	25839.05
589.59	25341.39
589.787	25361.87
589.984	25034.2
590.182	25030.1
590.379	25691.6
590.576	25050.58
590.773	25128.41
590.97	25052.63
591.167	25187.8
591.364	24702.43
591.561	24819.16
591.758	24825.31
591.955	25005.53
592.152	25241.04
592.349	24806.87
592.546	24772.06
592.743	24610.27
592.94	24501.73
593.137	24604.13
593.334	24765.92
593.531	24038.89
593.727	24311.27
593.924	24339.94
594.121	24002.02
594.318	24100.33
594.515	24118.76
594.712	24262.12
594.908	24004.07
595.105	24169.96
595.302	23483.89
595.499	23916.01
595.696	24161.76
595.892	23397.87
596.089	23696.88
596.286	23514.61
596.482	23508.46
596.679	23739.88
596.876	23467.5
597.072	23193.08
597.269	23285.23
597.466	23373.3
597.662	23199.22
597.859	23258.61
598.055	23031.29
598.252	22525.44
598.448	22922.74
598.645	22719.99
598.841	22650.36
599.038	22982.13
599.234	22582.78
599.431	22351.36
599.627	23008.76
599.824	22650.36
600.02	22326.78
600.217	22554.11
600.413	22406.66
600.609	22445.57
600.806	22552.06
601.002	22283.78
601.198	22025.73
601.395	22210.05
601.591	22205.95
601.787	21992.97
601.984	21943.81
602.18	22271.49
602.376	22066.69
602.572	21857.8
602.769	21818.89
602.965	21683.72
603.161	21771.79
603.357	21671.43
603.553	21683.72
603.75	21519.88
603.946	21394.96
604.142	21800.46
604.338	21175.83
604.534	21462.54
604.73	21052.95
604.926	21267.98
605.122	21245.46
605.318	20983.32
605.514	20954.65
605.71	20862.49
605.906	20928.02
606.102	20950.55
606.298	20942.36
606.494	20899.35
606.69	20989.46
606.886	20880.92
607.082	20706.84
607.278	20975.13
607.474	20319.78
607.67	20672.03
607.866	20383.26
608.062	20745.75
608.257	20375.07
608.453	20581.92
608.649	20452.89
608.845	20375.07
609.041	20454.94
609.236	20104.74
609.432	20010.53
609.628	20391.45
609.824	20432.41
610.019	20219.42
610.215	20080.16
610.411	20186.66
610.606	19897.89
610.802	20227.62
610.998	20397.6
611.193	20239.9
611.389	20063.78
611.584	19717.67
611.78	19977.76
611.976	19869.22
612.171	19891.75
612.367	19721.77
612.562	19908.13
612.758	19414.57
612.953	19613.23
613.149	19824.17
613.344	19281.46
613.539	19820.07
613.735	19701.29
613.93	19607.08
614.126	19369.52
614.321	19562.03
614.517	19555.88
614.712	19410.48
614.907	19346.99
615.103	19498.54
615.298	19033.65
615.493	19426.86
615.688	18994.74
615.884	19353.13
616.079	18703.93
616.274	19152.43
616.47	18896.44
616.665	19267.12
616.86	18761.27
617.055	18810.42
617.25	19027.51
617.445	19203.63
617.641	18574.91
617.836	18927.16
618.031	18380.35
618.226	18681.4
618.421	18449.98
618.616	18525.75
618.811	18212.42
619.006	18585.15
619.201	18220.61
619.396	18470.46
619.591	18087.49
619.786	18607.67
619.981	18083.39
620.176	18200.13
620.371	17815.11
620.566	17978.95
620.761	17923.65
620.956	18040.39
621.151	17542.73
621.346	17569.35
621.541	17409.61
621.735	17692.23
621.93	17294.93
622.125	17280.59
622.32	16983.63
622.515	17104.46
622.709	16993.87
622.904	16922.2
623.099	16954.96
623.294	16944.72
623.488	16647.77
623.683	16535.13
623.878	16340.57
624.072	16574.04
624.267	16500.31
624.462	16506.46
624.656	16350.81
624.851	16107.1
625.046	16105.06
625.24	16004.71
625.435	15629.93
625.629	15926.88
625.824	15662.69
626.018	15847.01
626.213	15242.86
626.407	15449.71
626.602	15148.65
626.796	15400.55
626.991	15199.85
627.185	15283.82
627.38	15052.4
627.574	15087.22
627.768	14966.38
627.963	15107.69
628.157	14743.16
628.352	15033.97
628.546	14485.11
628.74	14564.98
628.935	14579.32
629.129	14411.39
629.323	14243.45
629.517	14302.84
629.712	14255.74
629.906	14091.9
630.1	13950.59
630.294	14132.86
630.489	14009.98
630.683	13889.15
630.877	13878.91
631.071	13833.86
631.265	13657.73
631.459	13590.15
631.653	13563.53
631.848	13418.12
632.042	13323.91
632.236	13500.04
632.43	13299.34
632.624	13368.97
632.818	13227.66
633.012	12818.07
633.206	13057.68
633.4	13080.21
633.594	12756.63
633.788	13029.01
633.982	12916.37
634.176	12881.55
634.369	12551.83
634.563	12711.57
634.757	12502.68
634.951	12607.12
635.145	12598.93
635.339	12471.96
635.533	12181.15
635.726	12365.46
635.92	12095.13
636.114	12107.42
636.308	11978.4
636.501	12002.97
636.695	12005.02
636.889	11712.16
637.083	11703.97
637.276	11587.24
637.47	11380.39
637.664	11458.21
637.857	11536.04
638.051	11568.8
638.244	11206.31
638.438	11452.07
638.632	11339.43
638.825	11114.16
639.019	11439.78
639.212	10917.55
639.406	11116.2
639.599	11091.63
639.793	11046.57
639.986	10641.07
640.18	10897.07
640.373	10755.76
640.567	10733.23
640.76	10487.48
640.954	10548.92
641.147	10385.08
641.34	10739.38
641.534	10612.4
641.727	10364.6
641.92	10362.55
642.114	10325.69
642.307	10100.41
642.5	10358.46
642.694	9924.29
642.887	9836.22
643.08	9897.66
643.273	9895.61
643.467	9725.63
643.66	9690.82
643.853	9637.57
644.046	9656
644.239	9621.19
644.432	9580.23
644.626	9537.22
644.819	9363.14
645.012	9488.07
645.205	9412.29
645.398	9176.78
645.591	9316.04
645.784	9094.86
645.977	9148.11
646.17	9178.83
646.363	8974.03
646.556	8867.53
646.749	8990.41
646.942	9047.76
647.135	8791.76
647.328	8982.22
647.521	8900.3
647.714	8468.18
647.907	8924.88
648.099	8574.67
648.292	8824.53
648.485	8570.58
648.678	8429.27
648.871	8513.24
649.064	8595.15
649.256	8564.43
649.449	8365.78
649.642	8244.95
649.835	8171.22
650.027	8287.96
650.22	8099.55
650.413	8101.59
650.605	8140.51
650.798	8099.55
650.991	8126.17
651.183	7980.76
651.376	7888.6
651.568	8029.91
651.761	7857.89
651.954	8025.82
652.146	7839.45
652.339	7923.42
652.531	7798.49
652.724	7595.75
652.916	7476.96
653.109	7540.45
653.301	7446.24
653.494	7593.7
653.686	7337.7
653.879	7495.39
654.071	7368.42
654.263	7198.44
654.456	7466.72
654.648	7505.63
654.84	7141.1
655.033	7110.38
655.225	7259.88
655.417	7089.9
655.61	7225.06
655.802	6946.54
655.994	6993.64
656.186	6934.25
656.379	6987.5
656.571	6952.68
656.763	6803.18
656.955	6919.92
657.148	6883.05
657.34	6792.94
657.532	6684.4
657.724	6856.43
657.916	6803.18
658.108	6749.93
658.3	6629.1
658.492	6723.31
658.684	6643.44
658.876	6526.71
659.068	6473.46
659.26	6426.36
659.452	6323.96
659.644	6373.11
659.836	6348.53
660.028	6364.92
660.22	6172.41
660.412	6170.36
660.604	6250.23
660.796	6211.32
660.988	6295.29
661.18	6018.81
661.372	6067.96
661.563	5992.19
661.755	6117.11
661.947	6149.88
662.139	6203.13
662.331	6039.29
662.522	5971.71
662.714	5811.96
662.906	5975.8
663.097	6002.43
663.289	5820.16
663.481	5758.72
663.673	5828.35
663.864	5814.01
664.056	5670.65
664.247	5691.13
664.439	5641.98
664.631	5586.69
664.822	5775.1
665.014	5701.37
665.205	5699.33
665.397	5533.44
665.588	5687.04
665.78	5433.09
665.971	5457.67
666.163	5400.32
666.354	5568.26
666.546	5404.42
666.737	5433.09
666.929	5428.99
667.12	5443.33
667.311	5461.76
667.503	5363.46
667.694	5449.47
667.885	5338.88
668.077	5299.97
668.268	5170.95
668.459	5277.44
668.651	5234.44
668.842	5414.66
669.033	5179.14
669.224	5097.22
669.416	5189.38
669.607	5080.84
669.798	5076.74
669.989	5273.35
670.18	5156.61
670.371	5089.03
670.563	5035.78
670.754	5173
670.945	4964.11
671.136	4980.49
671.327	4847.37
671.518	5027.59
671.709	4921.1
671.9	5097.22
672.091	4953.87
672.282	4986.63
672.473	4857.61
672.664	4873.99
672.855	4839.18
673.046	4894.47
673.237	4966.15
673.428	4898.57
673.619	4986.63
673.809	4884.23
674	4912.91
674.191	4890.38
674.382	4853.52
674.573	4951.82
674.764	4835.08
674.954	4876.04
675.145	4714.25
675.336	4796.17
675.527	4882.19
675.717	4779.79
675.908	4714.25
676.099	4740.88
676.289	4708.11
676.48	4689.68
676.671	4679.44
676.861	4732.69
677.052	4837.13
677.243	4605.71
677.433	4591.38
677.624	4695.82
677.814	4636.43
678.005	4751.12
678.195	4671.25
678.386	4583.18
678.576	4661.01
678.767	4636.43
678.957	4683.53
679.148	4849.42
679.338	4611.85
679.529	4611.85
679.719	4562.7
679.909	4681.49
680.1	4468.5
680.29	4548.37
680.481	4542.22
680.671	4687.63
680.861	4511.5
681.052	4634.38
681.242	4679.44
681.432	4683.53
681.622	4679.44
681.813	4581.14
682.003	4448.02
682.193	4507.41
682.383	4648.72
682.573	4486.93
682.764	4460.31
682.954	4654.86
683.144	4550.42
683.334	4480.78
683.524	4613.9
683.714	4663.05
683.904	4685.58
684.094	4654.86
684.284	4675.34
684.474	4669.2
684.664	4579.09
684.854	4556.56
685.044	4478.74
685.234	4427.54
685.424	4462.35
685.614	4507.41
685.804	4443.92
685.994	4366.1
686.184	4484.88
686.374	4503.31
686.564	4380.43
686.753	4448.02
686.943	4413.2
687.133	4267.8
687.323	4405.01
687.513	4298.52
687.702	4302.61
687.892	4212.5
688.082	4351.76
688.272	4400.91
688.461	4253.46
688.651	4331.28
688.841	4245.27
689.03	4194.07
689.22	4081.43
689.41	4171.54
689.599	4198.17
689.789	4103.96
689.979	4212.5
690.168	4112.15
690.358	4118.29
690.547	4075.29
690.737	4198.17
690.926	4034.33
691.116	4073.24
691.305	4155.16
691.495	4132.63
691.684	3956.5
691.874	3839.77
692.063	3987.22
692.252	3997.46
692.442	3964.7
692.631	3878.68
692.82	3952.41
693.01	3938.07
693.199	3903.26
693.388	3784.48
693.578	3847.96
693.767	3976.98
693.956	3919.64
694.146	3731.23
694.335	3790.62
694.524	3888.92
694.713	3940.12
694.902	3839.77
695.092	4007.7
695.281	3833.63
695.47	3835.67
695.659	3755.8
695.848	3716.89
696.037	3764
696.226	3915.55
696.415	3780.38
696.604	3927.83
696.793	3731.23
696.982	3706.65
697.171	3909.4
697.36	3800.86
697.549	3649.31
697.738	3819.29
697.927	3899.16
698.116	3761.95
698.305	3712.8
698.494	3858.2
698.683	3786.52
698.872	3764
699.061	3825.43
699.25	3737.37
699.438	3702.56
699.627	3850.01
699.816	3874.59
700.005	3764
700.193	3847.96
700.382	3854.11
700.571	3761.95
700.76	3786.52
700.948	3878.68
701.137	3917.59
701.326	3802.91
701.514	3739.42
701.703	3845.91
701.892	3997.46
702.08	3817.24
702.269	3997.46
702.457	3690.27
702.646	3821.34
702.834	3720.99
703.023	3833.63
703.212	3895.07
703.4	3833.63
703.589	3729.18
703.777	3788.57
703.965	3872.54
704.154	3884.83
704.342	3860.25
704.531	3895.07
704.719	3776.28
704.907	4034.33
705.096	3794.72
705.284	3815.2
705.472	3987.22
705.661	3876.63
705.849	4017.94
706.037	4040.47
706.226	4003.61
706.414	3917.59
706.602	3901.21
706.79	4005.66
706.979	3931.93
707.167	3854.11
707.355	4032.28
707.543	3831.58
707.731	3913.5
707.919	4042.52
708.107	4022.04
708.296	3974.94
708.484	4067.1
708.672	4040.47
708.86	4003.61
709.048	3919.64
709.236	4015.9
709.424	3976.98
709.612	4073.24
709.8	3936.03
709.988	4067.1
710.176	4202.26
710.364	3917.59
710.551	4046.62
710.739	4017.94
710.927	3917.59
711.115	4132.63
711.303	4142.87
711.491	4017.94
711.679	3997.46
711.866	3964.7
712.054	4169.49
712.242	3938.07
712.43	4189.97
712.617	4079.38
712.805	4081.43
712.993	4003.61
713.181	4019.99
713.368	4181.78
713.556	4067.1
713.744	4106.01
713.931	4353.81
714.119	4022.04
714.306	4110.1
714.494	4161.3
714.682	4124.44
714.869	4003.61
715.057	4028.18
715.244	4106.01
715.432	4290.32
715.619	4042.52
715.807	4183.83
715.994	4112.15
716.182	4146.97
716.369	4263.7
716.556	4140.82
716.744	4097.81
716.931	4179.73
717.119	4288.28
717.306	4245.27
717.493	4232.98
717.681	4226.84
717.868	4257.56
718.055	4384.53
718.242	4173.59
718.43	4116.25
718.617	4280.08
718.804	4212.5
718.991	4226.84
719.179	4249.36
719.366	4378.39
719.553	4267.8
719.74	4157.21
719.927	4196.12
720.114	4243.22
720.301	4196.12
720.488	4173.59
720.676	4235.03
720.863	4345.62
721.05	4232.98
721.237	4345.62
721.424	4345.62
721.611	4284.18
721.798	4300.56
721.985	4271.89
722.172	4280.08
722.358	4171.54
722.545	4357.91
722.732	4261.65
722.919	4400.91
723.106	4216.6
723.293	4237.08
723.48	4331.28
723.667	4286.23
723.853	4366.1
724.04	4269.84
724.227	4343.57
724.414	4417.3
724.6	4376.34
724.787	4372.24
724.974	4443.92
725.161	4402.96
725.347	4357.91
725.534	4302.61
725.72	4196.12
725.907	4421.39
726.094	4314.9
726.28	4273.94
726.467	4202.26
726.653	4364.05
726.84	4431.63
727.027	4484.88
727.213	4341.52
727.4	4480.78
727.586	4282.13
727.773	4198.17
727.959	4368.15
728.145	4353.81
728.332	4222.74
728.518	4259.6
728.705	4347.67
728.891	4368.15
729.077	4259.6
729.264	4319
729.45	4374.29
729.636	4482.83
729.823	4241.17
730.009	4495.12
730.195	4200.21
730.382	4208.41
730.568	4302.61
730.754	4386.58
730.94	4331.28
731.126	4411.15
731.313	4517.65
731.499	4376.34
731.685	4445.97
731.871	4407.06
732.057	4300.56
732.243	4419.35
732.429	4402.96
732.615	4411.15
732.801	4443.92
732.987	4310.8
733.173	4339.48
733.359	4290.32
733.545	4288.28
733.731	4259.6
733.917	4306.71
734.103	4319
734.289	4312.85
734.475	4208.41
734.661	4353.81
734.847	4290.32
735.033	4427.54
735.219	4212.5
735.404	4230.93
735.59	4362
735.776	4189.97
735.962	4343.57
736.148	4200.21
736.333	4220.69
736.519	4312.85
736.705	4364.05
736.89	4261.65
737.076	4232.98
737.262	4251.41
737.447	4220.69
737.633	4239.12
737.819	4212.5
738.004	4280.08
738.19	4032.28
738.375	4239.12
738.561	4198.17
738.747	4169.49
738.932	4220.69
739.118	4179.73
739.303	4089.62
739.489	4157.21
739.674	4032.28
739.859	4169.49
740.045	4110.1
740.23	4278.04
740.416	3809.05
740.601	3927.83
740.786	3999.51
740.972	3923.74
741.157	4138.77
741.342	3882.78
741.528	3927.83
741.713	4019.99
741.898	4028.18
742.084	3829.53
742.269	4017.94
742.454	3788.57
742.639	3948.31
742.824	3843.87
743.01	3981.08
743.195	3917.59
743.38	3718.94
743.565	3807
743.75	3860.25
743.935	3718.94
744.12	3788.57
744.305	3663.65
744.49	3766.04
744.675	3782.43
744.86	3657.5
745.045	3731.23
745.23	3725.08
745.415	3780.38
745.6	3505.95
745.785	3704.6
745.97	3723.04
746.155	3571.49
746.34	3790.62
746.525	3510.05
746.71	3561.25
746.895	3305.25
747.079	3510.05
747.264	3548.96
747.449	3419.94
747.634	3378.98
747.819	3401.51
748.003	3295.01
748.188	3219.24
748.373	3338.02
748.557	3313.44
748.742	3344.16
748.927	3286.82
749.111	3235.62
749.296	3338.02
749.481	3143.46
749.665	3290.92
749.85	3153.7
750.034	3161.89
750.219	3155.75
750.404	3178.28
750.588	3114.79
750.773	2965.29
750.957	2936.62
751.141	3012.39
751.326	2993.96
751.51	3077.93
751.695	2969.38
751.879	2940.71
752.064	2912.04
752.248	3047.21
752.432	2912.04
752.617	2944.81
752.801	3002.15
752.985	2809.64
753.17	2869.03
753.354	2854.7
753.538	2877.23
753.722	2690.86
753.907	2662.19
754.091	2670.38
754.275	2680.62
754.459	2641.71
754.643	2770.73
754.828	2731.82
755.012	2633.52
755.196	2500.4
755.38	2430.77
755.564	2498.35
755.748	2502.45
755.932	2475.82
756.116	2475.82
756.3	2506.54
756.484	2441.01
756.668	2537.26
756.852	2441.01
757.036	2432.82
757.22	2299.7
757.404	2342.71
757.588	2297.65
757.772	2375.47
757.956	2385.71
758.14	2287.41
758.323	2332.47
758.507	2260.79
758.691	2244.4
758.875	2467.63
759.059	2371.38
759.242	2352.95
759.426	2191.16
759.61	2180.92
759.794	2119.48
759.977	2135.86
760.161	2223.92
760.345	2211.64
760.528	2119.48
760.712	2172.72
760.895	2074.42
761.079	2019.13
761.263	2099
761.446	2055.99
761.63	2021.17
761.813	2172.72
761.997	1984.31
762.18	1996.6
762.364	2180.92
762.547	1929.02
762.731	1939.26
762.914	1914.68
763.098	1916.73
763.281	2062.13
763.464	1998.65
763.648	2119.48
763.831	1926.97
764.015	1898.3
764.198	1945.4
764.381	1906.49
764.564	1814.33
764.748	1912.63
764.931	1902.39
765.114	1877.82
765.297	1896.25
765.481	1900.34
765.664	1883.96
765.847	1957.69
766.03	1926.97
766.213	1799.99
766.397	1822.52
766.58	1812.28
766.763	1834.81
766.946	1816.38
767.129	1726.27
767.312	1726.27
767.495	1752.89
767.678	1683.26
767.861	1861.43
768.044	1701.69
768.227	1722.17
768.41	1840.95
768.593	1883.96
768.776	1703.74
768.959	1748.79
769.142	1795.9
769.324	1681.21
769.507	1734.46
769.69	1681.21
769.873	1742.65
770.056	1742.65
770.239	1587.01
770.421	1623.87
770.604	1763.13
770.787	1576.77
770.97	1605.44
771.152	1652.54
771.335	1482.56
771.518	1599.29
771.7	1668.92
771.883	1574.72
772.066	1611.58
772.248	1601.34
772.431	1601.34
772.613	1642.3
772.796	1597.24
772.978	1482.56
773.161	1578.81
773.343	1441.6
773.526	1498.94
773.708	1474.37
773.891	1433.41
774.073	1433.41
774.256	1488.7
774.438	1535.81
774.621	1400.64
774.803	1412.93
774.985	1400.64
775.168	1423.17
775.35	1437.5
775.532	1333.06
775.715	1482.56
775.897	1367.87
776.079	1316.67
776.261	1302.34
776.444	1365.82
776.626	1320.77
776.808	1255.23
776.99	1273.67
777.173	1251.14
777.355	1263.43
777.537	1214.27
777.719	1288
777.901	1206.08
778.083	1285.95
778.265	1146.69
778.447	1259.33
778.629	1181.51
778.811	1306.43
778.993	1306.43
779.175	1173.32
779.357	1212.23
779.539	1083.2
779.721	1167.17
779.903	1158.98
780.085	1144.64
780.267	1146.69
780.449	1109.83
780.631	1136.45
780.812	1177.41
780.994	1105.73
781.176	1163.08
781.358	1052.49
781.54	997.19
781.721	1158.98
781.903	1175.36
782.085	974.66
782.267	1040.2
782.448	1042.25
782.63	1011.53
782.812	984.9
782.993	1036.1
783.175	1021.77
783.357	970.57
783.538	1097.54
783.72	1013.57
783.901	941.89
784.083	997.19
784.264	978.76
784.446	874.31
784.627	974.66
784.809	952.13
784.99	958.28
785.172	980.81
785.353	945.99
785.535	845.64
785.716	931.66
785.897	909.13
786.079	831.3
786.26	872.26
786.441	864.07
786.623	786.25
786.804	778.06
786.985	839.5
787.167	849.74
787.348	868.17
787.529	911.18
787.71	786.25
787.891	831.3
788.073	780.11
788.254	773.96
788.435	876.36
788.616	829.26
788.797	755.53
788.978	730.95
789.159	692.04
789.34	733
789.522	712.52
789.703	685.9
789.884	739.15
790.065	694.09
790.246	773.96
790.427	597.84
790.607	708.43
790.788	751.43
790.969	669.52
791.15	681.8
791.331	597.84
791.512	735.05
791.693	620.36
791.874	632.65
792.054	728.91
792.235	694.09
792.416	642.89
792.597	614.22
792.778	606.03
792.958	708.43
793.139	573.26
793.32	667.47
793.5	606.03
793.681	755.53
793.862	636.75
794.042	601.93
794.223	567.12
794.404	636.75
794.584	573.26
794.765	575.31
794.945	614.22
795.126	593.74
795.306	581.45
795.487	616.27
795.667	571.21
795.848	614.22
796.028	567.12
796.209	497.49
796.389	563.02
796.57	546.64
796.75	581.45
796.93	556.88
797.111	466.77
797.291	505.68
797.471	630.6
797.652	548.68
797.832	565.07
798.012	528.21
798.192	503.63
798.373	526.16
798.553	479.05
798.733	536.4
798.913	474.96
799.093	493.39
799.274	573.26
799.454	546.64
799.634	530.25
799.814	520.01
799.994	509.77
800.174	552.78
800.354	450.38
800.534	403.28
800.714	481.1
800.894	393.04
801.074	442.19
801.254	474.96
801.434	429.9
801.614	477.01
801.794	499.53
801.974	1429.31
802.154	415.57
802.334	491.34
802.514	401.23
802.693	511.82
802.873	487.25
803.053	517.97
803.233	436.05
803.413	444.24
803.592	446.29
803.772	331.6
803.952	448.33
804.131	331.6
804.311	499.53
804.491	446.29
804.67	393.04
804.85	364.37
805.03	399.18
805.209	440.14
805.389	438.09
805.568	370.51
805.748	378.7
805.928	454.48
806.107	362.32
806.287	352.08
806.466	417.61
806.646	333.65
806.825	368.46
807.004	376.66
807.184	438.09
807.363	434
807.543	362.32
807.722	388.94
807.901	397.14
808.081	401.23
808.26	411.47
808.439	393.04
808.619	395.09
808.798	329.55
808.977	278.35
809.156	331.6
809.336	378.7
809.515	442.19
809.694	333.65
809.873	323.41
810.052	341.84
810.231	438.09
810.411	407.38
810.59	327.5
810.769	329.55
810.948	378.7
811.127	356.18
811.306	325.46
811.485	325.46
811.664	376.66
811.843	313.17
812.022	327.5
812.201	364.37
812.38	278.35
812.559	235.35
812.737	345.94
812.916	323.41
813.095	286.54
813.274	341.84
813.453	278.35
813.632	368.46
813.811	290.64
813.989	270.16
814.168	309.07
814.347	268.11
814.526	294.74
814.704	296.78
814.883	313.17
815.062	264.02
815.24	345.94
815.419	276.31
815.598	300.88
815.776	202.58
815.955	255.83
816.133	218.96
816.312	255.83
816.49	268.11
816.669	272.21
816.847	282.45
817.026	300.88
817.204	264.02
817.383	243.54
817.561	180.05
817.74	241.49
817.918	253.78
818.097	239.44
818.275	286.54
818.453	192.34
818.632	255.83
818.81	235.35
818.988	165.71
819.167	255.83
819.345	259.92
819.523	249.68
819.701	200.53
819.879	323.41
820.058	208.72
820.236	227.15
820.414	216.91
820.592	182.1
820.77	247.63
820.948	300.88
821.127	221.01
821.305	257.87
821.483	161.62
821.661	282.45
821.839	229.2
822.017	202.58
822.195	233.3
822.373	208.72
822.551	227.15
822.729	231.25
822.907	212.82
823.085	186.19
823.262	200.53
823.44	81.75
823.618	194.39
823.796	229.2
823.974	175.95
824.152	231.25
824.329	266.07
824.507	167.76
824.685	182.1
824.863	227.15
825.04	223.06
825.218	235.35
825.396	173.91
825.574	163.67
825.751	159.57
825.929	245.59
826.107	202.58
826.284	192.34
826.462	218.96
826.639	206.67
826.817	184.15
826.994	259.92
827.172	145.24
827.349	239.44
827.527	208.72
827.704	235.35
827.882	216.91
828.059	159.57
828.237	141.14
828.414	255.83
828.591	126.8
828.769	112.47
828.946	143.19
829.124	247.63
829.301	218.96
829.478	210.77
829.655	202.58
829.833	155.47
830.01	161.62
830.187	249.68
830.364	175.95
830.542	249.68
830.719	225.11
830.896	135
831.073	124.76
831.25	186.19
831.427	190.29
831.604	102.23
831.782	102.23
831.959	200.53
832.136	161.62
832.313	216.91
832.49	118.61
832.667	184.15
832.844	102.23
833.021	188.24
833.198	173.91
833.374	139.09
833.551	184.15
833.728	180.05
833.905	139.09
834.082	59.22
834.259	151.38
834.436	196.43
834.612	96.08
834.789	202.58
834.966	157.52
835.143	178
835.319	96.08
835.496	182.1
835.673	247.63
835.85	192.34
836.026	165.71
836.203	182.1
836.38	106.32
836.556	44.88
836.733	188.24
836.909	206.67
837.086	91.99
837.262	94.04
837.439	57.17
837.616	106.32
837.792	98.13
837.968	149.33
838.145	85.84
838.321	108.37
838.498	81.75
838.674	163.67
838.851	83.8
839.027	169.81
839.203	167.76
839.38	157.52
839.556	83.8
839.732	163.67
839.909	110.42
840.085	173.91
840.261	120.66
840.437	102.23
840.614	96.08
840.79	175.95
840.966	192.34
841.142	100.18
841.318	149.33
841.494	77.65
841.671	208.72
841.847	163.67
842.023	137.04
842.199	151.38
842.375	159.57
842.551	126.8
842.727	12.12
842.903	204.63
843.079	38.74
843.255	192.34
843.431	124.76
843.607	77.65
843.783	-39.08
843.959	178
844.134	46.93
844.31	206.67
844.486	104.28
844.662	67.41
844.838	61.27
845.013	147.28
845.189	85.84
845.365	139.09
845.541	-6.31
845.716	104.28
845.892	149.33
846.068	16.21
846.244	65.36
846.419	104.28
846.595	155.47
846.77	40.79
846.946	114.52
847.122	83.8
847.297	32.6
847.473	112.47
847.648	124.76
847.824	81.75
847.999	24.4
848.175	34.64
848.35	126.8
848.526	223.06
848.701	104.28
848.876	180.05
849.052	128.85
849.227	118.61
849.403	69.46
849.578	51.03
849.753	116.56
849.929	135
850.104	53.08
850.279	69.46
850.454	36.69
850.63	79.7
850.805	132.95
850.98	100.18
851.155	155.47
851.33	77.65
851.505	57.17
851.681	81.75
851.856	-12.46
852.031	55.12
852.206	118.61
852.381	30.55
852.556	104.28
852.731	116.56
852.906	98.13
853.081	100.18
853.256	51.03
853.431	-2.22
853.606	-12.46
853.781	42.84
853.956	69.46
854.131	104.28
854.305	10.07
854.48	83.8
854.655	108.37
854.83	73.56
855.005	89.94
855.18	122.71
855.354	40.79
855.529	126.8
855.704	59.22
855.879	61.27
856.053	-6.31
856.228	104.28
856.403	100.18
856.577	48.98
856.752	-4.27
856.926	46.93
857.101	114.52
857.276	40.79
857.45	55.12
857.625	147.28
857.799	94.04
857.974	38.74
858.148	-20.65
858.323	36.69
858.497	71.51
858.672	53.08
858.846	22.36
859.02	120.66
859.195	46.93
859.369	85.84
859.543	100.18
859.718	81.75
859.892	32.6
860.066	102.23
860.241	87.89
860.415	155.47
860.589	104.28
860.763	75.6
860.938	44.88
861.112	77.65
861.286	26.45
861.46	98.13
861.634	65.36
861.808	5.97
861.982	51.03
862.157	53.08
862.331	-39.08
862.505	59.22
862.679	83.8
862.853	65.36
863.027	-39.08
863.201	184.15
863.375	75.6
863.549	85.84
863.722	73.56
863.896	85.84
864.07	-16.55
864.244	75.6
864.418	132.95
864.592	96.08
864.766	-10.41
864.939	51.03
865.113	-24.75
865.287	180.05
865.461	5.97
865.634	67.41
865.808	-0.17
865.982	12.12
866.156	44.88
866.329	36.69
866.503	91.99
866.676	81.75
866.85	40.79
867.024	-2.22
867.197	44.88
867.371	87.89
867.544	18.26
867.718	42.84
867.891	38.74
868.065	-51.37
868.238	42.84
868.412	51.03
868.585	114.52
868.759	-4.27
868.932	42.84
869.105	1.88
869.279	104.28
869.452	34.64
869.625	57.17
869.799	98.13
869.972	-37.03
870.145	69.46
870.319	53.08
870.492	-14.51
870.665	28.5
870.838	-4.27
871.011	-39.08
871.185	46.93
871.358	30.55
871.531	85.84
871.704	-0.17
871.877	3.93
872.05	3.93
872.223	16.21
872.396	-10.41
872.569	24.4
872.742	14.17
872.915	44.88
873.088	83.8
873.261	40.79
873.434	44.88
873.607	34.64
873.78	130.9
873.953	12.12
874.126	71.51
874.299	106.32
874.471	-20.65
874.644	124.76
874.817	98.13
874.99	108.37
875.163	-18.6
875.335	14.17
875.508	44.88
875.681	73.56
875.853	-47.27
876.026	1.88
876.199	1.88
876.371	53.08
876.544	26.45
876.717	112.47
876.889	53.08
877.062	22.36
877.234	-14.51
877.407	38.74
877.579	3.93
877.752	5.97
877.924	57.17
878.097	53.08
878.269	8.02
878.442	180.05
878.614	67.41
878.786	-12.46
878.959	53.08
879.131	55.12
879.303	34.64
879.476	20.31
879.648	106.32
879.82	-10.41
879.993	34.64
880.165	55.12
880.337	3.93
880.509	-24.75
880.681	-32.94
880.854	3.93
881.026	75.6
881.198	67.41
881.37	-18.6
881.542	55.12
881.714	14.17
881.886	26.45
882.058	8.02
882.23	73.56
882.402	26.45
882.574	-0.17
882.746	137.04
882.918	87.89
883.09	-10.41
883.262	42.84
883.434	57.17
883.606	38.74
883.778	-43.18
883.95	32.6
884.122	-2.22
884.293	114.52
884.465	14.17
884.637	91.99
884.809	12.12
884.98	22.36
885.152	28.5
885.324	67.41
885.496	8.02
885.667	-51.37
885.839	65.36
886.011	53.08
886.182	38.74
886.354	96.08
886.525	18.26
886.697	-24.75
886.869	-22.7
887.04	-37.03
887.212	30.55
887.383	65.36
887.555	16.21
887.726	-4.27
887.897	20.31
888.069	18.26
888.24	-12.46
888.412	-6.31
888.583	42.84
888.754	-14.51
888.926	-73.9
889.097	12.12
889.268	28.5
889.44	85.84
889.611	-2.22
889.782	46.93
889.953	-71.85
890.125	100.18
890.296	-47.27
890.467	20.31
890.638	57.17
890.809	-39.08
890.98	-18.6
891.151	24.4
891.323	163.67
891.494	77.65
891.665	16.21
891.836	-12.46
892.007	5.97
892.178	98.13
892.349	1.88
892.52	-63.66
892.691	32.6
892.862	83.8
893.032	-37.03
893.203	-10.41
893.374	42.84
893.545	42.84
893.716	85.84
893.887	141.14
894.057	-57.51
894.228	44.88
894.399	-39.08
894.57	55.12
894.74	5.97
894.911	112.47
895.082	1.88
895.253	51.03
895.423	16.21
895.594	104.28
895.764	51.03
895.935	-24.75
896.106	-0.17
896.276	22.36
896.447	32.6
896.617	-4.27
896.788	-49.32
896.958	22.36
897.129	-63.66
897.299	40.79
897.47	24.4
897.64	67.41
897.81	-16.55
897.981	79.7
898.151	1.88
898.322	63.32
898.492	79.7
898.662	40.79
898.832	-43.18
899.003	22.36
899.173	55.12
899.343	20.31
899.513	12.12
