Data from USB4F104151__96__12-13-15-999.txt Node

Date: Fri Mar 14 12:13:15 EDT 2025
User: louis
Spectrometer: USB4F10415
Trigger mode: 4
Integration Time (sec): 5.000000E-2
Scans to average: 1
Electric dark correction enabled: true
Nonlinearity correction enabled: false
Boxcar width: 0
XAxis mode: Wavelengths
Number of Pixels in Spectrum: 3648
>>>>>Begin Spectral Data<<<<<
178.204	-311.63
178.424	-311.63
178.644	-311.63
178.864	-213.33
179.084	-166.23
179.304	9.9
179.524	-14.68
179.744	-47.44
179.964	40.62
180.184	-53.59
180.404	-20.82
180.624	-53.59
180.844	61.1
181.064	-53.59
181.283	38.57
181.503	34.47
181.723	59.05
181.943	-47.44
182.163	114.34
182.383	-4.44
182.602	42.67
182.822	26.28
183.042	26.28
183.262	11.95
183.482	11.95
183.701	-2.39
183.921	-37.2
184.141	22.19
184.361	32.43
184.58	36.52
184.8	61.1
185.02	-35.16
185.239	61.1
185.459	73.39
185.679	44.71
185.898	5.8
186.118	57
186.338	-4.44
186.557	18.09
186.777	1.71
186.997	-2.39
187.216	-33.11
187.436	77.48
187.655	112.3
187.875	9.9
188.095	36.52
188.314	69.29
188.534	85.67
188.753	11.95
188.973	77.48
189.192	93.87
189.412	-18.77
189.631	-33.11
189.851	-22.87
190.07	122.54
190.29	7.85
190.509	30.38
190.729	36.52
190.948	69.29
191.168	165.54
191.387	13.99
191.607	40.62
191.826	20.14
192.045	28.33
192.265	38.57
192.484	-29.01
192.704	65.19
192.923	-6.49
193.142	118.44
193.362	100.01
193.581	52.91
193.8	38.57
194.02	38.57
194.239	40.62
194.458	65.19
194.678	11.95
194.897	22.19
195.116	-8.53
195.335	-12.63
195.555	18.09
195.774	-20.82
195.993	22.19
196.212	13.99
196.432	-20.82
196.651	77.48
196.87	52.91
197.089	95.91
197.308	-18.77
197.528	63.15
197.747	22.19
197.966	18.09
198.185	54.95
198.404	36.52
198.623	110.25
198.842	69.29
199.062	97.96
199.281	52.91
199.5	54.95
199.719	-10.58
199.938	54.95
200.157	50.86
200.376	83.63
200.595	-29.01
200.814	3.75
201.033	-8.53
201.252	79.53
201.471	57
201.69	97.96
201.909	69.29
202.128	124.58
202.347	5.8
202.566	48.81
202.785	-10.58
203.004	-2.39
203.223	100.01
203.442	18.09
203.661	3.75
203.879	30.38
204.098	118.44
204.317	-20.82
204.536	36.52
204.755	18.09
204.974	91.82
205.193	52.91
205.411	167.59
205.63	-2.39
205.849	44.71
206.068	-14.68
206.287	-4.44
206.505	61.1
206.724	48.81
206.943	-16.73
207.162	-12.63
207.381	102.06
207.599	9.9
207.818	30.38
208.037	-55.64
208.255	-14.68
208.474	81.58
208.693	-8.53
208.911	-37.2
209.13	93.87
209.349	36.52
209.567	13.99
209.786	89.77
210.005	59.05
210.223	-12.63
210.442	-106.84
210.661	-0.34
210.879	48.81
211.098	5.8
211.316	13.99
211.535	46.76
211.753	61.1
211.972	38.57
212.191	18.09
212.409	-6.49
212.628	46.76
212.846	-59.73
213.065	83.63
213.283	54.95
213.502	-18.77
213.72	-24.92
213.938	-8.53
214.157	-0.34
214.375	3.75
214.594	85.67
214.812	36.52
215.031	-33.11
215.249	-10.58
215.467	36.52
215.686	-16.73
215.904	48.81
216.122	-22.87
216.341	91.82
216.559	48.81
216.778	114.34
216.996	145.06
217.214	50.86
217.432	-0.34
217.651	-41.3
217.869	32.43
218.087	69.29
218.306	34.47
218.524	134.82
218.742	13.99
218.96	44.71
219.179	-57.68
219.397	57
219.615	81.58
219.833	18.09
220.051	-55.64
220.27	132.78
220.488	48.81
220.706	81.58
220.924	26.28
221.142	-0.34
221.36	38.57
221.578	1.71
221.796	3.75
222.015	71.34
222.233	50.86
222.451	75.43
222.669	-26.96
222.887	44.71
223.105	-67.92
223.323	-35.16
223.541	-33.11
223.759	22.19
223.977	-26.96
224.195	79.53
224.413	63.15
224.631	75.43
224.849	-0.34
225.067	132.78
225.285	-53.59
225.503	-45.4
225.721	1.71
225.939	57
226.157	3.75
226.375	157.35
226.592	73.39
226.81	-57.68
227.028	54.95
227.246	102.06
227.464	28.33
227.682	3.75
227.9	7.85
228.117	57
228.335	-8.53
228.553	-49.49
228.771	44.71
228.989	89.77
229.206	-67.92
229.424	54.95
229.642	42.67
229.86	22.19
230.077	85.67
230.295	28.33
230.513	9.9
230.731	40.62
230.948	89.77
231.166	42.67
231.384	44.71
231.601	-14.68
231.819	42.67
232.037	-2.39
232.254	-55.64
232.472	75.43
232.689	-31.06
232.907	44.71
233.125	59.05
233.342	-20.82
233.56	3.75
233.777	-8.53
233.995	34.47
234.213	48.81
234.43	38.57
234.648	-12.63
234.865	97.96
235.083	48.81
235.3	13.99
235.518	38.57
235.735	83.63
235.953	77.48
236.17	40.62
236.388	32.43
236.605	-14.68
236.822	44.71
237.04	91.82
237.257	22.19
237.475	-59.73
237.692	16.04
237.909	30.38
238.127	9.9
238.344	13.99
238.562	18.09
238.779	13.99
238.996	7.85
239.214	24.23
239.431	42.67
239.648	50.86
239.865	40.62
240.083	28.33
240.3	-31.06
240.517	7.85
240.735	-2.39
240.952	52.91
241.169	85.67
241.386	5.8
241.603	46.76
241.821	7.85
242.038	61.1
242.255	63.15
242.472	5.8
242.689	-8.53
242.907	77.48
243.124	69.29
243.341	-26.96
243.558	18.09
243.775	22.19
243.992	-2.39
244.209	-8.53
244.426	83.63
244.643	26.28
244.86	-47.44
245.078	32.43
245.295	24.23
245.512	69.29
245.729	-24.92
245.946	52.91
246.163	91.82
246.38	16.04
246.597	91.82
246.814	18.09
247.031	83.63
247.248	57
247.464	18.09
247.681	-14.68
247.898	52.91
248.115	93.87
248.332	-51.54
248.549	77.48
248.766	52.91
248.983	87.72
249.2	20.14
249.417	79.53
249.633	34.47
249.85	32.43
250.067	-12.63
250.284	-0.34
250.501	26.28
250.717	79.53
250.934	34.47
251.151	-12.63
251.368	36.52
251.585	26.28
251.801	52.91
252.018	-55.64
252.235	136.87
252.451	46.76
252.668	75.43
252.885	67.24
253.102	18.09
253.318	77.48
253.535	-43.35
253.752	-84.31
253.968	34.47
254.185	-6.49
254.401	59.05
254.618	42.67
254.835	30.38
255.051	100.01
255.268	11.95
255.484	-53.59
255.701	85.67
255.917	13.99
256.134	-20.82
256.351	3.75
256.567	1.71
256.784	-2.39
257	16.04
257.217	36.52
257.433	-16.73
257.65	11.95
257.866	79.53
258.082	-10.58
258.299	42.67
258.515	102.06
258.732	63.15
258.948	-55.64
259.165	30.38
259.381	3.75
259.597	79.53
259.814	44.71
260.03	1.71
260.246	-2.39
260.463	116.39
260.679	71.34
260.895	28.33
261.112	7.85
261.328	5.8
261.544	48.81
261.761	83.63
261.977	-24.92
262.193	-12.63
262.409	30.38
262.626	11.95
262.842	54.95
263.058	-18.77
263.274	3.75
263.49	44.71
263.707	100.01
263.923	5.8
264.139	24.23
264.355	-45.4
264.571	75.43
264.787	44.71
265.004	38.57
265.22	57
265.436	20.14
265.652	-18.77
265.868	36.52
266.084	-37.2
266.3	46.76
266.516	67.24
266.732	34.47
266.948	65.19
267.164	13.99
267.38	-10.58
267.596	81.58
267.812	175.78
268.028	97.96
268.244	16.04
268.46	-14.68
268.676	24.23
268.892	9.9
269.108	-14.68
269.324	-33.11
269.54	-59.73
269.756	65.19
269.972	30.38
270.188	11.95
270.403	1.71
270.619	65.19
270.835	77.48
271.051	16.04
271.267	42.67
271.483	34.47
271.698	26.28
271.914	-14.68
272.13	5.8
272.346	-26.96
272.562	-6.49
272.777	3.75
272.993	75.43
273.209	13.99
273.425	59.05
273.64	-18.77
273.856	87.72
274.072	36.52
274.287	-41.3
274.503	-0.34
274.719	40.62
274.934	9.9
275.15	44.71
275.366	3.75
275.581	59.05
275.797	61.1
276.012	32.43
276.228	48.81
276.444	-8.53
276.659	32.43
276.875	26.28
277.09	-4.44
277.306	42.67
277.521	46.76
277.737	-20.82
277.952	69.29
278.168	46.76
278.383	63.15
278.599	61.1
278.814	40.62
279.03	71.34
279.245	61.1
279.461	24.23
279.676	38.57
279.892	-6.49
280.107	44.71
280.322	-78.16
280.538	87.72
280.753	-6.49
280.969	38.57
281.184	87.72
281.399	192.17
281.615	9.9
281.83	44.71
282.045	9.9
282.26	40.62
282.476	48.81
282.691	65.19
282.906	46.76
283.122	40.62
283.337	-18.77
283.552	112.3
283.767	-37.2
283.983	89.77
284.198	3.75
284.413	36.52
284.628	-4.44
284.843	57
285.058	-18.77
285.274	-24.92
285.489	11.95
285.704	30.38
285.919	-2.39
286.134	-61.78
286.349	38.57
286.564	-20.82
286.779	9.9
286.995	52.91
287.21	30.38
287.425	100.01
287.64	-12.63
287.855	-49.49
288.07	3.75
288.285	91.82
288.5	69.29
288.715	83.63
288.93	1.71
289.145	-67.92
289.36	40.62
289.575	48.81
289.79	102.06
290.004	-4.44
290.219	42.67
290.434	-37.2
290.649	28.33
290.864	-10.58
291.079	-2.39
291.294	44.71
291.509	61.1
291.724	36.52
291.938	-20.82
292.153	24.23
292.368	-43.35
292.583	20.14
292.798	73.39
293.012	104.11
293.227	26.28
293.442	1.71
293.657	61.1
293.871	95.91
294.086	-35.16
294.301	65.19
294.516	50.86
294.73	50.86
294.945	-47.44
295.16	83.63
295.374	61.1
295.589	26.28
295.804	16.04
296.018	9.9
296.233	108.2
296.447	63.15
296.662	52.91
296.877	114.34
297.091	57
297.306	42.67
297.52	54.95
297.735	36.52
297.949	95.91
298.164	67.24
298.378	44.71
298.593	-24.92
298.807	-59.73
299.022	102.06
299.236	59.05
299.451	-26.96
299.665	77.48
299.88	48.81
300.094	93.87
300.309	3.75
300.523	54.95
300.737	-35.16
300.952	5.8
301.166	61.1
301.381	5.8
301.595	16.04
301.809	67.24
302.024	24.23
302.238	52.91
302.452	77.48
302.667	1.71
302.881	57
303.095	151.21
303.309	-43.35
303.524	50.86
303.738	63.15
303.952	24.23
304.166	81.58
304.381	-67.92
304.595	102.06
304.809	-26.96
305.023	38.57
305.237	-12.63
305.452	-12.63
305.666	13.99
305.88	18.09
306.094	22.19
306.308	83.63
306.522	7.85
306.736	116.39
306.95	40.62
307.164	34.47
307.379	9.9
307.593	136.87
307.807	54.95
308.021	-2.39
308.235	102.06
308.449	-20.82
308.663	42.67
308.877	18.09
309.091	-10.58
309.305	112.3
309.519	-74.07
309.733	110.25
309.947	-63.83
310.161	24.23
310.374	50.86
310.588	75.43
310.802	16.04
311.016	44.71
311.23	22.19
311.444	48.81
311.658	-43.35
311.872	153.26
312.085	61.1
312.299	104.11
312.513	112.3
312.727	-12.63
312.941	-29.01
313.154	73.39
313.368	-20.82
313.582	11.95
313.796	20.14
314.009	38.57
314.223	118.44
314.437	42.67
314.651	34.47
314.864	22.19
315.078	63.15
315.292	-35.16
315.505	46.76
315.719	18.09
315.933	42.67
316.146	112.3
316.36	-4.44
316.573	69.29
316.787	110.25
317.001	54.95
317.214	-51.54
317.428	75.43
317.641	-0.34
317.855	65.19
318.068	5.8
318.282	128.68
318.495	145.06
318.709	79.53
318.922	-2.39
319.136	83.63
319.349	54.95
319.563	44.71
319.776	30.38
319.99	-0.34
320.203	1.71
320.417	69.29
320.63	61.1
320.843	44.71
321.057	3.75
321.27	40.62
321.483	87.72
321.697	93.87
321.91	73.39
322.124	42.67
322.337	145.06
322.55	-61.78
322.763	-4.44
322.977	-10.58
323.19	22.19
323.403	9.9
323.617	-0.34
323.83	122.54
324.043	-14.68
324.256	91.82
324.469	24.23
324.683	95.91
324.896	46.76
325.109	20.14
325.322	-20.82
325.535	63.15
325.748	67.24
325.962	-2.39
326.175	-2.39
326.388	85.67
326.601	67.24
326.814	-10.58
327.027	3.75
327.24	75.43
327.453	-29.01
327.666	77.48
327.879	73.39
328.092	52.91
328.305	48.81
328.518	22.19
328.731	22.19
328.944	-41.3
329.157	114.34
329.37	52.91
329.583	36.52
329.796	36.52
330.009	18.09
330.222	91.82
330.435	36.52
330.648	40.62
330.861	28.33
331.073	114.34
331.286	-0.34
331.499	95.91
331.712	28.33
331.925	-8.53
332.138	18.09
332.35	87.72
332.563	26.28
332.776	-8.53
332.989	42.67
333.202	-2.39
333.414	22.19
333.627	65.19
333.84	20.14
334.053	71.34
334.265	-33.11
334.478	-4.44
334.691	-12.63
334.903	-18.77
335.116	-22.87
335.329	13.99
335.541	149.16
335.754	67.24
335.966	-31.06
336.179	38.57
336.392	34.47
336.604	28.33
336.817	57
337.029	24.23
337.242	13.99
337.454	1.71
337.667	36.52
337.88	63.15
338.092	28.33
338.305	124.58
338.517	44.71
338.729	89.77
338.942	42.67
339.154	-4.44
339.367	-24.92
339.579	97.96
339.792	7.85
340.004	-14.68
340.217	54.95
340.429	36.52
340.641	42.67
340.854	46.76
341.066	5.8
341.278	120.49
341.491	136.87
341.703	46.76
341.915	-63.83
342.128	108.2
342.34	143.02
342.552	48.81
342.764	73.39
342.977	93.87
343.189	-8.53
343.401	26.28
343.613	-18.77
343.826	1.71
344.038	20.14
344.25	100.01
344.462	36.52
344.674	77.48
344.886	-20.82
345.099	13.99
345.311	46.76
345.523	52.91
345.735	-22.87
345.947	50.86
346.159	85.67
346.371	67.24
346.583	91.82
346.795	114.34
347.007	91.82
347.219	46.76
347.431	91.82
347.643	118.44
347.855	71.34
348.067	67.24
348.279	-29.01
348.491	28.33
348.703	112.3
348.915	50.86
349.127	-35.16
349.339	52.91
349.551	44.71
349.763	28.33
349.975	89.77
350.187	100.01
350.399	116.39
350.61	63.15
350.822	11.95
351.034	61.1
351.246	114.34
351.458	3.75
351.669	34.47
351.881	165.54
352.093	63.15
352.305	108.2
352.517	42.67
352.728	120.49
352.94	9.9
353.152	48.81
353.363	11.95
353.575	20.14
353.787	91.82
353.999	24.23
354.21	118.44
354.422	-29.01
354.633	38.57
354.845	46.76
355.057	24.23
355.268	16.04
355.48	145.06
355.692	-47.44
355.903	-22.87
356.115	46.76
356.326	-26.96
356.538	118.44
356.749	24.23
356.961	50.86
357.172	9.9
357.384	-26.96
357.595	106.15
357.807	26.28
358.018	-26.96
358.23	57
358.441	200.36
358.653	102.06
358.864	52.91
359.075	65.19
359.287	20.14
359.498	136.87
359.709	97.96
359.921	9.9
360.132	42.67
360.344	-22.87
360.555	9.9
360.766	100.01
360.977	48.81
361.189	79.53
361.4	20.14
361.611	75.43
361.823	100.01
362.034	7.85
362.245	-51.54
362.456	36.52
362.667	79.53
362.879	-39.25
363.09	61.1
363.301	1.71
363.512	20.14
363.723	36.52
363.935	75.43
364.146	81.58
364.357	20.14
364.568	71.34
364.779	44.71
364.99	69.29
365.201	46.76
365.412	38.57
365.623	-39.25
365.834	93.87
366.045	95.91
366.256	100.01
366.467	-8.53
366.678	7.85
366.889	132.78
367.1	18.09
367.311	44.71
367.522	11.95
367.733	104.11
367.944	85.67
368.155	89.77
368.366	46.76
368.577	65.19
368.788	30.38
368.999	71.34
369.209	44.71
369.42	169.64
369.631	102.06
369.842	7.85
370.053	18.09
370.264	38.57
370.474	-53.59
370.685	3.75
370.896	44.71
371.107	46.76
371.317	20.14
371.528	79.53
371.739	65.19
371.95	-2.39
372.16	69.29
372.371	-20.82
372.582	61.1
372.792	69.29
373.003	61.1
373.214	-2.39
373.424	65.19
373.635	42.67
373.846	120.49
374.056	83.63
374.267	110.25
374.477	71.34
374.688	52.91
374.898	16.04
375.109	71.34
375.319	30.38
375.53	116.39
375.74	20.14
375.951	-4.44
376.161	32.43
376.372	71.34
376.582	16.04
376.793	87.72
377.003	7.85
377.214	-20.82
377.424	89.77
377.635	63.15
377.845	16.04
378.055	81.58
378.266	50.86
378.476	71.34
378.686	16.04
378.897	-37.2
379.107	50.86
379.317	46.76
379.528	-16.73
379.738	75.43
379.948	-12.63
380.158	171.69
380.369	73.39
380.579	79.53
380.789	11.95
380.999	50.86
381.21	136.87
381.42	167.59
381.63	-6.49
381.84	16.04
382.05	108.2
382.261	100.01
382.471	50.86
382.681	24.23
382.891	93.87
383.101	65.19
383.311	-20.82
383.521	16.04
383.731	69.29
383.941	124.58
384.151	50.86
384.361	48.81
384.571	116.39
384.781	102.06
384.991	85.67
385.201	143.02
385.411	95.91
385.621	46.76
385.831	71.34
386.041	57
386.251	36.52
386.461	67.24
386.671	32.43
386.881	40.62
387.091	73.39
387.301	26.28
387.511	77.48
387.72	91.82
387.93	85.67
388.14	-16.73
388.35	102.06
388.56	30.38
388.769	77.48
388.979	38.57
389.189	32.43
389.399	54.95
389.609	81.58
389.818	114.34
390.028	85.67
390.238	85.67
390.447	52.91
390.657	134.82
390.867	-0.34
391.076	-39.25
391.286	87.72
391.496	32.43
391.705	7.85
391.915	30.38
392.125	159.4
392.334	36.52
392.544	116.39
392.753	145.06
392.963	16.04
393.172	40.62
393.382	11.95
393.591	190.12
393.801	97.96
394.01	138.92
394.22	118.44
394.429	104.11
394.639	59.05
394.848	104.11
395.058	32.43
395.267	59.05
395.477	145.06
395.686	91.82
395.895	104.11
396.105	194.22
396.314	108.2
396.524	77.48
396.733	71.34
396.942	102.06
397.152	110.25
397.361	79.53
397.57	44.71
397.78	77.48
397.989	65.19
398.198	163.5
398.407	61.1
398.617	114.34
398.826	155.3
399.035	77.48
399.244	147.11
399.453	132.78
399.663	79.53
399.872	140.97
400.081	65.19
400.29	169.64
400.499	63.15
400.708	89.77
400.917	65.19
401.127	81.58
401.336	20.14
401.545	257.7
401.754	151.21
401.963	151.21
402.172	87.72
402.381	100.01
402.59	143.02
402.799	134.82
403.008	106.15
403.217	95.91
403.426	120.49
403.635	95.91
403.844	179.88
404.053	128.68
404.262	149.16
404.471	224.94
404.68	177.83
404.888	190.12
405.097	108.2
405.306	95.91
405.515	239.27
405.724	145.06
405.933	269.99
406.142	222.89
406.35	229.03
406.559	200.36
406.768	116.39
406.977	263.85
407.185	175.78
407.394	235.18
407.603	188.07
407.812	226.98
408.02	257.7
408.229	253.61
408.438	280.23
408.646	229.03
408.855	171.69
409.064	280.23
409.272	169.64
409.481	269.99
409.69	276.13
409.898	231.08
410.107	317.09
410.315	364.2
410.524	351.91
410.733	378.53
410.941	370.34
411.15	333.48
411.358	380.58
411.567	450.21
411.775	382.63
411.984	372.39
412.192	464.55
412.401	462.5
412.609	568.99
412.818	495.27
413.026	462.5
413.234	513.7
413.443	507.55
413.651	444.07
413.86	546.47
414.068	638.62
414.276	720.54
414.485	540.32
414.693	751.26
414.901	730.78
415.11	773.79
415.318	771.74
415.526	767.65
415.734	835.23
415.943	822.94
416.151	839.33
416.359	775.84
416.567	904.86
416.776	970.4
416.984	970.4
417.192	999.07
417.4	1013.4
417.608	994.97
417.817	1050.27
418.025	1095.32
418.233	1160.86
418.441	1218.2
418.649	1128.09
418.857	1179.29
419.065	1351.32
419.273	1205.91
419.481	1289.88
419.689	1599.12
419.897	1570.45
420.105	1572.5
420.313	1533.59
420.521	1588.88
420.729	1617.55
420.937	1681.04
421.145	1754.77
421.353	1861.26
421.561	1914.51
421.769	1867.41
421.977	1947.28
422.185	2104.97
422.393	2084.49
422.601	2277
422.809	2252.42
423.017	2254.47
423.224	2387.59
423.432	2594.44
423.64	2625.15
423.848	2762.37
424.056	2705.03
424.263	2993.79
424.471	2897.53
424.679	2958.97
424.887	3083.9
425.094	3137.15
425.302	3149.43
425.51	3374.71
425.718	3438.2
425.925	3468.92
426.133	3561.08
426.341	3720.82
426.548	4068.97
426.756	3911.28
426.964	3974.77
427.171	4148.84
427.379	4314.73
427.586	4423.27
427.794	4544.1
428.001	4742.75
428.209	5076.57
428.417	4937.31
428.624	5353.05
428.832	5119.58
429.039	5187.16
429.247	5146.2
429.454	5832.27
429.662	6121.04
429.869	5660.24
430.076	6184.52
430.284	6039.12
430.491	6311.5
430.699	6499.91
430.906	6606.41
431.114	6630.98
431.321	7095.87
431.528	7073.34
431.736	7534.14
431.943	7773.75
432.15	7611.96
432.358	7663.16
432.565	8220.21
432.772	7972.4
432.979	8506.92
433.187	8605.22
433.394	8640.04
433.601	9303.58
433.808	9115.17
434.016	9330.2
434.223	9877.01
434.43	10087.95
434.637	10051.09
434.844	10653.19
435.052	10780.17
435.259	10767.88
435.466	11058.69
435.673	10718.73
435.88	11474.43
436.087	11957.75
436.294	12045.81
436.501	11656.7
436.708	12088.82
436.915	12453.36
437.122	13137.38
437.329	12860.9
437.537	13606.36
437.743	13551.07
437.95	13735.39
438.157	14243.28
438.364	14781.9
438.571	14441.93
438.778	14855.62
438.985	16172.47
439.192	15525.31
439.399	16037.3
439.606	15787.45
439.813	16645.55
440.02	17687.96
440.227	17511.84
440.433	17159.59
440.64	17618.33
440.847	17546.65
441.054	18197.91
441.261	19068.3
441.467	18726.28
441.674	19443.07
441.881	19697.02
442.088	20043.13
442.294	19930.49
442.501	20579.7
442.708	20874.6
442.914	21884.25
443.121	22689.1
443.328	22039.9
443.534	23514.44
443.741	22670.67
443.948	22809.93
444.154	24501.56
444.361	24075.58
444.568	24487.22
444.774	24249.66
444.981	24399.16
445.187	25603.36
445.394	26570.01
445.6	26131.74
445.807	28511.48
446.013	27151.63
446.22	27835.65
446.426	29127.92
446.633	29228.27
446.839	30289.12
447.046	29220.08
447.252	30401.75
447.459	30823.64
447.665	30661.85
447.871	32124.1
448.078	33668.26
448.284	31509.71
448.491	32691.38
448.697	34053.28
448.903	34524.32
449.11	34692.25
449.316	33778.86
449.522	34856.09
449.728	35589.26
449.935	35839.11
450.141	35990.66
450.347	36641.92
450.553	35908.74
450.76	36117.64
450.966	37891.18
451.172	36719.74
451.378	37977.19
451.584	36936.82
451.791	37731.43
451.997	38005.86
452.203	38417.5
452.409	38900.83
452.615	38804.57
452.821	37205.11
453.027	36856.95
453.233	38675.55
453.44	37440.62
453.646	37715.05
453.852	37870.7
454.058	38290.53
454.264	37289.07
454.47	37831.79
454.676	37082.23
454.882	38288.48
455.088	35048.6
455.294	35738.76
455.5	36322.43
455.705	36705.4
455.911	34935.96
456.117	34448.54
456.323	33787.05
456.529	32031.94
456.735	33828.01
456.941	32658.62
457.147	32404.67
457.352	31235.28
457.558	30876.88
457.764	31053.01
457.97	30391.51
458.176	29867.23
458.381	30047.46
458.587	28183.8
458.793	28505.34
458.999	26995.98
459.204	28876.02
459.41	28187.9
459.616	26195.23
459.821	26430.74
460.027	25939.23
460.233	25580.84
460.438	24386.87
460.644	24511.8
460.85	23430.47
461.055	23225.67
461.261	23186.76
461.466	21210.47
461.672	20692.33
461.878	22371.67
462.083	20716.91
462.289	20331.89
462.494	19914.11
462.7	19301.76
462.905	18773.39
463.111	19312
463.316	19641.73
463.522	19246.47
463.727	19377.54
463.932	19008.9
464.138	19137.93
464.343	18896.27
464.549	18267.54
464.754	19027.34
464.959	18828.68
465.165	18742.67
465.37	17968.54
465.575	17503.65
465.781	17980.82
465.986	18236.82
466.191	17436.06
466.397	17198.5
466.602	16149.94
466.807	17145.25
467.012	17118.63
467.218	16764.33
467.423	16838.06
467.628	16909.74
467.833	17304.99
468.038	16661.93
468.244	16399.79
468.449	17049
468.654	16436.66
468.859	16373.17
469.064	16311.73
469.269	15707.58
469.474	15672.76
469.679	16209.33
469.885	15640
470.09	15973.81
470.295	15766.97
470.5	15285.7
470.705	15513.02
470.91	15242.69
471.115	15160.77
471.32	15234.5
471.525	15275.46
471.73	14779.85
471.935	14616.01
472.139	14110.16
472.344	14357.97
472.549	14403.02
472.754	14112.21
472.959	13772.25
473.164	13518.3
473.369	13501.92
473.574	13989.33
473.778	13782.49
473.983	13524.44
474.188	13651.42
474.393	12877.29
474.598	12985.83
474.802	13012.45
475.007	12916.2
475.212	12989.92
475.417	12256.75
475.621	12385.77
475.826	12453.36
476.031	12338.67
476.235	11718.14
476.44	12060.15
476.645	11826.68
476.849	12066.29
477.054	11720.18
477.259	11517.43
477.463	11793.91
477.668	11200
477.872	11392.51
478.077	11212.29
478.282	10923.52
478.486	10788.36
478.691	10784.26
478.895	10698.25
479.1	10857.99
479.304	10780.17
479.509	10391.05
479.713	10636.81
479.918	10386.96
480.122	10327.57
480.326	10595.85
480.531	10460.68
480.735	10233.36
480.94	10036.75
481.144	10518.03
481.348	10067.47
481.553	10229.26
481.757	9842.2
481.961	10208.78
482.166	10090
482.37	10298.89
482.574	10038.8
482.778	9772.57
482.983	10081.81
483.187	10051.09
483.391	10159.63
483.595	9950.74
483.8	9651.74
484.004	9999.89
484.208	9963.03
484.412	10167.82
484.616	9963.03
484.821	10128.91
485.025	9803.29
485.229	10139.15
485.433	9922.07
485.637	9780.76
485.841	9895.44
486.045	9799.19
486.249	9897.49
486.453	10022.42
486.657	9960.98
486.861	9838.1
487.065	9618.97
487.269	9893.4
487.473	9451.03
487.677	10098.19
487.881	10268.17
488.085	9963.03
488.289	10069.52
488.493	10008.08
488.697	9963.03
488.901	10061.33
489.105	9860.63
489.309	10133.01
489.512	10137.1
489.716	10178.06
489.92	9915.92
490.124	10229.26
490.328	10526.22
490.531	10247.69
490.735	10245.65
490.939	10470.92
491.143	10237.45
491.346	10294.8
491.55	10296.85
491.754	10421.77
491.958	10327.57
492.161	10352.14
492.365	10466.83
492.569	10499.59
492.772	10546.7
492.976	10653.19
493.18	10708.49
493.383	10554.89
493.587	10911.24
493.79	11193.86
493.994	10925.57
494.197	10962.44
494.401	11136.51
494.605	11066.88
494.808	11378.17
495.012	11216.38
495.215	11292.16
495.419	11603.45
495.622	11431.42
495.825	11673.08
496.029	11394.56
496.232	11879.93
496.436	11773.43
496.639	12084.72
496.843	11947.51
497.046	12269.04
497.249	12547.56
497.453	12281.33
497.656	12508.65
497.859	12795.37
498.063	12799.46
498.266	13108.71
498.469	12727.78
498.673	12967.4
498.876	13176.29
499.079	13198.82
499.282	13577.69
499.485	13866.46
499.689	13589.98
499.892	13798.87
500.095	13905.37
500.298	13999.57
500.501	14159.31
500.705	14472.65
500.908	14857.67
501.111	14923.21
501.314	15062.47
501.517	15146.44
501.72	15191.49
501.923	15736.25
502.126	15902.14
502.329	16098.74
502.532	16025.01
502.735	16072.12
502.938	16383.41
503.141	16340.4
503.344	16541.1
503.547	16625.07
503.75	16913.83
503.953	17020.33
504.156	17438.11
504.359	17497.5
504.562	17739.16
504.765	18027.93
504.968	17909.15
505.17	18351.51
505.373	18283.92
505.576	18711.95
505.779	18605.45
505.982	18879.88
506.185	19297.67
506.387	19371.4
506.59	19432.83
506.793	19950.97
506.996	19850.62
507.198	20174.2
507.401	20088.18
507.604	20678
507.807	20929.9
508.009	20997.48
508.212	21200.23
508.415	21439.84
508.617	21693.79
508.82	21771.61
509.022	21552.48
509.225	22336.85
509.428	22441.3
509.63	22478.16
509.833	22494.55
510.035	22984.01
510.238	23194.95
510.44	23491.91
510.643	23627.07
510.845	23913.79
511.048	23670.08
511.25	24143.16
511.453	24249.66
511.655	25287.98
511.858	24866.1
512.06	25079.08
512.262	25333.03
512.465	25154.86
512.667	25554.21
512.87	26062.11
513.072	26086.68
513.274	26672.4
513.477	26680.6
513.679	26762.51
513.881	27100.43
514.084	27088.14
514.286	27491.59
514.488	27634.95
514.69	28380.41
514.893	28126.46
515.095	28491
515.297	28597.49
515.499	28632.31
515.701	28914.93
515.904	29148.4
516.106	29646.05
516.308	29658.34
516.51	30381.28
516.712	29959.39
516.914	30381.28
517.116	30837.97
517.318	30987.47
517.52	30776.53
517.722	31016.15
517.925	31546.57
518.127	31866.05
518.329	32214.21
518.531	32091.33
518.733	32748.73
518.935	32732.34
519.136	32734.39
519.338	32996.53
519.54	33012.91
519.742	33563.82
519.944	33682.6
520.146	34446.49
520.348	34309.28
520.55	34417.82
520.752	34170.02
520.954	34759.83
521.155	34309.28
521.357	34917.53
521.559	35210.39
521.761	35908.74
521.963	35636.36
522.164	36170.88
522.366	35994.76
522.568	36701.31
522.77	36322.43
522.971	37026.93
523.173	36398.21
523.375	37201.01
523.576	36805.75
523.778	36871.29
523.98	37522.54
524.181	37905.51
524.383	38038.63
524.584	37907.56
524.786	38184.04
524.988	38022.25
525.189	38335.59
525.391	38739.04
525.592	38929.5
525.794	39017.56
525.995	39091.29
526.197	38999.13
526.398	39234.64
526.6	39390.29
526.801	39349.33
527.003	39492.69
527.204	39197.78
527.406	39713.87
527.607	39601.23
527.808	39988.3
528.01	39144.53
528.211	39636.05
528.412	40447.04
528.614	40059.98
528.815	40107.08
529.016	40383.55
529.218	40201.29
529.419	40463.43
529.62	39978.06
529.822	40293.44
530.023	40483.9
530.224	40528.96
530.425	40520.77
530.626	40338.5
530.828	40055.88
531.029	41155.64
531.23	40584.26
531.431	41028.66
531.632	40811.58
531.833	40938.55
532.035	40643.65
532.236	41163.83
532.437	41399.35
532.638	40983.61
532.839	40739.9
533.04	40942.65
533.241	40350.79
533.442	41192.5
533.643	41186.36
533.844	40803.39
534.045	41151.54
534.246	41124.92
534.447	41145.4
534.648	41260.09
534.849	41169.97
535.05	40991.8
535.251	40686.65
535.451	41245.75
535.652	40868.92
535.853	40787
536.054	41366.58
536.255	41008.18
536.456	40635.45
536.657	41905.2
536.857	41069.62
537.058	40606.78
537.259	41073.72
537.46	41081.91
537.66	40864.83
537.861	41184.31
538.062	40922.17
538.263	41135.16
538.463	41055.29
538.664	40668.22
538.865	40881.21
539.065	41428.02
539.266	40975.42
539.466	41434.16
539.667	40580.16
539.868	41339.96
540.068	41292.85
540.269	40936.51
540.469	41225.27
540.67	41081.91
540.87	40969.27
541.071	40832.06
541.271	41124.92
541.472	40883.26
541.672	40997.95
541.873	40844.35
542.073	40254.53
542.274	41215.03
542.474	40789.05
542.675	40793.15
542.875	41153.59
543.075	41059.38
543.276	40348.74
543.476	41600.05
543.676	41067.58
543.877	41219.13
544.077	41043
544.277	40772.67
544.478	40834.11
544.678	41315.38
544.878	40729.66
545.078	41002.04
545.279	40918.07
545.479	40813.63
545.679	41231.41
545.879	40901.69
546.079	40840.25
546.28	40873.02
546.48	40322.12
546.68	41106.49
546.88	41045.05
547.08	40774.72
547.28	40897.59
547.48	40657.98
547.68	40848.44
547.88	40639.55
548.081	40832.06
548.281	41118.78
548.481	40639.55
548.681	40934.46
548.881	40879.16
549.081	41290.8
549.28	40176.71
549.48	41030.71
549.68	40674.37
549.88	40979.51
550.08	40639.55
550.28	41137.21
550.48	40686.65
550.68	41204.79
550.88	40805.44
551.08	40795.2
551.279	41014.33
551.479	40805.44
551.679	40883.26
551.879	41032.76
552.079	41065.53
552.278	40778.81
552.478	40741.95
552.678	40504.38
552.878	41159.73
553.077	40676.41
553.277	40453.19
553.477	40922.17
553.676	40967.23
553.876	40705.09
554.076	40848.44
554.275	40621.12
554.475	40062.02
554.674	40932.41
554.874	40436.8
555.074	40358.98
555.273	41079.86
555.473	41172.02
555.672	40670.27
555.872	40614.97
556.071	40999.99
556.271	41200.69
556.47	40901.69
556.67	40358.98
556.869	40488
557.068	40551.49
557.268	40588.35
557.467	40369.22
557.667	40823.87
557.866	40623.17
558.065	40746.04
558.265	40373.31
558.464	40019.02
558.663	40662.08
558.863	40258.63
559.062	40817.72
559.261	39990.34
559.461	40850.49
559.66	40131.65
559.859	40424.51
560.058	40084.55
560.258	40582.21
560.457	40098.89
560.656	40602.69
560.855	40223.81
561.054	40508.48
561.253	40199.24
561.453	40545.34
561.652	40350.79
561.851	40500.29
562.05	40045.64
562.249	40219.72
562.448	40664.13
562.647	40399.94
562.846	39998.54
563.045	40334.4
563.244	39918.67
563.443	40725.57
563.642	39670.86
563.841	40178.76
564.04	39945.29
564.239	40649.79
564.438	39881.8
564.637	40291.4
564.836	40125.51
565.035	39828.55
565.234	40064.07
565.432	39760.97
565.631	39808.08
565.83	40234.05
566.029	40035.4
566.228	39769.16
566.427	39787.6
566.625	39857.23
566.824	39423.06
567.023	40264.77
567.222	39339.09
567.42	40037.45
567.619	40008.78
567.818	40021.06
568.016	39935.05
568.215	40172.61
568.414	39316.56
568.612	39826.51
568.811	39775.31
569.01	39851.08
569.208	39003.22
569.407	39439.44
569.605	39470.16
569.804	39912.52
570.002	39273.56
570.201	39834.7
570.4	39079
570.598	39402.58
570.797	39259.22
570.995	39208.02
571.193	39169.11
571.392	39584.85
571.59	39027.8
571.789	38974.55
571.987	38958.17
572.186	38870.11
572.384	38972.5
572.582	39146.58
572.781	39517.26
572.979	38620.25
573.177	38919.26
573.376	38874.2
573.574	39095.38
573.772	39134.29
573.971	38825.05
574.169	38470.75
574.367	38956.12
574.565	38800.47
574.763	38714.46
574.962	38315.11
575.16	38386.78
575.358	38222.95
575.556	38227.04
575.754	38792.28
575.952	38067.3
576.151	38849.63
576.349	38245.48
576.547	38311.01
576.745	38349.92
576.943	38505.57
577.141	38065.25
577.339	38014.05
577.537	38272.1
577.735	37815.4
577.933	37465.2
578.131	38200.42
578.329	37911.66
578.527	37444.72
578.725	37696.62
578.923	37864.55
579.121	37399.66
579.319	37321.84
579.516	37928.04
579.714	37487.73
579.912	37225.59
580.11	37287.03
580.308	37432.43
580.506	37209.2
580.704	36826.23
580.901	37481.58
581.099	37547.12
581.297	36859
581.495	37203.06
581.692	36899.96
581.89	36799.61
582.088	37346.42
582.285	36985.97
582.483	37133.43
582.681	37055.61
582.878	36539.52
583.076	36091.01
583.274	36764.79
583.471	36271.23
583.669	36498.56
583.866	36162.69
584.064	36467.84
584.262	36201.6
584.459	36560
584.657	36359.3
584.854	36531.33
585.052	36013.19
585.249	36539.52
585.447	36322.43
585.644	35406.99
585.841	35855.5
586.039	36019.33
586.236	35400.85
586.434	35533.96
586.631	35427.47
586.828	35548.3
587.026	35720.33
587.223	35447.95
587.42	35417.23
587.618	35656.84
587.815	35562.64
588.012	34956.44
588.21	35083.41
588.407	35196.05
588.604	34995.35
588.801	34913.43
588.999	35040.4
589.196	34819.22
589.393	34897.05
589.59	34811.03
589.787	34698.39
589.984	34925.72
590.182	34475.16
590.379	35019.92
590.576	34147.49
590.773	34495.64
590.97	33903.78
591.167	34647.19
591.364	34034.85
591.561	34204.83
591.758	34213.02
591.955	33772.71
592.152	34266.27
592.349	34147.49
592.546	33852.58
592.743	33778.86
592.94	33305.77
593.137	33739.94
593.334	33895.59
593.531	33385.65
593.727	33686.7
593.924	33645.74
594.121	33486
594.318	33768.62
594.515	33094.83
594.712	33811.62
594.908	33303.73
595.105	32947.38
595.302	32705.72
595.499	33240.24
595.696	32963.76
595.892	32785.59
596.089	32992.44
596.286	33000.63
596.482	32683.19
596.679	32808.12
596.876	32763.06
597.072	32558.27
597.269	32830.65
597.466	32351.42
597.662	32267.45
597.859	32427.2
598.055	32502.97
598.252	32351.42
598.448	32384.19
598.645	32218.3
598.841	31884.48
599.038	32304.32
599.234	32433.34
599.431	31603.91
599.627	31939.78
599.824	32359.61
600.02	31849.67
600.217	31915.2
600.413	31755.46
600.609	31683.78
600.806	31622.34
601.002	31962.31
601.198	31642.82
601.395	31378.64
601.591	31640.78
601.787	31481.03
601.984	31122.64
602.18	31456.46
602.376	31440.07
602.572	31274.19
602.769	31319.24
602.965	30680.28
603.161	31464.65
603.357	30647.51
603.553	31216.85
603.75	31136.98
603.946	30835.92
604.142	30973.14
604.338	30868.69
604.534	31112.4
604.73	30524.63
604.926	30852.31
605.122	30663.89
605.318	30426.33
605.514	30346.46
605.71	30307.55
605.906	30422.23
606.102	30309.6
606.298	30545.11
606.494	30237.92
606.69	30377.18
606.886	30520.54
607.082	30282.97
607.278	30420.19
607.474	29957.35
607.67	30303.45
607.866	30088.42
608.062	30379.23
608.257	29914.34
608.453	29945.06
608.649	30336.22
608.845	29756.64
609.041	29641.96
609.236	29920.48
609.432	30282.97
609.628	30045.41
609.824	29854.95
610.019	29717.73
610.215	30004.45
610.411	30174.43
610.606	29633.77
610.802	30061.79
610.998	29951.2
611.193	29895.91
611.389	29314.28
611.584	29574.38
611.78	29609.19
611.976	29725.93
612.171	29787.36
612.367	29832.42
612.562	29535.46
612.758	29236.46
612.953	28839.15
613.149	29584.62
613.344	29304.04
613.539	29613.29
613.735	28990.7
613.93	29261.04
614.126	29111.53
614.321	29510.89
614.517	29283.56
614.712	29314.28
614.907	28812.53
615.103	29011.18
615.298	29291.76
615.493	29220.08
615.688	28706.04
615.884	29416.68
616.079	28589.3
616.274	28894.45
616.47	29097.2
616.665	29039.86
616.86	28640.5
617.055	28738.8
617.25	28781.81
617.445	28970.22
617.641	27985.15
617.836	28751.09
618.031	28413.18
618.226	28390.65
618.421	28368.12
618.616	28321.02
618.811	27872.51
619.006	28470.52
619.201	27626.76
619.396	28155.13
619.591	27700.48
619.786	27665.67
619.981	27358.47
620.176	27428.1
620.371	27260.17
620.566	27520.26
620.761	27489.54
620.956	27294.99
621.151	26942.74
621.346	27229.45
621.541	26705.17
621.735	26989.84
621.93	26354.97
622.125	26686.74
622.32	26305.82
622.515	26758.42
622.709	26109.21
622.904	26240.28
623.099	26088.73
623.294	26168.6
623.488	25771.3
623.683	25806.11
623.878	25058.6
624.072	25470.25
624.267	25488.68
624.462	25185.58
624.656	25113.9
624.851	25208.11
625.046	24706.35
625.24	24831.28
625.435	24622.39
625.629	24614.2
625.824	24425.78
626.018	24540.47
626.213	23788.86
626.407	24071.48
626.602	23680.32
626.796	24091.96
626.991	23993.66
627.185	23846.21
627.38	23702.85
627.574	23237.96
627.768	23383.37
627.963	23082.31
628.157	22707.54
628.352	22988.11
628.546	22670.67
628.74	23059.79
628.935	22732.11
629.129	22578.51
629.323	22021.47
629.517	22029.66
629.712	22318.42
629.906	21953.88
630.1	21923.16
630.294	21941.6
630.489	21755.23
630.683	21957.98
630.877	21179.75
631.071	21450.08
631.265	21720.42
631.459	21390.69
631.653	20974.95
631.848	21228.9
632.042	21185.9
632.236	20903.28
632.43	20974.95
632.624	20417.91
632.818	20444.53
633.012	20323.7
633.206	20710.77
633.4	20448.63
633.594	20063.61
633.788	20209.01
633.982	20264.31
634.176	20100.47
634.369	19697.02
634.563	19801.47
634.757	19617.15
634.951	19631.49
635.145	19680.64
635.339	19492.23
635.533	19064.2
635.726	19443.07
635.92	18980.23
636.114	18998.66
636.308	18898.31
636.501	18926.99
636.695	18855.31
636.889	18267.54
637.083	18587.02
637.276	18273.68
637.47	18308.5
637.664	18347.41
637.857	18199.96
638.051	18150.81
638.244	17946.01
638.438	17849.75
638.632	17769.88
638.825	17665.44
639.019	17440.16
639.212	17370.53
639.406	17493.41
639.599	17221.03
639.793	16940.46
639.986	16702.89
640.18	16831.91
640.373	16795.05
640.567	16647.6
640.76	16772.52
640.954	16450.99
641.147	16444.85
641.34	16334.26
641.534	16336.31
641.727	16027.06
641.92	15975.86
642.114	16080.31
642.307	15828.41
642.5	15877.56
642.694	15683
642.887	15617.47
643.08	15472.06
643.273	15353.28
643.467	15326.66
643.66	14927.3
643.853	14935.49
644.046	15060.42
644.239	15187.39
644.432	14943.69
644.626	14564.81
644.819	14646.73
645.012	14558.67
645.205	14536.14
645.398	14544.33
645.591	14214.61
645.784	14235.09
645.977	14278.1
646.17	14157.27
646.363	13741.53
646.556	13954.52
646.749	13878.74
646.942	13657.56
647.135	13759.96
647.328	13409.76
647.521	13420
647.714	12989.92
647.907	13342.18
648.099	13217.25
648.292	13280.74
648.485	13409.76
648.678	12791.27
648.871	12699.11
649.064	12672.49
649.256	12889.57
649.449	12799.46
649.642	12684.78
649.835	12299.76
650.027	12396.01
650.22	12410.35
650.413	12258.8
650.605	11902.45
650.798	12119.54
650.991	11765.24
651.183	12242.42
651.376	12111.35
651.568	12191.22
651.761	11652.6
651.954	11777.53
652.146	11718.14
652.339	11679.22
652.531	11558.39
652.724	11521.53
652.916	11482.62
653.109	11310.59
653.301	11464.19
653.494	11177.47
653.686	11189.76
653.879	11314.69
654.071	10958.34
654.263	11017.73
654.456	10749.45
654.648	10892.8
654.84	10747.4
655.033	10712.58
655.225	10755.59
655.417	10305.04
655.61	10515.98
655.802	10513.93
655.994	10395.15
656.186	10358.28
656.379	10194.45
656.571	10202.64
656.763	10016.27
656.955	10014.23
657.148	10071.57
657.34	9854.48
657.532	9866.77
657.724	9762.33
657.916	9877.01
658.108	9731.61
658.3	9383.45
658.492	9661.98
658.684	9545.24
658.876	9494.04
659.068	9389.6
659.26	9430.55
659.452	9272.86
659.644	9301.53
659.836	9221.66
660.028	9115.17
660.22	8859.17
660.412	8939.04
660.604	8916.51
660.796	8869.41
660.988	9023.01
661.18	8832.55
661.372	8660.52
661.563	8820.26
661.755	8734.25
661.947	8779.3
662.139	8414.76
662.331	8345.13
662.522	8269.36
662.714	8369.71
662.906	8224.3
663.097	8238.64
663.289	8138.29
663.481	8105.52
663.673	8148.53
663.864	7990.83
664.056	8042.03
664.247	8056.37
664.439	7845.43
664.631	8091.18
664.822	7792.18
665.014	7949.87
665.205	7745.08
665.397	7677.49
665.588	7712.31
665.78	7620.15
665.971	7689.78
666.163	7571
666.354	7472.7
666.546	7407.16
666.737	7343.67
666.929	7403.07
667.12	7282.24
667.311	7331.39
667.503	7265.85
667.694	7083.58
667.885	7140.93
668.077	7198.27
668.268	7089.73
668.459	7116.35
668.651	7085.63
668.842	6942.27
669.033	6880.83
669.224	6884.93
669.416	7036.48
669.607	6903.36
669.798	6938.18
669.989	6876.74
670.18	6768.2
670.371	6766.15
670.563	6641.22
670.754	6942.27
670.945	6555.21
671.136	6680.13
671.327	6559.3
671.518	6565.45
671.709	6530.63
671.9	6579.78
672.091	6583.88
672.282	6585.93
672.473	6493.77
672.664	6426.18
672.855	6434.38
673.046	6567.49
673.237	6563.4
673.428	6340.17
673.619	6428.23
673.809	6254.16
674	6207.05
674.191	6270.54
674.382	6243.92
674.573	6127.18
674.764	6170.19
674.954	6180.43
675.145	6205
675.336	6090.32
675.527	6092.37
675.717	6141.52
675.908	6133.33
676.099	6043.21
676.289	6088.27
676.48	6114.89
676.671	5992.02
676.861	5977.68
677.052	5920.34
677.243	5779.03
677.433	5955.15
677.624	6045.26
677.814	5994.06
678.005	5994.06
678.195	5875.28
678.386	5813.84
678.576	5680.72
678.767	5819.99
678.957	5871.19
679.148	5850.71
679.338	5901.9
679.529	5754.45
679.719	5613.14
679.909	5934.67
680.1	5598.81
680.29	5789.27
680.481	5830.23
680.671	5742.16
680.861	5815.89
681.052	5752.4
681.242	5664.34
681.432	5850.71
681.622	5738.07
681.813	5713.49
682.003	5750.35
682.193	5520.98
682.383	5660.24
682.573	5588.57
682.764	5586.52
682.954	5566.04
683.144	5469.78
683.334	5543.51
683.524	5582.42
683.714	5627.48
683.904	5410.39
684.094	5740.12
684.284	5537.37
684.474	5652.05
684.664	5664.34
684.854	5490.26
685.044	5596.76
685.234	5445.21
685.424	5443.16
685.614	5494.36
685.804	5355.1
685.994	5486.17
686.184	5453.4
686.374	5244.51
686.564	5377.62
686.753	5320.28
686.943	5408.34
687.133	5389.91
687.323	5437.02
687.513	5504.6
687.702	5283.42
687.892	5209.69
688.082	5334.62
688.272	5334.62
688.461	5258.84
688.651	5500.5
688.841	5174.88
689.03	5359.19
689.22	5185.12
689.41	5281.37
689.599	5285.47
689.789	5135.96
689.979	5246.55
690.168	5281.37
690.358	5199.45
690.547	5230.17
690.737	5205.6
690.926	5215.84
691.116	5107.29
691.305	5273.18
691.495	5199.45
691.684	5066.33
691.874	5174.88
692.063	5387.86
692.252	5185.12
692.442	5189.21
692.631	5074.53
692.82	5181.02
693.01	5060.19
693.199	5172.83
693.388	5072.48
693.578	5244.51
693.767	5148.25
693.956	5109.34
694.146	5037.66
694.335	5150.3
694.524	5088.86
694.713	5052
694.902	5146.2
695.092	5115.48
695.281	5219.93
695.47	5316.19
695.659	5209.69
695.848	5361.24
696.037	5277.27
696.226	5211.74
696.415	5121.63
696.604	5338.71
696.793	5181.02
696.982	5271.13
697.171	5293.66
697.36	5459.54
697.549	5170.78
697.738	5275.23
697.927	5264.99
698.116	5367.38
698.305	5254.75
698.494	5373.53
698.683	5256.79
698.872	5361.24
699.061	5430.87
699.25	5312.09
699.438	5391.96
699.627	5389.91
699.816	5344.86
700.005	5181.02
700.193	5355.1
700.382	5396.06
700.571	5420.63
700.76	5408.34
700.948	5305.95
701.137	5404.25
701.326	5445.21
701.514	5361.24
701.703	5398.1
701.892	5404.25
702.08	5713.49
702.269	5269.08
702.457	5385.82
702.646	5418.58
702.834	5307.99
703.023	5385.82
703.212	5527.13
703.4	5459.54
703.589	5303.9
703.777	5377.62
703.965	5338.71
704.154	5344.86
704.342	5447.26
704.531	5365.34
704.719	5299.8
704.907	5320.28
705.096	5330.52
705.284	5426.78
705.472	5439.06
705.661	5355.1
705.849	5422.68
706.037	5369.43
706.226	5336.67
706.414	5287.51
706.602	5310.04
706.79	5351
706.979	5303.9
707.167	5355.1
707.355	5252.7
707.543	5457.5
707.731	5484.12
707.919	5301.85
708.107	5191.26
708.296	5285.47
708.484	5109.34
708.672	5318.23
708.86	5412.44
709.048	5303.9
709.236	5373.53
709.424	5185.12
709.612	5303.9
709.8	5181.02
709.988	5332.57
710.176	5291.61
710.364	5346.91
710.551	5172.83
710.739	5115.48
710.927	5195.36
711.115	5162.59
711.303	5287.51
711.491	5373.53
711.679	5164.64
711.866	5205.6
712.054	5170.78
712.242	5174.88
712.43	5267.03
712.617	5283.42
712.805	5181.02
712.993	5164.64
713.181	5111.39
713.368	5273.18
713.556	5191.26
713.744	5103.2
713.931	5301.85
714.119	5307.99
714.306	5066.33
714.494	5049.95
714.682	5252.7
714.869	5062.24
715.057	5152.35
715.244	5138.01
715.432	5092.96
715.619	4978.27
715.807	5066.33
715.994	5066.33
716.182	5111.39
716.369	5008.99
716.556	5119.58
716.744	4843.1
716.931	5008.99
717.119	5119.58
717.306	4986.46
717.493	4988.51
717.681	4998.75
717.868	4931.17
718.055	5066.33
718.242	4978.27
718.43	5178.97
718.617	4908.64
718.804	4896.35
718.991	4947.55
719.179	4894.3
719.366	4789.86
719.553	4877.92
719.74	4798.05
719.927	4761.19
720.114	4781.67
720.301	4779.62
720.488	4709.99
720.676	4777.57
720.863	4945.5
721.05	4775.52
721.237	4810.34
721.424	4752.99
721.611	4777.57
721.798	4583.01
721.985	4685.41
722.172	4677.22
722.358	4687.46
722.545	4781.67
722.732	4675.17
722.919	4675.17
723.106	4550.25
723.293	4689.51
723.48	4703.84
723.667	4662.88
723.853	4574.82
724.04	4720.23
724.227	4652.64
724.414	4613.73
724.6	4671.08
724.787	4587.11
724.974	4634.21
725.161	4523.62
725.347	4376.17
725.534	4615.78
725.72	4574.82
725.907	4400.74
726.094	4531.81
726.28	4513.38
726.467	4402.79
726.653	4339.3
726.84	4372.07
727.027	4460.13
727.213	4443.75
727.4	4449.89
727.586	4474.47
727.773	4460.13
727.959	4429.42
728.145	4312.68
728.332	4423.27
728.518	4398.7
728.705	4406.89
728.891	4300.39
729.077	4288.11
729.264	4286.06
729.45	4396.65
729.636	4419.18
729.823	4318.82
730.009	4322.92
730.195	4300.39
730.382	4499.05
730.568	4241
730.754	4128.36
730.94	4046.44
731.126	4343.4
731.313	4214.38
731.499	4130.41
731.685	4249.19
731.871	4247.15
732.057	4005.49
732.243	4103.79
732.429	4036.21
732.615	4171.37
732.801	4116.08
732.987	4197.99
733.173	4034.16
733.359	4085.36
733.545	4034.16
733.731	4101.74
733.917	4062.83
734.103	4097.64
734.289	4023.92
734.475	3980.91
734.661	3933.81
734.847	3974.77
735.033	4081.26
735.219	3966.57
735.404	3989.1
735.59	3960.43
735.776	3974.77
735.962	3978.86
736.148	4001.39
736.333	3960.43
736.519	3829.36
736.705	3806.83
736.89	3683.95
737.076	3722.87
737.262	3759.73
737.447	3671.67
737.633	3739.25
737.819	3782.26
738.004	3595.89
738.19	3669.62
738.375	3821.17
738.561	3759.73
738.747	3686
738.932	3616.37
739.118	3731.06
739.303	3741.3
739.489	3632.76
739.674	3661.43
739.859	3589.75
740.045	3653.23
740.23	3595.89
740.416	3569.27
740.601	3544.69
740.786	3497.59
740.972	3542.64
741.157	3475.06
741.342	3288.7
741.528	3579.51
741.713	3440.25
741.898	3382.9
742.084	3352.18
742.269	3331.7
742.454	3317.37
742.639	3350.14
742.824	3397.24
743.01	3354.23
743.195	3325.56
743.38	3290.74
743.565	3217.02
743.75	3260.02
743.935	3292.79
744.12	3319.42
744.305	3161.72
744.49	3112.57
744.675	3163.77
744.86	3204.73
745.045	3229.31
745.23	3042.94
745.415	3143.29
745.6	3067.52
745.785	3124.86
745.97	3118.72
746.155	3219.07
746.34	3098.24
746.525	2977.41
746.71	3012.22
746.895	2965.12
747.079	2942.59
747.264	2932.35
747.449	2940.54
747.634	2961.02
747.819	2887.29
748.003	2920.06
748.188	2866.81
748.373	2870.91
748.557	2784.9
748.742	2920.06
748.927	2684.55
749.111	2854.53
749.296	2772.61
749.481	2780.8
749.665	2705.03
749.85	2590.34
750.034	2760.32
750.219	2619.01
750.404	2649.73
750.588	2547.33
750.773	2518.66
750.957	2662.02
751.141	2528.9
751.326	2604.67
751.51	2573.96
751.695	2500.23
751.879	2457.22
752.064	2512.52
752.248	2504.32
752.432	2512.52
752.617	2459.27
752.801	2418.31
752.985	2500.23
753.17	2457.22
753.354	2315.91
753.538	2436.74
753.722	2246.28
753.907	2332.3
754.091	2303.62
754.275	2252.42
754.459	2215.56
754.643	2270.86
754.828	2317.96
755.012	2240.14
755.196	2135.69
755.38	2162.31
755.564	2080.39
755.748	2205.32
755.932	2018.96
756.116	2037.39
756.3	2182.79
756.484	1971.85
756.668	2186.89
756.852	1920.65
757.036	2051.72
757.22	2037.39
757.404	1953.42
757.588	1967.76
757.772	1926.8
757.956	1922.7
758.14	2133.64
758.323	1914.51
758.507	1994.38
758.691	1904.27
758.875	1963.66
759.059	1975.95
759.242	2061.96
759.426	1914.51
759.61	1851.02
759.794	1830.54
759.977	1969.8
760.161	1953.42
760.345	1957.52
760.528	1834.64
760.712	1842.83
760.895	1748.62
761.079	1705.62
761.263	1783.44
761.446	1695.38
761.63	1891.98
761.813	1799.82
761.997	1875.6
762.18	1752.72
762.364	1693.33
762.547	1687.18
762.731	1803.92
762.914	1689.23
763.098	1617.55
763.281	1699.47
763.464	1724.05
763.648	1717.9
763.831	1574.55
764.015	1638.03
764.198	1642.13
764.381	1590.93
764.564	1574.55
764.748	1627.79
764.931	1599.12
765.114	1588.88
765.297	1683.09
765.481	1584.79
765.664	1650.32
765.847	1595.03
766.03	1656.47
766.213	1582.74
766.397	1515.16
766.58	1488.53
766.763	1635.99
766.946	1537.68
767.129	1482.39
767.312	1564.31
767.495	1408.66
767.678	1590.93
767.861	1441.43
768.044	1496.72
768.227	1498.77
768.41	1386.13
768.593	1537.68
768.776	1437.33
768.959	1420.95
769.142	1506.96
769.324	1466
769.507	1484.44
769.69	1472.15
769.873	1375.89
770.056	1468.05
770.239	1394.33
770.421	1439.38
770.604	1412.76
770.787	1363.61
770.97	1453.72
771.152	1449.62
771.335	1359.51
771.518	1382.04
771.7	1429.14
771.883	1332.89
772.066	1369.75
772.248	1279.64
772.431	1406.61
772.613	1361.56
772.796	1408.66
772.978	1445.52
773.161	1334.93
773.343	1339.03
773.526	1205.91
773.708	1248.92
773.891	1232.54
774.073	1248.92
774.256	1152.67
774.438	1334.93
774.621	1240.73
774.803	1285.78
774.985	1261.21
775.168	1253.02
775.35	1234.58
775.532	1306.26
775.715	1177.24
775.897	1285.78
776.079	1205.91
776.261	1265.3
776.444	1068.7
776.626	1207.96
776.808	1113.75
776.99	1101.47
777.173	1169.05
777.355	1160.86
777.537	1140.38
777.719	1097.37
777.901	1126.04
778.083	1027.74
778.265	1085.08
778.447	1091.23
778.629	1121.95
778.811	1101.47
778.993	1121.95
779.175	1115.8
779.357	1046.17
779.539	1001.12
779.721	1027.74
779.903	986.78
780.085	1095.32
780.267	1005.21
780.449	1064.6
780.631	956.06
780.812	943.77
780.994	968.35
781.176	1029.79
781.358	917.15
781.54	943.77
781.721	947.87
781.903	1005.21
782.085	892.57
782.267	931.48
782.448	904.86
782.63	872.09
782.812	939.68
782.993	919.2
783.175	857.76
783.357	820.89
783.538	841.37
783.72	851.61
783.901	833.18
784.083	919.2
784.264	765.6
784.446	865.95
784.627	779.93
784.809	812.7
784.99	693.92
785.172	796.32
785.353	673.44
785.535	761.5
785.716	781.98
785.897	771.74
786.079	677.54
786.26	698.02
786.441	738.98
786.623	706.21
786.804	655.01
786.985	712.35
787.167	741.02
787.348	693.92
787.529	708.26
787.71	833.18
787.891	712.35
788.073	708.26
788.254	630.43
788.435	745.12
788.616	702.11
788.797	566.95
788.978	700.06
789.159	663.2
789.34	568.99
789.522	655.01
789.703	650.91
789.884	677.54
790.065	609.95
790.246	585.38
790.427	575.14
790.607	634.53
790.788	593.57
790.969	601.76
791.15	538.27
791.331	589.47
791.512	573.09
791.693	550.56
791.874	562.85
792.054	720.54
792.235	599.71
792.416	564.9
792.597	648.86
792.778	607.91
792.958	472.74
793.139	454.31
793.32	575.14
793.5	517.79
793.681	609.95
793.862	560.8
794.042	521.89
794.223	437.92
794.404	433.83
794.584	503.46
794.765	456.36
794.945	470.69
795.126	523.94
795.306	470.69
795.487	534.18
795.667	454.31
795.848	509.6
796.028	562.85
796.209	470.69
796.389	556.71
796.57	435.88
796.75	450.21
796.93	439.97
797.111	472.74
797.291	466.6
797.471	478.88
797.652	503.46
797.832	392.87
798.012	460.45
798.192	456.36
798.373	421.54
798.553	384.68
798.733	388.77
798.913	370.34
799.093	429.73
799.274	462.5
799.454	487.08
799.634	489.12
799.814	378.53
799.994	456.36
800.174	464.55
800.354	407.2
800.534	364.2
800.714	388.77
800.894	366.25
801.074	347.81
801.254	394.92
801.434	464.55
801.614	351.91
801.794	341.67
801.974	1361.56
802.154	294.57
802.334	437.92
802.514	380.58
802.693	306.85
802.873	325.29
803.053	472.74
803.233	351.91
803.413	339.62
803.592	269.99
803.772	321.19
803.952	284.33
804.131	329.38
804.311	396.96
804.491	425.64
804.67	288.42
804.85	321.19
805.03	360.1
805.209	356.01
805.389	323.24
805.568	321.19
805.748	267.94
805.928	304.81
806.107	351.91
806.287	329.38
806.466	401.06
806.646	280.23
806.825	272.04
807.004	296.61
807.184	323.24
807.363	253.61
807.543	315.05
807.722	317.09
807.901	333.48
808.081	276.13
808.26	224.94
808.439	263.85
808.619	306.85
808.798	226.98
808.977	347.81
809.156	347.81
809.336	294.57
809.515	337.57
809.694	269.99
809.873	288.42
810.052	276.13
810.231	220.84
810.411	333.48
810.59	323.24
810.769	315.05
810.948	339.62
811.127	181.93
811.306	235.18
811.485	220.84
811.664	255.65
811.843	380.58
812.022	267.94
812.201	202.41
812.38	292.52
812.559	169.64
812.737	302.76
812.916	155.3
813.095	269.99
813.274	239.27
813.453	243.37
813.632	290.47
813.811	251.56
813.989	95.91
814.168	231.08
814.347	216.74
814.526	323.24
814.704	292.52
814.883	183.98
815.062	259.75
815.24	194.22
815.419	210.6
815.598	196.26
815.776	192.17
815.955	208.55
816.133	108.2
816.312	278.18
816.49	218.79
816.669	169.64
816.847	181.93
817.026	315.05
817.204	169.64
817.383	200.36
817.561	204.46
817.74	177.83
817.918	241.32
818.097	120.49
818.275	177.83
818.453	218.79
818.632	216.74
818.81	206.5
818.988	151.21
819.167	200.36
819.345	196.26
819.523	214.7
819.701	153.26
819.879	226.98
820.058	188.07
820.236	134.82
820.414	114.34
820.592	161.45
820.77	171.69
820.948	132.78
821.127	263.85
821.305	220.84
821.483	126.63
821.661	100.01
821.839	165.54
822.017	161.45
822.195	136.87
822.373	202.41
822.551	149.16
822.729	163.5
822.907	183.98
823.085	308.9
823.262	220.84
823.44	118.44
823.618	110.25
823.796	126.63
823.974	126.63
824.152	151.21
824.329	104.11
824.507	143.02
824.685	194.22
824.863	196.26
825.04	157.35
825.218	120.49
825.396	265.89
825.574	226.98
825.751	173.74
825.929	218.79
826.107	77.48
826.284	95.91
826.462	114.34
826.639	136.87
826.817	122.54
826.994	153.26
827.172	87.72
827.349	173.74
827.527	112.3
827.704	59.05
827.882	206.5
828.059	93.87
828.237	112.3
828.414	110.25
828.591	28.33
828.769	110.25
828.946	153.26
829.124	196.26
829.301	186.02
829.478	83.63
829.655	179.88
829.833	186.02
830.01	79.53
830.187	157.35
830.364	155.3
830.542	151.21
830.719	159.4
830.896	159.4
831.073	153.26
831.25	143.02
831.427	192.17
831.604	145.06
831.782	116.39
831.959	143.02
832.136	118.44
832.313	89.77
832.49	110.25
832.667	67.24
832.844	102.06
833.021	151.21
833.198	87.72
833.374	161.45
833.551	143.02
833.728	46.76
833.905	155.3
834.082	65.19
834.259	114.34
834.436	118.44
834.612	112.3
834.789	136.87
834.966	79.53
835.143	87.72
835.319	136.87
835.496	46.76
835.673	114.34
835.85	93.87
836.026	83.63
836.203	171.69
836.38	67.24
836.556	73.39
836.733	22.19
836.909	198.31
837.086	65.19
837.262	48.81
837.439	83.63
837.616	61.1
837.792	71.34
837.968	122.54
838.145	52.91
838.321	87.72
838.498	116.39
838.674	100.01
838.851	24.23
839.027	36.52
839.203	89.77
839.38	151.21
839.556	87.72
839.732	145.06
839.909	24.23
840.085	128.68
840.261	-2.39
840.437	73.39
840.614	22.19
840.79	173.74
840.966	179.88
841.142	44.71
841.318	65.19
841.494	128.68
841.671	100.01
841.847	26.28
842.023	69.29
842.199	87.72
842.375	153.26
842.551	13.99
842.727	11.95
842.903	118.44
843.079	-10.58
843.255	112.3
843.431	22.19
843.607	100.01
843.783	-39.25
843.959	85.67
844.134	32.43
844.31	100.01
844.486	134.82
844.662	46.76
844.838	-22.87
845.013	163.5
845.189	83.63
845.365	87.72
845.541	38.57
845.716	34.47
845.892	34.47
846.068	73.39
846.244	-4.44
846.419	38.57
846.595	52.91
846.77	38.57
846.946	22.19
847.122	-65.88
847.297	-0.34
847.473	67.24
847.648	-2.39
847.824	120.49
847.999	30.38
848.175	79.53
848.35	85.67
848.526	167.59
848.701	50.86
848.876	30.38
849.052	106.15
849.227	-18.77
849.403	87.72
849.578	32.43
849.753	79.53
849.929	52.91
850.104	46.76
850.279	48.81
850.454	126.63
850.63	157.35
850.805	42.67
850.98	61.1
851.155	-0.34
851.33	-37.2
851.505	7.85
851.681	120.49
851.856	30.38
852.031	46.76
852.206	46.76
852.381	65.19
852.556	50.86
852.731	22.19
852.906	30.38
853.081	46.76
853.256	81.58
853.431	5.8
853.606	26.28
853.781	50.86
853.956	-18.77
854.131	153.26
854.305	20.14
854.48	11.95
854.655	-6.49
854.83	48.81
855.005	73.39
855.18	50.86
855.354	-37.2
855.529	-2.39
855.704	-33.11
855.879	5.8
856.053	77.48
856.228	34.47
856.403	11.95
856.577	73.39
856.752	-22.87
856.926	16.04
857.101	32.43
857.276	-41.3
857.45	9.9
857.625	52.91
857.799	28.33
857.974	38.57
858.148	-69.97
858.323	38.57
858.497	67.24
858.672	-2.39
858.846	9.9
859.02	-6.49
859.195	-22.87
859.369	-49.49
859.543	100.01
859.718	77.48
859.892	73.39
860.066	22.19
860.241	-12.63
860.415	20.14
860.589	22.19
860.763	95.91
860.938	7.85
861.112	71.34
861.286	71.34
861.46	69.29
861.634	28.33
861.808	42.67
861.982	-33.11
862.157	24.23
862.331	-26.96
862.505	-47.44
862.679	-37.2
862.853	-49.49
863.027	57
863.201	106.15
863.375	20.14
863.549	102.06
863.722	67.24
863.896	83.63
864.07	40.62
864.244	-55.64
864.418	34.47
864.592	120.49
864.766	18.09
864.939	54.95
865.113	-18.77
865.287	77.48
865.461	13.99
865.634	1.71
865.808	24.23
865.982	38.57
866.156	-18.77
866.329	-39.25
866.503	-12.63
866.676	-6.49
866.85	28.33
867.024	-6.49
867.197	-20.82
867.371	40.62
867.544	48.81
867.718	-82.26
867.891	-12.63
868.065	44.71
868.238	-16.73
868.412	77.48
868.585	-2.39
868.759	61.1
868.932	40.62
869.105	-69.97
869.279	28.33
869.452	-39.25
869.625	22.19
869.799	77.48
869.972	-39.25
870.145	11.95
870.319	-16.73
870.492	-16.73
870.665	32.43
870.838	81.58
871.011	-31.06
871.185	-45.4
871.358	-2.39
871.531	24.23
871.704	54.95
871.877	-4.44
872.05	-33.11
872.223	13.99
872.396	40.62
872.569	46.76
872.742	-53.59
872.915	63.15
873.088	-53.59
873.261	28.33
873.434	79.53
873.607	13.99
873.78	69.29
873.953	-86.36
874.126	-14.68
874.299	34.47
874.471	-61.78
874.644	48.81
874.817	59.05
874.99	104.11
875.163	22.19
875.335	40.62
875.508	-53.59
875.681	38.57
875.853	-10.58
876.026	-12.63
876.199	46.76
876.371	26.28
876.544	-18.77
876.717	-0.34
876.889	-47.44
877.062	40.62
877.234	-63.83
877.407	-45.4
877.579	-2.39
877.752	-26.96
877.924	36.52
878.097	28.33
878.269	69.29
878.442	36.52
878.614	-0.34
878.786	-2.39
878.959	-2.39
879.131	65.19
879.303	-41.3
879.476	40.62
879.648	69.29
879.82	-43.35
879.993	-39.25
880.165	-41.3
880.337	-8.53
880.509	16.04
880.681	-53.59
880.854	-12.63
881.026	9.9
881.198	85.67
881.37	44.71
881.542	34.47
881.714	9.9
881.886	-47.44
882.058	-61.78
882.23	-80.21
882.402	-82.26
882.574	20.14
882.746	36.52
882.918	77.48
883.09	-18.77
883.262	36.52
883.434	73.39
883.606	-26.96
883.778	-4.44
883.95	132.78
884.122	59.05
884.293	42.67
884.465	34.47
884.637	16.04
884.809	18.09
884.98	3.75
885.152	22.19
885.324	34.47
885.496	-22.87
885.667	-55.64
885.839	-2.39
886.011	122.54
886.182	63.15
886.354	1.71
886.525	30.38
886.697	-20.82
886.869	-43.35
887.04	-0.34
887.212	95.91
887.383	69.29
887.555	26.28
887.726	-55.64
887.897	18.09
888.069	-4.44
888.24	52.91
888.412	46.76
888.583	34.47
888.754	-29.01
888.926	-55.64
889.097	57
889.268	-22.87
889.44	67.24
889.611	-0.34
889.782	-8.53
889.953	-20.82
890.125	89.77
890.296	-135.51
890.467	-26.96
890.638	-4.44
890.809	-35.16
890.98	9.9
891.151	5.8
891.323	57
891.494	-76.12
891.665	-76.12
891.836	20.14
892.007	-6.49
892.178	61.1
892.349	-8.53
892.52	11.95
892.691	36.52
892.862	-0.34
893.032	-51.54
893.203	30.38
893.374	9.9
893.545	69.29
893.716	22.19
893.887	36.52
894.057	-31.06
894.228	13.99
894.399	-14.68
894.57	32.43
894.74	-55.64
894.911	32.43
895.082	-72.02
895.253	-2.39
895.423	13.99
895.594	7.85
895.764	-10.58
895.935	-35.16
896.106	22.19
896.276	-98.64
896.447	42.67
896.617	44.71
896.788	3.75
896.958	-16.73
897.129	-37.2
897.299	52.91
897.47	3.75
897.64	-14.68
897.81	73.39
897.981	-0.34
898.151	-0.34
898.322	50.86
898.492	-39.25
898.662	-74.07
898.832	-29.01
899.003	-43.35
899.173	16.04
899.343	5.8
899.513	-20.82
