Data from USB4F104151__25__12-11-45-059.txt Node

Date: Fri Mar 14 12:11:45 EDT 2025
User: louis
Spectrometer: USB4F10415
Trigger mode: 4
Integration Time (sec): 5.000000E-2
Scans to average: 1
Electric dark correction enabled: true
Nonlinearity correction enabled: false
Boxcar width: 0
XAxis mode: Wavelengths
Number of Pixels in Spectrum: 3648
>>>>>Begin Spectral Data<<<<<
178.204	-183.81
178.424	-183.81
178.644	-183.81
178.864	-151.04
179.084	-212.48
179.304	-89.6
179.524	-34.3
179.744	-52.74
179.964	43.52
180.184	33.28
180.404	53.76
180.624	12.8
180.844	39.42
181.064	-46.59
181.283	-44.54
181.503	53.76
181.723	31.23
181.943	-13.82
182.163	156.16
182.383	20.99
182.602	80.38
182.822	107.01
183.042	-1.54
183.262	27.14
183.482	41.47
183.701	-26.11
183.921	-15.87
184.141	-1.54
184.361	115.2
184.58	64
184.8	41.47
185.02	-30.21
185.239	57.86
185.459	156.16
185.679	43.52
185.898	-71.17
186.118	57.86
186.338	61.95
186.557	94.72
186.777	-52.74
186.997	113.15
187.216	18.94
187.436	139.77
187.655	57.86
187.875	-7.68
188.095	-3.58
188.314	68.09
188.534	64
188.753	-32.26
188.973	78.33
189.192	80.38
189.412	55.81
189.631	64
189.851	33.28
190.07	131.58
190.29	43.52
190.509	82.43
190.729	12.8
190.948	113.15
191.168	233.98
191.387	84.48
191.607	14.85
191.826	59.9
192.045	-15.87
192.265	57.86
192.484	10.75
192.704	51.71
192.923	-28.16
193.142	115.2
193.362	117.25
193.581	111.1
193.8	33.28
194.02	74.24
194.239	-19.97
194.458	104.96
194.678	39.42
194.897	2.56
195.116	18.94
195.335	-9.73
195.555	47.62
195.774	53.76
195.993	80.38
196.212	51.71
196.432	64
196.651	100.86
196.87	33.28
197.089	168.45
197.308	100.86
197.528	111.1
197.747	-42.5
197.966	94.72
198.185	133.63
198.404	98.81
198.623	66.05
198.842	98.81
199.062	133.63
199.281	188.93
199.5	49.66
199.719	45.57
199.938	25.09
200.157	88.57
200.376	68.09
200.595	57.86
200.814	84.48
201.033	33.28
201.252	98.81
201.471	55.81
201.69	129.53
201.909	33.28
202.128	61.95
202.347	25.09
202.566	37.38
202.785	37.38
203.004	78.33
203.223	180.73
203.442	35.33
203.661	72.19
203.879	0.51
204.098	127.49
204.317	-32.26
204.536	100.86
204.755	121.34
204.974	39.42
205.193	90.62
205.411	98.81
205.63	39.42
205.849	49.66
206.068	43.52
206.287	61.95
206.505	-3.58
206.724	31.23
206.943	-24.06
207.162	4.61
207.381	100.86
207.599	92.67
207.818	41.47
208.037	-5.63
208.255	74.24
208.474	0.51
208.693	55.81
208.911	45.57
209.13	41.47
209.349	0.51
209.567	100.86
209.786	82.43
210.005	90.62
210.223	6.66
210.442	49.66
210.661	121.34
210.879	59.9
211.098	-13.82
211.316	4.61
211.535	125.44
211.753	18.94
211.972	8.7
212.191	-1.54
212.409	51.71
212.628	45.57
212.846	-13.82
213.065	16.9
213.283	78.33
213.502	37.38
213.72	-3.58
213.938	74.24
214.157	33.28
214.375	25.09
214.594	-34.3
214.812	59.9
215.031	25.09
215.249	94.72
215.467	78.33
215.686	23.04
215.904	115.2
216.122	43.52
216.341	94.72
216.559	66.05
216.778	111.1
216.996	127.49
217.214	0.51
217.432	47.62
217.651	-32.26
217.869	43.52
218.087	127.49
218.306	37.38
218.524	102.91
218.742	55.81
218.96	61.95
219.179	-28.16
219.397	57.86
219.615	115.2
219.833	51.71
220.051	-9.73
220.27	51.71
220.488	109.05
220.706	102.91
220.924	47.62
221.142	14.85
221.36	143.87
221.578	-24.06
221.796	-24.06
222.015	12.8
222.233	14.85
222.451	156.16
222.669	-52.74
222.887	-13.82
223.105	29.18
223.323	43.52
223.541	-17.92
223.759	25.09
223.977	76.29
224.195	162.3
224.413	31.23
224.631	76.29
224.849	27.14
225.067	109.05
225.285	53.76
225.503	37.38
225.721	-56.83
225.939	-13.82
226.157	61.95
226.375	219.64
226.592	-34.3
226.81	10.75
227.028	78.33
227.246	135.68
227.464	35.33
227.682	84.48
227.9	92.67
228.117	59.9
228.335	76.29
228.553	39.42
228.771	43.52
228.989	92.67
229.206	61.95
229.424	72.19
229.642	43.52
229.86	8.7
230.077	92.67
230.295	29.18
230.513	-7.68
230.731	43.52
230.948	98.81
231.166	92.67
231.384	18.94
231.601	76.29
231.819	78.33
232.037	80.38
232.254	-24.06
232.472	82.43
232.689	-17.92
232.907	43.52
233.125	57.86
233.342	33.28
233.56	-5.63
233.777	16.9
233.995	43.52
234.213	45.57
234.43	166.4
234.648	23.04
234.865	-54.78
235.083	98.81
235.3	16.9
235.518	66.05
235.735	178.69
235.953	150.01
236.17	16.9
236.388	70.14
236.605	100.86
236.822	98.81
237.04	117.25
237.257	80.38
237.475	-24.06
237.692	-5.63
237.909	59.9
238.127	16.9
238.344	37.38
238.562	127.49
238.779	57.86
238.996	-32.26
239.214	37.38
239.431	8.7
239.648	96.77
239.865	59.9
240.083	39.42
240.3	82.43
240.517	41.47
240.735	2.56
240.952	135.68
241.169	98.81
241.386	14.85
241.603	59.9
241.821	59.9
242.038	139.77
242.255	47.62
242.472	-118.27
242.689	66.05
242.907	82.43
243.124	39.42
243.341	25.09
243.558	-52.74
243.775	12.8
243.992	8.7
244.209	59.9
244.426	139.77
244.643	41.47
244.86	82.43
245.078	90.62
245.295	88.57
245.512	57.86
245.729	-42.5
245.946	78.33
246.163	76.29
246.38	31.23
246.597	2.56
246.814	12.8
247.031	74.24
247.248	125.44
247.464	129.53
247.681	66.05
247.898	78.33
248.115	51.71
248.332	23.04
248.549	49.66
248.766	92.67
248.983	131.58
249.2	64
249.417	41.47
249.633	-1.54
249.85	72.19
250.067	51.71
250.284	-34.3
250.501	70.14
250.717	82.43
250.934	18.94
251.151	31.23
251.368	2.56
251.585	68.09
251.801	57.86
252.018	-13.82
252.235	-3.58
252.451	61.95
252.668	-19.97
252.885	51.71
253.102	121.34
253.318	68.09
253.535	39.42
253.752	35.33
253.968	14.85
254.185	20.99
254.401	47.62
254.618	45.57
254.835	49.66
255.051	119.29
255.268	43.52
255.484	51.71
255.701	76.29
255.917	20.99
256.134	80.38
256.351	31.23
256.567	53.76
256.784	29.18
257	-9.73
257.217	49.66
257.433	64
257.65	88.57
257.866	113.15
258.082	-36.35
258.299	-54.78
258.515	127.49
258.732	-28.16
258.948	2.56
259.165	16.9
259.381	-30.21
259.597	8.7
259.814	-15.87
260.03	39.42
260.246	-17.92
260.463	123.39
260.679	117.25
260.895	-15.87
261.112	35.33
261.328	43.52
261.544	14.85
261.761	174.59
261.977	35.33
262.193	-13.82
262.409	78.33
262.626	-3.58
262.842	59.9
263.058	2.56
263.274	61.95
263.49	94.72
263.707	76.29
263.923	39.42
264.139	-24.06
264.355	35.33
264.571	49.66
264.787	68.09
265.004	129.53
265.22	43.52
265.436	16.9
265.652	20.99
265.868	147.97
266.084	10.75
266.3	68.09
266.516	-24.06
266.732	61.95
266.948	35.33
267.164	66.05
267.38	-17.92
267.596	61.95
267.812	127.49
268.028	104.96
268.244	0.51
268.46	76.29
268.676	80.38
268.892	82.43
269.108	45.57
269.324	94.72
269.54	29.18
269.756	90.62
269.972	-9.73
270.188	74.24
270.403	-40.45
270.619	25.09
270.835	98.81
271.051	18.94
271.267	6.66
271.483	14.85
271.698	14.85
271.914	53.76
272.13	45.57
272.346	49.66
272.562	90.62
272.777	49.66
272.993	86.53
273.209	-42.5
273.425	72.19
273.64	18.94
273.856	86.53
274.072	49.66
274.287	20.99
274.503	127.49
274.719	90.62
274.934	100.86
275.15	-13.82
275.366	74.24
275.581	59.9
275.797	29.18
276.012	115.2
276.228	12.8
276.444	41.47
276.659	92.67
276.875	27.14
277.09	23.04
277.306	25.09
277.521	131.58
277.737	35.33
277.952	41.47
278.168	94.72
278.383	74.24
278.599	76.29
278.814	96.77
279.03	74.24
279.245	4.61
279.461	-19.97
279.676	18.94
279.892	-36.35
280.107	68.09
280.322	2.56
280.538	59.9
280.753	-26.11
280.969	68.09
281.184	-7.68
281.399	78.33
281.615	57.86
281.83	96.77
282.045	-5.63
282.26	59.9
282.476	59.9
282.691	82.43
282.906	8.7
283.122	88.57
283.337	-24.06
283.552	90.62
283.767	8.7
283.983	88.57
284.198	4.61
284.413	-19.97
284.628	-9.73
284.843	107.01
285.058	84.48
285.274	94.72
285.489	70.14
285.704	72.19
285.919	-11.78
286.134	16.9
286.349	51.71
286.564	35.33
286.779	31.23
286.995	14.85
287.21	37.38
287.425	14.85
287.64	102.91
287.855	23.04
288.07	31.23
288.285	78.33
288.5	37.38
288.715	111.1
288.93	-5.63
289.145	35.33
289.36	90.62
289.575	45.57
289.79	39.42
290.004	49.66
290.219	-7.68
290.434	43.52
290.649	59.9
290.864	27.14
291.079	98.81
291.294	78.33
291.509	66.05
291.724	45.57
291.938	41.47
292.153	43.52
292.368	27.14
292.583	88.57
292.798	107.01
293.012	78.33
293.227	53.76
293.442	49.66
293.657	41.47
293.871	127.49
294.086	80.38
294.301	129.53
294.516	78.33
294.73	125.44
294.945	35.33
295.16	55.81
295.374	66.05
295.589	133.63
295.804	-40.45
296.018	76.29
296.233	121.34
296.447	98.81
296.662	47.62
296.877	72.19
297.091	51.71
297.306	68.09
297.52	143.87
297.735	2.56
297.949	86.53
298.164	129.53
298.378	72.19
298.593	-34.3
298.807	-19.97
299.022	41.47
299.236	64
299.451	4.61
299.665	80.38
299.88	-22.02
300.094	35.33
300.309	61.95
300.523	33.28
300.737	8.7
300.952	90.62
301.166	35.33
301.381	-54.78
301.595	45.57
301.809	98.81
302.024	39.42
302.238	18.94
302.452	41.47
302.667	25.09
302.881	113.15
303.095	94.72
303.309	53.76
303.524	-5.63
303.738	47.62
303.952	59.9
304.166	76.29
304.381	-38.4
304.595	57.86
304.809	-17.92
305.023	49.66
305.237	-28.16
305.452	-52.74
305.666	35.33
305.88	59.9
306.094	90.62
306.308	-3.58
306.522	-19.97
306.736	41.47
306.95	84.48
307.164	51.71
307.379	90.62
307.593	84.48
307.807	88.57
308.021	33.28
308.235	49.66
308.449	47.62
308.663	68.09
308.877	162.3
309.091	14.85
309.305	27.14
309.519	0.51
309.733	111.1
309.947	-5.63
310.161	92.67
310.374	129.53
310.588	25.09
310.802	-5.63
311.016	117.25
311.23	64
311.444	68.09
311.658	-22.02
311.872	145.92
312.085	43.52
312.299	64
312.513	143.87
312.727	64
312.941	68.09
313.154	53.76
313.368	47.62
313.582	25.09
313.796	35.33
314.009	29.18
314.223	127.49
314.437	102.91
314.651	92.67
314.864	16.9
315.078	-19.97
315.292	76.29
315.505	51.71
315.719	64
315.933	41.47
316.146	-40.45
316.36	29.18
316.573	51.71
316.787	199.16
317.001	137.73
317.214	-5.63
317.428	86.53
317.641	43.52
317.855	-17.92
318.068	64
318.282	51.71
318.495	92.67
318.709	49.66
318.922	55.81
319.136	147.97
319.349	20.99
319.563	68.09
319.776	137.73
319.99	41.47
320.203	147.97
320.417	64
320.63	57.86
320.843	121.34
321.057	18.94
321.27	57.86
321.483	53.76
321.697	61.95
321.91	107.01
322.124	131.58
322.337	68.09
322.55	125.44
322.763	43.52
322.977	-1.54
323.19	-7.68
323.403	123.39
323.617	43.52
323.83	104.96
324.043	-15.87
324.256	100.86
324.469	37.38
324.683	-11.78
324.896	16.9
325.109	104.96
325.322	-54.78
325.535	72.19
325.748	86.53
325.962	90.62
326.175	80.38
326.388	-9.73
326.601	72.19
326.814	57.86
327.027	64
327.24	113.15
327.453	14.85
327.666	135.68
327.879	131.58
328.092	55.81
328.305	61.95
328.518	57.86
328.731	25.09
328.944	18.94
329.157	-30.21
329.37	-3.58
329.583	125.44
329.796	178.69
330.009	-54.78
330.222	20.99
330.435	53.76
330.648	117.25
330.861	61.95
331.073	86.53
331.286	104.96
331.499	111.1
331.712	76.29
331.925	129.53
332.138	107.01
332.35	27.14
332.563	66.05
332.776	-15.87
332.989	45.57
333.202	68.09
333.414	31.23
333.627	72.19
333.84	80.38
334.053	76.29
334.265	-32.26
334.478	-11.78
334.691	94.72
334.903	6.66
335.116	23.04
335.329	29.18
335.541	66.05
335.754	86.53
335.966	51.71
336.179	57.86
336.392	94.72
336.604	33.28
336.817	64
337.029	135.68
337.242	96.77
337.454	137.73
337.667	-13.82
337.88	84.48
338.092	43.52
338.305	66.05
338.517	55.81
338.729	90.62
338.942	107.01
339.154	18.94
339.367	55.81
339.579	78.33
339.792	6.66
340.004	80.38
340.217	90.62
340.429	66.05
340.641	10.75
340.854	37.38
341.066	57.86
341.278	90.62
341.491	147.97
341.703	43.52
341.915	-13.82
342.128	64
342.34	16.9
342.552	20.99
342.764	10.75
342.977	57.86
343.189	107.01
343.401	100.86
343.613	39.42
343.826	84.48
344.038	94.72
344.25	74.24
344.462	41.47
344.674	18.94
344.886	107.01
345.099	74.24
345.311	94.72
345.523	82.43
345.735	29.18
345.947	59.9
346.159	61.95
346.371	12.8
346.583	74.24
346.795	166.4
347.007	66.05
347.219	61.95
347.431	37.38
347.643	78.33
347.855	-77.31
348.067	55.81
348.279	-5.63
348.491	10.75
348.703	-13.82
348.915	6.66
349.127	27.14
349.339	61.95
349.551	68.09
349.763	107.01
349.975	55.81
350.187	86.53
350.399	145.92
350.61	49.66
350.822	90.62
351.034	72.19
351.246	4.61
351.458	78.33
351.669	78.33
351.881	115.2
352.093	35.33
352.305	115.2
352.517	31.23
352.728	47.62
352.94	35.33
353.152	147.97
353.363	66.05
353.575	111.1
353.787	121.34
353.999	109.05
354.21	139.77
354.422	57.86
354.633	53.76
354.845	25.09
355.057	37.38
355.268	68.09
355.48	104.96
355.692	10.75
355.903	47.62
356.115	23.04
356.326	-40.45
356.538	68.09
356.749	84.48
356.961	76.29
357.172	66.05
357.384	66.05
357.595	96.77
357.807	74.24
358.018	16.9
358.23	41.47
358.441	113.15
358.653	141.82
358.864	41.47
359.075	-22.02
359.287	-3.58
359.498	66.05
359.709	55.81
359.921	53.76
360.132	84.48
360.344	45.57
360.555	59.9
360.766	109.05
360.977	53.76
361.189	61.95
361.4	16.9
361.611	94.72
361.823	164.35
362.034	131.58
362.245	-30.21
362.456	55.81
362.667	92.67
362.879	25.09
363.09	51.71
363.301	2.56
363.512	-15.87
363.723	31.23
363.935	68.09
364.146	117.25
364.357	33.28
364.568	107.01
364.779	29.18
364.99	125.44
365.201	119.29
365.412	76.29
365.623	-42.5
365.834	82.43
366.045	12.8
366.256	164.35
366.467	66.05
366.678	61.95
366.889	64
367.1	90.62
367.311	51.71
367.522	14.85
367.733	127.49
367.944	41.47
368.155	107.01
368.366	-46.59
368.577	90.62
368.788	84.48
368.999	-1.54
369.209	16.9
369.42	201.21
369.631	266.75
369.842	84.48
370.053	66.05
370.264	100.86
370.474	8.7
370.685	23.04
370.896	10.75
371.107	137.73
371.317	70.14
371.528	72.19
371.739	68.09
371.95	88.57
372.16	84.48
372.371	41.47
372.582	33.28
372.792	107.01
373.003	27.14
373.214	39.42
373.424	66.05
373.635	18.94
373.846	100.86
374.056	47.62
374.267	23.04
374.477	47.62
374.688	43.52
374.898	43.52
375.109	43.52
375.319	133.63
375.53	31.23
375.74	143.87
375.951	53.76
376.161	57.86
376.372	90.62
376.582	-24.06
376.793	88.57
377.003	61.95
377.214	109.05
377.424	45.57
377.635	70.14
377.845	51.71
378.055	119.29
378.266	37.38
378.476	37.38
378.686	92.67
378.897	-7.68
379.107	55.81
379.317	29.18
379.528	-3.58
379.738	68.09
379.948	0.51
380.158	139.77
380.369	6.66
380.579	84.48
380.789	117.25
380.999	70.14
381.21	80.38
381.42	113.15
381.63	12.8
381.84	92.67
382.05	64
382.261	119.29
382.471	143.87
382.681	82.43
382.891	186.88
383.101	90.62
383.311	59.9
383.521	68.09
383.731	133.63
383.941	102.91
384.151	-15.87
384.361	64
384.571	139.77
384.781	88.57
384.991	96.77
385.201	64
385.411	98.81
385.621	92.67
385.831	82.43
386.041	78.33
386.251	45.57
386.461	121.34
386.671	68.09
386.881	72.19
387.091	94.72
387.301	147.97
387.511	86.53
387.72	137.73
387.93	154.11
388.14	29.18
388.35	92.67
388.56	135.68
388.769	68.09
388.979	53.76
389.189	43.52
389.399	76.29
389.609	92.67
389.818	12.8
390.028	51.71
390.238	68.09
390.447	33.28
390.657	31.23
390.867	74.24
391.076	-22.02
391.286	16.9
391.496	129.53
391.705	90.62
391.915	125.44
392.125	178.69
392.334	109.05
392.544	158.21
392.753	41.47
392.963	51.71
393.172	137.73
393.382	8.7
393.591	158.21
393.801	72.19
394.01	123.39
394.22	164.35
394.429	12.8
394.639	55.81
394.848	139.77
395.058	51.71
395.267	115.2
395.477	80.38
395.686	49.66
395.895	164.35
396.105	168.45
396.314	145.92
396.524	31.23
396.733	41.47
396.942	80.38
397.152	164.35
397.361	72.19
397.57	121.34
397.78	55.81
397.989	107.01
398.198	207.36
398.407	84.48
398.617	100.86
398.826	92.67
399.035	143.87
399.244	162.3
399.453	113.15
399.663	131.58
399.872	182.78
400.081	74.24
400.29	107.01
400.499	72.19
400.708	158.21
400.917	131.58
401.127	61.95
401.336	94.72
401.545	143.87
401.754	258.56
401.963	174.59
402.172	94.72
402.381	119.29
402.59	205.31
402.799	188.93
403.008	168.45
403.217	125.44
403.426	160.25
403.635	141.82
403.844	168.45
404.053	160.25
404.262	164.35
404.471	264.7
404.68	186.88
404.888	88.57
405.097	127.49
405.306	137.73
405.515	227.84
405.724	258.56
405.933	231.93
406.142	131.58
406.35	201.21
406.559	186.88
406.768	193.02
406.977	289.28
407.185	223.74
407.394	225.79
407.603	195.07
407.812	205.31
408.02	215.55
408.229	193.02
408.438	221.69
408.646	238.08
408.855	197.12
409.064	231.93
409.272	305.66
409.481	283.13
409.69	291.32
409.898	326.14
410.107	309.76
410.315	410.11
410.524	356.86
410.733	328.19
410.941	315.9
411.15	373.24
411.358	412.15
411.567	461.3
411.775	469.5
411.984	356.86
412.192	453.11
412.401	477.69
412.609	575.99
412.818	535.03
413.026	522.74
413.234	526.84
413.443	473.59
413.651	547.32
413.86	512.5
414.068	715.25
414.276	739.83
414.485	582.14
414.693	764.4
414.901	688.63
415.11	758.26
415.318	711.16
415.526	782.84
415.734	690.68
415.943	831.99
416.151	788.98
416.359	883.19
416.567	918
416.776	918
416.984	913.91
417.192	1057.26
417.4	1094.13
417.608	928.24
417.817	1192.43
418.025	1194.48
418.233	1335.79
418.441	1077.74
418.649	1225.2
418.857	1327.6
419.065	1354.22
419.273	1303.02
419.481	1358.32
419.689	1475.05
419.897	1524.2
420.105	1569.26
420.313	1708.52
420.521	1591.78
420.729	1675.75
420.937	1571.3
421.145	1626.6
421.353	1905.12
421.561	2048.48
421.769	1995.23
421.977	2034.14
422.185	2095.58
422.393	2220.51
422.601	2306.52
422.809	2165.21
423.017	2425.31
423.224	2554.33
423.432	2468.31
423.64	2570.71
423.848	2798.04
424.056	2605.53
424.263	2886.1
424.471	2851.28
424.679	2970.07
424.887	3066.32
425.094	3262.93
425.302	3209.68
425.51	3387.85
425.718	3447.24
425.925	3437
426.133	3566.03
426.341	3736.01
426.548	3924.42
426.756	3940.8
426.964	3969.48
427.171	4227.52
427.379	4213.18
427.586	4458.94
427.794	4516.28
428.001	4792.76
428.209	4968.88
428.417	4913.59
428.624	5153.2
428.832	5190.06
429.039	5245.36
429.247	5132.72
429.454	5669.29
429.662	6050.21
429.869	5720.49
430.076	6154.66
430.284	5966.24
430.491	6246.82
430.699	6644.12
430.906	6576.54
431.114	6672.79
431.321	6838.68
431.528	6951.32
431.736	7623.05
431.943	7887.24
432.15	7518.61
432.358	7674.25
432.565	8198.53
432.772	7942.53
432.979	8452.48
433.187	8651.13
433.394	8612.22
433.601	9167.22
433.808	9056.63
434.016	9173.36
434.223	9544.05
434.43	10170.72
434.637	10035.56
434.844	10535.26
435.052	10877.27
435.259	10725.72
435.466	10809.69
435.673	10705.24
435.88	11297.11
436.087	11983.18
436.294	11964.75
436.501	11743.56
436.708	11934.03
436.915	12185.93
437.122	12923.19
437.329	12656.96
437.537	13021.5
437.743	13437.23
437.95	13408.56
438.157	13883.69
438.364	14508.32
438.571	14557.47
438.778	14731.55
438.985	15911.18
439.192	15434
439.399	15595.79
439.606	15431.96
439.813	16218.38
440.02	17524.98
440.227	17006.84
440.433	16849.15
440.64	17275.13
440.847	17352.95
441.054	17469.69
441.261	18710.75
441.467	18569.44
441.674	18632.93
441.881	19800.27
442.088	19321.05
442.294	19704.02
442.501	19886.29
442.708	20539.59
442.914	21006.53
443.121	22036.66
443.328	21414.07
443.534	22904.99
443.741	22266.03
443.948	21631.16
444.154	23582.87
444.361	23445.66
444.568	23773.33
444.774	23548.06
444.981	23847.06
445.187	24705.16
445.394	25532.54
445.6	25337.98
445.807	27750.49
446.013	26591.34
446.22	26949.73
446.426	28121.17
446.633	28043.35
446.839	29222.98
447.046	28096.6
447.252	29710.39
447.459	29444.16
447.665	29222.98
447.871	30756.91
448.078	32311.31
448.284	30320.69
448.491	31211.56
448.697	32411.67
448.903	33476.61
449.11	33581.06
449.316	32331.79
449.522	32962.57
449.728	34109.43
449.935	34156.53
450.141	34281.46
450.347	34920.43
450.553	33830.91
450.76	34629.62
450.966	35258.34
451.172	34781.17
451.378	35692.51
451.584	34742.25
451.791	36114.39
451.997	36141.02
452.203	36642.77
452.409	36857.81
452.615	36327.38
452.821	34897.9
453.027	34174.97
453.233	36501.46
453.44	35051.5
453.646	35344.36
453.852	35368.93
454.058	36112.34
454.264	35012.59
454.47	35809.25
454.676	34734.06
454.882	35958.75
455.088	33204.23
455.294	33292.29
455.5	33927.16
455.705	34017.27
455.911	32438.29
456.117	32069.65
456.323	31645.73
456.529	29993.01
456.735	31017
456.941	30715.95
457.147	29818.94
457.352	29134.92
457.558	29065.28
457.764	28715.08
457.97	28006.48
458.176	27408.48
458.381	27545.69
458.587	25942.13
458.793	26366.06
458.999	24803.46
459.204	26466.41
459.41	26028.15
459.616	24123.54
459.821	24213.65
460.027	23885.97
460.233	23308.44
460.438	22094
460.644	22653.09
460.85	21385.4
461.055	21135.55
461.261	21133.5
461.466	19724.5
461.672	19183.84
461.878	20349.13
462.083	18948.32
462.289	18704.61
462.494	18438.37
462.7	17684.72
462.905	17094.91
463.111	17830.13
463.316	17993.97
463.522	17424.63
463.727	17639.67
463.932	17361.14
464.138	17105.15
464.343	17139.96
464.549	16601.35
464.754	17426.68
464.959	17133.82
465.165	17049.85
465.37	16326.92
465.575	15907.09
465.781	16507.14
465.986	16593.15
466.191	16025.87
466.397	15616.27
466.602	15089.95
466.807	15710.48
467.012	15614.23
467.218	15520.02
467.423	15253.78
467.628	15415.57
467.833	15905.04
468.038	15239.45
468.244	14852.38
468.449	15503.64
468.654	14778.65
468.859	14905.63
469.064	14811.42
469.269	14446.88
469.474	14336.29
469.679	14649.63
469.885	14143.78
470.09	14379.3
470.295	14211.37
470.5	13906.22
470.705	14240.04
470.91	13658.42
471.115	13543.73
471.32	13740.33
471.525	13740.33
471.73	13603.12
471.935	13025.59
472.139	12714.3
472.344	13062.46
472.549	12689.73
472.754	12937.53
472.959	12290.37
473.164	12081.48
473.369	12159.3
473.574	12677.44
473.778	12255.56
473.983	12046.66
474.188	12149.06
474.393	11497.81
474.598	11585.87
474.802	11446.61
475.007	11567.44
475.212	11702.61
475.417	11073.88
475.621	11069.78
475.826	11125.08
476.031	10660.19
476.235	10735.96
476.44	11020.63
476.645	10637.66
476.849	10477.92
477.054	10490.21
477.259	10260.84
477.463	10406.24
477.668	10281.32
477.872	10099.05
478.077	9931.11
478.282	9625.97
478.486	9812.33
478.691	9566.57
478.895	9490.8
479.1	9548.14
479.304	9697.64
479.509	9326.96
479.713	9505.13
479.918	9322.87
480.122	8982.9
480.326	9130.36
480.531	9251.19
480.735	9097.59
480.94	8880.5
481.144	9277.81
481.348	8778.11
481.553	8917.37
481.757	8855.93
481.961	9085.3
482.166	9042.29
482.37	8884.6
482.574	8745.34
482.778	8657.28
482.983	9021.81
483.187	8997.24
483.391	9030.01
483.595	8814.97
483.8	8757.63
484.004	8794.49
484.208	9130.36
484.412	8655.23
484.616	9111.92
484.821	8769.91
485.025	8784.25
485.229	8896.89
485.433	8714.62
485.637	8884.6
485.841	8698.24
486.045	8759.67
486.249	8937.85
486.453	8900.98
486.657	8905.08
486.861	8825.21
487.065	8642.94
487.269	8528.25
487.473	8604.03
487.677	8911.22
487.881	9046.39
488.085	8716.67
488.289	8747.39
488.493	8747.39
488.697	8808.83
488.901	8997.24
489.105	8722.81
489.309	8819.07
489.512	9007.48
489.716	8954.23
489.92	8948.09
490.124	8790.39
490.328	9027.96
490.531	8823.16
490.735	9101.69
490.939	8925.56
491.143	9054.58
491.346	9187.7
491.55	9267.57
491.754	9195.89
491.958	9234.8
492.161	9077.11
492.365	9242.99
492.569	9048.44
492.772	9269.62
492.976	9447.79
493.18	9027.96
493.383	9548.14
493.587	9406.83
493.79	9652.59
493.994	9410.93
494.197	9511.28
494.401	9857.39
494.605	9711.98
494.808	9820.52
495.012	9941.35
495.215	9791.85
495.419	9904.49
495.622	9834.86
495.825	10234.21
496.029	10150.25
496.232	10334.56
496.436	10363.23
496.639	10637.66
496.843	10457.44
497.046	10715.48
497.249	10805.6
497.453	10711.39
497.656	10938.71
497.859	10813.79
498.063	11207
498.266	11295.06
498.469	11252.05
498.673	11460.95
498.876	11514.19
499.079	11757.9
499.282	11665.74
499.485	12144.97
499.689	11970.89
499.892	12040.52
500.095	12136.77
500.298	12572.99
500.501	12321.09
500.705	12683.58
500.908	12740.93
501.111	12702.01
501.314	12919.1
501.517	13248.82
501.72	13209.91
501.923	13396.28
502.126	13635.89
502.329	13562.16
502.532	13723.95
502.735	13912.36
502.938	14084.39
503.141	14090.54
503.344	14401.83
503.547	14432.55
503.75	14524.71
503.953	14850.33
504.156	15159.58
504.359	15270.17
504.562	14922.01
504.765	15685.9
504.968	15671.57
505.17	15675.66
505.373	16085.26
505.576	16138.51
505.779	16412.93
505.982	16558.34
506.185	16673.03
506.387	16701.7
506.59	16820.48
506.793	17283.32
506.996	16974.08
507.198	17844.46
507.401	17393.91
507.604	17551.6
507.807	17934.57
508.009	17776.88
508.212	18129.13
508.415	18577.64
508.617	18669.8
508.82	18610.4
509.022	18483.43
509.225	19060.96
509.428	19173.6
509.63	19249.37
509.833	19335.38
510.035	19937.49
510.238	19859.66
510.44	20086.99
510.643	20222.16
510.845	20267.21
511.048	20353.23
511.25	20875.46
511.453	20668.61
511.655	21612.73
511.858	21260.48
512.06	21459.13
512.262	21813.43
512.465	21526.71
512.667	21799.09
512.87	22157.49
513.072	22331.56
513.274	22605.99
513.477	22409.39
513.679	22646.95
513.881	23146.65
514.084	23218.33
514.286	23167.13
514.488	23629.98
514.69	23791.76
514.893	23910.55
515.095	23822.48
515.297	24164.5
515.499	24336.52
515.701	24283.28
515.904	25100.42
516.106	25065.6
516.308	25237.63
516.51	25569.4
516.712	25292.93
516.914	25804.92
517.116	26097.78
517.318	26138.74
517.52	26425.45
517.722	26321.01
517.925	26794.09
518.127	26869.86
518.329	27197.54
518.531	26943.59
518.733	27521.12
518.935	27560.03
519.136	27572.32
519.338	28100.69
519.54	28182.61
519.742	28330.06
519.944	28221.52
520.146	28596.3
520.348	28743.75
520.55	28895.3
520.752	28872.78
520.954	29401.15
521.155	29313.09
521.357	29413.44
521.559	29892.66
521.761	30009.4
521.963	29935.67
522.164	30234.67
522.366	30142.52
522.568	30648.36
522.77	30806.06
522.971	31021.09
523.173	30566.45
523.375	31023.14
523.576	30961.7
523.778	31229.99
523.98	31406.11
524.181	31445.02
524.383	31825.95
524.584	31891.48
524.786	31993.88
524.988	32000.02
525.189	31920.15
525.391	32354.32
525.592	32692.24
525.794	32354.32
525.995	32561.17
526.197	32454.67
526.398	32614.41
526.6	32354.32
526.801	32966.66
527.003	32858.12
527.204	32950.28
527.406	32993.29
527.607	33177.61
527.808	33105.93
528.01	32813.07
528.211	33173.51
528.412	33931.26
528.614	33572.86
528.815	33390.59
529.016	33542.14
529.218	33404.93
529.419	33611.78
529.62	33200.13
529.822	33341.44
530.023	33460.23
530.224	33417.22
530.425	33519.62
530.626	33576.96
530.828	33142.79
531.029	33634.3
531.23	33339.4
531.431	33640.45
531.632	33667.07
531.833	33587.2
532.035	33484.8
532.236	33734.65
532.437	33771.52
532.638	33398.79
532.839	33689.6
533.04	33769.47
533.241	33509.38
533.442	34103.29
533.643	33951.74
533.844	33617.92
534.045	33765.37
534.246	33241.09
534.447	33845.24
534.648	33441.79
534.849	33679.36
535.05	33486.85
535.251	33566.72
535.451	33839.1
535.652	33638.4
535.853	33282.05
536.054	33509.38
536.255	33390.59
536.456	33245.19
536.657	33787.9
536.857	33511.42
537.058	33552.38
537.259	33581.06
537.46	33595.39
537.66	33429.51
537.861	33656.83
538.062	33208.33
538.263	33280
538.463	33269.76
538.664	33783.8
538.865	33468.42
539.065	33349.64
539.266	33222.66
539.466	33396.74
539.667	33062.92
539.868	33644.54
540.068	33282.05
540.269	32968.71
540.469	33261.57
540.67	33067.02
540.87	33167.37
541.071	33165.32
541.271	33079.3
541.472	33007.62
541.672	32991.24
541.873	32778.25
542.073	32970.76
542.274	33320.96
542.474	33138.69
542.675	32958.47
542.875	33417.22
543.075	33001.48
543.276	32659.47
543.476	33177.61
543.676	32899.08
543.877	32958.47
544.077	32546.83
544.277	33107.97
544.478	32993.29
544.678	33144.84
544.878	32927.75
545.078	32700.43
545.279	32421.91
545.479	32845.83
545.679	33173.51
545.879	32851.98
546.079	32567.31
546.28	32722.96
546.48	32530.45
546.68	32966.66
546.88	33128.45
547.08	32811.02
547.28	32487.44
547.48	32006.17
547.68	32653.33
547.88	32444.43
548.081	32870.41
548.281	32614.41
548.481	32565.26
548.681	32552.98
548.881	32655.37
549.081	32419.86
549.28	32112.66
549.48	32841.74
549.68	32407.57
549.88	32903.18
550.08	32231.44
550.28	32532.5
550.48	32481.3
550.68	32608.27
550.88	32149.53
551.08	32389.14
551.279	32206.87
551.479	31987.74
551.679	32305.17
551.879	32229.4
552.079	32469.01
552.278	32532.5
552.478	32487.44
552.678	31916.06
552.878	32268.31
553.077	32135.19
553.277	32098.33
553.477	32755.72
553.676	32104.47
553.876	32135.19
554.076	32071.7
554.275	31809.56
554.475	31827.99
554.674	32024.6
554.874	32022.55
555.074	32108.57
555.273	32002.07
555.473	32110.61
555.672	32000.02
555.872	31653.92
556.071	32030.74
556.271	32305.17
556.47	31838.23
556.67	31987.74
556.869	31643.68
557.068	31952.92
557.268	31449.12
557.467	31821.85
557.667	31871
557.866	31631.39
558.065	31701.02
558.265	31434.78
558.464	31381.54
558.663	31821.85
558.863	31184.93
559.062	31889.43
559.261	31365.15
559.461	32004.12
559.66	31471.65
559.859	31551.52
560.058	31017
560.258	31686.68
560.457	31459.36
560.656	31692.83
560.855	31340.58
561.054	31557.66
561.253	31139.88
561.453	31428.64
561.652	31604.77
561.851	31653.92
562.05	31223.84
562.249	31240.23
562.448	31522.85
562.647	31248.42
562.846	31373.35
563.045	31367.2
563.244	30892.07
563.443	31209.51
563.642	30652.46
563.841	31246.37
564.04	30500.91
564.239	31328.29
564.438	30867.5
564.637	31017
564.836	30967.85
565.035	30789.67
565.234	30955.56
565.432	30597.17
565.631	30910.5
565.83	30892.07
566.029	30709.8
566.228	30670.89
566.427	30371.89
566.625	30537.77
566.824	30445.62
567.023	30902.31
567.222	30138.42
567.42	30552.11
567.619	30285.87
567.818	30210.1
568.016	30388.27
568.215	30576.69
568.414	30275.63
568.612	30498.86
568.811	30281.78
569.01	30490.67
569.208	29988.92
569.407	30488.62
569.605	30138.42
569.804	30410.8
570.002	29773.88
570.201	30400.56
570.4	30038.07
570.598	29806.65
570.797	30029.88
570.995	30048.31
571.193	29491.26
571.392	30210.1
571.59	29786.17
571.789	29743.16
571.987	29831.22
572.186	29542.46
572.384	29372.48
572.582	29546.56
572.781	29884.47
572.979	29233.22
573.177	29237.31
573.376	29478.97
573.574	29165.63
573.772	29454.4
573.971	29163.59
574.169	29296.7
574.367	29081.67
574.565	29210.69
574.763	29173.83
574.962	29032.52
575.16	28786.76
575.358	28801.1
575.556	28993.61
575.754	29225.03
575.952	28774.47
576.151	29265.99
576.349	28721.23
576.547	28751.95
576.745	28524.62
576.943	28803.14
577.141	28479.57
577.339	28334.16
577.537	28289.1
577.735	28891.21
577.933	28254.29
578.131	28368.98
578.329	28139.6
578.527	28323.92
578.725	28373.07
578.923	28311.63
579.121	28248.14
579.319	28053.59
579.516	28317.78
579.714	28129.36
579.912	27998.29
580.11	27635.8
580.308	27906.13
580.506	27961.43
580.704	27201.63
580.901	27471.96
581.099	27873.37
581.297	27232.35
581.495	27365.47
581.692	27256.93
581.89	27443.29
582.088	27392.09
582.285	27172.96
582.483	27529.31
582.681	27132
582.878	27017.32
583.076	26853.48
583.274	27590.75
583.471	27037.8
583.669	26953.83
583.866	26671.21
584.064	26861.67
584.262	26542.19
584.459	26941.54
584.657	26814.57
584.854	26738.79
585.052	26456.17
585.249	26622.06
585.447	26663.02
585.644	26218.61
585.841	26501.23
586.039	26560.62
586.236	26241.14
586.434	26116.21
586.631	25966.71
586.828	26169.46
587.026	26087.54
587.223	26095.73
587.42	25892.98
587.618	26073.2
587.815	25477.24
588.012	25833.59
588.21	25618.55
588.407	25733.24
588.604	25503.87
588.801	25462.91
588.999	25589.88
589.196	25757.81
589.393	25473.15
589.59	25430.14
589.787	25323.65
589.984	25041.03
590.182	25000.07
590.379	25294.97
590.576	24952.96
590.773	24840.32
590.97	24815.75
591.167	24952.96
591.364	24737.93
591.561	25311.36
591.758	24948.87
591.955	24473.74
592.152	24766.6
592.349	24569.99
592.546	24451.21
592.743	24578.18
592.94	24125.58
593.137	24336.52
593.334	24240.27
593.531	24064.14
593.727	24289.42
593.924	24033.43
594.121	23754.9
594.318	24318.09
594.515	23799.96
594.712	23787.67
594.908	23859.35
595.105	23984.27
595.302	23763.09
595.499	24051.86
595.696	23836.82
595.892	23285.92
596.089	23443.61
596.286	23357.6
596.482	23537.82
596.679	23398.55
596.876	23511.19
597.072	23402.65
597.269	23066.78
597.466	22929.57
597.662	23040.16
597.859	22999.2
598.055	23218.33
598.252	22726.82
598.448	22810.79
598.645	22730.92
598.841	22472.87
599.038	22655.14
599.234	22614.18
599.431	22421.67
599.627	22667.43
599.824	22620.33
600.02	22331.56
600.217	22524.07
600.413	22376.62
600.609	22147.25
600.806	22159.53
601.002	22429.87
601.198	21948.59
601.395	22044.85
601.591	21954.74
601.787	21971.12
601.984	21899.44
602.18	22376.62
602.376	21549.24
602.572	21602.49
602.769	21860.53
602.965	21708.98
603.161	21715.12
603.357	21631.16
603.553	21283
603.75	21373.11
603.946	21422.27
604.142	21461.18
604.338	21067.97
604.534	21440.7
604.73	21004.48
604.926	21031.1
605.122	21057.73
605.318	21080.25
605.514	20791.49
605.71	21168.32
605.906	20977.86
606.102	20750.53
606.298	20930.75
606.494	20551.88
606.69	20820.16
606.886	20750.53
607.082	20424.9
607.278	20820.16
607.474	20254.92
607.67	20734.15
607.866	20302.03
608.062	20826.31
608.257	20392.14
608.453	20420.81
608.649	20021.45
608.845	20064.46
609.041	20263.11
609.236	20469.96
609.432	20404.42
609.628	20256.97
609.824	19992.78
610.019	20070.61
610.215	19988.69
610.411	20318.41
610.606	20105.42
610.802	20056.27
610.998	19835.09
611.193	20111.57
611.389	19718.36
611.584	19697.88
611.78	19669.2
611.976	19460.31
612.171	19820.75
612.367	19452.12
612.562	19439.83
612.758	19241.18
612.953	19335.38
613.149	19744.98
613.344	19122.4
613.539	19718.36
613.735	19708.12
613.93	19542.23
614.126	19314.91
614.321	19194.08
614.517	19384.54
614.712	19237.08
614.907	19073.24
615.103	19259.61
615.298	19093.72
615.493	19251.42
615.688	18802.91
615.884	19345.62
616.079	18829.54
616.274	18901.22
616.47	18989.28
616.665	19026.14
616.86	18841.82
617.055	18432.23
617.25	18665.7
617.445	19036.38
617.641	18237.67
617.836	18452.71
618.031	18622.69
618.226	18954.46
618.421	18485.48
618.616	18651.36
618.811	18047.21
619.006	18677.99
619.201	18221.29
619.396	18168.04
619.591	17907.95
619.786	17953.01
619.981	17742.07
620.176	18059.5
620.371	17836.27
620.566	18022.64
620.761	17629.43
620.956	17690.87
621.151	17377.53
621.346	17514.74
621.541	17334.52
621.735	17318.14
621.93	17189.11
622.125	17332.47
622.32	16929.02
622.515	17017.08
622.709	16984.32
622.904	16814.34
623.099	16673.03
623.294	16816.38
623.488	16511.24
623.683	16544
623.878	16302.34
624.072	16568.58
624.267	16394.5
624.462	16263.43
624.656	15993.1
624.851	16007.44
625.046	16013.58
625.24	16044.3
625.435	15792.4
625.629	15794.45
625.824	15898.89
626.018	15575.31
626.213	15372.57
626.407	15276.31
626.602	15167.77
626.796	15419.67
626.991	15536.4
627.185	14948.64
627.38	14948.64
627.574	14811.42
627.768	14928.16
627.963	14930.2
628.157	14649.63
628.352	14721.31
628.546	14121.26
628.74	14924.06
628.935	14336.29
629.129	14352.68
629.323	14448.93
629.517	14356.77
629.712	14176.55
629.906	14035.24
630.1	13807.92
630.294	14127.4
630.489	13666.61
630.683	13613.36
630.877	13611.31
631.071	13666.61
631.265	13701.42
631.459	13424.95
631.653	13484.34
631.848	13635.89
632.042	13498.67
632.236	13486.39
632.43	13269.3
632.624	13150.52
632.818	13091.13
633.012	12943.67
633.206	12632.38
633.4	12816.7
633.594	13064.5
633.788	13011.26
633.982	12853.56
634.176	12804.41
634.369	12548.42
634.563	12618.05
634.757	12372.29
634.951	12429.63
635.145	12497.22
635.339	12374.34
635.533	12142.92
635.726	12247.37
635.92	11772.24
636.114	12118.34
636.308	11649.36
636.501	12061
636.695	11815.24
636.889	11725.13
637.083	11718.99
637.276	11522.38
637.47	11340.11
637.664	11284.82
637.857	11485.52
638.051	11503.95
638.244	11262.29
638.438	11213.14
638.632	11188.57
638.825	11178.33
639.019	11247.96
639.212	10907.99
639.406	10930.52
639.599	10895.71
639.793	10934.62
639.986	10604.89
640.18	10703.2
640.373	10791.26
640.567	10520.93
640.76	10606.94
640.954	10600.8
641.147	10412.39
641.34	10594.65
641.534	10402.15
641.727	10187.11
641.92	10367.33
642.114	10107.24
642.307	10342.75
642.5	10111.33
642.694	9800.04
642.887	9918.82
643.08	9935.21
643.273	9800.04
643.467	9953.64
643.66	9601.39
643.853	9595.25
644.046	9726.32
644.239	9505.13
644.432	9585.01
644.626	9341.3
644.819	9427.31
645.012	9374.06
645.205	9431.41
645.398	9331.06
645.591	9197.94
645.784	9042.29
645.977	8980.85
646.17	9236.85
646.363	9118.07
646.556	8978.81
646.749	8810.87
646.942	8833.4
647.135	8792.44
647.328	8778.11
647.521	8804.73
647.714	8599.93
647.907	8675.71
648.099	8612.22
648.292	8638.84
648.485	8511.87
648.678	8544.64
648.871	8399.23
649.064	8405.38
649.256	8350.08
649.449	8079.75
649.642	8114.56
649.835	8266.11
650.027	8167.81
650.22	8171.91
650.413	7954.82
650.605	8053.13
650.798	8214.91
650.991	7897.48
651.183	7827.85
651.376	7833.99
651.568	7944.58
651.761	7563.66
651.954	7793.03
652.146	7799.18
652.339	7731.59
652.531	7702.92
652.724	7557.52
652.916	7475.6
653.109	7569.8
653.301	7434.64
653.494	7473.55
653.686	7205.27
653.879	7324.05
654.071	7291.28
654.263	7238.03
654.456	7426.45
654.648	7358.86
654.84	7051.67
655.033	6971.8
655.225	7088.53
655.417	7127.44
655.61	7242.13
655.802	7031.19
655.994	7170.45
656.186	6805.91
656.379	6846.87
656.571	6697.37
656.763	6850.97
656.955	6914.45
657.148	6756.76
657.34	6801.82
657.532	6707.61
657.724	6631.83
657.916	6672.79
658.108	6511
658.3	6611.36
658.492	6621.59
658.684	6386.08
658.876	6435.23
659.068	6402.46
659.26	6416.8
659.452	6597.02
659.644	6455.71
659.836	6181.28
660.028	6408.61
660.22	6271.39
660.412	6293.92
660.604	6209.95
660.796	6162.85
660.988	6134.18
661.18	6162.85
661.372	6125.99
661.563	6197.67
661.755	6050.21
661.947	6050.21
662.139	5884.33
662.331	5992.87
662.522	5913
662.714	5919.14
662.906	5927.33
663.097	5947.81
663.289	5679.53
663.481	5667.24
663.673	5910.95
663.864	5700.01
664.056	5734.82
664.247	5622.19
664.439	5679.53
664.631	5568.94
664.822	5530.03
665.014	5583.27
665.205	5544.36
665.397	5347.76
665.588	5566.89
665.78	5446.06
665.971	5519.79
666.163	5534.12
666.354	5300.66
666.546	5302.7
666.737	5386.67
666.929	5433.77
667.12	5372.33
667.311	5396.91
667.503	5286.32
667.694	5306.8
667.885	5337.52
668.077	5196.21
668.268	5185.97
668.459	5200.3
668.651	5220.78
668.842	5222.83
669.033	5200.3
669.224	5032.37
669.416	5183.92
669.607	5179.82
669.798	4975.03
669.989	5130.67
670.18	4997.56
670.371	5106.1
670.563	4862.39
670.754	4995.51
670.945	5028.28
671.136	4868.53
671.327	4803
671.518	4987.32
671.709	4809.14
671.9	5001.65
672.091	5038.52
672.282	5022.13
672.473	4778.42
672.664	4768.18
672.855	4843.96
673.046	4770.23
673.237	5013.94
673.428	4659.64
673.619	4780.47
673.809	4659.64
674	4837.81
674.191	4934.07
674.382	4704.7
674.573	4739.51
674.764	4700.6
674.954	4874.68
675.145	4571.58
675.336	4645.31
675.527	4764.09
675.717	4639.16
675.908	4710.84
676.099	4530.62
676.289	4690.36
676.48	4696.5
676.671	4618.68
676.861	4628.92
677.052	4563.39
677.243	4807.09
677.433	4485.56
677.624	4755.9
677.814	4602.3
678.005	4559.29
678.195	4673.98
678.386	4557.24
678.576	4460.99
678.767	4587.96
678.957	4528.57
679.148	4669.88
679.338	4454.84
679.529	4598.2
679.719	4522.43
679.909	4766.14
680.1	4645.31
680.29	4559.29
680.481	4583.87
680.671	4702.65
680.861	4620.73
681.052	4590.01
681.242	4567.48
681.432	4651.45
681.622	4708.79
681.813	4420.03
682.003	4497.85
682.193	4475.32
682.383	4512.19
682.573	4444.6
682.764	4465.08
682.954	4407.74
683.144	4649.4
683.334	4514.24
683.524	4444.6
683.714	4575.67
683.904	4491.71
684.094	4540.86
684.284	4434.36
684.474	4491.71
684.664	4485.56
684.854	4465.08
685.044	4448.7
685.234	4430.27
685.424	4442.56
685.614	4383.17
685.804	4428.22
685.994	4483.52
686.184	4401.6
686.374	4374.97
686.564	4344.25
686.753	4377.02
686.943	4325.82
687.133	4254.14
687.323	4331.97
687.513	4270.53
687.702	4248
687.892	4155.84
688.082	4235.71
688.272	4299.2
688.461	4176.32
688.651	4291.01
688.841	4096.45
689.03	4164.03
689.22	4209.09
689.41	4061.63
689.599	4161.98
689.789	4053.44
689.979	4012.48
690.168	4010.43
690.358	4108.74
690.547	3969.48
690.737	3957.19
690.926	3989.96
691.116	3885.51
691.305	3971.52
691.495	3789.25
691.684	4057.54
691.874	3860.93
692.063	3871.17
692.252	3963.33
692.442	3860.93
692.631	3756.49
692.82	3729.86
693.01	3758.53
693.199	3684.81
693.388	3879.36
693.578	3885.51
693.767	3727.82
693.956	3908.04
694.146	3811.78
694.335	3760.58
694.524	3752.39
694.713	3695.05
694.902	3643.85
695.092	3760.58
695.281	3815.88
695.47	3707.34
695.659	3654.09
695.848	3799.49
696.037	3760.58
696.226	3658.18
696.415	3613.13
696.604	3733.96
696.793	3738.05
696.982	3779.01
697.171	3705.29
697.36	3551.69
697.549	3688.9
697.738	3609.03
697.927	3613.13
698.116	3701.19
698.305	3660.23
698.494	3693
698.683	3707.34
698.872	3738.05
699.061	3754.44
699.25	3766.73
699.438	3668.42
699.627	3752.39
699.816	3848.65
700.005	3672.52
700.193	3649.99
700.382	3707.34
700.571	3664.33
700.76	3740.1
700.948	3797.45
701.137	3748.29
701.326	3705.29
701.514	3801.54
701.703	3785.16
701.892	3789.25
702.08	3803.59
702.269	3762.63
702.457	3742.15
702.646	3772.87
702.834	3842.5
703.023	3684.81
703.212	3955.14
703.4	3789.25
703.589	3795.4
703.777	3787.21
703.965	3828.17
704.154	3875.27
704.342	3867.08
704.531	3740.1
704.719	3795.4
704.907	3785.16
705.096	3563.98
705.284	3862.98
705.472	3834.31
705.661	3860.93
705.849	3953.09
706.037	3776.97
706.226	3811.78
706.414	3895.75
706.602	3922.37
706.79	3871.17
706.979	3731.91
707.167	3951.04
707.355	3957.19
707.543	3985.86
707.731	3918.28
707.919	3905.99
708.107	3766.73
708.296	3822.02
708.484	3824.07
708.672	3809.73
708.86	3813.83
709.048	3817.93
709.236	3994.05
709.424	4039.11
709.612	3899.84
709.8	3846.6
709.988	3957.19
710.176	3987.91
710.364	3959.24
710.551	3910.08
710.739	3932.61
710.927	4018.63
711.115	3940.8
711.303	4092.35
711.491	3822.02
711.679	4016.58
711.866	4055.49
712.054	3940.8
712.242	4028.87
712.43	4149.7
712.617	3957.19
712.805	4078.02
712.993	4090.31
713.181	3899.84
713.368	4106.69
713.556	4102.59
713.744	4004.29
713.931	4129.22
714.119	4016.58
714.306	4012.48
714.494	4004.29
714.682	4024.77
714.869	3895.75
715.057	4092.35
715.244	3998.15
715.432	4075.97
715.619	4084.16
715.807	4078.02
715.994	4112.83
716.182	4018.63
716.369	4229.57
716.556	4061.63
716.744	4055.49
716.931	4037.06
717.119	4104.64
717.306	4170.18
717.493	4094.4
717.681	4123.07
717.868	4139.46
718.055	4075.97
718.242	3998.15
718.43	4135.36
718.617	4239.81
718.804	4141.5
718.991	4135.36
719.179	4118.98
719.366	4198.85
719.553	4155.84
719.74	4174.27
719.927	4053.44
720.114	4254.14
720.301	4235.71
720.488	4053.44
720.676	4297.15
720.863	4112.83
721.05	4155.84
721.237	4170.18
721.424	4250.05
721.611	4166.08
721.798	4049.35
721.985	4114.88
722.172	4227.52
722.358	4174.27
722.545	4245.95
722.732	4192.7
722.919	4213.18
723.106	4237.76
723.293	4233.66
723.48	4080.07
723.667	4114.88
723.853	4143.55
724.04	4194.75
724.227	4182.46
724.414	4336.06
724.6	4186.56
724.787	4426.17
724.974	4311.49
725.161	4192.7
725.347	4237.76
725.534	4090.31
725.72	4346.3
725.907	4221.38
726.094	4362.69
726.28	4114.88
726.467	4334.01
726.653	4129.22
726.84	4180.42
727.027	4270.53
727.213	4114.88
727.4	4250.05
727.586	4178.37
727.773	4393.4
727.959	4252.1
728.145	4338.11
728.332	4254.14
728.518	4315.58
728.705	4237.76
728.891	4149.7
729.077	4153.79
729.264	4229.57
729.45	4299.2
729.636	4254.14
729.823	4176.32
730.009	4188.61
730.195	4346.3
730.382	4331.97
730.568	4254.14
730.754	4297.15
730.94	4221.38
731.126	4239.81
731.313	4325.82
731.499	4078.02
731.685	4155.84
731.871	4202.94
732.057	4311.49
732.243	4092.35
732.429	4094.4
732.615	4233.66
732.801	4239.81
732.987	4233.66
733.173	4211.14
733.359	4280.77
733.545	4123.07
733.731	4229.57
733.917	4192.7
734.103	4346.3
734.289	4104.64
734.475	4069.83
734.661	4168.13
734.847	4268.48
735.033	4139.46
735.219	4178.37
735.404	4194.75
735.59	4149.7
735.776	4118.98
735.962	4192.7
736.148	4069.83
736.333	4176.32
736.519	4221.38
736.705	4071.87
736.89	4010.43
737.076	4041.15
737.262	4035.01
737.447	4022.72
737.633	4151.74
737.819	4180.42
738.004	4024.77
738.19	4090.31
738.375	4071.87
738.561	4118.98
738.747	3971.52
738.932	4032.96
739.118	3975.62
739.303	4088.26
739.489	3916.23
739.674	4024.77
739.859	3973.57
740.045	4086.21
740.23	3871.17
740.416	3905.99
740.601	3895.75
740.786	3910.08
740.972	3791.3
741.157	3807.69
741.342	3832.26
741.528	3791.3
741.713	3748.29
741.898	3799.49
742.084	3867.08
742.269	3756.49
742.454	3854.79
742.639	3871.17
742.824	3824.07
743.01	3893.7
743.195	3836.36
743.38	3752.39
743.565	3615.18
743.75	3668.42
743.935	3695.05
744.12	3645.9
744.305	3537.35
744.49	3654.09
744.675	3586.51
744.86	3549.64
745.045	3799.49
745.23	3639.75
745.415	3490.25
745.6	3531.21
745.785	3484.11
745.97	3570.12
746.155	3533.26
746.34	3488.2
746.525	3447.24
746.71	3457.48
746.895	3439.05
747.079	3394
747.264	3430.86
747.449	3385.8
747.634	3277.26
747.819	3275.21
748.003	3123.66
748.188	3246.54
748.373	3264.97
748.557	3240.4
748.742	3285.45
748.927	3217.87
749.111	3213.77
749.296	3326.41
749.481	3226.06
749.665	3078.61
749.85	3086.8
750.034	3174.86
750.219	2886.1
750.404	2929.11
750.588	3154.38
750.773	2945.49
750.957	3078.61
751.141	2933.2
751.326	2984.4
751.51	2849.24
751.695	2865.62
751.879	2871.76
752.064	2925.01
752.248	2783.7
752.432	2763.22
752.617	2896.34
752.801	2802.13
752.985	2820.56
753.17	2714.07
753.354	2787.8
753.538	2750.93
753.722	2677.21
753.907	2613.72
754.091	2681.3
754.275	2535.9
754.459	2591.19
754.643	2572.76
754.828	2646.49
755.012	2576.86
755.196	2556.38
755.38	2499.03
755.564	2494.94
755.748	2380.25
755.932	2548.19
756.116	2464.22
756.3	2568.66
756.484	2357.72
756.668	2398.68
756.852	2345.44
757.036	2302.43
757.22	2390.49
757.404	2318.81
757.588	2234.85
757.772	2314.72
757.956	2224.61
758.14	2281.95
758.323	2169.31
758.507	2349.53
758.691	2214.37
758.875	2175.45
759.059	2273.76
759.242	2208.22
759.426	2259.42
759.61	2144.74
759.794	2154.98
759.977	2224.61
760.161	2179.55
760.345	2275.81
760.528	2177.5
760.712	2105.82
760.895	2040.29
761.079	2085.34
761.263	2109.92
761.446	1950.18
761.63	2085.34
761.813	2101.73
761.997	2017.76
762.18	2011.62
762.364	2032.1
762.547	1827.3
762.731	1954.27
762.914	1896.93
763.098	1929.7
763.281	1919.46
763.464	1819.11
763.648	1931.75
763.831	1843.68
764.015	1896.93
764.198	1884.64
764.381	2042.34
764.564	1810.92
764.748	1860.07
764.931	1679.85
765.114	1866.21
765.297	1794.53
765.481	1753.57
765.664	1786.34
765.847	1747.43
766.03	1747.43
766.213	1780.2
766.397	1722.85
766.58	1804.77
766.763	1792.48
766.946	1872.36
767.129	1642.98
767.312	1690.09
767.495	1737.19
767.678	1759.72
767.861	1698.28
768.044	1769.96
768.227	1735.14
768.41	1655.27
768.593	1671.65
768.776	1636.84
768.959	1718.76
769.142	1661.41
769.324	1602.02
769.507	1679.85
769.69	1624.55
769.873	1597.93
770.056	1704.42
770.239	1577.45
770.421	1708.52
770.604	1599.98
770.787	1481.19
770.97	1649.13
771.152	1483.24
771.335	1573.35
771.518	1559.02
771.7	1575.4
771.883	1612.26
772.066	1556.97
772.248	1579.5
772.431	1612.26
772.613	1495.53
772.796	1577.45
772.978	1583.59
773.161	1622.5
773.343	1454.57
773.526	1511.91
773.708	1374.7
773.891	1368.56
774.073	1470.95
774.256	1391.08
774.438	1499.63
774.621	1384.94
774.803	1380.84
774.985	1333.74
775.168	1397.23
775.35	1350.12
775.532	1395.18
775.715	1415.66
775.897	1399.27
776.079	1348.08
776.261	1368.56
776.444	1337.84
776.626	1294.83
776.808	1286.64
776.99	1253.87
777.173	1231.34
777.355	1204.72
777.537	1290.73
777.719	1169.9
777.901	1190.38
778.083	1200.62
778.265	1151.47
778.447	1264.11
778.629	1167.85
778.811	1118.7
778.993	1208.81
779.175	1196.53
779.357	1120.75
779.539	1233.39
779.721	1171.95
779.903	1159.66
780.085	1139.18
780.267	1182.19
780.449	1053.17
780.631	1067.5
780.812	1155.57
780.994	1094.13
781.176	997.87
781.358	1018.35
781.54	1051.12
781.721	1188.33
781.903	1071.6
782.085	918
782.267	1026.54
782.448	944.63
782.63	952.82
782.812	993.78
782.993	1034.74
783.175	930.29
783.357	901.62
783.538	897.52
783.72	885.23
783.901	856.56
784.083	1018.35
784.264	952.82
784.446	901.62
784.627	889.33
784.809	934.39
784.99	928.24
785.172	946.67
785.353	815.6
785.535	887.28
785.716	793.08
785.897	821.75
786.079	821.75
786.26	834.04
786.441	885.23
786.623	782.84
786.804	821.75
786.985	788.98
787.167	874.99
787.348	840.18
787.529	739.83
787.71	868.85
787.891	819.7
788.073	758.26
788.254	668.15
788.435	801.27
788.616	797.17
788.797	713.21
788.978	696.82
789.159	733.68
789.34	713.21
789.522	745.97
789.703	745.97
789.884	713.21
790.065	723.44
790.246	827.89
790.427	643.57
790.607	741.88
790.788	647.67
790.969	557.56
791.15	723.44
791.331	700.92
791.512	690.68
791.693	625.14
791.874	680.44
792.054	688.63
792.235	629.24
792.416	614.9
792.597	549.37
792.778	657.91
792.958	682.49
793.139	633.33
793.32	625.14
793.5	504.31
793.681	662.01
793.862	582.14
794.042	580.09
794.223	573.94
794.404	500.22
794.584	537.08
794.765	528.89
794.945	557.56
795.126	518.65
795.306	639.48
795.487	559.61
795.667	469.5
795.848	524.79
796.028	516.6
796.209	627.19
796.389	543.22
796.57	494.07
796.75	518.65
796.93	565.75
797.111	463.35
797.291	469.5
797.471	528.89
797.652	463.35
797.832	494.07
798.012	590.33
798.192	457.21
798.373	471.54
798.553	571.9
798.733	451.07
798.913	457.21
799.093	471.54
799.274	485.88
799.454	514.55
799.634	459.26
799.814	479.74
799.994	524.79
800.174	573.94
800.354	549.37
800.534	412.15
800.714	506.36
800.894	471.54
801.074	371.19
801.254	375.29
801.434	467.45
801.614	381.43
801.794	393.72
801.974	1565.16
802.154	451.07
802.334	432.63
802.514	389.63
802.693	338.43
802.873	363
803.053	524.79
803.233	446.97
803.413	346.62
803.592	369.15
803.772	383.48
803.952	387.58
804.131	346.62
804.311	360.95
804.491	487.93
804.67	340.47
804.85	360.95
805.03	446.97
805.209	426.49
805.389	358.91
805.568	434.68
805.748	350.71
805.928	270.84
806.107	373.24
806.287	369.15
806.466	399.87
806.646	354.81
806.825	340.47
807.004	285.18
807.184	401.91
807.363	379.39
807.543	381.43
807.722	293.37
807.901	403.96
808.081	451.07
808.26	334.33
808.439	244.22
808.619	340.47
808.798	279.04
808.977	352.76
809.156	383.48
809.336	244.22
809.515	348.67
809.694	223.74
809.873	287.23
810.052	293.37
810.231	418.3
810.411	285.18
810.59	383.48
810.769	328.19
810.948	240.12
811.127	199.16
811.306	358.91
811.485	264.7
811.664	367.1
811.843	260.6
812.022	217.6
812.201	338.43
812.38	315.9
812.559	283.13
812.737	332.28
812.916	279.04
813.095	236.03
813.274	320
813.453	285.18
813.632	340.47
813.811	373.24
813.989	190.97
814.168	281.08
814.347	197.12
814.526	209.4
814.704	356.86
814.883	377.34
815.062	256.51
815.24	254.46
815.419	150.01
815.598	328.19
815.776	297.47
815.955	219.64
816.133	205.31
816.312	260.6
816.49	193.02
816.669	211.45
816.847	252.41
817.026	260.6
817.204	260.6
817.383	233.98
817.561	262.65
817.74	274.94
817.918	279.04
818.097	279.04
818.275	104.96
818.453	211.45
818.632	238.08
818.81	256.51
818.988	254.46
819.167	180.73
819.345	233.98
819.523	256.51
819.701	199.16
819.879	213.5
820.058	156.16
820.236	182.78
820.414	209.4
820.592	215.55
820.77	178.69
820.948	172.54
821.127	229.88
821.305	250.36
821.483	178.69
821.661	279.04
821.839	221.69
822.017	225.79
822.195	207.36
822.373	215.55
822.551	244.22
822.729	225.79
822.907	168.45
823.085	193.02
823.262	190.97
823.44	201.21
823.618	166.4
823.796	274.94
823.974	158.21
824.152	152.06
824.329	186.88
824.507	172.54
824.685	162.3
824.863	166.4
825.04	244.22
825.218	266.75
825.396	156.16
825.574	207.36
825.751	240.12
825.929	158.21
826.107	193.02
826.284	225.79
826.462	207.36
826.639	80.38
826.817	119.29
826.994	143.87
827.172	201.21
827.349	252.41
827.527	195.07
827.704	152.06
827.882	289.28
828.059	205.31
828.237	135.68
828.414	188.93
828.591	102.91
828.769	158.21
828.946	102.91
829.124	262.65
829.301	178.69
829.478	113.15
829.655	139.77
829.833	152.06
830.01	88.57
830.187	98.81
830.364	162.3
830.542	111.1
830.719	188.93
830.896	182.78
831.073	139.77
831.25	221.69
831.427	233.98
831.604	158.21
831.782	135.68
831.959	68.09
832.136	199.16
832.313	174.59
832.49	160.25
832.667	88.57
832.844	33.28
833.021	78.33
833.198	199.16
833.374	156.16
833.551	178.69
833.728	80.38
833.905	242.17
834.082	64
834.259	109.05
834.436	102.91
834.612	150.01
834.789	162.3
834.966	115.2
835.143	182.78
835.319	70.14
835.496	135.68
835.673	160.25
835.85	215.55
836.026	162.3
836.203	107.01
836.38	74.24
836.556	45.57
836.733	125.44
836.909	190.97
837.086	115.2
837.262	51.71
837.439	115.2
837.616	113.15
837.792	178.69
837.968	113.15
838.145	80.38
838.321	100.86
838.498	61.95
838.674	107.01
838.851	59.9
839.027	80.38
839.203	78.33
839.38	160.25
839.556	121.34
839.732	109.05
839.909	76.29
840.085	92.67
840.261	64
840.437	104.96
840.614	68.09
840.79	158.21
840.966	84.48
841.142	94.72
841.318	113.15
841.494	141.82
841.671	109.05
841.847	139.77
842.023	-19.97
842.199	190.97
842.375	125.44
842.551	76.29
842.727	61.95
842.903	201.21
843.079	100.86
843.255	80.38
843.431	55.81
843.607	107.01
843.783	72.19
843.959	121.34
844.134	135.68
844.31	199.16
844.486	57.86
844.662	123.39
844.838	51.71
845.013	154.11
845.189	154.11
845.365	70.14
845.541	92.67
845.716	113.15
845.892	141.82
846.068	90.62
846.244	45.57
846.419	47.62
846.595	20.99
846.77	104.96
846.946	141.82
847.122	98.81
847.297	31.23
847.473	162.3
847.648	-87.55
847.824	125.44
847.999	10.75
848.175	39.42
848.35	35.33
848.526	115.2
848.701	178.69
848.876	176.64
849.052	35.33
849.227	129.53
849.403	92.67
849.578	64
849.753	152.06
849.929	64
850.104	66.05
850.279	76.29
850.454	45.57
850.63	160.25
850.805	64
850.98	113.15
851.155	25.09
851.33	92.67
851.505	33.28
851.681	94.72
851.856	68.09
852.031	57.86
852.206	43.52
852.381	43.52
852.556	80.38
852.731	66.05
852.906	-17.92
853.081	100.86
853.256	141.82
853.431	51.71
853.606	49.66
853.781	6.66
853.956	12.8
854.131	-9.73
854.305	35.33
854.48	-30.21
854.655	35.33
854.83	49.66
855.005	16.9
855.18	131.58
855.354	27.14
855.529	55.81
855.704	61.95
855.879	55.81
856.053	-5.63
856.228	-24.06
856.403	6.66
856.577	27.14
856.752	-44.54
856.926	10.75
857.101	104.96
857.276	33.28
857.45	-13.82
857.625	92.67
857.799	94.72
857.974	59.9
858.148	25.09
858.323	51.71
858.497	72.19
858.672	41.47
858.846	-3.58
859.02	-17.92
859.195	14.85
859.369	86.53
859.543	90.62
859.718	107.01
859.892	131.58
860.066	37.38
860.241	18.94
860.415	-7.68
860.589	4.61
860.763	0.51
860.938	59.9
861.112	82.43
861.286	23.04
861.46	-3.58
861.634	45.57
861.808	25.09
861.982	33.28
862.157	6.66
862.331	37.38
862.505	-15.87
862.679	10.75
862.853	-1.54
863.027	29.18
863.201	86.53
863.375	33.28
863.549	98.81
863.722	92.67
863.896	76.29
864.07	4.61
864.244	41.47
864.418	23.04
864.592	39.42
864.766	117.25
864.939	139.77
865.113	35.33
865.287	104.96
865.461	-11.78
865.634	12.8
865.808	109.05
865.982	8.7
866.156	45.57
866.329	-112.13
866.503	23.04
866.676	41.47
866.85	25.09
867.024	102.91
867.197	78.33
867.371	41.47
867.544	-15.87
867.718	10.75
867.891	147.97
868.065	-3.58
868.238	18.94
868.412	51.71
868.585	41.47
868.759	10.75
868.932	-40.45
869.105	-42.5
869.279	16.9
869.452	96.77
869.625	61.95
869.799	39.42
869.972	-1.54
870.145	76.29
870.319	80.38
870.492	14.85
870.665	41.47
870.838	2.56
871.011	-44.54
871.185	8.7
871.358	-34.3
871.531	86.53
871.704	47.62
871.877	47.62
872.05	29.18
872.223	8.7
872.396	29.18
872.569	27.14
872.742	-9.73
872.915	-11.78
873.088	29.18
873.261	10.75
873.434	92.67
873.607	18.94
873.78	66.05
873.953	8.7
874.126	53.76
874.299	78.33
874.471	-22.02
874.644	39.42
874.817	64
874.99	111.1
875.163	68.09
875.335	27.14
875.508	51.71
875.681	86.53
875.853	25.09
876.026	51.71
876.199	6.66
876.371	18.94
876.544	-85.5
876.717	57.86
876.889	25.09
877.062	45.57
877.234	39.42
877.407	4.61
877.579	33.28
877.752	18.94
877.924	66.05
878.097	104.96
878.269	45.57
878.442	23.04
878.614	45.57
878.786	43.52
878.959	51.71
879.131	27.14
879.303	-52.74
879.476	-56.83
879.648	76.29
879.82	43.52
879.993	-77.31
880.165	-71.17
880.337	16.9
880.509	86.53
880.681	20.99
880.854	39.42
881.026	-11.78
881.198	64
881.37	102.91
881.542	96.77
881.714	39.42
881.886	29.18
882.058	-3.58
882.23	70.14
882.402	6.66
882.574	45.57
882.746	25.09
882.918	72.19
883.09	45.57
883.262	-17.92
883.434	29.18
883.606	-30.21
883.778	-17.92
883.95	125.44
884.122	10.75
884.293	174.59
884.465	-56.83
884.637	113.15
884.809	-15.87
884.98	39.42
885.152	39.42
885.324	57.86
885.496	14.85
885.667	4.61
885.839	4.61
886.011	107.01
886.182	-15.87
886.354	70.14
886.525	88.57
886.697	78.33
886.869	27.14
887.04	35.33
887.212	68.09
887.383	86.53
887.555	41.47
887.726	16.9
887.897	23.04
888.069	33.28
888.24	37.38
888.412	-7.68
888.583	37.38
888.754	29.18
888.926	-26.11
889.097	10.75
889.268	-69.12
889.44	-32.26
889.611	-110.08
889.782	25.09
889.953	51.71
890.125	125.44
890.296	-30.21
890.467	-34.3
890.638	-24.06
890.809	74.24
890.98	18.94
891.151	-17.92
891.323	16.9
891.494	100.86
891.665	16.9
891.836	-22.02
892.007	23.04
892.178	51.71
892.349	-7.68
892.52	86.53
892.691	-24.06
892.862	33.28
893.032	-28.16
893.203	-30.21
893.374	-24.06
893.545	37.38
893.716	-1.54
893.887	-13.82
894.057	-17.92
894.228	8.7
894.399	23.04
894.57	29.18
894.74	90.62
894.911	-40.45
895.082	25.09
895.253	6.66
895.423	43.52
895.594	39.42
895.764	4.61
895.935	-44.54
896.106	-50.69
896.276	-50.69
896.447	-28.16
896.617	70.14
896.788	-24.06
896.958	12.8
897.129	-15.87
897.299	23.04
897.47	39.42
897.64	80.38
897.81	31.23
897.981	35.33
898.151	31.23
898.322	66.05
898.492	2.56
898.662	31.23
898.832	-1.54
899.003	-7.68
899.173	0.51
899.343	-15.87
899.513	-13.82
