Data from USB4F104151__79__12-12-50-651.txt Node

Date: Fri Mar 14 12:12:50 EDT 2025
User: louis
Spectrometer: USB4F10415
Trigger mode: 4
Integration Time (sec): 5.000000E-2
Scans to average: 1
Electric dark correction enabled: true
Nonlinearity correction enabled: false
Boxcar width: 0
XAxis mode: Wavelengths
Number of Pixels in Spectrum: 3648
>>>>>Begin Spectral Data<<<<<
178.204	-234.66
178.424	-234.66
178.644	-234.66
178.864	-158.89
179.084	-167.08
179.304	15.19
179.524	11.09
179.744	-33.96
179.964	-27.82
180.184	35.67
180.404	-3.24
180.624	-19.63
180.844	-33.96
181.064	-74.92
181.283	66.39
181.503	23.38
181.723	41.81
181.943	-85.16
182.163	86.87
182.383	-33.96
182.602	0.85
182.822	88.92
183.042	64.34
183.262	-5.29
183.482	7
183.701	68.44
183.921	13.14
184.141	4.95
184.361	117.59
184.58	31.57
184.8	19.29
185.02	19.29
185.239	4.95
185.459	31.57
185.679	111.44
185.898	-15.53
186.118	138.07
186.338	15.19
186.557	88.92
186.777	-60.59
186.997	54.1
187.216	11.09
187.436	97.11
187.655	127.83
187.875	82.77
188.095	35.67
188.314	58.2
188.534	39.76
188.753	-46.25
188.973	148.31
189.192	84.82
189.412	97.11
189.631	115.54
189.851	-7.34
190.07	76.63
190.29	-7.34
190.509	113.49
190.729	72.53
190.948	66.39
191.168	170.83
191.387	113.49
191.607	39.76
191.826	64.34
192.045	-29.87
192.265	64.34
192.484	33.62
192.704	2.9
192.923	-9.39
193.142	101.2
193.362	-1.19
193.581	99.16
193.8	39.76
194.02	97.11
194.239	72.53
194.458	146.26
194.678	43.86
194.897	50
195.116	-1.19
195.335	27.48
195.555	60.24
195.774	43.86
195.993	90.96
196.212	15.19
196.432	19.29
196.651	72.53
196.87	9.05
197.089	164.69
197.308	86.87
197.528	31.57
197.747	-66.73
197.966	17.24
198.185	113.49
198.404	29.52
198.623	115.54
198.842	103.25
199.062	111.44
199.281	148.31
199.5	58.2
199.719	13.14
199.938	97.11
200.157	56.15
200.376	76.63
200.595	86.87
200.814	47.96
201.033	50
201.252	88.92
201.471	78.68
201.69	146.26
201.909	-1.19
202.128	11.09
202.347	35.67
202.566	-11.43
202.785	58.2
203.004	-23.72
203.223	99.16
203.442	27.48
203.661	80.72
203.879	-3.24
204.098	15.19
204.317	-9.39
204.536	119.64
204.755	41.81
204.974	66.39
205.193	62.29
205.411	121.68
205.63	90.96
205.849	74.58
206.068	45.91
206.287	-15.53
206.505	29.52
206.724	45.91
206.943	-19.63
207.162	88.92
207.381	90.96
207.599	50
207.818	19.29
208.037	86.87
208.255	15.19
208.474	-7.34
208.693	37.72
208.911	58.2
209.13	23.38
209.349	33.62
209.567	99.16
209.786	39.76
210.005	93.01
210.223	31.57
210.442	-33.96
210.661	39.76
210.879	-31.91
211.098	103.25
211.316	0.85
211.535	115.54
211.753	50
211.972	117.59
212.191	41.81
212.409	-13.48
212.628	47.96
212.846	-52.39
213.065	-25.77
213.283	93.01
213.502	23.38
213.72	27.48
213.938	41.81
214.157	80.72
214.375	72.53
214.594	43.86
214.812	72.53
215.031	-33.96
215.249	-27.82
215.467	64.34
215.686	125.78
215.904	58.2
216.122	84.82
216.341	68.44
216.559	66.39
216.778	138.07
216.996	68.44
217.214	47.96
217.432	-17.58
217.651	-7.34
217.869	9.05
218.087	4.95
218.306	-5.29
218.524	66.39
218.742	-25.77
218.96	41.81
219.179	-11.43
219.397	-7.34
219.615	189.27
219.833	88.92
220.051	-27.82
220.27	113.49
220.488	78.68
220.706	29.52
220.924	-9.39
221.142	31.57
221.36	9.05
221.578	68.44
221.796	80.72
222.015	41.81
222.233	25.43
222.451	166.74
222.669	11.09
222.887	23.38
223.105	-3.24
223.323	37.72
223.541	-44.2
223.759	29.52
223.977	11.09
224.195	117.59
224.413	66.39
224.631	105.3
224.849	62.29
225.067	127.83
225.285	56.15
225.503	68.44
225.721	-31.91
225.939	39.76
226.157	52.05
226.375	86.87
226.592	54.1
226.81	-25.77
227.028	60.24
227.246	127.83
227.464	47.96
227.682	25.43
227.9	-33.96
228.117	23.38
228.335	72.53
228.553	11.09
228.771	80.72
228.989	23.38
229.206	54.1
229.424	-9.39
229.642	-25.77
229.86	25.43
230.077	31.57
230.295	45.91
230.513	54.1
230.731	60.24
230.948	25.43
231.166	88.92
231.384	4.95
231.601	11.09
231.819	99.16
232.037	64.34
232.254	-36.01
232.472	-3.24
232.689	-105.64
232.907	2.9
233.125	7
233.342	15.19
233.56	-3.24
233.777	72.53
233.995	39.76
234.213	103.25
234.43	54.1
234.648	-7.34
234.865	33.62
235.083	29.52
235.3	97.11
235.518	15.19
235.735	62.29
235.953	105.3
236.17	35.67
236.388	66.39
236.605	-31.91
236.822	60.24
237.04	50
237.257	7
237.475	-5.29
237.692	2.9
237.909	13.14
238.127	93.01
238.344	50
238.562	-5.29
238.779	103.25
238.996	39.76
239.214	-70.83
239.431	82.77
239.648	37.72
239.865	33.62
240.083	-40.11
240.3	-33.96
240.517	27.48
240.735	21.33
240.952	56.15
241.169	109.4
241.386	66.39
241.603	-33.96
241.821	-72.87
242.038	25.43
242.255	35.67
242.472	-7.34
242.689	45.91
242.907	19.29
243.124	27.48
243.341	23.38
243.558	52.05
243.775	76.63
243.992	-50.35
244.209	43.86
244.426	95.06
244.643	56.15
244.86	56.15
245.078	31.57
245.295	-31.91
245.512	125.78
245.729	-46.25
245.946	15.19
246.163	-31.91
246.38	99.16
246.597	47.96
246.814	43.86
247.031	25.43
247.248	23.38
247.464	56.15
247.681	54.1
247.898	39.76
248.115	-42.15
248.332	-13.48
248.549	54.1
248.766	138.07
248.983	86.87
249.2	58.2
249.417	-15.53
249.633	-25.77
249.85	86.87
250.067	80.72
250.284	17.24
250.501	-13.48
250.717	80.72
250.934	-25.77
251.151	13.14
251.368	21.33
251.585	45.91
251.801	39.76
252.018	9.05
252.235	117.59
252.451	25.43
252.668	-36.01
252.885	95.06
253.102	4.95
253.318	-31.91
253.535	60.24
253.752	23.38
253.968	-7.34
254.185	-23.72
254.401	52.05
254.618	39.76
254.835	41.81
255.051	113.49
255.268	62.29
255.484	29.52
255.701	11.09
255.917	33.62
256.134	21.33
256.351	19.29
256.567	9.05
256.784	17.24
257	-31.91
257.217	88.92
257.433	146.26
257.65	41.81
257.866	160.59
258.082	-11.43
258.299	52.05
258.515	-72.87
258.732	25.43
258.948	-56.49
259.165	68.44
259.381	-1.19
259.597	39.76
259.814	2.9
260.03	-31.91
260.246	39.76
260.463	47.96
260.679	129.88
260.895	7
261.112	43.86
261.328	9.05
261.544	13.14
261.761	58.2
261.977	15.19
262.193	-3.24
262.409	35.67
262.626	58.2
262.842	84.82
263.058	4.95
263.274	74.58
263.49	21.33
263.707	56.15
263.923	103.25
264.139	-56.49
264.355	76.63
264.571	56.15
264.787	4.95
265.004	78.68
265.22	2.9
265.436	-33.96
265.652	-44.2
265.868	-15.53
266.084	-15.53
266.3	64.34
266.516	-36.01
266.732	23.38
266.948	86.87
267.164	39.76
267.38	70.48
267.596	72.53
267.812	72.53
268.028	4.95
268.244	-95.4
268.46	25.43
268.676	47.96
268.892	80.72
269.108	11.09
269.324	7
269.54	-31.91
269.756	43.86
269.972	-1.19
270.188	64.34
270.403	-17.58
270.619	78.68
270.835	23.38
271.051	11.09
271.267	15.19
271.483	-44.2
271.698	74.58
271.914	68.44
272.13	25.43
272.346	0.85
272.562	97.11
272.777	82.77
272.993	62.29
273.209	17.24
273.425	19.29
273.64	-23.72
273.856	152.4
274.072	31.57
274.287	-25.77
274.503	78.68
274.719	45.91
274.934	62.29
275.15	-1.19
275.366	76.63
275.581	-46.25
275.797	115.54
276.012	29.52
276.228	29.52
276.444	4.95
276.659	101.2
276.875	62.29
277.09	43.86
277.306	19.29
277.521	64.34
277.737	2.9
277.952	70.48
278.168	-7.34
278.383	52.05
278.599	70.48
278.814	88.92
279.03	0.85
279.245	101.2
279.461	52.05
279.676	25.43
279.892	-9.39
280.107	47.96
280.322	13.14
280.538	4.95
280.753	-56.49
280.969	62.29
281.184	-17.58
281.399	146.26
281.615	17.24
281.83	125.78
282.045	138.07
282.26	15.19
282.476	35.67
282.691	50
282.906	-7.34
283.122	80.72
283.337	-23.72
283.552	33.62
283.767	-38.06
283.983	78.68
284.198	54.1
284.413	11.09
284.628	29.52
284.843	-17.58
285.058	84.82
285.274	4.95
285.489	33.62
285.704	101.2
285.919	33.62
286.134	64.34
286.349	70.48
286.564	70.48
286.779	111.44
286.995	62.29
287.21	-17.58
287.425	117.59
287.64	-21.67
287.855	29.52
288.07	-27.82
288.285	33.62
288.5	43.86
288.715	70.48
288.93	58.2
289.145	39.76
289.36	27.48
289.575	-40.11
289.79	68.44
290.004	68.44
290.219	156.5
290.434	52.05
290.649	11.09
290.864	39.76
291.079	-17.58
291.294	23.38
291.509	47.96
291.724	31.57
291.938	70.48
292.153	88.92
292.368	37.72
292.583	11.09
292.798	76.63
293.012	52.05
293.227	33.62
293.442	72.53
293.657	88.92
293.871	84.82
294.086	25.43
294.301	90.96
294.516	103.25
294.73	-11.43
294.945	-60.59
295.16	31.57
295.374	119.64
295.589	72.53
295.804	21.33
296.018	66.39
296.233	199.51
296.447	101.2
296.662	-31.91
296.877	80.72
297.091	25.43
297.306	-17.58
297.52	52.05
297.735	52.05
297.949	111.44
298.164	9.05
298.378	54.1
298.593	-3.24
298.807	-1.19
299.022	121.68
299.236	84.82
299.451	68.44
299.665	-7.34
299.88	33.62
300.094	4.95
300.309	31.57
300.523	78.68
300.737	-38.06
300.952	31.57
301.166	43.86
301.381	35.67
301.595	19.29
301.809	47.96
302.024	86.87
302.238	-85.16
302.452	76.63
302.667	23.38
302.881	152.4
303.095	109.4
303.309	54.1
303.524	33.62
303.738	60.24
303.952	-19.63
304.166	88.92
304.381	-15.53
304.595	101.2
304.809	-36.01
305.023	97.11
305.237	-13.48
305.452	41.81
305.666	68.44
305.88	37.72
306.094	109.4
306.308	82.77
306.522	47.96
306.736	66.39
306.95	127.83
307.164	45.91
307.379	4.95
307.593	129.88
307.807	70.48
308.021	88.92
308.235	84.82
308.449	-56.49
308.663	62.29
308.877	119.64
309.091	29.52
309.305	66.39
309.519	0.85
309.733	138.07
309.947	-5.29
310.161	93.01
310.374	93.01
310.588	35.67
310.802	11.09
311.016	-5.29
311.23	86.87
311.444	-56.49
311.658	27.48
311.872	103.25
312.085	-9.39
312.299	138.07
312.513	64.34
312.727	39.76
312.941	0.85
313.154	66.39
313.368	0.85
313.582	50
313.796	-1.19
314.009	74.58
314.223	68.44
314.437	4.95
314.651	80.72
314.864	-1.19
315.078	17.24
315.292	-66.73
315.505	7
315.719	70.48
315.933	17.24
316.146	31.57
316.36	-9.39
316.573	82.77
316.787	117.59
317.001	68.44
317.214	4.95
317.428	-50.35
317.641	-15.53
317.855	-7.34
318.068	107.35
318.282	2.9
318.495	193.36
318.709	101.2
318.922	-13.48
319.136	88.92
319.349	56.15
319.563	-13.48
319.776	-31.91
319.99	-54.44
320.203	56.15
320.417	64.34
320.63	15.19
320.843	62.29
321.057	64.34
321.27	4.95
321.483	97.11
321.697	80.72
321.91	-1.19
322.124	54.1
322.337	13.14
322.55	41.81
322.763	80.72
322.977	47.96
323.19	50
323.403	-15.53
323.617	78.68
323.83	-9.39
324.043	13.14
324.256	133.97
324.469	0.85
324.683	66.39
324.896	54.1
325.109	68.44
325.322	9.05
325.535	105.3
325.748	15.19
325.962	68.44
326.175	-1.19
326.388	33.62
326.601	80.72
326.814	54.1
327.027	52.05
327.24	82.77
327.453	-25.77
327.666	88.92
327.879	47.96
328.092	80.72
328.305	-44.2
328.518	-56.49
328.731	-64.68
328.944	52.05
329.157	56.15
329.37	19.29
329.583	37.72
329.796	60.24
330.009	4.95
330.222	90.96
330.435	66.39
330.648	27.48
330.861	52.05
331.073	35.67
331.286	76.63
331.499	74.58
331.712	-29.87
331.925	4.95
332.138	0.85
332.35	62.29
332.563	43.86
332.776	90.96
332.989	-7.34
333.202	54.1
333.414	2.9
333.627	41.81
333.84	-11.43
334.053	-27.82
334.265	-42.15
334.478	-40.11
334.691	-83.11
334.903	13.14
335.116	9.05
335.329	0.85
335.541	86.87
335.754	140.12
335.966	37.72
336.179	13.14
336.392	72.53
336.604	15.19
336.817	78.68
337.029	123.73
337.242	29.52
337.454	50
337.667	4.95
337.88	129.88
338.092	80.72
338.305	39.76
338.517	9.05
338.729	29.52
338.942	133.97
339.154	45.91
339.367	-25.77
339.579	27.48
339.792	-23.72
340.004	9.05
340.217	62.29
340.429	-9.39
340.641	52.05
340.854	-44.2
341.066	29.52
341.278	45.91
341.491	179.03
341.703	21.33
341.915	52.05
342.128	11.09
342.34	41.81
342.552	-15.53
342.764	4.95
342.977	-11.43
343.189	56.15
343.401	43.86
343.613	-31.91
343.826	70.48
344.038	23.38
344.25	52.05
344.462	-40.11
344.674	19.29
344.886	4.95
345.099	17.24
345.311	25.43
345.523	-9.39
345.735	-64.68
345.947	4.95
346.159	56.15
346.371	-1.19
346.583	-74.92
346.795	105.3
347.007	50
347.219	99.16
347.431	60.24
347.643	90.96
347.855	78.68
348.067	90.96
348.279	37.72
348.491	60.24
348.703	43.86
348.915	13.14
349.127	76.63
349.339	31.57
349.551	-27.82
349.763	78.68
349.975	29.52
350.187	31.57
350.399	117.59
350.61	35.67
350.822	29.52
351.034	103.25
351.246	35.67
351.458	93.01
351.669	21.33
351.881	64.34
352.093	101.2
352.305	76.63
352.517	97.11
352.728	109.4
352.94	9.05
353.152	43.86
353.363	4.95
353.575	62.29
353.787	35.67
353.999	-48.3
354.21	152.4
354.422	-19.63
354.633	64.34
354.845	4.95
355.057	56.15
355.268	66.39
355.48	84.82
355.692	-19.63
355.903	4.95
356.115	25.43
356.326	-29.87
356.538	37.72
356.749	97.11
356.961	64.34
357.172	60.24
357.384	-29.87
357.595	148.31
357.807	9.05
358.018	4.95
358.23	13.14
358.441	138.07
358.653	76.63
358.864	-74.92
359.075	2.9
359.287	4.95
359.498	97.11
359.709	70.48
359.921	103.25
360.132	41.81
360.344	-11.43
360.555	-52.39
360.766	88.92
360.977	17.24
361.189	115.54
361.4	60.24
361.611	47.96
361.823	115.54
362.034	101.2
362.245	9.05
362.456	-13.48
362.667	21.33
362.879	-40.11
363.09	-33.96
363.301	103.25
363.512	7
363.723	-9.39
363.935	-3.24
364.146	58.2
364.357	35.67
364.568	72.53
364.779	66.39
364.99	162.64
365.201	-21.67
365.412	131.92
365.623	-7.34
365.834	45.91
366.045	45.91
366.256	13.14
366.467	31.57
366.678	-1.19
366.889	43.86
367.1	-5.29
367.311	103.25
367.522	15.19
367.733	33.62
367.944	39.76
368.155	35.67
368.366	129.88
368.577	144.21
368.788	86.87
368.999	4.95
369.209	31.57
369.42	183.12
369.631	138.07
369.842	76.63
370.053	9.05
370.264	107.35
370.474	-1.19
370.685	-5.29
370.896	58.2
371.107	37.72
371.317	-3.24
371.528	-1.19
371.739	58.2
371.95	56.15
372.16	41.81
372.371	52.05
372.582	29.52
372.792	43.86
373.003	90.96
373.214	33.62
373.424	47.96
373.635	-11.43
373.846	66.39
374.056	-15.53
374.267	35.67
374.477	-13.48
374.688	15.19
374.898	54.1
375.109	37.72
375.319	70.48
375.53	47.96
375.74	76.63
375.951	11.09
376.161	58.2
376.372	58.2
376.582	-72.87
376.793	45.91
377.003	-31.91
377.214	21.33
377.424	101.2
377.635	39.76
377.845	-15.53
378.055	60.24
378.266	-31.91
378.476	-7.34
378.686	2.9
378.897	23.38
379.107	97.11
379.317	84.82
379.528	0.85
379.738	37.72
379.948	-17.58
380.158	47.96
380.369	-54.44
380.579	43.86
380.789	74.58
380.999	56.15
381.21	103.25
381.42	88.92
381.63	-50.35
381.84	78.68
382.05	0.85
382.261	80.72
382.471	72.53
382.681	41.81
382.891	99.16
383.101	-25.77
383.311	-44.2
383.521	58.2
383.731	95.06
383.941	93.01
384.151	35.67
384.361	33.62
384.571	25.43
384.781	62.29
384.991	142.16
385.201	105.3
385.411	97.11
385.621	123.73
385.831	115.54
386.041	39.76
386.251	74.58
386.461	117.59
386.671	62.29
386.881	76.63
387.091	78.68
387.301	72.53
387.511	68.44
387.72	60.24
387.93	47.96
388.14	-11.43
388.35	105.3
388.56	62.29
388.769	62.29
388.979	47.96
389.189	-13.48
389.399	23.38
389.609	-13.48
389.818	111.44
390.028	60.24
390.238	45.91
390.447	47.96
390.657	45.91
390.867	52.05
391.076	7
391.286	119.64
391.496	7
391.705	-25.77
391.915	117.59
392.125	45.91
392.334	11.09
392.544	148.31
392.753	88.92
392.963	-33.96
393.172	52.05
393.382	-15.53
393.591	146.26
393.801	31.57
394.01	111.44
394.22	52.05
394.429	70.48
394.639	74.58
394.848	105.3
395.058	105.3
395.267	-5.29
395.477	27.48
395.686	23.38
395.895	199.51
396.105	142.16
396.314	33.62
396.524	64.34
396.733	17.24
396.942	183.12
397.152	52.05
397.361	140.12
397.57	74.58
397.78	76.63
397.989	60.24
398.198	170.83
398.407	37.72
398.617	82.77
398.826	25.43
399.035	54.1
399.244	37.72
399.453	154.45
399.663	82.77
399.872	90.96
400.081	70.48
400.29	113.49
400.499	15.19
400.708	121.68
400.917	156.5
401.127	-25.77
401.336	31.57
401.545	99.16
401.754	82.77
401.963	86.87
402.172	76.63
402.381	39.76
402.59	56.15
402.799	68.44
403.008	152.4
403.217	-1.19
403.426	172.88
403.635	31.57
403.844	179.03
404.053	76.63
404.262	66.39
404.471	111.44
404.68	105.3
404.888	80.72
405.097	146.26
405.306	168.79
405.515	138.07
405.724	127.83
405.933	76.63
406.142	117.59
406.35	113.49
406.559	21.33
406.768	156.5
406.977	217.94
407.185	150.36
407.394	183.12
407.603	74.58
407.812	179.03
408.02	166.74
408.229	131.92
408.438	174.93
408.646	84.82
408.855	93.01
409.064	101.2
409.272	160.59
409.481	156.5
409.69	222.03
409.898	242.51
410.107	242.51
410.315	246.61
410.524	193.36
410.733	203.6
410.941	170.83
411.15	250.71
411.358	242.51
411.567	248.66
411.775	164.69
411.984	181.07
412.192	289.62
412.401	285.52
412.609	346.96
412.818	279.38
413.026	312.14
413.234	285.52
413.443	338.77
413.651	312.14
413.86	412.5
414.068	326.48
414.276	482.13
414.485	351.06
414.693	502.61
414.901	430.93
415.11	342.86
415.318	402.26
415.526	531.28
415.734	414.54
415.943	535.37
416.151	494.41
416.359	463.69
416.567	473.93
416.776	506.7
416.984	578.38
417.192	762.7
417.4	576.33
417.608	625.48
417.817	516.94
418.025	602.96
418.233	643.92
418.441	588.62
418.649	629.58
418.857	709.45
419.065	678.73
419.273	713.55
419.481	764.75
419.689	779.08
419.897	811.85
420.105	768.84
420.313	899.91
420.521	885.58
420.729	1024.84
420.937	953.16
421.145	1002.31
421.353	1061.7
421.561	1090.37
421.769	1270.59
421.977	1188.68
422.185	1153.86
422.393	1262.4
422.601	1368.9
422.809	1389.38
423.017	1264.45
423.224	1319.75
423.432	1491.77
423.64	1442.62
423.848	1600.32
424.056	1516.35
424.263	1596.22
424.471	1616.7
424.679	1723.2
424.887	1684.28
425.094	1739.58
425.302	1813.31
425.51	1796.92
425.718	1921.85
425.925	2007.86
426.133	2071.35
426.341	2075.45
426.548	2288.43
426.756	2157.36
426.964	2255.67
427.171	2362.16
427.379	2409.26
427.586	2480.94
427.794	2482.99
428.001	2814.76
428.209	2630.45
428.417	2624.3
428.624	2945.83
428.832	2968.36
429.039	2777.9
429.247	2792.23
429.454	3210.02
429.662	3343.14
429.869	3175.2
430.076	3416.87
430.284	3277.6
430.491	3453.73
430.699	3638.05
430.906	3607.33
431.114	3646.24
431.321	3795.74
431.528	3820.32
431.736	4139.8
431.943	4399.89
432.15	4080.41
432.358	4203.29
432.565	4408.08
432.772	4330.26
432.979	4602.64
433.187	4619.02
433.394	4786.96
433.601	5118.73
433.808	5034.76
434.016	5059.34
434.223	5196.55
434.43	5501.7
434.637	5436.16
434.844	5851.9
435.052	5876.48
435.259	5722.88
435.466	6091.51
435.673	5905.15
435.88	6177.53
436.087	6611.7
436.294	6454
436.501	6306.55
436.708	6494.96
436.915	6748.91
437.122	7031.53
437.329	6920.94
437.537	7293.67
437.743	7287.53
437.95	7381.73
438.157	7525.09
438.364	7985.88
438.571	8106.71
438.778	7873.25
438.985	8772.3
439.192	8393.43
439.399	8620.75
439.606	8395.48
439.813	8874.7
440.02	9728.7
440.227	9253.58
440.433	9151.18
440.64	9513.67
440.847	9306.82
441.054	9747.14
441.261	10433.21
441.467	10140.35
441.674	10453.69
441.881	10826.42
442.088	10730.16
442.294	10537.65
442.501	10887.86
442.708	11092.65
442.914	11772.58
443.121	12098.2
443.328	11842.21
443.534	12507.8
443.741	11823.78
443.948	11913.89
444.154	12935.82
444.361	12933.78
444.568	12901.01
444.774	13015.69
444.981	12974.74
445.187	13521.54
445.394	14015.1
445.6	13853.31
445.807	15172.21
446.013	14541.43
446.22	14643.83
446.426	15321.71
446.633	15458.92
446.839	15936.1
447.046	15213.17
447.252	16228.96
447.459	15929.95
447.665	15936.1
447.871	16765.53
448.078	17369.68
448.284	16675.41
448.491	17222.22
448.697	17873.48
448.903	18133.57
449.11	18072.13
449.316	17807.94
449.522	18086.47
449.728	18895.41
449.935	18917.94
450.141	18741.82
450.347	19264.05
450.553	18733.62
450.76	19151.41
450.966	19608.11
451.172	19008.05
451.378	19802.66
451.584	19272.24
451.791	19909.16
451.997	19923.49
452.203	20159.01
452.409	20226.59
452.615	20185.63
452.821	19520.04
453.027	19378.73
453.233	20281.89
453.44	19489.32
453.646	19624.49
453.852	19978.79
454.058	19921.45
454.264	19259.95
454.47	19720.74
454.676	19411.5
454.882	20171.3
455.088	18340.41
455.294	18598.46
455.5	18684.47
455.705	18836.02
455.911	18387.52
456.117	17781.32
456.323	17373.77
456.529	16904.79
456.735	17324.62
456.941	16859.73
457.147	16732.76
457.352	16114.27
457.558	16237.15
457.764	16056.93
457.97	15913.57
458.176	15516.26
458.381	15264.36
458.587	14754.42
458.793	14531.19
458.999	13587.08
459.204	14940.79
459.41	14430.84
459.616	13488.78
459.821	13578.89
460.027	13503.11
460.233	13208.2
460.438	12735.12
460.644	12587.67
460.85	12014.24
461.055	12100.25
461.261	11819.68
461.466	10861.23
461.672	10795.7
461.878	11459.24
462.083	10576.56
462.289	10377.91
462.494	10255.03
462.7	9982.65
462.905	9341.64
463.111	9781.95
463.316	10011.32
463.522	9773.76
463.727	9718.47
463.932	9650.88
464.138	9566.92
464.343	9589.44
464.549	9153.23
464.754	9538.24
464.959	9581.25
465.165	9495.24
465.37	9083.59
465.575	8780.5
465.781	9175.75
465.986	9063.12
466.191	8991.44
466.397	8630.99
466.602	8291.03
466.807	8461.01
467.012	8645.33
467.218	8526.55
467.423	8608.47
467.628	8407.77
467.833	8958.67
468.038	8499.92
468.244	8139.48
468.449	8798.93
468.654	8237.78
468.859	8483.54
469.064	8211.16
469.269	7848.67
469.474	7912.16
469.679	8147.67
469.885	7879.39
470.09	7852.77
470.295	7979.74
470.5	7686.88
470.705	7764.7
470.91	7682.78
471.115	7604.96
471.32	7527.14
471.525	7733.98
471.73	7500.51
471.935	7318.25
472.139	7166.7
472.344	7164.65
472.549	7178.98
472.754	7092.97
472.959	6845.16
473.164	6710
473.369	6630.13
473.574	7152.36
473.778	6859.5
473.983	6802.16
474.188	6673.14
474.393	6501.11
474.598	6638.32
474.802	6560.5
475.007	6329.08
475.212	6460.15
475.417	6230.77
475.621	6238.97
475.826	6198.01
476.031	6187.77
476.235	5952.25
476.44	6173.43
476.645	5999.35
476.849	5870.33
477.054	5743.36
477.259	5782.27
477.463	5782.27
477.668	5511.94
477.872	5708.54
478.077	5608.19
478.282	5436.16
478.486	5270.28
478.691	5399.3
478.895	5481.22
479.1	5454.59
479.304	5374.72
479.509	5040.9
479.713	5296.9
479.918	5057.29
480.122	4961.03
480.326	5108.49
480.531	5157.64
480.735	5221.13
480.94	5006.09
481.144	5112.58
481.348	4905.74
481.553	4969.23
481.757	4823.82
481.961	4979.47
482.166	5061.38
482.37	4877.07
482.574	4797.2
482.778	4789
482.983	5100.3
483.187	5073.67
483.391	4950.79
483.595	4967.18
483.8	4752.14
484.004	4903.69
484.208	4956.94
484.412	4801.29
484.616	4952.84
484.821	4836.11
485.025	4889.35
485.229	4862.73
485.433	4832.01
485.637	4961.03
485.841	4872.97
486.045	4754.19
486.249	4938.51
486.453	4936.46
486.657	4766.48
486.861	4698.89
487.065	4776.72
487.269	4813.58
487.473	4657.93
487.677	4793.1
487.881	5030.66
488.085	4881.16
488.289	4786.96
488.493	4866.83
488.697	4977.42
488.901	4823.82
489.105	4946.7
489.309	4838.16
489.512	4762.38
489.716	4784.91
489.92	4827.92
490.124	4956.94
490.328	5071.62
490.531	4786.96
490.735	4993.8
490.939	4983.56
491.143	5018.38
491.346	4971.27
491.55	4999.95
491.754	5010.18
491.958	5128.97
492.161	4993.8
492.365	4983.56
492.569	5104.39
492.772	5102.34
492.976	5102.34
493.18	5145.35
493.383	5102.34
493.587	5225.22
493.79	5161.73
493.994	5124.87
494.197	5372.68
494.401	5182.21
494.605	5290.76
494.808	5391.11
495.012	5389.06
495.215	5440.26
495.419	5446.4
495.622	5477.12
495.825	5614.34
496.029	5632.77
496.232	5591.81
496.436	5552.9
496.639	5796.6
496.843	5716.73
497.046	5698.3
497.249	6087.42
497.453	5812.99
497.656	6091.51
497.859	5763.84
498.063	6009.59
498.266	6238.97
498.469	6111.99
498.673	6218.49
498.876	6337.27
499.079	6341.36
499.282	6398.71
499.485	6497.01
499.689	6578.93
499.892	6761.2
500.095	6568.69
500.298	6681.33
500.501	6746.86
500.705	6953.71
500.908	6953.71
501.111	6959.85
501.314	7201.51
501.517	7164.65
501.72	7176.94
501.923	7289.57
502.126	7416.55
502.329	7627.49
502.532	7531.23
502.735	7746.27
502.938	7895.77
503.141	7783.13
503.344	7883.49
503.547	8041.18
503.75	7983.84
503.953	8207.06
504.156	8311.51
504.359	8252.12
504.562	8422.1
504.765	8436.44
504.968	8510.16
505.17	8811.21
505.373	8557.27
505.576	8764.11
505.779	9028.3
505.982	8893.13
506.185	9003.72
506.387	9095.88
506.59	9214.66
506.793	9198.28
506.996	9435.85
507.198	9476.8
507.401	9603.78
507.604	9648.83
507.807	9720.51
508.009	9867.97
508.212	9890.49
508.415	10048.19
508.617	10295.99
508.82	10158.78
509.022	10185.4
509.225	10605.24
509.428	10377.91
509.63	10547.89
509.833	10740.4
510.035	10777.26
510.238	10894
510.44	10937.01
510.643	11104.94
510.845	11053.74
511.048	11309.74
511.25	11233.96
511.453	11162.28
511.655	11758.24
511.858	11707.04
512.06	11655.84
512.262	11774.63
512.465	11836.06
512.667	12055.2
512.87	12257.95
513.072	12102.3
513.274	12333.72
513.477	12546.71
513.679	12655.25
513.881	12624.53
514.084	12722.84
514.286	12751.51
514.488	12831.38
514.69	13410.95
514.893	13169.29
515.095	13259.4
515.297	13277.83
515.499	13552.26
515.701	13427.34
515.904	13714.05
516.106	13982.34
516.308	14066.3
516.51	13832.83
516.712	14101.12
516.914	14361.21
517.116	14289.53
517.318	14533.24
517.52	14387.83
517.722	14529.14
517.925	14830.2
518.127	14776.95
518.329	15225.45
518.531	14709.36
518.733	15055.47
518.935	15192.69
519.136	15080.05
519.338	15262.32
519.54	15581.8
519.742	15602.28
519.944	15618.66
520.146	16065.12
520.348	15886.95
520.55	16325.21
520.752	16099.94
520.954	16374.36
521.155	16032.35
521.357	16142.94
521.559	16693.85
521.761	16290.4
521.963	16677.46
522.164	16585.3
522.366	16740.95
522.568	16833.11
522.77	17027.67
522.971	17164.88
523.173	17033.81
523.375	17246.8
523.576	17226.32
523.778	17330.76
523.98	17414.73
524.181	17541.71
524.383	17510.99
524.584	17570.38
524.786	17410.64
524.988	17527.37
525.189	17857.09
525.391	17859.14
525.592	18037.31
525.794	18098.75
525.995	18035.27
526.197	17949.25
526.398	18145.86
526.6	18235.97
526.801	18240.06
527.003	18174.53
527.204	18369.09
527.406	18416.19
527.607	18426.43
527.808	18563.64
528.01	18205.25
528.211	18270.78
528.412	18844.21
528.614	18508.35
528.815	18508.35
529.016	18893.37
529.218	18373.18
529.419	18696.76
529.62	18682.42
529.822	18637.37
530.023	18917.94
530.224	18891.32
530.425	18989.62
530.626	18858.55
530.828	18516.54
531.029	18971.19
531.23	18848.31
531.431	18772.53
531.632	18864.69
531.833	18924.08
532.035	19083.83
532.236	19028.53
532.437	18784.82
532.638	18811.45
532.839	19067.44
533.04	19087.92
533.241	18999.86
533.442	18995.76
533.643	18969.14
533.844	19081.78
534.045	18752.06
534.246	18606.65
534.447	19108.4
534.648	18721.34
534.849	18915.89
535.05	18641.46
535.251	18936.37
535.451	18887.22
535.652	18881.08
535.853	18950.71
536.054	19167.79
536.255	18762.3
536.456	18940.47
536.657	19313.2
536.857	18948.66
537.058	18784.82
537.259	18893.37
537.46	18919.99
537.66	18944.56
537.861	18956.85
538.062	18780.73
538.263	18954.8
538.463	19079.73
538.664	18600.51
538.865	18889.27
539.065	18901.56
539.266	19171.89
539.466	19051.06
539.667	18551.35
539.868	18911.8
540.068	18903.6
540.269	18676.28
540.469	18737.72
540.67	18907.7
540.87	18647.61
541.071	18766.39
541.271	18911.8
541.472	18696.76
541.672	18854.45
541.873	18623.03
542.073	18588.22
542.274	18946.61
542.474	18848.31
542.675	18547.26
542.875	18700.86
543.075	18727.48
543.276	18577.98
543.476	18891.32
543.676	18502.2
543.877	18930.23
544.077	18782.77
544.277	18684.47
544.478	18643.51
544.678	18713.14
544.878	18911.8
545.078	18637.37
545.279	18608.7
545.479	18414.14
545.679	18856.5
545.879	18639.42
546.079	18553.4
546.28	18510.39
546.48	18471.48
546.68	18883.13
546.88	18717.24
547.08	18711.1
547.28	18526.78
547.48	18219.58
547.68	18627.13
547.88	18627.13
548.081	18657.85
548.281	18381.37
548.481	18285.12
548.681	18919.99
548.881	18426.43
549.081	18500.16
549.28	18592.31
549.48	18522.68
549.68	18489.92
549.88	18917.94
550.08	18455.1
550.28	18731.58
550.48	18524.73
550.68	18690.62
550.88	18285.12
551.08	18534.97
551.279	18565.69
551.479	18346.56
551.679	18569.79
551.879	18217.54
552.079	18459.2
552.278	18336.32
552.478	18633.27
552.678	18590.27
552.878	18643.51
553.077	18209.34
553.277	18102.85
553.477	18399.8
553.676	18588.22
553.876	18471.48
554.076	18326.08
554.275	18559.55
554.475	18303.55
554.674	18250.3
554.874	18291.26
555.074	18375.23
555.273	18410.04
555.473	18383.42
555.672	18219.58
555.872	18195.01
556.071	18262.59
556.271	18276.93
556.47	18440.76
556.67	18205.25
556.869	18278.97
557.068	18606.65
557.268	18090.56
557.467	18389.56
557.667	18387.52
557.866	18326.08
558.065	18096.71
558.265	17992.26
558.464	18180.67
558.663	18475.58
558.863	17832.52
559.062	18321.98
559.261	17779.27
559.461	18240.06
559.66	17893.96
559.859	17953.35
560.058	17939.01
560.258	17914.44
560.457	17979.97
560.656	18170.43
560.855	17807.94
561.054	18115.14
561.253	17939.01
561.453	18012.74
561.652	18111.04
561.851	17881.67
562.05	17920.58
562.249	17830.47
562.448	18049.6
562.647	18221.63
562.846	17807.94
563.045	17859.14
563.244	17650.25
563.443	17891.91
563.642	17633.86
563.841	18100.8
564.04	17756.74
564.239	17918.53
564.438	17844.81
564.637	17756.74
564.836	17910.34
565.035	17568.33
565.234	17836.61
565.432	17908.29
565.631	17621.58
565.83	17805.89
566.029	17570.38
566.228	17742.41
566.427	17580.62
566.625	17449.55
566.824	17494.6
567.023	17965.64
567.222	17277.52
567.42	17746.5
567.619	17809.99
567.818	17441.36
568.016	17435.21
568.215	17764.93
568.414	17519.18
568.612	17539.66
568.811	17298
569.01	17418.83
569.208	17166.93
569.407	17394.25
569.605	17216.08
569.804	17517.13
570.002	17121.87
570.201	17318.48
570.4	17185.36
570.598	17238.61
570.797	17009.23
570.995	17164.88
571.193	16994.9
571.392	17185.36
571.59	17013.33
571.789	16982.61
571.987	16900.69
572.186	17171.02
572.384	17168.98
572.582	16990.8
572.781	17144.4
572.979	16894.55
573.177	17072.72
573.376	17115.73
573.574	16966.23
573.772	16857.68
573.971	16898.64
574.169	16824.92
574.367	16837.2
574.565	16749.14
574.763	16798.29
574.962	16763.48
575.16	16630.36
575.358	17011.28
575.556	16616.02
575.754	16976.47
575.952	16671.32
576.151	16702.04
576.349	16446.04
576.547	16527.96
576.745	16622.17
576.943	16599.64
577.141	16853.59
577.339	16659.03
577.537	16499.29
577.735	16439.9
577.933	16593.5
578.131	16581.21
578.329	16341.6
578.527	16122.46
578.725	16437.85
578.923	16257.63
579.121	15979.11
579.319	16183.9
579.516	16593.5
579.714	16560.73
579.912	15888.99
580.11	16032.35
580.308	16001.63
580.506	16110.18
580.704	15798.88
580.901	15962.72
581.099	16054.88
581.297	15833.7
581.495	15960.67
581.692	16212.57
581.89	15727.21
582.088	15979.11
582.285	15702.63
582.483	15962.72
582.681	15768.16
582.878	15420.01
583.076	15710.82
583.274	15768.16
583.471	15626.85
583.669	15682.15
583.866	15483.5
584.064	15528.55
584.262	15368.81
584.459	15434.35
584.657	15598.18
584.854	15553.13
585.052	15188.59
585.249	15280.75
585.447	15331.95
585.644	15166.06
585.841	15180.4
586.039	15393.39
586.236	15215.21
586.434	15067.76
586.631	15006.32
586.828	15151.73
587.026	15116.91
587.223	14807.67
587.42	15073.9
587.618	14987.89
587.815	15010.42
588.012	14893.68
588.21	14875.25
588.407	15084.14
588.604	14762.61
588.801	14701.17
588.999	14705.27
589.196	14994.03
589.393	14580.34
589.59	14770.8
589.787	14674.55
589.984	14584.44
590.182	14373.5
590.379	14678.65
590.576	14666.36
590.773	14529.14
590.97	14344.83
591.167	14330.49
591.364	14324.35
591.561	14285.44
591.758	14373.5
591.955	14527.1
592.152	14226.04
592.349	14170.75
592.546	14076.54
592.743	14176.89
592.94	13800.07
593.137	14336.63
593.334	14074.49
593.531	13963.9
593.727	13992.58
593.924	14029.44
594.121	13818.5
594.318	13951.62
594.515	13793.92
594.712	14062.21
594.908	13750.92
595.105	13996.67
595.302	13724.29
595.499	13671.04
595.696	13550.21
595.892	13525.64
596.089	13845.12
596.286	13865.6
596.482	13494.92
596.679	13535.88
596.876	13736.58
597.072	13658.76
597.269	13716.1
597.466	13476.49
597.662	13273.74
597.859	13539.97
598.055	13226.64
598.252	13374.09
598.448	13488.78
598.645	13288.07
598.841	13136.52
599.038	13296.27
599.234	13339.27
599.431	13286.03
599.627	13357.71
599.824	13378.19
600.02	13030.03
600.217	12984.98
600.413	13013.65
600.609	12984.98
600.806	13091.47
601.002	12941.97
601.198	12956.3
601.395	12645.01
601.591	12776.08
601.787	12819.09
601.984	12874.38
602.18	13036.17
602.376	12597.91
602.572	12851.86
602.769	12825.23
602.965	12659.35
603.161	12636.82
603.357	12741.27
603.553	12573.33
603.75	12737.17
603.946	12507.8
604.142	12542.61
604.338	12706.45
604.534	12472.98
604.73	12466.84
604.926	12409.5
605.122	12452.5
605.318	12151.45
605.514	12477.08
605.71	12538.52
605.906	12485.27
606.102	12305.05
606.298	12368.54
606.494	12188.32
606.69	12493.46
606.886	12100.25
607.082	12061.34
607.278	12030.62
607.474	11926.18
607.67	12098.2
607.866	12016.29
608.062	12364.44
608.257	12094.11
608.453	11930.27
608.649	11987.61
608.845	11967.13
609.041	11891.36
609.236	12139.16
609.432	12073.63
609.628	11827.87
609.824	11956.89
610.019	11842.21
610.215	11854.5
610.411	11809.44
610.606	11838.11
610.802	11872.93
610.998	11702.95
611.193	11891.36
611.389	11889.31
611.584	11733.67
611.78	11618.98
611.976	11612.84
612.171	11823.78
612.367	11692.71
612.562	11545.25
612.758	11383.46
612.953	11688.61
613.149	11676.32
613.344	11436.71
613.539	11539.11
613.735	11836.06
613.93	11614.88
614.126	11307.69
614.321	11674.28
614.517	11659.94
614.712	11580.07
614.907	11389.61
615.103	11606.69
615.298	11266.73
615.493	11471.53
615.688	11293.35
615.884	11729.57
616.079	11422.38
616.274	11401.9
616.47	11342.5
616.665	11365.03
616.86	11205.29
617.055	11285.16
617.25	11051.69
617.445	11514.53
617.641	11033.26
617.836	11219.63
618.031	11238.06
618.226	11252.39
618.421	11154.09
618.616	11160.24
618.811	10904.24
619.006	11117.23
619.201	10910.38
619.396	10797.74
619.591	10969.77
619.786	10914.48
619.981	10902.19
620.176	10975.92
620.371	10771.12
620.566	10916.53
620.761	10799.79
620.956	10758.83
621.151	10857.14
621.346	10756.79
621.541	10517.17
621.735	10617.52
621.93	10435.25
622.125	10556.08
622.32	10298.04
622.515	10373.82
622.709	10275.51
622.904	10207.93
623.099	10300.09
623.294	10277.56
623.488	10164.92
623.683	10203.83
623.878	10033.85
624.072	10271.42
624.267	10027.71
624.462	9935.55
624.656	9689.79
624.851	9718.47
625.046	9712.32
625.24	9579.2
625.435	9614.02
625.629	9743.04
625.824	9616.07
626.018	9568.96
626.213	9349.83
626.407	9577.16
626.602	9441.99
626.796	9476.8
626.991	9382.6
627.185	9413.32
627.38	9183.95
627.574	9126.6
627.768	9226.95
627.963	9163.47
628.157	9026.25
628.352	9102.03
628.546	8897.23
628.74	9032.4
628.935	8948.43
629.129	8841.93
629.323	8809.17
629.517	8856.27
629.712	8602.32
629.906	8721.1
630.1	8508.12
630.294	8571.6
630.489	8487.64
630.683	8698.58
630.877	8268.5
631.071	8440.53
631.265	8426.2
631.459	8372.95
631.653	8127.19
631.848	8532.69
632.042	8186.58
632.236	8166.1
632.43	8073.95
632.624	8233.69
632.818	8112.86
633.012	7955.16
633.206	8092.38
633.4	7879.39
633.594	7899.87
633.788	8000.22
633.982	7873.25
634.176	8028.89
634.369	7957.21
634.563	7742.18
634.757	7504.61
634.951	7633.63
635.145	7633.63
635.339	7699.17
635.533	7543.52
635.726	7566.05
635.92	7363.3
636.114	7500.51
636.308	7420.64
636.501	7455.46
636.695	7461.6
636.889	7111.4
637.083	7394.02
637.276	7363.3
637.47	7052.01
637.664	7170.79
637.857	7027.43
638.051	7164.65
638.244	7066.35
638.438	7088.87
638.632	7000.81
638.825	6779.63
639.019	7105.26
639.212	6927.08
639.406	6968.04
639.599	6652.66
639.793	6748.91
639.986	6775.53
640.18	6785.77
640.373	6630.13
640.567	6742.77
640.76	6812.4
640.954	6550.26
641.147	6666.99
641.34	6337.27
641.534	6558.45
641.727	6472.43
641.92	6374.13
642.114	6200.05
642.307	6224.63
642.5	6372.08
642.694	6079.22
642.887	6218.49
643.08	6429.43
643.273	6232.82
643.467	6216.44
643.66	6111.99
643.853	6019.83
644.046	5958.39
644.239	6071.03
644.432	6017.79
644.626	5956.35
644.819	5763.84
645.012	5935.87
645.205	5772.03
645.398	5970.68
645.591	5759.74
645.784	5759.74
645.977	5700.35
646.17	5849.85
646.363	5667.58
646.556	5563.14
646.749	5552.9
646.942	5671.68
647.135	5626.62
647.328	5448.45
647.521	5503.75
647.714	5391.11
647.907	5384.96
648.099	5411.59
648.292	5296.9
648.485	5407.49
648.678	5206.79
648.871	5325.57
649.064	5124.87
649.256	5131.02
649.449	5135.11
649.642	5128.97
649.835	5053.19
650.027	4975.37
650.22	5083.91
650.413	5024.52
650.605	5104.39
650.798	5014.28
650.991	5034.76
651.183	5124.87
651.376	4862.73
651.568	5016.33
651.761	5016.33
651.954	4815.63
652.146	4844.3
652.339	4920.07
652.531	4707.09
652.724	4768.52
652.916	4606.74
653.109	4512.53
653.301	4557.58
653.494	4729.61
653.686	4659.98
653.879	4674.32
654.071	4520.72
654.263	4436.75
654.456	4569.87
654.648	4420.37
654.84	4399.89
655.033	4387.6
655.225	4338.45
655.417	4274.96
655.61	4401.94
655.802	4522.77
655.994	4324.12
656.186	4348.69
656.379	4422.42
656.571	4215.57
656.763	4150.04
656.955	4291.35
657.148	4279.06
657.34	4215.57
657.532	4125.46
657.724	4127.51
657.916	4133.65
658.108	4174.61
658.3	4121.37
658.492	4061.98
658.684	3848.99
658.876	4010.78
659.068	3990.3
659.26	3857.18
659.452	3902.23
659.644	3824.41
659.836	3998.49
660.028	3867.42
660.22	3877.66
660.412	3840.79
660.604	3836.7
660.796	3810.08
660.988	3760.92
661.18	3777.31
661.372	3709.72
661.563	3767.07
661.755	3486.5
661.947	3722.01
662.139	3662.62
662.331	3543.84
662.522	3590.94
662.714	3494.69
662.906	3679.01
663.097	3570.46
663.289	3449.63
663.481	3615.52
663.673	3562.27
663.864	3425.06
664.056	3549.98
664.247	3515.17
664.439	3375.91
664.631	3636
664.822	3406.63
665.014	3398.43
665.205	3427.11
665.397	3320.61
665.588	3369.76
665.78	3347.23
665.971	3281.7
666.163	3269.41
666.354	3238.69
666.546	3291.94
666.737	3345.19
666.929	3226.4
667.12	3187.49
667.311	3248.93
667.503	3144.49
667.694	3056.42
667.885	3152.68
668.077	3111.72
668.268	3085.09
668.459	3146.53
668.651	3179.3
668.842	3263.27
669.033	3048.23
669.224	3152.68
669.416	3261.22
669.607	3046.18
669.798	2980.65
669.989	3035.94
670.18	2968.36
670.371	3050.28
670.563	2847.53
670.754	2951.98
670.945	2943.78
671.136	2935.59
671.327	2896.68
671.518	3001.13
671.709	3042.09
671.9	2908.97
672.091	2986.79
672.282	2935.59
672.473	3052.33
672.664	2874.15
672.855	2878.25
673.046	2896.68
673.237	2921.26
673.428	2829.1
673.619	2806.57
673.809	2847.53
674	2792.23
674.191	2861.87
674.382	2781.99
674.573	2917.16
674.764	2827.05
674.954	2865.96
675.145	2720.56
675.336	2825
675.527	2863.91
675.717	2796.33
675.908	2755.37
676.099	2679.6
676.289	2738.99
676.48	2644.78
676.671	2573.1
676.861	2644.78
677.052	2734.89
677.243	2620.21
677.433	2673.45
677.624	2747.18
677.814	2650.92
678.005	2681.64
678.195	2671.4
678.386	2644.78
678.576	2655.02
678.767	2638.64
678.957	2562.86
679.148	2636.59
679.338	2685.74
679.529	2667.31
679.719	2605.87
679.909	2671.4
680.1	2587.44
680.29	2667.31
680.481	2667.31
680.671	2693.93
680.861	2712.36
681.052	2575.15
681.242	2560.81
681.432	2626.35
681.622	2575.15
681.813	2503.47
682.003	2632.49
682.193	2487.09
682.383	2626.35
682.573	2577.2
682.764	2499.38
682.954	2636.59
683.144	2612.01
683.334	2616.11
683.524	2552.62
683.714	2534.19
683.904	2575.15
684.094	2569.01
684.284	2571.05
684.474	2751.28
684.664	2478.9
684.854	2583.34
685.044	2550.57
685.234	2560.81
685.424	2505.52
685.614	2485.04
685.804	2554.67
685.994	2661.16
686.184	2419.5
686.374	2593.58
686.564	2493.23
686.753	2521.9
686.943	2505.52
687.133	2417.46
687.323	2544.43
687.513	2546.48
687.702	2515.76
687.892	2480.94
688.082	2544.43
688.272	2446.13
688.461	2435.89
688.651	2599.73
688.841	2386.74
689.03	2372.4
689.22	2503.47
689.41	2470.7
689.599	2497.33
689.789	2325.3
689.979	2349.87
690.168	2315.06
690.358	2374.45
690.547	2327.35
690.737	2255.67
690.926	2220.85
691.116	2259.76
691.305	2403.12
691.495	2259.76
691.684	2286.39
691.874	2308.91
692.063	2274.1
692.252	2362.16
692.442	2329.39
692.631	2216.76
692.82	2227
693.01	2325.3
693.199	2347.83
693.388	2153.27
693.578	2171.7
693.767	2186.04
693.956	2302.77
694.146	2292.53
694.335	2280.24
694.524	2343.73
694.713	2210.61
694.902	2155.32
695.092	2272.05
695.281	2220.85
695.47	2235.19
695.659	2261.81
695.848	2253.62
696.037	2259.76
696.226	2321.2
696.415	2310.96
696.604	2323.25
696.793	2214.71
696.982	2304.82
697.171	2366.26
697.36	2218.8
697.549	2153.27
697.738	2192.18
697.927	2280.24
698.116	2366.26
698.305	2206.52
698.494	2327.35
698.683	2196.28
698.872	2284.34
699.061	2257.71
699.25	2362.16
699.438	2288.43
699.627	2292.53
699.816	2460.46
700.005	2335.54
700.193	2392.88
700.382	2421.55
700.571	2446.13
700.76	2308.91
700.948	2282.29
701.137	2362.16
701.326	2265.91
701.514	2313.01
701.703	2480.94
701.892	2298.67
702.08	2528.05
702.269	2394.93
702.457	2476.85
702.646	2442.03
702.834	2392.88
703.023	2526
703.212	2491.18
703.4	2439.98
703.589	2382.64
703.777	2403.12
703.965	2327.35
704.154	2319.15
704.342	2349.87
704.531	2388.78
704.719	2454.32
704.907	2528.05
705.096	2462.51
705.284	2327.35
705.472	2431.79
705.661	2511.66
705.849	2480.94
706.037	2464.56
706.226	2417.46
706.414	2419.5
706.602	2532.14
706.79	2526
706.979	2466.61
707.167	2431.79
707.355	2446.13
707.543	2532.14
707.731	2544.43
707.919	2495.28
708.107	2554.67
708.296	2528.05
708.484	2530.09
708.672	2454.32
708.86	2644.78
709.048	2530.09
709.236	2564.91
709.424	2480.94
709.612	2505.52
709.8	2603.82
709.988	2460.46
710.176	2577.2
710.364	2554.67
710.551	2620.21
710.739	2480.94
710.927	2544.43
711.115	2501.42
711.303	2495.28
711.491	2442.03
711.679	2605.87
711.866	2564.91
712.054	2597.68
712.242	2579.25
712.43	2614.06
712.617	2552.62
712.805	2526
712.993	2581.29
713.181	2437.94
713.368	2587.44
713.556	2614.06
713.744	2562.86
713.931	2734.89
714.119	2550.57
714.306	2644.78
714.494	2728.75
714.682	2515.76
714.869	2523.95
715.057	2521.9
715.244	2519.85
715.432	2630.45
715.619	2636.59
715.807	2620.21
715.994	2601.77
716.182	2554.67
716.369	2667.31
716.556	2622.25
716.744	2677.55
716.931	2554.67
717.119	2677.55
717.306	2601.77
717.493	2661.16
717.681	2622.25
717.868	2634.54
718.055	2681.64
718.242	2644.78
718.43	2630.45
718.617	2585.39
718.804	2575.15
718.991	2609.97
719.179	2554.67
719.366	2691.88
719.553	2636.59
719.74	2749.23
719.927	2622.25
720.114	2526
720.301	2628.4
720.488	2605.87
720.676	2489.14
720.863	2599.73
721.05	2810.67
721.237	2630.45
721.424	2548.53
721.611	2714.41
721.798	2558.77
721.985	2454.32
722.172	2579.25
722.358	2577.2
722.545	2726.7
722.732	2556.72
722.919	2644.78
723.106	2704.17
723.293	2708.27
723.48	2526
723.667	2630.45
723.853	2609.97
724.04	2648.88
724.227	2630.45
724.414	2550.57
724.6	2636.59
724.787	2671.4
724.974	2767.66
725.161	2548.53
725.347	2644.78
725.534	2550.57
725.72	2630.45
725.907	2591.53
726.094	2669.36
726.28	2573.1
726.467	2505.52
726.653	2554.67
726.84	2638.64
727.027	2573.1
727.213	2493.23
727.4	2636.59
727.586	2458.42
727.773	2429.74
727.959	2450.22
728.145	2493.23
728.332	2558.77
728.518	2593.58
728.705	2470.7
728.891	2425.65
729.077	2556.72
729.264	2468.66
729.45	2456.37
729.636	2648.88
729.823	2521.9
730.009	2493.23
730.195	2552.62
730.382	2593.58
730.568	2474.8
730.754	2501.42
730.94	2681.64
731.126	2616.11
731.313	2564.91
731.499	2554.67
731.685	2591.53
731.871	2480.94
732.057	2554.67
732.243	2587.44
732.429	2542.38
732.615	2612.01
732.801	2464.56
732.987	2499.38
733.173	2534.19
733.359	2505.52
733.545	2497.33
733.731	2360.11
733.917	2554.67
734.103	2511.66
734.289	2716.46
734.475	2480.94
734.661	2546.48
734.847	2403.12
735.033	2444.08
735.219	2485.04
735.404	2341.68
735.59	2487.09
735.776	2384.69
735.962	2478.9
736.148	2474.8
736.333	2392.88
736.519	2335.54
736.705	2450.22
736.89	2470.7
737.076	2421.55
737.262	2278.19
737.447	2298.67
737.633	2181.94
737.819	2401.07
738.004	2251.57
738.19	2396.98
738.375	2302.77
738.561	2392.88
738.747	2368.31
738.932	2319.15
739.118	2378.55
739.303	2261.81
739.489	2331.44
739.674	2200.37
739.859	2284.34
740.045	2313.01
740.23	2247.48
740.416	2263.86
740.601	2259.76
740.786	2364.21
740.972	2284.34
741.157	2257.71
741.342	2298.67
741.528	2237.24
741.713	2177.84
741.898	2179.89
742.084	2265.91
742.269	2155.32
742.454	2186.04
742.639	2163.51
742.824	2155.32
743.01	2198.32
743.195	2280.24
743.38	2128.69
743.565	2116.41
743.75	2192.18
743.935	2173.75
744.12	2177.84
744.305	2198.32
744.49	2028.34
744.675	2065.21
744.86	2022.2
745.045	2026.29
745.23	2108.21
745.415	1981.24
745.6	2114.36
745.785	2028.34
745.97	2057.01
746.155	2009.91
746.34	2036.53
746.525	2042.68
746.71	2122.55
746.895	1850.17
747.079	1907.51
747.264	1897.27
747.449	1925.94
747.634	1997.62
747.819	1862.46
748.003	1913.66
748.188	1821.5
748.373	1882.94
748.557	1778.49
748.742	1884.98
748.927	1827.64
749.111	1782.59
749.296	1807.16
749.481	1835.83
749.665	1770.3
749.85	1678.14
750.034	1622.84
750.219	1760.06
750.404	1692.48
750.588	1780.54
750.773	1741.63
750.957	1680.19
751.141	1680.19
751.326	1733.43
751.51	1583.93
751.695	1684.28
751.879	1768.25
752.064	1698.62
752.248	1514.3
752.432	1721.15
752.617	1637.18
752.801	1667.9
752.985	1606.46
753.17	1606.46
753.354	1610.56
753.538	1555.26
753.722	1702.72
753.907	1487.68
754.091	1434.43
754.275	1549.12
754.459	1401.66
754.643	1530.69
754.828	1528.64
755.012	1442.62
755.196	1479.49
755.38	1481.53
755.564	1356.61
755.748	1434.43
755.932	1377.09
756.116	1524.54
756.3	1442.62
756.484	1379.14
756.668	1389.38
756.852	1299.27
757.036	1366.85
757.22	1370.94
757.404	1424.19
757.588	1254.21
757.772	1295.17
757.956	1270.59
758.14	1323.84
758.323	1278.79
758.507	1313.6
758.691	1276.74
758.875	1250.11
759.059	1241.92
759.242	1233.73
759.426	1299.27
759.61	1225.54
759.794	1102.66
759.977	1178.44
760.161	1243.97
760.345	1219.39
760.528	1264.45
760.712	1276.74
760.895	1100.61
761.079	1182.53
761.263	1069.89
761.446	1190.72
761.63	1133.38
761.813	1139.52
761.997	1076.04
762.18	1076.04
762.364	1141.57
762.547	1012.55
762.731	1162.05
762.914	1112.9
763.098	1157.96
763.281	1135.43
763.464	1162.05
763.648	1045.32
763.831	1092.42
764.015	1043.27
764.198	1125.19
764.381	1004.36
764.564	1180.48
764.748	1100.61
764.931	1065.8
765.114	1055.56
765.297	1092.42
765.481	963.4
765.664	1065.8
765.847	977.73
766.03	1151.81
766.213	953.16
766.397	1125.19
766.58	1000.26
766.763	1049.41
766.946	947.01
767.129	1049.41
767.312	969.54
767.495	994.12
767.678	906.06
767.861	938.82
768.044	1045.32
768.227	926.54
768.41	959.3
768.593	1033.03
768.776	1010.5
768.959	932.68
769.142	1102.66
769.324	975.69
769.507	998.21
769.69	971.59
769.873	1020.74
770.056	1016.65
770.239	924.49
770.421	1004.36
770.604	998.21
770.787	947.01
770.97	979.78
771.152	928.58
771.335	1063.75
771.518	891.72
771.7	918.34
771.883	957.25
772.066	910.15
772.248	906.06
772.431	957.25
772.613	869.19
772.796	887.62
772.978	961.35
773.161	955.21
773.343	899.91
773.526	805.71
773.708	754.51
773.891	834.38
774.073	789.32
774.256	799.56
774.438	893.77
774.621	852.81
774.803	951.11
774.985	838.47
775.168	840.52
775.35	787.27
775.532	783.18
775.715	793.42
775.897	815.94
776.079	711.5
776.261	727.88
776.444	777.03
776.626	711.5
776.808	756.55
776.99	774.99
777.173	707.4
777.355	762.7
777.537	721.74
777.719	752.46
777.901	791.37
778.083	623.44
778.265	668.49
778.447	723.79
778.629	674.64
778.811	766.79
778.993	674.64
779.175	766.79
779.357	635.72
779.539	600.91
779.721	672.59
779.903	670.54
780.085	648.01
780.267	744.27
780.449	656.2
780.631	664.4
780.812	598.86
780.994	594.76
781.176	643.92
781.358	551.76
781.54	580.43
781.721	662.35
781.903	645.96
782.085	572.24
782.267	623.44
782.448	576.33
782.63	596.81
782.812	586.57
782.993	617.29
783.175	598.86
783.357	553.8
783.538	518.99
783.72	553.8
783.901	645.96
784.083	541.52
784.264	529.23
784.446	521.04
784.627	512.85
784.809	588.62
784.99	471.89
785.172	510.8
785.353	594.76
785.535	533.33
785.716	535.37
785.897	451.41
786.079	488.27
786.26	463.69
786.441	564.04
786.623	424.78
786.804	441.17
786.985	410.45
787.167	377.68
787.348	516.94
787.529	496.46
787.71	496.46
787.891	494.41
788.073	365.39
788.254	369.49
788.435	482.13
788.616	533.33
788.797	336.72
788.978	420.69
789.159	398.16
789.34	428.88
789.522	418.64
789.703	375.63
789.884	389.97
790.065	402.26
790.246	504.65
790.427	355.15
790.607	410.45
790.788	420.69
790.969	377.68
791.15	475.98
791.331	381.78
791.512	379.73
791.693	299.86
791.874	435.02
792.054	471.89
792.235	402.26
792.416	342.86
792.597	326.48
792.778	428.88
792.958	363.34
793.139	404.3
793.32	402.26
793.5	349.01
793.681	396.11
793.862	346.96
794.042	316.24
794.223	353.1
794.404	328.53
794.584	332.62
794.765	211.79
794.945	310.1
795.126	357.2
795.306	369.49
795.487	408.4
795.667	314.19
795.848	383.82
796.028	289.62
796.209	367.44
796.389	396.11
796.57	308.05
796.75	312.14
796.93	320.34
797.111	295.76
797.291	334.67
797.471	338.77
797.652	330.58
797.832	316.24
798.012	334.67
798.192	308.05
798.373	242.51
798.553	228.18
798.733	269.14
798.913	314.19
799.093	242.51
799.274	254.8
799.454	324.43
799.634	275.28
799.814	283.47
799.994	318.29
800.174	256.85
800.354	248.66
800.534	281.43
800.714	262.99
800.894	211.79
801.074	283.47
801.254	226.13
801.434	295.76
801.614	166.74
801.794	191.31
801.974	1233.73
802.154	215.89
802.334	271.19
802.514	215.89
802.693	312.14
802.873	242.51
803.053	334.67
803.233	185.17
803.413	277.33
803.592	176.98
803.772	199.51
803.952	246.61
804.131	152.4
804.311	232.27
804.491	226.13
804.67	262.99
804.85	197.46
805.03	322.38
805.209	328.53
805.389	195.41
805.568	209.75
805.748	191.31
805.928	256.85
806.107	240.47
806.287	191.31
806.466	267.09
806.646	201.55
806.825	291.66
807.004	181.07
807.184	193.36
807.363	238.42
807.543	201.55
807.722	179.03
807.901	342.86
808.081	213.84
808.26	113.49
808.439	197.46
808.619	226.13
808.798	117.59
808.977	185.17
809.156	240.47
809.336	224.08
809.515	228.18
809.694	170.83
809.873	170.83
810.052	205.65
810.231	238.42
810.411	211.79
810.59	170.83
810.769	160.59
810.948	203.6
811.127	181.07
811.306	172.88
811.485	158.55
811.664	185.17
811.843	68.44
812.022	164.69
812.201	172.88
812.38	168.79
812.559	215.89
812.737	197.46
812.916	179.03
813.095	138.07
813.274	176.98
813.453	84.82
813.632	181.07
813.811	213.84
813.989	86.87
814.168	115.54
814.347	127.83
814.526	168.79
814.704	215.89
814.883	217.94
815.062	60.24
815.24	140.12
815.419	97.11
815.598	144.21
815.776	111.44
815.955	111.44
816.133	82.77
816.312	95.06
816.49	47.96
816.669	162.64
816.847	215.89
817.026	185.17
817.204	66.39
817.383	95.06
817.561	68.44
817.74	144.21
817.918	121.68
818.097	80.72
818.275	64.34
818.453	90.96
818.632	82.77
818.81	166.74
818.988	154.45
819.167	133.97
819.345	131.92
819.523	80.72
819.701	142.16
819.879	88.92
820.058	207.7
820.236	148.31
820.414	138.07
820.592	56.15
820.77	152.4
820.948	99.16
821.127	74.58
821.305	174.93
821.483	142.16
821.661	166.74
821.839	113.49
822.017	105.3
822.195	105.3
822.373	109.4
822.551	138.07
822.729	185.17
822.907	66.39
823.085	115.54
823.262	107.35
823.44	90.96
823.618	88.92
823.796	129.88
823.974	88.92
824.152	80.72
824.329	90.96
824.507	84.82
824.685	138.07
824.863	111.44
825.04	133.97
825.218	158.55
825.396	123.73
825.574	88.92
825.751	138.07
825.929	160.59
826.107	60.24
826.284	127.83
826.462	68.44
826.639	103.25
826.817	62.29
826.994	129.88
827.172	97.11
827.349	162.64
827.527	60.24
827.704	140.12
827.882	170.83
828.059	31.57
828.237	109.4
828.414	179.03
828.591	23.38
828.769	64.34
828.946	52.05
829.124	109.4
829.301	152.4
829.478	74.58
829.655	103.25
829.833	176.98
830.01	-1.19
830.187	90.96
830.364	68.44
830.542	148.31
830.719	121.68
830.896	133.97
831.073	111.44
831.25	105.3
831.427	150.36
831.604	62.29
831.782	107.35
831.959	97.11
832.136	54.1
832.313	95.06
832.49	27.48
832.667	27.48
832.844	109.4
833.021	125.78
833.198	41.81
833.374	86.87
833.551	52.05
833.728	95.06
833.905	78.68
834.082	17.24
834.259	121.68
834.436	195.41
834.612	29.52
834.789	103.25
834.966	31.57
835.143	121.68
835.319	-11.43
835.496	115.54
835.673	101.2
835.85	97.11
836.026	68.44
836.203	74.58
836.38	80.72
836.556	39.76
836.733	54.1
836.909	35.67
837.086	-66.73
837.262	39.76
837.439	27.48
837.616	70.48
837.792	33.62
837.968	58.2
838.145	41.81
838.321	60.24
838.498	72.53
838.674	105.3
838.851	45.91
839.027	47.96
839.203	41.81
839.38	111.44
839.556	43.86
839.732	60.24
839.909	47.96
840.085	82.77
840.261	-40.11
840.437	82.77
840.614	76.63
840.79	41.81
840.966	72.53
841.142	115.54
841.318	117.59
841.494	45.91
841.671	125.78
841.847	25.43
842.023	-9.39
842.199	50
842.375	90.96
842.551	29.52
842.727	4.95
842.903	119.64
843.079	-17.58
843.255	86.87
843.431	82.77
843.607	29.52
843.783	13.14
843.959	50
844.134	58.2
844.31	39.76
844.486	-17.58
844.662	60.24
844.838	2.9
845.013	56.15
845.189	58.2
845.365	86.87
845.541	93.01
845.716	56.15
845.892	117.59
846.068	72.53
846.244	64.34
846.419	86.87
846.595	13.14
846.77	15.19
846.946	60.24
847.122	-29.87
847.297	15.19
847.473	113.49
847.648	2.9
847.824	47.96
847.999	43.86
848.175	-17.58
848.35	70.48
848.526	127.83
848.701	39.76
848.876	105.3
849.052	105.3
849.227	84.82
849.403	56.15
849.578	37.72
849.753	160.59
849.929	13.14
850.104	0.85
850.279	31.57
850.454	99.16
850.63	93.01
850.805	43.86
850.98	39.76
851.155	13.14
851.33	56.15
851.505	-9.39
851.681	95.06
851.856	15.19
852.031	93.01
852.206	70.48
852.381	37.72
852.556	15.19
852.731	107.35
852.906	74.58
853.081	111.44
853.256	95.06
853.431	47.96
853.606	25.43
853.781	27.48
853.956	-70.83
854.131	4.95
854.305	-9.39
854.48	31.57
854.655	37.72
854.83	45.91
855.005	-3.24
855.18	-3.24
855.354	4.95
855.529	131.92
855.704	64.34
855.879	80.72
856.053	-33.96
856.228	7
856.403	21.33
856.577	109.4
856.752	4.95
856.926	76.63
857.101	78.68
857.276	-27.82
857.45	4.95
857.625	39.76
857.799	152.4
857.974	-21.67
858.148	-54.44
858.323	-7.34
858.497	-11.43
858.672	-9.39
858.846	-5.29
859.02	37.72
859.195	-66.73
859.369	-3.24
859.543	23.38
859.718	-5.29
859.892	-27.82
860.066	9.05
860.241	19.29
860.415	7
860.589	115.54
860.763	47.96
860.938	43.86
861.112	86.87
861.286	-9.39
861.46	-62.63
861.634	-19.63
861.808	103.25
861.982	-87.21
862.157	-3.24
862.331	9.05
862.505	21.33
862.679	-42.15
862.853	-54.44
863.027	-5.29
863.201	138.07
863.375	50
863.549	82.77
863.722	-29.87
863.896	93.01
864.07	-7.34
864.244	62.29
864.418	66.39
864.592	47.96
864.766	4.95
864.939	31.57
865.113	-81.07
865.287	39.76
865.461	-46.25
865.634	56.15
865.808	78.68
865.982	13.14
866.156	-3.24
866.329	31.57
866.503	52.05
866.676	109.4
866.85	23.38
867.024	17.24
867.197	29.52
867.371	47.96
867.544	43.86
867.718	7
867.891	66.39
868.065	-48.3
868.238	27.48
868.412	74.58
868.585	25.43
868.759	4.95
868.932	-11.43
869.105	-122.02
869.279	37.72
869.452	9.05
869.625	-9.39
869.799	56.15
869.972	-13.48
870.145	23.38
870.319	86.87
870.492	-7.34
870.665	-7.34
870.838	23.38
871.011	-31.91
871.185	-42.15
871.358	-21.67
871.531	17.24
871.704	35.67
871.877	58.2
872.05	-23.72
872.223	-9.39
872.396	7
872.569	-3.24
872.742	11.09
872.915	56.15
873.088	-1.19
873.261	-27.82
873.434	80.72
873.607	60.24
873.78	101.2
873.953	-23.72
874.126	39.76
874.299	-5.29
874.471	62.29
874.644	23.38
874.817	109.4
874.99	154.45
875.163	-15.53
875.335	39.76
875.508	-9.39
875.681	31.57
875.853	50
876.026	9.05
876.199	39.76
876.371	58.2
876.544	7
876.717	2.9
876.889	-29.87
877.062	86.87
877.234	-17.58
877.407	86.87
877.579	-62.63
877.752	45.91
877.924	70.48
878.097	-17.58
878.269	45.91
878.442	-40.11
878.614	41.81
878.786	74.58
878.959	7
879.131	13.14
879.303	-109.74
879.476	-15.53
879.648	97.11
879.82	-27.82
879.993	70.48
880.165	-5.29
880.337	-50.35
880.509	-52.39
880.681	0.85
880.854	-21.67
881.026	33.62
881.198	168.79
881.37	-21.67
881.542	43.86
881.714	-5.29
881.886	7
882.058	7
882.23	29.52
882.402	33.62
882.574	82.77
882.746	31.57
882.918	58.2
883.09	0.85
883.262	15.19
883.434	29.52
883.606	-17.58
883.778	-17.58
883.95	99.16
884.122	15.19
884.293	15.19
884.465	41.81
884.637	37.72
884.809	0.85
884.98	-72.87
885.152	21.33
885.324	66.39
885.496	-42.15
885.667	-11.43
885.839	41.81
886.011	82.77
886.182	-5.29
886.354	23.38
886.525	13.14
886.697	15.19
886.869	25.43
887.04	-17.58
887.212	74.58
887.383	60.24
887.555	-17.58
887.726	-11.43
887.897	-72.87
888.069	58.2
888.24	70.48
888.412	31.57
888.583	37.72
888.754	11.09
888.926	-70.83
889.097	-62.63
889.268	-38.06
889.44	-46.25
889.611	-25.77
889.782	-27.82
889.953	-15.53
890.125	45.91
890.296	-87.21
890.467	15.19
890.638	0.85
890.809	0.85
890.98	-1.19
891.151	62.29
891.323	2.9
891.494	15.19
891.665	-3.24
891.836	-1.19
892.007	-33.96
892.178	88.92
892.349	13.14
892.52	-54.44
892.691	41.81
892.862	4.95
893.032	-64.68
893.203	-23.72
893.374	7
893.545	88.92
893.716	21.33
893.887	29.52
894.057	-46.25
894.228	29.52
894.399	4.95
894.57	-19.63
894.74	-21.67
894.911	39.76
895.082	-42.15
895.253	2.9
895.423	-7.34
895.594	29.52
895.764	62.29
895.935	-58.54
896.106	54.1
896.276	-23.72
896.447	-27.82
896.617	-56.49
896.788	-11.43
896.958	52.05
897.129	-81.07
897.299	-52.39
897.47	52.05
897.64	95.06
897.81	29.52
897.981	37.72
898.151	-33.96
898.322	45.91
898.492	13.14
898.662	-31.91
898.832	-36.01
899.003	-17.58
899.173	23.38
899.343	64.34
899.513	-23.72
