Data from USB4F104151__40__12-12-02-857.txt Node

Date: Fri Mar 14 12:12:02 EDT 2025
User: louis
Spectrometer: USB4F10415
Trigger mode: 4
Integration Time (sec): 5.000000E-2
Scans to average: 1
Electric dark correction enabled: true
Nonlinearity correction enabled: false
Boxcar width: 0
XAxis mode: Wavelengths
Number of Pixels in Spectrum: 3648
>>>>>Begin Spectral Data<<<<<
178.204	-223.4
178.424	-223.4
178.644	-223.4
178.864	-260.26
179.084	-241.83
179.304	-57.51
179.524	-6.31
179.744	-10.41
179.964	20.31
180.184	-16.55
180.404	38.74
180.624	-20.65
180.844	59.22
181.064	18.26
181.283	-30.89
181.503	-37.03
181.723	42.84
181.943	-34.99
182.163	30.55
182.383	5.97
182.602	55.12
182.822	89.94
183.042	46.93
183.262	28.5
183.482	40.79
183.701	-41.13
183.921	65.36
184.141	-32.94
184.361	77.65
184.58	3.93
184.8	30.55
185.02	-26.79
185.239	30.55
185.459	-45.23
185.679	75.6
185.898	-55.47
186.118	-34.99
186.338	59.22
186.557	81.75
186.777	-37.03
186.997	8.02
187.216	-22.7
187.436	149.33
187.655	81.75
187.875	42.84
188.095	-69.8
188.314	112.47
188.534	57.17
188.753	-34.99
188.973	40.79
189.192	85.84
189.412	-34.99
189.631	26.45
189.851	61.27
190.07	130.9
190.29	28.5
190.509	-49.32
190.729	1.88
190.948	48.98
191.168	157.52
191.387	79.7
191.607	61.27
191.826	18.26
192.045	22.36
192.265	-2.22
192.484	94.04
192.704	-43.18
192.923	-28.84
193.142	63.32
193.362	42.84
193.581	-16.55
193.8	26.45
194.02	96.08
194.239	-32.94
194.458	48.98
194.678	-10.41
194.897	8.02
195.116	-30.89
195.335	59.22
195.555	10.07
195.774	32.6
195.993	14.17
196.212	-14.51
196.432	-71.85
196.651	-57.51
196.87	51.03
197.089	178
197.308	83.8
197.528	40.79
197.747	-43.18
197.966	5.97
198.185	42.84
198.404	46.93
198.623	-45.23
198.842	-12.46
199.062	55.12
199.281	120.66
199.5	38.74
199.719	1.88
199.938	87.89
200.157	59.22
200.376	77.65
200.595	18.26
200.814	14.17
201.033	-26.79
201.252	94.04
201.471	8.02
201.69	75.6
201.909	24.4
202.128	34.64
202.347	38.74
202.566	1.88
202.785	-12.46
203.004	-10.41
203.223	114.52
203.442	3.93
203.661	14.17
203.879	79.7
204.098	116.56
204.317	-6.31
204.536	110.42
204.755	30.55
204.974	100.18
205.193	85.84
205.411	83.8
205.63	22.36
205.849	-4.27
206.068	-12.46
206.287	65.36
206.505	73.56
206.724	38.74
206.943	61.27
207.162	8.02
207.381	-8.36
207.599	5.97
207.818	34.64
208.037	24.4
208.255	14.17
208.474	-4.27
208.693	42.84
208.911	-18.6
209.13	32.6
209.349	12.12
209.567	73.56
209.786	98.13
210.005	-16.55
210.223	48.98
210.442	-20.65
210.661	51.03
210.879	5.97
211.098	26.45
211.316	-8.36
211.535	104.28
211.753	42.84
211.972	5.97
212.191	-26.79
212.409	94.04
212.628	46.93
212.846	96.08
213.065	12.12
213.283	126.8
213.502	30.55
213.72	-4.27
213.938	79.7
214.157	-2.22
214.375	98.13
214.594	42.84
214.812	12.12
215.031	24.4
215.249	65.36
215.467	57.17
215.686	10.07
215.904	128.85
216.122	14.17
216.341	145.24
216.559	77.65
216.778	65.36
216.996	114.52
217.214	26.45
217.432	14.17
217.651	-71.85
217.869	-10.41
218.087	3.93
218.306	-4.27
218.524	79.7
218.742	3.93
218.96	42.84
219.179	-18.6
219.397	75.6
219.615	114.52
219.833	-6.31
220.051	-16.55
220.27	137.04
220.488	116.56
220.706	-53.42
220.924	12.12
221.142	18.26
221.36	24.4
221.578	114.52
221.796	5.97
222.015	28.5
222.233	89.94
222.451	91.99
222.669	34.64
222.887	135
223.105	57.17
223.323	-28.84
223.541	14.17
223.759	46.93
223.977	-8.36
224.195	85.84
224.413	32.6
224.631	59.22
224.849	8.02
225.067	94.04
225.285	-12.46
225.503	38.74
225.721	12.12
225.939	1.88
226.157	46.93
226.375	104.28
226.592	-20.65
226.81	18.26
227.028	53.08
227.246	147.28
227.464	-28.84
227.682	116.56
227.9	16.21
228.117	30.55
228.335	81.75
228.553	71.51
228.771	-92.33
228.989	85.84
229.206	63.32
229.424	5.97
229.642	5.97
229.86	32.6
230.077	100.18
230.295	-2.22
230.513	12.12
230.731	75.6
230.948	34.64
231.166	91.99
231.384	20.31
231.601	1.88
231.819	59.22
232.037	5.97
232.254	-49.32
232.472	20.31
232.689	5.97
232.907	98.13
233.125	-22.7
233.342	22.36
233.56	63.32
233.777	22.36
233.995	-6.31
234.213	65.36
234.43	22.36
234.648	32.6
234.865	10.07
235.083	96.08
235.3	-8.36
235.518	51.03
235.735	77.65
235.953	10.07
236.17	10.07
236.388	48.98
236.605	32.6
236.822	71.51
237.04	38.74
237.257	12.12
237.475	-32.94
237.692	34.64
237.909	-6.31
238.127	65.36
238.344	81.75
238.562	20.31
238.779	-24.75
238.996	-10.41
239.214	44.88
239.431	89.94
239.648	-22.7
239.865	53.08
240.083	32.6
240.3	-41.13
240.517	-32.94
240.735	51.03
240.952	91.99
241.169	83.8
241.386	100.18
241.603	87.89
241.821	-80.04
242.038	102.23
242.255	51.03
242.472	5.97
242.689	-10.41
242.907	77.65
243.124	16.21
243.341	26.45
243.558	1.88
243.775	-24.75
243.992	-43.18
244.209	53.08
244.426	122.71
244.643	42.84
244.86	-4.27
245.078	44.88
245.295	20.31
245.512	61.27
245.729	-53.42
245.946	-41.13
246.163	91.99
246.38	59.22
246.597	5.97
246.814	-0.17
247.031	34.64
247.248	46.93
247.464	71.51
247.681	3.93
247.898	46.93
248.115	8.02
248.332	-2.22
248.549	22.36
248.766	124.76
248.983	40.79
249.2	16.21
249.417	57.17
249.633	36.69
249.85	128.85
250.067	-84.14
250.284	5.97
250.501	143.19
250.717	38.74
250.934	5.97
251.151	79.7
251.368	32.6
251.585	42.84
251.801	18.26
252.018	30.55
252.235	55.12
252.451	-0.17
252.668	53.08
252.885	63.32
253.102	42.84
253.318	18.26
253.535	-8.36
253.752	-2.22
253.968	81.75
254.185	5.97
254.401	-4.27
254.618	46.93
254.835	-47.27
255.051	108.37
255.268	69.46
255.484	94.04
255.701	-2.22
255.917	67.41
256.134	-22.7
256.351	-26.79
256.567	-8.36
256.784	65.36
257	-0.17
257.217	61.27
257.433	57.17
257.65	5.97
257.866	155.47
258.082	-32.94
258.299	-10.41
258.515	91.99
258.732	-16.55
258.948	12.12
259.165	67.41
259.381	-34.99
259.597	40.79
259.814	46.93
260.03	89.94
260.246	26.45
260.463	132.95
260.679	38.74
260.895	51.03
261.112	53.08
261.328	-51.37
261.544	-32.94
261.761	91.99
261.977	16.21
262.193	-47.27
262.409	34.64
262.626	65.36
262.842	59.22
263.058	-37.03
263.274	83.8
263.49	67.41
263.707	75.6
263.923	79.7
264.139	-104.62
264.355	-22.7
264.571	137.04
264.787	75.6
265.004	79.7
265.22	28.5
265.436	-14.51
265.652	24.4
265.868	-0.17
266.084	-43.18
266.3	3.93
266.516	34.64
266.732	42.84
266.948	-12.46
267.164	12.12
267.38	5.97
267.596	77.65
267.812	89.94
268.028	38.74
268.244	30.55
268.46	-16.55
268.676	44.88
268.892	8.02
269.108	46.93
269.324	3.93
269.54	-34.99
269.756	71.51
269.972	-43.18
270.188	38.74
270.403	28.5
270.619	65.36
270.835	32.6
271.051	-2.22
271.267	-12.46
271.483	8.02
271.698	48.98
271.914	24.4
272.13	42.84
272.346	55.12
272.562	63.32
272.777	48.98
272.993	61.27
273.209	59.22
273.425	38.74
273.64	-20.65
273.856	30.55
274.072	-53.42
274.287	3.93
274.503	8.02
274.719	57.17
274.934	3.93
275.15	-49.32
275.366	-2.22
275.581	1.88
275.797	63.32
276.012	44.88
276.228	-28.84
276.444	94.04
276.659	114.52
276.875	-73.9
277.09	5.97
277.306	26.45
277.521	53.08
277.737	63.32
277.952	40.79
278.168	1.88
278.383	20.31
278.599	63.32
278.814	40.79
279.03	51.03
279.245	94.04
279.461	-18.6
279.676	106.32
279.892	16.21
280.107	14.17
280.322	-4.27
280.538	65.36
280.753	61.27
280.969	104.28
281.184	-6.31
281.399	38.74
281.615	-37.03
281.83	16.21
282.045	5.97
282.26	-10.41
282.476	10.07
282.691	32.6
282.906	44.88
283.122	-20.65
283.337	-4.27
283.552	59.22
283.767	71.51
283.983	18.26
284.198	-6.31
284.413	110.42
284.628	-2.22
284.843	48.98
285.058	69.46
285.274	24.4
285.489	1.88
285.704	96.08
285.919	-65.71
286.134	26.45
286.349	-8.36
286.564	48.98
286.779	71.51
286.995	48.98
287.21	-57.51
287.425	169.81
287.64	-0.17
287.855	96.08
288.07	-4.27
288.285	85.84
288.5	67.41
288.715	71.51
288.93	10.07
289.145	65.36
289.36	112.47
289.575	-6.31
289.79	100.18
290.004	46.93
290.219	106.32
290.434	5.97
290.649	36.69
290.864	75.6
291.079	12.12
291.294	28.5
291.509	-47.27
291.724	38.74
291.938	-59.56
292.153	53.08
292.368	67.41
292.583	24.4
292.798	34.64
293.012	65.36
293.227	8.02
293.442	91.99
293.657	73.56
293.871	89.94
294.086	38.74
294.301	108.37
294.516	104.28
294.73	10.07
294.945	1.88
295.16	55.12
295.374	71.51
295.589	38.74
295.804	-12.46
296.018	24.4
296.233	128.85
296.447	44.88
296.662	34.64
296.877	14.17
297.091	87.89
297.306	22.36
297.52	-0.17
297.735	71.51
297.949	-55.47
298.164	34.64
298.378	38.74
298.593	-20.65
298.807	-4.27
299.022	73.56
299.236	32.6
299.451	77.65
299.665	32.6
299.88	53.08
300.094	63.32
300.309	12.12
300.523	100.18
300.737	36.69
300.952	32.6
301.166	48.98
301.381	12.12
301.595	22.36
301.809	32.6
302.024	16.21
302.238	65.36
302.452	75.6
302.667	38.74
302.881	104.28
303.095	96.08
303.309	65.36
303.524	63.32
303.738	55.12
303.952	28.5
304.166	69.46
304.381	-59.56
304.595	139.09
304.809	63.32
305.023	67.41
305.237	-0.17
305.452	-88.23
305.666	20.31
305.88	81.75
306.094	24.4
306.308	10.07
306.522	71.51
306.736	57.17
306.95	40.79
307.164	-20.65
307.379	12.12
307.593	42.84
307.807	30.55
308.021	79.7
308.235	14.17
308.449	-45.23
308.663	96.08
308.877	141.14
309.091	75.6
309.305	36.69
309.519	-18.6
309.733	63.32
309.947	24.4
310.161	36.69
310.374	40.79
310.588	120.66
310.802	32.6
311.016	59.22
311.23	20.31
311.444	-26.79
311.658	48.98
311.872	46.93
312.085	-12.46
312.299	223.06
312.513	163.67
312.727	55.12
312.941	-65.71
313.154	-8.36
313.368	30.55
313.582	-30.89
313.796	67.41
314.009	124.76
314.223	-2.22
314.437	87.89
314.651	79.7
314.864	55.12
315.078	26.45
315.292	28.5
315.505	-0.17
315.719	-4.27
315.933	12.12
316.146	96.08
316.36	61.27
316.573	32.6
316.787	81.75
317.001	120.66
317.214	14.17
317.428	22.36
317.641	3.93
317.855	18.26
318.068	-39.08
318.282	18.26
318.495	120.66
318.709	48.98
318.922	3.93
319.136	77.65
319.349	102.23
319.563	-2.22
319.776	79.7
319.99	-22.7
320.203	53.08
320.417	48.98
320.63	16.21
320.843	124.76
321.057	85.84
321.27	-32.94
321.483	63.32
321.697	94.04
321.91	91.99
322.124	36.69
322.337	-8.36
322.55	42.84
322.763	102.23
322.977	5.97
323.19	24.4
323.403	114.52
323.617	120.66
323.83	100.18
324.043	14.17
324.256	10.07
324.469	-24.75
324.683	57.17
324.896	-10.41
325.109	44.88
325.322	22.36
325.535	81.75
325.748	114.52
325.962	59.22
326.175	65.36
326.388	61.27
326.601	77.65
326.814	5.97
327.027	44.88
327.24	216.91
327.453	-24.75
327.666	108.37
327.879	145.24
328.092	59.22
328.305	22.36
328.518	53.08
328.731	26.45
328.944	118.61
329.157	85.84
329.37	12.12
329.583	75.6
329.796	98.13
330.009	28.5
330.222	46.93
330.435	1.88
330.648	67.41
330.861	59.22
331.073	130.9
331.286	171.86
331.499	104.28
331.712	46.93
331.925	73.56
332.138	122.71
332.35	40.79
332.563	-86.19
332.776	-2.22
332.989	-4.27
333.202	22.36
333.414	-16.55
333.627	-32.94
333.84	51.03
334.053	59.22
334.265	-12.46
334.478	-26.79
334.691	-2.22
334.903	18.26
335.116	38.74
335.329	5.97
335.541	10.07
335.754	124.76
335.966	30.55
336.179	-26.79
336.392	28.5
336.604	-4.27
336.817	5.97
337.029	53.08
337.242	44.88
337.454	81.75
337.667	104.28
337.88	8.02
338.092	40.79
338.305	10.07
338.517	-37.03
338.729	53.08
338.942	81.75
339.154	63.32
339.367	46.93
339.579	42.84
339.792	-20.65
340.004	112.47
340.217	14.17
340.429	40.79
340.641	14.17
340.854	38.74
341.066	28.5
341.278	167.76
341.491	77.65
341.703	44.88
341.915	-37.03
342.128	61.27
342.34	67.41
342.552	-4.27
342.764	5.97
342.977	77.65
343.189	67.41
343.401	44.88
343.613	-22.7
343.826	12.12
344.038	-30.89
344.25	34.64
344.462	73.56
344.674	173.91
344.886	51.03
345.099	57.17
345.311	55.12
345.523	63.32
345.735	-84.14
345.947	-8.36
346.159	38.74
346.371	65.36
346.583	1.88
346.795	151.38
347.007	104.28
347.219	61.27
347.431	32.6
347.643	65.36
347.855	34.64
348.067	75.6
348.279	18.26
348.491	20.31
348.703	44.88
348.915	75.6
349.127	34.64
349.339	67.41
349.551	-37.03
349.763	104.28
349.975	77.65
350.187	106.32
350.399	100.18
350.61	-2.22
350.822	1.88
351.034	1.88
351.246	40.79
351.458	104.28
351.669	118.61
351.881	104.28
352.093	55.12
352.305	79.7
352.517	81.75
352.728	75.6
352.94	61.27
353.152	22.36
353.363	-10.41
353.575	104.28
353.787	100.18
353.999	38.74
354.21	137.04
354.422	34.64
354.633	-39.08
354.845	130.9
355.057	91.99
355.268	65.36
355.48	114.52
355.692	8.02
355.903	20.31
356.115	34.64
356.326	42.84
356.538	75.6
356.749	112.47
356.961	116.56
357.172	94.04
357.384	-53.42
357.595	137.04
357.807	-12.46
358.018	1.88
358.23	34.64
358.441	141.14
358.653	149.33
358.864	-0.17
359.075	16.21
359.287	-20.65
359.498	40.79
359.709	171.86
359.921	5.97
360.132	83.8
360.344	55.12
360.555	83.8
360.766	24.4
360.977	32.6
361.189	114.52
361.4	79.7
361.611	59.22
361.823	167.76
362.034	48.98
362.245	14.17
362.456	44.88
362.667	71.51
362.879	24.4
363.09	65.36
363.301	44.88
363.512	71.51
363.723	128.85
363.935	-16.55
364.146	94.04
364.357	98.13
364.568	44.88
364.779	1.88
364.99	137.04
365.201	12.12
365.412	124.76
365.623	-63.66
365.834	46.93
366.045	53.08
366.256	102.23
366.467	46.93
366.678	55.12
366.889	34.64
367.1	104.28
367.311	28.5
367.522	71.51
367.733	63.32
367.944	55.12
368.155	5.97
368.366	63.32
368.577	55.12
368.788	91.99
368.999	-20.65
369.209	8.02
369.42	180.05
369.631	202.58
369.842	130.9
370.053	48.98
370.264	96.08
370.474	8.02
370.685	65.36
370.896	75.6
371.107	116.56
371.317	81.75
371.528	106.32
371.739	104.28
371.95	102.23
372.16	124.76
372.371	3.93
372.582	59.22
372.792	26.45
373.003	96.08
373.214	120.66
373.424	83.8
373.635	-6.31
373.846	122.71
374.056	40.79
374.267	-41.13
374.477	61.27
374.688	57.17
374.898	96.08
375.109	71.51
375.319	40.79
375.53	96.08
375.74	-65.71
375.951	18.26
376.161	42.84
376.372	83.8
376.582	-6.31
376.793	18.26
377.003	22.36
377.214	38.74
377.424	42.84
377.635	98.13
377.845	65.36
378.055	108.37
378.266	-2.22
378.476	67.41
378.686	12.12
378.897	61.27
379.107	81.75
379.317	61.27
379.528	34.64
379.738	44.88
379.948	-0.17
380.158	42.84
380.369	85.84
380.579	73.56
380.789	8.02
380.999	10.07
381.21	87.89
381.42	116.56
381.63	87.89
381.84	63.32
382.05	59.22
382.261	110.42
382.471	51.03
382.681	112.47
382.891	135
383.101	34.64
383.311	-12.46
383.521	38.74
383.731	73.56
383.941	91.99
384.151	-12.46
384.361	36.69
384.571	69.46
384.781	53.08
384.991	194.39
385.201	120.66
385.411	71.51
385.621	67.41
385.831	96.08
386.041	94.04
386.251	5.97
386.461	65.36
386.671	28.5
386.881	48.98
387.091	34.64
387.301	69.46
387.511	94.04
387.72	71.51
387.93	120.66
388.14	-34.99
388.35	79.7
388.56	147.28
388.769	130.9
388.979	32.6
389.189	-6.31
389.399	71.51
389.609	83.8
389.818	85.84
390.028	36.69
390.238	22.36
390.447	98.13
390.657	69.46
390.867	-4.27
391.076	59.22
391.286	30.55
391.496	32.6
391.705	46.93
391.915	188.24
392.125	122.71
392.334	73.56
392.544	108.37
392.753	106.32
392.963	26.45
393.172	83.8
393.382	61.27
393.591	212.82
393.801	3.93
394.01	141.14
394.22	147.28
394.429	112.47
394.639	-41.13
394.848	87.89
395.058	108.37
395.267	124.76
395.477	75.6
395.686	118.61
395.895	212.82
396.105	171.86
396.314	163.67
396.524	180.05
396.733	89.94
396.942	182.1
397.152	96.08
397.361	126.8
397.57	135
397.78	141.14
397.989	116.56
398.198	231.25
398.407	143.19
398.617	157.52
398.826	147.28
399.035	132.95
399.244	75.6
399.453	141.14
399.663	130.9
399.872	165.71
400.081	69.46
400.29	231.25
400.499	108.37
400.708	188.24
400.917	130.9
401.127	180.05
401.336	130.9
401.545	264.02
401.754	186.19
401.963	231.25
402.172	122.71
402.381	87.89
402.59	143.19
402.799	120.66
403.008	135
403.217	225.11
403.426	255.83
403.635	114.52
403.844	218.96
404.053	206.67
404.262	94.04
404.471	255.83
404.68	218.96
404.888	173.91
405.097	202.58
405.306	251.73
405.515	255.83
405.724	204.63
405.933	264.02
406.142	255.83
406.35	325.46
406.559	309.07
406.768	251.73
406.977	352.08
407.185	237.39
407.394	255.83
407.603	321.36
407.812	339.79
408.02	319.31
408.229	290.64
408.438	362.32
408.646	382.8
408.855	397.14
409.064	415.57
409.272	411.47
409.481	464.72
409.69	438.09
409.898	309.07
410.107	542.54
410.315	560.97
410.524	466.77
410.733	532.3
410.941	491.34
411.15	536.4
411.358	614.22
411.567	649.04
411.775	634.7
411.984	747.34
412.192	716.62
412.401	714.57
412.609	769.87
412.818	757.58
413.026	835.4
413.234	829.26
413.443	870.22
413.651	757.58
413.86	911.18
414.068	939.85
414.276	1025.86
414.485	941.89
414.693	1066.82
414.901	1146.69
415.11	1148.74
415.318	1181.51
415.526	1146.69
415.734	1259.33
415.943	1251.14
416.151	1294.15
416.359	1300.29
416.567	1439.55
416.776	1525.57
416.984	1492.8
417.192	1550.14
417.4	1634.11
417.608	1533.76
417.817	1560.38
418.025	1689.4
418.233	1853.24
418.441	1843
418.649	1767.23
418.857	1986.36
419.065	1945.4
419.273	1992.5
419.481	2090.81
419.689	2404.14
419.897	2354.99
420.105	2387.76
420.313	2488.11
420.521	2617.13
420.729	2602.8
420.937	2596.65
421.145	2664.24
421.353	2948.9
421.561	3100.45
421.769	3057.45
421.977	3065.64
422.185	3110.69
422.393	3340.07
422.601	3661.6
422.809	3503.9
423.017	3618.59
423.224	3708.7
423.432	3862.3
423.64	3940.12
423.848	4243.22
424.056	4218.64
424.263	4495.12
424.471	4357.91
424.679	4558.61
424.887	4747.02
425.094	4830.99
425.302	4767.5
425.51	5123.85
425.718	5222.15
425.925	5285.64
426.133	5420.8
426.341	5797.63
426.548	6070.01
426.756	6203.13
426.964	6143.74
427.171	6387.44
427.379	6782.7
427.586	6672.11
427.794	7130.86
428.001	7386.85
428.209	7683.81
428.417	7479.01
428.624	8011.48
428.832	8097.5
429.039	7882.46
429.247	7880.41
429.454	8685.26
429.662	9250.5
429.869	8701.65
430.076	9475.78
430.284	9109.19
430.491	9178.83
430.699	9840.32
430.906	9918.14
431.114	10124.99
431.321	10335.93
431.528	10589.88
431.736	11423.4
431.943	12009.12
432.15	11464.36
432.358	11820.7
432.565	12287.64
432.772	12076.7
432.979	12711.57
433.187	12777.11
433.394	12752.53
433.601	13954.69
433.808	14126.72
434.016	14069.37
434.223	14456.44
434.43	15447.66
434.637	15046.26
434.844	15973.99
435.052	16199.26
435.259	16055.9
435.466	16236.13
435.673	15816.29
435.88	17069.65
436.087	17901.12
436.294	17888.84
436.501	17524.3
436.708	17778.25
436.915	18488.89
437.122	19387.95
437.329	19140.15
437.537	19504.68
437.743	19760.68
437.95	20231.71
438.157	21204.5
438.364	21376.53
438.571	21589.52
438.778	21610
438.985	23954.92
439.192	23025.14
439.399	23199.22
439.606	22928.89
439.813	24370.66
440.02	25746.89
440.227	25013.72
440.433	24851.93
440.64	25630.16
440.847	25302.48
441.054	26154.44
441.261	27876.78
441.467	27651.5
441.674	28042.67
441.881	29154.71
442.088	28827.04
442.294	28761.5
442.501	29633.94
442.708	29801.87
442.914	30909.82
443.121	32298.34
443.328	31542.64
443.534	33699.16
443.741	32839.01
443.948	32195.95
444.154	34805.06
444.361	34264.39
444.568	34583.88
444.774	34731.33
444.981	34796.87
445.187	35417.4
445.394	37575.96
445.6	36795.68
445.807	39963.89
446.013	38864.13
446.22	39228.67
446.426	40613.1
446.633	41063.65
446.839	42228.94
447.046	40473.84
447.252	42732.75
447.459	42568.91
447.665	42650.83
447.871	44534.96
448.078	46410.9
448.284	44338.35
448.491	45012.13
448.697	46763.15
448.903	47572.1
449.11	47391.87
449.316	47090.82
449.522	47955.07
449.728	49077.35
449.935	49046.63
450.141	48620.66
450.347	50191.45
450.553	48596.08
450.76	49214.57
450.966	50693.2
451.172	50005.08
451.378	50932.81
451.584	49863.77
451.791	50889.8
451.997	50852.94
452.203	51770.43
452.409	51889.21
452.615	51389.51
452.821	49560.67
453.027	49241.19
453.233	51584.07
453.44	49534.05
453.646	49779.81
453.852	50009.18
454.058	50824.27
454.264	49259.62
454.47	50279.51
454.676	48690.29
454.882	50543.7
455.088	46179.48
455.294	46908.55
455.5	47262.85
455.705	48053.37
455.911	46085.27
456.117	45190.31
456.323	44461.23
456.529	42484.94
456.735	44098.74
456.941	42755.27
457.147	42130.64
457.352	40803.56
457.558	40025.33
457.764	40375.53
457.97	39535.87
458.176	39003.39
458.381	38634.76
458.587	36670.76
458.793	36893.99
458.999	34643.27
459.204	37152.03
459.41	36527.4
459.616	33719.63
459.821	33715.54
460.027	33619.28
460.233	32957.79
460.438	31241.59
460.644	31577.46
460.85	29674.9
461.055	29582.74
461.261	29640.08
461.466	27590.06
461.672	26459.59
461.878	28302.76
462.083	26426.82
462.289	25621.97
462.494	25703.89
462.7	24231.4
462.905	23846.38
463.111	24204.77
463.316	24634.85
463.522	24012.26
463.727	24161.76
463.932	23891.43
464.138	23797.23
464.343	23516.65
464.549	22760.95
464.754	23578.09
464.959	23627.24
465.165	23397.87
465.37	22187.52
465.575	21812.74
465.781	22588.92
465.986	22887.93
466.191	21845.51
466.397	21415.44
466.602	20491.8
466.807	21136.91
467.012	20995.6
467.218	20928.02
467.423	20778.52
467.628	20887.06
467.833	21474.83
468.038	20698.65
468.244	20256.29
468.449	20993.56
468.654	20235.81
468.859	20151.84
469.064	19791.4
469.269	19099.19
469.474	19344.94
469.679	19605.03
469.885	19357.23
470.09	19482.16
470.295	19023.41
470.5	18906.68
470.705	18941.49
470.91	18312.77
471.115	18210.37
471.32	18441.79
471.525	18576.95
471.73	17946.18
471.935	17620.55
472.139	17268.3
472.344	17479.24
472.549	17086.03
472.754	17036.88
472.959	16662.1
473.164	16170.59
473.369	16193.12
473.574	16633.43
473.778	16479.83
473.983	16463.45
474.188	16195.17
474.393	15384.17
474.598	15464.04
474.802	15339.12
475.007	15173.23
475.212	15175.28
475.417	14782.07
475.621	14579.32
475.826	14683.77
476.031	14300.8
476.235	13948.54
476.44	14341.75
476.645	13887.11
476.849	14151.29
477.054	13731.46
477.259	13698.69
477.463	13663.88
477.668	13313.67
477.872	13493.9
478.077	13076.11
478.282	12916.37
478.486	12574.36
478.691	12662.42
478.895	12701.33
479.1	12570.26
479.304	12418.71
479.509	12209.82
479.713	12420.76
479.918	11943.58
480.122	11761.31
480.326	12043.93
480.531	12056.22
480.735	11921.06
480.94	11974.3
481.144	12156.57
481.348	11620
481.553	11734.69
481.757	11191.98
481.961	11550.37
482.166	11810.47
482.37	11552.42
482.574	11589.28
482.778	11693.73
482.983	11746.98
483.187	11630.24
483.391	11703.97
483.595	11503.27
483.8	11237.03
484.004	11527.85
484.208	11458.21
484.412	11415.21
484.616	11505.32
484.821	11337.38
485.025	11097.77
485.229	11615.91
485.433	11308.71
485.637	11437.73
485.841	11165.35
486.045	11296.42
486.249	11398.82
486.453	11318.95
486.657	11273.9
486.861	11511.46
487.065	11175.59
487.269	11349.67
487.473	11083.44
487.677	11310.76
487.881	11357.86
488.085	11265.71
488.289	11452.07
488.493	11161.26
488.697	11464.36
488.901	11202.22
489.105	11421.35
489.309	11515.56
489.512	11378.34
489.716	11155.12
489.92	11654.82
490.124	11333.29
490.328	11660.96
490.531	11501.22
490.735	11644.58
490.939	11519.65
491.143	11501.22
491.346	11493.03
491.55	11820.7
491.754	11822.75
491.958	11832.99
492.161	11673.25
492.365	11919.01
492.569	11802.27
492.772	11871.9
492.976	11925.15
493.18	11828.9
493.383	12140.19
493.587	12035.74
493.79	12283.55
493.994	11994.78
494.197	12170.91
494.401	12390.04
494.605	12392.09
494.808	12553.88
495.012	12459.67
495.215	12676.76
495.419	12576.41
495.622	12856.98
495.825	13082.25
496.029	13084.3
496.232	13225.61
496.436	13008.53
496.639	13379.21
496.843	13344.39
497.046	13559.43
497.249	13729.41
497.453	13729.41
497.656	13715.08
497.859	13840
498.063	14165.63
498.266	14458.49
498.469	14354.04
498.673	14620.28
498.876	14708.34
499.079	14759.54
499.282	14872.18
499.485	15382.12
499.689	15203.95
499.892	15406.7
500.095	15631.97
500.298	15787.62
500.501	15826.53
500.705	16109.15
500.908	16465.5
501.111	16328.28
501.314	16340.57
501.517	16649.82
501.72	16836.18
501.923	16678.49
502.126	17327.69
502.329	17352.27
502.532	17618.5
502.735	17743.43
502.938	18202.18
503.141	18026.05
503.344	18263.61
503.547	18282.05
503.75	18724.41
503.953	19228.21
504.156	18998.84
504.359	19041.84
504.562	19361.33
504.765	19854.89
504.968	19715.62
505.17	20254.24
505.373	20020.77
505.576	20377.12
505.779	20633.11
505.982	20612.63
506.185	20948.5
506.387	21075.48
506.59	21411.34
506.793	22023.69
506.996	21437.97
507.198	22296.07
507.401	22193.67
507.604	22359.55
507.807	23008.76
508.009	23172.6
508.212	23008.76
508.415	23412.21
508.617	23545.33
508.82	23725.55
509.022	23639.53
509.225	24131.05
509.428	24505.82
509.63	24471.01
509.833	24258.02
510.035	25118.17
510.238	25277.91
510.44	25388.5
510.643	26213.83
510.845	25982.41
511.048	25449.94
511.25	26344.9
511.453	26459.59
511.655	27461.04
511.858	26883.52
512.06	27119.03
512.262	27489.71
512.465	27243.96
512.667	28118.44
512.87	27858.35
513.072	27987.37
513.274	28743.07
513.477	28925.34
513.679	28966.3
513.881	29707.66
514.084	29621.65
514.286	29521.3
514.488	29652.37
514.69	30434.69
514.893	30246.28
515.095	30567.81
515.297	31081.85
515.499	30956.92
515.701	31333.75
515.904	31423.86
516.106	32093.55
516.308	31950.19
516.51	32390.5
516.712	32453.99
516.914	32761.19
517.116	32804.19
517.318	32841.06
517.52	33594.71
517.722	33531.22
517.925	33713.49
518.127	34162
518.329	34469.19
518.531	34272.59
518.733	34897.22
518.935	34884.93
519.136	34907.46
519.338	35446.07
519.54	35530.04
519.742	35794.23
519.944	35773.75
520.146	36562.22
520.348	36402.47
520.55	36537.64
520.752	36644.13
520.954	37328.16
521.155	37012.77
521.357	37565.72
521.559	38169.87
521.761	38360.33
521.963	37563.67
522.164	38628.62
522.366	38341.9
522.568	38348.04
522.77	38880.52
522.971	39427.32
523.173	38898.95
523.375	39554.3
523.576	39070.98
523.778	39572.73
523.98	40097.01
524.181	39738.61
524.383	40133.87
524.584	40514.8
524.786	40391.92
524.988	40027.38
525.189	40555.75
525.391	41045.22
525.592	41299.17
525.794	41030.88
525.995	41352.41
526.197	41198.82
526.398	41303.26
526.6	41383.13
526.801	41598.17
527.003	41805.02
527.204	41833.69
527.406	42136.79
527.607	41997.52
527.808	42460.37
528.01	41788.63
528.211	41909.46
528.412	42474.7
528.614	42235.09
528.815	42171.6
529.016	42689.74
529.218	42499.28
529.419	42392.78
529.62	42437.84
529.822	42849.48
530.023	42171.6
530.224	42640.59
530.425	42319.06
530.626	42190.03
530.828	42230.99
531.029	43312.32
531.23	42718.41
531.431	42593.48
531.632	42388.69
531.833	42972.36
532.035	43117.76
532.236	42702.03
532.437	42673.35
532.638	42765.51
532.839	43113.67
533.04	43140.29
533.241	42718.41
533.442	43254.98
533.643	42865.86
533.844	42894.53
534.045	42730.7
534.246	42550.48
534.447	43128
534.648	42783.94
534.849	42763.46
535.05	42636.49
535.251	43025.6
535.451	43062.47
535.652	42691.79
535.853	42970.31
536.054	42843.34
536.255	43343.04
536.456	42519.76
536.657	43148.48
536.857	42726.6
537.058	42431.69
537.259	42923.21
537.46	42659.02
537.66	42704.07
537.861	42886.34
538.062	42708.17
538.263	42636.49
538.463	42525.9
538.664	42620.11
538.865	42486.99
539.065	42978.5
539.266	42271.95
539.466	42767.56
539.667	42034.39
539.868	43119.81
540.068	42734.79
540.269	42382.54
540.469	42648.78
540.67	42364.11
540.87	42347.73
541.071	42685.64
541.271	42648.78
541.472	42601.68
541.672	42421.45
541.873	42591.44
542.073	41575.64
542.274	42839.24
542.474	42484.94
542.675	42007.76
542.875	42679.5
543.075	42202.32
543.276	41880.79
543.476	42425.55
543.676	42163.41
543.877	42157.27
544.077	42241.23
544.277	42034.39
544.478	41659.61
544.678	42372.3
544.878	42005.72
545.078	42054.87
545.279	41977.04
545.479	41698.52
545.679	42005.72
545.879	41776.34
546.079	42083.54
546.28	41862.36
546.48	41632.99
546.68	41915.61
546.88	41700.57
547.08	42083.54
547.28	41632.99
547.48	41641.18
547.68	41852.12
547.88	41350.37
548.081	41784.54
548.281	41465.05
548.481	41598.17
548.681	41962.71
548.881	41768.15
549.081	41778.39
549.28	41551.07
549.48	41809.11
549.68	41428.19
549.88	42218.71
550.08	41479.39
550.28	41776.34
550.48	41477.34
550.68	41880.79
550.88	41561.31
551.08	41977.04
551.279	41870.55
551.479	41405.66
551.679	41499.87
551.879	41415.9
552.079	41897.17
552.278	41391.33
552.478	41596.12
552.678	41542.88
552.878	41772.25
553.077	41211.1
553.277	41188.58
553.477	42056.92
553.676	41366.75
553.876	41520.35
554.076	41104.61
554.275	41233.63
554.475	41071.84
554.674	41450.72
554.874	41358.56
555.074	41006.31
555.273	41493.72
555.473	41192.67
555.672	40891.62
555.872	41182.43
556.071	41247.97
556.271	41532.64
556.47	40916.2
556.67	40670.44
556.869	40928.48
557.068	41282.78
557.268	40787.17
557.467	40815.85
557.667	40572.14
557.866	41229.54
558.065	40910.05
558.265	40695.02
558.464	40535.27
558.663	41452.76
558.863	40187.12
559.062	40977.64
559.261	40686.82
559.461	40918.24
559.66	40563.95
559.859	40965.35
560.058	40502.51
560.258	40664.3
560.457	40328.43
560.656	41114.85
560.855	40783.08
561.054	40353.01
561.253	40154.35
561.453	40891.62
561.652	40692.97
561.851	40760.55
562.05	40529.13
562.249	40236.27
562.448	40899.81
562.647	40727.78
562.846	39898.36
563.045	40363.25
563.244	40525.03
563.443	40787.17
563.642	39814.39
563.841	40357.1
564.04	39892.21
564.239	40383.73
564.438	39814.39
564.637	40426.73
564.836	40432.88
565.035	39654.65
565.234	40082.67
565.432	39818.49
565.631	40146.16
565.83	40195.31
566.029	39920.88
566.228	39849.21
566.427	39763.19
566.625	39929.08
566.824	39759.09
567.023	40041.71
567.222	39333.12
567.42	40150.26
567.619	39787.77
567.818	39804.15
568.016	40015.09
568.215	40076.53
568.414	39967.99
568.612	40135.92
568.811	39417.08
569.01	39855.35
569.208	39177.47
569.407	40027.38
569.605	39408.89
569.804	40310
570.002	39046.4
570.201	39402.75
570.4	39140.61
570.598	39634.17
570.797	39204.1
570.995	39345.4
571.193	38819.08
571.392	39144.7
571.59	39177.47
571.789	38833.41
571.987	38964.48
572.186	39054.59
572.384	38659.34
572.582	39220.48
572.781	39388.41
572.979	38524.17
573.177	38970.63
573.376	39068.93
573.574	38573.32
573.772	39032.07
573.971	38991.11
574.169	38104.34
574.367	38618.38
574.565	38511.88
574.763	38581.51
574.962	38360.33
575.16	38067.47
575.358	38630.66
575.556	38300.94
575.754	38741.25
575.952	38038.8
576.151	38542.6
576.349	38270.22
576.547	38272.27
576.745	38601.99
576.943	38176.01
577.141	37946.64
577.339	38253.84
577.537	38038.8
577.735	38016.27
577.933	37840.15
578.131	38012.18
578.329	37952.79
578.527	37717.27
578.725	37756.18
578.923	38118.67
579.121	37678.36
579.319	37246.24
579.516	37844.24
579.714	38071.57
579.912	37520.66
580.11	37682.45
580.308	37426.46
580.506	37717.27
580.704	36914.47
580.901	37805.33
581.099	37578.01
581.297	36949.28
581.495	37236
581.692	37176.61
581.89	36957.47
582.088	37283.1
582.285	37102.88
582.483	37295.39
582.681	36971.81
582.878	36971.81
583.076	36984.1
583.274	37117.21
583.471	36717.86
583.669	36914.47
583.866	36611.37
584.064	36789.54
584.262	36332.84
584.459	36859.17
584.657	36547.88
584.854	36842.79
585.052	36224.3
585.249	36719.91
585.447	36463.91
585.644	36359.47
585.841	36240.68
586.039	36111.66
586.236	36050.22
586.434	36009.26
586.631	35886.39
586.828	35939.63
587.026	35980.59
587.223	36230.44
587.42	35953.97
587.618	36224.3
587.815	35673.4
588.012	36009.26
588.21	36029.74
588.407	35730.74
588.604	35886.39
588.801	35593.53
588.999	35523.9
589.196	35458.36
589.393	35515.7
589.59	35763.51
589.787	35372.35
589.984	35593.53
590.182	35304.76
590.379	35527.99
590.576	35351.87
590.773	35663.16
590.97	35026.24
591.167	35550.52
591.364	35108.16
591.561	35591.48
591.758	35323.19
591.955	34944.32
592.152	35513.66
592.349	35151.16
592.546	35433.78
592.743	35466.55
592.94	34647.36
593.137	35212.6
593.334	35425.59
593.531	34807.11
593.727	35050.81
593.924	35132.73
594.121	34909.5
594.318	35083.58
594.515	34831.68
594.712	35171.64
594.908	34903.36
595.105	34743.62
595.302	34901.31
595.499	35255.61
595.696	34837.83
595.892	34547.01
596.089	34569.54
596.286	35171.64
596.482	34784.58
596.679	34665.8
596.876	34899.26
597.072	34792.77
597.269	34643.27
597.466	34821.44
597.662	34594.12
597.859	34932.03
598.055	34772.29
598.252	34518.34
598.448	35024.19
598.645	34856.26
598.841	34461
599.038	34991.42
599.234	34749.76
599.431	34520.39
599.627	34377.03
599.824	34506.05
600.02	34258.25
600.217	34368.84
600.413	34391.37
600.609	34932.03
600.806	34577.73
601.002	34426.18
601.198	34168.14
601.395	34487.62
601.591	34848.07
601.787	34696.52
601.984	34733.38
602.18	35013.95
602.376	34723.14
602.572	34655.56
602.769	34745.67
602.965	34803.01
603.161	34846.02
603.357	34925.89
603.553	35042.62
603.75	35030.33
603.946	34653.51
604.142	35261.76
604.338	34860.35
604.534	35173.69
604.73	34923.84
604.926	34952.51
605.122	35099.97
605.318	35200.32
605.514	35218.75
605.71	35120.45
605.906	35063.1
606.102	35237.18
606.298	35427.64
606.494	35401.02
606.69	35710.26
606.886	35607.86
607.082	35007.81
607.278	35960.11
607.474	35542.33
607.67	35812.66
607.866	35245.37
608.062	36412.71
608.257	35937.58
608.453	35577.14
608.649	36533.54
608.845	35816.75
609.041	36418.86
609.236	36584.74
609.432	35884.34
609.628	36531.5
609.824	36377.9
610.019	36367.66
610.215	36789.54
610.411	36965.67
610.606	36810.02
610.802	36951.33
610.998	36863.27
611.193	37244.19
611.389	37119.26
611.584	37012.77
611.78	36879.65
611.976	37192.99
612.171	37471.51
612.367	37666.07
612.562	37412.12
612.758	37256.48
612.953	37037.34
613.149	38280.46
613.344	37631.26
613.539	38231.31
613.735	38128.91
613.93	38145.3
614.126	38214.93
614.321	38618.38
614.517	38286.61
614.712	38546.7
614.907	38792.45
615.103	39087.36
615.298	38821.12
615.493	39335.17
615.688	38731.01
615.884	39759.09
616.079	39181.57
616.274	39539.96
616.47	39212.29
616.665	39652.6
616.86	39490.81
617.055	39570.68
617.25	39816.44
617.445	40310
617.641	39159.04
617.836	40056.05
618.031	39486.71
618.226	40248.56
618.421	40178.93
618.616	39980.28
618.811	39652.6
619.006	40357.1
619.201	39935.22
619.396	40340.72
619.591	39490.81
619.786	40301.81
619.981	39853.3
620.176	40545.51
620.371	40170.74
620.566	40426.73
620.761	40252.66
620.956	40232.18
621.151	39814.39
621.346	40127.73
621.541	39675.13
621.735	40305.9
621.93	39589.11
622.125	39927.03
622.32	39562.49
622.515	39681.27
622.709	39281.92
622.904	40025.33
623.099	39474.43
623.294	39851.25
623.488	39292.16
623.683	39445.76
623.878	39236.86
624.072	39435.52
624.267	39585.02
624.462	39591.16
624.656	39251.2
624.851	39130.37
625.046	39132.42
625.24	38956.29
625.435	38933.76
625.629	38819.08
625.824	38311.18
626.018	38956.29
626.213	38104.34
626.407	38585.61
626.602	38139.15
626.796	38194.45
626.991	38196.49
627.185	38020.37
627.38	38143.25
627.574	37874.96
627.768	37807.38
627.963	37455.13
628.157	37657.88
628.352	37778.71
628.546	37135.65
628.74	37764.37
628.935	37641.49
629.129	37463.32
629.323	36943.14
629.517	37260.57
629.712	36912.42
629.906	37149.98
630.1	36461.86
630.294	37074.21
630.489	36496.68
630.683	36558.12
630.877	36332.84
631.071	36336.94
631.265	36334.89
631.459	36019.5
631.653	35839.28
631.848	35876.15
632.042	35566.9
632.236	35968.3
632.43	35382.59
632.624	35945.78
632.818	35319.1
633.012	35519.8
633.206	35261.76
633.4	35476.79
633.594	34821.44
633.788	34972.99
633.982	35339.58
634.176	34977.09
634.369	34477.38
634.563	34583.88
634.757	34405.7
634.951	34682.18
635.145	34188.62
635.339	34710.85
635.533	33985.87
635.726	34444.62
635.92	33594.71
636.114	33723.73
636.308	33611.09
636.501	33752.4
636.695	33555.8
636.889	32955.74
637.083	33428.82
637.276	33609.04
637.47	32935.26
637.664	32884.06
637.857	32875.87
638.051	32560.48
638.244	32816.48
638.438	32636.26
638.632	32490.85
638.825	32159.08
639.019	32204.14
639.212	31720.82
639.406	31995.25
639.599	31667.57
639.793	31626.61
639.986	30864.77
640.18	31217.02
640.373	31804.78
640.567	31274.36
640.76	30811.52
640.954	30909.82
641.147	30813.57
641.34	30479.75
641.534	30629.25
641.727	30358.92
641.92	30336.39
642.114	30197.13
642.307	30221.7
642.5	29992.33
642.694	29629.84
642.887	29523.35
643.08	29582.74
643.273	29367.7
643.467	29248.92
643.66	29296.02
643.853	29113.75
644.046	28753.31
644.239	28669.34
644.432	28868
644.626	28573.09
644.819	28448.16
645.012	28200.36
645.205	28183.98
645.398	27991.47
645.591	27780.53
645.784	27921.84
645.977	27270.58
646.17	27674.03
646.363	27323.83
646.556	27067.83
646.749	27215.29
646.942	27203
647.135	26645.95
647.328	26770.88
647.521	26648
647.714	25892.3
647.907	26353.09
648.099	26115.53
648.292	26150.34
648.485	25808.33
648.678	25318.87
648.871	25587.15
649.064	25298.39
649.256	25544.14
649.449	25365.97
649.642	25075.16
649.835	24810.97
650.027	24765.92
650.22	24757.72
650.413	24499.68
650.605	24696.28
650.798	24243.68
650.991	24051.17
651.183	24253.92
651.376	23358.96
651.568	23905.77
651.761	23426.54
651.954	23256.56
652.146	23361.01
652.339	23299.57
652.531	22992.37
652.724	23098.87
652.916	22431.23
653.109	22652.41
653.301	22457.85
653.494	22377.98
653.686	22177.28
653.879	22418.94
654.071	22089.22
654.263	21863.94
654.456	21810.7
654.648	21872.14
654.84	21229.07
655.033	21159.44
655.225	21141.01
655.417	20811.29
655.61	20809.24
655.802	20790.81
655.994	20293.15
656.186	20768.28
656.379	20266.53
656.571	20459.04
656.763	19756.58
656.955	20031.01
657.148	20024.87
657.34	19611.18
657.532	19623.47
657.724	19355.18
657.916	19318.32
658.108	18906.68
658.3	18847.29
658.492	18982.45
658.684	18439.74
658.876	18572.86
659.068	18632.25
659.26	18337.34
659.452	18431.55
659.644	18153.02
659.836	18064.96
660.028	17974.85
660.22	17370.7
660.412	17636.94
660.604	17421.9
660.796	17344.08
660.988	16948.82
661.18	16780.89
661.372	16662.1
661.563	17129.04
661.755	16571.99
661.947	16586.33
662.139	16447.07
662.331	16473.69
662.522	15828.58
662.714	15916.64
662.906	15832.68
663.097	15793.76
663.289	15750.76
663.481	15423.08
663.673	15337.07
663.864	15261.29
664.056	14929.52
664.247	15332.97
664.439	14898.8
664.631	14937.71
664.822	14814.84
665.014	14601.85
665.205	14581.37
665.397	14315.13
665.588	14466.68
665.78	14132.86
665.971	13942.4
666.163	14040.7
666.354	13985.41
666.546	13948.54
666.737	13872.77
666.929	13665.92
667.12	13477.51
667.311	13670.02
667.503	13323.91
667.694	13440.65
667.885	13299.34
668.077	13078.16
668.268	12760.72
668.459	13004.43
668.651	12752.53
668.842	12695.19
669.033	12508.82
669.224	12320.41
669.416	12605.08
669.607	12424.86
669.798	12101.28
669.989	12297.88
670.18	11966.11
670.371	12029.6
670.563	11890.34
670.754	12156.57
670.945	11810.47
671.136	11816.61
671.327	11679.4
671.518	11798.18
671.709	11617.96
671.9	11566.76
672.091	11488.93
672.282	11269.8
672.473	11253.42
672.664	11292.33
672.855	11241.13
673.046	11204.27
673.237	11191.98
673.428	11204.27
673.619	11060.91
673.809	10888.88
674	10997.42
674.191	10981.04
674.382	10962.61
674.573	10725.04
674.764	10657.46
674.954	10604.21
675.145	10630.84
675.336	10481.33
675.527	10288.82
675.717	10569.4
675.908	10303.16
676.099	10364.6
676.289	10153.66
676.48	10327.74
676.671	10149.56
676.861	10196.67
677.052	10028.73
677.243	10129.08
677.433	10065.6
677.624	9856.7
677.814	9998.01
678.005	9782.98
678.195	9805.5
678.386	9770.69
678.576	9686.72
678.767	9647.81
678.957	9653.95
679.148	9840.32
679.338	9658.05
679.529	9615.04
679.719	9543.36
679.909	9664.19
680.1	9465.54
680.29	9422.53
680.481	9545.41
680.671	9428.68
680.861	9338.57
681.052	9363.14
681.242	9195.21
681.432	9447.11
681.622	9318.09
681.813	9174.73
682.003	9113.29
682.193	9227.98
682.383	9379.53
682.573	9309.9
682.764	8890.06
682.954	9072.33
683.144	9227.98
683.334	9068.23
683.524	9033.42
683.714	9002.7
683.904	9006.8
684.094	9109.19
684.284	8945.36
684.474	9017.04
684.664	8912.59
684.854	8890.06
685.044	8857.29
685.234	8808.14
685.424	8863.44
685.614	8754.9
685.804	8847.05
685.994	8845.01
686.184	9041.61
686.374	8644.31
686.564	8715.98
686.753	8955.6
686.943	8656.59
687.133	8845.01
687.323	8734.42
687.513	8758.99
687.702	8705.74
687.892	8672.98
688.082	8744.66
688.272	8597.2
688.461	8584.91
688.651	8795.86
688.841	8648.4
689.03	8761.04
689.22	8550.1
689.41	8556.24
689.599	8529.62
689.789	8507.09
689.979	8543.95
690.168	8554.19
690.358	8449.75
690.547	8443.6
690.737	8459.99
690.926	8541.91
691.116	8259.29
691.305	8449.75
691.495	8341.21
691.684	8505.04
691.874	8158.94
692.063	8380.12
692.252	8457.94
692.442	8478.42
692.631	8388.31
692.82	8353.49
693.01	8257.24
693.199	8416.98
693.388	8316.63
693.578	8277.72
693.767	8206.04
693.956	8298.2
694.146	8128.22
694.335	8271.58
694.524	8048.35
694.713	8322.77
694.902	8038.11
695.092	8242.9
695.281	8298.2
695.47	8156.89
695.659	8077.02
695.848	8005.34
696.037	8103.64
696.226	8120.03
696.415	7999.2
696.604	8081.11
696.793	8003.29
696.982	7743.2
697.171	7941.85
697.36	8169.18
697.549	7759.58
697.738	7814.88
697.927	7853.79
698.116	7902.94
698.305	7771.87
698.494	8070.87
698.683	7855.84
698.872	7849.69
699.061	7786.21
699.25	7624.42
699.438	7661.28
699.627	7763.68
699.816	7718.62
700.005	7573.22
700.193	7577.31
700.382	7612.13
700.571	7505.63
700.76	7390.95
700.948	7710.43
701.137	7620.32
701.326	7474.92
701.514	7462.63
701.703	7306.98
701.892	7530.21
702.08	7450.34
702.269	7448.29
702.457	7343.85
702.646	7149.29
702.834	7212.78
703.023	7175.91
703.212	7282.41
703.4	7030.51
703.589	7024.36
703.777	7311.08
703.965	6977.26
704.154	7053.03
704.342	6924.01
704.531	6893.29
704.719	6946.54
704.907	7214.82
705.096	6932.2
705.284	6878.96
705.472	6889.2
705.661	6860.52
705.849	6934.25
706.037	6821.61
706.226	6852.33
706.414	6893.29
706.602	6704.88
706.79	6663.92
706.979	6645.49
707.167	6844.14
707.355	6545.14
707.543	6594.29
707.731	6563.57
707.919	6635.25
708.107	6487.79
708.296	6366.96
708.484	6375.16
708.672	6465.27
708.86	6377.2
709.048	6541.04
709.236	6354.68
709.424	6590.19
709.612	6448.88
709.8	6221.56
709.988	6110.97
710.176	6307.57
710.364	6219.51
710.551	6133.5
710.739	6229.75
710.927	6072.06
711.115	6031.1
711.303	5998.33
711.491	6133.5
711.679	5875.45
711.866	6022.91
712.054	5916.41
712.242	5902.08
712.43	5891.84
712.617	5865.21
712.805	5879.55
712.993	5736.19
713.181	5732.09
713.368	5670.65
713.556	5824.25
713.744	5760.77
713.931	5875.45
714.119	5652.22
714.306	5662.46
714.494	5658.37
714.682	5566.21
714.869	5570.3
715.057	5687.04
715.244	5463.81
715.432	5433.09
715.619	5619.46
715.807	5441.28
715.994	5476.1
716.182	5273.35
716.369	5396.23
716.556	5439.23
716.744	5322.5
716.931	5291.78
717.119	5297.92
717.306	5484.29
717.493	5228.29
717.681	5267.2
717.868	5023.5
718.055	5242.63
718.242	5236.49
718.43	5213.96
718.617	4955.91
718.804	5154.57
718.991	5183.24
719.179	5168.9
719.366	4976.39
719.553	5052.17
719.74	4974.35
719.927	5082.89
720.114	4845.32
720.301	4906.76
720.488	4849.42
720.676	4671.25
720.863	4878.09
721.05	4871.95
721.237	4785.93
721.424	4923.15
721.611	4683.53
721.798	4781.84
721.985	4622.09
722.172	4574.99
722.358	4507.41
722.545	4620.05
722.732	4521.74
722.919	4624.14
723.106	4390.67
723.293	4441.87
723.48	4581.14
723.667	4415.25
723.853	4529.94
724.04	4364.05
724.227	4411.15
724.414	4460.31
724.6	4333.33
724.787	4415.25
724.974	4370.19
725.161	4280.08
725.347	4171.54
725.534	4153.11
725.72	4325.14
725.907	4269.84
726.094	4337.43
726.28	4183.83
726.467	4214.55
726.653	4282.13
726.84	4144.92
727.027	4177.69
727.213	4038.42
727.4	4187.93
727.586	4003.61
727.773	4095.77
727.959	3968.79
728.145	4022.04
728.332	4044.57
728.518	4038.42
728.705	4091.67
728.891	4011.8
729.077	3864.35
729.264	3870.49
729.45	3911.45
729.636	3952.41
729.823	3786.52
730.009	4026.14
730.195	3669.79
730.382	3931.93
730.568	3692.32
730.754	3813.15
730.94	3778.33
731.126	3829.53
731.313	3880.73
731.499	3712.8
731.685	3661.6
731.871	3690.27
732.057	3563.29
732.243	3694.36
732.429	3696.41
732.615	3624.73
732.801	3637.02
732.987	3540.77
733.173	3514.14
733.359	3456.8
733.545	3534.62
733.731	3610.4
733.917	3391.27
734.103	3557.15
734.289	3471.14
734.475	3497.76
734.661	3526.43
734.847	3428.13
735.033	3399.46
735.219	3354.4
735.404	3288.87
735.59	3247.91
735.776	3319.59
735.962	3247.91
736.148	3196.71
736.333	3225.38
736.519	3071.78
736.705	3286.82
736.89	3178.28
737.076	3280.68
737.262	3254.05
737.447	3221.28
737.633	3131.17
737.819	3243.81
738.004	3127.08
738.19	3094.31
738.375	3071.78
738.561	3047.21
738.747	3082.02
738.932	3073.83
739.118	3151.65
739.303	3135.27
739.489	3122.98
739.674	3026.73
739.859	2823.98
740.045	2942.76
740.23	3002.15
740.416	2795.31
740.601	2815.79
740.786	2864.94
740.972	2746.16
741.157	2934.57
741.342	2817.83
741.528	2811.69
741.713	2920.23
741.898	2938.66
742.084	2760.49
742.269	2871.08
742.454	2819.88
742.639	2889.51
742.824	2688.81
743.01	2711.34
743.195	2914.09
743.38	2688.81
743.565	2783.02
743.75	2797.35
743.935	2635.57
744.12	2705.2
744.305	2582.32
744.49	2682.67
744.675	2529.07
744.86	2584.37
745.045	2615.09
745.23	2592.56
745.415	2381.62
745.6	2580.27
745.785	2543.41
745.97	2459.44
746.155	2533.17
746.34	2567.98
746.525	2445.1
746.71	2533.17
746.895	2373.43
747.079	2418.48
747.264	2320.18
747.449	2328.37
747.634	2498.35
747.819	2404.14
748.003	2340.66
748.188	2189.11
748.373	2266.93
748.557	2338.61
748.742	2240.31
748.927	2281.27
749.111	2119.48
749.296	2215.73
749.481	2377.52
749.665	2182.96
749.85	2178.87
750.034	2193.2
750.219	2109.24
750.404	2113.33
750.588	2127.67
750.773	2017.08
750.957	2045.75
751.141	2025.27
751.326	2051.89
751.51	2008.89
751.695	1967.93
751.879	1945.4
752.064	2068.28
752.248	2133.81
752.432	2092.85
752.617	1980.22
752.801	2031.41
752.985	1992.5
753.17	1906.49
753.354	1933.11
753.538	1937.21
753.722	1894.2
753.907	1890.1
754.091	1783.61
754.275	1828.67
754.459	1853.24
754.643	1765.18
754.828	1775.42
755.012	1857.34
755.196	1718.08
755.38	1851.19
755.564	1804.09
755.748	1820.47
755.932	1826.62
756.116	1826.62
756.3	1693.5
756.484	1533.76
756.668	1732.41
756.852	1634.11
757.036	1668.92
757.22	1808.19
757.404	1716.03
757.588	1685.31
757.772	1691.45
757.956	1630.01
758.14	1683.26
758.323	1447.74
758.507	1548.09
758.691	1562.43
758.875	1625.92
759.059	1582.91
759.242	1578.81
759.426	1533.76
759.61	1496.89
759.794	1572.67
759.977	1515.33
760.161	1568.57
760.345	1503.04
760.528	1560.38
760.712	1503.04
760.895	1623.87
761.079	1382.21
761.263	1398.59
761.446	1431.36
761.63	1525.57
761.813	1548.09
761.997	1304.39
762.18	1314.63
762.364	1490.75
762.547	1290.05
762.731	1408.83
762.914	1435.46
763.098	1349.44
763.281	1408.83
763.464	1359.68
763.648	1353.54
763.831	1371.97
764.015	1335.1
764.198	1361.73
764.381	1326.91
764.564	1347.39
764.748	1326.91
764.931	1441.6
765.114	1212.23
765.297	1392.45
765.481	1267.52
765.664	1298.24
765.847	1376.06
766.03	1351.49
766.213	1296.19
766.397	1226.56
766.58	1161.03
766.763	1257.28
766.946	1304.39
767.129	1314.63
767.312	1259.33
767.495	1238.85
767.678	1290.05
767.861	1253.19
768.044	1253.19
768.227	1257.28
768.41	1154.88
768.593	1349.44
768.776	1187.65
768.959	1226.56
769.142	1267.52
769.324	1222.47
769.507	1285.95
769.69	1165.12
769.873	1171.27
770.056	1304.39
770.239	1220.42
770.421	1298.24
770.604	1244.99
770.787	1195.84
770.97	1142.6
771.152	1113.92
771.335	1173.32
771.518	1113.92
771.7	1216.32
771.883	1255.23
772.066	1158.98
772.248	1197.89
772.431	1144.64
772.613	1212.23
772.796	1161.03
772.978	1101.64
773.161	1120.07
773.343	1156.93
773.526	1036.1
773.708	1070.92
773.891	1013.57
774.073	1050.44
774.256	1036.1
774.438	1122.12
774.621	1087.3
774.803	1103.68
774.985	1015.62
775.168	1210.18
775.35	1128.26
775.532	1101.64
775.715	1052.49
775.897	1109.83
776.079	962.37
776.261	1095.49
776.444	1021.77
776.626	1015.62
776.808	1056.58
776.99	966.47
777.173	939.85
777.355	993.09
777.537	1019.72
777.719	984.9
777.901	931.66
778.083	902.98
778.265	825.16
778.447	933.7
778.629	1038.15
778.811	894.79
778.993	923.46
779.175	943.94
779.357	880.46
779.539	827.21
779.721	882.5
779.903	851.78
780.085	841.54
780.267	853.83
780.449	921.42
780.631	900.94
780.812	884.55
780.994	866.12
781.176	788.3
781.358	792.39
781.54	780.11
781.721	855.88
781.903	911.18
782.085	724.81
782.267	816.97
782.448	845.64
782.63	810.82
782.812	737.1
782.993	804.68
783.175	771.91
783.357	712.52
783.538	733
783.72	671.56
783.901	776.01
784.083	755.53
784.264	747.34
784.446	614.22
784.627	653.13
784.809	708.43
784.99	628.56
785.172	708.43
785.353	644.94
785.535	683.85
785.716	700.23
785.897	507.73
786.079	724.81
786.26	665.42
786.441	780.11
786.623	667.47
786.804	608.08
786.985	655.18
787.167	622.41
787.348	745.29
787.529	599.88
787.71	710.47
787.891	675.66
788.073	524.11
788.254	495.44
788.435	640.84
788.616	642.89
788.797	571.21
788.978	581.45
789.159	556.88
789.34	565.07
789.522	577.36
789.703	544.59
789.884	569.16
790.065	567.12
790.246	646.99
790.427	454.48
790.607	624.46
790.788	544.59
790.969	464.72
791.15	532.3
791.331	495.44
791.512	483.15
791.693	464.72
791.874	540.49
792.054	569.16
792.235	477.01
792.416	425.81
792.597	403.28
792.778	546.64
792.958	542.54
793.139	456.53
793.32	532.3
793.5	419.66
793.681	511.82
793.862	536.4
794.042	505.68
794.223	415.57
794.404	485.2
794.584	397.14
794.765	417.61
794.945	460.62
795.126	458.57
795.306	577.36
795.487	431.95
795.667	376.66
795.848	417.61
796.028	425.81
796.209	409.42
796.389	489.29
796.57	472.91
796.75	477.01
796.93	470.86
797.111	450.38
797.291	313.17
797.471	472.91
797.652	413.52
797.832	317.26
798.012	388.94
798.192	374.61
798.373	327.5
798.553	384.85
798.733	374.61
798.913	304.98
799.093	390.99
799.274	458.57
799.454	442.19
799.634	329.55
799.814	442.19
799.994	393.04
800.174	399.18
800.354	345.94
800.534	292.69
800.714	366.42
800.894	223.06
801.074	309.07
801.254	325.46
801.434	384.85
801.614	323.41
801.794	315.22
801.974	1390.4
802.154	304.98
802.334	317.26
802.514	241.49
802.693	354.13
802.873	337.74
803.053	296.78
803.233	292.69
803.413	347.98
803.592	343.89
803.772	284.5
803.952	370.51
804.131	362.32
804.311	270.16
804.491	386.9
804.67	302.93
804.85	298.83
805.03	259.92
805.209	347.98
805.389	278.35
805.568	239.44
805.748	345.94
805.928	223.06
806.107	296.78
806.287	302.93
806.466	327.5
806.646	270.16
806.825	276.31
807.004	261.97
807.184	292.69
807.363	284.5
807.543	343.89
807.722	249.68
807.901	321.36
808.081	264.02
808.26	186.19
808.439	307.02
808.619	298.83
808.798	315.22
808.977	175.95
809.156	259.92
809.336	261.97
809.515	329.55
809.694	237.39
809.873	218.96
810.052	202.58
810.231	280.4
810.411	304.98
810.59	212.82
810.769	280.4
810.948	341.84
811.127	214.87
811.306	194.39
811.485	204.63
811.664	321.36
811.843	178
812.022	245.59
812.201	198.48
812.38	202.58
812.559	169.81
812.737	212.82
812.916	151.38
813.095	218.96
813.274	235.35
813.453	196.43
813.632	235.35
813.811	266.07
813.989	126.8
814.168	204.63
814.347	186.19
814.526	294.74
814.704	255.83
814.883	225.11
815.062	157.52
815.24	243.54
815.419	98.13
815.598	169.81
815.776	178
815.955	190.29
816.133	112.47
816.312	159.57
816.49	145.24
816.669	188.24
816.847	180.05
817.026	206.67
817.204	143.19
817.383	243.54
817.561	124.76
817.74	194.39
817.918	198.48
818.097	169.81
818.275	89.94
818.453	139.09
818.632	139.09
818.81	214.87
818.988	98.13
819.167	116.56
819.345	186.19
819.523	161.62
819.701	151.38
819.879	196.43
820.058	167.76
820.236	167.76
820.414	161.62
820.592	194.39
820.77	153.43
820.948	85.84
821.127	145.24
821.305	192.34
821.483	159.57
821.661	218.96
821.839	194.39
822.017	63.32
822.195	108.37
822.373	149.33
822.551	167.76
822.729	188.24
822.907	157.52
823.085	110.42
823.262	106.32
823.44	98.13
823.618	182.1
823.796	198.48
823.974	24.4
824.152	34.64
824.329	147.28
824.507	114.52
824.685	128.85
824.863	212.82
825.04	175.95
825.218	128.85
825.396	114.52
825.574	63.32
825.751	132.95
825.929	200.53
826.107	98.13
826.284	165.71
826.462	126.8
826.639	81.75
826.817	116.56
826.994	110.42
827.172	71.51
827.349	153.43
827.527	161.62
827.704	159.57
827.882	139.09
828.059	169.81
828.237	44.88
828.414	161.62
828.591	71.51
828.769	145.24
828.946	94.04
829.124	169.81
829.301	126.8
829.478	83.8
829.655	104.28
829.833	126.8
830.01	8.02
830.187	114.52
830.364	61.27
830.542	112.47
830.719	214.87
830.896	104.28
831.073	124.76
831.25	126.8
831.427	155.47
831.604	94.04
831.782	112.47
831.959	122.71
832.136	96.08
832.313	48.98
832.49	89.94
832.667	57.17
832.844	73.56
833.021	155.47
833.198	135
833.374	67.41
833.551	112.47
833.728	12.12
833.905	124.76
834.082	94.04
834.259	132.95
834.436	100.18
834.612	85.84
834.789	202.58
834.966	94.04
835.143	126.8
835.319	100.18
835.496	108.37
835.673	108.37
835.85	110.42
836.026	116.56
836.203	91.99
836.38	153.43
836.556	100.18
836.733	-0.17
836.909	48.98
837.086	157.52
837.262	53.08
837.439	77.65
837.616	118.61
837.792	63.32
837.968	57.17
838.145	73.56
838.321	34.64
838.498	106.32
838.674	110.42
838.851	55.12
839.027	36.69
839.203	83.8
839.38	83.8
839.556	59.22
839.732	83.8
839.909	46.93
840.085	65.36
840.261	44.88
840.437	63.32
840.614	116.56
840.79	36.69
840.966	108.37
841.142	77.65
841.318	55.12
841.494	14.17
841.671	137.04
841.847	55.12
842.023	48.98
842.199	75.6
842.375	106.32
842.551	69.46
842.727	34.64
842.903	120.66
843.079	-14.51
843.255	89.94
843.431	53.08
843.607	44.88
843.783	-67.75
843.959	40.79
844.134	104.28
844.31	139.09
844.486	85.84
844.662	79.7
844.838	100.18
845.013	-30.89
845.189	53.08
845.365	65.36
845.541	67.41
845.716	40.79
845.892	28.5
846.068	-2.22
846.244	57.17
846.419	75.6
846.595	26.45
846.77	67.41
846.946	98.13
847.122	22.36
847.297	8.02
847.473	87.89
847.648	3.93
847.824	28.5
847.999	-34.99
848.175	3.93
848.35	12.12
848.526	57.17
848.701	112.47
848.876	108.37
849.052	89.94
849.227	-4.27
849.403	-24.75
849.578	38.74
849.753	122.71
849.929	94.04
850.104	-45.23
850.279	102.23
850.454	83.8
850.63	53.08
850.805	77.65
850.98	79.7
851.155	28.5
851.33	46.93
851.505	28.5
851.681	61.27
851.856	20.31
852.031	83.8
852.206	34.64
852.381	24.4
852.556	77.65
852.731	32.6
852.906	71.51
853.081	108.37
853.256	151.38
853.431	-32.94
853.606	69.46
853.781	44.88
853.956	-37.03
854.131	89.94
854.305	-43.18
854.48	20.31
854.655	-34.99
854.83	28.5
855.005	-0.17
855.18	61.27
855.354	67.41
855.529	3.93
855.704	-20.65
855.879	98.13
856.053	-14.51
856.228	55.12
856.403	-0.17
856.577	59.22
856.752	-12.46
856.926	87.89
857.101	89.94
857.276	44.88
857.45	55.12
857.625	28.5
857.799	3.93
857.974	38.74
858.148	38.74
858.323	14.17
858.497	65.36
858.672	-6.31
858.846	-26.79
859.02	24.4
859.195	-22.7
859.369	3.93
859.543	124.76
859.718	112.47
859.892	55.12
860.066	5.97
860.241	5.97
860.415	-37.03
860.589	-2.22
860.763	44.88
860.938	-43.18
861.112	-30.89
861.286	-57.51
861.46	30.55
861.634	24.4
861.808	24.4
861.982	10.07
862.157	12.12
862.331	-8.36
862.505	18.26
862.679	-28.84
862.853	5.97
863.027	137.04
863.201	122.71
863.375	91.99
863.549	36.69
863.722	44.88
863.896	55.12
864.07	16.21
864.244	-2.22
864.418	61.27
864.592	10.07
864.766	75.6
864.939	51.03
865.113	57.17
865.287	83.8
865.461	1.88
865.634	51.03
865.808	18.26
865.982	22.36
866.156	-24.75
866.329	-28.84
866.503	46.93
866.676	1.88
866.85	34.64
867.024	18.26
867.197	61.27
867.371	69.46
867.544	-41.13
867.718	-12.46
867.891	34.64
868.065	-37.03
868.238	-77.99
868.412	-37.03
868.585	14.17
868.759	22.36
868.932	-45.23
869.105	-37.03
869.279	46.93
869.452	-10.41
869.625	-22.7
869.799	-24.75
869.972	-24.75
870.145	28.5
870.319	98.13
870.492	38.74
870.665	14.17
870.838	-65.71
871.011	-112.81
871.185	8.02
871.358	26.45
871.531	126.8
871.704	-20.65
871.877	83.8
872.05	14.17
872.223	-45.23
872.396	16.21
872.569	26.45
872.742	-0.17
872.915	34.64
873.088	-53.42
873.261	16.21
873.434	10.07
873.607	28.5
873.78	51.03
873.953	34.64
874.126	46.93
874.299	-20.65
874.471	3.93
874.644	-63.66
874.817	8.02
874.99	94.04
875.163	57.17
875.335	59.22
875.508	57.17
875.681	81.75
875.853	5.97
876.026	36.69
876.199	-10.41
876.371	48.98
876.544	32.6
876.717	-18.6
876.889	-2.22
877.062	40.79
877.234	-22.7
877.407	-0.17
877.579	67.41
877.752	57.17
877.924	-26.79
878.097	12.12
878.269	-28.84
878.442	79.7
878.614	40.79
878.786	-0.17
878.959	18.26
879.131	-18.6
879.303	-61.61
879.476	14.17
879.648	51.03
879.82	36.69
879.993	-92.33
880.165	10.07
880.337	38.74
880.509	-0.17
880.681	-43.18
880.854	-8.36
881.026	10.07
881.198	139.09
881.37	28.5
881.542	-20.65
881.714	48.98
881.886	32.6
882.058	46.93
882.23	44.88
882.402	28.5
882.574	-16.55
882.746	16.21
882.918	63.32
883.09	8.02
883.262	32.6
883.434	-32.94
883.606	-61.61
883.778	38.74
883.95	126.8
884.122	-20.65
884.293	28.5
884.465	18.26
884.637	48.98
884.809	24.4
884.98	-8.36
885.152	38.74
885.324	-8.36
885.496	-41.13
885.667	38.74
885.839	-41.13
886.011	81.75
886.182	22.36
886.354	77.65
886.525	-0.17
886.697	8.02
886.869	-37.03
887.04	-16.55
887.212	40.79
887.383	106.32
887.555	20.31
887.726	24.4
887.897	24.4
888.069	34.64
888.24	71.51
888.412	63.32
888.583	1.88
888.754	5.97
888.926	-34.99
889.097	22.36
889.268	12.12
889.44	32.6
889.611	-45.23
889.782	-47.27
889.953	-110.76
890.125	-43.18
890.296	1.88
890.467	-26.79
890.638	-47.27
890.809	73.56
890.98	-53.42
891.151	67.41
891.323	63.32
891.494	32.6
891.665	59.22
891.836	-57.51
892.007	-22.7
892.178	22.36
892.349	-20.65
892.52	10.07
892.691	10.07
892.862	-59.56
893.032	-73.9
893.203	-39.08
893.374	53.08
893.545	16.21
893.716	5.97
893.887	12.12
894.057	-59.56
894.228	-43.18
894.399	-26.79
894.57	40.79
894.74	-2.22
894.911	-6.31
895.082	-43.18
895.253	10.07
895.423	-12.46
895.594	8.02
895.764	36.69
895.935	-49.32
896.106	12.12
896.276	-20.65
896.447	-6.31
896.617	16.21
896.788	-12.46
896.958	-16.55
897.129	-49.32
897.299	-8.36
897.47	57.17
897.64	77.65
897.81	18.26
897.981	34.64
898.151	-10.41
898.322	42.84
898.492	-4.27
898.662	-10.41
898.832	-57.51
899.003	26.45
899.173	61.27
899.343	-51.37
899.513	-18.6
