Data from USB4F104151__1__12-11-10-063.txt Node

Date: Fri Mar 14 12:11:10 EDT 2025
User: louis
Spectrometer: USB4F10415
Trigger mode: 4
Integration Time (sec): 5.000000E-2
Scans to average: 1
Electric dark correction enabled: true
Nonlinearity correction enabled: false
Boxcar width: 0
XAxis mode: Wavelengths
Number of Pixels in Spectrum: 3648
>>>>>Begin Spectral Data<<<<<
178.204	-189.1
178.424	-189.1
178.644	-189.1
178.864	-258.73
179.084	-217.77
179.304	-35.5
179.524	-6.83
179.744	11.61
179.964	32.08
180.184	-58.03
180.404	32.08
180.624	-0.68
180.844	1.37
181.064	17.75
181.283	9.56
181.503	-51.88
181.723	48.47
181.943	-35.5
182.163	159.06
182.383	42.32
182.602	101.72
182.822	85.33
183.042	-41.64
183.262	-66.22
183.482	-12.97
183.701	81.24
183.921	52.56
184.141	-6.83
184.361	118.1
184.58	-2.73
184.8	48.47
185.02	-15.02
185.239	50.52
185.459	52.56
185.679	124.24
185.898	-27.31
186.118	97.62
186.338	68.95
186.557	124.24
186.777	-84.65
186.997	44.37
187.216	50.52
187.436	89.43
187.655	58.71
187.875	54.61
188.095	107.86
188.314	93.52
188.534	89.43
188.753	-15.02
188.973	27.99
189.192	75.09
189.412	66.9
189.631	42.32
189.851	85.33
190.07	79.19
190.29	-80.55
190.509	101.72
190.729	73.04
190.948	134.48
191.168	114
191.387	128.34
191.607	85.33
191.826	122.2
192.045	30.04
192.265	46.42
192.484	27.99
192.704	-33.45
192.923	-15.02
193.142	138.58
193.362	71
193.581	128.34
193.8	58.71
194.02	138.58
194.239	42.32
194.458	79.19
194.678	23.89
194.897	73.04
195.116	62.8
195.335	54.61
195.555	48.47
195.774	91.48
195.993	58.71
196.212	56.66
196.432	42.32
196.651	60.76
196.87	9.56
197.089	138.58
197.308	54.61
197.528	173.39
197.747	7.51
197.966	13.65
198.185	120.15
198.404	40.28
198.623	34.13
198.842	77.14
199.062	60.76
199.281	30.04
199.5	48.47
199.719	89.43
199.938	101.72
200.157	101.72
200.376	58.71
200.595	83.28
200.814	11.61
201.033	62.8
201.252	54.61
201.471	56.66
201.69	146.77
201.909	111.96
202.128	89.43
202.347	99.67
202.566	32.08
202.785	38.23
203.004	34.13
203.223	101.72
203.442	89.43
203.661	99.67
203.879	1.37
204.098	64.85
204.317	38.23
204.536	152.92
204.755	68.95
204.974	87.38
205.193	89.43
205.411	169.3
205.63	27.99
205.849	11.61
206.068	105.81
206.287	21.85
206.505	64.85
206.724	9.56
206.943	50.52
207.162	42.32
207.381	87.38
207.599	32.08
207.818	34.13
208.037	-35.5
208.255	40.28
208.474	75.09
208.693	93.52
208.911	95.57
209.13	103.76
209.349	40.28
209.567	9.56
209.786	138.58
210.005	56.66
210.223	62.8
210.442	-2.73
210.661	93.52
210.879	75.09
211.098	38.23
211.316	75.09
211.535	132.44
211.753	36.18
211.972	58.71
212.191	30.04
212.409	19.8
212.628	68.95
212.846	-8.87
213.065	66.9
213.283	122.2
213.502	54.61
213.72	-8.87
213.938	21.85
214.157	42.32
214.375	73.04
214.594	60.76
214.812	91.48
215.031	71
215.249	36.18
215.467	23.89
215.686	19.8
215.904	60.76
216.122	-21.16
216.341	71
216.559	116.05
216.778	21.85
216.996	30.04
217.214	-10.92
217.432	64.85
217.651	21.85
217.869	5.46
218.087	71
218.306	36.18
218.524	128.34
218.742	116.05
218.96	-15.02
219.179	40.28
219.397	-31.4
219.615	105.81
219.833	66.9
220.051	17.75
220.27	128.34
220.488	93.52
220.706	81.24
220.924	44.37
221.142	40.28
221.36	77.14
221.578	83.28
221.796	15.7
222.015	32.08
222.233	52.56
222.451	103.76
222.669	83.28
222.887	66.9
223.105	-6.83
223.323	71
223.541	71
223.759	56.66
223.977	56.66
224.195	87.38
224.413	91.48
224.631	54.61
224.849	66.9
225.067	171.35
225.285	13.65
225.503	77.14
225.721	17.75
225.939	89.43
226.157	60.76
226.375	128.34
226.592	85.33
226.81	71
227.028	87.38
227.246	93.52
227.464	17.75
227.682	71
227.9	73.04
228.117	89.43
228.335	60.76
228.553	48.47
228.771	58.71
228.989	7.51
229.206	73.04
229.424	130.39
229.642	54.61
229.86	73.04
230.077	46.42
230.295	73.04
230.513	99.67
230.731	64.85
230.948	56.66
231.166	77.14
231.384	46.42
231.601	44.37
231.819	122.2
232.037	42.32
232.254	-0.68
232.472	77.14
232.689	11.61
232.907	120.15
233.125	48.47
233.342	-0.68
233.56	21.85
233.777	9.56
233.995	89.43
234.213	75.09
234.43	124.24
234.648	-12.97
234.865	54.61
235.083	136.53
235.3	75.09
235.518	71
235.735	87.38
235.953	91.48
236.17	89.43
236.388	75.09
236.605	58.71
236.822	87.38
237.04	93.52
237.257	77.14
237.475	11.61
237.692	161.11
237.909	73.04
238.127	34.13
238.344	-17.07
238.562	109.91
238.779	46.42
238.996	-12.97
239.214	71
239.431	109.91
239.648	23.89
239.865	-21.16
240.083	109.91
240.3	40.28
240.517	-2.73
240.735	36.18
240.952	122.2
241.169	34.13
241.386	27.99
241.603	23.89
241.821	-8.87
242.038	126.29
242.255	95.57
242.472	-2.73
242.689	91.48
242.907	89.43
243.124	71
243.341	122.2
243.558	23.89
243.775	-29.35
243.992	27.99
244.209	58.71
244.426	154.96
244.643	50.52
244.86	38.23
245.078	7.51
245.295	124.24
245.512	46.42
245.729	1.37
245.946	56.66
246.163	93.52
246.38	-90.79
246.597	-15.02
246.814	54.61
247.031	75.09
247.248	56.66
247.464	77.14
247.681	21.85
247.898	19.8
248.115	50.52
248.332	25.94
248.549	95.57
248.766	152.92
248.983	77.14
249.2	148.82
249.417	103.76
249.633	71
249.85	38.23
250.067	142.68
250.284	9.56
250.501	85.33
250.717	91.48
250.934	-0.68
251.151	38.23
251.368	-2.73
251.585	152.92
251.801	42.32
252.018	32.08
252.235	58.71
252.451	23.89
252.668	68.95
252.885	95.57
253.102	97.62
253.318	9.56
253.535	-0.68
253.752	56.66
253.968	105.81
254.185	-31.4
254.401	11.61
254.618	62.8
254.835	48.47
255.051	91.48
255.268	85.33
255.484	73.04
255.701	44.37
255.917	54.61
256.134	11.61
256.351	75.09
256.567	27.99
256.784	107.86
257	-27.31
257.217	132.44
257.433	38.23
257.65	50.52
257.866	93.52
258.082	-37.55
258.299	-8.87
258.515	91.48
258.732	-17.07
258.948	-37.55
259.165	132.44
259.381	13.65
259.597	73.04
259.814	3.41
260.03	11.61
260.246	54.61
260.463	118.1
260.679	83.28
260.895	103.76
261.112	42.32
261.328	7.51
261.544	11.61
261.761	122.2
261.977	36.18
262.193	-15.02
262.409	142.68
262.626	27.99
262.842	15.7
263.058	-0.68
263.274	71
263.49	54.61
263.707	107.86
263.923	144.72
264.139	-49.83
264.355	32.08
264.571	83.28
264.787	5.46
265.004	83.28
265.22	95.57
265.436	38.23
265.652	15.7
265.868	87.38
266.084	50.52
266.3	50.52
266.516	-27.31
266.732	42.32
266.948	21.85
267.164	116.05
267.38	132.44
267.596	73.04
267.812	93.52
268.028	116.05
268.244	79.19
268.46	87.38
268.676	46.42
268.892	5.46
269.108	38.23
269.324	13.65
269.54	-4.78
269.756	73.04
269.972	17.75
270.188	-45.74
270.403	66.9
270.619	21.85
270.835	50.52
271.051	-27.31
271.267	7.51
271.483	64.85
271.698	83.28
271.914	134.48
272.13	54.61
272.346	60.76
272.562	75.09
272.777	75.09
272.993	75.09
273.209	32.08
273.425	54.61
273.64	7.51
273.856	19.8
274.072	25.94
274.287	-8.87
274.503	32.08
274.719	25.94
274.934	21.85
275.15	-4.78
275.366	97.62
275.581	-25.26
275.797	-23.21
276.012	27.99
276.228	15.7
276.444	32.08
276.659	177.49
276.875	1.37
277.09	77.14
277.306	66.9
277.521	77.14
277.737	64.85
277.952	75.09
278.168	-19.11
278.383	81.24
278.599	81.24
278.814	66.9
279.03	3.41
279.245	81.24
279.461	73.04
279.676	103.76
279.892	-49.83
280.107	85.33
280.322	36.18
280.538	116.05
280.753	122.2
280.969	95.57
281.184	34.13
281.399	105.81
281.615	71
281.83	44.37
282.045	7.51
282.26	5.46
282.476	56.66
282.691	105.81
282.906	25.94
283.122	54.61
283.337	25.94
283.552	95.57
283.767	81.24
283.983	79.19
284.198	66.9
284.413	79.19
284.628	5.46
284.843	77.14
285.058	77.14
285.274	50.52
285.489	30.04
285.704	105.81
285.919	50.52
286.134	-2.73
286.349	118.1
286.564	75.09
286.779	150.87
286.995	7.51
287.21	3.41
287.425	91.48
287.64	40.28
287.855	60.76
288.07	75.09
288.285	130.39
288.5	89.43
288.715	64.85
288.93	30.04
289.145	1.37
289.36	68.95
289.575	77.14
289.79	87.38
290.004	34.13
290.219	93.52
290.434	-0.68
290.649	30.04
290.864	3.41
291.079	23.89
291.294	40.28
291.509	48.47
291.724	128.34
291.938	73.04
292.153	46.42
292.368	77.14
292.583	144.72
292.798	93.52
293.012	25.94
293.227	68.95
293.442	52.56
293.657	66.9
293.871	7.51
294.086	1.37
294.301	114
294.516	91.48
294.73	54.61
294.945	38.23
295.16	56.66
295.374	38.23
295.589	79.19
295.804	32.08
296.018	9.56
296.233	66.9
296.447	50.52
296.662	-33.45
296.877	126.29
297.091	99.67
297.306	30.04
297.52	48.47
297.735	66.9
297.949	15.7
298.164	89.43
298.378	62.8
298.593	27.99
298.807	-19.11
299.022	11.61
299.236	109.91
299.451	32.08
299.665	-15.02
299.88	50.52
300.094	42.32
300.309	1.37
300.523	83.28
300.737	38.23
300.952	-15.02
301.166	89.43
301.381	30.04
301.595	62.8
301.809	17.75
302.024	111.96
302.238	-6.83
302.452	75.09
302.667	30.04
302.881	148.82
303.095	122.2
303.309	42.32
303.524	42.32
303.738	44.37
303.952	-4.78
304.166	81.24
304.381	-35.5
304.595	95.57
304.809	1.37
305.023	107.86
305.237	48.47
305.452	58.71
305.666	21.85
305.88	79.19
306.094	79.19
306.308	109.91
306.522	77.14
306.736	111.96
306.95	118.1
307.164	73.04
307.379	23.89
307.593	183.63
307.807	81.24
308.021	75.09
308.235	71
308.449	-37.55
308.663	32.08
308.877	167.25
309.091	134.48
309.305	89.43
309.519	-60.07
309.733	152.92
309.947	36.18
310.161	191.83
310.374	124.24
310.588	118.1
310.802	-45.74
311.016	52.56
311.23	44.37
311.444	58.71
311.658	105.81
311.872	99.67
312.085	46.42
312.299	89.43
312.513	44.37
312.727	130.39
312.941	27.99
313.154	77.14
313.368	79.19
313.582	44.37
313.796	60.76
314.009	25.94
314.223	179.54
314.437	3.41
314.651	97.62
314.864	52.56
315.078	-37.55
315.292	-35.5
315.505	46.42
315.719	62.8
315.933	185.68
316.146	19.8
316.36	40.28
316.573	130.39
316.787	56.66
317.001	9.56
317.214	5.46
317.428	-0.68
317.641	19.8
317.855	-23.21
318.068	85.33
318.282	11.61
318.495	66.9
318.709	7.51
318.922	36.18
319.136	60.76
319.349	60.76
319.563	38.23
319.776	83.28
319.99	-8.87
320.203	79.19
320.417	111.96
320.63	95.57
320.843	171.35
321.057	54.61
321.27	91.48
321.483	85.33
321.697	167.25
321.91	30.04
322.124	93.52
322.337	54.61
322.55	56.66
322.763	79.19
322.977	52.56
323.19	27.99
323.403	-6.83
323.617	77.14
323.83	118.1
324.043	97.62
324.256	116.05
324.469	-41.64
324.683	75.09
324.896	5.46
325.109	30.04
325.322	-35.5
325.535	136.53
325.748	44.37
325.962	9.56
326.175	36.18
326.388	11.61
326.601	126.29
326.814	62.8
327.027	34.13
327.24	91.48
327.453	-4.78
327.666	56.66
327.879	52.56
328.092	99.67
328.305	79.19
328.518	128.34
328.731	23.89
328.944	32.08
329.157	99.67
329.37	50.52
329.583	206.16
329.796	148.82
330.009	-2.73
330.222	64.85
330.435	75.09
330.648	66.9
330.861	32.08
331.073	-2.73
331.286	128.34
331.499	101.72
331.712	54.61
331.925	46.42
332.138	85.33
332.35	114
332.563	30.04
332.776	146.77
332.989	-62.12
333.202	-4.78
333.414	36.18
333.627	124.24
333.84	87.38
334.053	-2.73
334.265	-8.87
334.478	19.8
334.691	34.13
334.903	66.9
335.116	-55.98
335.329	17.75
335.541	91.48
335.754	130.39
335.966	50.52
336.179	32.08
336.392	81.24
336.604	50.52
336.817	36.18
337.029	107.86
337.242	122.2
337.454	30.04
337.667	50.52
337.88	95.57
338.092	40.28
338.305	42.32
338.517	62.8
338.729	60.76
338.942	130.39
339.154	64.85
339.367	73.04
339.579	-12.97
339.792	-15.02
340.004	62.8
340.217	71
340.429	118.1
340.641	77.14
340.854	5.46
341.066	66.9
341.278	56.66
341.491	118.1
341.703	68.95
341.915	23.89
342.128	95.57
342.34	136.53
342.552	-17.07
342.764	60.76
342.977	93.52
343.189	60.76
343.401	157.01
343.613	32.08
343.826	5.46
344.038	71
344.25	132.44
344.462	-10.92
344.674	73.04
344.886	42.32
345.099	109.91
345.311	95.57
345.523	60.76
345.735	-27.31
345.947	79.19
346.159	30.04
346.371	118.1
346.583	64.85
346.795	118.1
347.007	50.52
347.219	124.24
347.431	60.76
347.643	177.49
347.855	7.51
348.067	142.68
348.279	27.99
348.491	60.76
348.703	66.9
348.915	32.08
349.127	44.37
349.339	105.81
349.551	93.52
349.763	200.02
349.975	77.14
350.187	85.33
350.399	83.28
350.61	48.47
350.822	54.61
351.034	95.57
351.246	25.94
351.458	107.86
351.669	71
351.881	75.09
352.093	66.9
352.305	103.76
352.517	73.04
352.728	126.29
352.94	77.14
353.152	77.14
353.363	34.13
353.575	34.13
353.787	124.24
353.999	66.9
354.21	15.7
354.422	103.76
354.633	48.47
354.845	124.24
355.057	75.09
355.268	77.14
355.48	134.48
355.692	-0.68
355.903	40.28
356.115	11.61
356.326	9.56
356.538	130.39
356.749	103.76
356.961	62.8
357.172	27.99
357.384	13.65
357.595	175.44
357.807	25.94
358.018	38.23
358.23	56.66
358.441	150.87
358.653	130.39
358.864	42.32
359.075	52.56
359.287	126.29
359.498	138.58
359.709	169.3
359.921	120.15
360.132	77.14
360.344	89.43
360.555	136.53
360.766	13.65
360.977	58.71
361.189	142.68
361.4	30.04
361.611	99.67
361.823	93.52
362.034	73.04
362.245	13.65
362.456	46.42
362.667	71
362.879	52.56
363.09	97.62
363.301	116.05
363.512	79.19
363.723	50.52
363.935	5.46
364.146	97.62
364.357	42.32
364.568	73.04
364.779	13.65
364.99	101.72
365.201	-27.31
365.412	62.8
365.623	38.23
365.834	68.95
366.045	66.9
366.256	128.34
366.467	99.67
366.678	40.28
366.889	46.42
367.1	73.04
367.311	77.14
367.522	42.32
367.733	128.34
367.944	103.76
368.155	25.94
368.366	136.53
368.577	144.72
368.788	161.11
368.999	60.76
369.209	122.2
369.42	148.82
369.631	165.2
369.842	91.48
370.053	40.28
370.264	50.52
370.474	15.7
370.685	87.38
370.896	-0.68
371.107	122.2
371.317	126.29
371.528	44.37
371.739	134.48
371.95	77.14
372.16	81.24
372.371	15.7
372.582	-45.74
372.792	48.47
373.003	46.42
373.214	111.96
373.424	116.05
373.635	7.51
373.846	73.04
374.056	40.28
374.267	48.47
374.477	146.77
374.688	9.56
374.898	132.44
375.109	17.75
375.319	120.15
375.53	165.2
375.74	150.87
375.951	83.28
376.161	85.33
376.372	83.28
376.582	1.37
376.793	68.95
377.003	-23.21
377.214	38.23
377.424	81.24
377.635	38.23
377.845	36.18
378.055	126.29
378.266	19.8
378.476	56.66
378.686	103.76
378.897	97.62
379.107	97.62
379.317	27.99
379.528	89.43
379.738	79.19
379.948	-21.16
380.158	124.24
380.369	66.9
380.579	101.72
380.789	42.32
380.999	120.15
381.21	93.52
381.42	81.24
381.63	85.33
381.84	87.38
382.05	105.81
382.261	91.48
382.471	25.94
382.681	79.19
382.891	163.15
383.101	17.75
383.311	52.56
383.521	62.8
383.731	126.29
383.941	101.72
384.151	68.95
384.361	17.75
384.571	52.56
384.781	46.42
384.991	212.31
385.201	95.57
385.411	159.06
385.621	66.9
385.831	122.2
386.041	81.24
386.251	89.43
386.461	128.34
386.671	19.8
386.881	36.18
387.091	85.33
387.301	109.91
387.511	71
387.72	97.62
387.93	122.2
388.14	11.61
388.35	85.33
388.56	111.96
388.769	107.86
388.979	85.33
389.189	91.48
389.399	-58.03
389.609	161.11
389.818	9.56
390.028	83.28
390.238	87.38
390.447	38.23
390.657	144.72
390.867	75.09
391.076	60.76
391.286	56.66
391.496	130.39
391.705	83.28
391.915	154.96
392.125	40.28
392.334	11.61
392.544	118.1
392.753	85.33
392.963	32.08
393.172	64.85
393.382	75.09
393.591	175.44
393.801	154.96
394.01	111.96
394.22	95.57
394.429	75.09
394.639	105.81
394.848	114
395.058	152.92
395.267	97.62
395.477	161.11
395.686	120.15
395.895	249.17
396.105	154.96
396.314	101.72
396.524	126.29
396.733	21.85
396.942	140.63
397.152	95.57
397.361	159.06
397.57	107.86
397.78	91.48
397.989	109.91
398.198	163.15
398.407	157.01
398.617	154.96
398.826	7.51
399.035	89.43
399.244	124.24
399.453	116.05
399.663	79.19
399.872	232.79
400.081	60.76
400.29	193.87
400.499	91.48
400.708	210.26
400.917	95.57
401.127	107.86
401.336	40.28
401.545	206.16
401.754	206.16
401.963	167.25
402.172	71
402.381	118.1
402.59	124.24
402.799	165.2
403.008	152.92
403.217	124.24
403.426	146.77
403.635	54.61
403.844	124.24
404.053	38.23
404.262	161.11
404.471	161.11
404.68	140.63
404.888	150.87
405.097	191.83
405.306	144.72
405.515	173.39
405.724	169.3
405.933	222.55
406.142	210.26
406.35	234.83
406.559	202.07
406.768	208.21
406.977	300.37
407.185	197.97
407.394	220.5
407.603	142.68
407.812	308.56
408.02	326.99
408.229	265.55
408.438	304.46
408.646	265.55
408.855	269.65
409.064	351.57
409.272	286.03
409.481	378.19
409.69	261.46
409.898	273.75
410.107	281.94
410.315	484.69
410.524	359.76
410.733	384.34
410.941	318.8
411.15	458.06
411.358	417.1
411.567	568.65
411.775	421.2
411.984	427.34
412.192	570.7
412.401	527.69
412.609	515.41
412.818	587.08
413.026	566.6
413.234	511.31
413.443	550.22
413.651	617.8
413.86	564.56
414.068	718.15
414.276	683.34
414.485	597.32
414.693	679.24
414.901	806.22
415.11	755.02
415.318	691.53
415.526	818.5
415.734	836.94
415.943	916.81
416.151	943.43
416.359	898.38
416.567	957.77
416.776	961.86
416.984	939.34
417.192	1117.51
417.4	982.34
417.608	1017.16
417.817	1080.64
418.025	1183.04
418.233	1219.91
418.441	1082.69
418.649	1312.07
418.857	1336.64
419.065	1318.21
419.273	1310.02
419.481	1508.67
419.689	1539.39
419.897	1631.55
420.105	1598.78
420.313	1715.52
420.521	1768.76
420.729	1709.37
420.937	1781.05
421.145	1750.33
421.353	1994.04
421.561	2018.61
421.769	2063.67
421.977	2250.03
422.185	2047.29
422.393	2237.75
422.601	2420.02
422.809	2344.24
423.017	2391.34
423.224	2546.99
423.432	2719.02
423.64	2587.95
423.848	2815.27
424.056	2686.25
424.263	3093.8
424.471	3097.89
424.679	3015.98
424.887	3120.42
425.094	3321.12
425.302	3435.81
425.51	3489.06
425.718	3603.74
425.925	3489.06
426.133	3648.8
426.341	4033.82
426.548	3958.04
426.756	4281.62
426.964	4140.31
427.171	4416.79
427.379	4566.29
427.586	4527.38
427.794	4703.5
428.001	4959.5
428.209	5063.94
428.417	4967.69
428.624	5485.83
428.832	5365
429.039	5430.53
429.247	5356.8
429.454	6010.11
429.662	6333.68
429.869	5819.64
430.076	6266.1
430.284	6151.42
430.491	6503.67
430.699	6780.14
430.906	6831.34
431.114	6862.06
431.321	7079.15
431.528	7220.46
431.736	7646.43
431.943	7978.2
432.15	7906.52
432.358	7947.48
432.565	8346.84
432.772	8086.75
432.979	8799.44
433.187	8926.41
433.394	8871.12
433.601	9538.76
433.808	9489.6
434.016	9518.28
434.223	9729.22
434.43	10550.45
434.637	10149.05
434.844	10810.54
435.052	11060.4
435.259	11015.34
435.466	10949.81
435.673	10871.98
435.88	11658.4
436.087	12280.99
436.294	12149.92
436.501	12090.52
436.708	12172.44
436.915	12852.37
437.122	13266.06
437.329	13264.01
437.537	13577.35
437.743	13823.11
437.95	13831.3
438.157	14414.97
438.364	14888.05
438.571	14976.11
438.778	15109.23
438.985	16440.41
439.192	15570.02
439.399	16460.89
439.606	15928.42
439.813	16741.46
440.02	17728.58
440.227	17617.99
440.433	17357.9
440.64	18027.59
440.847	17697.86
441.054	18256.96
441.261	19541.04
441.467	18920.5
441.674	19405.87
441.881	20163.62
442.088	19983.4
442.294	20114.47
442.501	20538.4
442.708	21005.33
442.914	21705.74
443.121	22522.88
443.328	22031.37
443.534	23679.98
443.741	22901.75
443.948	22408.19
444.154	24110.05
444.361	24224.74
444.568	24576.99
444.774	24206.31
444.981	24544.22
445.187	25131.99
445.394	26362.82
445.6	25996.23
445.807	28664.74
446.013	27540.4
446.22	27927.47
446.426	28924.83
446.633	29100.95
446.839	30063.5
447.046	29055.9
447.252	30464.9
447.459	30270.34
447.665	30360.45
447.871	31660.91
448.078	33155.93
448.284	31812.46
448.491	32236.39
448.697	33520.47
448.903	34286.41
449.11	34095.95
449.316	33532.76
449.522	34306.89
449.728	35199.8
449.935	35382.07
450.141	35494.71
450.347	36004.66
450.553	34890.56
450.76	35322.68
450.966	36854.56
451.172	36143.92
451.378	37249.82
451.584	36690.73
451.791	37456.67
451.997	36963.11
452.203	37743.38
452.409	37794.58
452.615	37729.05
452.821	35867.44
453.027	35599.16
453.233	37657.37
453.44	36418.35
453.646	36496.17
453.852	36576.04
454.058	37225.25
454.264	36238.12
454.47	36801.32
454.676	36051.76
454.882	37106.46
455.088	33667.92
455.294	34388.81
455.5	35115.84
455.705	35296.06
455.911	33653.59
456.117	33117.02
456.323	32947.04
456.529	31095.67
456.735	32076.65
456.941	31415.16
457.147	31091.58
457.352	30270.34
457.558	29805.45
457.764	29911.95
457.97	29182.87
458.176	28361.64
458.381	28167.08
458.587	27286.45
458.793	27280.31
458.999	25908.17
459.204	27519.92
459.41	26307.52
459.616	24630.24
459.821	25050.07
460.027	24734.68
460.233	24306.66
460.438	23149.56
460.644	23331.83
460.85	22416.38
461.055	21869.58
461.261	21947.4
461.466	20290.59
461.672	19340.33
461.878	20837.4
462.083	19573.8
462.289	19110.96
462.494	18854.97
462.7	18216
462.905	17501.26
463.111	18345.02
463.316	18484.28
463.522	17902.66
463.727	17790.02
463.932	17796.17
464.138	17718.34
464.343	17695.82
464.549	17275.98
464.754	17708.1
464.959	17826.89
465.165	17521.74
465.37	16993.36
465.575	16280.67
465.781	17056.85
465.986	17275.98
466.191	16499.8
466.397	16188.51
466.602	15465.58
466.807	15899.75
467.012	15869.03
467.218	15721.57
467.423	15705.19
467.628	15817.83
467.833	16442.46
468.038	15909.99
468.244	15199.34
468.449	16006.24
468.654	15291.5
468.859	15076.46
469.064	15215.73
469.269	14795.89
469.474	14990.45
469.679	15062.13
469.885	14689.4
470.09	14593.14
470.295	14732.4
470.5	14234.75
470.705	14572.66
470.91	13829.25
471.115	13898.88
471.32	14132.35
471.525	14077.05
471.73	13718.66
471.935	13810.82
472.139	13145.23
472.344	13327.5
472.549	13214.86
472.754	13286.54
472.959	12754.07
473.164	12410.01
473.369	12412.06
473.574	12901.52
473.778	12930.19
473.983	12582.04
474.188	12565.65
474.393	11846.82
474.598	11846.82
474.802	11752.61
475.007	11762.85
475.212	11703.46
475.417	11373.74
475.621	11543.72
475.826	11345.06
476.031	11220.14
476.235	11011.25
476.44	11103.4
476.645	10806.45
476.849	10722.48
477.054	10824.88
477.259	10833.07
477.463	10865.84
477.668	10206.39
477.872	10368.18
478.077	10173.63
478.282	9919.68
478.486	10056.89
478.691	9678.02
478.895	9839.81
479.1	9575.62
479.304	9856.19
479.509	9555.14
479.713	9761.98
479.918	9419.97
480.122	9313.48
480.326	9598.15
480.531	9430.21
480.735	9354.44
480.94	9123.02
481.144	9456.84
481.348	9178.31
481.553	9227.46
481.757	9065.67
481.961	8977.61
482.166	9254.09
482.37	9198.79
482.574	9055.44
482.778	8991.95
482.983	9235.66
483.187	9157.83
483.391	9118.92
483.595	9022.67
483.8	8922.32
484.004	9010.38
484.208	9145.55
484.412	8928.46
484.616	9018.57
484.821	8979.66
485.025	9139.4
485.229	9069.77
485.433	8907.98
485.637	8905.93
485.841	9075.91
486.045	8934.6
486.249	9123.02
486.453	8672.46
486.657	8979.66
486.861	8889.55
487.065	8731.86
487.269	9047.24
487.473	8877.26
487.677	9157.83
487.881	9284.81
488.085	9002.19
488.289	8873.17
488.493	8903.89
488.697	9098.44
488.901	8916.17
489.105	8971.47
489.309	8977.61
489.512	9231.56
489.716	9192.65
489.92	9161.93
490.124	9094.35
490.328	9301.19
490.531	9065.67
490.735	9057.48
490.939	9299.14
491.143	9100.49
491.346	9227.46
491.55	9452.74
491.754	9415.88
491.958	9358.53
492.161	9272.52
492.365	9387.21
492.569	9487.56
492.772	9415.88
492.976	9680.07
493.18	9618.63
493.383	9518.28
493.587	9622.72
493.79	9936.06
493.994	9714.88
494.197	9815.23
494.401	9909.44
494.605	9950.4
494.808	10192.06
495.012	10036.41
495.215	10216.63
495.419	10396.85
495.622	10097.85
495.825	10497.21
496.029	10366.14
496.232	10681.52
496.436	10554.55
496.639	10611.89
496.843	10663.09
497.046	10800.3
497.249	11064.49
497.453	10984.62
497.656	11267.24
497.859	11449.51
498.063	11379.88
498.266	11732.13
498.469	11490.47
498.673	11676.84
498.876	11908.26
499.079	11988.13
499.282	12055.71
499.485	12403.86
499.689	12323.99
499.892	12502.17
500.095	12731.54
500.298	12846.23
500.501	12512.41
500.705	12901.52
500.908	13255.82
501.111	13157.52
501.314	13382.79
501.517	13259.91
501.72	13712.52
501.923	13718.66
502.126	13882.5
502.329	14038.14
502.532	14124.16
502.735	14308.47
502.938	14472.31
503.141	14509.18
503.344	14855.28
503.547	14918.77
503.75	15109.23
503.953	15246.44
504.156	15416.43
504.359	15328.36
504.562	15729.77
504.765	15838.31
504.968	16245.85
505.17	16301.15
505.373	16321.63
505.576	16479.32
505.779	16485.47
505.982	16852.05
506.185	17153.1
506.387	16927.83
506.59	17134.67
506.793	17884.23
506.996	17488.97
507.198	17896.52
507.401	18105.41
507.604	18177.09
507.807	18543.67
508.009	18736.18
508.212	18629.69
508.415	18897.97
508.617	19084.34
508.82	19303.47
509.022	19282.99
509.225	19348.53
509.428	19809.32
509.63	20003.88
509.833	19848.23
510.035	20669.47
510.238	20376.61
510.44	20524.06
510.643	21294.1
510.845	21230.61
511.048	21074.96
511.25	21099.54
511.453	21298.19
511.655	22213.63
511.858	21877.77
512.06	22414.34
512.262	21994.5
512.465	22066.18
512.667	22584.32
512.87	22871.03
513.072	22922.23
513.274	23469.04
513.477	23229.43
513.679	23466.99
513.881	23948.26
514.084	24183.78
514.286	24159.2
514.488	24413.15
514.69	25005.02
514.893	24962.01
515.095	24826.84
515.297	25162.71
515.499	25412.56
515.701	25506.77
515.904	25607.12
516.106	25535.44
516.308	26205.13
516.51	26010.57
516.712	26301.38
516.914	26719.17
517.116	26969.02
517.318	26928.06
517.52	27321.27
517.722	27292.6
517.925	27157.43
518.127	27868.08
518.329	27702.19
518.531	27788.21
518.733	28513.19
518.935	28576.67
519.136	28713.89
519.338	29199.26
519.54	28955.55
519.742	29213.59
519.944	29152.15
520.146	29451.16
520.348	29840.27
520.55	29852.56
520.752	29780.88
520.954	30387.08
521.155	30434.18
521.357	30706.56
521.559	30714.75
521.761	31277.94
521.963	30905.21
522.164	31503.22
522.366	31587.19
522.568	31288.18
522.77	31069.05
522.971	32140.14
523.173	31509.36
523.375	31992.69
523.576	31916.91
523.778	32021.36
523.98	32490.34
524.181	32658.27
524.383	32559.97
524.584	32949.09
524.786	33321.82
524.988	33153.88
525.189	33518.42
525.391	33248.09
525.592	33252.19
525.794	33190.75
525.995	33514.33
526.197	33764.18
526.398	33549.14
526.6	34044.75
526.801	34001.74
527.003	33876.82
527.204	33518.42
527.406	34054.99
527.607	34499.4
527.808	34417.48
528.01	34005.84
528.211	34679.62
528.412	35050.3
528.614	34296.65
528.815	34478.92
529.016	34972.48
529.218	34163.53
529.419	34397
529.62	34298.7
529.822	34431.82
530.023	34415.43
530.224	34853.7
530.425	34923.33
530.626	34470.73
530.828	34366.28
531.029	35214.14
531.23	34691.91
531.431	34603.85
531.632	35203.9
531.833	34755.4
532.035	34624.33
532.236	34933.57
532.437	34997.06
532.638	34835.27
532.839	34931.52
533.04	34976.58
533.241	34560.84
533.442	35363.64
533.643	34958.14
533.844	34745.16
534.045	34974.53
534.246	34747.2
534.447	34804.55
534.648	34726.72
534.849	35107.65
535.05	34794.31
535.251	35005.25
535.451	34440.01
535.652	34988.86
535.853	34661.19
536.054	34913.09
536.255	34861.89
536.456	34243.4
536.657	35109.69
536.857	34661.19
537.058	34540.36
537.259	34689.86
537.46	34726.72
537.66	34435.91
537.861	34908.99
538.062	34724.68
538.263	34433.86
538.463	35021.63
538.664	34626.37
538.865	34796.35
539.065	34696
539.266	34153.29
539.466	34775.87
539.667	34073.42
539.868	34822.98
540.068	34145.1
540.269	34165.58
540.469	34822.98
540.67	34095.95
540.87	34411.34
541.071	34397
541.271	34530.12
541.472	34315.08
541.672	34118.48
541.873	34356.04
542.073	33798.99
542.274	34284.36
542.474	34335.56
542.675	34147.15
542.875	34263.88
543.075	34163.53
543.276	33846.1
543.476	34653
543.676	34009.93
543.877	34304.84
544.077	34280.27
544.277	34179.92
544.478	33901.39
544.678	34022.22
544.878	33688.4
545.078	34321.23
545.279	34009.93
545.479	34298.7
545.679	34171.72
545.879	34061.13
546.079	33923.92
546.28	33790.8
546.48	33792.85
546.68	33717.07
546.88	33758.03
547.08	33848.14
547.28	33622.87
547.48	33342.3
547.68	33817.43
547.88	33760.08
548.081	33844.05
548.281	33854.29
548.481	33641.3
548.681	33909.58
548.881	33479.51
549.081	33530.71
549.28	33559.38
549.48	33837.9
549.68	33538.9
549.88	33833.81
550.08	33272.67
550.28	33874.77
550.48	33573.72
550.68	34030.41
550.88	33325.91
551.08	33526.61
551.279	33676.12
551.479	33358.68
551.679	33575.76
551.879	33313.62
552.079	33538.9
552.278	33432.41
552.478	33174.36
552.678	33395.54
552.878	33407.83
553.077	33551.19
553.277	33117.02
553.477	33524.57
553.676	33272.67
553.876	33135.45
554.076	33260.38
554.275	33323.86
554.475	33225.56
554.674	33342.3
554.874	33373.02
555.074	33022.81
555.273	33014.62
555.473	33297.24
555.672	33325.91
555.872	32879.46
556.071	33268.57
556.271	33301.34
556.47	33200.99
556.67	32668.51
556.869	32742.24
557.068	32924.51
557.268	32981.85
557.467	32838.5
557.667	32942.94
557.866	32858.98
558.065	32678.75
558.265	32723.81
558.464	32746.34
558.663	32977.76
558.863	32383.85
559.062	33127.26
559.261	32299.88
559.461	33221.47
559.66	32351.08
559.859	32736.1
560.058	32465.77
560.258	32947.04
560.457	32555.88
560.656	32975.71
560.855	32463.72
561.054	32701.28
561.253	32381.8
561.453	32654.18
561.652	32772.96
561.851	32678.75
562.05	32564.07
562.249	32377.7
562.448	32709.47
562.647	32289.64
562.846	32562.02
563.045	32078.7
563.244	32146.28
563.443	32424.81
563.642	32103.28
563.841	32047.98
564.04	32136.04
564.239	32242.54
564.438	31761.26
564.637	32473.96
564.836	32410.47
565.035	31826.8
565.234	32009.07
565.432	32230.25
565.631	32007.02
565.83	32531.3
566.029	31961.97
566.228	31576.95
566.427	31961.97
566.625	31513.46
566.824	31513.46
567.023	32002.92
567.222	31630.19
567.42	31681.39
567.619	31585.14
567.818	31677.3
568.016	31722.35
568.215	31769.46
568.414	31464.31
568.612	31871.85
568.811	31529.84
569.01	32133.99
569.208	31300.47
569.407	31429.49
569.605	30804.86
569.804	31701.87
570.002	31318.9
570.201	31394.68
570.4	31271.8
570.598	31447.93
570.797	31011.71
570.995	31282.04
571.193	31069.05
571.392	31396.73
571.59	30643.07
571.789	31073.15
571.987	30966.65
572.186	30978.94
572.384	30724.99
572.582	30972.8
572.781	31339.38
572.979	30749.57
573.177	30634.88
573.376	30700.42
573.574	30473.09
573.772	31021.95
573.971	30391.17
574.169	30464.9
574.367	30372.74
574.565	30770.05
574.763	30313.35
574.962	30452.61
575.16	30313.35
575.358	30681.99
575.556	30268.3
575.754	30620.55
575.952	30167.94
576.151	30378.89
576.349	29827.98
576.547	29721.49
576.745	29971.34
576.943	29936.52
577.141	29899.66
577.339	30069.64
577.537	29918.09
577.735	29739.92
577.933	29389.72
578.131	29879.18
578.329	29852.56
578.527	29449.11
578.725	29766.54
578.923	29578.13
579.121	29690.77
579.319	29156.25
579.516	29598.61
579.714	29561.75
579.912	29545.36
580.11	29451.16
580.308	29270.93
580.506	29522.83
580.704	28816.29
580.901	29146.01
581.099	29451.16
581.297	28808.09
581.495	28857.24
581.692	29146.01
581.89	28961.69
582.088	29211.54
582.285	28732.32
582.483	29221.78
582.681	28562.34
582.878	28685.22
583.076	28570.53
583.274	29207.45
583.471	28210.09
583.669	28646.3
583.866	28400.55
584.064	28693.41
584.262	28079.02
584.459	28582.82
584.657	28208.04
584.854	28459.94
585.052	27911.08
585.249	28658.59
585.447	28122.02
585.644	27859.88
585.841	28341.16
586.039	28156.84
586.236	27784.11
586.434	27753.39
586.631	27638.7
586.828	27753.39
587.026	28259.24
587.223	27798.45
587.42	27638.7
587.618	27481.01
587.815	27454.39
588.012	27145.14
588.21	27376.56
588.407	27562.93
588.604	27233.21
588.801	27009.98
588.999	27216.82
589.196	27204.53
589.393	27409.33
589.59	27108.28
589.787	26907.58
589.984	27048.89
590.182	26811.32
590.379	27001.79
590.576	26479.55
590.773	26846.14
590.97	26768.32
591.167	26700.73
591.364	26506.18
591.561	26778.56
591.758	26319.81
591.955	26268.61
592.152	26878.91
592.349	26178.5
592.546	26241.99
592.743	26018.76
592.94	25914.31
593.137	26534.85
593.334	26215.37
593.531	25842.63
593.727	26233.8
593.924	26088.39
594.121	25971.66
594.318	26237.89
594.515	25603.02
594.712	26205.13
594.908	25500.62
595.105	25773
595.302	25318.35
595.499	25840.59
595.696	25908.17
595.892	25508.82
596.089	25478.1
596.286	25629.65
596.482	25582.54
596.679	25404.37
596.876	25494.48
597.072	25150.42
597.269	25175
597.466	25021.4
597.662	25441.23
597.859	25218
598.055	25381.84
598.252	24947.67
598.448	24820.7
598.645	24914.91
598.841	24929.24
599.038	25072.6
599.234	24996.82
599.431	24667.1
599.627	24822.75
599.824	24933.34
600.02	24470.5
600.217	24581.09
600.413	24476.64
600.609	24394.72
600.806	24642.53
601.002	24597.47
601.198	24189.92
601.395	24151.01
601.591	24417.25
601.787	24622.05
601.984	24181.73
602.18	24540.13
602.376	24429.54
602.572	23698.41
602.769	24013.8
602.965	24079.33
603.161	23948.26
603.357	24062.95
603.553	23835.63
603.75	24024.04
603.946	23417.84
604.142	24005.61
604.338	23628.78
604.534	23653.36
604.73	23526.38
604.926	23673.84
605.122	24112.1
605.318	23399.41
605.514	23778.28
605.71	23630.83
605.906	23555.05
606.102	23354.35
606.298	23356.4
606.494	23380.98
606.69	23471.09
606.886	23616.49
607.082	23198.71
607.278	23510
607.474	23043.06
607.67	23225.33
607.866	23030.77
608.062	23759.85
608.257	23112.69
608.453	23245.81
608.649	23413.74
608.845	22840.31
609.041	22780.92
609.236	23233.52
609.432	23329.78
609.628	22975.48
609.824	23073.78
610.019	22887.42
610.215	22983.67
610.411	23184.37
610.606	22486.01
610.802	23141.36
610.998	23012.34
611.193	22885.37
611.389	22828.02
611.584	22963.19
611.78	22782.97
611.976	22719.48
612.171	22862.84
612.367	22942.71
612.562	22721.53
612.758	22600.7
612.953	22449.15
613.149	22707.19
613.344	22713.34
613.539	22834.17
613.735	22580.22
613.93	22572.03
614.126	22625.28
614.321	22662.14
614.517	22467.58
614.712	22606.84
614.907	22461.44
615.103	22481.92
615.298	22334.46
615.493	22715.39
615.688	21996.55
615.884	22617.08
616.079	22318.08
616.274	22318.08
616.47	22248.45
616.665	22418.43
616.86	22119.43
617.055	22291.46
617.25	22121.48
617.445	22125.57
617.641	21775.37
617.836	22033.41
618.031	21943.3
618.226	21926.92
618.421	21808.14
618.616	22248.45
618.811	21638.16
619.006	21967.88
619.201	21675.02
619.396	21888.01
619.591	21451.79
619.786	21634.06
619.981	21466.13
620.176	21466.13
620.371	21158.93
620.566	21242.9
620.761	20861.97
620.956	21302.29
621.151	20900.89
621.346	21314.58
621.541	20595.74
621.735	21021.72
621.93	20481.05
622.125	20806.68
622.32	20501.53
622.515	20542.49
622.709	20438.05
622.904	20661.27
623.099	19973.16
623.294	20235.3
623.488	19868.71
623.683	20024.36
623.878	19575.85
624.072	20007.97
624.267	19870.76
624.462	19500.08
624.656	19606.57
624.851	19725.35
625.046	19448.88
625.24	19326
625.435	19143.73
625.629	19145.78
625.824	19153.97
626.018	19059.76
626.213	18621.5
626.407	18926.64
626.602	18537.53
626.796	18621.5
626.991	18738.23
627.185	18326.59
627.38	18187.33
627.574	18254.91
627.768	18138.18
627.963	18150.46
628.157	17839.17
628.352	17994.82
628.546	17722.44
628.74	17824.84
628.935	17796.17
629.129	17658.95
629.323	17415.24
629.517	17388.62
629.712	17288.27
629.906	17368.14
630.1	17069.14
630.294	17060.94
630.489	16747.61
630.683	16921.68
630.877	16933.97
631.071	16747.61
631.265	16823.38
631.459	16626.78
631.653	16364.64
631.848	16583.77
632.042	16395.36
632.236	16254.05
632.43	16172.13
632.624	16163.93
632.818	16182.37
633.012	15811.68
633.206	16039.01
633.4	15930.47
633.594	15684.71
633.788	15787.11
633.982	15676.52
634.176	15418.47
634.369	15453.29
634.563	15406.19
634.757	15230.06
634.951	15256.68
635.145	15080.56
635.339	15170.67
635.533	15170.67
635.726	14937.2
635.92	14582.9
636.114	14986.35
636.308	14754.93
636.501	14750.84
636.695	14761.08
636.889	14482.55
637.083	14644.34
637.276	14214.27
637.47	14265.47
637.664	14146.69
637.857	14118.01
638.051	14302.33
638.244	13821.06
638.438	13874.31
638.632	13851.78
638.825	13819.01
639.019	13642.89
639.212	13550.73
639.406	13350.03
639.599	13692.04
639.793	13366.41
639.986	13063.31
640.18	13272.2
640.373	13198.48
640.567	13173.9
640.76	13096.08
640.954	12768.4
641.147	12788.88
641.34	12831.89
641.534	12936.34
641.727	12874.9
641.92	12657.81
642.114	12432.54
642.307	12481.69
642.5	12197.02
642.694	12399.77
642.887	12330.14
643.08	12278.94
643.273	12123.29
643.467	12000.41
643.66	11754.66
643.853	11795.62
644.046	11795.62
644.239	11730.08
644.432	11564.2
644.626	11639.97
644.819	11484.33
645.012	11472.04
645.205	11488.42
645.398	11420.84
645.591	11287.72
645.784	11181.23
645.977	11224.23
646.17	11123.88
646.363	11013.29
646.556	10880.18
646.749	10886.32
646.942	11007.15
647.135	10738.87
647.328	10742.96
647.521	10611.89
647.714	10695.86
647.907	10601.65
648.099	10478.77
648.292	10476.73
648.485	10357.94
648.678	10237.11
648.871	10163.39
649.064	10165.43
649.256	10216.63
649.449	9944.25
649.642	10026.17
649.835	9815.23
650.027	9860.29
650.22	9827.52
650.413	9821.38
650.605	9907.39
650.798	9641.15
650.991	9606.34
651.183	9630.91
651.376	9524.42
651.568	9596.1
651.761	9391.3
651.954	9262.28
652.146	9231.56
652.339	9227.46
652.531	9209.03
652.724	9149.64
652.916	8907.98
653.109	8928.46
653.301	9125.07
653.494	9116.87
653.686	9000.14
653.879	8811.73
654.071	8758.48
654.263	8809.68
654.456	8936.65
654.648	8795.34
654.84	8514.77
655.033	8486.1
655.225	8717.52
655.417	8512.72
655.61	8420.56
655.802	8502.48
655.994	8340.69
656.186	8426.71
656.379	8250.58
656.571	8213.72
656.763	7982.3
656.955	8013.02
657.148	8133.85
657.34	8103.13
657.532	8002.78
657.724	7943.39
657.916	7910.62
658.108	7720.16
658.3	7845.09
658.492	7720.16
658.684	7607.52
658.876	7515.36
659.068	7619.81
659.26	7574.75
659.452	7589.09
659.644	7591.14
659.836	7331.05
660.028	7513.31
660.22	7234.79
660.412	7320.81
660.604	7212.26
660.796	7269.61
660.988	7159.02
661.18	7075.05
661.372	7046.38
661.563	7070.95
661.755	6907.12
661.947	6909.16
662.139	6896.88
662.331	6774
662.522	6806.77
662.714	6935.79
662.906	6558.96
663.097	6810.86
663.289	6526.19
663.481	6307.06
663.673	6722.8
663.864	6495.47
664.056	6415.6
664.247	6429.94
664.439	6622.45
664.631	6659.31
664.822	6302.97
665.014	6292.73
665.205	6264.05
665.397	6307.06
665.588	6241.53
665.78	6345.97
665.971	6257.91
666.163	6008.06
666.354	6298.87
666.546	6063.35
666.737	5887.23
666.929	5948.67
667.12	6012.15
667.311	5977.34
667.503	5866.75
667.694	5846.27
667.885	5977.34
668.077	5825.79
668.268	5772.54
668.459	5737.73
668.651	5909.76
668.842	5815.55
669.033	5625.09
669.224	5770.49
669.416	5758.21
669.607	5565.7
669.798	5684.48
669.989	5637.38
670.18	5479.68
670.371	5557.5
670.563	5360.9
670.754	5438.72
670.945	5455.11
671.136	5416.19
671.327	5436.67
671.518	5457.15
671.709	5352.71
671.9	5305.6
672.091	5448.96
672.282	5424.39
672.473	5211.4
672.664	5231.88
672.855	5184.77
673.046	5340.42
673.237	5248.26
673.428	5188.87
673.619	5229.83
673.809	5109
674	5106.95
674.191	5190.92
674.382	5111.05
674.573	5141.77
674.764	5158.15
674.954	5168.39
675.145	4912.39
675.336	5154.05
675.527	5082.38
675.717	5106.95
675.908	4961.55
676.099	4936.97
676.289	5109
676.48	4855.05
676.671	4961.55
676.861	5008.65
677.052	4979.98
677.243	4941.07
677.433	4945.16
677.624	4920.59
677.814	4873.48
678.005	4988.17
678.195	4859.15
678.386	4771.08
678.576	4766.99
678.767	4883.72
678.957	4771.08
679.148	4865.29
679.338	4869.39
679.529	4922.63
679.719	4941.07
679.909	4853
680.1	4754.7
680.29	4896.01
680.481	4666.64
680.671	4865.29
680.861	4635.92
681.052	4826.38
681.242	4801.8
681.432	4678.93
681.622	4805.9
681.813	4734.22
682.003	4805.9
682.193	4787.47
682.383	4691.21
682.573	4707.6
682.764	4810
682.954	4640.01
683.144	4773.13
683.334	4672.78
683.524	4508.94
683.714	4640.01
683.904	4709.65
684.094	4590.86
684.284	4666.64
684.474	4572.43
684.664	4771.08
684.854	4617.49
685.044	4709.65
685.234	4543.76
685.424	4517.14
685.614	4609.3
685.804	4574.48
685.994	4633.87
686.184	4599.06
686.374	4650.25
686.564	4562.19
686.753	4615.44
686.943	4451.6
687.133	4488.46
687.323	4508.94
687.513	4539.66
687.702	4449.55
687.892	4392.21
688.082	4281.62
688.272	4492.56
688.461	4369.68
688.651	4599.06
688.841	4467.99
689.03	4402.45
689.22	4261.14
689.41	4529.42
689.599	4451.6
689.789	4338.96
689.979	4322.58
690.168	4355.35
690.358	4181.27
690.547	4293.91
690.737	4295.96
690.926	4320.53
691.116	4150.55
691.305	4347.15
691.495	4359.44
691.684	4187.41
691.874	4422.93
692.063	4365.59
692.252	4248.85
692.442	4191.51
692.631	4197.65
692.82	4115.73
693.01	4121.88
693.199	4240.66
693.388	4189.46
693.578	4185.37
693.767	4203.8
693.956	4148.5
694.146	4171.03
694.335	4181.27
694.524	4226.32
694.713	4158.74
694.902	4324.63
695.092	4248.85
695.281	4224.28
695.47	4171.03
695.659	4150.55
695.848	4211.99
696.037	4164.89
696.226	4130.07
696.415	4193.56
696.604	4275.48
696.793	4287.76
696.982	4226.32
697.171	4166.93
697.36	4164.89
697.549	4242.71
697.738	4175.13
697.927	4201.75
698.116	4207.89
698.305	4261.14
698.494	4074.78
698.683	4373.78
698.872	4398.35
699.061	4326.68
699.25	4185.37
699.438	4193.56
699.627	4412.69
699.816	4285.72
700.005	4091.16
700.193	4132.12
700.382	4236.56
700.571	4269.33
700.76	4234.52
700.948	4412.69
701.137	4304.15
701.326	4424.98
701.514	4269.33
701.703	4105.49
701.892	4341.01
702.08	4414.74
702.269	4353.3
702.457	4226.32
702.646	4257.04
702.834	4361.49
703.023	4422.93
703.212	4285.72
703.4	4367.63
703.589	4316.44
703.777	4306.2
703.965	4259.09
704.154	4363.54
704.342	4259.09
704.531	4310.29
704.719	4132.12
704.907	4240.66
705.096	4144.41
705.284	4263.19
705.472	4369.68
705.661	4394.26
705.849	4402.45
706.037	4250.9
706.226	4439.31
706.414	4506.9
706.602	4369.68
706.79	4377.87
706.979	4240.66
707.167	4453.65
707.355	4281.62
707.543	4476.18
707.731	4523.28
707.919	4328.72
708.107	4326.68
708.296	4416.79
708.484	4357.39
708.672	4390.16
708.86	4357.39
709.048	4300.05
709.236	4238.61
709.424	4388.11
709.612	4437.27
709.8	4279.57
709.988	4328.72
710.176	4441.36
710.364	4420.88
710.551	4351.25
710.739	4293.91
710.927	4306.2
711.115	4361.49
711.303	4459.79
711.491	4478.23
711.679	4429.07
711.866	4449.55
712.054	4275.48
712.242	4373.78
712.43	4390.16
712.617	4375.83
712.805	4275.48
712.993	4343.06
713.181	4295.96
713.368	4394.26
713.556	4554
713.744	4306.2
713.931	4414.74
714.119	4580.62
714.306	4267.28
714.494	4427.03
714.682	4373.78
714.869	4277.52
715.057	4474.13
715.244	4248.85
715.432	4414.74
715.619	4351.25
715.807	4400.4
715.994	4445.46
716.182	4373.78
716.369	4398.35
716.556	4377.87
716.744	4422.93
716.931	4255
717.119	4359.44
717.306	4447.51
717.493	4410.64
717.681	4461.84
717.868	4480.27
718.055	4386.07
718.242	4349.2
718.43	4328.72
718.617	4345.11
718.804	4424.98
718.991	4388.11
719.179	4228.37
719.366	4457.75
719.553	4490.51
719.74	4363.54
719.927	4341.01
720.114	4289.81
720.301	4304.15
720.488	4255
720.676	4285.72
720.863	4312.34
721.05	4431.12
721.237	4322.58
721.424	4336.92
721.611	4306.2
721.798	4261.14
721.985	4240.66
722.172	4291.86
722.358	4341.01
722.545	4246.8
722.732	4248.85
722.919	4332.82
723.106	4191.51
723.293	4228.37
723.48	4349.2
723.667	4326.68
723.853	4222.23
724.04	4193.56
724.227	4273.43
724.414	4082.97
724.6	4209.94
724.787	4201.75
724.974	4248.85
725.161	4255
725.347	4308.24
725.534	4232.47
725.72	4343.06
725.907	4371.73
726.094	4173.08
726.28	4066.58
726.467	4029.72
726.653	4230.42
726.84	4123.93
727.027	4371.73
727.213	4158.74
727.4	4273.43
727.586	4244.76
727.773	4027.67
727.959	4255
728.145	4173.08
728.332	4148.5
728.518	4140.31
728.705	4267.28
728.891	4144.41
729.077	4185.37
729.264	4009.24
729.45	3984.66
729.636	4199.7
729.823	3896.6
730.009	4117.78
730.195	4162.84
730.382	4255
730.568	4150.55
730.754	4003.1
730.94	4042.01
731.126	4062.49
731.313	4015.38
731.499	4173.08
731.685	4146.45
731.871	4078.87
732.057	4068.63
732.243	4068.63
732.429	4089.11
732.615	3958.04
732.801	4013.34
732.987	4093.21
733.173	3978.52
733.359	4068.63
733.545	4111.64
733.731	3869.98
733.917	4019.48
734.103	3984.66
734.289	3839.26
734.475	3902.75
734.661	4044.06
734.847	3861.79
735.033	3994.9
735.219	3892.51
735.404	3802.4
735.59	3937.56
735.776	3939.61
735.962	3755.29
736.148	3841.31
736.333	3927.32
736.519	3736.86
736.705	3814.68
736.89	3781.92
737.076	3749.15
737.262	3650.85
737.447	3724.57
737.633	3747.1
737.819	3763.48
738.004	3747.1
738.19	3761.44
738.375	3700
738.561	3843.35
738.747	3769.63
738.932	3671.33
739.118	3667.23
739.303	3743
739.489	3736.86
739.674	3585.31
739.859	3605.79
740.045	3648.8
740.23	3593.5
740.416	3489.06
740.601	3570.97
740.786	3503.39
740.972	3626.27
741.157	3605.79
741.342	3466.53
741.528	3562.78
741.713	3403.04
741.898	3513.63
742.084	3411.23
742.269	3392.8
742.454	3511.58
742.639	3519.78
742.824	3314.98
743.01	3413.28
743.195	3521.82
743.38	3441.95
743.565	3337.51
743.75	3388.71
743.935	3245.35
744.12	3388.71
744.305	3364.13
744.49	3351.84
744.675	3185.96
744.86	3190.05
745.045	3323.17
745.23	3314.98
745.415	3212.58
745.6	3249.44
745.785	3108.13
745.97	3183.91
746.155	3194.15
746.34	3194.15
746.525	3024.17
746.71	3112.23
746.895	3061.03
747.079	3087.65
747.264	3005.74
747.449	3005.74
747.634	3044.65
747.819	3032.36
748.003	2927.91
748.188	2837.8
748.373	2913.58
748.557	2970.92
748.742	2852.14
748.927	2856.23
749.111	2862.38
749.296	2889
749.481	2786.6
749.665	2770.22
749.85	2702.64
750.034	2796.84
750.219	2723.12
750.404	2770.22
750.588	2682.16
750.773	2663.72
750.957	2616.62
751.141	2657.58
751.326	2680.11
751.51	2561.33
751.695	2534.7
751.879	2581.81
752.064	2643.24
752.248	2676.01
752.432	2573.61
752.617	2555.18
752.801	2612.53
752.985	2501.94
753.17	2581.81
753.354	2368.82
753.538	2420.02
753.722	2450.74
753.907	2284.85
754.091	2342.19
754.275	2360.63
754.459	2315.57
754.643	2374.96
754.828	2334
755.012	2194.74
755.196	2215.22
755.38	2123.06
755.564	2336.05
755.748	2270.51
755.932	2299.19
756.116	2235.7
756.3	2149.68
756.484	2237.75
756.668	2217.27
756.852	2090.29
757.036	2098.49
757.22	2137.4
757.404	2069.81
757.588	2116.92
757.772	2118.97
757.956	2102.58
758.14	2051.38
758.323	1955.13
758.507	2071.86
758.691	1946.94
758.875	2069.81
759.059	2051.38
759.242	1914.17
759.426	1963.32
759.61	2016.57
759.794	1879.35
759.977	1944.89
760.161	2059.57
760.345	1877.3
760.528	1889.59
760.712	1877.3
760.895	1826.11
761.079	1908.02
761.263	1766.71
761.446	1801.53
761.63	1926.46
761.813	1856.83
761.997	1842.49
762.18	1746.23
762.364	1852.73
762.547	1844.54
762.731	1799.48
762.914	1797.43
763.098	1723.71
763.281	1742.14
763.464	1731.9
763.648	1785.15
763.831	1828.15
764.015	1793.34
764.198	1770.81
764.381	1619.26
764.564	1717.56
764.748	1678.65
764.931	1715.52
765.114	1822.01
765.297	1748.28
765.481	1672.51
765.664	1553.73
765.847	1656.12
766.03	1682.75
766.213	1604.92
766.397	1662.27
766.58	1576.25
766.763	1660.22
766.946	1514.81
767.129	1613.12
767.312	1590.59
767.495	1520.96
767.678	1553.73
767.861	1498.43
768.044	1480
768.227	1594.69
768.41	1592.64
768.593	1672.51
768.776	1510.72
768.959	1535.29
769.142	1473.85
769.324	1510.72
769.507	1418.56
769.69	1555.77
769.873	1410.37
770.056	1582.4
770.239	1410.37
770.421	1494.33
770.604	1424.7
770.787	1514.81
770.97	1469.76
771.152	1430.85
771.335	1465.66
771.518	1389.89
771.7	1463.62
771.883	1553.73
772.066	1404.22
772.248	1342.78
772.431	1447.23
772.613	1369.41
772.796	1283.39
772.978	1355.07
773.161	1412.42
773.343	1379.65
773.526	1330.5
773.708	1359.17
773.891	1295.68
774.073	1348.93
774.256	1252.67
774.438	1484.09
774.621	1234.24
774.803	1314.11
774.985	1221.95
775.168	1271.11
775.35	1219.91
775.532	1334.59
775.715	1258.82
775.897	1283.39
776.079	1289.54
776.261	1195.33
776.444	1207.62
776.626	1164.61
776.808	1158.47
776.99	1221.95
777.173	1170.76
777.355	1135.94
777.537	1238.34
777.719	1199.43
777.901	1029.45
778.083	1164.61
778.265	998.73
778.447	1238.34
778.629	1088.84
778.811	1025.35
778.993	1080.64
779.175	1111.36
779.357	1041.73
779.539	986.44
779.721	998.73
779.903	1064.26
780.085	1041.73
780.267	1015.11
780.449	1039.69
780.631	1056.07
780.812	1066.31
780.994	1004.87
781.176	970.05
781.358	998.73
781.54	986.44
781.721	1054.02
781.903	920.9
782.085	1049.93
782.267	922.95
782.448	808.27
782.63	961.86
782.812	963.91
782.993	970.05
783.175	912.71
783.357	884.04
783.538	922.95
783.72	757.07
783.901	838.98
784.083	804.17
784.264	777.55
784.446	906.57
784.627	847.18
784.809	900.42
784.99	822.6
785.172	906.57
785.353	818.5
785.535	845.13
785.716	847.18
785.897	757.07
786.079	763.21
786.26	830.79
786.441	802.12
786.623	818.5
786.804	795.98
786.985	779.59
787.167	822.6
787.348	742.73
787.529	793.93
787.71	859.46
787.891	755.02
788.073	726.35
788.254	669
788.435	875.85
788.616	759.11
788.797	757.07
788.978	724.3
789.159	781.64
789.34	656.72
789.522	611.66
789.703	621.9
789.884	679.24
790.065	697.67
790.246	695.63
790.427	636.24
790.607	679.24
790.788	740.68
790.969	607.56
791.15	560.46
791.331	671.05
791.512	615.76
791.693	591.18
791.874	548.17
792.054	771.4
792.235	626
792.416	560.46
792.597	548.17
792.778	642.38
792.958	607.56
793.139	572.75
793.32	609.61
793.5	589.13
793.681	609.61
793.862	562.51
794.042	560.46
794.223	535.89
794.404	574.8
794.584	466.25
794.765	439.63
794.945	587.08
795.126	603.47
795.306	636.24
795.487	566.6
795.667	488.78
795.848	574.8
796.028	550.22
796.209	511.31
796.389	525.65
796.57	537.93
796.75	511.31
796.93	505.17
797.111	460.11
797.291	505.17
797.471	550.22
797.652	451.92
797.832	509.26
798.012	494.93
798.192	439.63
798.373	423.25
798.553	466.25
798.733	472.4
798.913	480.59
799.093	382.29
799.274	466.25
799.454	449.87
799.634	482.64
799.814	505.17
799.994	574.8
800.174	499.02
800.354	398.67
800.534	351.57
800.714	488.78
800.894	464.21
801.074	396.62
801.254	359.76
801.434	462.16
801.614	400.72
801.794	372.05
801.974	1361.22
802.154	415.06
802.334	464.21
802.514	347.47
802.693	394.58
802.873	378.19
803.053	402.77
803.233	427.34
803.413	394.58
803.592	363.86
803.772	406.86
803.952	435.53
804.131	345.42
804.311	365.9
804.491	410.96
804.67	310.61
804.85	380.24
805.03	361.81
805.209	404.82
805.389	406.86
805.568	316.75
805.748	370
805.928	322.9
806.107	384.34
806.287	380.24
806.466	353.62
806.646	390.48
806.825	349.52
807.004	353.62
807.184	333.14
807.363	384.34
807.543	351.57
807.722	316.75
807.901	310.61
808.081	347.47
808.26	265.55
808.439	226.64
808.619	324.94
808.798	271.7
808.977	349.52
809.156	312.66
809.336	370
809.515	367.95
809.694	265.55
809.873	343.38
810.052	300.37
810.231	349.52
810.411	286.03
810.59	398.67
810.769	265.55
810.948	359.76
811.127	290.13
811.306	206.16
811.485	288.08
811.664	349.52
811.843	263.51
812.022	240.98
812.201	341.33
812.38	259.41
812.559	234.83
812.737	292.18
812.916	200.02
813.095	290.13
813.274	187.73
813.453	253.27
813.632	337.23
813.811	306.51
813.989	232.79
814.168	296.27
814.347	216.4
814.526	322.9
814.704	374.1
814.883	349.52
815.062	185.68
815.24	372.05
815.419	204.11
815.598	259.41
815.776	218.45
815.955	245.07
816.133	152.92
816.312	283.99
816.49	183.63
816.669	331.09
816.847	189.78
817.026	302.42
817.204	185.68
817.383	167.25
817.561	236.88
817.74	236.88
817.918	265.55
818.097	228.69
818.275	187.73
818.453	263.51
818.632	191.83
818.81	298.32
818.988	269.65
819.167	144.72
819.345	132.44
819.523	136.53
819.701	245.07
819.879	216.4
820.058	234.83
820.236	152.92
820.414	218.45
820.592	232.79
820.77	177.49
820.948	185.68
821.127	148.82
821.305	208.21
821.483	165.2
821.661	212.31
821.839	247.12
822.017	181.59
822.195	152.92
822.373	294.22
822.551	130.39
822.729	238.93
822.907	226.64
823.085	171.35
823.262	265.55
823.44	165.2
823.618	204.11
823.796	177.49
823.974	179.54
824.152	161.11
824.329	202.07
824.507	238.93
824.685	220.5
824.863	187.73
825.04	202.07
825.218	173.39
825.396	263.51
825.574	163.15
825.751	101.72
825.929	286.03
826.107	130.39
826.284	144.72
826.462	165.2
826.639	114
826.817	89.43
826.994	185.68
827.172	195.92
827.349	216.4
827.527	122.2
827.704	216.4
827.882	179.54
828.059	146.77
828.237	107.86
828.414	140.63
828.591	97.62
828.769	193.87
828.946	60.76
829.124	169.3
829.301	159.06
829.478	124.24
829.655	116.05
829.833	253.27
830.01	101.72
830.187	247.12
830.364	144.72
830.542	114
830.719	189.78
830.896	216.4
831.073	177.49
831.25	146.77
831.427	136.53
831.604	44.37
831.782	93.52
831.959	138.58
832.136	202.07
832.313	136.53
832.49	179.54
832.667	171.35
832.844	105.81
833.021	183.63
833.198	169.3
833.374	159.06
833.551	161.11
833.728	73.04
833.905	159.06
834.082	73.04
834.259	159.06
834.436	183.63
834.612	5.46
834.789	114
834.966	73.04
835.143	128.34
835.319	48.47
835.496	165.2
835.673	79.19
835.85	144.72
836.026	99.67
836.203	85.33
836.38	150.87
836.556	77.14
836.733	87.38
836.909	210.26
837.086	75.09
837.262	68.95
837.439	34.13
837.616	132.44
837.792	97.62
837.968	111.96
838.145	52.56
838.321	71
838.498	165.2
838.674	161.11
838.851	95.57
839.027	48.47
839.203	116.05
839.38	140.63
839.556	73.04
839.732	169.3
839.909	85.33
840.085	111.96
840.261	157.01
840.437	68.95
840.614	152.92
840.79	146.77
840.966	118.1
841.142	32.08
841.318	120.15
841.494	103.76
841.671	111.96
841.847	167.25
842.023	30.04
842.199	101.72
842.375	183.63
842.551	38.23
842.727	68.95
842.903	107.86
843.079	34.13
843.255	87.38
843.431	120.15
843.607	120.15
843.783	19.8
843.959	73.04
844.134	42.32
844.31	116.05
844.486	118.1
844.662	64.85
844.838	126.29
845.013	118.1
845.189	91.48
845.365	83.28
845.541	32.08
845.716	91.48
845.892	220.5
846.068	107.86
846.244	71
846.419	109.91
846.595	11.61
846.77	54.61
846.946	107.86
847.122	73.04
847.297	85.33
847.473	93.52
847.648	-68.27
847.824	122.2
847.999	-27.31
848.175	1.37
848.35	54.61
848.526	159.06
848.701	142.68
848.876	95.57
849.052	120.15
849.227	83.28
849.403	9.56
849.578	50.52
849.753	85.33
849.929	66.9
850.104	40.28
850.279	83.28
850.454	62.8
850.63	81.24
850.805	44.37
850.98	56.66
851.155	48.47
851.33	-8.87
851.505	56.66
851.681	83.28
851.856	165.2
852.031	34.13
852.206	181.59
852.381	17.75
852.556	36.18
852.731	71
852.906	126.29
853.081	66.9
853.256	81.24
853.431	87.38
853.606	23.89
853.781	87.38
853.956	-0.68
854.131	66.9
854.305	99.67
854.48	64.85
854.655	75.09
854.83	52.56
855.005	3.41
855.18	38.23
855.354	85.33
855.529	64.85
855.704	68.95
855.879	81.24
856.053	-37.55
856.228	87.38
856.403	71
856.577	157.01
856.752	15.7
856.926	56.66
857.101	68.95
857.276	71
857.45	48.47
857.625	122.2
857.799	185.68
857.974	60.76
858.148	19.8
858.323	73.04
858.497	34.13
858.672	-4.78
858.846	91.48
859.02	68.95
859.195	3.41
859.369	97.62
859.543	-6.83
859.718	103.76
859.892	118.1
860.066	75.09
860.241	-17.07
860.415	36.18
860.589	42.32
860.763	75.09
860.938	40.28
861.112	83.28
861.286	66.9
861.46	114
861.634	13.65
861.808	9.56
861.982	-19.11
862.157	-23.21
862.331	40.28
862.505	1.37
862.679	7.51
862.853	36.18
863.027	54.61
863.201	71
863.375	40.28
863.549	32.08
863.722	42.32
863.896	124.24
864.07	66.9
864.244	40.28
864.418	54.61
864.592	56.66
864.766	21.85
864.939	73.04
865.113	21.85
865.287	71
865.461	-4.78
865.634	68.95
865.808	85.33
865.982	46.42
866.156	46.42
866.329	17.75
866.503	34.13
866.676	30.04
866.85	75.09
867.024	11.61
867.197	75.09
867.371	101.72
867.544	-19.11
867.718	38.23
867.891	75.09
868.065	60.76
868.238	32.08
868.412	13.65
868.585	17.75
868.759	-0.68
868.932	-23.21
869.105	15.7
869.279	30.04
869.452	13.65
869.625	91.48
869.799	30.04
869.972	-92.84
870.145	-0.68
870.319	56.66
870.492	62.8
870.665	3.41
870.838	-39.59
871.011	-45.74
871.185	64.85
871.358	-15.02
871.531	77.14
871.704	13.65
871.877	30.04
872.05	36.18
872.223	17.75
872.396	99.67
872.569	25.94
872.742	25.94
872.915	95.57
873.088	44.37
873.261	-0.68
873.434	79.19
873.607	38.23
873.78	77.14
873.953	-25.26
874.126	17.75
874.299	91.48
874.471	71
874.644	58.71
874.817	122.2
874.99	97.62
875.163	-8.87
875.335	21.85
875.508	101.72
875.681	21.85
875.853	-8.87
876.026	-8.87
876.199	64.85
876.371	32.08
876.544	38.23
876.717	38.23
876.889	3.41
877.062	32.08
877.234	13.65
877.407	5.46
877.579	-12.97
877.752	75.09
877.924	48.47
878.097	32.08
878.269	42.32
878.442	7.51
878.614	-23.21
878.786	77.14
878.959	32.08
879.131	56.66
879.303	-66.22
879.476	19.8
879.648	75.09
879.82	-35.5
879.993	15.7
880.165	25.94
880.337	-2.73
880.509	5.46
880.681	81.24
880.854	46.42
881.026	11.61
881.198	107.86
881.37	-15.02
881.542	-6.83
881.714	25.94
881.886	-12.97
882.058	36.18
882.23	34.13
882.402	71
882.574	34.13
882.746	109.91
882.918	77.14
883.09	42.32
883.262	54.61
883.434	38.23
883.606	38.23
883.778	56.66
883.95	105.81
884.122	-55.98
884.293	21.85
884.465	-19.11
884.637	21.85
884.809	-0.68
884.98	52.56
885.152	101.72
885.324	54.61
885.496	7.51
885.667	21.85
885.839	11.61
886.011	97.62
886.182	-6.83
886.354	54.61
886.525	11.61
886.697	71
886.869	-10.92
887.04	25.94
887.212	23.89
887.383	95.57
887.555	93.52
887.726	7.51
887.897	111.96
888.069	1.37
888.24	91.48
888.412	-21.16
888.583	48.47
888.754	-0.68
888.926	19.8
889.097	-8.87
889.268	-45.74
889.44	-6.83
889.611	-62.12
889.782	-2.73
889.953	5.46
890.125	138.58
890.296	-25.26
890.467	-53.93
890.638	-10.92
890.809	48.47
890.98	-47.79
891.151	95.57
891.323	58.71
891.494	44.37
891.665	46.42
891.836	-35.5
892.007	-2.73
892.178	52.56
892.349	-25.26
892.52	-10.92
892.691	42.32
892.862	-39.59
893.032	-4.78
893.203	-15.02
893.374	54.61
893.545	73.04
893.716	71
893.887	-12.97
894.057	15.7
894.228	-0.68
894.399	25.94
894.57	68.95
894.74	46.42
894.911	66.9
895.082	68.95
895.253	1.37
895.423	-17.07
895.594	3.41
895.764	87.38
895.935	-58.03
896.106	19.8
896.276	50.52
896.447	9.56
896.617	19.8
896.788	3.41
896.958	54.61
897.129	-2.73
897.299	1.37
897.47	73.04
897.64	-6.83
897.81	30.04
897.981	54.61
898.151	19.8
898.322	11.61
898.492	46.42
898.662	-19.11
898.832	17.75
899.003	50.52
899.173	62.8
899.343	48.47
899.513	-39.59
