Data from USB4F104151__52__12-12-18-455.txt Node

Date: Fri Mar 14 12:12:18 EDT 2025
User: louis
Spectrometer: USB4F10415
Trigger mode: 4
Integration Time (sec): 5.000000E-2
Scans to average: 1
Electric dark correction enabled: true
Nonlinearity correction enabled: false
Boxcar width: 0
XAxis mode: Wavelengths
Number of Pixels in Spectrum: 3648
>>>>>Begin Spectral Data<<<<<
178.204	-279.72
178.424	-279.72
178.644	-279.72
178.864	-232.62
179.084	-148.65
179.304	-5.29
179.524	-91.31
179.744	-27.82
179.964	99.16
180.184	2.9
180.404	21.33
180.624	-3.24
180.844	23.38
181.064	-25.77
181.283	-19.63
181.503	13.14
181.723	13.14
181.943	-64.68
182.163	25.43
182.383	17.24
182.602	70.48
182.822	129.88
183.042	27.48
183.262	-5.29
183.482	13.14
183.701	13.14
183.921	25.43
184.141	45.91
184.361	43.86
184.58	-50.35
184.8	29.52
185.02	45.91
185.239	95.06
185.459	50
185.679	50
185.898	17.24
186.118	33.62
186.338	19.29
186.557	74.58
186.777	-5.29
186.997	-1.19
187.216	39.76
187.436	39.76
187.655	76.63
187.875	31.57
188.095	68.44
188.314	45.91
188.534	146.26
188.753	7
188.973	15.19
189.192	142.16
189.412	54.1
189.631	74.58
189.851	88.92
190.07	90.96
190.29	33.62
190.509	-21.67
190.729	33.62
190.948	70.48
191.168	191.31
191.387	111.44
191.607	0.85
191.826	58.2
192.045	72.53
192.265	-25.77
192.484	-9.39
192.704	33.62
192.923	-52.39
193.142	127.83
193.362	80.72
193.581	95.06
193.8	-3.24
194.02	115.54
194.239	76.63
194.458	60.24
194.678	-27.82
194.897	82.77
195.116	72.53
195.335	107.35
195.555	47.96
195.774	39.76
195.993	43.86
196.212	115.54
196.432	88.92
196.651	27.48
196.87	68.44
197.089	158.55
197.308	107.35
197.528	117.59
197.747	-36.01
197.966	-7.34
198.185	88.92
198.404	47.96
198.623	95.06
198.842	37.72
199.062	119.64
199.281	56.15
199.5	39.76
199.719	50
199.938	78.68
200.157	117.59
200.376	131.92
200.595	33.62
200.814	115.54
201.033	27.48
201.252	64.34
201.471	62.29
201.69	152.4
201.909	82.77
202.128	82.77
202.347	82.77
202.566	72.53
202.785	-42.15
203.004	17.24
203.223	127.83
203.442	43.86
203.661	25.43
203.879	54.1
204.098	105.3
204.317	7
204.536	97.11
204.755	-50.35
204.974	35.67
205.193	60.24
205.411	76.63
205.63	35.67
205.849	80.72
206.068	105.3
206.287	121.68
206.505	45.91
206.724	99.16
206.943	58.2
207.162	17.24
207.381	35.67
207.599	-15.53
207.818	21.33
208.037	4.95
208.255	56.15
208.474	-25.77
208.693	25.43
208.911	37.72
209.13	47.96
209.349	39.76
209.567	103.25
209.786	86.87
210.005	111.44
210.223	70.48
210.442	23.38
210.661	27.48
210.879	-7.34
211.098	39.76
211.316	25.43
211.535	82.77
211.753	56.15
211.972	19.29
212.191	52.05
212.409	60.24
212.628	97.11
212.846	31.57
213.065	68.44
213.283	86.87
213.502	60.24
213.72	80.72
213.938	45.91
214.157	37.72
214.375	52.05
214.594	25.43
214.812	54.1
215.031	25.43
215.249	103.25
215.467	11.09
215.686	37.72
215.904	-1.19
216.122	97.11
216.341	166.74
216.559	-17.58
216.778	27.48
216.996	93.01
217.214	33.62
217.432	7
217.651	74.58
217.869	62.29
218.087	21.33
218.306	41.81
218.524	88.92
218.742	86.87
218.96	15.19
219.179	29.52
219.397	19.29
219.615	58.2
219.833	-33.96
220.051	-5.29
220.27	23.38
220.488	93.01
220.706	-38.06
220.924	64.34
221.142	-44.2
221.36	90.96
221.578	62.29
221.796	29.52
222.015	56.15
222.233	113.49
222.451	95.06
222.669	-31.91
222.887	95.06
223.105	-40.11
223.323	-19.63
223.541	-40.11
223.759	13.14
223.977	113.49
224.195	101.2
224.413	47.96
224.631	39.76
224.849	78.68
225.067	97.11
225.285	23.38
225.503	37.72
225.721	2.9
225.939	23.38
226.157	35.67
226.375	123.73
226.592	39.76
226.81	64.34
227.028	70.48
227.246	103.25
227.464	66.39
227.682	62.29
227.9	60.24
228.117	70.48
228.335	-11.43
228.553	27.48
228.771	54.1
228.989	74.58
229.206	90.96
229.424	19.29
229.642	29.52
229.86	-7.34
230.077	54.1
230.295	31.57
230.513	129.88
230.731	25.43
230.948	54.1
231.166	111.44
231.384	0.85
231.601	2.9
231.819	52.05
232.037	54.1
232.254	-5.29
232.472	11.09
232.689	86.87
232.907	121.68
233.125	11.09
233.342	-27.82
233.56	35.67
233.777	47.96
233.995	95.06
234.213	15.19
234.43	47.96
234.648	45.91
234.865	7
235.083	23.38
235.3	4.95
235.518	-38.06
235.735	113.49
235.953	39.76
236.17	43.86
236.388	88.92
236.605	45.91
236.822	74.58
237.04	47.96
237.257	45.91
237.475	4.95
237.692	52.05
237.909	64.34
238.127	72.53
238.344	84.82
238.562	123.73
238.779	9.05
238.996	82.77
239.214	50
239.431	88.92
239.648	70.48
239.865	93.01
240.083	101.2
240.3	47.96
240.517	43.86
240.735	50
240.952	37.72
241.169	88.92
241.386	70.48
241.603	99.16
241.821	41.81
242.038	90.96
242.255	60.24
242.472	29.52
242.689	103.25
242.907	74.58
243.124	66.39
243.341	21.33
243.558	21.33
243.775	31.57
243.992	-23.72
244.209	101.2
244.426	80.72
244.643	56.15
244.86	50
245.078	93.01
245.295	76.63
245.512	119.64
245.729	-7.34
245.946	9.05
246.163	37.72
246.38	27.48
246.597	45.91
246.814	148.31
247.031	0.85
247.248	70.48
247.464	62.29
247.681	95.06
247.898	121.68
248.115	62.29
248.332	-1.19
248.549	129.88
248.766	103.25
248.983	115.54
249.2	93.01
249.417	13.14
249.633	31.57
249.85	41.81
250.067	101.2
250.284	45.91
250.501	17.24
250.717	62.29
250.934	11.09
251.151	0.85
251.368	-1.19
251.585	56.15
251.801	82.77
252.018	74.58
252.235	160.59
252.451	105.3
252.668	-40.11
252.885	17.24
253.102	152.4
253.318	-1.19
253.535	-40.11
253.752	0.85
253.968	74.58
254.185	-33.96
254.401	86.87
254.618	2.9
254.835	-5.29
255.051	109.4
255.268	62.29
255.484	-9.39
255.701	47.96
255.917	33.62
256.134	-3.24
256.351	-52.39
256.567	-29.87
256.784	41.81
257	-11.43
257.217	15.19
257.433	99.16
257.65	39.76
257.866	78.68
258.082	74.58
258.299	43.86
258.515	113.49
258.732	4.95
258.948	-9.39
259.165	23.38
259.381	47.96
259.597	43.86
259.814	-1.19
260.03	-15.53
260.246	9.05
260.463	80.72
260.679	172.88
260.895	-3.24
261.112	95.06
261.328	-29.87
261.544	33.62
261.761	117.59
261.977	62.29
262.193	17.24
262.409	82.77
262.626	27.48
262.842	27.48
263.058	52.05
263.274	86.87
263.49	64.34
263.707	43.86
263.923	29.52
264.139	-9.39
264.355	15.19
264.571	168.79
264.787	76.63
265.004	93.01
265.22	-62.63
265.436	19.29
265.652	21.33
265.868	74.58
266.084	-42.15
266.3	78.68
266.516	11.09
266.732	52.05
266.948	41.81
267.164	15.19
267.38	39.76
267.596	39.76
267.812	168.79
268.028	9.05
268.244	-64.68
268.46	95.06
268.676	54.1
268.892	17.24
269.108	13.14
269.324	11.09
269.54	-17.58
269.756	84.82
269.972	-68.78
270.188	15.19
270.403	11.09
270.619	11.09
270.835	33.62
271.051	-9.39
271.267	27.48
271.483	25.43
271.698	123.73
271.914	11.09
272.13	9.05
272.346	-50.35
272.562	2.9
272.777	103.25
272.993	90.96
273.209	45.91
273.425	119.64
273.64	17.24
273.856	72.53
274.072	23.38
274.287	-27.82
274.503	93.01
274.719	58.2
274.934	74.58
275.15	17.24
275.366	37.72
275.581	-23.72
275.797	76.63
276.012	70.48
276.228	-7.34
276.444	-9.39
276.659	93.01
276.875	-23.72
277.09	7
277.306	21.33
277.521	45.91
277.737	21.33
277.952	56.15
278.168	88.92
278.383	86.87
278.599	80.72
278.814	129.88
279.03	-36.01
279.245	187.22
279.461	54.1
279.676	99.16
279.892	-11.43
280.107	43.86
280.322	11.09
280.538	2.9
280.753	17.24
280.969	-11.43
281.184	13.14
281.399	111.44
281.615	45.91
281.83	62.29
282.045	-62.63
282.26	2.9
282.476	45.91
282.691	23.38
282.906	29.52
283.122	78.68
283.337	-5.29
283.552	66.39
283.767	0.85
283.983	-21.67
284.198	41.81
284.413	13.14
284.628	-15.53
284.843	19.29
285.058	95.06
285.274	47.96
285.489	-1.19
285.704	144.21
285.919	52.05
286.134	41.81
286.349	52.05
286.564	111.44
286.779	82.77
286.995	80.72
287.21	-36.01
287.425	56.15
287.64	7
287.855	90.96
288.07	41.81
288.285	111.44
288.5	56.15
288.715	115.54
288.93	35.67
289.145	-5.29
289.36	172.88
289.575	4.95
289.79	95.06
290.004	27.48
290.219	121.68
290.434	37.72
290.649	-13.48
290.864	11.09
291.079	60.24
291.294	23.38
291.509	78.68
291.724	39.76
291.938	-76.97
292.153	64.34
292.368	25.43
292.583	15.19
292.798	107.35
293.012	95.06
293.227	39.76
293.442	68.44
293.657	93.01
293.871	39.76
294.086	-11.43
294.301	138.07
294.516	13.14
294.73	33.62
294.945	78.68
295.16	80.72
295.374	78.68
295.589	121.68
295.804	4.95
296.018	54.1
296.233	191.31
296.447	4.95
296.662	50
296.877	88.92
297.091	78.68
297.306	54.1
297.52	70.48
297.735	105.3
297.949	33.62
298.164	80.72
298.378	45.91
298.593	-3.24
298.807	86.87
299.022	7
299.236	148.31
299.451	74.58
299.665	62.29
299.88	7
300.094	54.1
300.309	29.52
300.523	82.77
300.737	64.34
300.952	119.64
301.166	82.77
301.381	41.81
301.595	37.72
301.809	-27.82
302.024	-11.43
302.238	60.24
302.452	107.35
302.667	0.85
302.881	72.53
303.095	25.43
303.309	86.87
303.524	27.48
303.738	29.52
303.952	31.57
304.166	60.24
304.381	-38.06
304.595	90.96
304.809	-27.82
305.023	78.68
305.237	60.24
305.452	21.33
305.666	78.68
305.88	68.44
306.094	29.52
306.308	52.05
306.522	68.44
306.736	76.63
306.95	103.25
307.164	0.85
307.379	93.01
307.593	140.12
307.807	127.83
308.021	60.24
308.235	111.44
308.449	-17.58
308.663	2.9
308.877	115.54
309.091	33.62
309.305	74.58
309.519	13.14
309.733	45.91
309.947	-3.24
310.161	47.96
310.374	52.05
310.588	136.02
310.802	11.09
311.016	15.19
311.23	162.64
311.444	-1.19
311.658	58.2
311.872	62.29
312.085	93.01
312.299	140.12
312.513	39.76
312.727	58.2
312.941	9.05
313.154	19.29
313.368	72.53
313.582	17.24
313.796	66.39
314.009	76.63
314.223	7
314.437	17.24
314.651	86.87
314.864	9.05
315.078	-3.24
315.292	-36.01
315.505	-5.29
315.719	64.34
315.933	62.29
316.146	27.48
316.36	-3.24
316.573	101.2
316.787	129.88
317.001	84.82
317.214	50
317.428	80.72
317.641	-15.53
317.855	-1.19
318.068	31.57
318.282	62.29
318.495	125.78
318.709	97.11
318.922	41.81
319.136	136.02
319.349	111.44
319.563	27.48
319.776	66.39
319.99	11.09
320.203	45.91
320.417	86.87
320.63	-3.24
320.843	119.64
321.057	41.81
321.27	41.81
321.483	74.58
321.697	76.63
321.91	39.76
322.124	41.81
322.337	119.64
322.55	-7.34
322.763	47.96
322.977	7
323.19	82.77
323.403	97.11
323.617	25.43
323.83	107.35
324.043	0.85
324.256	39.76
324.469	23.38
324.683	86.87
324.896	136.02
325.109	11.09
325.322	-1.19
325.535	82.77
325.748	15.19
325.962	25.43
326.175	35.67
326.388	74.58
326.601	90.96
326.814	78.68
327.027	58.2
327.24	129.88
327.453	62.29
327.666	121.68
327.879	86.87
328.092	86.87
328.305	27.48
328.518	31.57
328.731	54.1
328.944	64.34
329.157	45.91
329.37	-1.19
329.583	199.51
329.796	90.96
330.009	-42.15
330.222	86.87
330.435	70.48
330.648	23.38
330.861	23.38
331.073	76.63
331.286	90.96
331.499	90.96
331.712	19.29
331.925	25.43
332.138	88.92
332.35	95.06
332.563	37.72
332.776	103.25
332.989	64.34
333.202	113.49
333.414	95.06
333.627	23.38
333.84	33.62
334.053	31.57
334.265	29.52
334.478	-9.39
334.691	84.82
334.903	72.53
335.116	17.24
335.329	15.19
335.541	109.4
335.754	37.72
335.966	62.29
336.179	47.96
336.392	47.96
336.604	72.53
336.817	9.05
337.029	68.44
337.242	41.81
337.454	56.15
337.667	45.91
337.88	93.01
338.092	2.9
338.305	115.54
338.517	56.15
338.729	15.19
338.942	117.59
339.154	-13.48
339.367	-9.39
339.579	62.29
339.792	23.38
340.004	111.44
340.217	66.39
340.429	62.29
340.641	-13.48
340.854	43.86
341.066	52.05
341.278	50
341.491	103.25
341.703	15.19
341.915	-17.58
342.128	31.57
342.34	88.92
342.552	23.38
342.764	33.62
342.977	25.43
343.189	117.59
343.401	90.96
343.613	31.57
343.826	88.92
344.038	60.24
344.25	80.72
344.462	33.62
344.674	95.06
344.886	52.05
345.099	111.44
345.311	33.62
345.523	33.62
345.735	19.29
345.947	17.24
346.159	123.73
346.371	31.57
346.583	125.78
346.795	150.36
347.007	64.34
347.219	97.11
347.431	27.48
347.643	35.67
347.855	60.24
348.067	56.15
348.279	21.33
348.491	-15.53
348.703	107.35
348.915	-7.34
349.127	54.1
349.339	29.52
349.551	62.29
349.763	82.77
349.975	25.43
350.187	97.11
350.399	15.19
350.61	86.87
350.822	41.81
351.034	82.77
351.246	70.48
351.458	117.59
351.669	107.35
351.881	86.87
352.093	80.72
352.305	90.96
352.517	47.96
352.728	15.19
352.94	4.95
353.152	125.78
353.363	66.39
353.575	113.49
353.787	74.58
353.999	23.38
354.21	201.55
354.422	-25.77
354.633	27.48
354.845	62.29
355.057	119.64
355.268	95.06
355.48	33.62
355.692	2.9
355.903	54.1
356.115	0.85
356.326	15.19
356.538	115.54
356.749	131.92
356.961	105.3
357.172	56.15
357.384	86.87
357.595	189.27
357.807	27.48
358.018	2.9
358.23	101.2
358.441	119.64
358.653	80.72
358.864	78.68
359.075	7
359.287	90.96
359.498	103.25
359.709	56.15
359.921	121.68
360.132	50
360.344	-9.39
360.555	76.63
360.766	146.26
360.977	7
361.189	95.06
361.4	64.34
361.611	119.64
361.823	58.2
362.034	31.57
362.245	4.95
362.456	60.24
362.667	25.43
362.879	93.01
363.09	93.01
363.301	99.16
363.512	2.9
363.723	117.59
363.935	54.1
364.146	82.77
364.357	84.82
364.568	76.63
364.779	27.48
364.99	23.38
365.201	21.33
365.412	115.54
365.623	9.05
365.834	82.77
366.045	90.96
366.256	76.63
366.467	54.1
366.678	33.62
366.889	148.31
367.1	-3.24
367.311	113.49
367.522	47.96
367.733	140.12
367.944	54.1
368.155	25.43
368.366	58.2
368.577	41.81
368.788	117.59
368.999	-9.39
369.209	27.48
369.42	107.35
369.631	179.03
369.842	54.1
370.053	97.11
370.264	113.49
370.474	-25.77
370.685	86.87
370.896	-33.96
371.107	113.49
371.317	115.54
371.528	47.96
371.739	129.88
371.95	66.39
372.16	121.68
372.371	-27.82
372.582	72.53
372.792	88.92
373.003	86.87
373.214	68.44
373.424	33.62
373.635	50
373.846	119.64
374.056	68.44
374.267	39.76
374.477	84.82
374.688	45.91
374.898	93.01
375.109	86.87
375.319	29.52
375.53	154.45
375.74	123.73
375.951	76.63
376.161	62.29
376.372	97.11
376.582	84.82
376.793	123.73
377.003	33.62
377.214	11.09
377.424	105.3
377.635	17.24
377.845	88.92
378.055	80.72
378.266	-42.15
378.476	78.68
378.686	76.63
378.897	62.29
379.107	41.81
379.317	97.11
379.528	-40.11
379.738	33.62
379.948	33.62
380.158	80.72
380.369	62.29
380.579	62.29
380.789	84.82
380.999	103.25
381.21	29.52
381.42	164.69
381.63	125.78
381.84	133.97
382.05	105.3
382.261	82.77
382.471	78.68
382.681	60.24
382.891	109.4
383.101	131.92
383.311	21.33
383.521	33.62
383.731	174.93
383.941	133.97
384.151	50
384.361	60.24
384.571	60.24
384.781	70.48
384.991	9.05
385.201	123.73
385.411	105.3
385.621	39.76
385.831	19.29
386.041	4.95
386.251	72.53
386.461	119.64
386.671	119.64
386.881	-23.72
387.091	33.62
387.301	33.62
387.511	103.25
387.72	95.06
387.93	105.3
388.14	-11.43
388.35	7
388.56	105.3
388.769	86.87
388.979	23.38
389.189	-25.77
389.399	23.38
389.609	123.73
389.818	131.92
390.028	21.33
390.238	123.73
390.447	19.29
390.657	93.01
390.867	21.33
391.076	56.15
391.286	99.16
391.496	74.58
391.705	66.39
391.915	58.2
392.125	93.01
392.334	74.58
392.544	174.93
392.753	41.81
392.963	148.31
393.172	127.83
393.382	60.24
393.591	72.53
393.801	123.73
394.01	179.03
394.22	93.01
394.429	125.78
394.639	101.2
394.848	88.92
395.058	64.34
395.267	23.38
395.477	31.57
395.686	84.82
395.895	166.74
396.105	234.32
396.314	82.77
396.524	142.16
396.733	109.4
396.942	152.4
397.152	160.59
397.361	123.73
397.57	72.53
397.78	82.77
397.989	133.97
398.198	166.74
398.407	101.2
398.617	127.83
398.826	121.68
399.035	138.07
399.244	209.75
399.453	52.05
399.663	90.96
399.872	199.51
400.081	82.77
400.29	166.74
400.499	93.01
400.708	187.22
400.917	93.01
401.127	9.05
401.336	117.59
401.545	219.99
401.754	248.66
401.963	215.89
402.172	193.36
402.381	43.86
402.59	119.64
402.799	176.98
403.008	142.16
403.217	168.79
403.426	164.69
403.635	142.16
403.844	193.36
404.053	138.07
404.262	158.55
404.471	199.51
404.68	162.64
404.888	181.07
405.097	195.41
405.306	179.03
405.515	125.78
405.724	181.07
405.933	144.21
406.142	193.36
406.35	170.83
406.559	211.79
406.768	203.6
406.977	285.52
407.185	279.38
407.394	236.37
407.603	154.45
407.812	273.23
408.02	336.72
408.229	236.37
408.438	273.23
408.646	209.75
408.855	267.09
409.064	314.19
409.272	299.86
409.481	310.1
409.69	297.81
409.898	209.75
410.107	342.86
410.315	396.11
410.524	306
410.733	402.26
410.941	383.82
411.15	420.69
411.358	492.37
411.567	426.83
411.775	367.44
411.984	570.19
412.192	459.6
412.401	478.03
412.609	572.24
412.818	598.86
413.026	553.8
413.234	535.37
413.443	574.28
413.651	516.94
413.86	607.05
414.068	619.34
414.276	734.03
414.485	641.87
414.693	684.87
414.901	756.55
415.11	746.31
415.318	727.88
415.526	762.7
415.734	789.32
415.943	889.67
416.151	959.3
416.359	850.76
416.567	969.54
416.776	940.87
416.984	1108.8
417.192	1098.56
417.4	1078.08
417.608	1035.08
417.817	1030.98
418.025	1338.18
418.233	1284.93
418.441	1293.12
418.649	1293.12
418.857	1409.86
419.065	1465.15
419.273	1358.66
419.481	1436.48
419.689	1602.36
419.897	1596.22
420.105	1639.23
420.313	1721.15
420.521	1790.78
420.729	1815.35
420.937	1784.63
421.145	1878.84
421.353	2034.49
421.561	2073.4
421.769	2114.36
421.977	2274.1
422.185	2255.67
422.393	2286.39
422.601	2474.8
422.809	2485.04
423.017	2523.95
423.224	2652.97
423.432	2812.71
423.64	2607.92
423.848	3023.66
424.056	2861.87
424.263	3181.35
424.471	3156.77
424.679	3224.36
424.887	3365.67
425.094	3547.94
425.302	3461.92
425.51	3605.28
425.718	3648.29
425.925	3746.59
426.133	3789.6
426.341	4174.61
426.548	4141.85
426.756	4178.71
426.964	4309.78
427.171	4500.24
427.379	4752.14
427.586	4684.56
427.794	4805.39
428.001	5096.2
428.209	5323.52
428.417	5305.09
428.624	5643.01
428.832	5600
429.039	5626.62
429.247	5524.23
429.454	6017.79
429.662	6736.62
429.869	6228.73
430.076	6601.46
430.284	6255.35
430.491	6566.64
430.699	6904.56
430.906	7066.35
431.114	7172.84
431.321	7348.97
431.528	7539.43
431.736	7932.64
431.943	8168.15
432.15	8061.66
432.358	8274.65
432.565	8745.68
432.772	8504.02
432.979	9104.07
433.187	9173.71
433.394	9245.38
433.601	9784
433.808	9857.73
434.016	9751.23
434.223	10154.68
434.43	10613.43
434.637	10562.23
434.844	11176.62
435.052	11350.7
435.259	11354.79
435.466	11600.55
435.673	11301.54
435.88	12210.84
436.087	13032.08
436.294	12589.72
436.501	12509.85
436.708	12745.36
436.915	13476.49
437.122	13841.03
437.329	13589.13
437.537	14269.05
437.743	14445.18
437.95	14387.83
438.157	15034.99
438.364	15635.05
438.571	15366.76
438.778	15653.48
438.985	17085.01
439.192	16210.53
439.399	16763.48
439.606	16403.04
439.813	17185.36
440.02	18596.41
440.227	18254.4
440.433	17678.92
440.64	18569.79
440.847	18301.5
441.054	18698.81
441.261	19978.79
441.467	19966.5
441.674	20255.26
441.881	20947.48
442.088	20648.47
442.294	20640.28
442.501	21123.6
442.708	21606.92
442.914	22280.71
443.121	23386.61
443.328	22428.16
443.534	24293.86
443.741	23790.06
443.948	23282.16
444.154	25291.22
444.361	24979.93
444.568	25125.33
444.774	25225.68
444.981	25297.36
445.187	26204.61
445.394	26866.11
445.6	26606.02
445.807	29473.17
446.013	28152.23
446.22	28701.09
446.426	29944.2
446.633	30085.51
446.839	30873.98
447.046	29471.12
447.252	31293.82
447.459	31271.29
447.665	31259
447.871	32733.54
448.078	34150.73
448.284	31926.64
448.491	33270.11
448.697	34527.56
448.903	35092.8
449.11	35139.9
449.316	34396.49
449.522	35266.88
449.728	36397.35
449.935	36393.26
450.141	36079.92
450.347	36731.17
450.553	36120.88
450.76	36043.06
450.966	37486.87
451.172	37161.25
451.378	37757.21
451.584	37329.18
451.791	38320.4
451.997	37591.32
452.203	38349.07
452.409	38947.08
452.615	38009.11
452.821	36897.06
453.027	36966.69
453.233	38811.91
453.44	37138.72
453.646	37312.8
453.852	37505.31
454.058	38254.86
454.264	36618.53
454.47	37945.62
454.676	36673.83
454.882	37955.86
455.088	34777.41
455.294	35453.24
455.5	35850.55
455.705	36077.87
455.911	34920.77
456.117	34081.1
456.323	33831.25
456.529	31750.51
456.735	32776.55
456.941	32205.16
457.147	31748.46
457.352	30566.79
457.558	30423.43
457.764	30341.51
457.97	29995.4
458.176	29393.3
458.381	29221.27
458.587	28043.69
458.793	27703.73
458.999	26505.66
459.204	27980.2
459.41	27326.9
459.616	25532.88
459.821	25563.6
460.027	25309.65
460.233	24832.47
460.438	23732.72
460.644	23826.92
460.85	22753.79
461.055	22493.69
461.261	22299.14
461.466	20372
461.672	20146.72
461.878	21383.7
462.083	19952.16
462.289	19694.12
462.494	19110.45
462.7	18508.35
462.905	18186.82
463.111	18512.44
463.316	18573.88
463.522	18070.08
463.727	18377.28
463.932	18293.31
464.138	18010.69
464.343	18086.47
464.549	17402.44
464.754	18008.64
464.959	17840.71
465.165	17943.11
465.37	16988.75
465.575	16685.65
465.781	16951.89
465.986	17476.17
466.191	16661.08
466.397	16362.08
466.602	15534.7
466.807	16112.22
467.012	16038.5
467.218	15833.7
467.423	15827.56
467.628	16101.98
467.833	16693.85
468.038	15831.65
468.244	15477.35
468.449	16181.85
468.654	15430.25
468.859	15544.94
469.064	15284.84
469.269	14824.05
469.474	15088.24
469.679	15166.06
469.885	14697.08
470.09	14834.29
470.295	14875.25
470.5	14299.77
470.705	14479.99
470.91	14148.22
471.115	14056.06
471.32	14152.32
471.525	14375.55
471.73	13879.94
471.935	13763.2
472.139	13183.63
472.344	13408.9
472.549	13277.83
472.754	13150.86
472.959	12989.07
473.164	12485.27
473.369	12497.56
473.574	12894.86
473.778	12780.18
473.983	12712.6
474.188	12710.55
474.393	11874.98
474.598	11862.69
474.802	12024.48
475.007	11977.37
475.212	11844.26
475.417	11352.74
475.621	11371.18
475.826	11336.36
476.031	11190.95
476.235	10914.48
476.44	10984.11
476.645	10797.74
476.849	11002.54
477.054	10676.91
477.259	10629.81
477.463	10660.53
477.668	10345.14
477.872	10433.21
478.077	10191.55
478.282	9964.22
478.486	9906.88
478.691	9603.78
478.895	9798.34
479.1	9859.77
479.304	9814.72
479.509	9587.4
479.713	9790.14
479.918	9638.59
480.122	9290.44
480.326	9329.35
480.531	9614.02
480.735	9308.87
480.94	9421.51
481.144	9351.88
481.348	9077.45
481.553	9149.13
481.757	8884.94
481.961	9161.42
482.166	9296.58
482.37	8954.57
482.574	8907.47
482.778	9034.44
482.983	9036.49
483.187	8950.48
483.391	8989.39
483.595	9038.54
483.8	8911.57
484.004	8930
484.208	8966.86
484.412	8942.28
484.616	8776.4
484.821	8911.57
485.025	8809.17
485.229	8913.61
485.433	8805.07
485.637	8886.99
485.841	8626.9
486.045	8932.05
486.249	8936.14
486.453	8735.44
486.657	8923.85
486.861	8743.63
487.065	8751.82
487.269	8757.97
487.473	8655.57
487.677	8958.67
487.881	8921.81
488.085	8862.41
488.289	9036.49
488.493	8925.9
488.697	8833.74
488.901	8876.75
489.105	8676.05
489.309	8786.64
489.512	8872.65
489.716	8966.86
489.92	8778.45
490.124	8647.38
490.328	9044.68
490.531	8954.57
490.735	8915.66
490.939	9226.95
491.143	8741.58
491.346	9134.79
491.55	9224.9
491.754	9114.31
491.958	9169.61
492.161	9196.23
492.365	9171.66
492.569	9116.36
492.772	9235.14
492.976	9306.82
493.18	9296.58
493.383	9386.69
493.587	9480.9
493.79	9681.6
493.994	9425.61
494.197	9597.63
494.401	9607.87
494.605	9583.3
494.808	9788.1
495.012	9618.11
495.215	9835.2
495.419	9880.25
495.622	9892.54
495.825	9960.13
496.029	10068.67
496.232	10195.64
496.436	9970.37
496.639	10523.32
496.843	10177.21
497.046	10463.93
497.249	10672.82
497.453	10699.44
497.656	10807.98
497.859	10713.78
498.063	11033.26
498.266	11150
498.469	10986.16
498.673	11029.17
498.876	11289.26
499.079	11569.83
499.282	11532.97
499.485	11891.36
499.689	12032.67
499.892	12065.44
500.095	11913.89
500.298	12028.57
500.501	12325.53
500.705	12614.29
500.908	12743.31
501.111	12597.91
501.314	12841.62
501.517	13138.57
501.72	13064.85
501.923	12886.67
502.126	13320.84
502.329	13392.52
502.532	13537.93
502.735	13595.27
502.938	13924.99
503.141	13884.03
503.344	14086.78
503.547	14176.89
503.75	14516.86
503.953	14471.8
504.156	14822
504.359	14735.99
504.562	14776.95
504.765	15080.05
504.968	15164.01
505.17	15583.85
505.373	15430.25
505.576	15782.5
505.779	15880.8
505.982	15819.36
506.185	16065.12
506.387	16149.09
506.59	16431.71
506.793	16630.36
506.996	16601.69
507.198	16929.36
507.401	16927.32
507.604	17422.92
507.807	17664.58
508.009	17584.71
508.212	17769.03
508.415	17746.5
508.617	18010.69
508.82	18158.14
509.022	17906.24
509.225	18586.17
509.428	18756.15
509.63	19010.1
509.833	18919.99
510.035	19280.43
510.238	19296.81
510.44	19563.05
510.643	19538.48
510.845	19687.98
511.048	19823.14
511.25	19948.07
511.453	20261.41
511.655	20836.89
511.858	20570.65
512.06	20761.11
512.262	20716.06
512.465	20974.1
512.667	21176.85
512.87	21293.58
513.072	21617.16
513.274	21668.36
513.477	21901.83
513.679	22129.16
513.881	22274.56
514.084	22364.67
514.286	22458.88
514.488	22710.78
514.69	22966.77
514.893	23204.34
515.095	23376.37
515.297	23263.73
515.499	23925.22
515.701	23835.11
515.904	23816.68
516.106	24156.64
516.308	24377.83
516.51	24400.35
516.712	24586.72
516.914	24732.12
517.116	25295.32
517.318	24949.21
517.52	25008.6
517.722	25197.01
517.925	25723.34
518.127	25815.5
518.329	25950.67
518.531	25629.13
518.733	26458.56
518.935	26427.84
519.136	26386.88
519.338	26718.65
519.54	26839.48
519.742	27052.47
519.944	27165.11
520.146	27779.5
520.348	27216.31
520.55	27496.88
520.752	27324.85
520.954	28066.22
521.155	27546.03
521.357	28551.59
521.559	28453.28
521.761	28854.69
521.963	28707.23
522.164	28690.85
522.366	28670.37
522.568	29254.04
522.77	29213.08
522.971	29614.48
523.173	29381.01
523.375	29733.26
523.576	29561.23
523.778	29507.99
523.98	29966.73
524.181	29911.44
524.383	30237.06
524.584	30267.78
524.786	30439.81
524.988	29815.18
525.189	30491.01
525.391	30525.83
525.592	30615.94
525.794	30732.67
525.995	30570.88
526.197	30960
526.398	30806.4
526.6	31271.29
526.801	31351.16
527.003	31119.74
527.204	31179.13
527.406	31336.82
527.607	31447.41
527.808	31428.98
528.01	31068.54
528.211	31230.33
528.412	32209.26
528.614	31594.87
528.815	31543.67
529.016	32090.48
529.218	31646.07
529.419	31893.87
529.62	31934.83
529.822	31924.59
530.023	31799.66
530.224	31881.58
530.425	32047.47
530.626	31488.37
530.828	31650.16
531.029	32182.63
531.23	31787.38
531.431	31869.3
531.632	31926.64
531.833	31990.13
532.035	31789.42
532.236	31732.08
532.437	32473.45
532.638	31799.66
532.839	31852.91
533.04	32172.39
533.241	31566.2
533.442	32158.06
533.643	31889.77
533.844	31576.44
534.045	32084.33
534.246	31697.27
534.447	32045.42
534.648	31588.72
534.849	31938.93
535.05	31474.04
535.251	31664.5
535.451	31594.87
535.652	31807.86
535.853	31678.83
536.054	31398.26
536.255	31953.26
536.456	31154.55
536.657	31809.9
536.857	31684.98
537.058	31437.17
537.259	31705.46
537.46	31781.23
537.66	31648.11
537.861	31545.72
538.062	31517.04
538.263	31889.77
538.463	31406.45
538.664	31306.1
538.865	31562.1
539.065	31797.62
539.266	30931.33
539.466	31365.49
539.667	30798.21
539.868	31332.73
540.068	31312.25
540.269	31246.71
540.469	31465.85
540.67	31191.42
540.87	31508.85
541.071	31099.26
541.271	31293.82
541.472	31218.04
541.672	31105.4
541.873	31000.96
542.073	30525.83
542.274	31199.61
542.474	31074.68
542.675	30802.3
542.875	31287.67
543.075	31019.39
543.276	30577.03
543.476	31062.4
543.676	31107.45
543.877	31007.1
544.077	31068.54
544.277	30873.98
544.478	31000.96
544.678	30742.91
544.878	30476.68
545.078	31021.44
545.279	30845.31
545.479	30572.93
545.679	30974.33
545.879	30925.18
546.079	30896.51
546.28	30589.31
546.48	30460.29
546.68	30595.46
546.88	30871.93
547.08	30554.5
547.28	30562.69
547.48	30210.44
547.68	30288.26
547.88	30349.7
548.081	30523.78
548.281	30542.21
548.481	30288.26
548.681	30505.35
548.881	30566.79
549.081	30378.37
549.28	29972.88
549.48	30597.51
549.68	30189.96
549.88	30544.26
550.08	30077.32
550.28	30632.32
550.48	30304.65
550.68	30474.63
550.88	30056.84
551.08	30222.73
551.279	30310.79
551.479	30382.47
551.679	30419.33
551.879	30079.37
552.079	30280.07
552.278	30048.65
552.478	30202.25
552.678	29917.58
552.878	30024.08
553.077	29905.29
553.277	29960.59
553.477	30282.12
553.676	29921.68
553.876	30034.32
554.076	29784.46
554.275	29735.31
554.475	29741.46
554.674	30085.51
554.874	29637.01
555.074	29718.93
555.273	29708.69
555.473	30101.9
555.672	29850
555.872	29571.47
556.071	29753.74
556.271	29825.42
556.47	29739.41
556.67	29383.06
556.869	29391.25
557.068	29829.52
557.268	29532.56
557.467	29704.59
557.667	29507.99
557.866	29493.65
558.065	29303.19
558.265	29532.56
558.464	29344.15
558.663	29550.99
558.863	28613.02
559.062	29825.42
559.261	29432.21
559.461	29694.35
559.66	28975.52
559.859	29333.91
560.058	29092.25
560.258	29217.18
560.457	29082.01
560.656	28897.69
560.855	29094.3
561.054	29245.85
561.253	28887.45
561.453	29256.09
561.652	29125.02
561.851	29284.76
562.05	28629.41
562.249	28764.57
562.448	29338.01
562.647	29131.16
562.846	28899.74
563.045	28901.79
563.244	28578.21
563.443	29067.67
563.642	28379.56
563.841	28721.57
564.04	28696.99
564.239	28766.62
564.438	28572.07
564.637	28828.06
564.836	28828.06
565.035	28219.81
565.234	28758.43
565.432	28582.31
565.631	28524.96
565.83	28864.92
566.029	28346.79
566.228	28459.43
566.427	28418.47
566.625	28041.64
566.824	28393.89
567.023	28508.58
567.222	28125.61
567.42	28301.73
567.619	28375.46
567.818	28260.77
568.016	27988.39
568.215	28191.14
568.414	28064.17
568.612	28469.67
568.811	28084.65
569.01	28225.96
569.208	27816.36
569.407	28414.37
569.605	27455.92
569.804	27820.46
570.002	28029.35
570.201	28090.79
570.4	27982.25
570.598	27916.72
570.797	27711.92
570.995	27701.68
571.193	27324.85
571.392	27660.72
571.59	27216.31
571.789	27996.59
571.987	27519.41
572.186	27429.3
572.384	27423.15
572.582	27378.1
572.781	27503.03
572.979	27447.73
573.177	27384.24
573.376	27124.15
573.574	27302.32
573.772	27392.44
573.971	27199.93
574.169	26954.17
574.367	26907.07
574.565	27163.06
574.763	26980.79
574.962	27058.62
575.16	26790.33
575.358	27085.24
575.556	26560.96
575.754	26859.96
575.952	26632.64
576.151	26902.97
576.349	26413.51
576.547	26517.95
576.745	26745.28
576.943	26409.41
577.141	26417.6
577.339	26538.43
577.537	26538.43
577.735	26554.82
577.933	26255.81
578.131	26542.53
578.329	26333.64
578.527	26245.57
578.725	25956.81
578.923	26180.04
579.121	26096.07
579.319	25907.66
579.516	25903.56
579.714	26139.08
579.912	25909.71
580.11	25670.09
580.308	25979.34
580.506	25657.81
580.704	25129.43
580.901	25780.68
581.099	26001.86
581.297	25592.27
581.495	25694.67
581.692	25835.98
581.89	25033.18
582.088	25921.99
582.285	25350.61
582.483	25328.08
582.681	25164.25
582.878	25211.35
583.076	25172.44
583.274	25405.91
583.471	25065.94
583.669	25317.84
583.866	24674.78
584.064	25328.08
584.262	24986.07
584.459	25237.97
584.657	24619.49
584.854	24881.63
585.052	24658.4
585.249	25076.18
585.447	24914.39
585.644	24457.7
585.841	24607.2
586.039	24715.74
586.236	24582.62
586.434	24179.17
586.631	24512.99
586.828	24541.66
587.026	24603.1
587.223	24111.59
587.42	24166.88
587.618	24345.06
587.815	24005.1
588.012	23986.66
588.21	24168.93
588.407	24193.51
588.604	24025.57
588.801	23792.11
588.999	23964.14
589.196	24238.56
589.393	23947.75
589.59	23906.79
589.787	23814.63
589.984	23861.74
590.182	23609.84
590.379	23970.28
590.576	23419.38
590.773	23691.76
590.97	23374.32
591.167	23603.69
591.364	23292.4
591.561	23349.75
591.758	23312.88
591.955	23001.59
592.152	23304.69
592.349	23005.69
592.546	23177.72
592.743	22987.25
592.94	22989.3
593.137	22804.99
593.334	23069.17
593.531	22768.12
593.727	23099.89
593.924	22632.96
594.121	22725.11
594.318	22837.75
594.515	22532.61
594.712	22804.99
594.908	22544.89
595.105	22544.89
595.302	22321.66
595.499	23036.41
595.696	22766.07
595.892	22344.19
596.089	22372.86
596.286	22391.3
596.482	22407.68
596.679	22258.18
596.876	22518.27
597.072	21948.93
597.269	22252.03
597.466	21981.7
597.662	22016.52
597.859	22432.26
598.055	21889.54
598.252	21488.14
598.448	21985.8
598.645	21942.79
598.841	21744.14
599.038	21912.07
599.234	21889.54
599.431	21529.1
599.627	21619.21
599.824	21674.51
600.02	21658.12
600.217	21801.48
600.413	21647.88
600.609	21217.81
600.806	21574.16
601.002	21611.02
601.198	21416.46
601.395	21395.98
601.591	21144.08
601.787	21520.91
601.984	21357.07
602.18	21377.55
602.376	21154.32
602.572	21291.54
602.769	21346.83
602.965	21164.56
603.161	21066.26
603.357	21250.58
603.553	20861.46
603.75	20912.66
603.946	21045.78
604.142	20769.3
604.338	20867.61
604.534	21205.52
604.73	20693.53
604.926	20748.82
605.122	21164.56
605.318	20763.16
605.514	20797.98
605.71	20410.91
605.906	20673.05
606.102	20781.59
606.298	20658.71
606.494	20552.22
606.69	20912.66
606.886	20578.84
607.082	20507.16
607.278	20775.45
607.474	20404.77
607.67	20558.36
607.866	20138.53
608.062	20738.58
608.257	20347.42
608.453	20599.32
608.649	20425.25
608.845	20425.25
609.041	20654.62
609.236	20599.32
609.432	20548.12
609.628	20566.56
609.824	20441.63
610.019	20326.94
610.215	20359.71
610.411	20587.04
610.606	20273.7
610.802	20195.87
610.998	20421.15
611.193	20417.05
611.389	20165.15
611.584	20052.52
611.78	20398.62
611.976	20290.08
612.171	20529.69
612.367	20402.72
612.562	20275.74
612.758	20103.71
612.953	20240.93
613.149	20032.04
613.344	20001.32
613.539	20613.66
613.735	20337.18
613.93	20398.62
614.126	20073
614.321	20302.37
614.517	20265.5
614.712	20171.3
614.907	19798.57
615.103	20109.86
615.298	20197.92
615.493	20464.16
615.688	20087.33
615.884	20394.53
616.079	20034.08
616.274	20240.93
616.47	19950.12
616.665	20482.59
616.86	20042.28
617.055	20154.91
617.25	20058.66
617.445	20206.11
617.641	19667.5
617.836	19948.07
618.031	19724.84
618.226	19964.45
618.421	19864.1
618.616	19989.03
618.811	19839.53
619.006	20023.84
619.201	19694.12
619.396	19755.56
619.591	19415.6
619.786	19511.85
619.981	19221.04
620.176	19657.26
620.371	19364.4
620.566	19489.32
620.761	19360.3
620.956	19501.61
621.151	19061.3
621.346	19141.17
621.541	18965.04
621.735	19403.31
621.93	19008.05
622.125	18893.37
622.32	18686.52
622.515	18954.8
622.709	18778.68
622.904	18903.6
623.099	18899.51
623.294	18610.75
623.488	18598.46
623.683	18606.65
623.878	18207.3
624.072	18221.63
624.267	18248.25
624.462	18235.97
624.656	18141.76
624.851	18096.71
625.046	17723.97
625.24	18090.56
625.435	17687.11
625.629	17525.32
625.824	17623.62
626.018	17640.01
626.213	17347.15
626.407	17633.86
626.602	17314.38
626.796	17236.56
626.991	17490.51
627.185	17369.68
627.38	16894.55
627.574	17001.04
627.768	17031.76
627.963	17027.67
628.157	16675.41
628.352	16796.25
628.546	16867.92
628.74	16595.54
628.935	16585.3
629.129	16556.63
629.323	16544.34
629.517	16431.71
629.712	16284.25
629.906	16034.4
630.1	16202.33
630.294	16034.4
630.489	15956.58
630.683	15817.32
630.877	15909.47
631.071	15608.42
631.265	15800.93
631.459	15686.25
631.653	15501.93
631.848	15409.77
632.042	15290.99
632.236	15420.01
632.43	15393.39
632.624	15577.7
632.818	15293.04
633.012	15192.69
633.206	15223.41
633.4	15334
633.594	14981.74
633.788	14971.5
633.982	14867.06
634.176	14918.26
634.369	14731.89
634.563	14461.56
634.757	14518.9
634.951	14609.01
635.145	14695.03
635.339	14469.75
635.533	14383.74
635.726	14301.82
635.92	14002.82
636.114	14170.75
636.308	14002.82
636.501	14277.24
636.695	14031.49
636.889	13714.05
637.083	13980.29
637.276	13714.05
637.47	13580.93
637.664	13535.88
637.857	13474.44
638.051	13542.02
638.244	13484.68
638.438	13462.15
638.632	13105.81
638.825	13144.72
639.019	12929.68
639.212	12858
639.406	13171.34
639.599	13030.03
639.793	13015.69
639.986	12765.84
640.18	12749.46
640.373	12995.22
640.567	12536.47
640.76	12708.5
640.954	12546.71
641.147	12384.92
641.34	12538.52
641.534	12415.64
641.727	12382.87
641.92	12288.67
642.114	12071.58
642.307	11938.46
642.5	12049.05
642.694	11864.74
642.887	11879.07
643.08	11887.26
643.273	11881.12
643.467	11704.99
643.66	11606.69
643.853	11717.28
644.046	11487.91
644.239	11799.2
644.432	11289.26
644.626	11246.25
644.819	11166.38
645.012	11258.54
645.205	11188.91
645.398	11279.02
645.591	10910.38
645.784	10881.71
645.977	11137.71
646.17	10879.66
646.363	10924.72
646.556	10613.43
646.749	10773.17
646.942	10693.3
647.135	10650.29
647.328	10429.11
647.521	10674.87
647.714	10295.99
647.907	10285.75
648.099	10285.75
648.292	10488.5
648.485	10273.46
648.678	10203.83
648.871	10209.98
649.064	10107.58
649.256	10109.63
649.449	9962.17
649.642	9767.62
649.835	9609.92
650.027	9550.53
650.22	9687.75
650.413	9794.24
650.605	9743.04
650.798	9528
650.991	9470.66
651.183	9695.94
651.376	9421.51
651.568	9405.13
651.761	9433.8
651.954	9198.28
652.146	9296.58
652.339	9116.36
652.531	9212.62
652.724	9044.68
652.916	8858.32
653.109	8739.54
653.301	8858.32
653.494	8764.11
653.686	8706.77
653.879	8794.83
654.071	8602.32
654.263	8635.09
654.456	8708.82
654.648	8639.19
654.84	8354.52
655.033	8536.79
655.225	8501.97
655.417	8481.49
655.61	8399.57
655.802	8313.56
655.994	8188.63
656.186	8116.95
656.379	8000.22
656.571	8063.71
656.763	7889.63
656.955	8012.51
657.148	7846.62
657.34	7805.66
657.532	7899.87
657.724	7688.93
657.916	7715.55
658.108	7793.37
658.3	7559.91
658.492	7779.04
658.684	7348.97
658.876	7402.21
659.068	7396.07
659.26	7422.69
659.452	7226.09
659.644	7400.16
659.836	7252.71
660.028	7301.86
660.22	7135.98
660.412	7113.45
660.604	7049.96
660.796	7076.59
660.988	6972.14
661.18	6902.51
661.372	7000.81
661.563	6875.88
661.755	6931.18
661.947	6820.59
662.139	6726.38
662.331	6900.46
662.522	6611.7
662.714	6486.77
662.906	6611.7
663.097	6521.59
663.289	6394.61
663.481	6408.95
663.673	6390.52
663.864	6466.29
664.056	6429.43
664.247	6365.94
664.439	6152.95
664.631	6357.75
664.822	6212.34
665.014	6095.61
665.205	6191.86
665.397	6116.09
665.588	6226.68
665.78	5866.24
665.971	6003.45
666.163	5905.15
666.354	6060.79
666.546	5747.45
666.737	5860.09
666.929	5692.16
667.12	5788.41
667.311	5821.18
667.503	5565.18
667.694	5745.41
667.885	5606.14
668.077	5696.25
668.268	5464.83
668.459	5708.54
668.651	5413.63
668.842	5561.09
669.033	5454.59
669.224	5245.7
669.416	5628.67
669.607	5468.93
669.798	5294.85
669.989	5436.16
670.18	5188.36
670.371	5208.84
670.563	5141.25
670.754	5253.89
670.945	5233.41
671.136	5280.52
671.327	5155.59
671.518	5171.97
671.709	5286.66
671.9	5188.36
672.091	5139.21
672.282	5190.41
672.473	5096.2
672.664	4922.12
672.855	5141.25
673.046	4993.8
673.237	5085.96
673.428	4915.98
673.619	5079.82
673.809	4752.14
674	5016.33
674.191	5051.14
674.382	4856.59
674.573	4854.54
674.764	4762.38
674.954	4848.4
675.145	4768.52
675.336	4672.27
675.527	4684.56
675.717	4801.29
675.908	4678.41
676.099	4674.32
676.289	4707.09
676.48	4659.98
676.671	4606.74
676.861	4580.11
677.052	4537.1
677.243	4592.4
677.433	4637.45
677.624	4537.1
677.814	4549.39
678.005	4635.41
678.195	4657.93
678.386	4471.57
678.576	4504.34
678.767	4451.09
678.957	4414.23
679.148	4494.1
679.338	4659.98
679.529	4395.79
679.719	4395.79
679.909	4537.1
680.1	4461.33
680.29	4520.72
680.481	4299.54
680.671	4367.12
680.861	4496.14
681.052	4381.46
681.242	4387.6
681.432	4346.64
681.622	4285.2
681.813	4242.2
682.003	4324.12
682.193	4297.49
682.383	4356.88
682.573	4350.74
682.764	4301.59
682.954	4373.27
683.144	4242.2
683.334	4203.29
683.524	4281.11
683.714	4223.76
683.904	4324.12
684.094	4317.97
684.284	4211.48
684.474	4164.37
684.664	4152.09
684.854	4174.61
685.044	4197.14
685.234	4168.47
685.424	4307.73
685.614	4092.69
685.804	4047.64
685.994	4234
686.184	4133.65
686.374	4164.37
686.564	3975.96
686.753	4115.22
686.943	3916.57
687.133	4033.3
687.323	4025.11
687.513	3971.86
687.702	3916.57
687.892	3932.95
688.082	3998.49
688.272	4143.89
688.461	3982.1
688.651	4102.93
688.841	3935
689.03	3797.79
689.22	3865.37
689.41	3939.1
689.599	3969.82
689.789	3900.19
689.979	3930.91
690.168	3840.79
690.358	3779.36
690.547	3834.65
690.737	3877.66
690.926	3787.55
691.116	3648.29
691.305	3824.41
691.495	3779.36
691.684	3785.5
691.874	3595.04
692.063	3762.97
692.252	3775.26
692.442	3787.55
692.631	3537.7
692.82	3767.07
693.01	3781.4
693.199	3699.48
693.388	3545.89
693.578	3785.5
693.767	3738.4
693.956	3636
694.146	3552.03
694.335	3699.48
694.524	3691.29
694.713	3765.02
694.902	3564.32
695.092	3515.17
695.281	3611.42
695.47	3744.54
695.659	3623.71
695.848	3609.37
696.037	3474.21
696.226	3646.24
696.415	3543.84
696.604	3601.18
696.793	3496.74
696.982	3611.42
697.171	3525.41
697.36	3498.78
697.549	3605.28
697.738	3474.21
697.927	3355.43
698.116	3640.09
698.305	3502.88
698.494	3566.37
698.683	3531.55
698.872	3556.13
699.061	3638.05
699.25	3484.45
699.438	3599.13
699.627	3562.27
699.816	3693.34
700.005	3609.37
700.193	3676.96
700.382	3574.56
700.571	3560.22
700.76	3539.74
700.948	3455.78
701.137	3523.36
701.326	3482.4
701.514	3355.43
701.703	3420.96
701.892	3439.39
702.08	3656.48
702.269	3466.02
702.457	3533.6
702.646	3631.9
702.834	3484.45
703.023	3529.5
703.212	3638.05
703.4	3496.74
703.589	3490.59
703.777	3615.52
703.965	3527.46
704.154	3736.35
704.342	3492.64
704.531	3611.42
704.719	3463.97
704.907	3558.18
705.096	3433.25
705.284	3558.18
705.472	3535.65
705.661	3453.73
705.849	3599.13
706.037	3545.89
706.226	3535.65
706.414	3660.57
706.602	3367.71
706.79	3615.52
706.979	3506.98
707.167	3631.9
707.355	3347.23
707.543	3445.54
707.731	3468.06
707.919	3605.28
708.107	3396.39
708.296	3525.41
708.484	3261.22
708.672	3609.37
708.86	3423.01
709.048	3425.06
709.236	3496.74
709.424	3463.97
709.612	3445.54
709.8	3457.82
709.988	3586.85
710.176	3498.78
710.364	3584.8
710.551	3412.77
710.739	3484.45
710.927	3482.4
711.115	3513.12
711.303	3371.81
711.491	3513.12
711.679	3404.58
711.866	3427.11
712.054	3509.02
712.242	3552.03
712.43	3425.06
712.617	3404.58
712.805	3431.2
712.993	3429.15
713.181	3449.63
713.368	3476.26
713.556	3414.82
713.744	3351.33
713.931	3531.55
714.119	3445.54
714.306	3318.56
714.494	3384.1
714.682	3365.67
714.869	3181.35
715.057	3511.07
715.244	3261.22
715.432	3461.92
715.619	3248.93
715.807	3308.32
715.994	3384.1
716.182	3484.45
716.369	3513.12
716.556	3400.48
716.744	3339.04
716.931	3308.32
717.119	3396.39
717.306	3433.25
717.493	3287.84
717.681	3232.55
717.868	3134.25
718.055	3341.09
718.242	3248.93
718.43	3349.28
718.617	3236.64
718.804	3371.81
718.991	3343.14
719.179	3330.85
719.366	3275.56
719.553	3308.32
719.74	3201.83
719.927	3218.21
720.114	3171.11
720.301	3181.35
720.488	3285.8
720.676	3269.41
720.863	3236.64
721.05	3291.94
721.237	3418.91
721.424	3306.27
721.611	3191.59
721.798	3081
721.985	3158.82
722.172	3105.57
722.358	3250.98
722.545	3367.71
722.732	3197.73
722.919	3193.64
723.106	3187.49
723.293	3257.12
723.48	3162.92
723.667	3121.96
723.853	3124.01
724.04	3343.14
724.227	3201.83
724.414	3074.85
724.6	3160.87
724.787	3177.25
724.974	3191.59
725.161	3132.2
725.347	3119.91
725.534	3138.34
725.72	3207.97
725.907	3142.44
726.094	3214.12
726.28	3093.29
726.467	2994.98
726.653	3072.81
726.84	3144.49
727.027	3187.49
727.213	3046.18
727.4	3212.07
727.586	3154.73
727.773	3070.76
727.959	3097.38
728.145	3076.9
728.332	3027.75
728.518	3105.57
728.705	3093.29
728.891	3136.29
729.077	3124.01
729.264	2984.74
729.45	3062.57
729.636	3201.83
729.823	2949.93
730.009	3085.09
730.195	2951.98
730.382	3025.7
730.568	2941.74
730.754	3033.9
730.94	3066.66
731.126	2978.6
731.313	3207.97
731.499	2951.98
731.685	2970.41
731.871	2997.03
732.057	3121.96
732.243	2917.16
732.429	2865.96
732.615	3048.23
732.801	3015.46
732.987	2960.17
733.173	2851.63
733.359	2943.78
733.545	2925.35
733.731	2900.78
733.917	2857.77
734.103	2947.88
734.289	2841.39
734.475	2861.87
734.661	2945.83
734.847	2906.92
735.033	2931.5
735.219	2878.25
735.404	2759.47
735.59	2829.1
735.776	2779.95
735.962	2796.33
736.148	2878.25
736.333	2784.04
736.519	2687.79
736.705	2796.33
736.89	2757.42
737.076	2777.9
737.262	2792.23
737.447	2644.78
737.633	2634.54
737.819	2857.77
738.004	2794.28
738.19	2790.19
738.375	2685.74
738.561	2683.69
738.747	2642.73
738.932	2624.3
739.118	2730.8
739.303	2749.23
739.489	2661.16
739.674	2630.45
739.859	2618.16
740.045	2605.87
740.23	2571.05
740.416	2411.31
740.601	2698.03
740.786	2515.76
740.972	2562.86
741.157	2493.23
741.342	2335.54
741.528	2581.29
741.713	2554.67
741.898	2526
742.084	2450.22
742.269	2462.51
742.454	2442.03
742.639	2476.85
742.824	2442.03
743.01	2442.03
743.195	2480.94
743.38	2452.27
743.565	2362.16
743.75	2284.34
743.935	2427.7
744.12	2433.84
744.305	2249.52
744.49	2329.39
744.675	2407.22
744.86	2321.2
745.045	2394.93
745.23	2181.94
745.415	2224.95
745.6	2491.18
745.785	2216.76
745.97	2239.28
746.155	2263.86
746.34	2276.15
746.525	2249.52
746.71	2353.97
746.895	2048.82
747.079	2210.61
747.264	2038.58
747.449	2345.78
747.634	2362.16
747.819	2046.77
748.003	2087.73
748.188	1981.24
748.373	2155.32
748.557	2108.21
748.742	2118.45
748.927	2016.05
749.111	2181.94
749.296	2016.05
749.481	2026.29
749.665	2048.82
749.85	1956.66
750.034	2038.58
750.219	1848.12
750.404	1893.18
750.588	1968.95
750.773	1887.03
750.957	1831.74
751.141	1860.41
751.326	1930.04
751.51	1868.6
751.695	1870.65
751.879	1796.92
752.064	1846.07
752.248	1807.16
752.432	1803.07
752.617	1792.83
752.801	1815.35
752.985	1717.05
753.17	1880.89
753.354	1694.52
753.538	1735.48
753.722	1772.35
753.907	1739.58
754.091	1643.32
754.275	1815.35
754.459	1780.54
754.643	1649.47
754.828	1651.52
755.012	1647.42
755.196	1635.13
755.38	1661.76
755.564	1727.29
755.748	1579.84
755.932	1577.79
756.116	1604.41
756.3	1645.37
756.484	1602.36
756.668	1624.89
756.852	1549.12
757.036	1540.93
757.22	1538.88
757.404	1459.01
757.588	1553.21
757.772	1456.96
757.956	1452.86
758.14	1454.91
758.323	1465.15
758.507	1545.02
758.691	1309.51
758.875	1532.73
759.059	1428.29
759.242	1487.68
759.426	1368.9
759.61	1362.75
759.794	1489.73
759.977	1426.24
760.161	1530.69
760.345	1428.29
760.528	1440.58
760.712	1334.08
760.895	1327.94
761.079	1432.38
761.263	1360.7
761.446	1364.8
761.63	1262.4
761.813	1305.41
761.997	1170.24
762.18	1262.4
762.364	1372.99
762.547	1147.72
762.731	1297.22
762.914	1338.18
763.098	1262.4
763.281	1262.4
763.464	1219.39
763.648	1307.46
763.831	1282.88
764.015	1239.87
764.198	1246.02
764.381	1276.74
764.564	1291.07
764.748	1256.26
764.931	1180.48
765.114	1207.11
765.297	1243.97
765.481	1112.9
765.664	1262.4
765.847	1252.16
766.03	1262.4
766.213	1121.09
766.397	1241.92
766.58	1188.68
766.763	1205.06
766.946	1260.35
767.129	1225.54
767.312	1053.51
767.495	1145.67
767.678	1012.55
767.861	1143.62
768.044	1123.14
768.227	1106.76
768.41	1098.56
768.593	1151.81
768.776	1112.9
768.959	1033.03
769.142	1123.14
769.324	1073.99
769.507	1092.42
769.69	1065.8
769.873	1082.18
770.056	1129.28
770.239	1082.18
770.421	1000.26
770.604	1153.86
770.787	1123.14
770.97	1067.85
771.152	992.07
771.335	1112.9
771.518	1014.6
771.7	1076.04
771.883	992.07
772.066	1076.04
772.248	1018.69
772.431	967.49
772.613	996.17
772.796	967.49
772.978	1102.66
773.161	1135.43
773.343	965.45
773.526	893.77
773.708	899.91
773.891	883.53
774.073	963.4
774.256	942.92
774.438	1018.69
774.621	895.82
774.803	967.49
774.985	987.97
775.168	922.44
775.35	844.62
775.532	922.44
775.715	955.21
775.897	994.12
776.079	908.1
776.261	938.82
776.444	914.25
776.626	842.57
776.808	858.95
776.99	830.28
777.173	924.49
777.355	797.51
777.537	850.76
777.719	832.33
777.901	861
778.083	803.66
778.265	772.94
778.447	834.38
778.629	828.23
778.811	766.79
778.993	951.11
779.175	895.82
779.357	770.89
779.539	768.84
779.721	844.62
779.903	756.55
780.085	787.27
780.267	756.55
780.449	846.66
780.631	822.09
780.812	754.51
780.994	754.51
781.176	721.74
781.358	725.83
781.54	750.41
781.721	756.55
781.903	699.21
782.085	787.27
782.267	822.09
782.448	648.01
782.63	590.67
782.812	785.23
782.993	740.17
783.175	715.59
783.357	639.82
783.538	645.96
783.72	693.07
783.901	574.28
784.083	725.83
784.264	699.21
784.446	598.86
784.627	576.33
784.809	643.92
784.99	648.01
785.172	666.44
785.353	602.96
785.535	545.61
785.716	510.8
785.897	559.95
786.079	619.34
786.26	688.97
786.441	586.57
786.623	555.85
786.804	502.61
786.985	553.8
787.167	578.38
787.348	551.76
787.529	525.13
787.71	662.35
787.891	566.09
788.073	457.55
788.254	527.18
788.435	654.16
788.616	465.74
788.797	439.12
788.978	549.71
789.159	478.03
789.34	564.04
789.522	504.65
789.703	469.84
789.884	564.04
790.065	555.85
790.246	478.03
790.427	461.65
790.607	578.38
790.788	496.46
790.969	475.98
791.15	523.09
791.331	471.89
791.512	424.78
791.693	379.73
791.874	412.5
792.054	609.1
792.235	514.89
792.416	392.02
792.597	385.87
792.778	463.69
792.958	453.45
793.139	416.59
793.32	488.27
793.5	351.06
793.681	492.37
793.862	392.02
794.042	426.83
794.223	410.45
794.404	363.34
794.584	279.38
794.765	353.1
794.945	418.64
795.126	394.06
795.306	500.56
795.487	457.55
795.667	400.21
795.848	355.15
796.028	394.06
796.209	373.58
796.389	359.25
796.57	447.31
796.75	293.71
796.93	394.06
797.111	361.3
797.291	308.05
797.471	416.59
797.652	357.2
797.832	244.56
798.012	367.44
798.192	357.2
798.373	328.53
798.553	252.75
798.733	361.3
798.913	289.62
799.093	271.19
799.274	299.86
799.454	416.59
799.634	324.43
799.814	349.01
799.994	385.87
800.174	328.53
800.354	375.63
800.534	346.96
800.714	314.19
800.894	301.9
801.074	248.66
801.254	232.27
801.434	359.25
801.614	334.67
801.794	179.03
801.974	1246.02
802.154	303.95
802.334	248.66
802.514	217.94
802.693	334.67
802.873	281.43
803.053	414.54
803.233	312.14
803.413	320.34
803.592	291.66
803.772	201.55
803.952	310.1
804.131	250.71
804.311	369.49
804.491	324.43
804.67	277.33
804.85	361.3
805.03	226.13
805.209	320.34
805.389	211.79
805.568	240.47
805.748	219.99
805.928	303.95
806.107	234.32
806.287	246.61
806.466	295.76
806.646	195.41
806.825	242.51
807.004	254.8
807.184	306
807.363	203.6
807.543	273.23
807.722	234.32
807.901	267.09
808.081	342.86
808.26	154.45
808.439	228.18
808.619	219.99
808.798	213.84
808.977	217.94
809.156	279.38
809.336	252.75
809.515	201.55
809.694	154.45
809.873	191.31
810.052	238.42
810.231	222.03
810.411	215.89
810.59	279.38
810.769	219.99
810.948	209.75
811.127	162.64
811.306	164.69
811.485	189.27
811.664	293.71
811.843	197.46
812.022	187.22
812.201	275.28
812.38	226.13
812.559	236.37
812.737	164.69
812.916	103.25
813.095	105.3
813.274	240.47
813.453	183.12
813.632	191.31
813.811	172.88
813.989	146.26
814.168	131.92
814.347	95.06
814.526	217.94
814.704	183.12
814.883	240.47
815.062	170.83
815.24	226.13
815.419	185.17
815.598	213.84
815.776	125.78
815.955	154.45
816.133	101.2
816.312	234.32
816.49	162.64
816.669	234.32
816.847	136.02
817.026	213.84
817.204	168.79
817.383	162.64
817.561	160.59
817.74	133.97
817.918	226.13
818.097	168.79
818.275	146.26
818.453	189.27
818.632	195.41
818.81	164.69
818.988	170.83
819.167	107.35
819.345	115.54
819.523	211.79
819.701	162.64
819.879	187.22
820.058	213.84
820.236	136.02
820.414	168.79
820.592	191.31
820.77	129.88
820.948	148.31
821.127	154.45
821.305	209.75
821.483	127.83
821.661	203.6
821.839	240.47
822.017	148.31
822.195	99.16
822.373	113.49
822.551	168.79
822.729	136.02
822.907	133.97
823.085	168.79
823.262	138.07
823.44	115.54
823.618	105.3
823.796	144.21
823.974	68.44
824.152	84.82
824.329	88.92
824.507	142.16
824.685	207.7
824.863	105.3
825.04	123.73
825.218	174.93
825.396	150.36
825.574	146.26
825.751	50
825.929	113.49
826.107	148.31
826.284	123.73
826.462	117.59
826.639	64.34
826.817	113.49
826.994	144.21
827.172	152.4
827.349	189.27
827.527	179.03
827.704	93.01
827.882	246.61
828.059	121.68
828.237	80.72
828.414	170.83
828.591	90.96
828.769	164.69
828.946	66.39
829.124	162.64
829.301	127.83
829.478	84.82
829.655	76.63
829.833	88.92
830.01	13.14
830.187	125.78
830.364	127.83
830.542	154.45
830.719	164.69
830.896	107.35
831.073	185.17
831.25	109.4
831.427	142.16
831.604	119.64
831.782	95.06
831.959	195.41
832.136	56.15
832.313	84.82
832.49	146.26
832.667	129.88
832.844	62.29
833.021	82.77
833.198	168.79
833.374	144.21
833.551	146.26
833.728	76.63
833.905	117.59
834.082	33.62
834.259	152.4
834.436	129.88
834.612	45.91
834.789	152.4
834.966	82.77
835.143	47.96
835.319	80.72
835.496	88.92
835.673	45.91
835.85	148.31
836.026	150.36
836.203	95.06
836.38	140.12
836.556	45.91
836.733	113.49
836.909	156.5
837.086	72.53
837.262	43.86
837.439	82.77
837.616	103.25
837.792	29.52
837.968	54.1
838.145	4.95
838.321	56.15
838.498	68.44
838.674	166.74
838.851	35.67
839.027	9.05
839.203	52.05
839.38	68.44
839.556	76.63
839.732	115.54
839.909	121.68
840.085	113.49
840.261	101.2
840.437	31.57
840.614	19.29
840.79	109.4
840.966	109.4
841.142	37.72
841.318	13.14
841.494	62.29
841.671	17.24
841.847	131.92
842.023	56.15
842.199	129.88
842.375	103.25
842.551	-68.78
842.727	15.19
842.903	86.87
843.079	-1.19
843.255	121.68
843.431	80.72
843.607	125.78
843.783	76.63
843.959	43.86
844.134	7
844.31	90.96
844.486	88.92
844.662	138.07
844.838	13.14
845.013	90.96
845.189	133.97
845.365	29.52
845.541	23.38
845.716	76.63
845.892	142.16
846.068	-13.48
846.244	95.06
846.419	88.92
846.595	4.95
846.77	-3.24
846.946	31.57
847.122	50
847.297	27.48
847.473	111.44
847.648	7
847.824	123.73
847.999	-33.96
848.175	-1.19
848.35	148.31
848.526	121.68
848.701	41.81
848.876	64.34
849.052	84.82
849.227	58.2
849.403	66.39
849.578	74.58
849.753	37.72
849.929	105.3
850.104	17.24
850.279	125.78
850.454	-48.3
850.63	109.4
850.805	-9.39
850.98	45.91
851.155	29.52
851.33	101.2
851.505	56.15
851.681	66.39
851.856	27.48
852.031	88.92
852.206	7
852.381	4.95
852.556	-81.07
852.731	39.76
852.906	19.29
853.081	35.67
853.256	113.49
853.431	109.4
853.606	58.2
853.781	-33.96
853.956	-40.11
854.131	101.2
854.305	13.14
854.48	68.44
854.655	68.44
854.83	56.15
855.005	58.2
855.18	7
855.354	52.05
855.529	66.39
855.704	4.95
855.879	103.25
856.053	33.62
856.228	58.2
856.403	-66.73
856.577	66.39
856.752	0.85
856.926	-40.11
857.101	47.96
857.276	9.05
857.45	52.05
857.625	125.78
857.799	47.96
857.974	0.85
858.148	-1.19
858.323	99.16
858.497	-7.34
858.672	56.15
858.846	39.76
859.02	66.39
859.195	-3.24
859.369	47.96
859.543	90.96
859.718	15.19
859.892	27.48
860.066	-13.48
860.241	21.33
860.415	35.67
860.589	11.09
860.763	-50.35
860.938	62.29
861.112	47.96
861.286	45.91
861.46	117.59
861.634	107.35
861.808	68.44
861.982	41.81
862.157	35.67
862.331	-17.58
862.505	-40.11
862.679	-7.34
862.853	25.43
863.027	-3.24
863.201	95.06
863.375	7
863.549	64.34
863.722	78.68
863.896	162.64
864.07	7
864.244	9.05
864.418	56.15
864.592	-23.72
864.766	13.14
864.939	47.96
865.113	17.24
865.287	47.96
865.461	-50.35
865.634	15.19
865.808	66.39
865.982	15.19
866.156	39.76
866.329	-9.39
866.503	9.05
866.676	121.68
866.85	25.43
867.024	-21.67
867.197	90.96
867.371	121.68
867.544	33.62
867.718	-15.53
867.891	-15.53
868.065	-76.97
868.238	19.29
868.412	140.12
868.585	29.52
868.759	29.52
868.932	-1.19
869.105	2.9
869.279	-19.63
869.452	68.44
869.625	13.14
869.799	0.85
869.972	-19.63
870.145	9.05
870.319	11.09
870.492	35.67
870.665	70.48
870.838	-29.87
871.011	27.48
871.185	47.96
871.358	-50.35
871.531	23.38
871.704	-3.24
871.877	-5.29
872.05	-23.72
872.223	-25.77
872.396	56.15
872.569	86.87
872.742	88.92
872.915	-11.43
873.088	-13.48
873.261	0.85
873.434	68.44
873.607	45.91
873.78	27.48
873.953	-15.53
874.126	64.34
874.299	86.87
874.471	43.86
874.644	25.43
874.817	113.49
874.99	148.31
875.163	-1.19
875.335	72.53
875.508	78.68
875.681	58.2
875.853	-62.63
876.026	72.53
876.199	90.96
876.371	54.1
876.544	27.48
876.717	23.38
876.889	25.43
877.062	109.4
877.234	2.9
877.407	72.53
877.579	43.86
877.752	78.68
877.924	7
878.097	72.53
878.269	-7.34
878.442	13.14
878.614	117.59
878.786	68.44
878.959	-7.34
879.131	52.05
879.303	0.85
879.476	-21.67
879.648	117.59
879.82	7
879.993	-1.19
880.165	43.86
880.337	-1.19
880.509	0.85
880.681	-33.96
880.854	-50.35
881.026	11.09
881.198	146.26
881.37	-19.63
881.542	13.14
881.714	29.52
881.886	-38.06
882.058	13.14
882.23	4.95
882.402	33.62
882.574	-29.87
882.746	45.91
882.918	88.92
883.09	-9.39
883.262	-3.24
883.434	-48.3
883.606	-33.96
883.778	2.9
883.95	4.95
884.122	-33.96
884.293	17.24
884.465	56.15
884.637	68.44
884.809	-36.01
884.98	52.05
885.152	70.48
885.324	52.05
885.496	21.33
885.667	47.96
885.839	17.24
886.011	80.72
886.182	111.44
886.354	-31.91
886.525	43.86
886.697	41.81
886.869	11.09
887.04	-42.15
887.212	138.07
887.383	97.11
887.555	11.09
887.726	13.14
887.897	21.33
888.069	-15.53
888.24	13.14
888.412	9.05
888.583	54.1
888.754	47.96
888.926	11.09
889.097	-25.77
889.268	-3.24
889.44	15.19
889.611	-58.54
889.782	-83.11
889.953	-23.72
890.125	21.33
890.296	-68.78
890.467	-1.19
890.638	15.19
890.809	-21.67
890.98	-48.3
891.151	-27.82
891.323	127.83
891.494	19.29
891.665	29.52
891.836	-7.34
892.007	37.72
892.178	90.96
892.349	2.9
892.52	-25.77
892.691	7
892.862	-105.64
893.032	-23.72
893.203	33.62
893.374	-56.49
893.545	-11.43
893.716	-19.63
893.887	54.1
894.057	43.86
894.228	27.48
894.399	15.19
894.57	21.33
894.74	45.91
894.911	27.48
895.082	64.34
895.253	-3.24
895.423	7
895.594	99.16
895.764	37.72
895.935	-38.06
896.106	-5.29
896.276	-23.72
896.447	39.76
896.617	-15.53
896.788	0.85
896.958	-50.35
897.129	39.76
897.299	-13.48
897.47	95.06
897.64	80.72
897.81	-40.11
897.981	23.38
898.151	7
898.322	45.91
898.492	13.14
898.662	72.53
898.832	43.86
899.003	-40.11
899.173	95.06
899.343	-48.3
899.513	-48.3
