Data from USB4F104151__70__12-12-39-553.txt Node

Date: Fri Mar 14 12:12:39 EDT 2025
User: louis
Spectrometer: USB4F10415
Trigger mode: 4
Integration Time (sec): 5.000000E-2
Scans to average: 1
Electric dark correction enabled: true
Nonlinearity correction enabled: false
Boxcar width: 0
XAxis mode: Wavelengths
Number of Pixels in Spectrum: 3648
>>>>>Begin Spectral Data<<<<<
178.204	-286.89
178.424	-286.89
178.644	-286.89
178.864	-272.55
179.084	-252.07
179.304	59.22
179.524	14.17
179.744	-63.66
179.964	24.4
180.184	36.69
180.404	-22.7
180.624	-34.99
180.844	16.21
181.064	14.17
181.283	28.5
181.503	-69.8
181.723	-2.22
181.943	-61.61
182.163	81.75
182.383	-57.51
182.602	147.28
182.822	-14.51
183.042	71.51
183.262	-12.46
183.482	16.21
183.701	-0.17
183.921	5.97
184.141	-22.7
184.361	51.03
184.58	24.4
184.8	36.69
185.02	-8.36
185.239	77.65
185.459	-45.23
185.679	143.19
185.898	16.21
186.118	46.93
186.338	91.99
186.557	55.12
186.777	3.93
186.997	14.17
187.216	-65.71
187.436	10.07
187.655	22.36
187.875	-45.23
188.095	-34.99
188.314	61.27
188.534	20.31
188.753	-65.71
188.973	46.93
189.192	71.51
189.412	38.74
189.631	-6.31
189.851	34.64
190.07	108.37
190.29	-77.99
190.509	-18.6
190.729	-49.32
190.948	42.84
191.168	165.71
191.387	106.32
191.607	-30.89
191.826	61.27
192.045	-10.41
192.265	-61.61
192.484	3.93
192.704	-12.46
192.923	-45.23
193.142	130.9
193.362	55.12
193.581	85.84
193.8	-6.31
194.02	36.69
194.239	16.21
194.458	-37.03
194.678	-16.55
194.897	44.88
195.116	-0.17
195.335	-4.27
195.555	26.45
195.774	3.93
195.993	46.93
196.212	24.4
196.432	-14.51
196.651	-10.41
196.87	-34.99
197.089	116.56
197.308	-18.6
197.528	38.74
197.747	-57.51
197.966	-37.03
198.185	14.17
198.404	-10.41
198.623	-14.51
198.842	28.5
199.062	40.79
199.281	14.17
199.5	14.17
199.719	73.56
199.938	20.31
200.157	8.02
200.376	63.32
200.595	51.03
200.814	71.51
201.033	28.5
201.252	51.03
201.471	-18.6
201.69	-18.6
201.909	100.18
202.128	-18.6
202.347	22.36
202.566	-24.75
202.785	28.5
203.004	-22.7
203.223	57.17
203.442	-34.99
203.661	-4.27
203.879	1.88
204.098	100.18
204.317	-71.85
204.536	104.28
204.755	-14.51
204.974	55.12
205.193	-14.51
205.411	141.14
205.63	1.88
205.849	30.55
206.068	10.07
206.287	61.27
206.505	30.55
206.724	8.02
206.943	14.17
207.162	79.7
207.381	44.88
207.599	85.84
207.818	-43.18
208.037	38.74
208.255	-20.65
208.474	38.74
208.693	59.22
208.911	40.79
209.13	5.97
209.349	48.98
209.567	-20.65
209.786	71.51
210.005	-0.17
210.223	48.98
210.442	-77.99
210.661	48.98
210.879	20.31
211.098	-22.7
211.316	-32.94
211.535	71.51
211.753	59.22
211.972	18.26
212.191	-24.75
212.409	36.69
212.628	-6.31
212.846	40.79
213.065	57.17
213.283	46.93
213.502	-41.13
213.72	8.02
213.938	14.17
214.157	-22.7
214.375	48.98
214.594	40.79
214.812	73.56
215.031	5.97
215.249	16.21
215.467	46.93
215.686	42.84
215.904	1.88
216.122	53.08
216.341	28.5
216.559	14.17
216.778	114.52
216.996	46.93
217.214	65.36
217.432	-37.03
217.651	-37.03
217.869	32.6
218.087	-16.55
218.306	3.93
218.524	46.93
218.742	24.4
218.96	48.98
219.179	24.4
219.397	36.69
219.615	104.28
219.833	87.89
220.051	-18.6
220.27	5.97
220.488	65.36
220.706	-10.41
220.924	-0.17
221.142	-73.9
221.36	8.02
221.578	-39.08
221.796	14.17
222.015	-12.46
222.233	-30.89
222.451	104.28
222.669	-51.37
222.887	20.31
223.105	12.12
223.323	26.45
223.541	-53.42
223.759	79.7
223.977	-45.23
224.195	110.42
224.413	32.6
224.631	-39.08
224.849	-45.23
225.067	149.33
225.285	-2.22
225.503	-69.8
225.721	-12.46
225.939	-2.22
226.157	-47.27
226.375	98.13
226.592	-49.32
226.81	38.74
227.028	98.13
227.246	112.47
227.464	12.12
227.682	30.55
227.9	-32.94
228.117	10.07
228.335	-14.51
228.553	18.26
228.771	83.8
228.989	75.6
229.206	1.88
229.424	-28.84
229.642	-39.08
229.86	-20.65
230.077	-8.36
230.295	48.98
230.513	59.22
230.731	18.26
230.948	75.6
231.166	5.97
231.384	26.45
231.601	-39.08
231.819	34.64
232.037	-4.27
232.254	-77.99
232.472	34.64
232.689	-39.08
232.907	59.22
233.125	-0.17
233.342	-20.65
233.56	-22.7
233.777	22.36
233.995	-20.65
234.213	-55.47
234.43	-49.32
234.648	30.55
234.865	16.21
235.083	10.07
235.3	8.02
235.518	40.79
235.735	110.42
235.953	-0.17
236.17	-49.32
236.388	42.84
236.605	-32.94
236.822	79.7
237.04	46.93
237.257	55.12
237.475	-24.75
237.692	16.21
237.909	48.98
238.127	-45.23
238.344	32.6
238.562	-16.55
238.779	-26.79
238.996	-14.51
239.214	-39.08
239.431	59.22
239.648	-4.27
239.865	42.84
240.083	-2.22
240.3	28.5
240.517	-43.18
240.735	18.26
240.952	104.28
241.169	55.12
241.386	46.93
241.603	-14.51
241.821	-26.79
242.038	46.93
242.255	-41.13
242.472	-45.23
242.689	61.27
242.907	42.84
243.124	8.02
243.341	-41.13
243.558	-10.41
243.775	-73.9
243.992	-71.85
244.209	32.6
244.426	145.24
244.643	40.79
244.86	42.84
245.078	57.17
245.295	61.27
245.512	14.17
245.729	32.6
245.946	12.12
246.163	-20.65
246.38	-10.41
246.597	16.21
246.814	44.88
247.031	-67.75
247.248	-28.84
247.464	3.93
247.681	-49.32
247.898	28.5
248.115	22.36
248.332	-28.84
248.549	32.6
248.766	155.47
248.983	116.56
249.2	24.4
249.417	65.36
249.633	-10.41
249.85	112.47
250.067	1.88
250.284	-47.27
250.501	42.84
250.717	-20.65
250.934	-88.23
251.151	-14.51
251.368	3.93
251.585	-12.46
251.801	44.88
252.018	-45.23
252.235	36.69
252.451	10.07
252.668	16.21
252.885	-22.7
253.102	-6.31
253.318	-47.27
253.535	8.02
253.752	1.88
253.968	10.07
254.185	-16.55
254.401	-24.75
254.618	124.76
254.835	-20.65
255.051	32.6
255.268	106.32
255.484	34.64
255.701	-32.94
255.917	48.98
256.134	-88.23
256.351	24.4
256.567	-59.56
256.784	5.97
257	-65.71
257.217	1.88
257.433	36.69
257.65	44.88
257.866	28.5
258.082	-77.99
258.299	-65.71
258.515	-32.94
258.732	24.4
258.948	-63.66
259.165	40.79
259.381	-41.13
259.597	-16.55
259.814	-96.43
260.03	24.4
260.246	75.6
260.463	77.65
260.679	63.32
260.895	20.31
261.112	16.21
261.328	-32.94
261.544	36.69
261.761	128.85
261.977	44.88
262.193	-32.94
262.409	83.8
262.626	-6.31
262.842	1.88
263.058	12.12
263.274	67.41
263.49	24.4
263.707	42.84
263.923	67.41
264.139	-82.09
264.355	8.02
264.571	73.56
264.787	67.41
265.004	-39.08
265.22	1.88
265.436	-18.6
265.652	1.88
265.868	30.55
266.084	-39.08
266.3	42.84
266.516	-8.36
266.732	3.93
266.948	51.03
267.164	20.31
267.38	16.21
267.596	12.12
267.812	77.65
268.028	71.51
268.244	57.17
268.46	32.6
268.676	44.88
268.892	14.17
269.108	-18.6
269.324	-4.27
269.54	-98.47
269.756	85.84
269.972	-28.84
270.188	-12.46
270.403	30.55
270.619	-4.27
270.835	-6.31
271.051	-32.94
271.267	8.02
271.483	-53.42
271.698	46.93
271.914	16.21
272.13	65.36
272.346	44.88
272.562	28.5
272.777	48.98
272.993	-92.33
273.209	-104.62
273.425	12.12
273.64	30.55
273.856	42.84
274.072	65.36
274.287	-41.13
274.503	46.93
274.719	30.55
274.934	-4.27
275.15	-2.22
275.366	59.22
275.581	-32.94
275.797	69.46
276.012	-24.75
276.228	-106.67
276.444	-49.32
276.659	8.02
276.875	-73.9
277.09	26.45
277.306	-32.94
277.521	71.51
277.737	-71.85
277.952	34.64
278.168	12.12
278.383	14.17
278.599	-6.31
278.814	104.28
279.03	18.26
279.245	-41.13
279.461	1.88
279.676	81.75
279.892	-12.46
280.107	-0.17
280.322	-30.89
280.538	55.12
280.753	-55.47
280.969	24.4
281.184	94.04
281.399	87.89
281.615	40.79
281.83	18.26
282.045	-125.1
282.26	-4.27
282.476	-34.99
282.691	69.46
282.906	12.12
283.122	5.97
283.337	75.6
283.552	14.17
283.767	-6.31
283.983	102.23
284.198	3.93
284.413	83.8
284.628	-82.09
284.843	-12.46
285.058	-2.22
285.274	65.36
285.489	-51.37
285.704	10.07
285.919	44.88
286.134	44.88
286.349	38.74
286.564	-39.08
286.779	32.6
286.995	-61.61
287.21	-45.23
287.425	-61.61
287.64	32.6
287.855	30.55
288.07	-6.31
288.285	-12.46
288.5	32.6
288.715	63.32
288.93	18.26
289.145	22.36
289.36	42.84
289.575	8.02
289.79	106.32
290.004	-28.84
290.219	20.31
290.434	51.03
290.649	-90.28
290.864	-22.7
291.079	-28.84
291.294	73.56
291.509	69.46
291.724	42.84
291.938	-49.32
292.153	-10.41
292.368	26.45
292.583	-51.37
292.798	51.03
293.012	28.5
293.227	16.21
293.442	-0.17
293.657	59.22
293.871	48.98
294.086	61.27
294.301	96.08
294.516	73.56
294.73	1.88
294.945	-82.09
295.16	24.4
295.374	12.12
295.589	18.26
295.804	26.45
296.018	1.88
296.233	77.65
296.447	44.88
296.662	14.17
296.877	81.75
297.091	81.75
297.306	-14.51
297.52	-20.65
297.735	-22.7
297.949	75.6
298.164	28.5
298.378	-22.7
298.593	-32.94
298.807	-86.19
299.022	46.93
299.236	44.88
299.451	53.08
299.665	16.21
299.88	-14.51
300.094	61.27
300.309	57.17
300.523	24.4
300.737	3.93
300.952	51.03
301.166	-20.65
301.381	-0.17
301.595	-6.31
301.809	42.84
302.024	-8.36
302.238	-18.6
302.452	26.45
302.667	83.8
302.881	28.5
303.095	22.36
303.309	14.17
303.524	-14.51
303.738	-41.13
303.952	-51.37
304.166	12.12
304.381	-67.75
304.595	110.42
304.809	1.88
305.023	-39.08
305.237	-32.94
305.452	-24.75
305.666	-49.32
305.88	-28.84
306.094	51.03
306.308	77.65
306.522	81.75
306.736	-14.51
306.95	-30.89
307.164	-39.08
307.379	-65.71
307.593	59.22
307.807	14.17
308.021	67.41
308.235	20.31
308.449	-2.22
308.663	-28.84
308.877	91.99
309.091	-12.46
309.305	-20.65
309.519	-63.66
309.733	46.93
309.947	-59.56
310.161	20.31
310.374	36.69
310.588	63.32
310.802	-6.31
311.016	-73.9
311.23	3.93
311.444	-8.36
311.658	34.64
311.872	40.79
312.085	18.26
312.299	145.24
312.513	-14.51
312.727	-0.17
312.941	69.46
313.154	26.45
313.368	10.07
313.582	30.55
313.796	26.45
314.009	100.18
314.223	63.32
314.437	81.75
314.651	83.8
314.864	-92.33
315.078	-4.27
315.292	-63.66
315.505	81.75
315.719	42.84
315.933	14.17
316.146	-57.51
316.36	-37.03
316.573	40.79
316.787	16.21
317.001	-86.19
317.214	-41.13
317.428	32.6
317.641	3.93
317.855	-22.7
318.068	53.08
318.282	46.93
318.495	153.43
318.709	16.21
318.922	14.17
319.136	28.5
319.349	24.4
319.563	32.6
319.776	100.18
319.99	-26.79
320.203	12.12
320.417	8.02
320.63	-10.41
320.843	116.56
321.057	-55.47
321.27	-34.99
321.483	-4.27
321.697	141.14
321.91	63.32
322.124	14.17
322.337	-2.22
322.55	-28.84
322.763	32.6
322.977	-41.13
323.19	-43.18
323.403	-28.84
323.617	48.98
323.83	57.17
324.043	3.93
324.256	-39.08
324.469	-45.23
324.683	87.89
324.896	-16.55
325.109	-43.18
325.322	-92.33
325.535	94.04
325.748	42.84
325.962	30.55
326.175	53.08
326.388	46.93
326.601	110.42
326.814	32.6
327.027	8.02
327.24	79.7
327.453	-94.38
327.666	112.47
327.879	77.65
328.092	-2.22
328.305	38.74
328.518	32.6
328.731	-96.43
328.944	26.45
329.157	57.17
329.37	48.98
329.583	91.99
329.796	91.99
330.009	-57.51
330.222	16.21
330.435	-14.51
330.648	-8.36
330.861	14.17
331.073	32.6
331.286	3.93
331.499	-65.71
331.712	77.65
331.925	-14.51
332.138	-24.75
332.35	98.13
332.563	-61.61
332.776	24.4
332.989	-51.37
333.202	85.84
333.414	38.74
333.627	20.31
333.84	40.79
334.053	34.64
334.265	-18.6
334.478	-0.17
334.691	48.98
334.903	91.99
335.116	1.88
335.329	-39.08
335.541	40.79
335.754	102.23
335.966	-59.56
336.179	81.75
336.392	-28.84
336.604	-12.46
336.817	5.97
337.029	-41.13
337.242	-69.8
337.454	57.17
337.667	48.98
337.88	89.94
338.092	65.36
338.305	14.17
338.517	-20.65
338.729	53.08
338.942	81.75
339.154	-12.46
339.367	-34.99
339.579	16.21
339.792	-49.32
340.004	59.22
340.217	-2.22
340.429	24.4
340.641	-32.94
340.854	-45.23
341.066	-37.03
341.278	112.47
341.491	104.28
341.703	16.21
341.915	-14.51
342.128	36.69
342.34	-14.51
342.552	-37.03
342.764	-86.19
342.977	18.26
343.189	30.55
343.401	24.4
343.613	-34.99
343.826	8.02
344.038	12.12
344.25	16.21
344.462	18.26
344.674	28.5
344.886	-53.42
345.099	36.69
345.311	132.95
345.523	-0.17
345.735	12.12
345.947	5.97
346.159	89.94
346.371	100.18
346.583	1.88
346.795	118.61
347.007	26.45
347.219	44.88
347.431	18.26
347.643	79.7
347.855	-49.32
348.067	-10.41
348.279	-28.84
348.491	-10.41
348.703	71.51
348.915	48.98
349.127	-6.31
349.339	-18.6
349.551	46.93
349.763	40.79
349.975	3.93
350.187	22.36
350.399	-14.51
350.61	-20.65
350.822	-80.04
351.034	59.22
351.246	-16.55
351.458	18.26
351.669	61.27
351.881	94.04
352.093	44.88
352.305	42.84
352.517	24.4
352.728	89.94
352.94	-2.22
353.152	67.41
353.363	-14.51
353.575	24.4
353.787	16.21
353.999	22.36
354.21	16.21
354.422	-6.31
354.633	-12.46
354.845	8.02
355.057	28.5
355.268	-30.89
355.48	40.79
355.692	-18.6
355.903	12.12
356.115	-12.46
356.326	-57.51
356.538	53.08
356.749	34.64
356.961	42.84
357.172	24.4
357.384	-6.31
357.595	141.14
357.807	40.79
358.018	-22.7
358.23	-18.6
358.441	48.98
358.653	5.97
358.864	42.84
359.075	-18.6
359.287	61.27
359.498	87.89
359.709	22.36
359.921	10.07
360.132	79.7
360.344	28.5
360.555	-18.6
360.766	-22.7
360.977	46.93
361.189	102.23
361.4	46.93
361.611	61.27
361.823	61.27
362.034	30.55
362.245	-49.32
362.456	112.47
362.667	26.45
362.879	-14.51
363.09	-30.89
363.301	59.22
363.512	53.08
363.723	26.45
363.935	-20.65
364.146	-20.65
364.357	42.84
364.568	112.47
364.779	3.93
364.99	83.8
365.201	-2.22
365.412	81.75
365.623	-41.13
365.834	38.74
366.045	-47.27
366.256	-69.8
366.467	30.55
366.678	-57.51
366.889	30.55
367.1	32.6
367.311	22.36
367.522	26.45
367.733	87.89
367.944	40.79
368.155	-32.94
368.366	30.55
368.577	38.74
368.788	-2.22
368.999	-71.85
369.209	-30.89
369.42	100.18
369.631	137.04
369.842	57.17
370.053	-30.89
370.264	40.79
370.474	26.45
370.685	26.45
370.896	8.02
371.107	1.88
371.317	28.5
371.528	1.88
371.739	116.56
371.95	-14.51
372.16	69.46
372.371	26.45
372.582	22.36
372.792	130.9
373.003	98.13
373.214	40.79
373.424	85.84
373.635	-8.36
373.846	36.69
374.056	-8.36
374.267	-2.22
374.477	14.17
374.688	71.51
374.898	59.22
375.109	-6.31
375.319	36.69
375.53	-41.13
375.74	77.65
375.951	-6.31
376.161	38.74
376.372	-39.08
376.582	-55.47
376.793	-16.55
377.003	-24.75
377.214	8.02
377.424	42.84
377.635	28.5
377.845	-24.75
378.055	143.19
378.266	-41.13
378.476	36.69
378.686	38.74
378.897	8.02
379.107	-45.23
379.317	-12.46
379.528	-14.51
379.738	8.02
379.948	-18.6
380.158	48.98
380.369	8.02
380.579	12.12
380.789	-0.17
380.999	40.79
381.21	-6.31
381.42	79.7
381.63	85.84
381.84	38.74
382.05	-2.22
382.261	26.45
382.471	32.6
382.681	18.26
382.891	102.23
383.101	61.27
383.311	-26.79
383.521	-2.22
383.731	26.45
383.941	8.02
384.151	67.41
384.361	48.98
384.571	34.64
384.781	30.55
384.991	120.66
385.201	96.08
385.411	34.64
385.621	44.88
385.831	14.17
386.041	-32.94
386.251	-14.51
386.461	67.41
386.671	24.4
386.881	55.12
387.091	63.32
387.301	83.8
387.511	-55.47
387.72	38.74
387.93	26.45
388.14	-65.71
388.35	96.08
388.56	81.75
388.769	34.64
388.979	85.84
389.189	-12.46
389.399	40.79
389.609	28.5
389.818	139.09
390.028	20.31
390.238	12.12
390.447	-53.42
390.657	28.5
390.867	-24.75
391.076	5.97
391.286	24.4
391.496	-37.03
391.705	-39.08
391.915	67.41
392.125	53.08
392.334	-47.27
392.544	34.64
392.753	-0.17
392.963	-12.46
393.172	28.5
393.382	40.79
393.591	65.36
393.801	-61.61
394.01	96.08
394.22	16.21
394.429	18.26
394.639	57.17
394.848	55.12
395.058	75.6
395.267	40.79
395.477	96.08
395.686	63.32
395.895	102.23
396.105	132.95
396.314	36.69
396.524	-12.46
396.733	89.94
396.942	91.99
397.152	137.04
397.361	44.88
397.57	81.75
397.78	48.98
397.989	57.17
398.198	137.04
398.407	44.88
398.617	34.64
398.826	55.12
399.035	46.93
399.244	69.46
399.453	5.97
399.663	53.08
399.872	51.03
400.081	-16.55
400.29	77.65
400.499	69.46
400.708	116.56
400.917	8.02
401.127	89.94
401.336	53.08
401.545	202.58
401.754	157.52
401.963	87.89
402.172	-24.75
402.381	-20.65
402.59	48.98
402.799	48.98
403.008	38.74
403.217	10.07
403.426	71.51
403.635	40.79
403.844	112.47
404.053	102.23
404.262	96.08
404.471	143.19
404.68	118.61
404.888	122.71
405.097	32.6
405.306	20.31
405.515	163.67
405.724	8.02
405.933	28.5
406.142	112.47
406.35	96.08
406.559	91.99
406.768	89.94
406.977	151.38
407.185	94.04
407.394	165.71
407.603	81.75
407.812	81.75
408.02	143.19
408.229	153.43
408.438	102.23
408.646	161.62
408.855	114.52
409.064	259.92
409.272	108.37
409.481	169.81
409.69	147.28
409.898	137.04
410.107	206.67
410.315	169.81
410.524	165.71
410.733	155.47
410.941	192.34
411.15	216.91
411.358	243.54
411.567	251.73
411.775	251.73
411.984	235.35
412.192	288.59
412.401	124.76
412.609	270.16
412.818	331.6
413.026	288.59
413.234	274.26
413.443	331.6
413.651	296.78
413.86	393.04
414.068	311.12
414.276	341.84
414.485	333.65
414.693	458.57
414.901	413.52
415.11	397.14
415.318	366.42
415.526	413.52
415.734	454.48
415.943	468.81
416.151	509.77
416.359	421.71
416.567	423.76
416.776	548.68
416.984	452.43
417.192	550.73
417.4	479.05
417.608	491.34
417.817	526.16
418.025	747.34
418.233	661.32
418.441	636.75
418.649	591.69
418.857	726.86
419.065	808.78
419.273	638.8
419.481	745.29
419.689	800.59
419.897	804.68
420.105	827.21
420.313	866.12
420.521	1017.67
420.729	1025.86
420.937	837.45
421.145	1007.43
421.353	1081.16
421.561	1193.8
421.769	1064.77
421.977	1144.64
422.185	1091.4
422.393	1064.77
422.601	1220.42
422.809	1285.95
423.017	1292.1
423.224	1331.01
423.432	1386.3
423.64	1369.92
423.848	1584.96
424.056	1488.7
424.263	1689.4
424.471	1566.53
424.679	1689.4
424.887	1625.92
425.094	1765.18
425.302	1789.75
425.51	1781.56
425.718	1865.53
425.925	1791.8
426.133	1955.64
426.341	2017.08
426.548	2072.37
426.756	2221.88
426.964	2211.64
427.171	2277.17
427.379	2436.91
427.586	2432.82
427.794	2365.23
428.001	2719.53
428.209	2838.31
428.417	2778.92
428.624	2823.98
428.832	2823.98
429.039	2848.55
429.247	2783.02
429.454	3063.59
429.662	3268.39
429.869	2987.82
430.076	3333.92
430.284	3147.56
430.491	3370.79
430.699	3637.02
430.906	3618.59
431.114	3677.98
431.321	3671.84
431.528	3794.72
431.736	4040.47
431.943	4169.49
432.15	4167.45
432.358	4179.73
432.565	4370.19
432.772	4241.17
432.979	4722.45
433.187	4714.25
433.394	4618
433.601	4957.96
433.808	5058.31
434.016	4982.54
434.223	5168.9
434.43	5652.22
434.637	5316.36
434.844	5682.94
435.052	5728
435.259	5875.45
435.466	5861.12
435.673	5826.3
435.88	6237.94
436.087	6676.21
436.294	6668.02
436.501	6297.33
436.708	6532.85
436.915	6563.57
437.122	7079.66
437.329	6817.52
437.537	7141.1
437.743	7067.37
437.95	7245.54
438.157	7595.75
438.364	7919.32
438.571	7948
438.778	7868.13
438.985	8658.64
439.192	8247
439.399	8576.72
439.606	8306.39
439.813	8881.87
440.02	9264.84
440.227	9332.42
440.433	9113.29
440.64	9279.18
440.847	9117.39
441.054	9606.85
441.261	10182.33
441.467	9825.98
441.674	10284.73
441.881	10575.54
442.088	10456.76
442.294	10645.17
442.501	10706.61
442.708	11009.71
442.914	11304.62
443.121	12107.42
443.328	11548.33
443.534	12320.41
443.741	11976.35
443.948	11835.04
444.154	12795.54
444.361	12504.73
444.568	12545.69
444.774	12678.8
444.981	12791.44
445.187	13319.82
445.394	13792.9
445.6	13444.74
445.807	14890.61
446.013	14284.41
446.22	14517.88
446.426	15103.6
446.633	15226.48
446.839	15828.58
447.046	15150.7
447.252	15883.87
447.459	15953.51
447.665	16090.72
447.871	16744.02
448.078	17479.24
448.284	16260.7
448.491	16965.2
448.697	17694.28
448.903	17825.35
449.11	18071.11
449.316	17536.59
449.522	17788.49
449.728	18353.73
449.935	18892.34
450.141	18499.13
450.347	19168.82
450.553	18535.99
450.76	18660.92
450.966	19502.64
451.172	18882.1
451.378	19519.02
451.584	19349.04
451.791	19469.87
451.997	19455.53
452.203	19959.33
452.409	20162.08
452.615	19912.23
452.821	19174.96
453.027	18841.14
453.233	20082.21
453.44	18847.29
453.646	19308.08
453.852	19289.65
454.058	19736.1
454.264	19035.7
454.47	19574.31
454.676	19398.19
454.882	19541.55
455.088	17958.47
455.294	18327.1
455.5	18468.41
455.705	18820.66
455.911	18378.3
456.117	17643.08
456.323	17282.64
456.529	16336.48
456.735	17262.16
456.941	16731.73
457.147	16424.54
457.352	15949.41
457.558	15394.41
457.764	16064.1
457.97	15640.17
458.176	15249
458.381	15115.89
458.587	14614.13
458.793	14456.44
458.999	13489.8
459.204	14524.02
459.41	14182.01
459.616	13201.04
459.821	13338.25
460.027	13289.1
460.233	13078.16
460.438	12482.2
460.644	12353.18
460.85	11843.23
461.055	11667.11
461.261	11611.81
461.466	10841.78
461.672	10532.53
461.878	11306.66
462.083	10559.16
462.289	10317.5
462.494	10002.11
462.7	9731.78
462.905	9504.45
463.111	9782.98
463.316	9668.29
463.522	9559.75
463.727	9662.15
463.932	9414.34
464.138	9440.97
464.343	9494.21
464.549	9223.88
464.754	9690.82
464.959	9514.69
465.165	9500.36
465.37	8883.92
465.575	8627.92
465.781	9023.18
465.986	9090.76
466.191	8814.29
466.397	8584.91
466.602	8300.25
466.807	8439.51
467.012	8517.33
467.218	8634.07
467.423	8400.6
467.628	8353.49
467.833	8683.22
468.038	8474.32
468.244	8158.94
468.449	8503
468.654	8318.68
468.859	8158.94
469.064	8158.94
469.269	7866.08
469.474	7841.5
469.679	8144.6
469.885	7745.25
470.09	7771.87
470.295	7773.92
470.5	7800.54
470.705	7692
470.91	7720.67
471.115	7325.41
471.32	7569.12
471.525	7554.79
471.73	7225.06
471.935	7143.14
472.139	7014.12
472.344	7141.1
472.549	7053.03
472.754	7046.89
472.959	6960.88
473.164	6840.04
473.369	6835.95
473.574	6989.55
473.778	6874.86
473.983	6635.25
474.188	6588.14
474.393	6598.38
474.598	6663.92
474.802	6366.96
475.007	6377.2
475.212	6520.56
475.417	5975.8
475.621	6072.06
475.826	6127.35
476.031	6153.98
476.235	5773.05
476.44	5949.18
476.645	5945.08
476.849	5922.55
477.054	5734.14
477.259	5660.41
477.463	5775.1
477.668	5644.03
477.872	5773.05
478.077	5326.6
478.282	5310.21
478.486	5383.94
478.691	5338.88
478.895	5269.25
479.1	5291.78
479.304	5406.47
479.509	5082.89
479.713	5299.97
479.918	5345.03
480.122	5029.64
480.326	5195.53
480.531	5037.83
480.735	5148.42
480.94	5005.06
481.144	5181.19
481.348	4937.48
481.553	5086.98
481.757	4892.43
481.961	5035.78
482.166	5056.26
482.37	4943.63
482.574	4869.9
482.778	4927.24
482.983	4976.39
483.187	4919.05
483.391	4896.52
483.595	4882.19
483.8	4769.55
484.004	4917
484.208	4843.28
484.412	4894.47
484.616	4822.8
484.821	4873.99
485.025	4837.13
485.229	4876.04
485.433	4790.03
485.637	4640.53
485.841	4814.6
486.045	4841.23
486.249	4900.62
486.453	4890.38
486.657	4923.15
486.861	4794.12
487.065	4773.64
487.269	4976.39
487.473	4855.56
487.677	4884.23
487.881	5017.35
488.085	5033.74
488.289	4871.95
488.493	4841.23
488.697	5025.54
488.901	4933.39
489.105	4994.83
489.309	5015.3
489.512	4962.06
489.716	4923.15
489.92	5009.16
490.124	4833.04
490.328	5140.23
490.531	4984.59
490.735	5070.6
490.939	5105.42
491.143	5011.21
491.346	4941.58
491.55	5078.79
491.754	5101.32
491.958	5160.71
492.161	5011.21
492.365	5213.96
492.569	5062.41
492.772	5125.9
492.976	5195.53
493.18	5179.14
493.383	5238.53
493.587	5465.86
493.79	5342.98
493.994	5148.42
494.197	5209.86
494.401	5498.63
494.605	5265.16
494.808	5472
495.012	5586.69
495.215	5523.2
495.419	5586.69
495.622	5558.02
495.825	5533.44
496.029	5695.23
496.232	5826.3
496.436	5588.74
496.639	5994.23
496.843	5742.33
497.046	5766.91
497.249	6020.86
497.453	6043.39
497.656	6043.39
497.859	6051.58
498.063	6158.07
498.266	6192.89
498.469	6237.94
498.673	6143.74
498.876	6319.86
499.079	6465.27
499.282	6366.96
499.485	6682.35
499.689	6602.48
499.892	6612.72
500.095	6919.92
500.298	7069.42
500.501	6944.49
500.705	6932.2
500.908	7046.89
501.111	7024.36
501.314	7274.21
501.517	7413.48
501.72	7247.59
501.923	7583.46
502.126	7317.22
502.329	7636.7
502.532	7745.25
502.735	7745.25
502.938	7747.3
503.141	7976.67
503.344	7954.14
503.547	8255.19
503.75	8158.94
503.953	8183.51
504.156	8290.01
504.359	8580.82
504.562	8330.97
504.765	8552.15
504.968	8644.31
505.17	8802
505.373	8629.97
505.576	8959.69
505.779	9168.59
505.982	9158.35
506.185	9266.89
506.387	9254.6
506.59	9277.13
506.793	9563.84
506.996	9617.09
507.198	9762.5
507.401	9864.89
507.604	9957.05
507.807	10067.64
508.009	10161.85
508.212	10118.84
508.415	10387.13
508.617	10270.39
508.82	10325.69
509.022	10280.63
509.225	10778.29
509.428	10630.84
509.63	10770.1
509.833	10772.14
510.035	11187.88
510.238	11177.64
510.44	11071.15
510.643	11548.33
510.845	11603.62
511.048	11138.73
511.25	11562.66
511.453	11277.99
511.655	11939.49
511.858	11757.22
512.06	11876
512.262	11896.48
512.465	12052.13
512.667	12408.47
512.87	12330.65
513.072	12390.04
513.274	12545.69
513.477	12883.6
513.679	12781.2
513.881	12809.87
514.084	13117.07
514.286	13221.52
514.488	13221.52
514.69	13590.15
514.893	13438.6
515.095	13641.35
515.297	13909.63
515.499	13504.14
515.701	13719.17
515.904	14106.24
516.106	14139.01
516.308	14052.99
516.51	14278.27
516.712	14339.71
516.914	14519.93
517.116	14542.46
517.318	14595.7
517.52	14831.22
517.722	14794.36
517.925	14839.41
518.127	15113.84
518.329	15128.17
518.531	14982.77
518.733	15423.08
518.935	15461.99
519.136	15560.3
519.338	15685.22
519.54	15814.24
519.742	16039.52
519.944	16143.97
520.146	16277.08
520.348	16225.89
520.55	16418.39
520.752	16219.74
520.954	16483.93
521.155	16412.25
521.357	16887.38
521.559	16672.34
521.761	16948.82
521.963	16789.08
522.164	17055.31
522.366	16934.48
522.568	17335.88
522.77	17143.38
522.971	17669.7
523.173	17321.55
523.375	17471.05
523.576	17485.39
523.778	17235.53
523.98	17755.72
524.181	17706.57
524.383	17745.48
524.584	18024
524.786	17669.7
524.988	17552.97
525.189	18005.57
525.391	18259.52
525.592	18024
525.794	18087.49
525.995	18343.49
526.197	18073.15
526.398	18253.37
526.6	18609.72
526.801	18390.59
527.003	18363.97
527.204	18488.89
527.406	18712.12
527.607	18648.63
527.808	18769.46
528.01	18429.5
528.211	18521.66
528.412	18642.49
528.614	18703.93
528.815	18908.72
529.016	18906.68
529.218	18925.11
529.419	18677.3
529.62	18652.73
529.822	19060.27
530.023	18867.77
530.224	18593.34
530.425	18867.77
530.626	18824.76
530.828	18724.41
531.029	19162.67
531.23	18906.68
531.431	19025.46
531.632	19064.37
531.833	19303.98
532.035	18984.5
532.236	18802.23
532.437	19002.93
532.638	18849.33
532.839	19189.3
533.04	19215.92
533.241	18918.96
533.442	19177.01
533.643	19027.51
533.844	18939.44
534.045	19037.75
534.246	18890.29
534.447	19035.7
534.648	19066.42
534.849	18970.16
535.05	18777.65
535.251	18931.25
535.451	19099.19
535.652	19215.92
535.853	18798.13
536.054	18763.32
536.255	19215.92
536.456	18925.11
536.657	18966.07
536.857	19000.88
537.058	18884.15
537.259	19201.58
537.46	18769.46
537.66	18906.68
537.861	18964.02
538.062	18976.31
538.263	18757.18
538.463	18945.59
538.664	19011.12
538.865	18771.51
539.065	18988.6
539.266	18759.22
539.466	19197.49
539.667	18869.81
539.868	19127.86
540.068	18658.87
540.269	18851.38
540.469	19066.42
540.67	18816.57
540.87	18955.83
541.071	18857.53
541.271	18939.44
541.472	18845.24
541.672	18804.28
541.873	18515.51
542.073	18519.61
542.274	19134
542.474	18748.98
542.675	18634.3
542.875	18935.35
543.075	18814.52
543.276	18685.5
543.476	18865.72
543.676	18800.18
543.877	18525.75
544.077	18695.74
544.277	18753.08
544.478	18699.83
544.678	18667.06
544.878	18642.49
545.078	18720.31
545.279	18562.62
545.479	18490.94
545.679	18734.65
545.879	18443.84
546.079	18615.87
546.28	18357.82
546.48	18599.48
546.68	18593.34
546.88	18560.57
547.08	18630.2
547.28	18406.97
547.48	18351.68
547.68	18460.22
547.88	18398.78
548.081	18687.54
548.281	18619.96
548.481	18368.06
548.681	18628.15
548.881	18398.78
549.081	18685.5
549.28	18314.81
549.48	18689.59
549.68	18447.93
549.88	18705.98
550.08	18282.05
550.28	18720.31
550.48	18488.89
550.68	18462.27
550.88	18452.03
551.08	18437.69
551.279	18685.5
551.479	18492.99
551.679	18376.25
551.879	18157.12
552.079	18435.64
552.278	18351.68
552.478	18533.95
552.678	18337.34
552.878	18527.8
553.077	18413.12
553.277	18038.34
553.477	18533.95
553.676	18349.63
553.876	18503.23
554.076	18417.21
554.275	18259.52
554.475	17937.99
554.674	18372.16
554.874	18277.95
555.074	18175.55
555.273	18333.25
555.473	18677.3
555.672	17876.55
555.872	18142.78
556.071	18554.43
556.271	18273.85
556.47	17999.43
556.67	17923.65
556.869	18099.78
557.068	18081.35
557.268	17899.08
557.467	18118.21
557.667	18325.05
557.866	18175.55
558.065	18253.37
558.265	18103.87
558.464	17862.21
558.663	18206.27
558.863	17983.04
559.062	18232.9
559.261	18103.87
559.461	18077.25
559.66	18013.76
559.859	17925.7
560.058	18003.52
560.258	18265.66
560.457	18165.31
560.656	18046.53
560.855	18320.96
561.054	18048.58
561.253	18026.05
561.453	17970.76
561.652	18103.87
561.851	18013.76
562.05	17851.97
562.249	17702.47
562.448	17829.45
562.647	17823.3
562.846	17995.33
563.045	17872.45
563.244	17903.17
563.443	18134.59
563.642	17792.58
563.841	17739.33
564.04	17679.94
564.239	17811.01
564.438	17673.8
564.637	17624.65
564.836	18054.72
565.035	17536.59
565.234	17968.71
565.432	17507.91
565.631	17761.86
565.83	17892.93
566.029	17851.97
566.228	17581.64
566.427	17798.73
566.625	17692.23
566.824	17399.37
567.023	17733.19
567.222	17245.77
567.42	17677.9
567.619	17684.04
567.818	17692.23
568.016	17464.91
568.215	17671.75
568.414	17628.74
568.612	17673.8
568.811	17761.86
569.01	17786.44
569.208	17276.49
569.407	17657.42
569.605	17593.93
569.804	17489.48
570.002	17399.37
570.201	17204.81
570.4	17262.16
570.598	17276.49
570.797	17118.8
570.995	17413.71
571.193	17305.17
571.392	17346.12
571.59	16993.87
571.789	17292.88
571.987	17280.59
572.186	17112.66
572.384	17233.49
572.582	17430.09
572.781	17118.8
572.979	16883.28
573.177	17204.81
573.376	17339.98
573.574	17053.27
573.772	17331.79
573.971	16926.29
574.169	16985.68
574.367	16934.48
574.565	16909.91
574.763	17030.74
574.962	16916.05
575.16	16856.66
575.358	16684.63
575.556	16430.68
575.754	16909.91
575.952	16692.82
576.151	16887.38
576.349	16752.21
576.547	16500.31
576.745	16676.44
576.943	16832.08
577.141	16766.55
577.339	16838.23
577.537	16674.39
577.735	16594.52
577.933	16457.31
578.131	16535.13
578.329	16795.22
578.527	16191.07
578.725	16551.51
578.923	16561.75
579.121	16463.45
579.319	16557.66
579.516	16344.67
579.714	16377.44
579.912	16367.2
580.11	16074.34
580.308	16350.81
580.506	16350.81
580.704	16119.39
580.901	16389.72
581.099	16512.6
581.297	16232.03
581.495	16162.4
581.692	16152.16
581.89	16252.51
582.088	16152.16
582.285	16100.96
582.483	16213.6
582.681	16025.18
582.878	16027.23
583.076	15992.42
583.274	16039.52
583.471	15726.18
583.669	15662.69
583.866	15853.16
584.064	15646.31
584.262	15341.16
584.459	15787.62
584.657	15748.71
584.854	15613.54
585.052	15474.28
585.249	15832.68
585.447	15533.67
585.644	15265.39
585.841	15605.35
586.039	15625.83
586.236	15492.71
586.434	15523.43
586.631	15453.8
586.828	15472.23
587.026	15484.52
587.223	15482.47
587.42	15359.59
587.618	15171.18
587.815	15361.64
588.012	15097.45
588.21	15238.76
588.407	15494.76
588.604	15259.24
588.801	14988.91
588.999	15162.99
589.196	14947.95
589.393	14896.75
589.59	14964.34
589.787	15158.89
589.984	15005.3
590.182	14820.98
590.379	15160.94
590.576	14567.03
590.773	14970.48
590.97	14808.69
591.167	15005.3
591.364	14624.37
591.561	14790.26
591.758	14759.54
591.955	14636.66
592.152	14769.78
592.349	14786.16
592.546	14454.39
592.743	14575.22
592.94	14464.63
593.137	14423.67
593.334	14710.39
593.531	14165.63
593.727	14583.41
593.924	14612.09
594.121	14319.23
594.318	14395
594.515	14145.15
594.712	14554.74
594.908	14274.17
595.105	14239.36
595.302	14337.66
595.499	14118.53
595.696	14304.89
595.892	14220.92
596.089	14225.02
596.286	13999.74
596.482	14280.32
596.679	14116.48
596.876	13917.82
597.072	13995.65
597.269	14274.17
597.466	13954.69
597.662	13901.44
597.859	13868.67
598.055	14003.84
598.252	13637.25
598.448	13854.34
598.645	13676.16
598.841	13776.52
599.038	13676.16
599.234	13917.82
599.431	13557.38
599.627	13465.22
599.824	13581.96
600.02	13602.44
600.217	13571.72
600.413	13694.6
600.609	13239.95
600.806	13428.36
601.002	13393.54
601.198	13452.94
601.395	13325.96
601.591	13448.84
601.787	13428.36
601.984	13239.95
602.18	13368.97
602.376	13459.08
602.572	13393.54
602.769	13299.34
602.965	13072.01
603.161	12953.23
603.357	13213.32
603.553	13414.02
603.75	13194.89
603.946	12947.09
604.142	12988.05
604.338	13057.68
604.534	12967.57
604.73	12867.22
604.926	12922.51
605.122	12988.05
605.318	12617.36
605.514	12801.68
605.71	12879.5
605.906	12773.01
606.102	12959.38
606.298	12906.13
606.494	13053.58
606.69	12732.05
606.886	12854.93
607.082	12600.98
607.278	12668.56
607.474	12459.67
607.67	12656.28
607.866	12416.66
608.062	12998.29
608.257	12525.21
608.453	12449.43
608.649	12641.94
608.845	12517.01
609.041	12525.21
609.236	12357.27
609.432	12535.45
609.628	12684.95
609.824	12529.3
610.019	12383.9
610.215	12344.98
610.411	12508.82
610.606	12408.47
610.802	12428.95
610.998	12387.99
611.193	12480.15
611.389	11982.49
611.584	12265.11
611.78	12029.6
611.976	12199.58
612.171	12271.26
612.367	12263.07
612.562	12160.67
612.758	11931.3
612.953	12000.93
613.149	12045.98
613.344	12023.45
613.539	12250.78
613.735	12170.91
613.93	12138.14
614.126	12039.84
614.321	12258.97
614.517	12132
614.712	11972.25
614.907	12021.41
615.103	12062.37
615.298	11865.76
615.493	11953.82
615.688	11964.06
615.884	11953.82
616.079	11671.2
616.274	11945.63
616.47	11693.73
616.665	11869.86
616.86	11888.29
617.055	11716.26
617.25	11718.31
617.445	11863.71
617.641	11597.48
617.836	11617.96
618.031	11546.28
618.226	11568.8
618.421	11652.77
618.616	11628.2
618.811	11648.68
619.006	11540.13
619.201	11511.46
619.396	11521.7
619.591	11435.69
619.786	11495.08
619.981	11136.68
620.176	11224.75
620.371	11275.95
620.566	11183.79
620.761	11058.86
620.956	11237.03
621.151	11108.01
621.346	11337.38
621.541	10804.91
621.735	10946.22
621.93	11089.58
622.125	10950.32
622.32	10749.62
622.515	10766
622.709	10731.19
622.904	10882.74
623.099	10677.94
623.294	10675.89
623.488	10677.94
623.683	10714.8
623.878	10348.22
624.072	10528.44
624.267	10237.63
624.462	10239.67
624.656	10378.93
624.851	10391.22
625.046	10262.2
625.24	10510
625.435	9975.49
625.629	10092.22
625.824	10124.99
626.018	9912
626.213	9832.13
626.407	9871.04
626.602	9580.23
626.796	9739.97
626.991	9758.4
627.185	9692.87
627.38	9582.28
627.574	9668.29
627.768	9604.8
627.963	9299.66
628.157	9447.11
628.352	9447.11
628.546	9342.66
628.74	9402.05
628.935	9125.58
629.129	9455.3
629.323	9090.76
629.517	9113.29
629.712	9092.81
629.906	9227.98
630.1	9107.15
630.294	9094.86
630.489	8693.46
630.683	8990.41
630.877	8775.38
631.071	8738.51
631.265	8808.14
631.459	8558.29
631.653	8638.16
631.848	8498.9
632.042	8591.06
632.236	8431.32
632.43	8421.08
632.624	8568.53
632.818	8464.08
633.012	8267.48
633.206	8384.21
633.4	8281.81
633.594	8038.11
633.788	8392.41
633.982	8216.28
634.176	8208.09
634.369	7988.96
634.563	8107.74
634.757	7646.94
634.951	8120.03
635.145	7933.66
635.339	7857.89
635.533	7921.37
635.726	7907.04
635.92	7593.7
636.114	7827.17
636.308	7669.47
636.501	7583.46
636.695	7610.08
636.889	7311.08
637.083	7483.11
637.276	7757.53
637.47	7532.26
637.664	7343.85
637.857	7507.68
638.051	7452.39
638.244	7227.11
638.438	7192.3
638.632	7216.87
638.825	7173.86
639.019	7216.87
639.212	6901.48
639.406	7153.38
639.599	7065.32
639.793	7030.51
639.986	7036.65
640.18	6995.69
640.373	6895.34
640.567	6749.93
640.76	6870.76
640.954	6692.59
641.147	6811.37
641.34	6682.35
641.534	6538.99
641.727	6790.89
641.92	6711.02
642.114	6551.28
642.307	6604.53
642.5	6426.36
642.694	6323.96
642.887	6455.03
643.08	6457.07
643.273	6387.44
643.467	6278.9
643.66	6141.69
643.853	6205.17
644.046	6403.83
644.239	6160.12
644.432	6160.12
644.626	6000.38
644.819	6020.86
645.012	6188.79
645.205	5973.75
645.398	5983.99
645.591	5879.55
645.784	5918.46
645.977	5728
646.17	5795.58
646.363	5781.25
646.556	5728
646.749	5596.93
646.942	5863.16
647.135	5615.36
647.328	5582.59
647.521	5760.77
647.714	5506.82
647.907	5723.9
648.099	5381.89
648.292	5555.97
648.485	5515.01
648.678	5367.56
648.871	5367.56
649.064	5302.02
649.256	5275.4
649.449	5238.53
649.642	5338.88
649.835	5185.29
650.027	5230.34
650.22	5152.52
650.413	5308.16
650.605	5127.94
650.798	5138.18
650.991	4949.77
651.183	5146.37
651.376	4929.29
651.568	5101.32
651.761	4962.06
651.954	5043.98
652.146	4925.19
652.339	4765.45
652.531	4773.64
652.724	4783.88
652.916	4730.64
653.109	4728.59
653.301	4824.84
653.494	4665.1
653.686	4632.33
653.879	4701.97
654.071	4585.23
654.263	4628.24
654.456	4624.14
654.648	4699.92
654.84	4525.84
655.033	4480.78
655.225	4564.75
655.417	4562.7
655.61	4603.66
655.802	4558.61
655.994	4450.07
656.186	4304.66
656.379	4341.52
656.571	4345.62
656.763	4189.97
656.955	4247.32
657.148	4339.48
657.34	4202.26
657.532	4175.64
657.724	4132.63
657.916	4165.4
658.108	4128.53
658.3	4171.54
658.492	4101.91
658.684	3929.88
658.876	4009.75
659.068	4138.77
659.26	3852.06
659.452	3839.77
659.644	4048.66
659.836	3944.22
660.028	4024.09
660.22	3866.39
660.412	3872.54
660.604	3739.42
660.796	3739.42
660.988	3825.43
661.18	3809.05
661.372	3755.8
661.563	3725.08
661.755	3784.48
661.947	3637.02
662.139	3780.38
662.331	3710.75
662.522	3569.44
662.714	3622.69
662.906	3600.16
663.097	3573.53
663.289	3565.34
663.481	3534.62
663.673	3602.21
663.864	3436.32
664.056	3493.66
664.247	3600.16
664.439	3438.37
664.631	3577.63
664.822	3407.65
665.014	3501.86
665.205	3454.75
665.397	3491.62
665.588	3372.83
665.78	3483.42
665.971	3424.03
666.163	3399.46
666.354	3278.63
666.546	3290.92
666.737	3290.92
666.929	3274.53
667.12	3333.92
667.311	3280.68
667.503	3223.33
667.694	3368.74
667.885	3266.34
668.077	3327.78
668.268	3155.75
668.459	3254.05
668.651	3206.95
668.842	3163.94
669.033	3176.23
669.224	3016.49
669.416	3366.69
669.607	3223.33
669.798	3045.16
669.989	3188.52
670.18	3100.45
670.371	3116.84
670.563	3065.64
670.754	3145.51
670.945	3178.28
671.136	3139.37
671.327	3032.87
671.518	3098.41
671.709	3055.4
671.9	3186.47
672.091	3131.17
672.282	2850.6
672.473	2979.62
672.664	2944.81
672.855	2979.62
673.046	3084.07
673.237	3028.78
673.428	2844.46
673.619	3106.6
673.809	3039.01
674	2985.77
674.191	2891.56
674.382	2965.29
674.573	2909.99
674.764	2963.24
674.954	2967.34
675.145	2918.18
675.336	2866.99
675.527	2916.14
675.717	2848.55
675.908	2828.07
676.099	2907.94
676.289	3008.3
676.48	2873.13
676.671	2879.27
676.861	2764.59
677.052	2942.76
677.243	2826.03
677.433	2862.89
677.624	2965.29
677.814	2887.47
678.005	2938.66
678.195	2981.67
678.386	2662.19
678.576	2854.7
678.767	2953
678.957	2948.9
679.148	3032.87
679.338	3084.07
679.529	2922.28
679.719	2918.18
679.909	2905.9
680.1	2938.66
680.29	2873.13
680.481	2801.45
680.671	2832.17
680.861	2953
681.052	2918.18
681.242	2893.61
681.432	2950.95
681.622	2875.18
681.813	2799.4
682.003	2953
682.193	2809.64
682.383	3000.1
682.573	2795.31
682.764	2899.75
682.954	2903.85
683.144	2854.7
683.334	2869.03
683.524	2817.83
683.714	2934.57
683.904	2850.6
684.094	2914.09
684.284	2869.03
684.474	2981.67
684.664	2959.14
684.854	2989.86
685.044	2885.42
685.234	2873.13
685.424	2903.85
685.614	2815.79
685.804	2823.98
685.994	2772.78
686.184	2846.51
686.374	2826.03
686.564	2770.73
686.753	2864.94
686.943	2864.94
687.133	2860.84
687.323	2828.07
687.513	2754.35
687.702	2733.87
687.892	2750.25
688.082	2819.88
688.272	2787.11
688.461	2717.48
688.651	2783.02
688.841	2823.98
689.03	2635.57
689.22	2709.29
689.41	2699.05
689.599	2694.96
689.789	2774.83
689.979	2807.59
690.168	2793.26
690.358	2656.04
690.547	2625.33
690.737	2543.41
690.926	2649.9
691.116	2625.33
691.305	2709.29
691.495	2623.28
691.684	2664.24
691.874	2664.24
692.063	2666.28
692.252	2613.04
692.442	2506.54
692.631	2459.44
692.82	2596.65
693.01	2516.78
693.199	2486.06
693.388	2375.47
693.578	2590.51
693.767	2537.26
693.956	2510.64
694.146	2463.54
694.335	2457.39
694.524	2352.95
694.713	2520.88
694.902	2512.69
695.092	2463.54
695.281	2531.12
695.47	2447.15
695.659	2508.59
695.848	2424.62
696.037	2498.35
696.226	2662.19
696.415	2342.71
696.604	2570.03
696.793	2545.45
696.982	2459.44
697.171	2553.65
697.36	2529.07
697.549	2342.71
697.738	2340.66
697.927	2424.62
698.116	2473.78
698.305	2529.07
698.494	2494.26
698.683	2473.78
698.872	2531.12
699.061	2424.62
699.25	2496.3
699.438	2647.85
699.627	2441.01
699.816	2527.02
700.005	2520.88
700.193	2545.45
700.382	2615.09
700.571	2549.55
700.76	2516.78
700.948	2623.28
701.137	2543.41
701.326	2449.2
701.514	2504.5
701.703	2565.93
701.892	2606.89
702.08	2625.33
702.269	2492.21
702.457	2649.9
702.646	2580.27
702.834	2522.93
703.023	2551.6
703.212	2606.89
703.4	2586.41
703.589	2608.94
703.777	2572.08
703.965	2639.66
704.154	2572.08
704.342	2649.9
704.531	2613.04
704.719	2557.74
704.907	2707.24
705.096	2617.13
705.284	2699.05
705.472	2643.76
705.661	2617.13
705.849	2731.82
706.037	2688.81
706.226	2709.29
706.414	2606.89
706.602	2744.11
706.79	2649.9
706.979	2670.38
707.167	2670.38
707.355	2674.48
707.543	2746.16
707.731	2635.57
707.919	2572.08
708.107	2664.24
708.296	2572.08
708.484	2762.54
708.672	2893.61
708.86	2838.31
709.048	2723.63
709.236	2821.93
709.424	2598.7
709.612	2758.44
709.8	2584.37
709.988	2705.2
710.176	2707.24
710.364	2807.59
710.551	2654
710.739	2737.96
710.927	2721.58
711.115	2811.69
711.303	2801.45
711.491	2811.69
711.679	2805.55
711.866	2842.41
712.054	2803.5
712.242	2772.78
712.43	2772.78
712.617	2723.63
712.805	2883.37
712.993	2680.62
713.181	2770.73
713.368	2703.15
713.556	2983.72
713.744	2805.55
713.931	2930.47
714.119	2807.59
714.306	2864.94
714.494	2803.5
714.682	2823.98
714.869	2840.36
715.057	2897.71
715.244	2799.4
715.432	2942.76
715.619	2807.59
715.807	2828.07
715.994	2860.84
716.182	2967.34
716.369	2836.27
716.556	2998.06
716.744	2842.41
716.931	2895.66
717.119	2815.79
717.306	2912.04
717.493	2875.18
717.681	2854.7
717.868	2909.99
718.055	2791.21
718.242	2817.83
718.43	2836.27
718.617	2891.56
718.804	2832.17
718.991	2955.05
719.179	2926.38
719.366	2801.45
719.553	2971.43
719.74	2879.27
719.927	2944.81
720.114	2823.98
720.301	2877.23
720.488	2889.51
720.676	2834.22
720.863	2979.62
721.05	3055.4
721.237	2826.03
721.424	2926.38
721.611	2998.06
721.798	2838.31
721.985	2883.37
722.172	2793.26
722.358	2860.84
722.545	2979.62
722.732	2885.42
722.919	2901.8
723.106	2869.03
723.293	2889.51
723.48	3030.82
723.667	2920.23
723.853	2864.94
724.04	3010.34
724.227	2991.91
724.414	2850.6
724.6	2846.51
724.787	3096.36
724.974	2936.62
725.161	2957.1
725.347	2901.8
725.534	2926.38
725.72	2844.46
725.907	3030.82
726.094	2830.12
726.28	2897.71
726.467	2817.83
726.653	2887.47
726.84	2885.42
727.027	3036.97
727.213	2707.24
727.4	2953
727.586	2975.53
727.773	2955.05
727.959	2893.61
728.145	2963.24
728.332	2981.67
728.518	2877.23
728.705	2836.27
728.891	2791.21
729.077	2938.66
729.264	2893.61
729.45	2922.28
729.636	2909.99
729.823	2916.14
730.009	2869.03
730.195	2830.12
730.382	2930.47
730.568	2854.7
730.754	3010.34
730.94	2854.7
731.126	2907.94
731.313	2942.76
731.499	2762.54
731.685	3026.73
731.871	2971.43
732.057	3063.59
732.243	2963.24
732.429	2932.52
732.615	2922.28
732.801	2950.95
732.987	2871.08
733.173	2889.51
733.359	2836.27
733.545	2920.23
733.731	2848.55
733.917	2920.23
734.103	2809.64
734.289	2746.16
734.475	2836.27
734.661	3006.25
734.847	2740.01
735.033	2989.86
735.219	2803.5
735.404	2871.08
735.59	2793.26
735.776	2662.19
735.962	2920.23
736.148	2856.75
736.333	2936.62
736.519	2817.83
736.705	2856.75
736.89	2670.38
737.076	2823.98
737.262	2629.42
737.447	2754.35
737.633	2737.96
737.819	2688.81
738.004	2690.86
738.19	2789.16
738.375	2729.77
738.561	2735.92
738.747	2871.08
738.932	2830.12
739.118	2721.58
739.303	2701.1
739.489	2860.84
739.674	2684.72
739.859	2729.77
740.045	2713.39
740.23	2709.29
740.416	2549.55
740.601	2610.99
740.786	2660.14
740.972	2516.78
741.157	2658.09
741.342	2500.4
741.528	2500.4
741.713	2656.04
741.898	2596.65
742.084	2610.99
742.269	2690.86
742.454	2531.12
742.639	2713.39
742.824	2402.1
743.01	2551.6
743.195	2522.93
743.38	2486.06
743.565	2461.49
743.75	2375.47
743.935	2475.82
744.12	2567.98
744.305	2391.86
744.49	2447.15
744.675	2426.67
744.86	2373.43
745.045	2320.18
745.23	2307.89
745.415	2379.57
745.6	2481.97
745.785	2352.95
745.97	2445.1
746.155	2344.75
746.34	2275.12
746.525	2254.64
746.71	2301.75
746.895	2240.31
747.079	2156.34
747.264	2381.62
747.449	2268.98
747.634	2260.79
747.819	2240.31
748.003	2111.29
748.188	2221.88
748.373	2283.31
748.557	2117.43
748.742	2154.29
748.927	2080.57
749.111	2209.59
749.296	2064.18
749.481	2215.73
749.665	2162.48
749.85	2156.34
750.034	1998.65
750.219	2039.61
750.404	2082.61
750.588	1969.98
750.773	1953.59
750.957	2035.51
751.141	1949.5
751.326	2017.08
751.51	1853.24
751.695	1929.02
751.879	1918.78
752.064	1953.59
752.248	1963.83
752.432	1933.11
752.617	1904.44
752.801	1965.88
752.985	1836.86
753.17	1933.11
753.354	1853.24
753.538	1791.8
753.722	1716.03
753.907	1728.31
754.091	1718.08
754.275	1736.51
754.459	1687.36
754.643	1656.64
754.828	1670.97
755.012	1797.95
755.196	1673.02
755.38	1666.88
755.564	1662.78
755.748	1621.82
755.932	1744.7
756.116	1636.16
756.3	1691.45
756.484	1546.05
756.668	1691.45
756.852	1539.9
757.036	1617.72
757.22	1574.72
757.404	1552.19
757.588	1568.57
757.772	1548.09
757.956	1533.76
758.14	1531.71
758.323	1552.19
758.507	1554.24
758.691	1386.3
758.875	1492.8
759.059	1503.04
759.242	1488.7
759.426	1460.03
759.61	1498.94
759.794	1292.1
759.977	1513.28
760.161	1615.68
760.345	1429.31
760.528	1351.49
760.712	1419.07
760.895	1359.68
761.079	1464.13
761.263	1308.48
761.446	1353.54
761.63	1429.31
761.813	1400.64
761.997	1324.87
762.18	1359.68
762.364	1236.8
762.547	1228.61
762.731	1386.3
762.914	1367.87
763.098	1234.75
763.281	1310.53
763.464	1320.77
763.648	1320.77
763.831	1181.51
764.015	1275.71
764.198	1341.25
764.381	1347.39
764.564	1267.52
764.748	1331.01
764.931	1316.67
765.114	1216.32
765.297	1281.86
765.481	1154.88
765.664	1232.71
765.847	1163.08
766.03	1263.43
766.213	1216.32
766.397	1271.62
766.58	1113.92
766.763	1199.94
766.946	1095.49
767.129	1120.07
767.312	1199.94
767.495	1187.65
767.678	1167.17
767.861	1122.12
768.044	1253.19
768.227	995.14
768.41	1156.93
768.593	1081.16
768.776	1097.54
768.959	1050.44
769.142	1199.94
769.324	1058.63
769.507	1132.36
769.69	1040.2
769.873	1029.96
770.056	1115.97
770.239	1023.81
770.421	1150.79
770.604	1046.34
770.787	1066.82
770.97	1091.4
771.152	993.09
771.335	1128.26
771.518	1126.21
771.7	1050.44
771.883	1089.35
772.066	1025.86
772.248	1075.01
772.431	1075.01
772.613	1025.86
772.796	956.23
772.978	1015.62
773.161	1085.25
773.343	952.13
773.526	1066.82
773.708	1023.81
773.891	925.51
774.073	962.37
774.256	933.7
774.438	1015.62
774.621	919.37
774.803	1005.38
774.985	882.5
775.168	1009.48
775.35	814.92
775.532	937.8
775.715	778.06
775.897	874.31
776.079	933.7
776.261	982.85
776.444	931.66
776.626	909.13
776.808	833.35
776.99	933.7
777.173	892.74
777.355	849.74
777.537	851.78
777.719	784.2
777.901	780.11
778.083	847.69
778.265	784.2
778.447	874.31
778.629	763.72
778.811	790.35
778.993	800.59
779.175	849.74
779.357	827.21
779.539	733
779.721	737.1
779.903	749.39
780.085	790.35
780.267	833.35
780.449	804.68
780.631	765.77
780.812	812.87
780.994	694.09
781.176	761.67
781.358	726.86
781.54	642.89
781.721	677.71
781.903	606.03
782.085	593.74
782.267	675.66
782.448	632.65
782.63	571.21
782.812	726.86
782.993	704.33
783.175	649.04
783.357	579.4
783.538	591.69
783.72	620.36
783.901	573.26
784.083	638.8
784.264	563.02
784.446	569.16
784.627	571.21
784.809	542.54
784.99	620.36
785.172	677.71
785.353	558.92
785.535	577.36
785.716	524.11
785.897	548.68
786.079	565.07
786.26	522.06
786.441	585.55
786.623	493.39
786.804	468.81
786.985	554.83
787.167	583.5
787.348	485.2
787.529	511.82
787.71	552.78
787.891	501.58
788.073	524.11
788.254	468.81
788.435	548.68
788.616	481.1
788.797	477.01
788.978	550.73
789.159	423.76
789.34	517.97
789.522	458.57
789.703	472.91
789.884	495.44
790.065	374.61
790.246	542.54
790.427	446.29
790.607	532.3
790.788	472.91
790.969	413.52
791.15	489.29
791.331	440.14
791.512	419.66
791.693	399.18
791.874	417.61
792.054	458.57
792.235	479.05
792.416	337.74
792.597	413.52
792.778	384.85
792.958	374.61
793.139	384.85
793.32	477.01
793.5	272.21
793.681	388.94
793.862	378.7
794.042	337.74
794.223	298.83
794.404	386.9
794.584	345.94
794.765	395.09
794.945	345.94
795.126	419.66
795.306	354.13
795.487	276.31
795.667	352.08
795.848	337.74
796.028	368.46
796.209	403.28
796.389	417.61
796.57	376.66
796.75	327.5
796.93	372.56
797.111	343.89
797.291	343.89
797.471	333.65
797.652	253.78
797.832	321.36
798.012	350.03
798.192	321.36
798.373	243.54
798.553	286.54
798.733	339.79
798.913	292.69
799.093	266.07
799.274	362.32
799.454	302.93
799.634	403.28
799.814	276.31
799.994	325.46
800.174	329.55
800.354	307.02
800.534	266.07
800.714	264.02
800.894	206.67
801.074	266.07
801.254	294.74
801.434	341.84
801.614	284.5
801.794	173.91
801.974	1320.77
802.154	268.11
802.334	327.5
802.514	186.19
802.693	233.3
802.873	180.05
803.053	319.31
803.233	350.03
803.413	298.83
803.592	216.91
803.772	231.25
803.952	274.26
804.131	175.95
804.311	278.35
804.491	300.88
804.67	186.19
804.85	229.2
805.03	237.39
805.209	288.59
805.389	223.06
805.568	270.16
805.748	196.43
805.928	139.09
806.107	315.22
806.287	255.83
806.466	227.15
806.646	206.67
806.825	257.87
807.004	206.67
807.184	202.58
807.363	298.83
807.543	270.16
807.722	118.61
807.901	182.1
808.081	171.86
808.26	153.43
808.439	132.95
808.619	223.06
808.798	186.19
808.977	182.1
809.156	235.35
809.336	188.24
809.515	251.73
809.694	255.83
809.873	198.48
810.052	200.53
810.231	200.53
810.411	194.39
810.59	229.2
810.769	184.15
810.948	200.53
811.127	180.05
811.306	130.9
811.485	157.52
811.664	223.06
811.843	218.96
812.022	239.44
812.201	214.87
812.38	143.19
812.559	135
812.737	243.54
812.916	98.13
813.095	116.56
813.274	216.91
813.453	122.71
813.632	182.1
813.811	210.77
813.989	171.86
814.168	165.71
814.347	96.08
814.526	124.76
814.704	157.52
814.883	245.59
815.062	143.19
815.24	178
815.419	98.13
815.598	204.63
815.776	165.71
815.955	180.05
816.133	120.66
816.312	165.71
816.49	83.8
816.669	141.14
816.847	139.09
817.026	196.43
817.204	102.23
817.383	67.41
817.561	118.61
817.74	253.78
817.918	77.65
818.097	100.18
818.275	114.52
818.453	212.82
818.632	165.71
818.81	126.8
818.988	147.28
819.167	155.47
819.345	110.42
819.523	116.56
819.701	153.43
819.879	126.8
820.058	141.14
820.236	118.61
820.414	153.43
820.592	83.8
820.77	128.85
820.948	141.14
821.127	71.51
821.305	104.28
821.483	94.04
821.661	149.33
821.839	135
822.017	48.98
822.195	65.36
822.373	167.76
822.551	65.36
822.729	208.72
822.907	114.52
823.085	112.47
823.262	108.37
823.44	124.76
823.618	112.47
823.796	108.37
823.974	36.69
824.152	102.23
824.329	57.17
824.507	34.64
824.685	51.03
824.863	79.7
825.04	122.71
825.218	69.46
825.396	102.23
825.574	104.28
825.751	91.99
825.929	173.91
826.107	32.6
826.284	91.99
826.462	87.89
826.639	128.85
826.817	48.98
826.994	122.71
827.172	73.56
827.349	85.84
827.527	79.7
827.704	75.6
827.882	141.14
828.059	18.26
828.237	46.93
828.414	102.23
828.591	36.69
828.769	108.37
828.946	61.27
829.124	42.84
829.301	173.91
829.478	104.28
829.655	46.93
829.833	91.99
830.01	1.88
830.187	46.93
830.364	67.41
830.542	61.27
830.719	157.52
830.896	186.19
831.073	106.32
831.25	96.08
831.427	65.36
831.604	96.08
831.782	48.98
831.959	108.37
832.136	51.03
832.313	69.46
832.49	118.61
832.667	87.89
832.844	87.89
833.021	87.89
833.198	94.04
833.374	114.52
833.551	14.17
833.728	55.12
833.905	81.75
834.082	-57.51
834.259	28.5
834.436	149.33
834.612	61.27
834.789	89.94
834.966	104.28
835.143	48.98
835.319	73.56
835.496	108.37
835.673	89.94
835.85	188.24
836.026	65.36
836.203	147.28
836.38	139.09
836.556	-6.31
836.733	-45.23
836.909	126.8
837.086	98.13
837.262	26.45
837.439	46.93
837.616	122.71
837.792	18.26
837.968	-6.31
838.145	20.31
838.321	65.36
838.498	32.6
838.674	141.14
838.851	130.9
839.027	-2.22
839.203	59.22
839.38	110.42
839.556	44.88
839.732	83.8
839.909	65.36
840.085	89.94
840.261	-61.61
840.437	10.07
840.614	18.26
840.79	153.43
840.966	38.74
841.142	104.28
841.318	-2.22
841.494	79.7
841.671	51.03
841.847	16.21
842.023	1.88
842.199	141.14
842.375	108.37
842.551	8.02
842.727	22.36
842.903	153.43
843.079	8.02
843.255	44.88
843.431	63.32
843.607	85.84
843.783	-45.23
843.959	85.84
844.134	-10.41
844.31	28.5
844.486	-4.27
844.662	-6.31
844.838	18.26
845.013	-28.84
845.189	67.41
845.365	40.79
845.541	65.36
845.716	28.5
845.892	36.69
846.068	12.12
846.244	1.88
846.419	57.17
846.595	28.5
846.77	-30.89
846.946	46.93
847.122	5.97
847.297	-10.41
847.473	71.51
847.648	-26.79
847.824	77.65
847.999	51.03
848.175	-71.85
848.35	75.6
848.526	73.56
848.701	73.56
848.876	63.32
849.052	81.75
849.227	51.03
849.403	12.12
849.578	-22.7
849.753	46.93
849.929	16.21
850.104	38.74
850.279	10.07
850.454	32.6
850.63	12.12
850.805	102.23
850.98	40.79
851.155	36.69
851.33	46.93
851.505	-6.31
851.681	73.56
851.856	1.88
852.031	118.61
852.206	-41.13
852.381	-75.95
852.556	18.26
852.731	-16.55
852.906	-2.22
853.081	30.55
853.256	38.74
853.431	81.75
853.606	28.5
853.781	-26.79
853.956	-51.37
854.131	1.88
854.305	-61.61
854.48	28.5
854.655	-75.95
854.83	-8.36
855.005	30.55
855.18	-49.32
855.354	-0.17
855.529	44.88
855.704	-77.99
855.879	1.88
856.053	-4.27
856.228	61.27
856.403	-34.99
856.577	61.27
856.752	22.36
856.926	-86.19
857.101	42.84
857.276	-49.32
857.45	-32.94
857.625	20.31
857.799	-6.31
857.974	-47.27
858.148	-43.18
858.323	18.26
858.497	-51.37
858.672	-12.46
858.846	-0.17
859.02	87.89
859.195	-61.61
859.369	-6.31
859.543	-18.6
859.718	-59.56
859.892	40.79
860.066	-43.18
860.241	-18.6
860.415	-12.46
860.589	53.08
860.763	-59.56
860.938	14.17
861.112	55.12
861.286	-98.47
861.46	32.6
861.634	22.36
861.808	22.36
861.982	36.69
862.157	-0.17
862.331	-84.14
862.505	28.5
862.679	-47.27
862.853	-41.13
863.027	-2.22
863.201	16.21
863.375	-18.6
863.549	-43.18
863.722	-10.41
863.896	114.52
864.07	-34.99
864.244	73.56
864.418	-12.46
864.592	12.12
864.766	5.97
864.939	36.69
865.113	-10.41
865.287	83.8
865.461	-30.89
865.634	1.88
865.808	8.02
865.982	48.98
866.156	42.84
866.329	-14.51
866.503	-57.51
866.676	-10.41
866.85	12.12
867.024	-63.66
867.197	24.4
867.371	-0.17
867.544	57.17
867.718	-53.42
867.891	34.64
868.065	-26.79
868.238	-12.46
868.412	67.41
868.585	-28.84
868.759	-8.36
868.932	-49.32
869.105	-8.36
869.279	8.02
869.452	-10.41
869.625	-59.56
869.799	-2.22
869.972	-75.95
870.145	46.93
870.319	-14.51
870.492	-26.79
870.665	-39.08
870.838	12.12
871.011	-90.28
871.185	-61.61
871.358	-53.42
871.531	-30.89
871.704	12.12
871.877	-51.37
872.05	44.88
872.223	-96.43
872.396	3.93
872.569	48.98
872.742	-41.13
872.915	44.88
873.088	-22.7
873.261	-20.65
873.434	51.03
873.607	8.02
873.78	40.79
873.953	-57.51
874.126	42.84
874.299	-30.89
874.471	-41.13
874.644	-22.7
874.817	12.12
874.99	57.17
875.163	34.64
875.335	-49.32
875.508	36.69
875.681	30.55
875.853	-32.94
876.026	-47.27
876.199	28.5
876.371	12.12
876.544	-67.75
876.717	26.45
876.889	-59.56
877.062	1.88
877.234	-67.75
877.407	-47.27
877.579	8.02
877.752	59.22
877.924	-22.7
878.097	5.97
878.269	-32.94
878.442	26.45
878.614	-18.6
878.786	8.02
878.959	-20.65
879.131	-14.51
879.303	-77.99
879.476	-6.31
879.648	24.4
879.82	46.93
879.993	-0.17
880.165	-59.56
880.337	1.88
880.509	-75.95
880.681	-159.91
880.854	-28.84
881.026	18.26
881.198	83.8
881.37	38.74
881.542	-14.51
881.714	-37.03
881.886	65.36
882.058	-34.99
882.23	-16.55
882.402	-24.75
882.574	-63.66
882.746	-16.55
882.918	67.41
883.09	-69.8
883.262	-32.94
883.434	5.97
883.606	-47.27
883.778	-34.99
883.95	46.93
884.122	-24.75
884.293	30.55
884.465	-20.65
884.637	-92.33
884.809	-55.47
884.98	24.4
885.152	12.12
885.324	5.97
885.496	-57.51
885.667	-16.55
885.839	12.12
886.011	77.65
886.182	3.93
886.354	-8.36
886.525	-4.27
886.697	40.79
886.869	-55.47
887.04	-37.03
887.212	59.22
887.383	106.32
887.555	-43.18
887.726	-53.42
887.897	-26.79
888.069	3.93
888.24	16.21
888.412	-37.03
888.583	-39.08
888.754	32.6
888.926	-47.27
889.097	-37.03
889.268	-73.9
889.44	20.31
889.611	-92.33
889.782	-55.47
889.953	-49.32
890.125	139.09
890.296	-39.08
890.467	-18.6
890.638	-108.71
890.809	-24.75
890.98	-90.28
891.151	1.88
891.323	28.5
891.494	5.97
891.665	-98.47
891.836	-86.19
892.007	28.5
892.178	38.74
892.349	38.74
892.52	-90.28
892.691	-6.31
892.862	-37.03
893.032	-43.18
893.203	61.27
893.374	-2.22
893.545	-0.17
893.716	12.12
893.887	-34.99
894.057	3.93
894.228	-26.79
894.399	-2.22
894.57	71.51
894.74	-51.37
894.911	59.22
895.082	-86.19
895.253	-16.55
895.423	-22.7
895.594	46.93
895.764	-71.85
895.935	5.97
896.106	-65.71
896.276	3.93
896.447	-43.18
896.617	-32.94
896.788	-30.89
896.958	10.07
897.129	-47.27
897.299	-43.18
897.47	-18.6
897.64	44.88
897.81	-69.8
897.981	-16.55
898.151	-10.41
898.322	91.99
898.492	40.79
898.662	-28.84
898.832	-2.22
899.003	3.93
899.173	3.93
899.343	-55.47
899.513	-26.79
