Data from USB4F104151__18__12-11-38-410.txt Node

Date: Fri Mar 14 12:11:38 EDT 2025
User: louis
Spectrometer: USB4F10415
Trigger mode: 4
Integration Time (sec): 5.000000E-2
Scans to average: 1
Electric dark correction enabled: true
Nonlinearity correction enabled: false
Boxcar width: 0
XAxis mode: Wavelengths
Number of Pixels in Spectrum: 3648
>>>>>Begin Spectral Data<<<<<
178.204	-173.05
178.424	-173.05
178.644	-173.05
178.864	-246.78
179.084	-238.59
179.304	-1.02
179.524	80.89
179.744	-46.08
179.964	11.26
180.184	-9.22
180.404	-76.8
180.624	-11.26
180.844	39.94
181.064	-21.5
181.283	31.74
181.503	-15.36
181.723	17.41
181.943	-76.8
182.163	111.61
182.383	17.41
182.602	-5.12
182.822	41.98
183.042	103.42
183.262	19.46
183.482	-19.46
183.701	-60.42
183.921	-84.99
184.141	48.13
184.361	17.41
184.58	54.27
184.8	-15.36
185.02	-17.41
185.239	37.89
185.459	-48.13
185.679	23.55
185.898	-89.09
186.118	33.79
186.338	-9.22
186.557	29.7
186.777	-5.12
186.997	7.17
187.216	44.03
187.436	70.65
187.655	33.79
187.875	15.36
188.095	3.07
188.314	39.94
188.534	33.79
188.753	-13.31
188.973	15.36
189.192	99.33
189.412	33.79
189.631	3.07
189.851	-15.36
190.07	64.51
190.29	-91.13
190.509	-15.36
190.729	3.07
190.948	1.02
191.168	164.86
191.387	95.23
191.607	-52.22
191.826	46.08
192.045	39.94
192.265	-25.6
192.484	37.89
192.704	-35.84
192.923	-62.46
193.142	164.86
193.362	107.52
193.581	111.61
193.8	72.7
194.02	29.7
194.239	50.18
194.458	50.18
194.678	-13.31
194.897	5.12
195.116	31.74
195.335	33.79
195.555	9.22
195.774	-15.36
195.993	78.85
196.212	-35.84
196.432	-58.37
196.651	5.12
196.87	-33.79
197.089	130.05
197.308	5.12
197.528	-15.36
197.747	3.07
197.966	13.31
198.185	-15.36
198.404	5.12
198.623	80.89
198.842	21.5
199.062	87.04
199.281	23.55
199.5	-23.55
199.719	70.65
199.938	-17.41
200.157	17.41
200.376	54.27
200.595	11.26
200.814	33.79
201.033	-33.79
201.252	60.42
201.471	19.46
201.69	72.7
201.909	17.41
202.128	48.13
202.347	31.74
202.566	-5.12
202.785	-3.07
203.004	-103.42
203.223	181.25
203.442	11.26
203.661	-60.42
203.879	39.94
204.098	50.18
204.317	-33.79
204.536	62.46
204.755	70.65
204.974	56.32
205.193	39.94
205.411	89.09
205.63	66.56
205.849	84.99
206.068	21.5
206.287	82.94
206.505	39.94
206.724	-82.94
206.943	56.32
207.162	-37.89
207.381	-11.26
207.599	31.74
207.818	37.89
208.037	23.55
208.255	-46.08
208.474	44.03
208.693	60.42
208.911	15.36
209.13	-21.5
209.349	103.42
209.567	17.41
209.786	31.74
210.005	46.08
210.223	-13.31
210.442	-13.31
210.661	-27.65
210.879	25.6
211.098	-19.46
211.316	9.22
211.535	101.37
211.753	13.31
211.972	11.26
212.191	3.07
212.409	-76.8
212.628	25.6
212.846	39.94
213.065	19.46
213.283	84.99
213.502	-9.22
213.72	-52.22
213.938	23.55
214.157	19.46
214.375	17.41
214.594	27.65
214.812	-7.17
215.031	50.18
215.249	3.07
215.467	-9.22
215.686	68.61
215.904	74.75
216.122	15.36
216.341	58.37
216.559	35.84
216.778	-11.26
216.996	25.6
217.214	21.5
217.432	25.6
217.651	17.41
217.869	17.41
218.087	-3.07
218.306	23.55
218.524	15.36
218.742	5.12
218.96	109.57
219.179	13.31
219.397	5.12
219.615	89.09
219.833	33.79
220.051	5.12
220.27	39.94
220.488	37.89
220.706	-33.79
220.924	-52.22
221.142	15.36
221.36	5.12
221.578	-37.89
221.796	80.89
222.015	54.27
222.233	21.5
222.451	70.65
222.669	-23.55
222.887	56.32
223.105	52.22
223.323	-11.26
223.541	1.02
223.759	-25.6
223.977	-11.26
224.195	123.9
224.413	31.74
224.631	50.18
224.849	44.03
225.067	39.94
225.285	-39.94
225.503	-31.74
225.721	-50.18
225.939	-11.26
226.157	-39.94
226.375	78.85
226.592	-68.61
226.81	17.41
227.028	27.65
227.246	89.09
227.464	1.02
227.682	48.13
227.9	37.89
228.117	70.65
228.335	17.41
228.553	-60.42
228.771	-62.46
228.989	64.51
229.206	82.94
229.424	-31.74
229.642	-11.26
229.86	54.27
230.077	76.8
230.295	-50.18
230.513	70.65
230.731	31.74
230.948	78.85
231.166	99.33
231.384	-48.13
231.601	-33.79
231.819	35.84
232.037	-15.36
232.254	-91.13
232.472	-15.36
232.689	-13.31
232.907	1.02
233.125	-54.27
233.342	-3.07
233.56	-25.6
233.777	-5.12
233.995	72.7
234.213	76.8
234.43	1.02
234.648	-46.08
234.865	-33.79
235.083	125.95
235.3	25.6
235.518	74.75
235.735	84.99
235.953	1.02
236.17	3.07
236.388	7.17
236.605	56.32
236.822	46.08
237.04	66.56
237.257	-44.03
237.475	-1.02
237.692	41.98
237.909	-23.55
238.127	1.02
238.344	33.79
238.562	37.89
238.779	-62.46
238.996	13.31
239.214	11.26
239.431	78.85
239.648	-23.55
239.865	-17.41
240.083	56.32
240.3	-23.55
240.517	-72.7
240.735	-15.36
240.952	74.75
241.169	91.13
241.386	-50.18
241.603	1.02
241.821	-41.98
242.038	48.13
242.255	113.66
242.472	-1.02
242.689	31.74
242.907	19.46
243.124	62.46
243.341	-52.22
243.558	-48.13
243.775	-31.74
243.992	-70.65
244.209	-15.36
244.426	95.23
244.643	64.51
244.86	1.02
245.078	25.6
245.295	78.85
245.512	3.07
245.729	-19.46
245.946	19.46
246.163	54.27
246.38	-17.41
246.597	23.55
246.814	33.79
247.031	1.02
247.248	54.27
247.464	23.55
247.681	41.98
247.898	-58.37
248.115	105.47
248.332	-33.79
248.549	62.46
248.766	66.56
248.983	103.42
249.2	-1.02
249.417	46.08
249.633	11.26
249.85	1.02
250.067	-31.74
250.284	17.41
250.501	5.12
250.717	7.17
250.934	37.89
251.151	82.94
251.368	54.27
251.585	41.98
251.801	46.08
252.018	-50.18
252.235	66.56
252.451	-3.07
252.668	-58.37
252.885	-31.74
253.102	84.99
253.318	7.17
253.535	-7.17
253.752	11.26
253.968	-37.89
254.185	-15.36
254.401	-9.22
254.618	33.79
254.835	-54.27
255.051	93.18
255.268	15.36
255.484	21.5
255.701	35.84
255.917	56.32
256.134	-58.37
256.351	-11.26
256.567	-87.04
256.784	78.85
257	-17.41
257.217	44.03
257.433	101.37
257.65	62.46
257.866	21.5
258.082	-72.7
258.299	-56.32
258.515	9.22
258.732	21.5
258.948	-72.7
259.165	76.8
259.381	19.46
259.597	-7.17
259.814	27.65
260.03	-19.46
260.246	-25.6
260.463	39.94
260.679	64.51
260.895	21.5
261.112	44.03
261.328	15.36
261.544	-33.79
261.761	93.18
261.977	-31.74
262.193	-15.36
262.409	-11.26
262.626	-39.94
262.842	19.46
263.058	-27.65
263.274	-3.07
263.49	35.84
263.707	13.31
263.923	21.5
264.139	-29.7
264.355	-37.89
264.571	17.41
264.787	1.02
265.004	-1.02
265.22	5.12
265.436	41.98
265.652	-56.32
265.868	70.65
266.084	-21.5
266.3	39.94
266.516	11.26
266.732	60.42
266.948	-19.46
267.164	11.26
267.38	31.74
267.596	56.32
267.812	113.66
268.028	82.94
268.244	13.31
268.46	39.94
268.676	-11.26
268.892	52.22
269.108	21.5
269.324	-25.6
269.54	-50.18
269.756	33.79
269.972	3.07
270.188	17.41
270.403	-41.98
270.619	-33.79
270.835	11.26
271.051	-19.46
271.267	15.36
271.483	97.28
271.698	46.08
271.914	52.22
272.13	5.12
272.346	29.7
272.562	-3.07
272.777	89.09
272.993	46.08
273.209	-60.42
273.425	35.84
273.64	-46.08
273.856	9.22
274.072	-3.07
274.287	7.17
274.503	23.55
274.719	-33.79
274.934	9.22
275.15	-9.22
275.366	1.02
275.581	-1.02
275.797	70.65
276.012	33.79
276.228	-41.98
276.444	27.65
276.659	130.05
276.875	-50.18
277.09	54.27
277.306	29.7
277.521	-29.7
277.737	-5.12
277.952	87.04
278.168	39.94
278.383	74.75
278.599	25.6
278.814	54.27
279.03	-48.13
279.245	101.37
279.461	41.98
279.676	25.6
279.892	44.03
280.107	-5.12
280.322	-72.7
280.538	-44.03
280.753	-74.75
280.969	89.09
281.184	-5.12
281.399	72.7
281.615	41.98
281.83	-60.42
282.045	37.89
282.26	-27.65
282.476	25.6
282.691	148.48
282.906	-15.36
283.122	13.31
283.337	-62.46
283.552	3.07
283.767	-25.6
283.983	52.22
284.198	31.74
284.413	11.26
284.628	-103.42
284.843	33.79
285.058	54.27
285.274	-76.8
285.489	-80.89
285.704	44.03
285.919	-56.32
286.134	-3.07
286.349	5.12
286.564	-27.65
286.779	37.89
286.995	-25.6
287.21	-58.37
287.425	3.07
287.64	-11.26
287.855	25.6
288.07	-44.03
288.285	15.36
288.5	23.55
288.715	72.7
288.93	-27.65
289.145	-46.08
289.36	39.94
289.575	-1.02
289.79	44.03
290.004	-3.07
290.219	39.94
290.434	-41.98
290.649	-37.89
290.864	5.12
291.079	33.79
291.294	19.46
291.509	76.8
291.724	-29.7
291.938	-70.65
292.153	50.18
292.368	-46.08
292.583	-25.6
292.798	29.7
293.012	39.94
293.227	-56.32
293.442	13.31
293.657	78.85
293.871	132.09
294.086	39.94
294.301	103.42
294.516	52.22
294.73	17.41
294.945	21.5
295.16	-1.02
295.374	7.17
295.589	72.7
295.804	48.13
296.018	-1.02
296.233	93.18
296.447	-29.7
296.662	7.17
296.877	125.95
297.091	-17.41
297.306	3.07
297.52	-48.13
297.735	66.56
297.949	-13.31
298.164	7.17
298.378	-41.98
298.593	-76.8
298.807	27.65
299.022	15.36
299.236	13.31
299.451	21.5
299.665	7.17
299.88	39.94
300.094	33.79
300.309	19.46
300.523	5.12
300.737	64.51
300.952	64.51
301.166	74.75
301.381	-41.98
301.595	-37.89
301.809	5.12
302.024	17.41
302.238	-3.07
302.452	148.48
302.667	-17.41
302.881	19.46
303.095	25.6
303.309	35.84
303.524	52.22
303.738	60.42
303.952	-84.99
304.166	-25.6
304.381	-119.81
304.595	44.03
304.809	-25.6
305.023	-31.74
305.237	-27.65
305.452	-3.07
305.666	-5.12
305.88	13.31
306.094	46.08
306.308	87.04
306.522	93.18
306.736	13.31
306.95	-9.22
307.164	-39.94
307.379	41.98
307.593	52.22
307.807	95.23
308.021	-35.84
308.235	-1.02
308.449	-72.7
308.663	35.84
308.877	128
309.091	41.98
309.305	-29.7
309.519	15.36
309.733	87.04
309.947	-74.75
310.161	39.94
310.374	33.79
310.588	58.37
310.802	-56.32
311.016	-19.46
311.23	11.26
311.444	-7.17
311.658	68.61
311.872	52.22
312.085	62.46
312.299	41.98
312.513	119.81
312.727	-7.17
312.941	19.46
313.154	56.32
313.368	-9.22
313.582	21.5
313.796	78.85
314.009	-54.27
314.223	56.32
314.437	-15.36
314.651	-33.79
314.864	-64.51
315.078	-21.5
315.292	-27.65
315.505	-39.94
315.719	74.75
315.933	50.18
316.146	35.84
316.36	-72.7
316.573	9.22
316.787	-5.12
317.001	72.7
317.214	-27.65
317.428	33.79
317.641	-76.8
317.855	-41.98
318.068	31.74
318.282	103.42
318.495	66.56
318.709	31.74
318.922	-80.89
319.136	93.18
319.349	105.47
319.563	-31.74
319.776	13.31
319.99	-3.07
320.203	56.32
320.417	-7.17
320.63	82.94
320.843	66.56
321.057	-5.12
321.27	7.17
321.483	27.65
321.697	64.51
321.91	50.18
322.124	84.99
322.337	29.7
322.55	-46.08
322.763	66.56
322.977	46.08
323.19	-35.84
323.403	-31.74
323.617	48.13
323.83	72.7
324.043	31.74
324.256	-1.02
324.469	-66.56
324.683	136.19
324.896	-9.22
325.109	5.12
325.322	-5.12
325.535	39.94
325.748	27.65
325.962	-39.94
326.175	7.17
326.388	9.22
326.601	17.41
326.814	70.65
327.027	9.22
327.24	72.7
327.453	-13.31
327.666	111.61
327.879	23.55
328.092	54.27
328.305	29.7
328.518	-31.74
328.731	-91.13
328.944	-31.74
329.157	50.18
329.37	-70.65
329.583	31.74
329.796	70.65
330.009	-87.04
330.222	50.18
330.435	78.85
330.648	29.7
330.861	1.02
331.073	41.98
331.286	13.31
331.499	-21.5
331.712	-19.46
331.925	17.41
332.138	-23.55
332.35	-21.5
332.563	-46.08
332.776	64.51
332.989	-21.5
333.202	-66.56
333.414	-56.32
333.627	-46.08
333.84	52.22
334.053	29.7
334.265	56.32
334.478	-33.79
334.691	-5.12
334.903	64.51
335.116	-109.57
335.329	-27.65
335.541	23.55
335.754	50.18
335.966	39.94
336.179	91.13
336.392	33.79
336.604	62.46
336.817	44.03
337.029	21.5
337.242	80.89
337.454	44.03
337.667	-5.12
337.88	-1.02
338.092	52.22
338.305	70.65
338.517	-39.94
338.729	89.09
338.942	105.47
339.154	58.37
339.367	5.12
339.579	56.32
339.792	-21.5
340.004	70.65
340.217	37.89
340.429	35.84
340.641	31.74
340.854	-27.65
341.066	15.36
341.278	50.18
341.491	3.07
341.703	54.27
341.915	-103.42
342.128	60.42
342.34	-60.42
342.552	-70.65
342.764	7.17
342.977	33.79
343.189	-35.84
343.401	21.5
343.613	-31.74
343.826	-19.46
344.038	-76.8
344.25	-15.36
344.462	-27.65
344.674	76.8
344.886	3.07
345.099	31.74
345.311	15.36
345.523	-41.98
345.735	1.02
345.947	-50.18
346.159	-1.02
346.371	15.36
346.583	3.07
346.795	134.14
347.007	7.17
347.219	25.6
347.431	-5.12
347.643	27.65
347.855	-35.84
348.067	39.94
348.279	-29.7
348.491	62.46
348.703	93.18
348.915	7.17
349.127	-44.03
349.339	60.42
349.551	-17.41
349.763	27.65
349.975	-7.17
350.187	103.42
350.399	80.89
350.61	-70.65
350.822	19.46
351.034	64.51
351.246	5.12
351.458	-15.36
351.669	13.31
351.881	89.09
352.093	39.94
352.305	111.61
352.517	-7.17
352.728	62.46
352.94	-70.65
353.152	25.6
353.363	11.26
353.575	-60.42
353.787	113.66
353.999	13.31
354.21	128
354.422	-25.6
354.633	31.74
354.845	-21.5
355.057	9.22
355.268	1.02
355.48	95.23
355.692	-7.17
355.903	46.08
356.115	-82.94
356.326	-3.07
356.538	80.89
356.749	50.18
356.961	121.85
357.172	-23.55
357.384	-74.75
357.595	97.28
357.807	56.32
358.018	-21.5
358.23	41.98
358.441	93.18
358.653	64.51
358.864	23.55
359.075	15.36
359.287	72.7
359.498	39.94
359.709	78.85
359.921	11.26
360.132	95.23
360.344	13.31
360.555	-23.55
360.766	-9.22
360.977	-17.41
361.189	72.7
361.4	-19.46
361.611	103.42
361.823	35.84
362.034	37.89
362.245	15.36
362.456	-66.56
362.667	89.09
362.879	-50.18
363.09	19.46
363.301	13.31
363.512	-66.56
363.723	-31.74
363.935	19.46
364.146	84.99
364.357	-25.6
364.568	19.46
364.779	1.02
364.99	158.72
365.201	39.94
365.412	46.08
365.623	-13.31
365.834	60.42
366.045	7.17
366.256	56.32
366.467	60.42
366.678	-52.22
366.889	44.03
367.1	46.08
367.311	87.04
367.522	-5.12
367.733	56.32
367.944	105.47
368.155	41.98
368.366	15.36
368.577	60.42
368.788	101.37
368.999	44.03
369.209	35.84
369.42	121.85
369.631	76.8
369.842	5.12
370.053	31.74
370.264	68.61
370.474	13.31
370.685	21.5
370.896	33.79
371.107	78.85
371.317	7.17
371.528	5.12
371.739	46.08
371.95	23.55
372.16	50.18
372.371	-17.41
372.582	-3.07
372.792	33.79
373.003	52.22
373.214	7.17
373.424	50.18
373.635	-46.08
373.846	60.42
374.056	-19.46
374.267	-1.02
374.477	56.32
374.688	19.46
374.898	29.7
375.109	5.12
375.319	1.02
375.53	70.65
375.74	-66.56
375.951	-31.74
376.161	17.41
376.372	95.23
376.582	15.36
376.793	54.27
377.003	11.26
377.214	-33.79
377.424	17.41
377.635	37.89
377.845	-3.07
378.055	64.51
378.266	-37.89
378.476	9.22
378.686	50.18
378.897	44.03
379.107	60.42
379.317	37.89
379.528	3.07
379.738	41.98
379.948	-35.84
380.158	-27.65
380.369	-27.65
380.579	74.75
380.789	-52.22
380.999	-3.07
381.21	70.65
381.42	162.81
381.63	31.74
381.84	41.98
382.05	-1.02
382.261	33.79
382.471	101.37
382.681	56.32
382.891	93.18
383.101	25.6
383.311	5.12
383.521	21.5
383.731	119.81
383.941	-35.84
384.151	44.03
384.361	37.89
384.571	56.32
384.781	52.22
384.991	82.94
385.201	68.61
385.411	70.65
385.621	97.28
385.831	-58.37
386.041	29.7
386.251	29.7
386.461	99.33
386.671	-9.22
386.881	35.84
387.091	91.13
387.301	60.42
387.511	39.94
387.72	74.75
387.93	132.09
388.14	-76.8
388.35	23.55
388.56	35.84
388.769	76.8
388.979	74.75
389.189	1.02
389.399	33.79
389.609	68.61
389.818	60.42
390.028	-7.17
390.238	48.13
390.447	105.47
390.657	60.42
390.867	-19.46
391.076	-19.46
391.286	23.55
391.496	68.61
391.705	52.22
391.915	84.99
392.125	125.95
392.334	15.36
392.544	109.57
392.753	15.36
392.963	21.5
393.172	15.36
393.382	-3.07
393.591	107.52
393.801	-89.09
394.01	123.9
394.22	3.07
394.429	19.46
394.639	-31.74
394.848	-17.41
395.058	29.7
395.267	1.02
395.477	76.8
395.686	44.03
395.895	89.09
396.105	95.23
396.314	29.7
396.524	19.46
396.733	-5.12
396.942	103.42
397.152	78.85
397.361	64.51
397.57	48.13
397.78	-11.26
397.989	46.08
398.198	97.28
398.407	99.33
398.617	70.65
398.826	-44.03
399.035	19.46
399.244	84.99
399.453	76.8
399.663	-11.26
399.872	41.98
400.081	82.94
400.29	89.09
400.499	66.56
400.708	95.23
400.917	-25.6
401.127	80.89
401.336	60.42
401.545	105.47
401.754	37.89
401.963	82.94
402.172	-11.26
402.381	23.55
402.59	70.65
402.799	70.65
403.008	97.28
403.217	23.55
403.426	164.86
403.635	29.7
403.844	70.65
404.053	60.42
404.262	70.65
404.471	168.96
404.68	138.24
404.888	82.94
405.097	80.89
405.306	72.7
405.515	105.47
405.724	29.7
405.933	179.2
406.142	87.04
406.35	191.49
406.559	41.98
406.768	89.09
406.977	134.14
407.185	64.51
407.394	123.9
407.603	111.61
407.812	56.32
408.02	199.68
408.229	156.67
408.438	154.62
408.646	138.24
408.855	134.14
409.064	164.86
409.272	138.24
409.481	152.57
409.69	97.28
409.898	142.33
410.107	105.47
410.315	183.29
410.524	195.58
410.733	211.96
410.941	144.38
411.15	250.88
411.358	277.5
411.567	281.6
411.775	175.1
411.984	361.47
412.192	254.97
412.401	279.55
412.609	248.83
412.818	357.37
413.026	355.32
413.234	324.6
413.443	320.51
413.651	359.42
413.86	265.21
414.068	373.75
414.276	394.23
414.485	353.27
414.693	414.71
414.901	529.4
415.11	457.72
415.318	377.85
415.526	377.85
415.734	535.54
415.943	451.58
416.151	545.78
416.359	515.06
416.567	603.13
416.776	480.25
416.984	539.64
417.192	594.93
417.4	531.45
417.608	523.26
417.817	588.79
418.025	674.81
418.233	842.74
418.441	676.85
418.649	615.41
418.857	803.83
419.065	777.2
419.273	744.44
419.481	926.71
419.689	883.7
419.897	873.46
420.105	953.33
420.313	961.52
420.521	920.56
420.729	1033.2
420.937	1025.01
421.145	1147.89
421.353	1125.36
421.561	1201.13
421.769	1166.32
421.977	1135.6
422.185	1235.95
422.393	1283.05
422.601	1381.35
422.809	1354.73
423.017	1395.69
423.224	1465.32
423.432	1627.11
423.64	1524.71
423.848	1756.13
424.056	1604.58
424.263	1858.53
424.471	1663.97
424.679	1833.96
424.887	1850.34
425.094	1928.16
425.302	2005.99
425.51	1960.93
425.718	2020.32
425.925	2106.34
426.133	2083.81
426.341	2300.89
426.548	2284.51
426.756	2276.32
426.964	2393.05
427.171	2497.5
427.379	2567.13
427.586	2636.76
427.794	2786.26
428.001	2806.74
428.209	2935.76
428.417	3017.68
428.624	3173.33
428.832	3148.75
429.039	3187.66
429.247	3150.8
429.454	3423.18
429.662	3867.59
429.869	3341.26
430.076	3730.38
430.284	3705.8
430.491	3748.81
430.699	3902.4
430.906	3937.22
431.114	3836.87
431.321	4148.16
431.528	4025.28
431.736	4481.98
431.943	4735.93
432.15	4496.32
432.358	4586.43
432.565	4776.89
432.772	4651.96
432.979	5133.23
433.187	5166
433.394	5086.13
433.601	5372.85
433.808	5653.42
434.016	5493.68
434.223	5749.67
434.43	6040.48
434.637	6056.87
434.844	6198.18
435.052	6497.18
435.259	6517.66
435.466	6630.3
435.673	6306.72
435.88	6945.69
436.087	7181.2
436.294	7183.25
436.501	6847.38
436.708	7130
436.915	7414.67
437.122	7670.67
437.329	7596.94
437.537	7981.96
437.743	8084.36
437.95	7902.09
438.157	8651.64
438.364	8631.16
438.571	8739.71
438.778	8762.23
438.985	9622.38
439.192	9220.98
439.399	9603.95
439.606	9098.1
439.813	9694.06
440.02	10367.84
440.227	10269.54
440.433	10146.66
440.64	10394.47
440.847	10412.9
441.054	10646.37
441.261	11156.31
441.467	11184.98
441.674	11461.46
441.881	11756.36
442.088	11653.97
442.294	11580.24
442.501	11909.96
442.708	12331.84
442.914	12718.91
443.121	13183.8
443.328	12974.91
443.534	13646.64
443.741	13126.46
443.948	13140.79
444.154	14215.98
444.361	14140.2
444.568	14144.3
444.774	14246.69
444.981	14424.87
445.187	14924.57
445.394	15455
445.6	15199
445.807	16624.39
446.013	15899.41
446.22	16177.93
446.426	17068.8
446.633	17169.15
446.839	17644.27
447.046	17191.67
447.252	17941.23
447.459	17935.09
447.665	17765.1
447.871	18412.26
448.078	19493.59
448.284	18569.96
448.491	19026.65
448.697	19751.63
448.903	20224.72
449.11	20075.21
449.316	19841.75
449.522	20484.81
449.728	20806.34
449.935	20769.48
450.141	20503.24
450.347	21068.48
450.553	20802.24
450.76	20896.45
450.966	21631.67
451.172	21508.79
451.378	21850.8
451.584	21551.8
451.791	21961.39
451.997	22137.52
452.203	22350.51
452.409	22334.12
452.615	22438.57
452.821	21426.87
453.027	20953.79
453.233	22211.25
453.44	21357.24
453.646	21713.59
453.852	21951.15
454.058	21836.47
454.264	21504.7
454.47	21887.67
454.676	21347
454.882	22020.78
455.088	20136.65
455.294	20419.27
455.5	20761.28
455.705	20935.36
455.911	20124.36
456.117	19903.18
456.323	19391.19
456.529	18586.34
456.735	19229.4
456.941	18815.71
457.147	18471.65
457.352	17842.93
457.558	17658.61
457.764	17740.53
457.97	17251.06
458.176	16751.36
458.381	17062.65
458.587	16268.04
458.793	16243.46
458.999	15237.91
459.204	16292.62
459.41	15862.54
459.616	14635.81
459.821	14836.51
460.027	14766.88
460.233	14598.95
460.438	13925.16
460.644	14072.62
460.85	13351.73
461.055	13161.27
461.261	13060.92
461.466	12139.33
461.672	11584.34
461.878	12446.53
462.083	11905.87
462.289	11545.42
462.494	11264.85
462.7	10885.98
462.905	10543.97
463.111	11006.81
463.316	11000.66
463.522	10808.16
463.727	10705.76
463.932	10883.93
464.138	10433.38
464.343	10392.42
464.549	10326.88
464.754	10627.93
464.959	10654.56
465.165	10468.19
465.37	9943.91
465.575	9853.8
465.781	10009.45
465.986	10070.89
466.191	9855.85
466.397	9618.29
466.602	9063.29
466.807	9630.57
467.012	9626.48
467.218	9560.94
467.423	9249.65
467.628	9261.94
467.833	9855.85
468.038	9491.31
468.244	9163.64
468.449	9423.73
468.654	9317.23
468.859	9169.78
469.064	8993.65
469.269	8741.75
469.474	8876.92
469.679	9126.77
469.885	8573.82
470.09	8715.13
470.295	8668.03
470.5	8598.4
470.705	8665.98
470.91	8459.13
471.115	8237.95
471.32	8541.05
471.525	8528.77
471.73	8293.25
471.935	8094.6
472.139	7873.42
472.344	8006.53
472.549	7918.47
472.754	7768.97
472.959	7785.35
473.164	7510.93
473.369	7320.46
473.574	7695.24
473.778	7607.18
473.983	7533.45
474.188	7619.47
474.393	7328.66
474.598	7426.96
474.802	7242.64
475.007	7140.24
475.212	7113.62
475.417	6886.29
475.621	6953.88
475.826	6753.18
476.031	6663.07
476.235	6425.5
476.44	6790.04
476.645	6646.68
476.849	6718.36
477.054	6460.32
477.259	6353.82
477.463	6364.06
477.668	6296.48
477.872	6230.94
478.077	6243.23
478.282	5929.89
478.486	5981.09
478.691	5895.08
478.895	5925.8
479.1	6052.77
479.304	5923.75
479.509	5665.71
479.713	5931.94
479.918	5645.23
480.122	5682.09
480.326	5639.08
480.531	5530.54
480.735	5634.99
480.94	5583.79
481.144	5731.24
481.348	5481.39
481.553	5688.23
481.757	5397.42
481.961	5374.89
482.166	5770.15
482.37	5469.1
482.574	5432.24
482.778	5360.56
482.983	5585.83
483.187	5446.57
483.391	5563.31
483.595	5634.99
483.8	5581.74
484.004	5528.49
484.208	5473.2
484.412	5393.33
484.616	5456.81
484.821	5479.34
485.025	5356.46
485.229	5313.45
485.433	5305.26
485.637	5405.61
485.841	5256.11
486.045	5495.72
486.249	5450.67
486.453	5422
486.657	5426.09
486.861	5624.75
487.065	5370.8
487.269	5389.23
487.473	5344.17
487.677	5452.72
487.881	5499.82
488.085	5485.48
488.289	5467.05
488.493	5419.95
488.697	5553.07
488.901	5493.68
489.105	5534.64
489.309	5315.5
489.512	5632.94
489.716	5622.7
489.92	5567.4
490.124	5602.22
490.328	5604.27
490.531	5548.97
490.735	5688.23
490.939	5598.12
491.143	5657.51
491.346	5524.4
491.55	5714.86
491.754	5655.47
491.958	5755.82
492.161	5551.02
492.365	5594.03
492.569	5772.2
492.772	5813.16
492.976	5792.68
493.18	5714.86
493.383	5923.75
493.587	5823.4
493.79	5845.93
493.994	5819.3
494.197	6009.76
494.401	6024.1
494.605	5915.56
494.808	6003.62
495.012	6169.51
495.215	6165.41
495.419	6333.34
495.622	6067.11
495.825	6194.08
496.029	6204.32
496.232	6362.01
496.436	6618.01
496.639	6642.59
496.843	6562.72
497.046	6675.35
497.249	6851.48
497.453	6630.3
497.656	6785.94
497.859	6886.29
498.063	7089.04
498.266	7109.52
498.469	7007.13
498.673	6998.93
498.876	7007.13
499.079	7113.62
499.282	7252.88
499.485	7340.94
499.689	7435.15
499.892	7773.07
500.095	7603.08
500.298	7654.28
500.501	7656.33
500.705	7807.88
500.908	8002.44
501.111	8033.16
501.314	8315.78
501.517	8307.59
501.72	8381.31
501.923	8240
502.126	8491.9
502.329	8620.92
502.532	8708.99
502.735	8811.39
502.938	8778.62
503.141	9071.48
503.344	9083.77
503.547	8997.75
503.75	9106.29
503.953	9227.12
504.156	9460.59
504.359	9358.19
504.562	9509.74
504.765	9730.92
504.968	9847.66
505.17	9931.62
505.373	9958.25
505.576	10115.94
505.779	10208.1
505.982	10167.14
506.185	10556.25
506.387	10371.94
506.59	10562.4
506.793	10718.04
506.996	10808.16
507.198	11240.28
507.401	10941.27
507.604	11062.1
507.807	11432.79
508.009	11217.75
508.212	11535.18
508.415	11426.64
508.617	11735.88
508.82	11914.06
509.022	11828.04
509.225	12030.79
509.428	12180.29
509.63	12337.99
509.833	12378.95
510.035	12612.42
510.238	12655.42
510.44	12686.14
510.643	12825.4
510.845	12815.16
511.048	13048.63
511.25	13110.07
511.453	13302.58
511.655	13765.42
511.858	13476.66
512.06	13796.14
512.262	13685.55
512.465	13847.34
512.667	13814.57
512.87	14089
513.072	14117.67
513.274	14474.02
513.477	14617.38
513.679	14684.96
513.881	14549.79
514.084	14828.32
514.286	14789.41
514.488	14990.11
514.69	15280.92
514.893	15205.14
515.095	15375.13
515.297	15723.28
515.499	15670.03
515.701	15762.19
515.904	15923.98
516.106	16118.54
516.308	16073.48
516.51	16270.09
516.712	16309
516.914	16802.56
517.116	16777.98
517.318	16956.16
517.52	16888.57
517.722	17001.21
517.925	17197.82
518.127	17271.54
518.329	17314.55
518.531	17183.48
518.733	17525.49
518.935	18096.88
519.136	17650.42
519.338	18098.92
519.54	18213.61
519.742	18283.24
519.944	18426.6
520.146	18600.68
520.348	18649.83
520.55	18619.11
520.752	18752.23
520.954	19108.57
521.155	19053.28
521.357	19061.47
521.559	19401.43
521.761	19280.6
521.963	19466.97
522.164	19604.18
522.366	19571.41
522.568	19870.42
522.77	19954.38
522.971	20286.15
523.173	19804.88
523.375	19718.87
523.576	19958.48
523.778	20194
523.98	20460.23
524.181	20542.15
524.383	20538.05
524.584	20732.61
524.786	20705.99
524.988	20542.15
525.189	20925.12
525.391	20880.07
525.592	20968.13
525.794	21330.62
525.995	21148.35
526.197	20990.66
526.398	21355.19
526.6	21265.08
526.801	21193.4
527.003	21430.97
527.204	21334.71
527.406	21648.05
527.607	21521.08
527.808	21586.61
528.01	21324.47
528.211	21168.83
528.412	21764.79
528.614	21674.68
528.815	21670.58
529.016	22225.58
529.218	21605.05
529.419	21885.62
529.62	22117.04
529.822	21535.42
530.023	21934.77
530.224	22018.74
530.425	21646.01
530.626	21699.25
530.828	21592.76
531.029	22229.68
531.23	21654.2
531.431	22143.66
531.632	22172.33
531.833	21967.54
532.035	21977.78
532.236	22309.55
532.437	22223.53
532.638	22100.65
532.839	22078.13
533.04	22256.3
533.241	22026.93
533.442	22338.22
533.643	22481.58
533.844	22043.31
534.045	21861.04
534.246	22026.93
534.447	22256.3
534.648	21856.95
534.849	22203.05
535.05	21867.19
535.251	21752.5
535.451	22086.32
535.652	22086.32
535.853	21940.91
536.054	22031.02
536.255	22108.85
536.456	22141.61
536.657	22323.88
536.857	21899.95
537.058	21805.75
537.259	22065.84
537.46	21945.01
537.66	21736.12
537.861	21977.78
538.062	22039.22
538.263	21854.9
538.463	21785.27
538.664	21646.01
538.865	22125.23
539.065	22069.94
539.266	21895.86
539.466	21969.58
539.667	21777.08
539.868	22112.94
540.068	21852.85
540.269	21826.23
540.469	21787.32
540.67	21844.66
540.87	21910.19
541.071	22055.6
541.271	22039.22
541.472	22237.87
541.672	21795.51
541.873	21813.94
542.073	21629.62
542.274	21947.06
542.474	22246.06
542.675	21727.92
542.875	21846.71
543.075	22026.93
543.276	21631.67
543.476	21850.8
543.676	21549.75
543.877	21744.31
544.077	21611.19
544.277	22153.9
544.478	21815.99
544.678	21846.71
544.878	21521.08
545.078	22117.04
545.279	21471.93
545.479	21805.75
545.679	21713.59
545.879	21822.13
546.079	21992.11
546.28	21574.33
546.48	21680.82
546.68	21711.54
546.88	21709.49
547.08	21680.82
547.28	21686.97
547.48	21306.04
547.68	21803.7
547.88	21433.02
548.081	21707.44
548.281	21410.49
548.481	21586.61
548.681	21809.84
548.881	21512.89
549.081	21658.29
549.28	21775.03
549.48	21664.44
549.68	21617.33
549.88	21576.37
550.08	21461.69
550.28	21815.99
550.48	21588.66
550.68	21719.73
550.88	21590.71
551.08	21398.2
551.279	21535.42
551.479	21303.99
551.679	21457.59
551.879	21357.24
552.079	21396.15
552.278	21418.68
552.478	21977.78
552.678	21549.75
552.878	21484.22
553.077	21779.12
553.277	21193.4
553.477	21545.66
553.676	21652.15
553.876	21650.1
554.076	21551.8
554.275	21457.59
554.475	21303.99
554.674	21459.64
554.874	21664.44
555.074	21140.16
555.273	21246.65
555.473	21387.96
555.672	21064.38
555.872	21238.46
556.071	21531.32
556.271	21654.2
556.47	21342.91
556.67	21330.62
556.869	21420.73
557.068	21615.29
557.268	21322.43
557.467	21131.97
557.667	21541.56
557.866	21312.19
558.065	21232.32
558.265	21291.71
558.464	21471.93
558.663	21308.09
558.863	21088.96
559.062	21537.46
559.261	21052.09
559.461	21379.77
559.66	21043.9
559.859	20892.35
560.058	21048
560.258	21166.78
560.457	21295.8
560.656	20990.66
560.855	20951.74
561.054	21291.71
561.253	21152.45
561.453	20957.89
561.652	21027.52
561.851	20918.98
562.05	20835.01
562.249	20966.08
562.448	21123.77
562.647	21248.7
562.846	21025.47
563.045	21220.03
563.244	20875.97
563.443	21297.85
563.642	20841.15
563.841	21117.63
564.04	20957.89
564.239	21064.38
564.438	20757.19
564.637	20691.65
564.836	21246.65
565.035	20916.93
565.234	20961.98
565.432	20718.28
565.631	21000.9
565.83	21023.42
566.029	20904.64
566.228	21064.38
566.427	20886.21
566.625	20560.58
566.824	20720.32
567.023	20525.77
567.222	20417.22
567.42	20837.06
567.619	20810.43
567.818	20869.83
568.016	20597.45
568.215	20857.54
568.414	20581.06
568.612	20972.22
568.811	20394.7
569.01	20617.93
569.208	20388.55
569.407	20630.21
569.605	20757.19
569.804	20493
570.002	20527.81
570.201	20806.34
570.4	20239.05
570.598	20445.9
570.797	20288.2
570.995	20318.92
571.193	20304.59
571.392	20357.83
571.59	20286.15
571.789	20335.31
571.987	20341.45
572.186	20333.26
572.384	20099.79
572.582	20171.47
572.781	20253.39
572.979	20345.55
573.177	20134.6
573.376	20464.33
573.574	20148.94
573.772	20253.39
573.971	19876.56
574.169	20003.53
574.367	19925.71
574.565	19876.56
574.763	19639
574.962	19800.79
575.16	19911.38
575.358	19815.12
575.556	19727.06
575.754	19935.95
575.952	19778.26
576.151	19770.07
576.349	19538.65
576.547	19731.15
576.745	19755.73
576.943	19505.88
577.141	19708.63
577.339	19782.35
577.537	19821.27
577.735	19790.55
577.933	19491.54
578.131	19589.85
578.329	19471.06
578.527	19348.18
578.725	19391.19
578.923	19571.41
579.121	19350.23
579.319	19122.91
579.516	19563.22
579.714	19374.81
579.912	19208.92
580.11	19374.81
580.308	19110.62
580.506	19221.21
580.704	18930.4
580.901	19225.31
581.099	19026.65
581.297	19055.33
581.495	18993.89
581.692	19241.69
581.89	18838.24
582.088	19178.2
582.285	18967.26
582.483	18864.86
582.681	18879.2
582.878	18680.55
583.076	18621.16
583.274	19290.84
583.471	18686.69
583.669	18766.56
583.866	18615.01
584.064	18920.16
584.262	18795.23
584.459	18803.43
584.657	18668.26
584.854	18737.89
585.052	18279.15
585.249	18719.46
585.447	18516.71
585.644	18346.73
585.841	18504.42
586.039	18576.1
586.236	18402.02
586.434	18279.15
586.631	18209.51
586.828	18490.09
587.026	18289.38
587.223	18383.59
587.42	17939.18
587.618	18402.02
587.815	18166.51
588.012	18074.35
588.21	18078.44
588.407	18283.24
588.604	17836.78
588.801	17988.33
588.999	17738.48
589.196	17953.52
589.393	17785.58
589.59	17756.91
589.787	17695.47
589.984	18068.2
590.182	17773.3
590.379	17609.46
590.576	17593.08
590.773	17818.35
590.97	17357.56
591.167	17543.92
591.364	17672.95
591.561	17623.8
591.758	17490.68
591.955	17380.09
592.152	17650.42
592.349	17349.37
592.546	17844.98
592.743	17294.07
592.94	17251.06
593.137	17294.07
593.334	17388.28
593.531	17257.21
593.727	17218.3
593.924	17085.18
594.121	16937.73
594.318	17044.22
594.515	16864
594.712	17074.94
594.908	16968.45
595.105	16954.11
595.302	17003.26
595.499	16978.68
595.696	17025.79
595.892	16718.59
596.089	16636.67
596.286	16968.45
596.482	16866.05
596.679	16640.77
596.876	16718.59
597.072	16730.88
597.269	16794.37
597.466	16816.9
597.662	16485.12
597.859	16689.92
598.055	16640.77
598.252	16560.9
598.448	16532.23
598.645	16499.46
598.841	16411.4
599.038	16593.67
599.234	16501.51
599.431	16569.09
599.627	16499.46
599.824	16571.14
600.02	16243.46
600.217	16546.56
600.413	16452.36
600.609	16347.91
600.806	16276.23
601.002	16229.13
601.198	16116.49
601.395	16151.31
601.591	16251.66
601.787	16046.86
601.984	16001.8
602.18	16075.53
602.376	16225.03
602.572	16087.82
602.769	15905.55
602.965	15930.12
603.161	15827.73
603.357	15565.59
603.553	15784.72
603.75	15848.21
603.946	15809.29
604.142	15893.26
604.338	15645.46
604.534	15674.13
604.73	15508.24
604.926	15635.22
605.122	15573.78
605.318	15489.81
605.514	15670.03
605.71	15303.45
605.906	15387.41
606.102	15598.35
606.298	15334.17
606.494	15444.76
606.69	15549.2
606.886	15399.7
607.082	15422.23
607.278	15420.18
607.474	15139.61
607.67	15428.37
607.866	15158.04
608.062	15622.93
608.257	15164.18
608.453	15356.69
608.649	15266.58
608.845	15164.18
609.041	15270.68
609.236	15158.04
609.432	15307.54
609.628	15168.28
609.824	15223.58
610.019	15160.09
610.215	15196.95
610.411	15342.36
610.606	14961.44
610.802	15213.34
610.998	15123.23
611.193	15332.12
611.389	14998.3
611.584	14701.34
611.78	14707.49
611.976	14756.64
612.171	14955.29
612.367	14940.96
612.562	14797.6
612.758	14813.98
612.953	14707.49
613.149	14973.72
613.344	14678.82
613.539	15074.07
613.735	14986.01
613.93	14953.24
614.126	14777.12
614.321	15012.63
614.517	14596.9
614.712	14666.53
614.907	14900
615.103	15041.31
615.298	14775.07
615.493	14949.15
615.688	14928.67
615.884	14854.94
616.079	14506.79
616.274	14650.14
616.47	14695.2
616.665	14607.14
616.86	14596.9
617.055	14572.32
617.25	14404.39
617.445	14734.11
617.641	14125.86
617.836	14613.28
618.031	14367.52
618.226	14402.34
618.421	14189.35
618.616	14508.83
618.811	14379.81
619.006	14443.3
619.201	14021.42
619.396	14418.72
619.591	14058.28
619.786	14207.78
619.981	14048.04
620.176	14121.77
620.371	13982.51
620.566	14017.32
620.761	13871.92
620.956	13925.16
621.151	13833
621.346	13876.01
621.541	13628.21
621.735	13818.67
621.93	13660.98
622.125	13538.1
622.32	13257.53
622.515	13556.53
622.709	13198.13
622.904	13335.35
623.099	13357.88
623.294	13572.91
623.488	13140.79
623.683	13331.25
623.878	13087.54
624.072	12970.81
624.267	12925.75
624.462	12995.39
624.656	12647.23
624.851	12747.58
625.046	12735.29
625.24	12673.85
625.435	12608.32
625.629	12843.84
625.824	12385.09
626.018	12307.27
626.213	12243.78
626.407	12651.33
626.602	12069.7
626.796	12131.14
626.991	12256.07
627.185	12059.46
627.38	12129.09
627.574	12120.9
627.768	12012.36
627.963	11989.83
628.157	11928.39
628.352	11858.76
628.546	11451.22
628.74	11907.91
628.935	11787.08
629.129	11451.22
629.323	11438.93
629.517	11418.45
629.712	11199.32
629.906	11424.59
630.1	11289.43
630.294	11412.31
630.489	11025.24
630.683	11232.08
630.877	11092.82
631.071	10908.51
631.265	11019.1
631.459	10832.73
631.653	10789.72
631.848	10904.41
632.042	10810.2
632.236	10926.94
632.43	10650.46
632.624	10660.7
632.818	10660.7
633.012	10478.43
633.206	10435.42
633.4	10632.03
633.594	10480.48
633.788	10312.55
633.982	10453.86
634.176	10240.87
634.369	10095.46
634.563	10279.78
634.757	9921.38
634.951	10181.48
635.145	9986.92
635.339	9872.23
635.533	9861.99
635.726	9884.52
635.92	9503.6
636.114	9841.51
636.308	9636.72
636.501	9556.85
636.695	9499.5
636.889	9485.17
637.083	9411.44
637.276	9671.53
637.47	9407.34
637.664	9415.54
637.857	9526.13
638.051	9464.69
638.244	9034.61
638.438	9311.09
638.632	9278.32
638.825	9059.19
639.019	9061.24
639.212	9057.14
639.406	8891.26
639.599	8874.87
639.793	8792.95
639.986	8672.12
640.18	8811.39
640.373	8706.94
640.567	8502.14
640.76	8618.88
640.954	8592.25
641.147	8545.15
641.34	8227.71
641.534	8358.78
641.727	8379.26
641.92	8231.81
642.114	8270.72
642.307	8254.34
642.5	8178.56
642.694	8176.52
642.887	8020.87
643.08	8057.73
643.273	7807.88
643.467	8059.78
643.66	8027.01
643.853	7723.91
644.046	7730.06
644.239	7947.14
644.432	7859.08
644.626	7682.95
644.819	7601.04
645.012	7615.37
645.205	7713.67
645.398	7488.4
645.591	7508.88
645.784	7449.49
645.977	7472.01
646.17	7390.1
646.363	7377.81
646.556	7218.07
646.749	7138.2
646.942	7420.81
647.135	7252.88
647.328	7066.52
647.521	6968.21
647.714	7046.04
647.907	7017.36
648.099	6861.72
648.292	6962.07
648.485	6773.66
648.678	6773.66
648.871	6589.34
649.064	6542.24
649.256	6736.79
649.449	6693.79
649.642	6644.63
649.835	6630.3
650.027	6626.2
650.22	6511.52
650.413	6439.84
650.605	6456.22
650.798	6407.07
650.991	6355.87
651.183	6431.65
651.376	6345.63
651.568	6112.16
651.761	6280.1
651.954	6087.59
652.146	6228.9
652.339	6108.07
652.531	6167.46
652.724	6132.64
652.916	5903.27
653.109	5897.13
653.301	6093.73
653.494	6032.29
653.686	5933.99
653.879	6020
654.071	5718.95
654.263	5786.54
654.456	5739.43
654.648	5821.35
654.84	5761.96
655.033	5667.75
655.225	5624.75
655.417	5632.94
655.61	5747.62
655.802	5831.59
655.994	5585.83
656.186	5456.81
656.379	5389.23
656.571	5395.37
656.763	5362.61
656.955	5376.94
657.148	5405.61
657.34	5428.14
657.532	5262.26
657.724	5071.79
657.916	5356.46
658.108	5245.87
658.3	5190.58
658.492	5215.15
658.684	5084.08
658.876	5172.15
659.068	5030.84
659.26	5018.55
659.452	5051.31
659.644	4914.1
659.836	5016.5
660.028	4963.25
660.22	4948.92
660.412	5002.16
660.604	4692.92
660.796	4834.23
660.988	4805.56
661.18	4592.57
661.372	4692.92
661.563	4826.04
661.755	4727.74
661.947	4643.77
662.139	4621.24
662.331	4584.38
662.522	4600.76
662.714	4447.16
662.906	4494.27
663.097	4565.95
663.289	4459.45
663.481	4381.63
663.673	4398.01
663.864	4463.55
664.056	4400.06
664.247	4260.8
664.439	4338.62
664.631	4355.01
664.822	4330.43
665.014	4332.48
665.205	4137.92
665.397	4172.74
665.588	4185.02
665.78	4281.28
665.971	4043.71
666.163	4166.59
666.354	4139.97
666.546	4248.51
666.737	4086.72
666.929	4072.39
667.12	4060.1
667.311	4043.71
667.503	3998.66
667.694	3918.79
667.885	4187.07
668.077	4015.04
668.268	3857.35
668.459	3894.21
668.651	3998.66
668.842	3976.13
669.033	3847.11
669.224	3820.49
669.416	3873.73
669.607	3886.02
669.798	3881.92
669.989	3994.56
670.18	3883.97
670.371	3900.36
670.563	3791.81
670.754	3804.1
670.945	3800.01
671.136	3687.37
671.327	3802.05
671.518	3857.35
671.709	3875.78
671.9	3705.8
672.091	3730.38
672.282	3765.19
672.473	3789.77
672.664	3736.52
672.855	3800.01
673.046	3744.71
673.237	3752.9
673.428	3656.65
673.619	3771.33
673.809	3617.74
674	3589.07
674.191	3587.02
674.382	3652.55
674.573	3607.5
674.764	3601.35
674.954	3879.88
675.145	3713.99
675.336	3795.91
675.527	3677.13
675.717	3670.98
675.908	3621.83
676.099	3644.36
676.289	3646.41
676.48	3668.94
676.671	3650.5
676.861	3613.64
677.052	3763.14
677.243	3607.5
677.433	3711.94
677.624	3804.1
677.814	3591.11
678.005	3660.74
678.195	3724.23
678.386	3617.74
678.576	3584.97
678.767	3584.97
678.957	3789.77
679.148	3662.79
679.338	3757
679.529	3644.36
679.719	3752.9
679.909	3716.04
680.1	3670.98
680.29	3681.22
680.481	3703.75
680.671	3769.29
680.861	3728.33
681.052	3675.08
681.242	3636.17
681.432	3769.29
681.622	3754.95
681.813	3666.89
682.003	3757
682.193	3627.98
682.383	3693.51
682.573	3812.29
682.764	3613.64
682.954	3703.75
683.144	3814.34
683.334	3716.04
683.524	3744.71
683.714	3777.48
683.904	3873.73
684.094	3666.89
684.284	3675.08
684.474	3851.21
684.664	3849.16
684.854	3652.55
685.044	3724.23
685.234	3654.6
685.424	3761.09
685.614	3517.39
685.804	3740.61
685.994	3861.45
686.184	3726.28
686.374	3589.07
686.564	3693.51
686.753	3599.31
686.943	3660.74
687.133	3548.11
687.323	3689.42
687.513	3638.22
687.702	3582.92
687.892	3705.8
688.082	3654.6
688.272	3648.46
688.461	3593.16
688.651	3716.04
688.841	3554.25
689.03	3576.78
689.22	3398.6
689.41	3548.11
689.599	3488.71
689.789	3535.82
689.979	3511.24
690.168	3550.15
690.358	3529.67
690.547	3486.67
690.737	3539.91
690.926	3554.25
691.116	3410.89
691.305	3408.84
691.495	3449.8
691.684	3218.38
691.874	3427.28
692.063	3396.56
692.252	3515.34
692.442	3396.56
692.631	3238.86
692.82	3431.37
693.01	3386.32
693.199	3312.59
693.388	3275.73
693.578	3255.25
693.767	3269.58
693.956	3294.16
694.146	3316.69
694.335	3285.97
694.524	3312.59
694.713	3392.46
694.902	3251.15
695.092	3257.29
695.281	3302.35
695.47	3236.81
695.659	3173.33
695.848	3220.43
696.037	3285.97
696.226	3333.07
696.415	3339.21
696.604	3230.67
696.793	3386.32
696.982	3318.73
697.171	3322.83
697.36	3210.19
697.549	3339.21
697.738	3109.84
697.927	3212.24
698.116	3384.27
698.305	3261.39
698.494	3400.65
698.683	3384.27
698.872	3374.03
699.061	3259.34
699.25	3328.97
699.438	3376.08
699.627	3271.63
699.816	3419.08
700.005	3374.03
700.193	3447.76
700.382	3392.46
700.571	3288.01
700.76	3337.17
700.948	3392.46
701.137	3451.85
701.326	3402.7
701.514	3408.84
701.703	3492.81
701.892	3455.95
702.08	3492.81
702.269	3439.56
702.457	3398.6
702.646	3523.53
702.834	3437.52
703.023	3388.36
703.212	3388.36
703.4	3349.45
703.589	3595.21
703.777	3476.43
703.965	3435.47
704.154	3406.8
704.342	3488.71
704.531	3447.76
704.719	3466.19
704.907	3517.39
705.096	3441.61
705.284	3427.28
705.472	3445.71
705.661	3501
705.849	3599.31
706.037	3615.69
706.226	3460.04
706.414	3406.8
706.602	3460.04
706.79	3619.78
706.979	3390.41
707.167	3564.49
707.355	3355.6
707.543	3544.01
707.731	3603.4
707.919	3494.86
708.107	3539.91
708.296	3355.6
708.484	3511.24
708.672	3541.96
708.86	3562.44
709.048	3412.94
709.236	3486.67
709.424	3552.2
709.612	3591.11
709.8	3455.95
709.988	3486.67
710.176	3574.73
710.364	3752.9
710.551	3447.76
710.739	3523.53
710.927	3697.61
711.115	3617.74
711.303	3730.38
711.491	3546.06
711.679	3640.26
711.866	3720.14
712.054	3548.11
712.242	3521.48
712.43	3736.52
712.617	3675.08
712.805	3642.31
712.993	3711.94
713.181	3488.71
713.368	3658.7
713.556	3605.45
713.744	3451.85
713.931	3754.95
714.119	3658.7
714.306	3677.13
714.494	3675.08
714.682	3636.17
714.869	3646.41
715.057	3644.36
715.244	3673.03
715.432	3724.23
715.619	3670.98
715.807	3687.37
715.994	3816.39
716.182	3812.29
716.369	3808.2
716.556	3816.39
716.744	3599.31
716.931	3587.02
717.119	3746.76
717.306	3752.9
717.493	3601.35
717.681	3625.93
717.868	3699.66
718.055	3843.01
718.242	3638.22
718.43	3867.59
718.617	3693.51
718.804	3746.76
718.991	3806.15
719.179	3883.97
719.366	3785.67
719.553	3793.86
719.74	3685.32
719.927	3701.7
720.114	3752.9
720.301	3789.77
720.488	3797.96
720.676	3763.14
720.863	3847.11
721.05	3693.51
721.237	3904.45
721.424	3812.29
721.611	3843.01
721.798	3713.99
721.985	3701.7
722.172	3654.6
722.358	3912.64
722.545	3726.28
722.732	3804.1
722.919	3687.37
723.106	3699.66
723.293	3746.76
723.48	3926.98
723.667	3703.75
723.853	3806.15
724.04	3757
724.227	3847.11
724.414	3881.92
724.6	3771.33
724.787	3789.77
724.974	4056
725.161	3822.53
725.347	3855.3
725.534	3865.54
725.72	3822.53
725.907	3851.21
726.094	3687.37
726.28	3728.33
726.467	3783.62
726.653	3718.09
726.84	3869.64
727.027	3838.92
727.213	3740.61
727.4	3969.99
727.586	3840.97
727.773	3951.56
727.959	3886.02
728.145	3767.24
728.332	3877.83
728.518	3748.81
728.705	3890.12
728.891	3769.29
729.077	3732.42
729.264	3773.38
729.45	3699.66
729.636	3871.68
729.823	3785.67
730.009	3709.9
730.195	3806.15
730.382	3859.4
730.568	3800.01
730.754	3894.21
730.94	3693.51
731.126	3920.84
731.313	3857.35
731.499	3732.42
731.685	3720.14
731.871	3976.13
732.057	3734.47
732.243	3789.77
732.429	3781.57
732.615	3816.39
732.801	3879.88
732.987	3797.96
733.173	3769.29
733.359	3728.33
733.545	3668.94
733.731	3853.25
733.917	3668.94
734.103	3673.03
734.289	3757
734.475	3632.07
734.661	3775.43
734.847	3828.68
735.033	3763.14
735.219	3689.42
735.404	3679.18
735.59	3709.9
735.776	3734.47
735.962	3800.01
736.148	3685.32
736.333	3814.34
736.519	3773.38
736.705	3771.33
736.89	3736.52
737.076	3652.55
737.262	3658.7
737.447	3640.26
737.633	3603.4
737.819	3632.07
738.004	3568.59
738.19	3630.02
738.375	3544.01
738.561	3720.14
738.747	3673.03
738.932	3562.44
739.118	3589.07
739.303	3718.09
739.489	3568.59
739.674	3562.44
739.859	3529.67
740.045	3525.58
740.23	3673.03
740.416	3451.85
740.601	3568.59
740.786	3470.28
740.972	3296.21
741.157	3449.8
741.342	3447.76
741.528	3396.56
741.713	3378.12
741.898	3382.22
742.084	3558.35
742.269	3431.37
742.454	3480.52
742.639	3414.99
742.824	3294.16
743.01	3460.04
743.195	3392.46
743.38	3384.27
743.565	3339.21
743.75	3322.83
743.935	3263.44
744.12	3312.59
744.305	3337.17
744.49	3261.39
744.675	3175.38
744.86	3183.57
745.045	3134.42
745.23	3249.1
745.415	3138.51
745.6	3257.29
745.785	3105.74
745.97	3275.73
746.155	3109.84
746.34	3140.56
746.525	3025.87
746.71	3179.47
746.895	2964.43
747.079	2911.19
747.264	2999.25
747.449	3060.69
747.634	3007.44
747.819	3023.83
748.003	2810.84
748.188	3007.44
748.373	2962.39
748.557	2946
748.742	2821.08
748.927	2831.32
749.111	2898.9
749.296	2833.36
749.481	2806.74
749.665	2780.12
749.85	2681.82
750.034	2771.93
750.219	2690.01
750.404	2706.39
750.588	2700.25
750.773	2573.27
750.957	2667.48
751.141	2735.06
751.326	2599.9
751.51	2511.83
751.695	2509.79
751.879	2614.23
752.064	2618.33
752.248	2540.51
752.432	2546.65
752.617	2640.86
752.801	2573.27
752.985	2456.54
753.17	2528.22
753.354	2436.06
753.538	2374.62
753.722	2335.71
753.907	2378.72
754.091	2364.38
754.275	2427.87
754.459	2335.71
754.643	2348
754.828	2194.4
755.012	2294.75
755.196	2245.6
755.38	2261.98
755.564	2173.92
755.748	2280.41
755.932	2261.98
756.116	2135.01
756.3	2194.4
756.484	2155.49
756.668	2182.11
756.852	1967.07
757.036	2077.66
757.22	2040.8
757.404	2153.44
757.588	2071.52
757.772	2130.91
757.956	2053.09
758.14	2137.06
758.323	2046.94
758.507	2010.08
758.691	2061.28
758.875	2112.48
759.059	1987.55
759.242	1987.55
759.426	1971.17
759.61	1893.35
759.794	1901.54
759.977	1838.05
760.161	2034.66
760.345	1924.07
760.528	1989.6
760.712	1854.44
760.895	1858.53
761.079	1856.48
761.263	1721.32
761.446	1788.9
761.63	1819.62
761.813	1899.49
761.997	1709.03
762.18	1770.47
762.364	1836
762.547	1729.51
762.731	1766.37
762.914	1803.24
763.098	1711.08
763.281	1620.97
763.464	1639.4
763.648	1706.98
763.831	1706.98
764.015	1723.37
764.198	1704.93
764.381	1709.03
764.564	1633.26
764.748	1649.64
764.931	1692.65
765.114	1643.49
765.297	1577.96
765.481	1539.05
765.664	1514.47
765.847	1633.26
766.03	1586.15
766.213	1514.47
766.397	1571.82
766.58	1537
766.763	1573.86
766.946	1471.47
767.129	1592.3
767.312	1510.38
767.495	1457.13
767.678	1491.95
767.861	1371.12
768.044	1545.19
768.227	1514.47
768.41	1457.13
768.593	1414.12
768.776	1586.15
768.959	1532.9
769.142	1590.25
769.324	1397.74
769.507	1512.42
769.69	1348.59
769.873	1293.29
770.056	1551.34
770.239	1465.32
770.421	1485.8
770.604	1512.42
770.787	1422.31
770.97	1358.83
771.152	1272.81
771.335	1379.31
771.518	1340.4
771.7	1469.42
771.883	1510.38
772.066	1334.25
772.248	1346.54
772.431	1270.76
772.613	1319.92
772.796	1338.35
772.978	1379.31
773.161	1407.98
773.343	1215.47
773.526	1287.15
773.708	1211.37
773.891	1248.24
774.073	1244.14
774.256	1311.72
774.438	1293.29
774.621	1125.36
774.803	1172.46
774.985	1151.98
775.168	1272.81
775.35	1151.98
775.532	1238
775.715	1133.55
775.897	1125.36
776.079	1164.27
776.261	1178.61
776.444	1154.03
776.626	1162.22
776.808	1143.79
776.99	1145.84
777.173	1115.12
777.355	1154.03
777.537	1186.8
777.719	1029.1
777.901	1057.78
778.083	1039.34
778.265	1006.58
778.447	1055.73
778.629	1039.34
778.811	1063.92
778.993	1100.78
779.175	1018.86
779.357	1061.87
779.539	891.89
779.721	961.52
779.903	951.28
780.085	967.67
780.267	928.75
780.449	1039.34
780.631	994.29
780.812	930.8
780.994	947.19
781.176	910.32
781.358	871.41
781.54	926.71
781.721	871.41
781.903	975.86
782.085	949.23
782.267	928.75
782.448	846.84
782.63	924.66
782.812	818.16
782.993	914.42
783.175	828.4
783.357	840.69
783.538	830.45
783.72	834.55
783.901	787.44
784.083	807.92
784.264	756.72
784.446	812.02
784.627	748.53
784.809	783.35
784.99	744.44
785.172	740.34
785.353	803.83
785.535	754.68
785.716	758.77
785.897	723.96
786.079	642.04
786.26	705.53
786.441	717.81
786.623	705.53
786.804	660.47
786.985	617.46
787.167	617.46
787.348	697.33
787.529	637.94
787.71	758.77
787.891	715.77
788.073	674.81
788.254	603.13
788.435	691.19
788.616	627.7
788.797	642.04
788.978	586.74
789.159	711.67
789.34	594.93
789.522	644.09
789.703	556.02
789.884	605.17
790.065	566.26
790.246	650.23
790.427	592.89
790.607	623.61
790.788	652.28
790.969	629.75
791.15	594.93
791.331	562.17
791.512	566.26
791.693	476.15
791.874	570.36
792.054	625.65
792.235	455.67
792.416	474.1
792.597	529.4
792.778	619.51
792.958	609.27
793.139	496.63
793.32	521.21
793.5	398.33
793.681	515.06
793.862	494.58
794.042	586.74
794.223	416.76
794.404	486.39
794.584	394.23
794.765	429.05
794.945	451.58
795.126	461.82
795.306	508.92
795.487	525.3
795.667	365.56
795.848	457.72
796.028	433.15
796.209	431.1
796.389	461.82
796.57	472.06
796.75	445.43
796.93	414.71
797.111	343.03
797.291	429.05
797.471	416.76
797.652	398.33
797.832	332.79
798.012	474.1
798.192	328.7
798.373	314.36
798.553	418.81
798.733	365.56
798.913	402.43
799.093	433.15
799.274	334.84
799.454	390.14
799.634	408.57
799.814	455.67
799.994	461.82
800.174	437.24
800.354	343.03
800.534	369.66
800.714	394.23
800.894	390.14
801.074	347.13
801.254	349.18
801.434	398.33
801.614	367.61
801.794	332.79
801.974	1313.77
802.154	400.38
802.334	365.56
802.514	357.37
802.693	326.65
802.873	340.99
803.053	412.67
803.233	304.12
803.413	285.69
803.592	369.66
803.772	285.69
803.952	297.98
804.131	318.46
804.311	398.33
804.491	404.47
804.67	318.46
804.85	195.58
805.03	402.43
805.209	308.22
805.389	263.16
805.568	338.94
805.748	285.69
805.928	318.46
806.107	381.95
806.287	340.99
806.466	347.13
806.646	203.77
806.825	273.4
807.004	383.99
807.184	388.09
807.363	375.8
807.543	195.58
807.722	302.08
807.901	371.71
808.081	435.19
808.26	234.49
808.439	232.44
808.619	265.21
808.798	185.34
808.977	332.79
809.156	295.93
809.336	211.96
809.515	289.79
809.694	250.88
809.873	263.16
810.052	308.22
810.231	287.74
810.411	267.26
810.59	252.92
810.769	269.31
810.948	332.79
811.127	263.16
811.306	259.07
811.485	314.36
811.664	289.79
811.843	164.86
812.022	252.92
812.201	308.22
812.38	199.68
812.559	226.3
812.737	322.56
812.916	164.86
813.095	218.11
813.274	228.35
813.453	234.49
813.632	283.64
813.811	295.93
813.989	105.47
814.168	226.3
814.347	138.24
814.526	214.01
814.704	244.73
814.883	273.4
815.062	177.15
815.24	222.2
815.419	134.14
815.598	246.78
815.776	179.2
815.955	228.35
816.133	132.09
816.312	152.57
816.49	216.06
816.669	171.01
816.847	130.05
817.026	177.15
817.204	66.56
817.383	205.82
817.561	185.34
817.74	297.98
817.918	185.34
818.097	146.43
818.275	246.78
818.453	195.58
818.632	252.92
818.81	187.39
818.988	93.18
819.167	95.23
819.345	128
819.523	185.34
819.701	222.2
819.879	234.49
820.058	195.58
820.236	158.72
820.414	199.68
820.592	158.72
820.77	211.96
820.948	144.38
821.127	128
821.305	181.25
821.483	154.62
821.661	197.63
821.839	171.01
822.017	201.72
822.195	123.9
822.373	164.86
822.551	113.66
822.729	222.2
822.907	64.51
823.085	125.95
823.262	191.49
823.44	154.62
823.618	93.18
823.796	62.46
823.974	132.09
824.152	101.37
824.329	150.53
824.507	111.61
824.685	144.38
824.863	162.81
825.04	52.22
825.218	156.67
825.396	107.52
825.574	246.78
825.751	123.9
825.929	179.2
826.107	134.14
826.284	123.9
826.462	179.2
826.639	109.57
826.817	76.8
826.994	136.19
827.172	154.62
827.349	238.59
827.527	136.19
827.704	152.57
827.882	181.25
828.059	99.33
828.237	107.52
828.414	144.38
828.591	17.41
828.769	105.47
828.946	93.18
829.124	113.66
829.301	222.2
829.478	138.24
829.655	138.24
829.833	101.37
830.01	29.7
830.187	138.24
830.364	111.61
830.542	148.48
830.719	119.81
830.896	62.46
831.073	109.57
831.25	56.32
831.427	97.28
831.604	87.04
831.782	87.04
831.959	224.25
832.136	52.22
832.313	168.96
832.49	48.13
832.667	56.32
832.844	50.18
833.021	138.24
833.198	66.56
833.374	144.38
833.551	132.09
833.728	72.7
833.905	95.23
834.082	123.9
834.259	87.04
834.436	148.48
834.612	31.74
834.789	148.48
834.966	95.23
835.143	138.24
835.319	35.84
835.496	97.28
835.673	93.18
835.85	156.67
836.026	158.72
836.203	140.29
836.38	66.56
836.556	72.7
836.733	82.94
836.909	119.81
837.086	101.37
837.262	41.98
837.439	97.28
837.616	72.7
837.792	-1.02
837.968	111.61
838.145	-41.98
838.321	58.37
838.498	64.51
838.674	142.33
838.851	27.65
839.027	50.18
839.203	82.94
839.38	50.18
839.556	111.61
839.732	125.95
839.909	103.42
840.085	150.53
840.261	-29.7
840.437	95.23
840.614	48.13
840.79	107.52
840.966	33.79
841.142	91.13
841.318	91.13
841.494	37.89
841.671	70.65
841.847	21.5
842.023	25.6
842.199	64.51
842.375	80.89
842.551	-23.55
842.727	-41.98
842.903	158.72
843.079	1.02
843.255	130.05
843.431	48.13
843.607	119.81
843.783	-60.42
843.959	115.71
844.134	66.56
844.31	35.84
844.486	107.52
844.662	64.51
844.838	66.56
845.013	84.99
845.189	121.85
845.365	101.37
845.541	111.61
845.716	-7.17
845.892	44.03
846.068	-7.17
846.244	52.22
846.419	74.75
846.595	19.46
846.77	5.12
846.946	109.57
847.122	80.89
847.297	-15.36
847.473	132.09
847.648	3.07
847.824	-1.02
847.999	-54.27
848.175	41.98
848.35	82.94
848.526	72.7
848.701	68.61
848.876	58.37
849.052	101.37
849.227	91.13
849.403	52.22
849.578	7.17
849.753	72.7
849.929	99.33
850.104	-9.22
850.279	-41.98
850.454	23.55
850.63	-11.26
850.805	21.5
850.98	82.94
851.155	9.22
851.33	130.05
851.505	54.27
851.681	78.85
851.856	33.79
852.031	35.84
852.206	48.13
852.381	21.5
852.556	-35.84
852.731	54.27
852.906	50.18
853.081	84.99
853.256	46.08
853.431	-1.02
853.606	15.36
853.781	29.7
853.956	-29.7
854.131	68.61
854.305	-25.6
854.48	-11.26
854.655	27.65
854.83	9.22
855.005	-27.65
855.18	64.51
855.354	-5.12
855.529	95.23
855.704	-3.07
855.879	68.61
856.053	-11.26
856.228	56.32
856.403	7.17
856.577	39.94
856.752	-50.18
856.926	19.46
857.101	7.17
857.276	-50.18
857.45	-11.26
857.625	78.85
857.799	31.74
857.974	27.65
858.148	-11.26
858.323	93.18
858.497	33.79
858.672	91.13
858.846	-50.18
859.02	70.65
859.195	-52.22
859.369	66.56
859.543	-72.7
859.718	56.32
859.892	35.84
860.066	68.61
860.241	52.22
860.415	-48.13
860.589	50.18
860.763	-19.46
860.938	25.6
861.112	5.12
861.286	-1.02
861.46	39.94
861.634	54.27
861.808	-19.46
861.982	-19.46
862.157	21.5
862.331	74.75
862.505	-41.98
862.679	-58.37
862.853	-13.31
863.027	46.08
863.201	113.66
863.375	35.84
863.549	-17.41
863.722	27.65
863.896	54.27
864.07	-5.12
864.244	15.36
864.418	-33.79
864.592	46.08
864.766	-37.89
864.939	-31.74
865.113	11.26
865.287	64.51
865.461	44.03
865.634	44.03
865.808	-25.6
865.982	27.65
866.156	-33.79
866.329	-103.42
866.503	29.7
866.676	-66.56
866.85	11.26
867.024	-35.84
867.197	44.03
867.371	46.08
867.544	27.65
867.718	-21.5
867.891	-15.36
868.065	-44.03
868.238	-72.7
868.412	125.95
868.585	-29.7
868.759	-11.26
868.932	29.7
869.105	-41.98
869.279	27.65
869.452	19.46
869.625	60.42
869.799	-15.36
869.972	-101.37
870.145	-33.79
870.319	68.61
870.492	-9.22
870.665	5.12
870.838	-1.02
871.011	-35.84
871.185	-44.03
871.358	7.17
871.531	3.07
871.704	109.57
871.877	5.12
872.05	-95.23
872.223	-15.36
872.396	117.76
872.569	82.94
872.742	19.46
872.915	13.31
873.088	-52.22
873.261	-46.08
873.434	78.85
873.607	37.89
873.78	46.08
873.953	-11.26
874.126	3.07
874.299	46.08
874.471	-7.17
874.644	19.46
874.817	44.03
874.99	41.98
875.163	-31.74
875.335	19.46
875.508	-17.41
875.681	-13.31
875.853	31.74
876.026	-7.17
876.199	-5.12
876.371	-107.52
876.544	-9.22
876.717	64.51
876.889	11.26
877.062	78.85
877.234	-82.94
877.407	-9.22
877.579	-130.05
877.752	62.46
877.924	41.98
878.097	7.17
878.269	31.74
878.442	-37.89
878.614	41.98
878.786	21.5
878.959	7.17
879.131	41.98
879.303	-93.18
879.476	13.31
879.648	25.6
879.82	35.84
879.993	-44.03
880.165	48.13
880.337	-41.98
880.509	56.32
880.681	-52.22
880.854	-23.55
881.026	7.17
881.198	117.76
881.37	-27.65
881.542	-33.79
881.714	-99.33
881.886	-82.94
882.058	-52.22
882.23	-3.07
882.402	-17.41
882.574	-31.74
882.746	29.7
882.918	21.5
883.09	13.31
883.262	25.6
883.434	-21.5
883.606	-80.89
883.778	-15.36
883.95	62.46
884.122	23.55
884.293	-7.17
884.465	56.32
884.637	-5.12
884.809	-1.02
884.98	39.94
885.152	-29.7
885.324	-3.07
885.496	-27.65
885.667	3.07
885.839	-7.17
886.011	58.37
886.182	-1.02
886.354	3.07
886.525	3.07
886.697	-21.5
886.869	-1.02
887.04	-35.84
887.212	58.37
887.383	72.7
887.555	17.41
887.726	-44.03
887.897	17.41
888.069	-1.02
888.24	60.42
888.412	9.22
888.583	-46.08
888.754	31.74
888.926	-128
889.097	-60.42
889.268	1.02
889.44	-48.13
889.611	-64.51
889.782	-66.56
889.953	-11.26
890.125	35.84
890.296	-37.89
890.467	5.12
890.638	-52.22
890.809	-37.89
890.98	17.41
891.151	-52.22
891.323	37.89
891.494	-3.07
891.665	-15.36
891.836	35.84
892.007	52.22
892.178	58.37
892.349	-97.28
892.52	-60.42
892.691	1.02
892.862	-52.22
893.032	29.7
893.203	3.07
893.374	64.51
893.545	5.12
893.716	-99.33
893.887	37.89
894.057	-25.6
894.228	25.6
894.399	-44.03
894.57	58.37
894.74	1.02
894.911	35.84
895.082	-13.31
895.253	-19.46
895.423	-31.74
895.594	29.7
895.764	52.22
895.935	-97.28
896.106	35.84
896.276	-138.24
896.447	-1.02
896.617	-142.33
896.788	-1.02
896.958	-109.57
897.129	70.65
897.299	-84.99
897.47	-7.17
897.64	-25.6
897.81	-3.07
897.981	17.41
898.151	-60.42
898.322	21.5
898.492	-41.98
898.662	-41.98
898.832	-13.31
899.003	-29.7
899.173	-74.75
899.343	-19.46
899.513	-80.89
