Data from USB4F104151__83__12-12-59-251.txt Node

Date: Fri Mar 14 12:12:59 EDT 2025
User: louis
Spectrometer: USB4F10415
Trigger mode: 4
Integration Time (sec): 5.000000E-2
Scans to average: 1
Electric dark correction enabled: true
Nonlinearity correction enabled: false
Boxcar width: 0
XAxis mode: Wavelengths
Number of Pixels in Spectrum: 3648
>>>>>Begin Spectral Data<<<<<
178.204	-276.48
178.424	-276.48
178.644	-276.48
178.864	-243.71
179.084	-225.28
179.304	0
179.524	-28.67
179.744	-28.67
179.964	49.15
180.184	2.05
180.404	32.77
180.624	-34.82
180.844	-30.72
181.064	-38.91
181.283	71.68
181.503	22.53
181.723	-16.38
181.943	-96.25
182.163	47.1
182.383	-4.1
182.602	79.87
182.822	43.01
183.042	55.3
183.262	57.34
183.482	-34.82
183.701	10.24
183.921	-55.3
184.141	-36.86
184.361	18.43
184.58	32.77
184.8	-14.34
185.02	-24.58
185.239	40.96
185.459	47.1
185.679	38.91
185.898	12.29
186.118	51.2
186.338	36.86
186.557	67.58
186.777	18.43
186.997	-4.1
187.216	22.53
187.436	120.83
187.655	55.3
187.875	30.72
188.095	2.05
188.314	83.97
188.534	28.67
188.753	8.19
188.973	32.77
189.192	32.77
189.412	55.3
189.631	40.96
189.851	16.38
190.07	94.21
190.29	-10.24
190.509	-12.29
190.729	-63.49
190.948	53.25
191.168	253.95
191.387	67.58
191.607	26.62
191.826	4.1
192.045	106.49
192.265	-47.1
192.484	67.58
192.704	4.1
192.923	-81.92
193.142	153.6
193.362	-32.77
193.581	65.53
193.8	0
194.02	139.26
194.239	-34.82
194.458	30.72
194.678	14.34
194.897	-55.3
195.116	20.48
195.335	-22.53
195.555	-57.34
195.774	77.82
195.993	-18.43
196.212	-26.62
196.432	24.58
196.651	32.77
196.87	112.64
197.089	106.49
197.308	34.82
197.528	24.58
197.747	-104.45
197.966	6.14
198.185	104.45
198.404	-40.96
198.623	102.4
198.842	71.68
199.062	57.34
199.281	-6.14
199.5	-40.96
199.719	22.53
199.938	14.34
200.157	86.01
200.376	32.77
200.595	69.63
200.814	-26.62
201.033	22.53
201.252	79.87
201.471	36.86
201.69	102.4
201.909	94.21
202.128	-14.34
202.347	22.53
202.566	26.62
202.785	-24.58
203.004	18.43
203.223	133.12
203.442	24.58
203.661	20.48
203.879	77.82
204.098	63.49
204.317	8.19
204.536	18.43
204.755	79.87
204.974	61.44
205.193	-8.19
205.411	55.3
205.63	112.64
205.849	47.1
206.068	-8.19
206.287	61.44
206.505	102.4
206.724	34.82
206.943	-65.54
207.162	-73.73
207.381	81.92
207.599	-4.1
207.818	38.91
208.037	12.29
208.255	-20.48
208.474	40.96
208.693	32.77
208.911	-30.72
209.13	-10.24
209.349	83.97
209.567	-10.24
209.786	92.16
210.005	16.38
210.223	53.25
210.442	-53.25
210.661	65.53
210.879	32.77
211.098	34.82
211.316	8.19
211.535	14.34
211.753	4.1
211.972	81.92
212.191	-22.53
212.409	67.58
212.628	4.1
212.846	10.24
213.065	6.14
213.283	34.82
213.502	-2.05
213.72	22.53
213.938	57.34
214.157	63.49
214.375	79.87
214.594	26.62
214.812	40.96
215.031	-2.05
215.249	77.82
215.467	24.58
215.686	88.06
215.904	106.49
216.122	-38.91
216.341	22.53
216.559	73.73
216.778	129.02
216.996	16.38
217.214	-16.38
217.432	-28.67
217.651	-22.53
217.869	22.53
218.087	-40.96
218.306	30.72
218.524	43.01
218.742	30.72
218.96	49.15
219.179	-14.34
219.397	49.15
219.615	65.53
219.833	40.96
220.051	18.43
220.27	67.58
220.488	102.4
220.706	26.62
220.924	32.77
221.142	8.19
221.36	-18.43
221.578	4.1
221.796	59.39
222.015	104.45
222.233	26.62
222.451	77.82
222.669	36.86
222.887	-34.82
223.105	-73.73
223.323	34.82
223.541	-28.67
223.759	65.53
223.977	2.05
224.195	61.44
224.413	86.01
224.631	36.86
224.849	98.3
225.067	94.21
225.285	0
225.503	0
225.721	-63.49
225.939	-36.86
226.157	-8.19
226.375	114.69
226.592	57.34
226.81	-2.05
227.028	55.3
227.246	61.44
227.464	-34.82
227.682	69.63
227.9	118.78
228.117	-4.1
228.335	0
228.553	40.96
228.771	26.62
228.989	12.29
229.206	26.62
229.424	-22.53
229.642	6.14
229.86	2.05
230.077	34.82
230.295	75.77
230.513	2.05
230.731	90.11
230.948	67.58
231.166	73.73
231.384	0
231.601	12.29
231.819	108.54
232.037	-14.34
232.254	32.77
232.472	47.1
232.689	30.72
232.907	75.77
233.125	16.38
233.342	-26.62
233.56	-32.77
233.777	20.48
233.995	-2.05
234.213	106.49
234.43	73.73
234.648	57.34
234.865	-12.29
235.083	34.82
235.3	57.34
235.518	38.91
235.735	69.63
235.953	88.06
236.17	-2.05
236.388	51.2
236.605	71.68
236.822	73.73
237.04	40.96
237.257	-57.34
237.475	2.05
237.692	43.01
237.909	-4.1
238.127	45.06
238.344	45.06
238.562	61.44
238.779	18.43
238.996	51.2
239.214	6.14
239.431	69.63
239.648	0
239.865	106.49
240.083	24.58
240.3	10.24
240.517	-18.43
240.735	6.14
240.952	24.58
241.169	32.77
241.386	40.96
241.603	2.05
241.821	-32.77
242.038	88.06
242.255	36.86
242.472	-63.49
242.689	77.82
242.907	106.49
243.124	18.43
243.341	-28.67
243.558	-4.1
243.775	79.87
243.992	-18.43
244.209	18.43
244.426	147.45
244.643	0
244.86	47.1
245.078	2.05
245.295	6.14
245.512	-28.67
245.729	-20.48
245.946	49.15
246.163	-8.19
246.38	38.91
246.597	49.15
246.814	20.48
247.031	34.82
247.248	-26.62
247.464	73.73
247.681	-6.14
247.898	18.43
248.115	26.62
248.332	47.1
248.549	81.92
248.766	114.69
248.983	26.62
249.2	-14.34
249.417	51.2
249.633	-22.53
249.85	69.63
250.067	0
250.284	14.34
250.501	43.01
250.717	118.78
250.934	-24.58
251.151	4.1
251.368	-45.06
251.585	36.86
251.801	40.96
252.018	40.96
252.235	98.3
252.451	-79.87
252.668	-30.72
252.885	114.69
253.102	67.58
253.318	49.15
253.535	2.05
253.752	-18.43
253.968	-63.49
254.185	-14.34
254.401	-6.14
254.618	43.01
254.835	-28.67
255.051	106.49
255.268	20.48
255.484	-4.1
255.701	16.38
255.917	98.3
256.134	61.44
256.351	-6.14
256.567	-38.91
256.784	28.67
257	4.1
257.217	38.91
257.433	94.21
257.65	122.88
257.866	94.21
258.082	-12.29
258.299	28.67
258.515	96.25
258.732	4.1
258.948	26.62
259.165	47.1
259.381	86.01
259.597	-2.05
259.814	24.58
260.03	45.06
260.246	-2.05
260.463	38.91
260.679	45.06
260.895	-16.38
261.112	32.77
261.328	47.1
261.544	65.53
261.761	36.86
261.977	55.3
262.193	26.62
262.409	131.07
262.626	47.1
262.842	71.68
263.058	-57.34
263.274	114.69
263.49	8.19
263.707	34.82
263.923	69.63
264.139	-28.67
264.355	14.34
264.571	-34.82
264.787	83.97
265.004	79.87
265.22	43.01
265.436	-26.62
265.652	-40.96
265.868	71.68
266.084	-26.62
266.3	16.38
266.516	-22.53
266.732	86.01
266.948	75.77
267.164	24.58
267.38	67.58
267.596	32.77
267.812	77.82
268.028	67.58
268.244	83.97
268.46	59.39
268.676	-28.67
268.892	18.43
269.108	-32.77
269.324	16.38
269.54	-86.01
269.756	6.14
269.972	4.1
270.188	-40.96
270.403	-51.2
270.619	-18.43
270.835	-43.01
271.051	55.3
271.267	6.14
271.483	-45.06
271.698	18.43
271.914	75.77
272.13	-18.43
272.346	2.05
272.562	67.58
272.777	71.68
272.993	40.96
273.209	-6.14
273.425	51.2
273.64	-51.2
273.856	96.25
274.072	24.58
274.287	-51.2
274.503	73.73
274.719	73.73
274.934	59.39
275.15	-79.87
275.366	-43.01
275.581	28.67
275.797	16.38
276.012	59.39
276.228	20.48
276.444	-36.86
276.659	79.87
276.875	61.44
277.09	32.77
277.306	43.01
277.521	32.77
277.737	34.82
277.952	47.1
278.168	0
278.383	6.14
278.599	-6.14
278.814	75.77
279.03	32.77
279.245	88.06
279.461	4.1
279.676	69.63
279.892	-69.63
280.107	-47.1
280.322	16.38
280.538	-55.3
280.753	-63.49
280.969	88.06
281.184	26.62
281.399	94.21
281.615	110.59
281.83	24.58
282.045	-79.87
282.26	2.05
282.476	18.43
282.691	75.77
282.906	73.73
283.122	-24.58
283.337	28.67
283.552	88.06
283.767	34.82
283.983	6.14
284.198	14.34
284.413	126.97
284.628	-28.67
284.843	63.49
285.058	12.29
285.274	0
285.489	-4.1
285.704	20.48
285.919	-18.43
286.134	8.19
286.349	-77.82
286.564	-22.53
286.779	8.19
286.995	34.82
287.21	-51.2
287.425	-10.24
287.64	-38.91
287.855	94.21
288.07	-47.1
288.285	92.16
288.5	131.07
288.715	83.97
288.93	14.34
289.145	-67.58
289.36	86.01
289.575	24.58
289.79	65.53
290.004	2.05
290.219	36.86
290.434	-14.34
290.649	49.15
290.864	22.53
291.079	40.96
291.294	43.01
291.509	32.77
291.724	-6.14
291.938	-16.38
292.153	16.38
292.368	30.72
292.583	83.97
292.798	102.4
293.012	77.82
293.227	63.49
293.442	-8.19
293.657	71.68
293.871	59.39
294.086	-8.19
294.301	38.91
294.516	38.91
294.73	28.67
294.945	-73.73
295.16	12.29
295.374	43.01
295.589	108.54
295.804	-18.43
296.018	90.11
296.233	131.07
296.447	8.19
296.662	-2.05
296.877	92.16
297.091	14.34
297.306	38.91
297.52	92.16
297.735	2.05
297.949	-2.05
298.164	-20.48
298.378	18.43
298.593	-63.49
298.807	6.14
299.022	36.86
299.236	94.21
299.451	2.05
299.665	-83.97
299.88	67.58
300.094	59.39
300.309	69.63
300.523	73.73
300.737	-47.1
300.952	55.3
301.166	114.69
301.381	-22.53
301.595	-28.67
301.809	-2.05
302.024	16.38
302.238	-26.62
302.452	88.06
302.667	8.19
302.881	77.82
303.095	61.44
303.309	61.44
303.524	-2.05
303.738	-51.2
303.952	20.48
304.166	24.58
304.381	0
304.595	88.06
304.809	12.29
305.023	30.72
305.237	0
305.452	28.67
305.666	75.77
305.88	45.06
306.094	55.3
306.308	96.25
306.522	59.39
306.736	32.77
306.95	-57.34
307.164	-4.1
307.379	38.91
307.593	77.82
307.807	83.97
308.021	8.19
308.235	28.67
308.449	0
308.663	59.39
308.877	67.58
309.091	104.45
309.305	59.39
309.519	-20.48
309.733	12.29
309.947	-67.58
310.161	51.2
310.374	-4.1
310.588	133.12
310.802	-18.43
311.016	0
311.23	36.86
311.444	45.06
311.658	45.06
311.872	-10.24
312.085	0
312.299	16.38
312.513	90.11
312.727	43.01
312.941	28.67
313.154	77.82
313.368	2.05
313.582	4.1
313.796	-14.34
314.009	65.53
314.223	86.01
314.437	30.72
314.651	30.72
314.864	47.1
315.078	53.25
315.292	18.43
315.505	-6.14
315.719	22.53
315.933	26.62
316.146	43.01
316.36	16.38
316.573	100.35
316.787	81.92
317.001	61.44
317.214	30.72
317.428	61.44
317.641	-32.77
317.855	59.39
318.068	65.53
318.282	20.48
318.495	100.35
318.709	36.86
318.922	67.58
319.136	129.02
319.349	122.88
319.563	-36.86
319.776	-2.05
319.99	-26.62
320.203	0
320.417	20.48
320.63	30.72
320.843	75.77
321.057	36.86
321.27	57.34
321.483	-18.43
321.697	108.54
321.91	43.01
322.124	53.25
322.337	22.53
322.55	53.25
322.763	-49.15
322.977	20.48
323.19	-40.96
323.403	-4.1
323.617	20.48
323.83	118.78
324.043	20.48
324.256	86.01
324.469	59.39
324.683	61.44
324.896	65.53
325.109	73.73
325.322	-63.49
325.535	22.53
325.748	-4.1
325.962	8.19
326.175	57.34
326.388	6.14
326.601	40.96
326.814	-8.19
327.027	57.34
327.24	139.26
327.453	-26.62
327.666	-2.05
327.879	57.34
328.092	90.11
328.305	26.62
328.518	4.1
328.731	16.38
328.944	-4.1
329.157	4.1
329.37	59.39
329.583	98.3
329.796	86.01
330.009	-32.77
330.222	38.91
330.435	79.87
330.648	-6.14
330.861	16.38
331.073	4.1
331.286	6.14
331.499	63.49
331.712	-26.62
331.925	0
332.138	120.83
332.35	12.29
332.563	12.29
332.776	143.36
332.989	-4.1
333.202	-28.67
333.414	71.68
333.627	-18.43
333.84	-8.19
334.053	-26.62
334.265	-53.25
334.478	-8.19
334.691	16.38
334.903	-10.24
335.116	18.43
335.329	79.87
335.541	-12.29
335.754	122.88
335.966	-49.15
336.179	-2.05
336.392	-8.19
336.604	59.39
336.817	47.1
337.029	94.21
337.242	20.48
337.454	100.35
337.667	12.29
337.88	92.16
338.092	-6.14
338.305	143.36
338.517	-24.58
338.729	83.97
338.942	30.72
339.154	14.34
339.367	4.1
339.579	34.82
339.792	43.01
340.004	26.62
340.217	30.72
340.429	-51.2
340.641	20.48
340.854	-18.43
341.066	18.43
341.278	63.49
341.491	92.16
341.703	-34.82
341.915	10.24
342.128	71.68
342.34	47.1
342.552	10.24
342.764	55.3
342.977	73.73
343.189	-20.48
343.401	43.01
343.613	-8.19
343.826	18.43
344.038	-28.67
344.25	30.72
344.462	-30.72
344.674	65.53
344.886	-36.86
345.099	49.15
345.311	38.91
345.523	49.15
345.735	-67.58
345.947	88.06
346.159	69.63
346.371	0
346.583	-20.48
346.795	100.35
347.007	65.53
347.219	71.68
347.431	57.34
347.643	57.34
347.855	-51.2
348.067	90.11
348.279	-83.97
348.491	51.2
348.703	10.24
348.915	-71.68
349.127	2.05
349.339	61.44
349.551	20.48
349.763	-30.72
349.975	-22.53
350.187	75.77
350.399	108.54
350.61	135.17
350.822	14.34
351.034	43.01
351.246	47.1
351.458	26.62
351.669	-30.72
351.881	110.59
352.093	108.54
352.305	73.73
352.517	2.05
352.728	92.16
352.94	12.29
353.152	90.11
353.363	-32.77
353.575	81.92
353.787	55.3
353.999	75.77
354.21	180.22
354.422	34.82
354.633	-30.72
354.845	75.77
355.057	-34.82
355.268	40.96
355.48	67.58
355.692	-55.3
355.903	24.58
356.115	14.34
356.326	-38.91
356.538	149.5
356.749	55.3
356.961	75.77
357.172	20.48
357.384	53.25
357.595	122.88
357.807	-14.34
358.018	73.73
358.23	69.63
358.441	55.3
358.653	38.91
358.864	-20.48
359.075	59.39
359.287	165.89
359.498	92.16
359.709	98.3
359.921	49.15
360.132	71.68
360.344	36.86
360.555	51.2
360.766	47.1
360.977	88.06
361.189	53.25
361.4	-16.38
361.611	75.77
361.823	8.19
362.034	-10.24
362.245	-106.49
362.456	-2.05
362.667	45.06
362.879	-22.53
363.09	26.62
363.301	8.19
363.512	69.63
363.723	-45.06
363.935	22.53
364.146	-8.19
364.357	10.24
364.568	65.53
364.779	-100.35
364.99	174.08
365.201	26.62
365.412	122.88
365.623	-24.58
365.834	75.77
366.045	34.82
366.256	75.77
366.467	129.02
366.678	24.58
366.889	-8.19
367.1	-32.77
367.311	79.87
367.522	4.1
367.733	45.06
367.944	73.73
368.155	24.58
368.366	61.44
368.577	38.91
368.788	43.01
368.999	-6.14
369.209	-22.53
369.42	83.97
369.631	145.41
369.842	73.73
370.053	55.3
370.264	-30.72
370.474	-10.24
370.685	43.01
370.896	67.58
371.107	53.25
371.317	38.91
371.528	-98.3
371.739	69.63
371.95	96.25
372.16	47.1
372.371	-43.01
372.582	20.48
372.792	57.34
373.003	61.44
373.214	-32.77
373.424	4.1
373.635	51.2
373.846	79.87
374.056	88.06
374.267	22.53
374.477	63.49
374.688	38.91
374.898	22.53
375.109	47.1
375.319	59.39
375.53	71.68
375.74	28.67
375.951	22.53
376.161	-8.19
376.372	81.92
376.582	43.01
376.793	69.63
377.003	-34.82
377.214	-43.01
377.424	90.11
377.635	108.54
377.845	-71.68
378.055	49.15
378.266	-43.01
378.476	34.82
378.686	92.16
378.897	40.96
379.107	53.25
379.317	61.44
379.528	32.77
379.738	43.01
379.948	0
380.158	32.77
380.369	10.24
380.579	108.54
380.789	88.06
380.999	20.48
381.21	96.25
381.42	118.78
381.63	-26.62
381.84	114.69
382.05	40.96
382.261	86.01
382.471	77.82
382.681	49.15
382.891	116.73
383.101	43.01
383.311	-24.58
383.521	32.77
383.731	47.1
383.941	77.82
384.151	30.72
384.361	-32.77
384.571	57.34
384.781	65.53
384.991	28.67
385.201	81.92
385.411	90.11
385.621	61.44
385.831	26.62
386.041	55.3
386.251	-26.62
386.461	40.96
386.671	-77.82
386.881	59.39
387.091	26.62
387.301	59.39
387.511	28.67
387.72	75.77
387.93	8.19
388.14	-22.53
388.35	88.06
388.56	53.25
388.769	16.38
388.979	57.34
389.189	49.15
389.399	4.1
389.609	65.53
389.818	71.68
390.028	51.2
390.238	47.1
390.447	4.1
390.657	49.15
390.867	12.29
391.076	4.1
391.286	88.06
391.496	49.15
391.705	38.91
391.915	69.63
392.125	69.63
392.334	67.58
392.544	178.17
392.753	18.43
392.963	-6.14
393.172	57.34
393.382	-4.1
393.591	30.72
393.801	79.87
394.01	124.93
394.22	83.97
394.429	67.58
394.639	12.29
394.848	90.11
395.058	94.21
395.267	40.96
395.477	86.01
395.686	61.44
395.895	120.83
396.105	73.73
396.314	36.86
396.524	98.3
396.733	77.82
396.942	98.3
397.152	81.92
397.361	100.35
397.57	73.73
397.78	2.05
397.989	77.82
398.198	135.17
398.407	57.34
398.617	45.06
398.826	-2.05
399.035	55.3
399.244	49.15
399.453	61.44
399.663	124.93
399.872	122.88
400.081	30.72
400.29	145.41
400.499	67.58
400.708	143.36
400.917	67.58
401.127	112.64
401.336	8.19
401.545	174.08
401.754	114.69
401.963	122.88
402.172	94.21
402.381	90.11
402.59	98.3
402.799	104.45
403.008	194.56
403.217	141.31
403.426	94.21
403.635	10.24
403.844	141.31
404.053	135.17
404.262	116.73
404.471	210.94
404.68	129.02
404.888	186.37
405.097	118.78
405.306	118.78
405.515	180.22
405.724	98.3
405.933	217.08
406.142	149.5
406.35	221.18
406.559	106.49
406.768	131.07
406.977	235.52
407.185	186.37
407.394	210.94
407.603	98.3
407.812	169.98
408.02	219.13
408.229	217.08
408.438	260.09
408.646	90.11
408.855	229.37
409.064	223.23
409.272	192.51
409.481	202.75
409.69	253.95
409.898	178.17
410.107	272.38
410.315	290.81
410.524	264.19
410.733	251.9
410.941	227.32
411.15	315.39
411.358	317.44
411.567	337.91
411.775	313.34
411.984	278.52
412.192	348.15
412.401	395.26
412.609	458.74
412.818	452.6
413.026	403.45
413.234	444.41
413.443	473.08
413.651	466.94
413.86	460.79
414.068	516.09
414.276	555
414.485	499.7
414.693	557.05
414.901	559.1
415.11	589.81
415.318	622.58
415.526	614.39
415.734	653.3
415.943	634.87
416.151	765.94
416.359	667.64
416.567	649.21
416.776	763.89
416.984	786.42
417.192	868.34
417.4	770.04
417.608	770.04
417.817	872.43
418.025	849.91
418.233	997.36
418.441	921.59
418.649	968.69
418.857	1026.03
419.065	1110
419.273	1015.79
419.481	1040.37
419.689	1210.35
419.897	1204.21
420.105	1146.86
420.313	1265.64
420.521	1355.76
420.729	1316.84
420.937	1413.1
421.145	1443.82
421.353	1476.59
421.561	1644.52
421.769	1574.89
421.977	1677.29
422.185	1693.67
422.393	1839.08
422.601	1964
422.809	1947.62
423.017	1816.55
423.224	2070.5
423.432	2084.83
423.64	2066.4
423.848	2306.01
424.056	2154.46
424.263	2402.27
424.471	2346.97
424.679	2387.93
424.887	2510.81
425.094	2729.94
425.302	2637.78
425.51	2799.57
425.718	2832.34
425.925	2809.81
426.133	2910.16
426.341	3110.86
426.548	3205.07
426.756	3121.1
426.964	3262.41
427.171	3297.23
427.379	3553.23
427.586	3602.38
427.794	3721.16
428.001	3917.76
428.209	3960.77
428.417	3934.15
428.624	4175.81
428.832	4218.82
429.039	4276.16
429.247	4317.12
429.454	4693.94
429.662	5013.43
429.869	4591.55
430.076	4874.17
430.284	4720.57
430.491	5124.02
430.699	5377.97
430.906	5257.14
431.114	5339.05
431.321	5433.26
431.528	5619.63
431.736	6027.17
431.943	6391.71
432.15	6031.27
432.358	6242.21
432.565	6645.66
432.772	6383.52
432.979	6893.46
433.187	7108.5
433.394	6926.23
433.601	7481.23
433.808	7663.5
434.016	7489.42
434.223	7907.21
434.43	7993.22
434.637	7966.6
434.844	8667
435.052	8707.96
435.259	8701.82
435.466	8693.63
435.673	8808.31
435.88	9197.43
436.087	9695.08
436.294	9719.66
436.501	9566.06
436.708	9809.77
436.915	10108.77
437.122	10671.97
437.329	10438.5
437.537	10788.7
437.743	10997.59
437.95	10823.51
438.157	11468.62
438.364	11941.71
438.571	11769.68
438.778	11906.89
438.985	12707.65
439.192	12365.64
439.399	12734.27
439.606	12703.55
439.813	13301.56
440.02	13899.56
440.227	13631.28
440.433	13862.7
440.64	14333.73
440.847	14112.55
441.054	14397.22
441.261	15517.46
441.467	15159.06
441.674	15519.51
441.881	16137.99
442.088	16117.51
442.294	16072.46
442.501	16267.02
442.708	16957.18
442.914	17188.6
443.121	17856.24
443.328	17311.48
443.534	18859.74
443.741	18091.76
443.948	18118.38
444.154	19400.41
444.361	19269.34
444.568	19445.46
444.774	19113.69
444.981	19574.49
445.187	20031.18
445.394	20848.32
445.6	20526.79
445.807	22724.26
446.013	21923.51
446.22	21958.32
446.426	22970.02
446.633	23207.58
446.839	24188.56
447.046	22914.72
447.252	24360.59
447.459	24258.19
447.665	24293.01
447.871	25157.25
448.078	26484.33
448.284	25101.95
448.491	25826.93
448.697	26775.14
448.903	27246.18
449.11	27141.73
449.316	26930.79
449.522	27489.88
449.728	28071.51
449.935	28237.39
450.141	28245.58
450.347	28716.62
450.553	27932.25
450.76	28296.78
450.966	29675.07
451.172	28640.84
451.378	29699.64
451.584	28937.8
451.791	29773.37
451.997	29797.95
452.203	30215.73
452.409	30334.51
452.615	29951.54
452.821	28651.08
453.027	28663.37
453.233	30361.14
453.44	28812.87
453.646	29529.66
453.852	29736.51
454.058	29670.97
454.264	29083.2
454.47	29656.64
454.676	28823.11
454.882	30051.89
455.088	27272.8
455.294	27618.91
455.5	27852.37
455.705	27926.1
455.911	27194.98
456.117	26789.48
456.323	25970.29
456.529	24913.54
456.735	26252.91
456.941	25167.49
457.147	24696.46
457.352	24180.37
457.558	23828.12
457.764	23946.9
457.97	23654.04
458.176	22818.47
458.381	22818.47
458.587	21702.32
458.793	21860.02
458.999	20963.01
459.204	22044.34
459.41	21372.6
459.616	19887.82
459.821	20066
460.027	19969.74
460.233	19445.46
460.438	18497.25
460.644	18718.43
460.85	17929.97
461.055	17331.96
461.261	17532.66
461.466	16287.5
461.672	15771.41
461.878	16848.64
462.083	15582.99
462.289	15525.65
462.494	15189.78
462.7	14706.46
462.905	14253.86
463.111	14712.61
463.316	14876.44
463.522	14731.04
463.727	14522.15
463.932	14450.47
464.138	14460.71
464.343	14376.74
464.549	13961
464.754	14427.94
464.959	14315.3
465.165	14167.85
465.37	13424.44
465.575	13178.68
465.781	13752.11
465.986	13754.16
466.191	13293.37
466.397	13276.98
466.602	12568.38
466.807	12912.44
467.012	13031.23
467.218	12902.2
467.423	12803.9
467.628	12922.68
467.833	13268.79
468.038	12830.52
468.244	12271.43
468.449	12973.88
468.654	12431.17
468.859	12543.81
469.064	12400.45
469.269	11718.48
469.474	12134.21
469.679	12293.96
469.885	11773.77
470.09	12040.01
470.295	12207.94
470.5	11628.37
470.705	11941.71
470.91	11409.23
471.115	11210.58
471.32	11452.24
471.525	11677.52
471.73	11153.24
471.935	10938.2
472.139	10731.36
472.344	11054.94
472.549	10854.23
472.754	10592.09
472.959	10221.41
473.164	10127.21
473.369	9961.32
473.574	10493.79
473.778	10375.01
473.983	10090.34
474.188	10172.26
474.393	9766.76
474.598	9863.02
474.802	9518.96
475.007	9727.85
475.212	9641.84
475.417	9240.43
475.621	9232.24
475.826	9158.52
476.031	9084.79
476.235	8896.38
476.44	9084.79
476.645	9031.54
476.849	8898.42
477.054	8785.79
477.259	8718.2
477.463	8466.3
477.668	8499.07
477.872	8591.23
478.077	8380.29
478.282	8157.06
478.486	8169.35
478.691	8241.03
478.895	8005.51
479.1	8171.4
479.304	7726.99
479.509	7755.66
479.713	7976.84
479.918	7622.54
480.122	7722.89
480.326	7876.49
480.531	7749.51
480.735	7528.33
480.94	7473.04
481.144	7726.99
481.348	7516.05
481.553	7485.33
481.757	7464.85
481.961	7444.37
482.166	7483.28
482.37	7497.61
482.574	7325.58
482.778	7419.79
482.983	7569.29
483.187	7442.32
483.391	7456.65
483.595	7399.31
483.8	7477.13
484.004	7460.75
484.208	7430.03
484.412	7464.85
484.616	7524.24
484.821	7329.68
485.025	7450.51
485.229	7393.17
485.433	7352.21
485.637	7401.36
485.841	7258
486.045	7411.6
486.249	7436.17
486.453	7423.89
486.657	7391.12
486.861	7382.93
487.065	7214.99
487.269	7395.22
487.473	7329.68
487.677	7458.7
487.881	7567.24
488.085	7419.79
488.289	7587.72
488.493	7292.82
488.697	7575.44
488.901	7520.14
489.105	7530.38
489.309	7403.41
489.512	7401.36
489.716	7610.25
489.92	7477.13
490.124	7382.93
490.328	7462.8
490.531	7550.86
490.735	7548.81
490.939	7534.48
491.143	7669.64
491.346	7509.9
491.55	7630.73
491.754	7808.9
491.958	7757.71
492.161	7569.29
492.365	7749.51
492.569	7659.4
492.772	7747.47
492.976	7896.97
493.18	8097.67
493.383	8042.37
493.587	8009.61
493.79	8249.22
493.994	8114.05
494.197	8140.68
494.401	8175.49
494.605	8120.2
494.808	8357.76
495.012	8396.67
495.215	8292.23
495.419	8542.08
495.622	8617.85
495.825	8558.46
496.029	8476.54
496.232	8757.11
496.436	8660.86
496.639	9101.17
496.843	9049.97
497.046	9009.01
497.249	9170.8
497.453	9195.38
497.656	9324.4
497.859	9387.89
498.063	9592.69
498.266	9654.12
498.469	9682.8
498.673	9619.31
498.876	10045.29
499.079	9979.75
499.282	9869.16
499.485	10336.1
499.689	10063.72
499.892	10239.84
500.095	10438.5
500.298	10667.87
500.501	10626.91
500.705	10788.7
500.908	10747.74
501.111	11163.48
501.314	11218.77
501.517	11417.43
501.72	11343.7
501.923	11405.14
502.126	11652.94
502.329	11718.48
502.532	11771.72
502.735	11925.32
502.938	12244.81
503.141	12203.85
503.344	12336.96
503.547	12480.32
503.75	12533.57
503.953	12492.61
504.156	12916.54
504.359	12969.79
504.562	12922.68
504.765	13303.6
504.968	13348.66
505.17	13610.8
505.373	13741.87
505.576	13803.31
505.779	13979.43
505.982	13924.14
506.185	14303.01
506.387	14268.2
506.59	14356.26
506.793	14909.21
506.996	14874.4
507.198	14896.92
507.401	14958.36
507.604	15408.92
507.807	15382.29
508.009	15699.73
508.212	15421.2
508.415	15724.3
508.617	15912.72
508.82	16269.06
509.022	16021.26
509.225	16314.12
509.428	16453.38
509.63	16961.28
509.833	16789.25
510.035	17430.26
510.238	17071.87
510.44	17260.28
510.643	17698.55
510.845	17751.79
511.048	17757.94
511.25	17917.68
511.453	17987.31
511.655	18677.47
511.858	18599.65
512.06	18894.56
512.262	18970.33
512.465	18808.54
512.667	19070.68
512.87	19113.69
513.072	19345.11
513.274	19547.86
513.477	19621.59
513.679	19799.76
513.881	20059.85
514.084	20176.59
514.286	20166.35
514.488	20561.61
514.69	20860.61
514.893	21012.16
515.095	20809.41
515.297	21100.22
515.499	21317.31
515.701	21372.6
515.904	21651.13
516.106	21839.54
516.308	21911.22
516.51	22398.63
516.712	22163.12
516.914	22662.82
517.116	23051.94
517.318	22767.27
517.52	23254.69
517.722	22830.76
517.925	23475.87
518.127	23615.13
518.329	23555.74
518.531	23592.6
518.733	24288.91
518.935	24092.3
519.136	24272.53
519.338	24538.76
519.54	24352.4
519.742	24608.39
519.944	25011.84
520.146	25398.91
520.348	25353.85
520.55	25654.9
520.752	25484.92
520.954	25620.09
521.155	25851.51
521.357	26549.87
521.559	26228.34
521.761	26885.73
521.963	26271.34
522.164	26629.74
522.366	26599.02
522.568	27145.83
522.77	27131.49
522.971	27924.05
523.173	26904.17
523.375	27305.57
523.576	27332.19
523.778	27610.71
523.98	27952.73
524.181	28186.19
524.383	28081.75
524.584	28229.2
524.786	28399.18
524.988	28272.21
525.189	28335.7
525.391	28630.6
525.592	28325.46
525.794	28706.38
525.995	28741.19
526.197	28769.86
526.398	29054.53
526.6	28821.06
526.801	29294.14
527.003	29136.45
527.204	29283.91
527.406	29494.85
527.607	29615.68
527.808	29937.21
528.01	29107.78
528.211	29500.99
528.412	29990.45
528.614	29646.4
528.815	29763.13
529.016	30076.47
529.218	29627.96
529.419	29914.68
529.62	29711.93
529.822	29972.02
530.023	29754.94
530.224	30008.89
530.425	30342.7
530.626	29630.01
530.828	29916.73
531.029	30187.06
531.23	29853.24
531.431	30262.83
531.632	30043.7
531.833	30205.49
532.035	30010.93
532.236	30275.12
532.437	30080.56
532.638	30215.73
532.839	30402.1
533.04	30635.56
533.241	29886.01
533.442	30580.27
533.643	30377.52
533.844	30582.32
534.045	30172.72
534.246	30015.03
534.447	30150.2
534.648	30199.35
534.849	30234.16
535.05	29972.02
535.251	29822.52
535.451	30225.97
535.652	30191.16
535.853	30105.14
536.054	30506.54
536.255	30137.91
536.456	29855.29
536.657	30453.3
536.857	30170.68
537.058	30117.43
537.259	30350.9
537.46	30387.76
537.66	30041.65
537.861	30119.48
538.062	30103.09
538.263	30295.6
538.463	29926.97
538.664	29990.45
538.865	30111.28
539.065	30357.04
539.266	29799.99
539.466	30131.76
539.667	29900.34
539.868	30264.88
540.068	29810.23
540.269	30264.88
540.469	30195.25
540.67	30080.56
540.87	30250.55
541.071	29994.55
541.271	30311.99
541.472	30066.23
541.672	29554.24
541.873	29949.49
542.073	29486.65
542.274	30311.99
542.474	29941.3
542.675	29830.71
542.875	30238.26
543.075	29654.59
543.276	29902.39
543.476	30150.2
543.676	29851.19
543.877	30107.19
544.077	29683.26
544.277	29775.42
544.478	29957.69
544.678	29849.14
544.878	29871.67
545.078	29814.33
545.279	29544
545.479	29730.36
545.679	30010.93
545.879	30002.74
546.079	29750.84
546.28	29808.19
546.48	29756.99
546.68	30105.14
546.88	29517.37
547.08	29683.26
547.28	29697.59
547.48	29509.18
547.68	29290.05
547.88	29554.24
548.081	29953.59
548.281	29726.27
548.481	29294.14
548.681	29759.03
548.881	29705.79
549.081	29548.09
549.28	29351.49
549.48	29830.71
549.68	29494.85
549.88	30039.61
550.08	29355.58
550.28	29873.72
550.48	29699.64
550.68	29744.7
550.88	29601.34
551.08	29437.5
551.279	29763.13
551.479	29570.62
551.679	29548.09
551.879	29769.27
552.079	29476.41
552.278	29306.43
552.478	29718.07
552.678	29490.75
552.878	29414.98
553.077	29367.87
553.277	28835.4
553.477	29673.02
553.676	29533.76
553.876	29388.35
554.076	29349.44
554.275	29273.67
554.475	28880.46
554.674	29541.95
554.874	29296.19
555.074	29304.38
555.273	29298.24
555.473	29437.5
555.672	29062.72
555.872	29218.37
556.071	29068.87
556.271	29505.09
556.47	28974.66
556.67	29089.35
556.869	28937.8
557.068	29273.67
557.268	29269.57
557.467	29275.71
557.667	29056.58
557.866	29228.61
558.065	29134.4
558.265	28935.75
558.464	28894.79
558.663	29060.68
558.863	28853.83
559.062	29316.67
559.261	28833.35
559.461	29333.06
559.66	28493.39
559.859	28710.47
560.058	28718.67
560.258	28943.94
560.457	28767.82
560.656	29034.05
560.855	28995.14
561.054	28776.01
561.253	28534.35
561.453	28499.53
561.652	28864.07
561.851	28745.29
562.05	28642.89
562.249	28771.91
562.448	28683.85
562.647	28446.29
562.846	28540.49
563.045	28700.23
563.244	28298.83
563.443	28612.17
563.642	28434
563.841	28544.59
564.04	28368.46
564.239	28634.7
564.438	28175.95
564.637	28042.84
564.836	28327.5
565.035	28044.88
565.234	28532.3
565.432	28327.5
565.631	28071.51
565.83	28274.26
566.029	27848.28
566.228	28044.88
566.427	28149.33
566.625	28024.4
566.824	27977.3
567.023	27944.53
567.222	27721.3
567.42	28264.02
567.619	28204.63
567.818	28311.12
568.016	28210.77
568.215	28300.88
568.414	27799.13
568.612	28358.22
568.811	27965.01
569.01	27852.37
569.208	27575.9
569.407	27922.01
569.605	27690.59
569.804	27786.84
570.002	27596.38
570.201	27536.99
570.4	27862.61
570.598	27508.32
570.797	27473.5
570.995	27367.01
571.193	27027.04
571.392	27649.63
571.59	27455.07
571.789	27428.45
571.987	27299.42
572.186	27371.1
572.384	27199.07
572.582	27225.7
572.781	27250.27
572.979	27045.48
573.177	26979.94
573.376	27020.9
573.574	27221.6
573.772	27256.42
573.971	26904.17
574.169	26750.57
574.367	26574.44
574.565	26998.37
574.763	26971.75
574.962	27029.09
575.16	26664.55
575.358	26680.94
575.556	26486.38
575.754	27141.73
575.952	26457.71
576.151	26891.88
576.349	26553.96
576.547	26318.45
576.745	26629.74
576.943	26689.13
577.141	26205.81
577.339	26416.75
577.537	26588.78
577.735	26439.28
577.933	25982.58
578.131	26371.69
578.329	26050.16
578.527	26099.31
578.725	25867.89
578.923	26064.5
579.121	25929.33
579.319	26199.66
579.516	26117.75
579.714	26257.01
579.912	25572.99
580.11	25734.78
580.308	25904.76
580.506	25702.01
580.704	25370.24
580.901	25521.79
581.099	26097.27
581.297	25638.52
581.495	25362.04
581.692	25648.76
581.89	25269.89
582.088	25572.99
582.285	25388.67
582.483	25497.21
582.681	25259.65
582.878	25032.32
583.076	24505.99
583.274	25163.39
583.471	25169.54
583.669	24819.33
583.866	24919.68
584.064	25249.41
584.262	24546.95
584.459	24856.2
584.657	24825.48
584.854	25149.06
585.052	24450.7
585.249	24915.59
585.447	24768.13
585.644	24401.55
585.841	24663.69
586.039	24622.73
586.236	24250
586.434	24366.73
586.631	23871.12
586.828	24413.84
587.026	24084.11
587.223	24088.21
587.42	24235.66
587.618	24438.41
587.815	23914.13
588.012	23742.1
588.21	24008.34
588.407	24223.37
588.604	24061.58
588.801	23649.94
588.999	23873.17
589.196	23604.89
589.393	23516.83
589.59	23377.56
589.787	23582.36
589.984	23309.98
590.182	23299.74
590.379	23502.49
590.576	23295.64
590.773	23221.92
590.97	23367.32
591.167	23352.99
591.364	22763.17
591.561	23096.99
591.758	23039.65
591.955	22992.55
592.152	23111.33
592.349	23140
592.546	22738.6
592.743	23080.61
592.94	22423.21
593.137	22722.21
593.334	22689.45
593.531	22429.35
593.727	22539.94
593.924	22490.79
594.121	22152.88
594.318	22699.69
594.515	22101.68
594.712	22423.21
594.908	22197.93
595.105	22326.96
595.302	22273.71
595.499	22152.88
595.696	22382.25
595.892	21929.65
596.089	21962.42
596.286	22046.38
596.482	22113.97
596.679	22124.21
596.876	21743.28
597.072	21634.74
597.269	21943.99
597.466	21522.1
597.662	21206.72
597.859	21419.71
598.055	21780.15
598.252	21212.86
598.448	21644.98
598.645	21571.25
598.841	21345.98
599.038	21257.92
599.234	21307.07
599.431	21176
599.627	20932.29
599.824	21599.93
600.02	21032.64
600.217	21077.69
600.413	21046.97
600.609	20821.7
600.806	20932.29
601.002	21116.61
601.198	20717.25
601.395	20623.05
601.591	20717.25
601.787	20782.79
601.984	20743.88
602.18	20717.25
602.376	20524.74
602.572	20641.48
602.769	20532.93
602.965	20504.26
603.161	20313.8
603.357	20465.35
603.553	20092.62
603.75	20315.85
603.946	20133.58
604.142	20289.23
604.338	20055.76
604.534	19900.11
604.73	20008.65
604.926	19996.37
605.122	19902.16
605.318	19926.74
605.514	19891.92
605.71	19842.77
605.906	19488.47
606.102	19728.08
606.298	19721.94
606.494	19777.23
606.69	19992.27
606.886	19541.72
607.082	19572.44
607.278	19554.01
607.474	19381.98
607.67	19799.76
607.866	19287.77
608.062	19744.47
608.257	19560.15
608.453	19474.13
608.649	19463.89
608.845	19244.76
609.041	19488.47
609.236	19318.49
609.432	19316.44
609.628	19244.76
609.824	19216.09
610.019	18906.85
610.215	19386.07
610.411	19177.18
610.606	19103.45
610.802	19250.91
610.998	19013.34
611.193	19211.99
611.389	19005.15
611.584	19054.3
611.78	18818.78
611.976	19078.88
612.171	19111.64
612.367	19013.34
612.562	18900.7
612.758	18786.02
612.953	18796.26
613.149	19123.93
613.344	18634.47
613.539	19025.63
613.735	18990.81
613.93	18865.89
614.126	18718.43
614.321	18925.28
614.517	18994.91
614.712	18786.02
614.907	18812.64
615.103	18867.94
615.298	18685.67
615.493	18616.04
615.688	18525.93
615.884	18777.83
616.079	18308.84
616.274	18566.88
616.47	18683.62
616.665	18415.33
616.86	18444.01
617.055	18503.4
617.25	18552.55
617.445	18534.12
617.641	18161.39
617.836	18419.43
618.031	18056.94
618.226	18071.28
618.421	18263.79
618.616	18112.24
618.811	17868.53
619.006	18218.73
619.201	17745.65
619.396	17987.31
619.591	17755.89
619.786	17917.68
619.981	17469.17
620.176	17979.12
620.371	17723.12
620.566	17526.52
620.761	17469.17
620.956	17745.65
621.151	17182.46
621.346	17241.85
621.541	17139.45
621.735	17184.51
621.93	16924.41
622.125	17268.47
622.32	16633.6
622.515	16674.56
622.709	16963.33
622.904	16570.12
623.099	16641.79
623.294	16527.11
623.488	16430.85
623.683	16475.91
623.878	16174.86
624.072	16346.89
624.267	16482.05
624.462	16242.44
624.656	16127.75
624.851	15802.13
625.046	16041.74
625.24	15951.63
625.435	15845.13
625.629	15740.69
625.824	15886.09
626.018	15900.43
626.213	15429.4
626.407	15392.53
626.602	15488.79
626.796	15361.81
626.991	15308.57
627.185	15071
627.38	15148.82
627.574	14993.18
627.768	14800.67
627.963	14939.93
628.157	14862.11
628.352	14774.05
628.546	14376.74
628.74	14661.41
628.935	14425.89
629.129	14343.97
629.323	14182.18
629.517	14245.67
629.712	14161.7
629.906	14153.51
630.1	14069.55
630.294	14190.38
630.489	13958.95
630.683	13877.04
630.877	13825.84
631.071	13735.73
631.265	13891.37
631.459	13594.42
631.653	13496.11
631.848	13401.91
632.042	13346.61
632.236	13496.11
632.43	13207.35
632.624	13182.77
632.818	13225.78
633.012	12914.49
633.206	13172.53
633.4	13164.34
633.594	12969.79
633.788	12969.79
633.982	12916.54
634.176	12912.44
634.369	12691.26
634.563	12578.62
634.757	12492.61
634.951	12728.13
635.145	12420.93
635.339	12721.98
635.533	12506.95
635.726	12638.02
635.92	12414.79
636.114	12183.37
636.308	12146.5
636.501	12115.78
636.695	11925.32
636.889	11925.32
637.083	11777.87
637.276	11767.63
637.47	11802.44
637.664	11714.38
637.857	11745.1
638.051	11845.45
638.244	11556.69
638.438	11351.89
638.632	11523.92
638.825	11566.93
639.019	11411.28
639.212	11120.47
639.406	11392.85
639.599	11165.53
639.793	11200.34
639.986	10909.53
640.18	11200.34
640.373	11020.12
640.567	10981.21
640.76	10803.04
640.954	10710.88
641.147	10694.49
641.34	10581.85
641.534	10579.81
641.727	10571.61
641.92	10661.73
642.114	10334.05
642.307	10489.7
642.5	10395.49
642.694	10098.53
642.887	10168.16
643.08	10303.33
643.273	10213.22
643.467	9977.7
643.66	10094.44
643.853	10016.62
644.046	10110.82
644.239	9955.18
644.432	9770.86
644.626	9867.11
644.819	9598.83
645.012	9572.21
645.205	9594.73
645.398	9533.29
645.591	9568.11
645.784	9559.92
645.977	9293.68
646.17	9529.2
646.363	9203.57
646.556	9217.91
646.749	9236.34
646.942	9273.2
647.135	9090.93
647.328	8959.86
647.521	8949.62
647.714	8779.64
647.907	8959.86
648.099	8863.61
648.292	9009.01
648.485	8859.51
648.678	8869.75
648.871	8505.21
649.064	8738.68
649.256	8503.17
649.449	8550.27
649.642	8388.48
649.835	8406.91
650.027	8402.82
650.22	8349.57
650.413	8247.17
650.605	8281.99
650.798	8261.51
650.991	8066.95
651.183	8126.34
651.376	8112
651.568	8042.37
651.761	7870.34
651.954	8073.09
652.146	7899.02
652.339	7872.39
652.531	7700.36
652.724	7862.15
652.916	7692.17
653.109	7800.71
653.301	7892.87
653.494	7729.03
653.686	7516.05
653.879	7677.83
654.071	7389.07
654.263	7458.7
654.456	7518.09
654.648	7470.99
654.84	7278.48
655.033	7202.71
655.225	7348.11
655.417	7319.44
655.61	7206.8
655.802	7040.92
655.994	7079.83
656.186	7165.84
656.379	6938.52
656.571	7014.29
656.763	6797.21
656.955	6854.55
657.148	6965.14
657.34	7002.01
657.532	6668.19
657.724	6811.54
657.916	6692.76
658.108	6737.82
658.3	6856.6
658.492	6582.17
658.684	6588.32
658.876	6819.74
659.068	6541.21
659.26	6422.43
659.452	6307.74
659.644	6379.42
659.836	6383.52
660.028	6533.02
660.22	6195.11
660.412	6205.35
660.604	6262.69
660.796	6191.01
660.988	6158.24
661.18	6186.91
661.372	6039.46
661.563	6078.37
661.755	6092.71
661.947	6154.15
662.139	5941.16
662.331	5826.47
662.522	5930.92
662.714	5906.34
662.906	5836.71
663.097	5857.19
663.289	5668.78
663.481	5902.25
663.673	5722.02
663.864	5697.45
664.056	5709.74
664.247	5570.47
664.439	5525.42
664.631	5681.07
664.822	5687.21
665.014	5691.31
665.205	5437.36
665.397	5550
665.588	5425.07
665.78	5318.57
665.971	5380.01
666.163	5418.93
666.354	5449.64
666.546	5330.86
666.737	5199.79
666.929	5279.66
667.12	5220.27
667.311	5195.7
667.503	5158.83
667.694	5277.62
667.885	5130.16
668.077	5124.02
668.268	5154.74
668.459	5136.31
668.651	5115.83
668.842	5216.18
669.033	4978.61
669.224	4943.8
669.416	5142.45
669.607	4835.25
669.798	4992.95
669.989	4997.04
670.18	4954.04
670.371	4949.94
670.563	4874.17
670.754	4775.86
670.945	4827.06
671.136	4853.69
671.327	4798.39
671.518	4857.78
671.709	4927.41
671.9	4732.86
672.091	4906.93
672.282	4724.66
672.473	4722.62
672.664	4704.18
672.855	4769.72
673.046	4616.12
673.237	4548.54
673.428	4714.42
673.619	4722.62
673.809	4601.79
674	4767.67
674.191	4677.56
674.382	4585.4
674.573	4569.02
674.764	4493.24
674.954	4620.22
675.145	4513.72
675.336	4489.15
675.527	4530.11
675.717	4509.63
675.908	4374.46
676.099	4323.26
676.289	4536.25
676.48	4507.58
676.671	4310.97
676.861	4489.15
677.052	4450.24
677.243	4370.37
677.433	4341.69
677.624	4468.67
677.814	4376.51
678.005	4540.35
678.195	4353.98
678.386	4329.41
678.576	4227.01
678.767	4349.89
678.957	4306.88
679.148	4356.03
679.338	4419.52
679.529	4358.08
679.719	4272.06
679.909	4452.28
680.1	4442.04
680.29	4333.5
680.481	4200.38
680.671	4237.25
680.861	4290.49
681.052	4126.66
681.242	4263.87
681.432	4222.91
681.622	4263.87
681.813	4040.64
682.003	4220.86
682.193	4247.49
682.383	4261.82
682.573	4188.1
682.764	4155.33
682.954	4292.54
683.144	4327.36
683.334	4149.18
683.524	4216.77
683.714	4214.72
683.904	4081.6
684.094	4175.81
684.284	4220.86
684.474	4192.19
684.664	4181.95
684.854	4149.18
685.044	4095.94
685.234	4020.16
685.424	4177.86
685.614	4005.83
685.804	4011.97
685.994	4063.17
686.184	4169.66
686.374	4032.45
686.564	3880.9
686.753	4126.66
686.943	3868.61
687.133	4048.83
687.323	3968.96
687.513	4024.26
687.702	3971.01
687.892	4001.73
688.082	3887.04
688.272	3872.71
688.461	3966.92
688.651	4016.07
688.841	3905.48
689.03	3889.09
689.22	3864.52
689.41	3919.81
689.599	3889.09
689.789	3796.93
689.979	3796.93
690.168	3770.31
690.358	3788.74
690.547	3676.1
690.737	3776.45
690.926	3774.41
691.116	3731.4
691.305	3721.16
691.495	3585.99
691.684	3514.31
691.874	3520.46
692.063	3651.53
692.252	3645.38
692.442	3618.76
692.631	3555.27
692.82	3596.23
693.01	3672.01
693.199	3594.19
693.388	3434.44
693.578	3555.27
693.767	3723.21
693.956	3520.46
694.146	3557.32
694.335	3502.03
694.524	3532.75
694.713	3594.19
694.902	3592.14
695.092	3569.61
695.281	3502.03
695.47	3459.02
695.659	3583.95
695.848	3598.28
696.037	3409.87
696.226	3508.17
696.415	3508.17
696.604	3622.86
696.793	3559.37
696.982	3422.16
697.171	3624.9
697.36	3672.01
697.549	3475.4
697.738	3452.88
697.927	3534.79
698.116	3538.89
698.305	3581.9
698.494	3532.75
698.683	3459.02
698.872	3528.65
699.061	3659.72
699.25	3465.16
699.438	3555.27
699.627	3706.82
699.816	3502.03
700.005	3399.63
700.193	3491.79
700.382	3514.31
700.571	3588.04
700.76	3563.47
700.948	3612.62
701.137	3706.82
701.326	3534.79
701.514	3489.74
701.703	3678.15
701.892	3659.72
702.08	3647.43
702.269	3653.58
702.457	3602.38
702.646	3559.37
702.834	3698.63
703.023	3622.86
703.212	3598.28
703.4	3598.28
703.589	3598.28
703.777	3577.8
703.965	3592.14
704.154	3618.76
704.342	3538.89
704.531	3512.27
704.719	3542.99
704.907	3712.97
705.096	3665.86
705.284	3721.16
705.472	3774.41
705.661	3553.23
705.849	3715.02
706.037	3792.84
706.226	3661.77
706.414	3659.72
706.602	3639.24
706.79	3637.19
706.979	3596.23
707.167	3715.02
707.355	3674.06
707.543	3594.19
707.731	3540.94
707.919	3508.17
708.107	3684.3
708.296	3758.02
708.484	3700.68
708.672	3760.07
708.86	3665.86
709.048	3710.92
709.236	3629
709.424	3690.44
709.612	3706.82
709.8	3694.54
709.988	3682.25
710.176	3872.71
710.364	3624.9
710.551	3776.45
710.739	3610.57
710.927	3688.39
711.115	3569.61
711.303	3676.1
711.491	3725.26
711.679	3581.9
711.866	3547.08
712.054	3733.45
712.242	3837.89
712.43	3645.38
712.617	3694.54
712.805	3776.45
712.993	3796.93
713.181	3635.14
713.368	3803.08
713.556	3723.21
713.744	3575.75
713.931	3772.36
714.119	3694.54
714.306	3657.67
714.494	3805.13
714.682	3721.16
714.869	3655.62
715.057	3694.54
715.244	3663.82
715.432	3682.25
715.619	3741.64
715.807	3688.39
715.994	3577.8
716.182	3633.1
716.369	3567.56
716.556	3698.63
716.744	3506.12
716.931	3602.38
717.119	3641.29
717.306	3780.55
717.493	3620.81
717.681	3612.62
717.868	3592.14
718.055	3803.08
718.242	3663.82
718.43	3753.93
718.617	3643.34
718.804	3659.72
718.991	3850.18
719.179	3696.58
719.366	3735.49
719.553	3784.65
719.74	3817.41
719.927	3577.8
720.114	3594.19
720.301	3620.81
720.488	3637.19
720.676	3590.09
720.863	3778.5
721.05	3624.9
721.237	3708.87
721.424	3639.24
721.611	3641.29
721.798	3612.62
721.985	3565.51
722.172	3678.15
722.358	3733.45
722.545	3565.51
722.732	3618.76
722.919	3655.62
723.106	3637.19
723.293	3710.92
723.48	3696.58
723.667	3639.24
723.853	3727.3
724.04	3657.67
724.227	3686.34
724.414	3526.6
724.6	3635.14
724.787	3688.39
724.974	3700.68
725.161	3506.12
725.347	3608.52
725.534	3850.18
725.72	3497.93
725.907	3706.82
726.094	3559.37
726.28	3571.66
726.467	3618.76
726.653	3620.81
726.84	3590.09
727.027	3637.19
727.213	3526.6
727.4	3583.95
727.586	3612.62
727.773	3643.34
727.959	3536.84
728.145	3553.23
728.332	3667.91
728.518	3680.2
728.705	3635.14
728.891	3520.46
729.077	3436.49
729.264	3557.32
729.45	3620.81
729.636	3522.51
729.823	3471.31
730.009	3669.96
730.195	3590.09
730.382	3618.76
730.568	3547.08
730.754	3440.59
730.94	3532.75
731.126	3686.34
731.313	3475.4
731.499	3499.98
731.685	3485.64
731.871	3456.97
732.057	3434.44
732.243	3553.23
732.429	3475.4
732.615	3604.43
732.801	3616.71
732.987	3405.77
733.173	3545.03
733.359	3438.54
733.545	3510.22
733.731	3444.68
733.917	3387.34
734.103	3547.08
734.289	3362.76
734.475	3317.71
734.661	3526.6
734.847	3321.81
735.033	3471.31
735.219	3350.48
735.404	3289.04
735.59	3336.14
735.776	3303.37
735.962	3391.44
736.148	3342.28
736.333	3413.96
736.519	3266.51
736.705	3239.89
736.89	3266.51
737.076	3413.96
737.262	3217.36
737.447	3344.33
737.633	3286.99
737.819	3422.16
738.004	3248.08
738.19	3338.19
738.375	3139.54
738.561	3205.07
738.747	3289.04
738.932	3102.67
739.118	3168.21
739.303	3262.41
739.489	3223.5
739.674	3170.26
739.859	3141.58
740.045	3041.23
740.23	3178.45
740.416	3102.67
740.601	3198.93
740.786	3153.87
740.972	2977.75
741.157	3094.48
741.342	3145.68
741.528	3125.2
741.713	3082.19
741.898	3012.56
742.084	2977.75
742.269	2967.51
742.454	2899.92
742.639	2983.89
742.824	2942.93
743.01	3016.66
743.195	3076.05
743.38	2904.02
743.565	2928.6
743.75	2971.6
743.935	2897.88
744.12	3045.33
744.305	2844.63
744.49	2944.98
744.675	2924.5
744.86	2797.53
745.045	2996.18
745.23	2947.03
745.415	2807.77
745.6	2772.95
745.785	2748.37
745.97	2772.95
746.155	2762.71
746.34	2791.38
746.525	2662.36
746.71	2715.61
746.895	2658.26
747.079	2670.55
747.264	2723.8
747.449	2590.68
747.634	2662.36
747.819	2611.16
748.003	2676.7
748.188	2535.39
748.373	2482.14
748.557	2441.18
748.742	2580.44
748.927	2598.87
749.111	2486.23
749.296	2412.51
749.481	2498.52
749.665	2469.85
749.85	2459.61
750.034	2516.95
750.219	2482.14
750.404	2322.4
750.588	2412.51
750.773	2328.54
750.957	2432.99
751.141	2236.38
751.326	2230.24
751.51	2138.08
751.695	2258.91
751.879	2277.34
752.064	2310.11
752.248	2285.53
752.432	2310.11
752.617	2203.61
752.801	2209.76
752.985	2238.43
753.17	2164.7
753.354	2176.99
753.538	2019.3
753.722	2086.88
753.907	2197.47
754.091	2017.25
754.275	2076.64
754.459	1966.05
754.643	1972.19
754.828	1998.82
755.012	1992.67
755.196	2015.2
755.38	1873.89
755.564	1908.71
755.748	1904.61
755.932	2004.96
756.116	1959.91
756.3	1906.66
756.484	1755.11
756.668	1877.99
756.852	1787.88
757.036	1832.93
757.22	1814.5
757.404	1843.17
757.588	1669.09
757.772	1843.17
757.956	1818.6
758.14	1877.99
758.323	1748.97
758.507	1804.26
758.691	1687.53
758.875	1728.49
759.059	1789.92
759.242	1714.15
759.426	1685.48
759.61	1687.53
759.794	1626.09
759.977	1718.25
760.161	1640.42
760.345	1677.29
760.528	1677.29
760.712	1621.99
760.895	1617.9
761.079	1599.46
761.263	1535.98
761.446	1595.37
761.63	1667.05
761.813	1671.14
761.997	1621.99
762.18	1652.71
762.364	1615.85
762.547	1490.92
762.731	1456.11
762.914	1701.86
763.098	1570.79
763.281	1499.11
763.464	1433.58
763.648	1566.7
763.831	1521.64
764.015	1521.64
764.198	1486.83
764.381	1441.77
764.564	1433.58
764.748	1478.63
764.931	1556.46
765.114	1531.88
765.297	1474.54
765.481	1411.05
765.664	1376.23
765.847	1374.19
766.03	1540.07
766.213	1386.47
766.397	1419.24
766.58	1406.95
766.763	1398.76
766.946	1314.8
767.129	1345.52
767.312	1359.85
767.495	1452.01
767.678	1366
767.861	1415.15
768.044	1402.86
768.227	1329.13
768.41	1359.85
768.593	1294.32
768.776	1282.03
768.959	1384.43
769.142	1335.28
769.324	1212.4
769.507	1335.28
769.69	1343.47
769.873	1230.83
770.056	1454.06
770.239	1288.17
770.421	1241.07
770.604	1325.04
770.787	1296.36
770.97	1263.6
771.152	1226.73
771.335	1286.12
771.518	1181.68
771.7	1255.4
771.883	1300.46
772.066	1114.1
772.248	1228.78
772.431	1249.26
772.613	1183.73
772.796	1153.01
772.978	1241.07
773.161	1107.95
773.343	1132.53
773.526	1069.04
773.708	1064.94
773.891	1071.09
774.073	1169.39
774.256	1103.86
774.438	1144.81
774.621	1124.33
774.803	1103.86
774.985	1032.18
775.168	1144.81
775.35	1015.79
775.532	1140.72
775.715	1093.62
775.897	944.11
776.079	1101.81
776.261	995.31
776.444	1058.8
776.626	1015.79
776.808	1011.7
776.99	1034.22
777.173	1101.81
777.355	980.98
777.537	962.55
777.719	1083.38
777.901	1009.65
778.083	925.68
778.265	968.69
778.447	1009.65
778.629	925.68
778.811	1007.6
778.993	894.96
779.175	942.07
779.357	874.48
779.539	946.16
779.721	980.98
779.903	880.63
780.085	935.92
780.267	884.72
780.449	917.49
780.631	870.39
780.812	872.43
780.994	903.15
781.176	905.2
781.358	862.19
781.54	800.76
781.721	860.15
781.903	866.29
782.085	755.7
782.267	802.8
782.448	854
782.63	913.39
782.812	811
782.993	778.23
783.175	870.39
783.357	729.08
783.538	802.8
783.72	780.28
783.901	759.8
784.083	774.13
784.264	747.51
784.446	661.49
784.627	700.41
784.809	700.41
784.99	679.93
785.172	749.56
785.353	632.82
785.535	761.84
785.716	614.39
785.897	733.17
786.079	677.88
786.26	659.45
786.441	677.88
786.623	522.23
786.804	589.81
786.985	604.15
787.167	606.2
787.348	598.01
787.529	679.93
787.71	638.97
787.891	724.98
788.073	610.29
788.254	604.15
788.435	700.41
788.616	538.62
788.797	567.29
788.978	555
789.159	608.25
789.34	612.34
789.522	563.19
789.703	524.28
789.884	563.19
790.065	585.72
790.246	673.78
790.427	608.25
790.607	598.01
790.788	579.58
790.969	516.09
791.15	579.58
791.331	516.09
791.512	511.99
791.693	413.69
791.874	501.75
792.054	532.47
792.235	557.05
792.416	413.69
792.597	481.27
792.778	485.37
792.958	563.19
793.139	532.47
793.32	458.74
793.5	479.22
793.681	604.15
793.862	511.99
794.042	382.97
794.223	436.22
794.404	434.17
794.584	401.4
794.765	442.36
794.945	499.7
795.126	477.18
795.306	518.14
795.487	487.42
795.667	368.63
795.848	507.9
796.028	356.35
796.209	411.64
796.389	473.08
796.57	395.26
796.75	317.44
796.93	432.12
797.111	337.91
797.291	456.7
797.471	411.64
797.652	380.92
797.832	393.21
798.012	391.16
798.192	335.87
798.373	372.73
798.553	342.01
798.733	385.02
798.913	430.07
799.093	309.24
799.274	460.79
799.454	364.54
799.634	415.74
799.814	378.87
799.994	403.45
800.174	319.48
800.354	436.22
800.534	346.11
800.714	415.74
800.894	335.87
801.074	292.86
801.254	309.24
801.434	481.27
801.614	385.02
801.794	266.24
801.974	1185.77
802.154	339.96
802.334	391.16
802.514	219.13
802.693	333.82
802.873	208.89
803.053	393.21
803.233	303.1
803.413	354.3
803.592	366.59
803.772	290.81
803.952	288.76
804.131	262.14
804.311	319.48
804.491	364.54
804.67	253.95
804.85	241.66
805.03	327.67
805.209	370.68
805.389	301.05
805.568	278.52
805.748	311.29
805.928	313.34
806.107	358.39
806.287	296.96
806.466	325.63
806.646	317.44
806.825	280.57
807.004	348.15
807.184	366.59
807.363	282.62
807.543	299
807.722	243.71
807.901	299
808.081	335.87
808.26	284.67
808.439	278.52
808.619	286.72
808.798	268.28
808.977	331.77
809.156	327.67
809.336	229.37
809.515	329.72
809.694	286.72
809.873	272.38
810.052	268.28
810.231	262.14
810.411	229.37
810.59	296.96
810.769	266.24
810.948	270.33
811.127	167.93
811.306	260.09
811.485	192.51
811.664	329.72
811.843	204.8
812.022	258.04
812.201	249.85
812.38	272.38
812.559	172.03
812.737	303.1
812.916	165.89
813.095	106.49
813.274	227.32
813.453	182.27
813.632	331.77
813.811	262.14
813.989	202.75
814.168	194.56
814.347	153.6
814.526	202.75
814.704	264.19
814.883	253.95
815.062	176.13
815.24	309.24
815.419	190.46
815.598	174.08
815.776	149.5
815.955	176.13
816.133	155.65
816.312	276.48
816.49	137.21
816.669	206.84
816.847	237.56
817.026	202.75
817.204	86.01
817.383	243.71
817.561	178.17
817.74	245.76
817.918	208.89
818.097	208.89
818.275	81.92
818.453	241.66
818.632	204.8
818.81	104.45
818.988	96.25
819.167	178.17
819.345	163.84
819.523	210.94
819.701	94.21
819.879	131.07
820.058	276.48
820.236	208.89
820.414	157.69
820.592	196.6
820.77	110.59
820.948	133.12
821.127	186.37
821.305	110.59
821.483	131.07
821.661	231.42
821.839	174.08
822.017	139.26
822.195	157.69
822.373	188.41
822.551	192.51
822.729	223.23
822.907	167.93
823.085	112.64
823.262	135.17
823.44	159.74
823.618	137.21
823.796	124.93
823.974	225.28
824.152	178.17
824.329	77.82
824.507	180.22
824.685	243.71
824.863	137.21
825.04	112.64
825.218	104.45
825.396	137.21
825.574	120.83
825.751	106.49
825.929	204.8
826.107	86.01
826.284	176.13
826.462	149.5
826.639	79.87
826.817	59.39
826.994	96.25
827.172	49.15
827.349	215.04
827.527	94.21
827.704	133.12
827.882	157.69
828.059	129.02
828.237	118.78
828.414	131.07
828.591	63.49
828.769	155.65
828.946	38.91
829.124	88.06
829.301	147.45
829.478	92.16
829.655	110.59
829.833	141.31
830.01	69.63
830.187	96.25
830.364	92.16
830.542	96.25
830.719	151.55
830.896	104.45
831.073	139.26
831.25	172.03
831.427	202.75
831.604	43.01
831.782	116.73
831.959	110.59
832.136	94.21
832.313	81.92
832.49	98.3
832.667	137.21
832.844	88.06
833.021	122.88
833.198	126.97
833.374	137.21
833.551	73.73
833.728	90.11
833.905	129.02
834.082	55.3
834.259	32.77
834.436	94.21
834.612	73.73
834.789	192.51
834.966	45.06
835.143	61.44
835.319	75.77
835.496	51.2
835.673	188.41
835.85	112.64
836.026	94.21
836.203	88.06
836.38	151.55
836.556	47.1
836.733	30.72
836.909	129.02
837.086	59.39
837.262	22.53
837.439	83.97
837.616	-12.29
837.792	124.93
837.968	94.21
838.145	-8.19
838.321	-16.38
838.498	112.64
838.674	77.82
838.851	14.34
839.027	71.68
839.203	112.64
839.38	124.93
839.556	43.01
839.732	94.21
839.909	49.15
840.085	65.53
840.261	-20.48
840.437	53.25
840.614	30.72
840.79	81.92
840.966	24.58
841.142	182.27
841.318	61.44
841.494	120.83
841.671	67.58
841.847	14.34
842.023	40.96
842.199	86.01
842.375	194.56
842.551	22.53
842.727	12.29
842.903	180.22
843.079	63.49
843.255	104.45
843.431	79.87
843.607	79.87
843.783	30.72
843.959	120.83
844.134	59.39
844.31	81.92
844.486	-55.3
844.662	-83.97
844.838	38.91
845.013	104.45
845.189	116.73
845.365	96.25
845.541	34.82
845.716	137.21
845.892	118.78
846.068	28.67
846.244	45.06
846.419	36.86
846.595	32.77
846.77	-20.48
846.946	102.4
847.122	-24.58
847.297	40.96
847.473	172.03
847.648	-6.14
847.824	102.4
847.999	-12.29
848.175	47.1
848.35	102.4
848.526	6.14
848.701	120.83
848.876	100.35
849.052	12.29
849.227	32.77
849.403	-20.48
849.578	67.58
849.753	38.91
849.929	106.49
850.104	36.86
850.279	40.96
850.454	75.77
850.63	53.25
850.805	-20.48
850.98	49.15
851.155	0
851.33	73.73
851.505	65.53
851.681	114.69
851.856	20.48
852.031	20.48
852.206	-2.05
852.381	22.53
852.556	8.19
852.731	20.48
852.906	53.25
853.081	90.11
853.256	88.06
853.431	32.77
853.606	12.29
853.781	-47.1
853.956	-104.45
854.131	67.58
854.305	-20.48
854.48	-34.82
854.655	36.86
854.83	38.91
855.005	-57.34
855.18	43.01
855.354	30.72
855.529	0
855.704	83.97
855.879	47.1
856.053	-6.14
856.228	8.19
856.403	6.14
856.577	71.68
856.752	6.14
856.926	6.14
857.101	4.1
857.276	61.44
857.45	30.72
857.625	94.21
857.799	30.72
857.974	12.29
858.148	-47.1
858.323	83.97
858.497	40.96
858.672	8.19
858.846	-16.38
859.02	71.68
859.195	-30.72
859.369	49.15
859.543	-8.19
859.718	63.49
859.892	4.1
860.066	18.43
860.241	-4.1
860.415	-28.67
860.589	0
860.763	-18.43
860.938	49.15
861.112	-75.77
861.286	20.48
861.46	59.39
861.634	-20.48
861.808	61.44
861.982	36.86
862.157	-22.53
862.331	-16.38
862.505	-47.1
862.679	-106.49
862.853	-10.24
863.027	22.53
863.201	69.63
863.375	53.25
863.549	57.34
863.722	34.82
863.896	-57.34
864.07	-20.48
864.244	14.34
864.418	12.29
864.592	-14.34
864.766	-6.14
864.939	18.43
865.113	-49.15
865.287	24.58
865.461	-45.06
865.634	114.69
865.808	10.24
865.982	-49.15
866.156	0
866.329	-24.58
866.503	-22.53
866.676	63.49
866.85	22.53
867.024	18.43
867.197	24.58
867.371	6.14
867.544	43.01
867.718	30.72
867.891	-63.49
868.065	-10.24
868.238	143.36
868.412	34.82
868.585	49.15
868.759	-36.86
868.932	-6.14
869.105	-4.1
869.279	126.97
869.452	-51.2
869.625	-14.34
869.799	6.14
869.972	-61.44
870.145	-51.2
870.319	75.77
870.492	2.05
870.665	83.97
870.838	34.82
871.011	-83.97
871.185	71.68
871.358	-14.34
871.531	20.48
871.704	-32.77
871.877	-40.96
872.05	-40.96
872.223	20.48
872.396	34.82
872.569	38.91
872.742	-43.01
872.915	55.3
873.088	43.01
873.261	-43.01
873.434	49.15
873.607	-20.48
873.78	30.72
873.953	-73.73
874.126	47.1
874.299	34.82
874.471	-28.67
874.644	18.43
874.817	-4.1
874.99	77.82
875.163	-30.72
875.335	22.53
875.508	8.19
875.681	8.19
875.853	-38.91
876.026	71.68
876.199	2.05
876.371	14.34
876.544	-67.58
876.717	8.19
876.889	-14.34
877.062	-26.62
877.234	-12.29
877.407	-32.77
877.579	0
877.752	8.19
877.924	34.82
878.097	22.53
878.269	69.63
878.442	-18.43
878.614	98.3
878.786	43.01
878.959	8.19
879.131	10.24
879.303	-65.54
879.476	-43.01
879.648	20.48
879.82	16.38
879.993	-30.72
880.165	-61.44
880.337	63.49
880.509	-61.44
880.681	-24.58
880.854	8.19
881.026	24.58
881.198	38.91
881.37	45.06
881.542	71.68
881.714	-24.58
881.886	-2.05
882.058	-2.05
882.23	34.82
882.402	10.24
882.574	45.06
882.746	14.34
882.918	67.58
883.09	-55.3
883.262	8.19
883.434	16.38
883.606	-120.83
883.778	-14.34
883.95	55.3
884.122	6.14
884.293	30.72
884.465	30.72
884.637	47.1
884.809	-22.53
884.98	51.2
885.152	6.14
885.324	-12.29
885.496	-36.86
885.667	10.24
885.839	-47.1
886.011	120.83
886.182	38.91
886.354	47.1
886.525	-8.19
886.697	77.82
886.869	-4.1
887.04	32.77
887.212	2.05
887.383	53.25
887.555	-36.86
887.726	-6.14
887.897	-79.87
888.069	-4.1
888.24	8.19
888.412	18.43
888.583	-2.05
888.754	49.15
888.926	-96.25
889.097	-22.53
889.268	-65.54
889.44	16.38
889.611	-92.16
889.782	12.29
889.953	14.34
890.125	-12.29
890.296	38.91
890.467	-49.15
890.638	-24.58
890.809	-47.1
890.98	-81.92
891.151	-16.38
891.323	81.92
891.494	-2.05
891.665	-28.67
891.836	40.96
892.007	10.24
892.178	0
892.349	-24.58
892.52	-18.43
892.691	24.58
892.862	-8.19
893.032	-102.4
893.203	-24.58
893.374	24.58
893.545	14.34
893.716	-32.77
893.887	18.43
894.057	-47.1
894.228	43.01
894.399	-6.14
894.57	34.82
894.74	20.48
894.911	-14.34
895.082	22.53
895.253	2.05
895.423	30.72
895.594	-22.53
895.764	-61.44
895.935	-26.62
896.106	49.15
896.276	10.24
896.447	18.43
896.617	-16.38
896.788	-51.2
896.958	10.24
897.129	-65.54
897.299	-67.58
897.47	57.34
897.64	10.24
897.81	-4.1
897.981	81.92
898.151	-73.73
898.322	10.24
898.492	26.62
898.662	-26.62
898.832	-53.25
899.003	-4.1
899.173	0
899.343	-16.38
899.513	-71.68
