Data from USB4F104151__97__12-13-18-598.txt Node

Date: Fri Mar 14 12:13:18 EDT 2025
User: louis
Spectrometer: USB4F10415
Trigger mode: 4
Integration Time (sec): 5.000000E-2
Scans to average: 1
Electric dark correction enabled: true
Nonlinearity correction enabled: false
Boxcar width: 0
XAxis mode: Wavelengths
Number of Pixels in Spectrum: 3648
>>>>>Begin Spectral Data<<<<<
178.204	-283.98
178.424	-283.98
178.644	-283.98
178.864	-230.74
179.084	-218.45
179.304	-9.56
179.524	6.83
179.744	8.87
179.964	64.17
180.184	25.26
180.404	-89.43
180.624	45.74
180.844	41.64
181.064	-40.28
181.283	-44.37
181.503	6.83
181.723	-15.7
181.943	-91.48
182.163	105.13
182.383	-46.42
182.602	76.46
182.822	62.12
183.042	-27.99
183.262	-7.51
183.482	-23.89
183.701	-13.65
183.921	101.03
184.141	0.68
184.361	-40.28
184.58	23.21
184.8	33.45
185.02	-27.99
185.239	47.79
185.459	31.4
185.679	111.27
185.898	0.68
186.118	105.13
186.338	-21.85
186.557	58.03
186.777	-83.28
186.997	17.07
187.216	31.4
187.436	152.23
187.655	74.41
187.875	76.46
188.095	10.92
188.314	88.75
188.534	45.74
188.753	10.92
188.973	51.88
189.192	125.61
189.412	-7.51
189.631	-11.61
189.851	53.93
190.07	94.89
190.29	-42.32
190.509	-7.51
190.729	-17.75
190.948	51.88
191.168	191.14
191.387	66.22
191.607	-36.18
191.826	96.94
192.045	-54.61
192.265	19.11
192.484	-9.56
192.704	-1.37
192.923	10.92
193.142	111.27
193.362	-25.94
193.581	137.9
193.8	-46.42
194.02	119.46
194.239	27.31
194.458	76.46
194.678	-25.94
194.897	64.17
195.116	21.16
195.335	76.46
195.555	64.17
195.774	70.31
195.993	-15.7
196.212	31.4
196.432	-11.61
196.651	-13.65
196.87	-23.89
197.089	80.55
197.308	58.03
197.528	72.36
197.747	0.68
197.966	68.27
198.185	55.98
198.404	-34.13
198.623	21.16
198.842	109.23
199.062	35.5
199.281	131.75
199.5	72.36
199.719	10.92
199.938	21.16
200.157	39.59
200.376	49.83
200.595	31.4
200.814	53.93
201.033	41.64
201.252	0.68
201.471	15.02
201.69	41.64
201.909	105.13
202.128	125.61
202.347	41.64
202.566	53.93
202.785	31.4
203.004	-44.37
203.223	107.18
203.442	0.68
203.661	-11.61
203.879	78.51
204.098	62.12
204.317	-21.85
204.536	62.12
204.755	19.11
204.974	94.89
205.193	15.02
205.411	176.81
205.63	101.03
205.849	27.31
206.068	-42.32
206.287	-30.04
206.505	47.79
206.724	21.16
206.943	43.69
207.162	-52.56
207.381	88.75
207.599	-21.85
207.818	39.59
208.037	70.31
208.255	23.21
208.474	-11.61
208.693	8.87
208.911	47.79
209.13	141.99
209.349	90.79
209.567	43.69
209.786	80.55
210.005	178.86
210.223	98.99
210.442	-5.46
210.661	55.98
210.879	-36.18
211.098	53.93
211.316	-11.61
211.535	-15.7
211.753	6.83
211.972	33.45
212.191	31.4
212.409	21.16
212.628	88.75
212.846	-21.85
213.065	98.99
213.283	103.08
213.502	-13.65
213.72	-21.85
213.938	68.27
214.157	8.87
214.375	117.42
214.594	86.7
214.812	-23.89
215.031	76.46
215.249	6.83
215.467	64.17
215.686	35.5
215.904	94.89
216.122	92.84
216.341	125.61
216.559	117.42
216.778	39.59
216.996	70.31
217.214	-1.37
217.432	78.51
217.651	-7.51
217.869	68.27
218.087	-44.37
218.306	72.36
218.524	-7.51
218.742	-17.75
218.96	49.83
219.179	23.21
219.397	19.11
219.615	72.36
219.833	70.31
220.051	4.78
220.27	55.98
220.488	31.4
220.706	-62.8
220.924	6.83
221.142	29.35
221.36	29.35
221.578	45.74
221.796	-1.37
222.015	4.78
222.233	68.27
222.451	103.08
222.669	51.88
222.887	2.73
223.105	-44.37
223.323	10.92
223.541	-79.19
223.759	-1.37
223.977	-42.32
224.195	125.61
224.413	25.26
224.631	58.03
224.849	23.21
225.067	88.75
225.285	0.68
225.503	-38.23
225.721	-36.18
225.939	25.26
226.157	51.88
226.375	207.53
226.592	27.31
226.81	19.11
227.028	53.93
227.246	55.98
227.464	25.26
227.682	125.61
227.9	15.02
228.117	29.35
228.335	37.55
228.553	10.92
228.771	96.94
228.989	12.97
229.206	86.7
229.424	31.4
229.642	-9.56
229.86	-7.51
230.077	72.36
230.295	-75.09
230.513	60.07
230.731	43.69
230.948	74.41
231.166	37.55
231.384	0.68
231.601	6.83
231.819	82.6
232.037	-91.48
232.254	6.83
232.472	-3.41
232.689	29.35
232.907	154.28
233.125	-38.23
233.342	-68.95
233.56	47.79
233.777	-42.32
233.995	43.69
234.213	115.37
234.43	12.97
234.648	27.31
234.865	23.21
235.083	58.03
235.3	74.41
235.518	15.02
235.735	109.23
235.953	60.07
236.17	62.12
236.388	25.26
236.605	33.45
236.822	55.98
237.04	121.51
237.257	-7.51
237.475	-11.61
237.692	39.59
237.909	39.59
238.127	53.93
238.344	141.99
238.562	-17.75
238.779	4.78
238.996	21.16
239.214	-3.41
239.431	101.03
239.648	6.83
239.865	90.79
240.083	86.7
240.3	21.16
240.517	-23.89
240.735	4.78
240.952	55.98
241.169	82.6
241.386	74.41
241.603	92.84
241.821	10.92
242.038	10.92
242.255	4.78
242.472	-11.61
242.689	76.46
242.907	113.32
243.124	37.55
243.341	55.98
243.558	-9.56
243.775	19.11
243.992	-38.23
244.209	49.83
244.426	109.23
244.643	4.78
244.86	12.97
245.078	64.17
245.295	-34.13
245.512	105.13
245.729	-25.94
245.946	19.11
246.163	51.88
246.38	-19.8
246.597	21.16
246.814	62.12
247.031	43.69
247.248	60.07
247.464	55.98
247.681	37.55
247.898	-11.61
248.115	27.31
248.332	25.26
248.549	-17.75
248.766	80.55
248.983	86.7
249.2	10.92
249.417	23.21
249.633	-58.71
249.85	49.83
250.067	31.4
250.284	49.83
250.501	55.98
250.717	35.5
250.934	4.78
251.151	33.45
251.368	25.26
251.585	68.27
251.801	47.79
252.018	-11.61
252.235	80.55
252.451	0.68
252.668	-13.65
252.885	125.61
253.102	23.21
253.318	-32.08
253.535	-73.04
253.752	70.31
253.968	31.4
254.185	23.21
254.401	53.93
254.618	17.07
254.835	53.93
255.051	92.84
255.268	51.88
255.484	12.97
255.701	60.07
255.917	72.36
256.134	-19.8
256.351	-9.56
256.567	17.07
256.784	43.69
257	-11.61
257.217	62.12
257.433	55.98
257.65	43.69
257.866	115.37
258.082	37.55
258.299	-64.85
258.515	55.98
258.732	-17.75
258.948	-48.47
259.165	51.88
259.381	47.79
259.597	-7.51
259.814	72.36
260.03	47.79
260.246	68.27
260.463	94.89
260.679	49.83
260.895	21.16
261.112	107.18
261.328	35.5
261.544	-34.13
261.761	152.23
261.977	60.07
262.193	0.68
262.409	33.45
262.626	92.84
262.842	37.55
263.058	12.97
263.274	21.16
263.49	15.02
263.707	74.41
263.923	6.83
264.139	-23.89
264.355	17.07
264.571	105.13
264.787	80.55
265.004	123.56
265.22	21.16
265.436	-5.46
265.652	25.26
265.868	-54.61
266.084	-27.99
266.3	2.73
266.516	-25.94
266.732	-7.51
266.948	49.83
267.164	6.83
267.38	47.79
267.596	82.6
267.812	154.28
268.028	23.21
268.244	17.07
268.46	27.31
268.676	10.92
268.892	-9.56
269.108	-40.28
269.324	21.16
269.54	-30.04
269.756	80.55
269.972	-68.95
270.188	47.79
270.403	51.88
270.619	-13.65
270.835	17.07
271.051	-13.65
271.267	-17.75
271.483	-11.61
271.698	35.5
271.914	35.5
272.13	33.45
272.346	-36.18
272.562	41.64
272.777	55.98
272.993	-7.51
273.209	-27.99
273.425	60.07
273.64	-27.99
273.856	62.12
274.072	-3.41
274.287	-13.65
274.503	80.55
274.719	49.83
274.934	2.73
275.15	-54.61
275.366	51.88
275.581	-3.41
275.797	15.02
276.012	51.88
276.228	41.64
276.444	45.74
276.659	98.99
276.875	-7.51
277.09	39.59
277.306	-32.08
277.521	51.88
277.737	2.73
277.952	78.51
278.168	6.83
278.383	121.51
278.599	90.79
278.814	51.88
279.03	-11.61
279.245	105.13
279.461	70.31
279.676	80.55
279.892	10.92
280.107	-5.46
280.322	10.92
280.538	-40.28
280.753	-25.94
280.969	101.03
281.184	82.6
281.399	29.35
281.615	-11.61
281.83	6.83
282.045	-73.04
282.26	-17.75
282.476	15.02
282.691	84.65
282.906	0.68
283.122	41.64
283.337	55.98
283.552	80.55
283.767	-50.52
283.983	62.12
284.198	29.35
284.413	55.98
284.628	-9.56
284.843	47.79
285.058	117.42
285.274	62.12
285.489	-73.04
285.704	101.03
285.919	-52.56
286.134	10.92
286.349	23.21
286.564	-11.61
286.779	94.89
286.995	25.26
287.21	-38.23
287.425	31.4
287.64	82.6
287.855	39.59
288.07	-19.8
288.285	45.74
288.5	117.42
288.715	125.61
288.93	-15.7
289.145	51.88
289.36	31.4
289.575	33.45
289.79	105.13
290.004	51.88
290.219	88.75
290.434	47.79
290.649	0.68
290.864	74.41
291.079	2.73
291.294	41.64
291.509	-3.41
291.724	80.55
291.938	-7.51
292.153	41.64
292.368	62.12
292.583	-13.65
292.798	35.5
293.012	74.41
293.227	68.27
293.442	41.64
293.657	-5.46
293.871	96.94
294.086	2.73
294.301	113.32
294.516	103.08
294.73	10.92
294.945	29.35
295.16	25.26
295.374	74.41
295.589	82.6
295.804	-15.7
296.018	60.07
296.233	17.07
296.447	27.31
296.662	37.55
296.877	55.98
297.091	72.36
297.306	60.07
297.52	23.21
297.735	-9.56
297.949	25.26
298.164	107.18
298.378	41.64
298.593	-42.32
298.807	45.74
299.022	27.31
299.236	92.84
299.451	12.97
299.665	45.74
299.88	19.11
300.094	78.51
300.309	15.02
300.523	10.92
300.737	64.17
300.952	39.59
301.166	8.87
301.381	45.74
301.595	41.64
301.809	43.69
302.024	84.65
302.238	37.55
302.452	115.37
302.667	0.68
302.881	37.55
303.095	33.45
303.309	12.97
303.524	47.79
303.738	96.94
303.952	25.26
304.166	47.79
304.381	-11.61
304.595	84.65
304.809	-83.28
305.023	72.36
305.237	-3.41
305.452	-48.47
305.666	31.4
305.88	51.88
306.094	82.6
306.308	86.7
306.522	58.03
306.736	35.5
306.95	82.6
307.164	-95.57
307.379	45.74
307.593	115.37
307.807	23.21
308.021	107.18
308.235	-25.94
308.449	4.78
308.663	25.26
308.877	139.94
309.091	82.6
309.305	88.75
309.519	-44.37
309.733	43.69
309.947	-50.52
310.161	66.22
310.374	21.16
310.588	47.79
310.802	19.11
311.016	-60.76
311.23	33.45
311.444	-1.37
311.658	4.78
311.872	107.18
312.085	105.13
312.299	51.88
312.513	76.46
312.727	107.18
312.941	31.4
313.154	29.35
313.368	84.65
313.582	4.78
313.796	45.74
314.009	31.4
314.223	105.13
314.437	-23.89
314.651	47.79
314.864	-52.56
315.078	0.68
315.292	43.69
315.505	62.12
315.719	74.41
315.933	68.27
316.146	94.89
316.36	-48.47
316.573	76.46
316.787	-44.37
317.001	103.08
317.214	64.17
317.428	23.21
317.641	37.55
317.855	-3.41
318.068	70.31
318.282	23.21
318.495	162.47
318.709	39.59
318.922	25.26
319.136	80.55
319.349	94.89
319.563	23.21
319.776	90.79
319.99	-85.33
320.203	64.17
320.417	4.78
320.63	164.52
320.843	6.83
321.057	76.46
321.27	-56.66
321.483	76.46
321.697	113.32
321.91	51.88
322.124	31.4
322.337	-3.41
322.55	-40.28
322.763	-48.47
322.977	8.87
323.19	10.92
323.403	29.35
323.617	-32.08
323.83	51.88
324.043	12.97
324.256	55.98
324.469	0.68
324.683	31.4
324.896	53.93
325.109	58.03
325.322	19.11
325.535	135.85
325.748	6.83
325.962	-58.71
326.175	49.83
326.388	51.88
326.601	55.98
326.814	27.31
327.027	68.27
327.24	25.26
327.453	-23.89
327.666	66.22
327.879	76.46
328.092	72.36
328.305	78.51
328.518	-11.61
328.731	58.03
328.944	31.4
329.157	60.07
329.37	49.83
329.583	31.4
329.796	72.36
330.009	-27.99
330.222	96.94
330.435	62.12
330.648	49.83
330.861	21.16
331.073	12.97
331.286	129.7
331.499	37.55
331.712	37.55
331.925	41.64
332.138	12.97
332.35	72.36
332.563	45.74
332.776	47.79
332.989	23.21
333.202	49.83
333.414	23.21
333.627	21.16
333.84	-9.56
334.053	68.27
334.265	8.87
334.478	39.59
334.691	-17.75
334.903	58.03
335.116	29.35
335.329	39.59
335.541	66.22
335.754	49.83
335.966	-11.61
336.179	-3.41
336.392	-5.46
336.604	60.07
336.817	66.22
337.029	70.31
337.242	84.65
337.454	96.94
337.667	37.55
337.88	121.51
338.092	21.16
338.305	51.88
338.517	-38.23
338.729	37.55
338.942	107.18
339.154	45.74
339.367	10.92
339.579	152.23
339.792	-68.95
340.004	55.98
340.217	43.69
340.429	23.21
340.641	-15.7
340.854	-21.85
341.066	-9.56
341.278	62.12
341.491	78.51
341.703	-3.41
341.915	39.59
342.128	37.55
342.34	96.94
342.552	58.03
342.764	8.87
342.977	12.97
343.189	51.88
343.401	88.75
343.613	25.26
343.826	-40.28
344.038	23.21
344.25	4.78
344.462	47.79
344.674	82.6
344.886	47.79
345.099	-17.75
345.311	49.83
345.523	-9.56
345.735	-56.66
345.947	29.35
346.159	109.23
346.371	0.68
346.583	25.26
346.795	213.67
347.007	4.78
347.219	84.65
347.431	15.02
347.643	17.07
347.855	17.07
348.067	117.42
348.279	82.6
348.491	66.22
348.703	4.78
348.915	-25.94
349.127	25.26
349.339	-7.51
349.551	-1.37
349.763	131.75
349.975	68.27
350.187	107.18
350.399	-1.37
350.61	82.6
350.822	10.92
351.034	94.89
351.246	-52.56
351.458	23.21
351.669	45.74
351.881	-15.7
352.093	37.55
352.305	121.51
352.517	-7.51
352.728	53.93
352.94	33.45
353.152	88.75
353.363	-42.32
353.575	64.17
353.787	125.61
353.999	123.56
354.21	92.84
354.422	119.46
354.633	60.07
354.845	123.56
355.057	70.31
355.268	0.68
355.48	103.08
355.692	6.83
355.903	19.11
356.115	21.16
356.326	-58.71
356.538	127.66
356.749	33.45
356.961	170.66
357.172	43.69
357.384	2.73
357.595	113.32
357.807	39.59
358.018	43.69
358.23	-34.13
358.441	125.61
358.653	60.07
358.864	82.6
359.075	0.68
359.287	6.83
359.498	113.32
359.709	39.59
359.921	21.16
360.132	119.46
360.344	4.78
360.555	0.68
360.766	29.35
360.977	4.78
361.189	113.32
361.4	-25.94
361.611	109.23
361.823	148.14
362.034	78.51
362.245	-40.28
362.456	17.07
362.667	51.88
362.879	27.31
363.09	90.79
363.301	80.55
363.512	66.22
363.723	92.84
363.935	31.4
364.146	39.59
364.357	43.69
364.568	17.07
364.779	-46.42
364.99	80.55
365.201	-1.37
365.412	49.83
365.623	29.35
365.834	39.59
366.045	-17.75
366.256	17.07
366.467	31.4
366.678	-13.65
366.889	-34.13
367.1	-23.89
367.311	62.12
367.522	23.21
367.733	51.88
367.944	60.07
368.155	-17.75
368.366	72.36
368.577	76.46
368.788	60.07
368.999	17.07
369.209	88.75
369.42	152.23
369.631	78.51
369.842	25.26
370.053	2.73
370.264	0.68
370.474	31.4
370.685	-1.37
370.896	55.98
371.107	62.12
371.317	96.94
371.528	41.64
371.739	176.81
371.95	113.32
372.16	21.16
372.371	41.64
372.582	80.55
372.792	74.41
373.003	-25.94
373.214	31.4
373.424	160.42
373.635	58.03
373.846	78.51
374.056	37.55
374.267	58.03
374.477	68.27
374.688	23.21
374.898	72.36
375.109	70.31
375.319	125.61
375.53	27.31
375.74	133.8
375.951	21.16
376.161	29.35
376.372	51.88
376.582	19.11
376.793	15.02
377.003	25.26
377.214	64.17
377.424	70.31
377.635	82.6
377.845	6.83
378.055	66.22
378.266	-48.47
378.476	23.21
378.686	47.79
378.897	10.92
379.107	55.98
379.317	72.36
379.528	51.88
379.738	80.55
379.948	-15.7
380.158	19.11
380.369	68.27
380.579	37.55
380.789	66.22
380.999	47.79
381.21	131.75
381.42	174.76
381.63	51.88
381.84	39.59
382.05	105.13
382.261	53.93
382.471	115.37
382.681	25.26
382.891	141.99
383.101	111.27
383.311	29.35
383.521	-34.13
383.731	164.52
383.941	21.16
384.151	72.36
384.361	82.6
384.571	29.35
384.781	66.22
384.991	115.37
385.201	164.52
385.411	107.18
385.621	25.26
385.831	62.12
386.041	45.74
386.251	27.31
386.461	70.31
386.671	-1.37
386.881	107.18
387.091	8.87
387.301	123.56
387.511	70.31
387.72	43.69
387.93	123.56
388.14	25.26
388.35	98.99
388.56	64.17
388.769	10.92
388.979	39.59
389.189	-27.99
389.399	80.55
389.609	55.98
389.818	60.07
390.028	121.51
390.238	35.5
390.447	45.74
390.657	43.69
390.867	41.64
391.076	2.73
391.286	115.37
391.496	45.74
391.705	51.88
391.915	49.83
392.125	80.55
392.334	49.83
392.544	103.08
392.753	2.73
392.963	64.17
393.172	109.23
393.382	53.93
393.591	187.05
393.801	2.73
394.01	154.28
394.22	127.66
394.429	82.6
394.639	80.55
394.848	105.13
395.058	62.12
395.267	78.51
395.477	123.56
395.686	107.18
395.895	146.09
396.105	176.81
396.314	109.23
396.524	90.79
396.733	82.6
396.942	103.08
397.152	78.51
397.361	137.9
397.57	115.37
397.78	94.89
397.989	111.27
398.198	174.76
398.407	105.13
398.617	146.09
398.826	127.66
399.035	66.22
399.244	242.34
399.453	144.04
399.663	150.18
399.872	115.37
400.081	135.85
400.29	41.64
400.499	76.46
400.708	162.47
400.917	141.99
401.127	117.42
401.336	109.23
401.545	252.58
401.754	148.14
401.963	119.46
402.172	150.18
402.381	90.79
402.59	39.59
402.799	162.47
403.008	230.06
403.217	139.94
403.426	189.1
403.635	98.99
403.844	125.61
404.053	139.94
404.262	158.38
404.471	211.62
404.68	152.23
404.888	105.13
405.097	197.29
405.306	148.14
405.515	168.62
405.724	121.51
405.933	211.62
406.142	223.91
406.35	223.91
406.559	187.05
406.768	219.82
406.977	223.91
407.185	260.77
407.394	207.53
407.603	191.14
407.812	146.09
408.02	230.06
408.229	234.15
408.438	238.25
408.646	207.53
408.855	242.34
409.064	234.15
409.272	299.69
409.481	309.93
409.69	219.82
409.898	328.36
410.107	365.22
410.315	367.27
410.524	314.02
410.733	385.7
410.941	350.89
411.15	338.6
411.358	404.13
411.567	412.32
411.775	459.43
411.984	465.57
412.192	500.39
412.401	385.7
412.609	535.2
412.818	492.2
413.026	527.01
413.234	479.91
413.443	596.64
413.651	547.49
413.86	596.64
414.068	557.73
414.276	674.46
414.485	604.83
414.693	719.52
414.901	733.86
415.11	676.51
415.318	639.65
415.526	826.01
415.734	840.35
415.943	864.93
416.151	938.65
416.359	785.05
416.567	899.74
416.776	983.71
416.984	967.32
417.192	1094.3
417.4	1006.24
417.608	963.23
417.817	1045.15
418.025	1155.74
418.233	1270.42
418.441	1168.02
418.649	1270.42
418.857	1297.05
419.065	1356.44
419.273	1301.14
419.481	1348.25
419.689	1424.02
419.897	1690.26
420.105	1591.95
420.313	1667.73
420.521	1624.72
420.729	1669.78
420.937	1727.12
421.145	1886.86
421.353	1895.05
421.561	1966.73
421.769	2054.8
421.977	2120.33
422.185	2212.49
422.393	2222.73
422.601	2466.44
422.809	2327.18
423.017	2366.09
423.224	2531.97
423.432	2642.56
423.64	2636.42
423.848	2718.34
424.056	2624.13
424.263	3037.82
424.471	2978.43
424.679	3019.39
424.887	3160.7
425.094	3261.05
425.302	3244.67
425.51	3273.34
425.718	3533.43
425.925	3437.17
426.133	3588.72
426.341	3930.73
426.548	4070
426.756	4041.32
426.964	4084.33
427.171	4182.63
427.379	4334.18
427.586	4487.78
427.794	4657.76
428.001	4868.7
428.209	4983.39
428.417	4880.99
428.624	5468.76
428.832	5479
429.039	5313.11
429.247	5255.77
429.454	5773.91
429.662	6152.78
429.869	5741.14
430.076	6142.54
430.284	5958.22
430.491	6341.19
430.699	6591.05
430.906	6713.92
431.114	6666.82
431.321	7139.9
431.528	7090.75
431.736	7590.45
431.943	7934.51
432.15	7766.58
432.358	7877.17
432.565	8309.29
432.772	8155.69
432.979	8348.2
433.187	8841.76
433.394	8751.65
433.601	9167.39
433.808	9538.07
434.016	9310.75
434.223	9804.31
434.43	10371.6
434.637	10093.07
434.844	10861.06
435.052	11049.47
435.259	10953.22
435.466	11002.37
435.673	10953.22
435.88	11600.38
436.087	12239.34
436.294	12560.88
436.501	12001.78
436.708	12286.45
436.915	12665.32
437.122	13398.49
437.329	13394.4
437.537	13613.53
437.743	13717.98
437.95	13679.07
438.157	14477.77
438.364	14877.13
438.571	14928.33
438.778	15071.68
438.985	16372.14
439.192	15569.34
439.399	16314.8
439.606	15636.92
439.813	16740.78
440.02	17672.6
440.227	17494.43
440.433	17113.51
440.64	17758.62
440.847	17766.81
441.054	18323.86
441.261	19222.92
441.467	19292.55
441.674	19605.89
441.881	20203.89
442.088	20187.51
442.294	20103.54
442.501	20623.73
442.708	21002.6
442.914	21739.87
443.121	22708.56
443.328	22065.5
443.534	23808.32
443.741	22937.93
443.948	22710.61
444.154	24566.07
444.361	24025.4
444.568	24772.91
444.774	24371.51
444.981	24740.15
445.187	25463.08
445.394	26657.04
445.6	26145.05
445.807	28467.45
446.013	27552.01
446.22	27898.11
446.426	28907.76
446.633	29313.26
446.839	30587.1
447.046	29323.5
447.252	30748.89
447.459	30648.53
447.665	30638.3
447.871	32225.47
448.078	33593.51
448.284	31670.47
448.491	32673.98
448.697	33964.2
448.903	34396.32
449.11	34707.61
449.316	34070.69
449.522	34822.3
449.728	35590.28
449.935	36053.12
450.141	35852.42
450.347	36845.69
450.553	35530.89
450.76	36061.32
450.966	37564.53
451.172	36849.78
451.378	37754.99
451.584	36997.24
451.791	37967.98
451.997	37826.67
452.203	38625.37
452.409	38797.4
452.615	37898.34
452.821	36706.43
453.027	36403.33
453.233	38510.69
453.44	36741.24
453.646	37664.88
453.852	37515.37
454.058	37920.87
454.264	36925.56
454.47	37623.92
454.676	36737.15
454.882	38365.28
455.088	34574.49
455.294	35235.99
455.5	35897.48
455.705	36399.23
455.911	34674.84
456.117	34082.98
456.323	33779.88
456.529	32123.07
456.735	33261.74
456.941	32737.46
457.147	31856.84
457.352	31367.37
457.558	30511.32
457.764	30783.7
457.97	30197.98
458.176	29663.46
458.381	29739.24
458.587	28080.38
458.793	28188.92
458.999	26777.87
459.204	28393.72
459.41	27740.42
459.616	25909.54
459.821	25925.92
460.027	26032.41
460.233	25389.35
460.438	23851.33
460.644	24031.55
460.85	23173.45
461.055	22962.51
461.261	22749.52
461.466	21320.04
461.672	20320.63
461.878	21946.72
462.083	20541.81
462.289	20029.82
462.494	19739.01
462.7	18928.01
462.905	18325.91
463.111	19534.21
463.316	19458.43
463.522	18672.01
463.727	18940.3
463.932	18731.4
464.138	18592.14
464.343	18792.84
464.549	18002.33
464.754	18577.81
464.959	18311.57
465.165	18520.46
465.37	17691.04
465.575	17084.84
465.781	17873.31
465.986	17975.7
466.191	17105.32
466.397	16966.06
466.602	16169.4
466.807	16968.1
467.012	16753.07
467.218	16722.35
467.423	16400.82
467.628	16718.25
467.833	17090.98
468.038	16812.46
468.244	16269.75
468.449	16998.82
468.654	16028.09
468.859	16198.07
469.064	16028.09
469.269	15407.55
469.474	15522.24
469.679	15886.78
469.885	15202.75
470.09	15501.76
470.295	15569.34
470.5	14821.83
470.705	15256
470.91	14735.82
471.115	14774.73
471.32	14756.3
471.525	14995.91
471.73	14483.92
471.935	14426.57
472.139	14143.95
472.344	13984.21
472.549	14000.6
472.754	13840.86
472.959	13642.2
473.164	13402.59
473.369	13412.83
473.574	13466.08
473.778	13552.09
473.983	13484.51
474.188	13060.58
474.393	12792.3
474.598	12728.81
474.802	12597.74
475.007	12466.67
475.212	12630.51
475.417	11946.48
475.621	12093.94
475.826	12100.08
476.031	12130.8
476.235	11891.19
476.44	12030.45
476.645	11465.21
476.849	11721.21
477.054	11219.46
477.259	11196.93
477.463	11385.34
477.668	11164.16
477.872	11092.48
478.077	10881.54
478.282	10908.16
478.486	10664.46
478.691	10566.15
478.895	10453.52
479.1	10379.79
479.304	10396.17
479.509	10299.92
479.713	10277.39
479.918	10222.09
480.122	10144.27
480.326	10123.79
480.531	10177.04
480.735	10240.53
480.94	9820.69
481.144	10387.98
481.348	9626.14
481.553	10091.02
481.757	9673.24
481.961	9830.93
482.166	9890.32
482.37	9845.27
482.574	9656.86
482.778	9646.62
482.983	9974.29
483.187	9628.18
483.391	9832.98
483.595	9947.67
483.8	9683.48
484.004	9867.8
484.208	9843.22
484.412	9851.41
484.616	9701.91
484.821	9884.18
485.025	9505.31
485.229	9574.94
485.433	9452.06
485.637	9798.17
485.841	9388.57
486.045	9613.85
486.249	9540.12
486.453	9660.95
486.657	9675.29
486.861	9763.35
487.065	9413.15
487.269	9794.07
487.473	9529.88
487.677	9892.37
487.881	9781.78
488.085	9804.31
488.289	9757.21
488.493	9781.78
488.697	9779.73
488.901	9792.02
489.105	9572.89
489.309	9775.64
489.512	9706.01
489.716	9853.46
489.92	9896.47
490.124	9757.21
490.328	10076.69
490.531	9716.25
490.735	9925.14
490.939	10060.31
491.143	9937.43
491.346	10039.83
491.55	10131.98
491.754	9978.39
491.958	10236.43
492.161	10113.55
492.365	10265.1
492.569	10111.5
492.772	10353.16
492.976	10375.69
493.18	10285.58
493.383	10654.22
493.587	10609.16
493.79	10621.45
493.994	10543.63
494.197	10859.01
494.401	10600.97
494.605	10912.26
494.808	11096.58
495.012	10996.23
495.215	11031.04
495.419	11190.78
495.622	11102.72
495.825	11160.06
496.029	11461.12
496.232	11696.63
496.436	11510.27
496.639	11893.24
496.843	11815.41
497.046	11799.03
497.249	12112.37
497.453	12251.63
497.656	12304.88
497.859	12261.87
498.063	12513.77
498.266	12773.86
498.469	12556.78
498.673	12581.35
498.876	12849.64
499.079	12937.7
499.282	13142.5
499.485	13375.97
499.689	13443.55
499.892	13703.64
500.095	13840.86
500.298	14025.17
500.501	13808.09
500.705	14189.01
500.908	14393.81
501.111	14518.73
501.314	14899.66
501.517	14778.83
501.72	15118.79
501.923	15057.35
502.126	15448.51
502.329	15770.04
502.532	15538.62
502.735	15886.78
502.938	15817.15
503.141	16067
503.344	16355.76
503.547	16329.14
503.75	16652.72
503.953	17121.7
504.156	17209.76
504.359	17111.46
504.562	17148.33
504.765	17664.41
504.968	17830.3
505.17	17865.11
505.373	17944.98
505.576	18323.86
505.779	18514.32
505.982	18344.34
506.185	18825.61
506.387	18991.5
506.59	19151.24
506.793	19388.8
506.996	19456.39
507.198	19970.43
507.401	19775.87
507.604	19921.27
507.807	20449.65
508.009	20752.75
508.212	20742.51
508.415	21195.11
508.617	21096.81
508.82	21469.54
509.022	21225.83
509.225	21616.99
509.428	21989.72
509.63	22198.62
509.833	22131.03
510.035	22755.66
510.238	22792.53
510.44	22753.62
510.643	23333.19
510.845	23148.87
511.048	23404.87
511.25	23861.57
511.453	23611.71
511.655	24695.09
511.858	24451.38
512.06	24488.24
512.262	25078.06
512.465	24676.66
512.667	25162.03
512.87	25452.84
513.072	25495.85
513.274	26233.11
513.477	26249.5
513.679	26339.61
513.881	27078.93
514.084	27078.93
514.286	27099.41
514.488	27433.22
514.69	27986.18
514.893	27699.46
515.095	27920.64
515.297	28430.58
515.499	28512.5
515.701	28582.13
515.904	29374.7
516.106	29260.01
516.308	29305.07
516.51	29487.34
516.712	29610.21
516.914	30195.93
517.116	30458.07
517.318	30341.34
517.52	30785.75
517.722	30836.95
517.925	31002.83
518.127	31385.8
518.329	31340.75
518.531	31531.21
518.733	32153.79
518.935	32422.08
519.136	32389.31
519.338	32708.79
519.54	32768.18
519.742	32813.24
519.944	33360.05
520.146	33517.74
520.348	33980.58
520.55	34066.59
520.752	34470.04
520.954	34709.66
521.155	34379.93
521.357	34656.41
521.559	35307.66
521.761	35309.71
521.963	35178.64
522.164	35731.59
522.366	35877
522.568	35819.66
522.77	36290.69
522.971	36552.83
523.173	36479.1
523.375	36782.2
523.576	36452.48
523.778	36917.37
523.98	37146.74
524.181	37402.74
524.383	37625.96
524.584	37476.46
524.786	38180.96
524.988	37787.75
525.189	38062.18
525.391	38479.97
525.592	38144.1
525.794	38439.01
525.995	38576.22
526.197	38623.33
526.398	38795.35
526.6	38512.74
526.801	39041.11
527.003	39288.92
527.204	39043.16
527.406	39620.69
527.607	39282.77
527.808	39643.21
528.01	39180.37
528.211	39393.36
528.412	40015.94
528.614	40126.53
528.815	39925.83
529.016	40417.35
529.218	39864.39
529.419	40329.28
529.62	40030.28
529.822	39948.36
530.023	40001.61
530.224	40259.65
530.425	40368.19
530.626	39991.37
530.828	39704.65
531.029	40351.81
531.23	39919.69
531.431	40157.25
531.632	40355.91
531.833	40765.5
532.035	40583.23
532.236	40818.75
532.437	40953.91
532.638	40433.73
532.839	40767.55
533.04	40976.44
533.241	40300.61
533.442	41275.44
533.643	41033.78
533.844	40620.09
534.045	41066.55
534.246	40548.42
534.447	40953.91
534.648	40362.05
534.849	40771.64
535.05	40798.27
535.251	41056.31
535.451	41121.85
535.652	40876.09
535.853	40943.67
536.054	41254.97
536.255	40962.11
536.456	40828.99
536.657	41308.21
536.857	40896.57
537.058	40902.71
537.259	41080.89
537.46	40818.75
537.66	40902.71
537.861	41191.48
538.062	40859.71
538.263	41130.04
538.463	41236.53
538.664	40675.39
538.865	41123.9
539.065	41123.9
539.266	40781.88
539.466	41453.62
539.667	40403.01
539.868	41269.3
540.068	40603.71
540.269	41072.7
540.469	40917.05
540.67	40880.19
540.87	41023.54
541.071	40702.01
541.271	40949.82
541.472	40847.42
541.672	41121.85
541.873	40572.99
542.073	40560.7
542.274	41383.99
542.474	40779.84
542.675	40542.27
542.875	41295.92
543.075	40464.45
543.276	40343.62
543.476	41207.86
543.676	40683.58
543.877	40714.3
544.077	41001.02
544.277	40613.95
544.478	40476.74
544.678	40919.1
544.878	40859.71
545.078	40972.35
545.279	40384.58
545.479	40491.07
545.679	40896.57
545.879	41222.2
546.079	41117.75
546.28	40861.76
546.48	40067.14
546.68	40892.47
546.88	40884.28
547.08	40818.75
547.28	40654.91
547.48	40151.11
547.68	40501.31
547.88	40697.92
548.081	40601.66
548.281	40540.22
548.481	40413.25
548.681	40835.13
548.881	40824.89
549.081	40681.53
549.28	40562.75
549.48	40970.3
549.68	40306.76
549.88	41240.63
550.08	40390.72
550.28	40892.47
550.48	40536.13
550.68	40689.73
550.88	40015.94
551.08	40073.29
551.279	40804.41
551.479	40286.28
551.679	40839.23
551.879	40708.16
552.079	40646.72
552.278	40599.62
552.478	40579.14
552.678	40224.84
552.878	40572.99
553.077	40802.36
553.277	40419.39
553.477	41123.9
553.676	40312.9
553.876	40063.05
554.076	40370.24
554.275	40495.17
554.475	40310.85
554.674	40458.31
554.874	40753.21
555.074	40149.06
555.273	40251.46
555.473	40624.19
555.672	40593.47
555.872	40296.52
556.071	40665.15
556.271	40312.9
556.47	40233.03
556.67	39743.56
556.869	40099.91
557.068	40214.6
557.268	39891.02
557.467	40419.39
557.667	40208.45
557.866	40343.62
558.065	40130.63
558.265	39794.76
558.464	39733.32
558.663	40374.34
558.863	39702.6
559.062	40474.69
559.261	40300.61
559.461	40497.22
559.66	39690.32
559.859	39888.97
560.058	39637.07
560.258	40216.65
560.457	40067.14
560.656	40007.75
560.855	39512.14
561.054	39985.22
561.253	39735.37
561.453	40083.53
561.652	40020.04
561.851	40114.25
562.05	39807.05
562.249	39434.32
562.448	40353.86
562.647	39501.9
562.846	39919.69
563.045	39372.88
563.244	39594.06
563.443	39848.01
563.642	39252.05
563.841	39368.79
564.04	39436.37
564.239	39729.23
564.438	39549.01
564.637	39637.07
564.836	39614.54
565.035	38936.66
565.234	39506
565.432	39151.7
565.631	39217.24
565.83	39487.57
566.029	39219.28
566.228	39395.41
566.427	39047.25
566.625	38701.15
566.824	38862.94
567.023	39426.13
567.222	38525.02
567.42	39401.55
567.619	38817.88
567.818	38905.94
568.016	38748.25
568.215	39381.07
568.414	38830.17
568.612	39172.18
568.811	38772.83
569.01	39088.21
569.208	38774.88
569.407	38602.85
569.605	38854.75
569.804	38881.37
570.002	38506.59
570.201	38750.3
570.4	38455.39
570.598	38719.58
570.797	38785.11
570.995	38445.15
571.193	38178.92
571.392	38502.5
571.59	38115.43
571.789	38119.52
571.987	38115.43
572.186	38082.66
572.384	37851.24
572.582	38219.88
572.781	38606.94
572.979	37707.88
573.177	37812.33
573.376	38082.66
573.574	37544.05
573.772	38058.09
573.971	38125.67
574.169	37779.56
574.367	37458.03
574.565	37472.37
574.763	37415.02
574.962	37501.04
575.16	37154.93
575.358	37546.09
575.556	37001.33
575.754	37797.99
575.952	37181.56
576.151	37585.01
576.349	37296.24
576.547	37288.05
576.745	36909.18
576.943	37242.99
577.141	37179.51
577.339	36413.57
577.537	36743.29
577.735	37009.53
577.933	36481.15
578.131	36444.29
578.329	36890.74
578.527	36741.24
578.725	36640.89
578.923	36702.33
579.121	36411.52
579.319	36206.72
579.516	36448.38
579.714	36536.45
579.912	36239.49
580.11	36075.65
580.308	36141.19
580.506	35989.64
580.704	35422.35
580.901	35956.87
581.099	36386.94
581.297	35530.89
581.495	35745.93
581.692	35938.44
581.89	35383.44
582.088	35989.64
582.285	35090.58
582.483	35811.46
582.681	35537.04
582.878	35199.12
583.076	35008.66
583.274	35260.56
583.471	35057.81
583.669	35014.8
583.866	35061.91
584.064	35117.2
584.262	34654.36
584.459	35063.96
584.657	34699.42
584.854	35106.96
585.052	34400.41
585.249	34711.71
585.447	34703.51
585.644	34091.17
585.841	34257.06
586.039	34537.63
586.236	34373.79
586.434	34046.12
586.631	34029.73
586.828	34447.52
587.026	33765.54
587.223	33818.79
587.42	33667.24
587.618	33884.33
587.815	33314.99
588.012	33294.51
588.21	33503.4
588.407	33913
588.604	33441.96
588.801	33161.39
588.999	33126.58
589.196	33489.07
589.393	33327.28
589.59	33134.77
589.787	32827.57
589.984	32860.34
590.182	32749.75
590.379	33323.18
590.576	32516.28
590.773	32817.33
590.97	32657.59
591.167	32751.8
591.364	32237.76
591.561	32751.8
591.758	31996.1
591.955	32082.11
592.152	32403.64
592.349	32215.23
592.546	32420.03
592.743	32190.66
592.94	32028.87
593.137	31828.16
593.334	32540.86
593.531	31793.35
593.727	31965.38
593.924	31963.33
594.121	31387.85
594.318	31719.62
594.515	31383.76
594.712	31639.75
594.908	31422.67
595.105	31797.45
595.302	31162.58
595.499	31492.3
595.696	31031.51
595.892	30685.4
596.089	31332.56
596.286	31303.88
596.482	31172.81
596.679	31080.66
596.876	30857.43
597.072	30734.55
597.269	30925.01
597.466	31027.41
597.662	30769.37
597.859	30765.27
598.055	30462.17
598.252	30214.37
598.448	30628.06
598.645	30372.06
598.841	29925.6
599.038	30255.32
599.234	30441.69
599.431	29978.85
599.627	29817.06
599.824	30378.2
600.02	29941.99
600.217	30030.05
600.413	29888.74
600.609	29917.41
600.806	29487.34
601.002	29733.09
601.198	29747.43
601.395	29329.64
601.591	29284.59
601.787	29767.91
601.984	28961.01
602.18	29552.87
602.376	29415.66
602.572	29206.76
602.769	29491.43
602.965	28795.12
603.161	29229.29
603.357	28926.19
603.553	29061.36
603.75	28969.2
603.946	28410.11
604.142	28819.7
604.338	28641.53
604.534	28735.73
604.73	28453.11
604.926	28596.47
605.122	28727.54
605.318	28432.63
605.514	28291.32
605.71	28203.26
605.906	28356.86
606.102	28319.99
606.298	28231.93
606.494	28154.11
606.69	27941.12
606.886	27957.5
607.082	27650.31
607.278	28098.81
607.474	27523.33
607.67	28319.99
607.866	27486.47
608.062	27918.59
608.257	27805.95
608.453	27830.53
608.649	27793.67
608.845	27808
609.041	27433.22
609.236	28100.86
609.432	27562.25
609.628	27775.23
609.824	27855.11
610.019	27326.73
610.215	27361.55
610.411	27517.19
610.606	27377.93
610.802	27347.21
610.998	27189.52
611.193	27638.02
611.389	27267.34
611.584	27572.49
611.78	27128.08
611.976	27046.16
612.171	27289.87
612.367	27291.91
612.562	26929.42
612.758	26779.92
612.953	26790.16
613.149	27166.99
613.344	27025.68
613.539	27132.17
613.735	27009.29
613.93	26956.05
614.126	26857.74
614.321	26968.34
614.517	26618.13
614.712	26671.38
614.907	26456.34
615.103	27013.39
615.298	26724.63
615.493	26779.92
615.688	26300.7
615.884	26792.21
616.079	26249.5
616.274	26599.7
616.47	26464.53
616.665	26290.46
616.86	26450.2
617.055	26265.88
617.25	25958.69
617.445	26329.37
617.641	25934.11
617.836	26345.75
618.031	25831.71
618.226	25942.3
618.421	25753.89
618.616	26175.77
618.811	25501.99
619.006	25798.94
619.201	25579.81
619.396	25540.9
619.591	25186.6
619.786	25538.85
619.981	25123.12
620.176	25512.23
620.371	24908.08
620.566	25356.58
620.761	24777.01
620.956	25053.48
621.151	24516.92
621.346	24885.55
621.541	24539.44
621.735	24645.94
621.93	23957.82
622.125	24453.43
622.32	23738.69
622.515	23953.73
622.709	24037.69
622.904	23804.22
623.099	23761.22
623.294	23611.71
623.488	23583.04
623.683	23695.68
623.878	23349.57
624.072	23290.18
624.267	23103.82
624.462	22776.14
624.656	22694.22
624.851	22933.84
625.046	22540.63
625.24	22606.16
625.435	22270.29
625.629	22354.26
625.824	22266.2
626.018	22290.77
626.213	21940.57
626.407	22077.79
626.602	21676.38
626.796	21743.97
626.991	21692.77
627.185	21565.79
627.38	21508.45
627.574	21229.93
627.768	21016.94
627.963	20904.3
628.157	20930.92
628.352	21086.57
628.546	20453.75
628.74	21094.76
628.935	20644.21
629.129	20619.63
629.323	20234.61
629.517	20230.52
629.712	20306.29
629.906	20248.95
630.1	20042.1
630.294	20009.34
630.489	20031.86
630.683	19972.47
630.877	19538.3
631.071	19331.46
631.265	19865.98
631.459	19515.78
631.653	19294.6
631.848	19341.7
632.042	19050.89
632.236	18739.6
632.43	18696.59
632.624	18960.78
632.818	18692.49
633.012	18577.81
633.206	18571.66
633.4	18469.26
633.594	18381.2
633.788	18323.86
633.982	18518.42
634.176	18260.37
634.369	18221.46
634.563	17918.36
634.757	17869.21
634.951	17664.41
635.145	17961.37
635.339	17965.46
635.533	17621.41
635.726	17674.65
635.92	17082.79
636.114	17303.97
636.308	17373.6
636.501	16761.26
636.695	17209.76
636.889	16859.56
637.083	16697.77
637.276	16638.38
637.47	16855.47
637.664	16628.14
637.857	16558.51
638.051	16568.75
638.244	16267.7
638.438	16470.45
638.632	16245.17
638.825	16058.81
639.019	15954.36
639.212	15892.92
639.406	15888.82
639.599	15749.56
639.793	15843.77
639.986	15542.72
640.18	15608.25
640.373	15440.32
640.567	15104.45
640.76	15303.11
640.954	14991.81
641.147	15172.04
641.34	14875.08
641.534	14870.98
641.727	14713.29
641.92	14961.09
642.114	14707.15
642.307	14395.85
642.5	14375.38
642.694	14123.48
642.887	14277.07
643.08	14465.49
643.273	14236.11
643.467	13967.83
643.66	14002.64
643.853	13726.17
644.046	13834.71
644.239	13742.55
644.432	13537.76
644.626	13365.73
644.819	13365.73
645.012	13382.11
645.205	13152.74
645.398	13662.68
645.591	13279.71
645.784	13208.03
645.977	12767.72
646.17	13062.63
646.363	12798.44
646.556	12704.23
646.749	12644.84
646.942	12737
647.135	12786.15
647.328	12411.37
647.521	12440.04
647.714	12370.41
647.907	12515.82
648.099	12214.77
648.292	12116.47
648.485	12280.3
648.678	11942.39
648.871	11928.05
649.064	11954.68
649.256	11917.81
649.449	11747.83
649.642	11782.65
649.835	11715.06
650.027	11532.79
650.22	11432.44
650.413	11186.69
650.605	11469.31
650.798	11379.2
650.991	11270.65
651.183	11280.89
651.376	10969.6
651.568	11203.07
651.761	11092.48
651.954	10979.84
652.146	11082.24
652.339	10951.17
652.531	10899.97
652.724	10781.19
652.916	10691.08
653.109	10783.24
653.301	10834.44
653.494	10760.71
653.686	10310.16
653.879	10312.21
654.071	10297.87
654.263	10242.57
654.456	10189.33
654.648	10402.32
654.84	9976.34
655.033	9951.76
655.225	10002.96
655.417	10045.97
655.61	9984.53
655.802	9923.09
655.994	9839.12
656.186	9716.25
656.379	9814.55
656.571	9593.37
656.763	9474.59
656.955	9642.52
657.148	9503.26
657.34	9368.09
657.532	9425.43
657.724	9316.89
657.916	9226.78
658.108	9376.28
658.3	9110.05
658.492	9308.7
658.684	8962.59
658.876	8954.4
659.068	9024.03
659.26	9054.75
659.452	8864.29
659.644	8950.31
659.836	8905.25
660.028	8591.91
660.22	8686.12
660.412	8647.21
660.604	8417.83
660.796	8659.49
660.988	8585.77
661.18	8385.07
661.372	8464.94
661.563	8450.6
661.755	8346.16
661.947	8225.33
662.139	8413.74
662.331	8235.57
662.522	8063.54
662.714	7998
662.906	8147.5
663.097	8110.64
663.289	7920.18
663.481	7899.7
663.673	8014.38
663.864	7887.41
664.056	7758.39
664.247	7868.98
664.439	7645.75
664.631	7821.88
664.822	7526.97
665.014	7625.27
665.205	7588.41
665.397	7377.47
665.588	7578.17
665.78	7473.72
665.971	7430.71
666.163	7250.49
666.354	7426.62
666.546	7350.84
666.737	7205.44
666.929	7187
667.12	7123.52
667.311	7213.63
667.503	7096.89
667.694	7107.13
667.885	7119.42
668.077	6924.86
668.268	6924.86
668.459	6931.01
668.651	7064.13
668.842	6980.16
669.033	6832.71
669.224	6865.47
669.416	6666.82
669.607	6797.89
669.798	6799.94
669.989	6718.02
670.18	6818.37
670.371	6578.76
670.563	6715.97
670.754	6660.68
670.945	6556.23
671.136	6697.54
671.327	6490.7
671.518	6558.28
671.709	6525.51
671.9	6584.9
672.091	6412.87
672.282	6289.99
672.473	6445.64
672.664	6347.34
672.855	6357.58
673.046	6328.91
673.237	6199.88
673.428	6160.97
673.619	6208.08
673.809	6070.86
674	6289.99
674.191	6306.38
674.382	6046.29
674.573	6038.09
674.764	5980.75
674.954	6103.63
675.145	5958.22
675.336	5900.88
675.527	6027.85
675.717	5900.88
675.908	5943.89
676.099	5919.31
676.289	5872.21
676.48	5735
676.671	5759.57
676.861	5909.07
677.052	5665.36
677.243	5782.1
677.433	5900.88
677.624	5778
677.814	5696.08
678.005	5659.22
678.195	5735
678.386	5648.98
678.576	5745.23
678.767	5659.22
678.957	5603.93
679.148	5741.14
679.338	5536.34
679.529	5517.91
679.719	5499.48
679.909	5589.59
680.1	5366.36
680.29	5585.49
680.481	5429.85
680.671	5405.27
680.861	5466.71
681.052	5552.73
681.242	5438.04
681.432	5460.57
681.622	5397.08
681.813	5366.36
682.003	5354.07
682.193	5368.41
682.383	5364.31
682.573	5302.87
682.764	5192.28
682.954	5270.11
683.144	5372.5
683.334	5157.47
683.524	5218.91
683.714	5298.78
683.904	5331.55
684.094	5212.76
684.284	5198.43
684.474	5360.22
684.664	5173.85
684.854	5057.12
685.044	5046.88
685.234	5059.17
685.424	5165.66
685.614	5100.12
685.804	4880.99
685.994	5005.92
686.184	4852.32
686.374	5065.31
686.564	4940.38
686.753	4952.67
686.943	4915.81
687.133	4999.77
687.323	4938.34
687.513	5083.74
687.702	4876.9
687.892	4893.28
688.082	4977.25
688.272	4926.05
688.461	4756.07
688.651	4764.26
688.841	4901.47
689.03	4790.88
689.22	4715.11
689.41	4967.01
689.599	4731.49
689.789	4721.25
689.979	4645.48
690.168	4745.83
690.358	4735.59
690.547	4729.44
690.737	4674.15
690.926	4821.6
691.116	4618.85
691.305	4754.02
691.495	4670.05
691.684	4504.17
691.874	4557.41
692.063	4807.27
692.252	4600.42
692.442	4776.55
692.631	4547.17
692.82	4627.04
693.01	4434.53
693.199	4633.19
693.388	4545.13
693.578	4547.17
693.767	4629.09
693.956	4555.37
694.146	4600.42
694.335	4618.85
694.524	4647.52
694.713	4528.74
694.902	4645.48
695.092	4604.52
695.281	4663.91
695.47	4596.32
695.659	4512.36
695.848	4657.76
696.037	4649.57
696.226	4760.16
696.415	4715.11
696.604	4805.22
696.793	4692.58
696.982	4780.64
697.171	4829.79
697.36	4688.48
697.549	4762.21
697.738	4579.94
697.927	4643.43
698.116	4727.39
698.305	4758.11
698.494	4778.59
698.683	4586.08
698.872	4794.98
699.061	4713.06
699.25	4668
699.438	4657.76
699.627	4756.07
699.816	4850.27
700.005	4711.01
700.193	4846.18
700.382	4811.36
700.571	4794.98
700.76	4737.63
700.948	4844.13
701.137	4790.88
701.326	4706.91
701.514	4835.94
701.703	5007.97
701.892	4776.55
702.08	4840.03
702.269	4776.55
702.457	4741.73
702.646	4848.22
702.834	4784.74
703.023	4690.53
703.212	4715.11
703.4	4833.89
703.589	4692.58
703.777	4911.71
703.965	4840.03
704.154	4809.31
704.342	4801.12
704.531	4870.75
704.719	4555.37
704.907	4921.95
705.096	4766.31
705.284	4749.92
705.472	4903.52
705.661	4803.17
705.849	4950.62
706.037	4932.19
706.226	4799.07
706.414	4842.08
706.602	4713.06
706.79	4803.17
706.979	4665.96
707.167	4848.22
707.355	4700.77
707.543	4823.65
707.731	4768.35
707.919	4749.92
708.107	4751.97
708.296	4858.46
708.484	4803.17
708.672	4768.35
708.86	4880.99
709.048	4794.98
709.236	4704.87
709.424	4901.47
709.612	4680.29
709.8	4614.76
709.988	4637.28
710.176	4590.18
710.364	4629.09
710.551	4790.88
710.739	4733.54
710.927	4717.15
711.115	4760.16
711.303	4608.61
711.491	4842.08
711.679	4696.68
711.866	4780.64
712.054	4696.68
712.242	4606.56
712.43	4831.84
712.617	4610.66
712.805	4747.87
712.993	4622.95
713.181	4555.37
713.368	4602.47
713.556	4749.92
713.744	4524.65
713.931	4745.83
714.119	4489.83
714.306	4594.28
714.494	4471.4
714.682	4516.45
714.869	4551.27
715.057	4616.8
715.244	4569.7
715.432	4545.13
715.619	4588.13
715.807	4522.6
715.994	4473.45
716.182	4455.01
716.369	4495.97
716.556	4440.68
716.744	4473.45
716.931	4420.2
717.119	4455.01
717.306	4485.73
717.493	4483.69
717.681	4559.46
717.868	4491.88
718.055	4543.08
718.242	4475.49
718.43	4536.93
718.617	4557.41
718.804	4426.34
718.991	4420.2
719.179	4362.86
719.366	4391.53
719.553	4375.14
719.74	4405.86
719.927	4364.9
720.114	4291.18
720.301	4334.18
720.488	4356.71
720.676	4276.84
720.863	4418.15
721.05	4407.91
721.237	4219.5
721.424	4225.64
721.611	4379.24
721.798	4115.05
721.985	4221.55
722.172	4160.11
722.358	4231.79
722.545	4307.56
722.732	4278.89
722.919	4082.28
723.106	4151.92
723.293	4188.78
723.48	4217.45
723.667	4086.38
723.853	4149.87
724.04	4203.11
724.227	3996.27
724.414	4117.1
724.6	4096.62
724.787	4045.42
724.974	4131.44
725.161	3998.32
725.347	4076.14
725.534	4233.83
725.72	4139.63
725.907	4063.85
726.094	4014.7
726.28	4037.23
726.467	3990.13
726.653	3822.19
726.84	4006.51
727.027	3990.13
727.213	3959.41
727.4	4047.47
727.586	3932.78
727.773	3953.26
727.959	3844.72
728.145	3945.07
728.332	3943.02
728.518	3875.44
728.705	3924.59
728.891	3873.39
729.077	3906.16
729.264	3879.54
729.45	3857.01
729.636	3963.5
729.823	3775.09
730.009	3799.66
730.195	3789.42
730.382	3879.54
730.568	3762.8
730.754	3748.47
730.94	3811.95
731.126	3713.65
731.313	3660.4
731.499	3758.71
731.685	3666.55
731.871	3713.65
732.057	3627.64
732.243	3748.47
732.429	3807.86
732.615	3781.23
732.801	3603.06
732.987	3658.35
733.173	3609.2
733.359	3687.03
733.545	3588.72
733.731	3558
733.917	3611.25
734.103	3639.92
734.289	3738.23
734.475	3443.32
734.661	3633.78
734.847	3480.18
735.033	3631.73
735.219	3547.76
735.404	3568.24
735.59	3654.26
735.776	3398.26
735.962	3494.52
736.148	3469.94
736.333	3404.41
736.519	3375.74
736.705	3562.1
736.89	3435.13
737.076	3484.28
737.262	3295.86
737.447	3181.18
737.633	3281.53
737.819	3433.08
738.004	3308.15
738.19	3242.62
738.375	3277.43
738.561	3250.81
738.747	3455.61
738.932	3261.05
739.118	3369.59
739.303	3312.25
739.489	3170.94
739.674	3332.73
739.859	3234.43
740.045	3271.29
740.23	3222.14
740.416	3127.93
740.601	3136.12
740.786	3166.84
740.972	3115.64
741.157	3056.25
741.342	3000.96
741.528	2996.86
741.713	3074.68
741.898	2982.53
742.084	3074.68
742.269	2982.53
742.454	3080.83
742.639	3007.1
742.824	2931.33
743.01	2951.81
743.195	3078.78
743.38	2966.14
743.565	2898.56
743.75	2892.41
743.935	2886.27
744.12	3009.15
744.305	2890.37
744.49	2931.33
744.675	2740.86
744.86	2859.65
745.045	2884.22
745.23	2835.07
745.415	2806.4
745.6	2759.3
745.785	2734.72
745.97	2712.19
746.155	2765.44
746.34	2773.63
746.525	2732.67
746.71	2630.27
746.895	2546.31
747.079	2525.83
747.264	2583.17
747.449	2632.32
747.634	2712.19
747.819	2646.66
748.003	2589.32
748.188	2413.19
748.373	2441.86
748.557	2581.12
748.742	2515.59
748.927	2421.38
749.111	2507.4
749.296	2579.08
749.481	2398.85
749.665	2384.52
749.85	2388.61
750.034	2431.62
750.219	2411.14
750.404	2316.94
750.588	2327.18
750.773	2400.9
750.957	2259.59
751.141	2306.7
751.326	2204.3
751.51	2267.78
751.695	2153.1
751.879	2083.47
752.064	2343.56
752.248	2278.02
752.432	2380.42
752.617	2212.49
752.801	2153.1
752.985	2140.81
753.17	2247.3
753.354	2241.16
753.538	2073.23
753.722	2095.75
753.907	2069.13
754.091	2089.61
754.275	2116.23
754.459	1913.49
754.643	2001.55
754.828	1944.2
755.012	1942.16
755.196	1999.5
755.38	1929.87
755.564	1888.91
755.748	1847.95
755.932	1880.72
756.116	1903.25
756.3	1843.85
756.484	1796.75
756.668	1800.85
756.852	1837.71
757.036	1876.62
757.22	1823.37
757.404	1786.51
757.588	1792.66
757.772	1895.05
757.956	1700.5
758.14	1774.22
758.323	1768.08
758.507	1706.64
758.691	1675.92
758.875	1700.5
759.059	1766.03
759.242	1694.35
759.426	1645.2
759.61	1665.68
759.794	1622.67
759.977	1677.97
760.161	1755.79
760.345	1624.72
760.528	1583.76
760.712	1684.11
760.895	1610.39
761.079	1528.47
761.263	1505.94
761.446	1434.26
761.63	1581.71
761.813	1571.47
761.997	1536.66
762.18	1594
762.364	1567.38
762.547	1553.04
762.731	1544.85
762.914	1544.85
763.098	1460.88
763.281	1483.41
763.464	1538.71
763.648	1563.28
763.831	1393.3
764.015	1495.7
764.198	1469.08
764.381	1516.18
764.564	1540.76
764.748	1424.02
764.931	1389.21
765.114	1376.92
765.297	1444.5
765.481	1387.16
765.664	1446.55
765.847	1424.02
766.03	1448.6
766.213	1399.45
766.397	1317.53
766.58	1456.79
766.763	1401.49
766.946	1354.39
767.129	1344.15
767.312	1366.68
767.495	1376.92
767.678	1307.29
767.861	1340.05
768.044	1256.09
768.227	1313.43
768.41	1323.67
768.593	1307.29
768.776	1280.66
768.959	1266.33
769.142	1413.78
769.324	1301.14
769.507	1202.84
769.69	1292.95
769.873	1311.38
770.056	1395.35
770.239	1286.81
770.421	1356.44
770.604	1284.76
770.787	1215.13
770.97	1315.48
771.152	1233.56
771.335	1237.66
771.518	1172.12
771.7	1292.95
771.883	1342.1
772.066	1301.14
772.248	1172.12
772.431	1231.51
772.613	1254.04
772.796	1116.83
772.978	1305.24
773.161	1243.8
773.343	1139.35
773.526	1122.97
773.708	1067.67
773.891	1086.11
774.073	1192.6
774.256	1157.78
774.438	1161.88
774.621	1198.74
774.803	1098.39
774.985	1045.15
775.168	1155.74
775.35	1110.68
775.532	1055.39
775.715	1071.77
775.897	1010.33
776.079	1120.92
776.261	1112.73
776.444	1090.2
776.626	1059.48
776.808	1057.43
776.99	1006.24
777.173	1075.87
777.355	1077.91
777.537	1032.86
777.719	971.42
777.901	1041.05
778.083	969.37
778.265	815.77
778.447	918.17
778.629	926.36
778.811	905.88
778.993	1061.53
779.175	1012.38
779.357	979.61
779.539	893.6
779.721	875.17
779.903	928.41
780.085	979.61
780.267	905.88
780.449	793.25
780.631	1004.19
780.812	926.36
780.994	877.21
781.176	850.59
781.358	809.63
781.54	850.59
781.721	828.06
781.903	795.29
782.085	834.21
782.267	885.41
782.448	821.92
782.63	815.77
782.812	807.58
782.993	842.4
783.175	719.52
783.357	821.92
783.538	762.53
783.72	817.82
783.901	799.39
784.083	770.72
784.264	723.62
784.446	699.04
784.627	731.81
784.809	684.7
784.99	711.33
785.172	740
785.353	731.81
785.535	729.76
785.716	651.94
785.897	660.13
786.079	672.42
786.26	717.47
786.441	651.94
786.623	547.49
786.804	602.79
786.985	754.34
787.167	690.85
787.348	629.41
787.529	664.22
787.71	680.61
787.891	633.51
788.073	647.84
788.254	606.88
788.435	723.62
788.616	635.55
788.797	518.82
788.978	617.12
789.159	592.55
789.34	553.63
789.522	520.87
789.703	674.46
789.884	627.36
790.065	484
790.246	584.35
790.427	522.91
790.607	664.22
790.788	565.92
790.969	494.24
791.15	641.7
791.331	510.63
791.512	588.45
791.693	500.39
791.874	508.58
792.054	639.65
792.235	600.74
792.416	469.67
792.597	531.11
792.778	588.45
792.958	449.19
793.139	447.14
793.32	533.15
793.5	510.63
793.681	555.68
793.862	397.99
794.042	432.8
794.223	391.84
794.404	363.17
794.584	451.24
794.765	432.8
794.945	533.15
795.126	465.57
795.306	467.62
795.487	490.15
795.667	467.62
795.848	443.04
796.028	410.28
796.209	393.89
796.389	455.33
796.57	348.84
796.75	520.87
796.93	367.27
797.111	377.51
797.291	418.47
797.471	420.52
797.652	428.71
797.832	471.72
798.012	475.81
798.192	305.83
798.373	322.21
798.553	381.6
798.733	494.24
798.913	383.65
799.093	375.46
799.274	352.93
799.454	420.52
799.634	420.52
799.814	473.76
799.994	348.84
800.174	443.04
800.354	383.65
800.534	326.31
800.714	447.14
800.894	336.55
801.074	297.64
801.254	305.83
801.434	447.14
801.614	318.12
801.794	330.41
801.974	1342.1
802.154	271.01
802.334	350.89
802.514	291.49
802.693	326.31
802.873	309.93
803.053	387.75
803.233	326.31
803.413	207.53
803.592	354.98
803.772	268.97
803.952	397.99
804.131	299.69
804.311	324.26
804.491	248.49
804.67	248.49
804.85	156.33
805.03	357.03
805.209	297.64
805.389	297.64
805.568	240.3
805.748	354.98
805.928	336.55
806.107	328.36
806.287	256.68
806.466	283.3
806.646	275.11
806.825	228.01
807.004	246.44
807.184	318.12
807.363	336.55
807.543	232.1
807.722	240.3
807.901	301.73
808.081	320.17
808.26	174.76
808.439	311.97
808.619	277.16
808.798	252.58
808.977	266.92
809.156	352.93
809.336	234.15
809.515	301.73
809.694	223.91
809.873	338.6
810.052	305.83
810.231	350.89
810.411	228.01
810.59	244.39
810.769	228.01
810.948	285.35
811.127	160.42
811.306	148.14
811.485	168.62
811.664	377.51
811.843	225.96
812.022	129.7
812.201	162.47
812.38	271.01
812.559	217.77
812.737	248.49
812.916	180.9
813.095	273.06
813.274	215.72
813.453	189.1
813.632	201.38
813.811	203.43
813.989	234.15
814.168	268.97
814.347	211.62
814.526	205.48
814.704	264.87
814.883	295.59
815.062	119.46
815.24	199.34
815.419	137.9
815.598	238.25
815.776	141.99
815.955	221.86
816.133	115.37
816.312	191.14
816.49	230.06
816.669	203.43
816.847	119.46
817.026	271.01
817.204	207.53
817.383	191.14
817.561	164.52
817.74	209.58
817.918	260.77
818.097	146.09
818.275	141.99
818.453	201.38
818.632	119.46
818.81	203.43
818.988	133.8
819.167	150.18
819.345	160.42
819.523	172.71
819.701	98.99
819.879	168.62
820.058	180.9
820.236	144.04
820.414	135.85
820.592	109.23
820.77	139.94
820.948	88.75
821.127	238.25
821.305	197.29
821.483	86.7
821.661	174.76
821.839	187.05
822.017	127.66
822.195	117.42
822.373	158.38
822.551	135.85
822.729	180.9
822.907	166.57
823.085	170.66
823.262	141.99
823.44	123.56
823.618	207.53
823.796	125.61
823.974	127.66
824.152	131.75
824.329	121.51
824.507	139.94
824.685	217.77
824.863	207.53
825.04	127.66
825.218	158.38
825.396	185
825.574	150.18
825.751	178.86
825.929	211.62
826.107	80.55
826.284	113.32
826.462	209.58
826.639	115.37
826.817	180.9
826.994	195.24
827.172	64.17
827.349	154.28
827.527	166.57
827.704	154.28
827.882	78.51
828.059	131.75
828.237	141.99
828.414	185
828.591	-15.7
828.769	209.58
828.946	123.56
829.124	123.56
829.301	117.42
829.478	96.94
829.655	121.51
829.833	98.99
830.01	45.74
830.187	127.66
830.364	64.17
830.542	86.7
830.719	131.75
830.896	176.81
831.073	96.94
831.25	121.51
831.427	154.28
831.604	146.09
831.782	76.46
831.959	58.03
832.136	86.7
832.313	180.9
832.49	74.41
832.667	98.99
832.844	121.51
833.021	189.1
833.198	45.74
833.374	80.55
833.551	115.37
833.728	74.41
833.905	105.13
834.082	47.79
834.259	123.56
834.436	141.99
834.612	58.03
834.789	66.22
834.966	43.69
835.143	94.89
835.319	94.89
835.496	107.18
835.673	135.85
835.85	203.43
836.026	170.66
836.203	170.66
836.38	84.65
836.556	74.41
836.733	129.7
836.909	127.66
837.086	94.89
837.262	86.7
837.439	119.46
837.616	62.12
837.792	193.19
837.968	119.46
838.145	-11.61
838.321	90.79
838.498	62.12
838.674	82.6
838.851	123.56
839.027	80.55
839.203	70.31
839.38	146.09
839.556	47.79
839.732	150.18
839.909	51.88
840.085	15.02
840.261	10.92
840.437	60.07
840.614	82.6
840.79	53.93
840.966	111.27
841.142	49.83
841.318	45.74
841.494	72.36
841.671	121.51
841.847	137.9
842.023	64.17
842.199	82.6
842.375	111.27
842.551	0.68
842.727	23.21
842.903	172.71
843.079	80.55
843.255	178.86
843.431	17.07
843.607	49.83
843.783	15.02
843.959	115.37
844.134	25.26
844.31	121.51
844.486	53.93
844.662	35.5
844.838	53.93
845.013	80.55
845.189	94.89
845.365	72.36
845.541	10.92
845.716	58.03
845.892	58.03
846.068	15.02
846.244	43.69
846.419	107.18
846.595	-56.66
846.77	21.16
846.946	64.17
847.122	39.59
847.297	21.16
847.473	144.04
847.648	25.26
847.824	60.07
847.999	-3.41
848.175	35.5
848.35	68.27
848.526	174.76
848.701	72.36
848.876	96.94
849.052	92.84
849.227	70.31
849.403	55.98
849.578	148.14
849.753	90.79
849.929	115.37
850.104	51.88
850.279	49.83
850.454	41.64
850.63	121.51
850.805	64.17
850.98	6.83
851.155	25.26
851.33	4.78
851.505	-62.8
851.681	82.6
851.856	64.17
852.031	111.27
852.206	92.84
852.381	25.26
852.556	4.78
852.731	33.45
852.906	105.13
853.081	37.55
853.256	35.5
853.431	64.17
853.606	23.21
853.781	-40.28
853.956	-9.56
854.131	27.31
854.305	-11.61
854.48	-42.32
854.655	47.79
854.83	21.16
855.005	-5.46
855.18	76.46
855.354	43.69
855.529	109.23
855.704	58.03
855.879	0.68
856.053	37.55
856.228	39.59
856.403	-79.19
856.577	33.45
856.752	-54.61
856.926	47.79
857.101	15.02
857.276	-9.56
857.45	68.27
857.625	29.35
857.799	21.16
857.974	92.84
858.148	-40.28
858.323	19.11
858.497	39.59
858.672	15.02
858.846	10.92
859.02	49.83
859.195	-44.37
859.369	-5.46
859.543	-83.28
859.718	6.83
859.892	2.73
860.066	29.35
860.241	-52.56
860.415	37.55
860.589	-11.61
860.763	-23.89
860.938	4.78
861.112	90.79
861.286	-42.32
861.46	70.31
861.634	35.5
861.808	45.74
861.982	12.97
862.157	-9.56
862.331	33.45
862.505	-9.56
862.679	-60.76
862.853	8.87
863.027	-54.61
863.201	109.23
863.375	-46.42
863.549	53.93
863.722	-7.51
863.896	39.59
864.07	21.16
864.244	29.35
864.418	111.27
864.592	37.55
864.766	10.92
864.939	10.92
865.113	-71
865.287	80.55
865.461	12.97
865.634	-91.48
865.808	2.73
865.982	6.83
866.156	6.83
866.329	-13.65
866.503	15.02
866.676	115.37
866.85	-38.23
867.024	-5.46
867.197	39.59
867.371	12.97
867.544	-9.56
867.718	-32.08
867.891	12.97
868.065	19.11
868.238	33.45
868.412	-9.56
868.585	58.03
868.759	90.79
868.932	72.36
869.105	-17.75
869.279	25.26
869.452	-9.56
869.625	2.73
869.799	58.03
869.972	-73.04
870.145	51.88
870.319	55.98
870.492	88.75
870.665	29.35
870.838	0.68
871.011	-36.18
871.185	-32.08
871.358	6.83
871.531	92.84
871.704	-85.33
871.877	43.69
872.05	-7.51
872.223	4.78
872.396	0.68
872.569	41.64
872.742	-73.04
872.915	41.64
873.088	8.87
873.261	-21.85
873.434	131.75
873.607	-9.56
873.78	-11.61
873.953	2.73
874.126	53.93
874.299	21.16
874.471	23.21
874.644	-5.46
874.817	29.35
874.99	129.7
875.163	29.35
875.335	-32.08
875.508	4.78
875.681	111.27
875.853	49.83
876.026	17.07
876.199	-1.37
876.371	21.16
876.544	6.83
876.717	8.87
876.889	-32.08
877.062	19.11
877.234	-23.89
877.407	-101.72
877.579	-62.8
877.752	0.68
877.924	6.83
878.097	15.02
878.269	4.78
878.442	39.59
878.614	70.31
878.786	74.41
878.959	-81.24
879.131	39.59
879.303	-54.61
879.476	19.11
879.648	80.55
879.82	49.83
879.993	12.97
880.165	84.65
880.337	-40.28
880.509	41.64
880.681	-38.23
880.854	-13.65
881.026	-11.61
881.198	92.84
881.37	-101.72
881.542	15.02
881.714	-34.13
881.886	-19.8
882.058	-5.46
882.23	86.7
882.402	-79.19
882.574	33.45
882.746	41.64
882.918	78.51
883.09	-9.56
883.262	29.35
883.434	43.69
883.606	-44.37
883.778	23.21
883.95	84.65
884.122	-17.75
884.293	60.07
884.465	64.17
884.637	25.26
884.809	-38.23
884.98	8.87
885.152	8.87
885.324	66.22
885.496	-32.08
885.667	-48.47
885.839	101.03
886.011	66.22
886.182	-36.18
886.354	68.27
886.525	41.64
886.697	-32.08
886.869	-44.37
887.04	0.68
887.212	45.74
887.383	0.68
887.555	47.79
887.726	-13.65
887.897	0.68
888.069	12.97
888.24	-38.23
888.412	-21.85
888.583	-25.94
888.754	-5.46
888.926	-32.08
889.097	15.02
889.268	-64.85
889.44	27.31
889.611	-46.42
889.782	37.55
889.953	41.64
890.125	107.18
890.296	-71
890.467	-48.47
890.638	12.97
890.809	29.35
890.98	0.68
891.151	19.11
891.323	39.59
891.494	-38.23
891.665	-27.99
891.836	-7.51
892.007	-3.41
892.178	35.5
892.349	-13.65
892.52	-40.28
892.691	2.73
892.862	-13.65
893.032	-36.18
893.203	66.22
893.374	55.98
893.545	64.17
893.716	10.92
893.887	31.4
894.057	12.97
894.228	-11.61
894.399	-5.46
894.57	43.69
894.74	64.17
894.911	-50.52
895.082	-52.56
895.253	-15.7
895.423	19.11
895.594	66.22
895.764	31.4
895.935	41.64
896.106	29.35
896.276	-3.41
896.447	-54.61
896.617	-34.13
896.788	-93.52
896.958	-7.51
897.129	-17.75
897.299	-56.66
897.47	37.55
897.64	-71
897.81	21.16
897.981	8.87
898.151	-44.37
898.322	-34.13
898.492	41.64
898.662	-34.13
898.832	15.02
899.003	-21.85
899.173	31.4
899.343	-87.38
899.513	-101.72
