Data from USB4F104151__9__12-11-16-802.txt Node

Date: Fri Mar 14 12:11:16 EDT 2025
User: louis
Spectrometer: USB4F10415
Trigger mode: 4
Integration Time (sec): 5.000000E-2
Scans to average: 1
Electric dark correction enabled: true
Nonlinearity correction enabled: false
Boxcar width: 0
XAxis mode: Wavelengths
Number of Pixels in Spectrum: 3648
>>>>>Begin Spectral Data<<<<<
178.204	-256.34
178.424	-256.34
178.644	-256.34
178.864	-227.67
179.084	-235.86
179.304	-2.39
179.524	-0.34
179.744	-16.73
179.964	34.47
180.184	54.95
180.404	67.24
180.624	-29.01
180.844	5.8
181.064	-94.55
181.283	-37.2
181.503	-24.92
181.723	42.67
181.943	-88.4
182.163	130.73
182.383	18.09
182.602	79.53
182.822	16.04
183.042	36.52
183.262	1.71
183.482	3.75
183.701	1.71
183.921	89.77
184.141	-12.63
184.361	18.09
184.58	42.67
184.8	112.3
185.02	-102.74
185.239	79.53
185.459	93.87
185.679	87.72
185.898	-45.4
186.118	36.52
186.338	22.19
186.557	48.81
186.777	-57.68
186.997	-39.25
187.216	52.91
187.436	59.05
187.655	32.43
187.875	-18.77
188.095	63.15
188.314	93.87
188.534	155.3
188.753	-6.49
188.973	85.67
189.192	102.06
189.412	77.48
189.631	67.24
189.851	40.62
190.07	114.34
190.29	-57.68
190.509	-82.26
190.729	24.23
190.948	93.87
191.168	294.57
191.387	110.25
191.607	-29.01
191.826	36.52
192.045	52.91
192.265	22.19
192.484	36.52
192.704	97.96
192.923	-53.59
193.142	126.63
193.362	-12.63
193.581	100.01
193.8	26.28
194.02	93.87
194.239	26.28
194.458	9.9
194.678	16.04
194.897	26.28
195.116	-33.11
195.335	18.09
195.555	50.86
195.774	-2.39
195.993	95.91
196.212	5.8
196.432	16.04
196.651	-6.49
196.87	40.62
197.089	145.06
197.308	102.06
197.528	-10.58
197.747	-0.34
197.966	67.24
198.185	63.15
198.404	5.8
198.623	11.95
198.842	77.48
199.062	91.82
199.281	46.76
199.5	48.81
199.719	26.28
199.938	7.85
200.157	52.91
200.376	97.96
200.595	63.15
200.814	57
201.033	3.75
201.252	132.78
201.471	38.57
201.69	102.06
201.909	40.62
202.128	54.95
202.347	24.23
202.566	44.71
202.785	16.04
203.004	-8.53
203.223	147.11
203.442	28.33
203.661	20.14
203.879	54.95
204.098	89.77
204.317	-80.21
204.536	130.73
204.755	81.58
204.974	52.91
205.193	3.75
205.411	93.87
205.63	57
205.849	97.96
206.068	42.67
206.287	-41.3
206.505	153.26
206.724	36.52
206.943	3.75
207.162	-12.63
207.381	-6.49
207.599	-2.39
207.818	5.8
208.037	24.23
208.255	-24.92
208.474	26.28
208.693	57
208.911	-16.73
209.13	50.86
209.349	143.02
209.567	44.71
209.786	48.81
210.005	81.58
210.223	-8.53
210.442	-26.96
210.661	52.91
210.879	157.35
211.098	-29.01
211.316	54.95
211.535	67.24
211.753	16.04
211.972	54.95
212.191	-33.11
212.409	16.04
212.628	54.95
212.846	22.19
213.065	1.71
213.283	65.19
213.502	22.19
213.72	-8.53
213.938	81.58
214.157	-0.34
214.375	52.91
214.594	-39.25
214.812	-2.39
215.031	34.47
215.249	38.57
215.467	22.19
215.686	79.53
215.904	75.43
216.122	9.9
216.341	67.24
216.559	-6.49
216.778	100.01
216.996	83.63
217.214	20.14
217.432	71.34
217.651	-37.2
217.869	-2.39
218.087	67.24
218.306	-4.44
218.524	65.19
218.742	13.99
218.96	102.06
219.179	73.39
219.397	-10.58
219.615	81.58
219.833	57
220.051	32.43
220.27	147.11
220.488	89.77
220.706	71.34
220.924	44.71
221.142	-4.44
221.36	28.33
221.578	26.28
221.796	40.62
222.015	65.19
222.233	9.9
222.451	38.57
222.669	30.38
222.887	106.15
223.105	-16.73
223.323	54.95
223.541	-35.16
223.759	116.39
223.977	20.14
224.195	140.97
224.413	44.71
224.631	42.67
224.849	16.04
225.067	251.56
225.285	5.8
225.503	63.15
225.721	-16.73
225.939	-45.4
226.157	38.57
226.375	140.97
226.592	40.62
226.81	110.25
227.028	85.67
227.246	46.76
227.464	61.1
227.682	16.04
227.9	-14.68
228.117	46.76
228.335	38.57
228.553	54.95
228.771	-12.63
228.989	26.28
229.206	87.72
229.424	7.85
229.642	-35.16
229.86	-35.16
230.077	63.15
230.295	22.19
230.513	5.8
230.731	-22.87
230.948	108.2
231.166	95.91
231.384	20.14
231.601	-59.73
231.819	34.47
232.037	-14.68
232.254	-10.58
232.472	-16.73
232.689	11.95
232.907	28.33
233.125	-24.92
233.342	-4.44
233.56	-10.58
233.777	5.8
233.995	-33.11
234.213	54.95
234.43	63.15
234.648	26.28
234.865	59.05
235.083	65.19
235.3	40.62
235.518	57
235.735	79.53
235.953	116.39
236.17	-12.63
236.388	-2.39
236.605	7.85
236.822	83.63
237.04	48.81
237.257	177.83
237.475	20.14
237.692	50.86
237.909	81.58
238.127	89.77
238.344	36.52
238.562	75.43
238.779	-10.58
238.996	-10.58
239.214	32.43
239.431	69.29
239.648	32.43
239.865	5.8
240.083	89.77
240.3	22.19
240.517	42.67
240.735	48.81
240.952	114.34
241.169	44.71
241.386	50.86
241.603	-22.87
241.821	-0.34
242.038	48.81
242.255	77.48
242.472	1.71
242.689	138.92
242.907	-22.87
243.124	40.62
243.341	-12.63
243.558	1.71
243.775	-0.34
243.992	-20.82
244.209	-8.53
244.426	171.69
244.643	-0.34
244.86	48.81
245.078	79.53
245.295	5.8
245.512	9.9
245.729	-82.26
245.946	75.43
246.163	24.23
246.38	13.99
246.597	-49.49
246.814	3.75
247.031	67.24
247.248	38.57
247.464	30.38
247.681	-18.77
247.898	46.76
248.115	34.47
248.332	65.19
248.549	69.29
248.766	-12.63
248.983	18.09
249.2	52.91
249.417	67.24
249.633	40.62
249.85	16.04
250.067	44.71
250.284	59.05
250.501	26.28
250.717	52.91
250.934	-22.87
251.151	-31.06
251.368	7.85
251.585	57
251.801	85.67
252.018	30.38
252.235	46.76
252.451	-14.68
252.668	-26.96
252.885	71.34
253.102	7.85
253.318	-63.83
253.535	61.1
253.752	-29.01
253.968	-10.58
254.185	-18.77
254.401	69.29
254.618	38.57
254.835	1.71
255.051	118.44
255.268	40.62
255.484	24.23
255.701	-10.58
255.917	57
256.134	30.38
256.351	108.2
256.567	-14.68
256.784	46.76
257	-51.54
257.217	57
257.433	30.38
257.65	85.67
257.866	54.95
258.082	22.19
258.299	-53.59
258.515	63.15
258.732	18.09
258.948	22.19
259.165	-22.87
259.381	-104.79
259.597	83.63
259.814	52.91
260.03	18.09
260.246	-0.34
260.463	57
260.679	22.19
260.895	9.9
261.112	112.3
261.328	69.29
261.544	22.19
261.761	157.35
261.977	42.67
262.193	-72.02
262.409	87.72
262.626	38.57
262.842	44.71
263.058	18.09
263.274	69.29
263.49	100.01
263.707	77.48
263.923	57
264.139	-59.73
264.355	91.82
264.571	57
264.787	13.99
265.004	102.06
265.22	16.04
265.436	112.3
265.652	-31.06
265.868	20.14
266.084	-20.82
266.3	77.48
266.516	-80.21
266.732	38.57
266.948	87.72
267.164	1.71
267.38	83.63
267.596	38.57
267.812	77.48
268.028	24.23
268.244	-0.34
268.46	57
268.676	-12.63
268.892	57
269.108	63.15
269.324	-8.53
269.54	3.75
269.756	42.67
269.972	-22.87
270.188	24.23
270.403	1.71
270.619	46.76
270.835	-2.39
271.051	7.85
271.267	20.14
271.483	-24.92
271.698	-2.39
271.914	9.9
272.13	42.67
272.346	59.05
272.562	38.57
272.777	36.52
272.993	1.71
273.209	22.19
273.425	79.53
273.64	-29.01
273.856	120.49
274.072	50.86
274.287	44.71
274.503	134.82
274.719	44.71
274.934	-57.68
275.15	-49.49
275.366	16.04
275.581	16.04
275.797	38.57
276.012	57
276.228	54.95
276.444	-12.63
276.659	143.02
276.875	5.8
277.09	-49.49
277.306	-55.64
277.521	36.52
277.737	30.38
277.952	18.09
278.168	38.57
278.383	11.95
278.599	44.71
278.814	28.33
279.03	75.43
279.245	71.34
279.461	97.96
279.676	18.09
279.892	28.33
280.107	-22.87
280.322	18.09
280.538	44.71
280.753	9.9
280.969	-26.96
281.184	40.62
281.399	63.15
281.615	30.38
281.83	36.52
282.045	-74.07
282.26	-26.96
282.476	-18.77
282.691	50.86
282.906	3.75
283.122	36.52
283.337	67.24
283.552	73.39
283.767	3.75
283.983	11.95
284.198	-6.49
284.413	54.95
284.628	-18.77
284.843	7.85
285.058	59.05
285.274	63.15
285.489	-20.82
285.704	93.87
285.919	-6.49
286.134	63.15
286.349	34.47
286.564	11.95
286.779	116.39
286.995	26.28
287.21	-14.68
287.425	9.9
287.64	5.8
287.855	65.19
288.07	-41.3
288.285	48.81
288.5	46.76
288.715	44.71
288.93	36.52
289.145	9.9
289.36	50.86
289.575	36.52
289.79	110.25
290.004	11.95
290.219	34.47
290.434	69.29
290.649	24.23
290.864	46.76
291.079	44.71
291.294	28.33
291.509	91.82
291.724	32.43
291.938	102.06
292.153	30.38
292.368	-43.35
292.583	71.34
292.798	59.05
293.012	9.9
293.227	1.71
293.442	-26.96
293.657	118.44
293.871	104.11
294.086	85.67
294.301	50.86
294.516	71.34
294.73	-20.82
294.945	-33.11
295.16	-20.82
295.374	30.38
295.589	5.8
295.804	-10.58
296.018	46.76
296.233	40.62
296.447	32.43
296.662	-41.3
296.877	65.19
297.091	104.11
297.306	26.28
297.52	-26.96
297.735	40.62
297.949	-2.39
298.164	69.29
298.378	116.39
298.593	44.71
298.807	30.38
299.022	52.91
299.236	63.15
299.451	-53.59
299.665	-16.73
299.88	-8.53
300.094	-26.96
300.309	1.71
300.523	104.11
300.737	3.75
300.952	106.15
301.166	95.91
301.381	-39.25
301.595	46.76
301.809	-24.92
302.024	-14.68
302.238	32.43
302.452	77.48
302.667	22.19
302.881	52.91
303.095	93.87
303.309	100.01
303.524	22.19
303.738	44.71
303.952	-55.64
304.166	73.39
304.381	5.8
304.595	81.58
304.809	-8.53
305.023	57
305.237	13.99
305.452	38.57
305.666	16.04
305.88	42.67
306.094	46.76
306.308	36.52
306.522	-14.68
306.736	40.62
306.95	-6.49
307.164	-33.11
307.379	95.91
307.593	79.53
307.807	93.87
308.021	75.43
308.235	77.48
308.449	-63.83
308.663	3.75
308.877	61.1
309.091	81.58
309.305	54.95
309.519	-96.6
309.733	69.29
309.947	-26.96
310.161	116.39
310.374	67.24
310.588	126.63
310.802	-22.87
311.016	1.71
311.23	-8.53
311.444	-39.25
311.658	116.39
311.872	122.54
312.085	30.38
312.299	110.25
312.513	61.1
312.727	-26.96
312.941	-10.58
313.154	28.33
313.368	1.71
313.582	34.47
313.796	7.85
314.009	-22.87
314.223	118.44
314.437	24.23
314.651	48.81
314.864	44.71
315.078	-69.97
315.292	-10.58
315.505	-29.01
315.719	28.33
315.933	48.81
316.146	34.47
316.36	63.15
316.573	102.06
316.787	1.71
317.001	50.86
317.214	-84.31
317.428	63.15
317.641	1.71
317.855	-2.39
318.068	9.9
318.282	106.15
318.495	106.15
318.709	63.15
318.922	-2.39
319.136	100.01
319.349	30.38
319.563	-14.68
319.776	48.81
319.99	1.71
320.203	110.25
320.417	71.34
320.63	69.29
320.843	116.39
321.057	24.23
321.27	-4.44
321.483	5.8
321.697	143.02
321.91	46.76
322.124	87.72
322.337	5.8
322.55	22.19
322.763	91.82
322.977	89.77
323.19	11.95
323.403	-0.34
323.617	75.43
323.83	61.1
324.043	100.01
324.256	87.72
324.469	-86.36
324.683	136.87
324.896	-24.92
325.109	26.28
325.322	-43.35
325.535	122.54
325.748	57
325.962	30.38
326.175	120.49
326.388	18.09
326.601	34.47
326.814	1.71
327.027	-35.16
327.24	118.44
327.453	-67.92
327.666	63.15
327.879	67.24
328.092	-8.53
328.305	-8.53
328.518	20.14
328.731	108.2
328.944	75.43
329.157	20.14
329.37	77.48
329.583	128.68
329.796	130.73
330.009	-55.64
330.222	81.58
330.435	-12.63
330.648	-14.68
330.861	73.39
331.073	75.43
331.286	104.11
331.499	5.8
331.712	7.85
331.925	18.09
332.138	34.47
332.35	73.39
332.563	-6.49
332.776	44.71
332.989	5.8
333.202	48.81
333.414	-55.64
333.627	-0.34
333.84	-12.63
334.053	38.57
334.265	9.9
334.478	-31.06
334.691	-51.54
334.903	-0.34
335.116	-53.59
335.329	-10.58
335.541	52.91
335.754	102.06
335.966	-22.87
336.179	63.15
336.392	1.71
336.604	22.19
336.817	7.85
337.029	104.11
337.242	44.71
337.454	16.04
337.667	1.71
337.88	134.82
338.092	-14.68
338.305	93.87
338.517	7.85
338.729	89.77
338.942	108.2
339.154	18.09
339.367	1.71
339.579	46.76
339.792	-45.4
340.004	79.53
340.217	-2.39
340.429	73.39
340.641	87.72
340.854	1.71
341.066	-45.4
341.278	40.62
341.491	114.34
341.703	32.43
341.915	1.71
342.128	79.53
342.34	48.81
342.552	28.33
342.764	-4.44
342.977	-67.92
343.189	93.87
343.401	50.86
343.613	18.09
343.826	30.38
344.038	20.14
344.25	40.62
344.462	38.57
344.674	24.23
344.886	30.38
345.099	52.91
345.311	118.44
345.523	-16.73
345.735	-2.39
345.947	36.52
346.159	44.71
346.371	3.75
346.583	100.01
346.795	48.81
347.007	52.91
347.219	22.19
347.431	26.28
347.643	104.11
347.855	61.1
348.067	46.76
348.279	-26.96
348.491	46.76
348.703	24.23
348.915	50.86
349.127	3.75
349.339	24.23
349.551	-55.64
349.763	46.76
349.975	44.71
350.187	120.49
350.399	26.28
350.61	61.1
350.822	28.33
351.034	69.29
351.246	9.9
351.458	28.33
351.669	36.52
351.881	46.76
352.093	83.63
352.305	75.43
352.517	-47.44
352.728	79.53
352.94	59.05
353.152	87.72
353.363	-29.01
353.575	112.3
353.787	124.58
353.999	71.34
354.21	108.2
354.422	-12.63
354.633	75.43
354.845	48.81
355.057	61.1
355.268	48.81
355.48	61.1
355.692	-102.74
355.903	24.23
356.115	16.04
356.326	-45.4
356.538	140.97
356.749	36.52
356.961	20.14
357.172	102.06
357.384	93.87
357.595	169.64
357.807	83.63
358.018	5.8
358.23	44.71
358.441	83.63
358.653	52.91
358.864	44.71
359.075	1.71
359.287	54.95
359.498	143.02
359.709	79.53
359.921	77.48
360.132	32.43
360.344	-4.44
360.555	16.04
360.766	48.81
360.977	-49.49
361.189	54.95
361.4	-29.01
361.611	77.48
361.823	85.67
362.034	16.04
362.245	13.99
362.456	3.75
362.667	-2.39
362.879	-18.77
363.09	59.05
363.301	75.43
363.512	57
363.723	42.67
363.935	38.57
364.146	110.25
364.357	30.38
364.568	128.68
364.779	28.33
364.99	50.86
365.201	-10.58
365.412	40.62
365.623	34.47
365.834	42.67
366.045	-0.34
366.256	65.19
366.467	28.33
366.678	1.71
366.889	-0.34
367.1	28.33
367.311	-35.16
367.522	9.9
367.733	122.54
367.944	114.34
368.155	7.85
368.366	-4.44
368.577	48.81
368.788	48.81
368.999	-18.77
369.209	67.24
369.42	63.15
369.631	140.97
369.842	108.2
370.053	67.24
370.264	26.28
370.474	83.63
370.685	85.67
370.896	7.85
371.107	138.92
371.317	145.06
371.528	-2.39
371.739	118.44
371.95	126.63
372.16	48.81
372.371	95.91
372.582	73.39
372.792	52.91
373.003	61.1
373.214	-2.39
373.424	57
373.635	5.8
373.846	81.58
374.056	61.1
374.267	71.34
374.477	71.34
374.688	-20.82
374.898	13.99
375.109	57
375.319	34.47
375.53	126.63
375.74	71.34
375.951	54.95
376.161	48.81
376.372	79.53
376.582	69.29
376.793	102.06
377.003	63.15
377.214	18.09
377.424	20.14
377.635	-18.77
377.845	32.43
378.055	93.87
378.266	32.43
378.476	32.43
378.686	-16.73
378.897	54.95
379.107	46.76
379.317	16.04
379.528	40.62
379.738	104.11
379.948	75.43
380.158	91.82
380.369	81.58
380.579	24.23
380.789	-33.11
380.999	22.19
381.21	114.34
381.42	155.3
381.63	26.28
381.84	42.67
382.05	79.53
382.261	91.82
382.471	81.58
382.681	71.34
382.891	177.83
383.101	69.29
383.311	-8.53
383.521	-20.82
383.731	104.11
383.941	87.72
384.151	54.95
384.361	71.34
384.571	106.15
384.781	48.81
384.991	110.25
385.201	124.58
385.411	116.39
385.621	67.24
385.831	22.19
386.041	65.19
386.251	-0.34
386.461	97.96
386.671	-2.39
386.881	69.29
387.091	-26.96
387.301	104.11
387.511	42.67
387.72	7.85
387.93	93.87
388.14	42.67
388.35	42.67
388.56	46.76
388.769	116.39
388.979	-22.87
389.189	13.99
389.399	87.72
389.609	100.01
389.818	83.63
390.028	71.34
390.238	71.34
390.447	36.52
390.657	114.34
390.867	13.99
391.076	-69.97
391.286	132.78
391.496	89.77
391.705	93.87
391.915	104.11
392.125	112.3
392.334	16.04
392.544	85.67
392.753	32.43
392.963	7.85
393.172	91.82
393.382	28.33
393.591	114.34
393.801	13.99
394.01	32.43
394.22	143.02
394.429	-45.4
394.639	48.81
394.848	122.54
395.058	54.95
395.267	95.91
395.477	81.58
395.686	69.29
395.895	104.11
396.105	81.58
396.314	151.21
396.524	36.52
396.733	42.67
396.942	126.63
397.152	138.92
397.361	140.97
397.57	48.81
397.78	100.01
397.989	153.26
398.198	208.55
398.407	13.99
398.617	85.67
398.826	97.96
399.035	63.15
399.244	106.15
399.453	71.34
399.663	71.34
399.872	95.91
400.081	69.29
400.29	102.06
400.499	11.95
400.708	136.87
400.917	46.76
401.127	136.87
401.336	116.39
401.545	134.82
401.754	69.29
401.963	102.06
402.172	57
402.381	106.15
402.59	87.72
402.799	151.21
403.008	130.73
403.217	71.34
403.426	206.5
403.635	65.19
403.844	102.06
404.053	138.92
404.262	114.34
404.471	212.65
404.68	165.54
404.888	65.19
405.097	114.34
405.306	155.3
405.515	130.73
405.724	143.02
405.933	108.2
406.142	167.59
406.35	229.03
406.559	175.78
406.768	145.06
406.977	245.41
407.185	194.22
407.394	206.5
407.603	116.39
407.812	233.13
408.02	280.23
408.229	214.7
408.438	249.51
408.646	224.94
408.855	226.98
409.064	210.6
409.272	304.81
409.481	267.94
409.69	206.5
409.898	261.8
410.107	298.66
410.315	368.29
410.524	302.76
410.733	345.77
410.941	278.18
411.15	241.32
411.358	323.24
411.567	380.58
411.775	323.24
411.984	333.48
412.192	415.4
412.401	392.87
412.609	380.58
412.818	548.51
413.026	523.94
413.234	386.72
413.443	480.93
413.651	476.84
413.86	493.22
414.068	495.27
414.276	542.37
414.485	528.03
414.693	603.81
414.901	693.92
415.11	652.96
415.318	614.05
415.526	685.73
415.734	652.96
415.943	738.98
416.151	781.98
416.359	784.03
416.567	757.41
416.776	749.22
416.984	786.08
417.192	874.14
417.4	773.79
417.608	863.9
417.817	845.47
418.025	958.11
418.233	1060.51
418.441	954.01
418.649	1023.64
418.857	1099.42
419.065	1117.85
419.273	1142.43
419.481	1103.51
419.689	1154.71
419.897	1334.93
420.105	1263.26
420.313	1363.61
420.521	1412.76
420.729	1500.82
420.937	1506.96
421.145	1531.54
421.353	1633.94
421.561	1740.43
421.769	1779.34
421.977	1771.15
422.185	1830.54
422.393	1881.74
422.601	1986.19
422.809	1984.14
423.017	2010.76
423.224	2131.59
423.432	2115.21
423.64	2102.92
423.848	2393.73
424.056	2309.77
424.263	2393.73
424.471	2408.07
424.679	2580.1
424.887	2723.46
425.094	2776.7
425.302	2825.86
425.51	2813.57
425.718	2889.34
425.925	2958.97
426.133	3100.28
426.341	3200.63
426.548	3423.86
426.756	3473.01
426.964	3397.24
427.171	3481.21
427.379	3692.15
427.586	3634.8
427.794	3966.57
428.001	4130.41
428.209	4265.58
428.417	4120.17
428.624	4519.53
428.832	4445.8
429.039	4335.21
429.247	4441.7
429.454	4902.5
429.662	5330.52
429.869	4783.71
430.076	5318.23
430.284	4982.37
430.491	5252.7
430.699	5615.19
430.906	5529.17
431.114	5690.96
431.321	5656.15
431.528	5772.88
431.736	6188.62
431.943	6669.89
432.15	6389.32
432.358	6403.66
432.565	6876.74
432.772	6807.11
432.979	7175.74
433.187	7231.04
433.394	7206.46
433.601	7644.73
433.808	7888.43
434.016	7874.1
434.223	8238.64
434.43	8594.98
434.637	8414.76
434.844	8914.47
435.052	9262.62
435.259	9100.83
435.466	9276.96
435.673	8803.88
435.88	9412.12
436.087	10198.54
436.294	10257.93
436.501	9862.68
436.708	10010.13
436.915	10534.41
437.122	10944
437.329	10829.32
437.537	11214.34
437.743	11191.81
437.95	11400.7
438.157	12033.52
438.364	12375.53
438.571	12307.95
438.778	12418.54
438.985	13688.28
439.192	13069.8
439.399	13002.21
439.606	13184.48
439.813	13635.03
440.02	14599.63
440.227	14374.35
440.433	14206.42
440.64	14835.14
440.847	14388.69
441.054	15093.19
441.261	15979.96
441.467	15705.53
441.674	15877.56
441.881	16809.39
442.088	16786.86
442.294	16321.97
442.501	16850.35
442.708	17388.96
442.914	17790.36
443.121	18722.19
443.328	17976.73
443.534	19213.7
443.741	18812.3
443.948	18554.26
444.154	19907.96
444.361	19555.71
444.568	19934.59
444.774	19699.07
444.981	20184.44
445.187	20764.01
445.394	21658.98
445.6	21364.07
445.807	23033.16
446.013	22183.26
446.22	22652.24
446.426	23571.78
446.633	23913.79
446.839	24810.8
447.046	23536.96
447.252	25185.58
447.459	25226.54
447.665	24745.27
447.871	26051.87
448.078	27036.94
448.284	25885.98
448.491	26352.92
448.697	27534.6
448.903	28151.04
449.11	28302.59
449.316	27735.3
449.522	28148.99
449.728	28441.85
449.935	28970.22
450.141	29193.45
450.347	29699.3
450.553	28638.45
450.76	29316.33
450.966	30069.98
451.172	29852.9
451.378	30381.28
451.584	29580.52
451.791	30401.75
451.997	30663.89
452.203	31034.58
452.409	31012.05
452.615	31081.68
452.821	29629.67
453.027	29013.23
453.233	31028.43
453.44	29783.27
453.646	29807.84
453.852	30069.98
454.058	30954.71
454.264	29801.7
454.47	30608.6
454.676	29195.5
454.882	30594.26
455.088	27845.89
455.294	28517.62
455.5	28466.42
455.705	28976.37
455.911	27637
456.117	27294.99
456.323	26594.58
456.529	25759.01
456.735	26518.81
456.941	25785.63
457.147	25322.79
457.352	24462.65
457.558	24493.36
457.764	24485.17
457.97	23913.79
458.176	23475.52
458.381	23309.64
458.587	22291.8
458.793	22381.91
458.999	21194.09
459.204	22627.67
459.41	21599.59
459.616	20213.11
459.821	20319.6
460.027	20405.62
460.233	19963.26
460.438	19221.89
460.644	19234.18
460.85	18546.06
461.055	18072.98
461.261	18128.28
461.466	16491.95
461.672	16356.79
461.878	17360.29
462.083	16055.73
462.289	15814.07
462.494	15574.46
462.7	14810.57
462.905	14575.05
463.111	14712.27
463.316	14990.79
463.522	14878.15
463.727	14673.35
463.932	14458.32
464.138	14570.96
464.343	14470.61
464.549	13911.51
464.754	14599.63
464.959	14372.3
465.165	14409.17
465.37	13530.59
465.575	13409.76
465.781	13872.6
465.986	13757.91
466.191	13407.71
466.397	13065.7
466.602	12543.47
466.807	13256.16
467.012	13080.04
467.218	13028.84
467.423	12604.91
467.628	13086.18
467.833	13372.89
468.038	12889.57
468.244	12574.19
468.449	13116.9
468.654	12674.54
468.859	12821.99
469.064	12387.82
469.269	11683.32
469.474	12111.35
469.679	12379.63
469.885	11974.13
470.09	12142.07
470.295	12043.76
470.5	11724.28
470.705	11867.64
470.91	11458.04
471.115	11462.14
471.32	11447.8
471.525	11439.61
471.73	11249.15
471.935	10907.14
472.139	10726.92
472.344	11062.79
472.549	10837.51
472.754	10948.1
472.959	10526.22
473.164	10204.69
473.369	9975.31
473.574	10477.07
473.778	10333.71
473.983	10268.17
474.188	10135.06
474.393	9805.33
474.598	10032.66
474.802	9666.07
475.007	9618.97
475.212	9766.42
475.417	9285.15
475.621	9342.49
475.826	9256.48
476.031	9227.81
476.235	8820.26
476.44	9119.26
476.645	8926.75
476.849	8904.23
477.054	8640.04
477.259	8525.35
477.463	8642.09
477.668	8551.98
477.872	8486.44
478.077	8334.89
478.282	8207.92
478.486	8091.18
478.691	8056.37
478.895	7974.45
479.1	8244.78
479.304	8078.9
479.509	7812.66
479.713	7996.98
479.918	7896.63
480.122	7714.36
480.326	7740.98
480.531	7757.36
480.735	7460.41
480.94	7579.19
481.144	7839.28
481.348	7220.8
481.553	7644.73
481.757	7503.42
481.961	7409.21
482.166	7571
482.37	7321.15
482.574	7405.11
482.778	7247.42
482.983	7534.14
483.187	7458.36
483.391	7476.79
483.595	7386.68
483.8	7343.67
484.004	7333.43
484.208	7597.62
484.412	7280.19
484.616	7347.77
484.821	7415.35
485.025	7276.09
485.229	7368.25
485.433	7208.51
485.637	7233.08
485.841	7067.2
486.045	7464.5
486.249	7398.97
486.453	7267.9
486.657	7251.52
486.861	7269.95
487.065	7272
487.269	7525.94
487.473	7249.47
487.677	7327.29
487.881	7382.59
488.085	7274.04
488.289	7409.21
488.493	7317.05
488.697	7374.39
488.901	7360.06
489.105	7263.8
489.309	7571
489.512	7396.92
489.716	7394.87
489.92	7493.18
490.124	7433.79
490.328	7583.29
490.531	7532.09
490.735	7394.87
490.939	7534.14
491.143	7525.94
491.346	7462.46
491.55	7691.83
491.754	7640.63
491.958	7659.06
492.161	7571
492.365	7628.34
492.569	7710.26
492.772	7507.51
492.976	7794.23
493.18	7788.08
493.383	7847.47
493.587	7890.48
493.79	7999.02
493.994	7827
494.197	7804.47
494.401	8013.36
494.605	8013.36
494.808	8271.4
495.012	8130.09
495.215	8164.91
495.419	8287.79
495.622	8400.43
495.825	8468.01
496.029	8511.02
496.232	8646.18
496.436	8551.98
496.639	8740.39
496.843	8769.06
497.046	8900.13
497.249	8977.95
497.453	9066.02
497.656	9147.94
497.859	9145.89
498.063	9180.7
498.266	9502.23
498.469	9315.87
498.673	9295.39
498.876	9547.29
499.079	9907.73
499.282	9578.01
499.485	9889.3
499.689	9868.82
499.892	10104.34
500.095	9942.55
500.298	10266.13
500.501	10259.98
500.705	10436.11
500.908	10626.57
501.111	10915.33
501.314	10788.36
501.517	10882.56
501.72	11066.88
501.923	11142.66
502.126	11066.88
502.329	11501.05
502.532	11292.16
502.735	11476.48
502.938	11576.83
503.141	11830.77
503.344	12066.29
503.547	12076.53
503.75	12140.02
503.953	12443.12
504.156	12348.91
504.359	12547.56
504.562	12692.97
504.765	12649.96
504.968	12991.97
505.17	13045.22
505.373	13129.19
505.576	13379.04
505.779	13557.21
505.982	13387.23
506.185	13843.93
506.387	13802.97
506.59	14052.82
506.793	14165.46
506.996	14130.64
507.198	14550.48
507.401	14405.07
507.604	14708.17
507.807	14917.06
508.009	15177.16
508.212	15105.48
508.415	15226.31
508.617	15427.01
508.82	15617.47
509.022	15506.88
509.225	15646.14
509.428	15912.38
509.63	16076.21
509.833	16086.45
510.035	16608.69
510.238	16348.59
510.44	16602.54
510.643	16825.77
510.845	16946.6
511.048	16940.46
511.25	17057.19
511.453	17055.14
511.655	17792.41
511.858	17675.68
512.06	17733.02
512.262	17917.34
512.465	17898.91
512.667	18138.52
512.87	18556.3
513.072	18869.64
513.274	18834.83
513.477	18660.75
513.679	18910.6
513.881	19398.02
514.084	19629.44
514.286	19514.75
514.488	19430.79
514.69	19809.66
514.893	19967.35
515.095	20094.33
515.297	20082.04
515.499	20145.53
515.701	20381.04
515.904	20929.9
516.106	20764.01
516.308	21034.35
516.51	21245.29
516.712	21312.87
516.914	21560.67
517.116	21630.3
517.318	21699.94
517.52	21900.64
517.722	22148.44
517.925	22179.16
518.127	22140.25
518.329	22457.68
518.531	22539.6
518.733	22867.28
518.935	22777.17
519.136	22748.5
519.338	23211.34
519.54	23407.94
519.742	23704.9
519.944	23450.95
520.146	23866.69
520.348	23815.49
520.55	24104.25
520.752	24251.7
520.954	24599.86
521.155	24538.42
521.357	24712.5
521.559	25103.66
521.761	25384.23
521.963	24882.48
522.164	25173.29
522.366	25287.98
522.568	25369.9
522.77	25543.97
522.971	25888.03
523.173	25687.33
523.375	25732.39
523.576	25947.42
523.778	26205.47
523.98	26234.14
524.181	26617.11
524.383	26535.19
524.584	26658.07
524.786	26459.41
524.988	26432.79
525.189	26895.63
525.391	27061.52
525.592	26967.31
525.794	26983.69
525.995	27155.72
526.197	27131.15
526.398	27274.51
526.6	27219.21
526.801	27411.72
527.003	27301.13
527.204	27372.81
527.406	27417.86
527.607	27659.52
527.808	27876.61
528.01	27268.36
528.211	27733.25
528.412	27739.4
528.614	28013.82
528.815	27931.9
529.016	28196.09
529.218	27958.53
529.419	27960.58
529.62	28128.51
529.822	27995.39
530.023	27837.7
530.224	27813.12
530.425	27921.66
530.626	27788.55
530.828	27886.85
531.029	28534.01
531.23	28075.26
531.431	27966.72
531.632	28343.55
531.833	28288.25
532.035	28335.35
532.236	28257.53
532.437	28337.4
532.638	28132.61
532.839	28316.92
533.04	28388.6
533.241	27817.22
533.442	28732.66
533.643	28525.82
533.844	28159.23
534.045	28437.75
534.246	27882.75
534.447	28433.66
534.648	28220.67
534.849	28646.65
535.05	27813.12
535.251	28509.43
535.451	28161.28
535.652	28505.34
535.853	28235
536.054	28058.88
536.255	28339.45
536.456	27933.95
536.657	28538.1
536.857	28042.49
537.058	28038.4
537.259	28523.77
537.46	28353.79
537.66	27890.95
537.861	28407.03
538.062	28040.45
538.263	28488.95
538.463	28155.13
538.664	28065.02
538.865	28187.9
539.065	28355.83
539.266	27837.7
539.466	27987.2
539.667	27776.26
539.868	28357.88
540.068	28112.13
540.269	28034.3
540.469	28355.83
540.67	28118.27
540.87	27919.62
541.071	28144.89
541.271	28251.39
541.472	27954.43
541.672	27849.99
541.873	27692.29
542.073	27954.43
542.274	27931.9
542.474	27995.39
542.675	27821.31
542.875	28134.65
543.075	28036.35
543.276	27516.17
543.476	28232.96
543.676	27577.61
543.877	27823.36
544.077	27720.96
544.277	27858.18
544.478	27641.09
544.678	27716.87
544.878	27940.1
545.078	27774.21
545.279	27708.68
545.479	27819.27
545.679	27847.94
545.879	27690.24
546.079	27649.28
546.28	27616.52
546.48	27407.62
546.68	27862.27
546.88	27593.99
547.08	27645.19
547.28	27548.93
547.48	27520.26
547.68	27780.35
547.88	27393.29
548.081	27680
548.281	27651.33
548.481	27938.05
548.681	27839.75
548.881	27575.56
549.081	27473.16
549.28	27407.62
549.48	27919.62
549.68	27546.89
549.88	27575.56
550.08	27264.27
550.28	27849.99
550.48	27577.61
550.68	27985.15
550.88	27452.68
551.08	27612.42
551.279	27557.13
551.479	27057.42
551.679	27458.82
551.879	27337.99
552.079	27393.29
552.278	27053.33
552.478	27510.02
552.678	27458.82
552.878	27356.43
553.077	27452.68
553.277	26963.22
553.477	27528.45
553.676	27383.05
553.876	27559.17
554.076	27403.53
554.275	27493.64
554.475	27018.51
554.674	27151.63
554.874	27202.83
555.074	27266.31
555.273	27337.99
555.473	27491.59
555.672	27145.48
555.872	27090.19
556.071	27133.2
556.271	27563.27
556.47	27153.68
556.67	26828.05
556.869	27196.68
557.068	26895.63
557.268	27133.2
557.467	27208.97
557.667	26791.19
557.866	27200.78
558.065	27315.47
558.265	26682.64
558.464	26778.9
558.663	27231.5
558.863	26823.95
559.062	27280.65
559.261	26746.13
559.461	27284.75
559.66	26903.82
559.859	26705.17
560.058	26668.31
560.258	26883.34
560.457	26869.01
560.656	26885.39
560.855	26596.63
561.054	26701.08
561.253	26803.47
561.453	26934.54
561.652	26969.36
561.851	27262.22
562.05	26647.83
562.249	26721.55
562.448	27100.43
562.647	26303.77
562.846	26666.26
563.045	26826
563.244	26590.48
563.443	26914.06
563.642	26111.26
563.841	26832.15
564.04	26461.46
564.239	26735.89
564.438	26158.36
564.637	26512.66
564.836	26434.84
565.035	25949.47
565.234	26645.78
565.432	26121.5
565.631	26613.01
565.83	26627.35
566.029	26416.41
566.228	26570.01
566.427	26492.18
566.625	26236.19
566.824	26111.26
567.023	26430.74
567.222	25982.24
567.42	26285.34
567.619	26049.82
567.818	26230.04
568.016	25933.09
568.215	26381.59
568.414	26217.75
568.612	26258.71
568.811	26023.2
569.01	26293.53
569.208	25924.9
569.407	26297.63
569.605	25763.11
569.804	26076.44
570.002	25675.04
570.201	26080.54
570.4	25799.97
570.598	26004.77
570.797	25646.37
570.995	25763.11
571.193	25523.49
571.392	26123.55
571.59	25525.54
571.789	25527.59
571.987	25687.33
572.186	25634.08
572.384	25496.87
572.582	25398.57
572.781	25593.12
572.979	25500.97
573.177	25539.88
573.376	25515.3
573.574	25451.81
573.772	25396.52
573.971	25136.43
574.169	25267.5
574.367	25056.56
574.565	25146.67
574.763	24905.01
574.962	25142.57
575.16	24943.92
575.358	24837.42
575.556	24988.97
575.754	25306.41
575.952	24722.74
576.151	25359.66
576.349	25085.23
576.547	24704.31
576.745	24804.66
576.943	24966.45
577.141	24696.11
577.339	24894.77
577.537	24995.12
577.735	24749.36
577.933	24732.98
578.131	24565.04
578.329	24517.94
578.527	24169.79
578.725	24567.09
578.923	24442.17
579.121	24341.82
579.319	24378.68
579.516	24485.17
579.714	24497.46
579.912	24294.71
580.11	24276.28
580.308	24190.27
580.506	24163.64
580.704	23776.58
580.901	24204.6
581.099	24233.27
581.297	23704.9
581.495	23870.78
581.692	24122.68
581.89	24063.29
582.088	24071.48
582.285	24014.14
582.483	23868.73
582.681	24180.03
582.878	23743.81
583.076	23440.71
583.274	24057.15
583.471	23342.41
583.669	23612.74
583.866	23303.5
584.064	23475.52
584.262	23381.32
584.459	23575.87
584.657	23344.45
584.854	23479.62
585.052	23018.83
585.249	23334.21
585.447	23393.61
585.644	22732.11
585.841	23240.01
586.039	23444.8
586.236	23162.19
586.434	22672.72
586.631	23201.1
586.828	22875.47
587.026	22902.09
587.223	22912.33
587.42	22779.22
587.618	22889.81
587.815	22777.17
588.012	22496.6
588.21	22541.65
588.407	22975.82
588.604	22861.13
588.801	22377.81
588.999	22666.58
589.196	22539.6
589.393	22433.11
589.59	22035.8
589.787	22199.64
589.984	22402.39
590.182	22185.3
590.379	22451.54
590.576	22187.35
590.773	22062.43
590.97	22078.81
591.167	22115.67
591.364	21691.74
591.561	22310.23
591.758	21843.29
591.955	22056.28
592.152	22121.82
592.349	21687.65
592.546	21773.66
592.743	21898.59
592.94	21325.16
593.137	21976.41
593.334	21779.81
593.531	21495.14
593.727	21560.67
593.924	21552.48
594.121	21402.98
594.318	21468.52
594.515	21345.64
594.712	21716.32
594.908	21386.6
595.105	21611.87
595.302	21112.17
595.499	21212.52
595.696	21198.18
595.892	20981.1
596.089	21380.45
596.286	21101.93
596.482	21546.34
596.679	21181.8
596.876	21194.09
597.072	21091.69
597.269	20895.08
597.466	20923.76
597.662	20866.41
597.859	21130.6
598.055	20868.46
598.252	20817.26
598.448	20721.01
598.645	20622.7
598.841	20817.26
599.038	20753.77
599.234	21005.67
599.431	20327.8
599.627	20305.27
599.824	20766.06
600.02	20329.84
600.217	20288.89
600.413	20469.11
600.609	20262.26
600.806	20624.75
601.002	20499.83
601.198	20100.47
601.395	20120.95
601.591	20305.27
601.787	20346.23
601.984	20397.43
602.18	20358.52
602.376	20219.25
602.572	20184.44
602.769	20159.86
602.965	19848.57
603.161	20145.53
603.357	20168.05
603.553	20010.36
603.75	19809.66
603.946	19631.49
604.142	20053.37
604.338	19840.38
604.534	19867
604.73	19824
604.926	19797.37
605.122	19766.65
605.318	19895.68
605.514	19625.34
605.71	19531.14
605.906	19934.59
606.102	19973.5
606.298	20079.99
606.494	20041.08
606.69	19848.57
606.886	19713.41
607.082	19330.44
607.278	19936.63
607.474	19426.69
607.67	19606.91
607.866	19322.24
608.062	19789.18
608.257	19516.8
608.453	19402.11
608.649	19678.59
608.845	19400.07
609.041	19651.97
609.236	19596.67
609.432	19606.91
609.628	19465.6
609.824	19395.97
610.019	19152.26
610.215	19320.2
610.411	19402.11
610.606	19139.97
610.802	19328.39
610.998	19594.62
611.193	19340.68
611.389	19355.01
611.584	19477.89
611.78	19019.14
611.976	19387.78
612.171	19367.3
612.367	19232.13
612.562	19256.71
612.758	19090.82
612.953	19033.48
613.149	19481.99
613.344	19178.89
613.539	19328.39
613.735	19240.33
613.93	19338.63
614.126	18998.66
614.321	19314.05
614.517	19262.85
614.712	19379.59
614.907	19318.15
615.103	19266.95
615.298	19348.87
615.493	19117.45
615.688	18783.63
615.884	19416.45
616.079	18714
616.274	19365.25
616.47	19314.05
616.665	19080.58
616.86	19090.82
617.055	19135.88
617.25	18984.33
617.445	19133.83
617.641	18933.13
617.836	18992.52
618.031	18617.74
618.226	19027.34
618.421	18681.23
618.616	18953.61
618.811	18648.46
619.006	18800.01
619.201	18294.16
619.396	18810.25
619.591	18224.53
619.786	18658.7
619.981	18300.31
620.176	18466.19
620.371	18279.83
620.566	18300.31
620.761	18378.13
620.956	18169.24
621.151	18189.72
621.346	18345.36
621.541	18011.54
621.735	18290.07
621.93	17776.03
622.125	18001.3
622.32	17456.54
622.515	17767.84
622.709	17730.97
622.904	17622.43
623.099	17479.07
623.294	17571.23
623.488	17399.2
623.683	17456.54
623.878	17092.01
624.072	17259.94
624.267	17218.98
624.462	16913.83
624.656	17024.42
624.851	16684.46
625.046	16805.29
625.24	16858.54
625.435	16750
625.629	16539.05
625.824	16471.47
626.018	16416.18
626.213	16166.32
626.407	16516.53
626.602	16070.07
626.796	16244.15
626.991	16367.02
627.185	16213.43
627.38	15873.46
627.574	15865.27
627.768	15967.67
627.963	15775.16
628.157	15588.8
628.352	15996.34
628.546	15515.07
628.74	15500.73
628.935	15412.67
629.129	15455.68
629.323	15287.75
629.517	15244.74
629.712	15171.01
629.906	15160.77
630.1	14984.65
630.294	15056.32
630.489	15023.56
630.683	14990.79
630.877	14687.69
631.071	14640.59
631.265	14800.33
631.459	14644.68
631.653	14482.89
631.848	14458.32
632.042	14147.03
632.236	14362.06
632.43	14257.62
632.624	14564.81
632.818	14099.92
633.012	13866.46
633.206	13768.15
633.4	14237.14
633.594	13884.89
633.788	13944.28
633.982	13770.2
634.176	13772.25
634.369	13424.09
634.563	13508.06
634.757	13336.03
634.951	13786.58
635.145	13524.44
635.339	13401.57
635.533	13342.18
635.726	13278.69
635.92	12897.77
636.114	13231.58
636.308	13082.08
636.501	12922.34
636.695	13071.84
636.889	12803.56
637.083	12862.95
637.276	12701.16
637.47	12633.58
637.664	12744.17
637.857	12572.14
638.051	12467.69
638.244	12377.58
638.438	12330.48
638.632	12187.12
638.825	12072.43
639.019	12303.85
639.212	12084.72
639.406	12076.53
639.599	11959.8
639.793	11873.78
639.986	11703.8
640.18	11978.23
640.373	11955.7
640.567	11521.53
640.76	11470.33
640.954	11544.06
641.147	11298.3
641.34	11474.43
641.534	11421.18
641.727	11200
641.92	11324.93
642.114	11238.91
642.307	11150.85
642.5	11040.26
642.694	10972.68
642.887	10761.73
643.08	10948.1
643.273	10812.93
643.467	10837.51
643.66	10606.09
643.853	10749.45
644.046	10708.49
644.239	10440.2
644.432	10489.35
644.626	10341.9
644.819	10294.8
645.012	10272.27
645.205	10520.07
645.398	10262.03
645.591	10184.21
645.784	10270.22
645.977	10102.29
646.17	9870.87
646.363	9723.41
646.556	9743.89
646.749	9743.89
646.942	9803.29
647.135	9578.01
647.328	9741.85
647.521	9489.95
647.714	9414.17
647.907	9408.03
648.099	9379.36
648.292	9508.38
648.485	9254.43
648.678	9326.11
648.871	9020.96
649.064	8975.91
649.256	9152.03
649.449	8988.19
649.642	9084.45
649.835	8988.19
650.027	8734.25
650.22	8797.73
650.413	8756.77
650.605	8977.95
650.798	8554.02
650.991	8545.83
651.183	8652.33
651.376	8515.11
651.568	8537.64
651.761	8257.07
651.954	8412.71
652.146	8365.61
652.339	8396.33
652.531	8396.33
652.724	8216.11
652.916	8035.89
653.109	8128.05
653.301	8150.57
653.494	7906.87
653.686	7910.96
653.879	8123.95
654.071	7937.59
654.263	7898.67
654.456	7609.91
654.648	8044.08
654.84	7591.48
655.033	7622.2
655.225	7812.66
655.417	7646.77
655.61	7642.68
655.802	7695.93
655.994	7435.83
656.186	7519.8
656.379	7435.83
656.571	7439.93
656.763	7228.99
656.955	7151.17
657.148	7335.48
657.34	7310.91
657.532	7108.16
657.724	7046.72
657.916	7061.05
658.108	7091.77
658.3	7142.97
658.492	6891.07
658.684	6731.33
658.876	6774.34
659.068	6829.63
659.26	6688.32
659.452	6680.13
659.644	6811.2
659.836	6626.89
660.028	6622.79
660.22	6372.94
660.412	6446.66
660.604	6262.35
660.796	6501.96
660.988	6491.72
661.18	6198.86
661.372	6321.74
661.563	6280.78
661.755	6149.71
661.947	6381.13
662.139	6145.61
662.331	6129.23
662.522	6061.65
662.714	6002.26
662.906	5934.67
663.097	5858.9
663.289	5844.56
663.481	5975.63
663.673	5834.32
663.864	5758.55
664.056	5664.34
664.247	5776.98
664.439	5666.39
664.631	5707.35
664.822	5682.77
665.014	5772.88
665.205	5690.96
665.397	5527.13
665.588	5688.92
665.78	5574.23
665.971	5533.27
666.163	5486.17
666.354	5432.92
666.546	5332.57
666.737	5230.17
666.929	5312.09
667.12	5453.4
667.311	5373.53
667.503	5185.12
667.694	5287.51
667.885	5224.03
668.077	5330.52
668.268	5060.19
668.459	5080.67
668.651	5170.78
668.842	5064.29
669.033	4894.3
669.224	5047.9
669.416	4996.7
669.607	4912.74
669.798	5031.52
669.989	4937.31
670.18	4785.76
670.371	5111.39
670.563	4849.25
670.754	4877.92
670.945	4877.92
671.136	4818.53
671.327	4748.9
671.518	4804.19
671.709	4755.04
671.9	4830.82
672.091	4693.6
672.282	4705.89
672.473	4650.6
672.664	4615.78
672.855	4583.01
673.046	4718.18
673.237	4810.34
673.428	4671.08
673.619	4632.16
673.809	4546.15
674	4656.74
674.191	4609.64
674.382	4374.12
674.573	4296.3
674.764	4533.86
674.954	4644.45
675.145	4413.03
675.336	4376.17
675.527	4400.74
675.717	4511.33
675.908	4286.06
676.099	4507.24
676.289	4429.42
676.48	4433.51
676.671	4390.5
676.861	4347.5
677.052	4329.06
677.243	4388.46
677.433	4300.39
677.624	4349.54
677.814	4261.48
678.005	4271.72
678.195	4433.51
678.386	4214.38
678.576	4210.28
678.767	4275.82
678.957	4269.67
679.148	4357.74
679.338	4286.06
679.529	4249.19
679.719	4286.06
679.909	4320.87
680.1	4298.35
680.29	4306.54
680.481	4271.72
680.671	4236.91
680.861	4216.43
681.052	4245.1
681.242	4068.97
681.432	4324.97
681.622	4165.23
681.813	3972.72
682.003	4052.59
682.193	4003.44
682.383	4238.95
682.573	4132.46
682.764	4075.12
682.954	4105.84
683.144	4214.38
683.334	4195.95
683.524	4081.26
683.714	4177.51
683.904	4271.72
684.094	4066.92
684.284	4193.9
684.474	4271.72
684.664	4163.18
684.854	3991.15
685.044	4028.01
685.234	4101.74
685.424	4140.65
685.614	3995.25
685.804	4075.12
685.994	4054.64
686.184	4130.41
686.374	4132.46
686.564	4087.4
686.753	3989.1
686.943	3872.37
687.133	3880.56
687.323	4003.44
687.513	3987.05
687.702	3954.29
687.892	3958.38
688.082	3878.51
688.272	3960.43
688.461	4011.63
688.651	3958.38
688.841	3907.18
689.03	4103.79
689.22	3901.04
689.41	3880.56
689.599	3804.78
689.789	3802.74
689.979	3878.51
690.168	3843.7
690.358	3929.71
690.547	3804.78
690.737	3886.7
690.926	3829.36
691.116	3843.7
691.305	3985.01
691.495	3718.77
691.684	3675.76
691.874	3823.22
692.063	3821.17
692.252	3747.44
692.442	3886.7
692.631	3718.77
692.82	3810.93
693.01	3741.3
693.199	3696.24
693.388	3694.19
693.578	3655.28
693.767	3735.15
693.956	3696.24
694.146	3622.52
694.335	3630.71
694.524	3731.06
694.713	3798.64
694.902	3726.96
695.092	3802.74
695.281	3731.06
695.47	3663.47
695.659	3690.1
695.848	3718.77
696.037	3774.07
696.226	3700.34
696.415	3710.58
696.604	3853.94
696.793	3821.17
696.982	3743.35
697.171	3845.74
697.36	3716.72
697.549	3733.11
697.738	3589.75
697.927	3739.25
698.116	3722.87
698.305	3739.25
698.494	4015.73
698.683	3735.15
698.872	3829.36
699.061	3737.2
699.25	3743.35
699.438	3825.26
699.627	3853.94
699.816	3868.27
700.005	3733.11
700.193	3739.25
700.382	3876.46
700.571	3798.64
700.76	3802.74
700.948	3698.29
701.137	3778.16
701.326	3767.92
701.514	3780.21
701.703	3892.85
701.892	3812.98
702.08	4005.49
702.269	3862.13
702.457	3745.39
702.646	3804.78
702.834	3827.31
703.023	3815.02
703.212	3835.5
703.4	3819.12
703.589	3810.93
703.777	3874.42
703.965	3722.87
704.154	3860.08
704.342	3810.93
704.531	3800.69
704.719	3786.35
704.907	3794.54
705.096	3694.19
705.284	3942
705.472	3804.78
705.661	3802.74
705.849	3835.5
706.037	3966.57
706.226	3880.56
706.414	3712.63
706.602	3788.4
706.79	3862.13
706.979	3747.44
707.167	3796.59
707.355	3698.29
707.543	3966.57
707.731	3810.93
707.919	3815.02
708.107	3784.3
708.296	3835.5
708.484	3778.16
708.672	3858.03
708.86	3710.58
709.048	3851.89
709.236	3954.29
709.424	3843.7
709.612	3845.74
709.8	3741.3
709.988	3815.02
710.176	3872.37
710.364	3780.21
710.551	3737.2
710.739	3808.88
710.927	3802.74
711.115	3896.94
711.303	3788.4
711.491	3972.72
711.679	3907.18
711.866	3767.92
712.054	3792.5
712.242	3743.35
712.43	3942
712.617	3808.88
712.805	3837.55
712.993	3778.16
713.181	3688.05
713.368	3808.88
713.556	3735.15
713.744	3825.26
713.931	3909.23
714.119	3862.13
714.306	3896.94
714.494	3780.21
714.682	3714.67
714.869	3706.48
715.057	3800.69
715.244	3690.1
715.432	3649.14
715.619	3720.82
715.807	3896.94
715.994	3821.17
716.182	3780.21
716.369	3939.95
716.556	3835.5
716.744	3726.96
716.931	3737.2
717.119	3860.08
717.306	3853.94
717.493	3798.64
717.681	3778.16
717.868	3798.64
718.055	3911.28
718.242	3812.98
718.43	3665.52
718.617	3763.83
718.804	3706.48
718.991	3638.9
719.179	3753.59
719.366	3755.63
719.553	3757.68
719.74	3593.84
719.927	3780.21
720.114	3741.3
720.301	3681.91
720.488	3606.13
720.676	3722.87
720.863	3761.78
721.05	3786.35
721.237	3780.21
721.424	3743.35
721.611	3694.19
721.798	3608.18
721.985	3681.91
722.172	3614.32
722.358	3833.46
722.545	3765.87
722.732	3712.63
722.919	3706.48
723.106	3643
723.293	3643
723.48	3616.37
723.667	3647.09
723.853	3645.04
724.04	3610.23
724.227	3589.75
724.414	3565.17
724.6	3647.09
724.787	3759.73
724.974	3657.33
725.161	3634.8
725.347	3468.92
725.534	3655.28
725.72	3696.24
725.907	3630.71
726.094	3704.43
726.28	3602.04
726.467	3485.3
726.653	3636.85
726.84	3661.43
727.027	3702.39
727.213	3575.41
727.4	3714.67
727.586	3595.89
727.773	3669.62
727.959	3563.12
728.145	3679.86
728.332	3569.27
728.518	3473.01
728.705	3499.64
728.891	3552.88
729.077	3661.43
729.264	3341.94
729.45	3462.77
729.636	3700.34
729.823	3575.41
730.009	3567.22
730.195	3575.41
730.382	3597.94
730.568	3597.94
730.754	3550.84
730.94	3530.36
731.126	3483.25
731.313	3583.6
731.499	3456.63
731.685	3495.54
731.871	3561.08
732.057	3466.87
732.243	3624.56
732.429	3466.87
732.615	3481.21
732.801	3520.12
732.987	3415.67
733.173	3454.58
733.359	3374.71
733.545	3423.86
733.731	3440.25
733.917	3458.68
734.103	3417.72
734.289	3354.23
734.475	3430.01
734.661	3556.98
734.847	3536.5
735.033	3419.77
735.219	3346.04
735.404	3323.51
735.59	3286.65
735.776	3339.9
735.962	3407.48
736.148	3411.57
736.333	3264.12
736.519	3284.6
736.705	3255.93
736.89	3206.78
737.076	3323.51
737.262	3161.72
737.447	3305.08
737.633	3171.96
737.819	3202.68
738.004	3151.48
738.19	3192.44
738.375	3257.98
738.561	3214.97
738.747	3237.5
738.932	3190.39
739.118	3159.67
739.303	3176.06
739.489	3227.26
739.674	3149.43
739.859	3069.56
740.045	3102.33
740.23	3159.67
740.416	2999.93
740.601	3102.33
740.786	3057.28
740.972	3049.08
741.157	2991.74
741.342	2948.73
741.528	3020.41
741.713	3047.04
741.898	2834.05
742.084	3053.18
742.269	3088
742.454	2913.92
742.639	3044.99
742.824	2948.73
743.01	3055.23
743.195	3034.75
743.38	3001.98
743.565	2958.97
743.75	2786.94
743.935	2817.66
744.12	2864.77
744.305	2868.86
744.49	2795.14
744.675	2709.12
744.86	2664.07
745.045	2881.15
745.23	2659.97
745.415	2838.14
745.6	2715.27
745.785	2694.79
745.97	2752.13
746.155	2774.66
746.34	2715.27
746.525	2657.92
746.71	2786.94
746.895	2619.01
747.079	2621.06
747.264	2473.6
747.449	2709.12
747.634	2635.39
747.819	2547.33
748.003	2631.3
748.188	2561.67
748.373	2506.37
748.557	2586.24
748.742	2467.46
748.927	2506.37
749.111	2461.32
749.296	2487.94
749.481	2391.69
749.665	2489.99
749.85	2377.35
750.034	2446.98
750.219	2457.22
750.404	2385.54
750.588	2281.1
750.773	2309.77
750.957	2375.3
751.141	2231.94
751.326	2217.61
751.51	2086.54
751.695	2252.42
751.879	2166.41
752.064	2223.75
752.248	2250.38
752.432	2121.35
752.617	2188.94
752.801	2113.16
752.985	2131.59
753.17	2113.16
753.354	2102.92
753.538	2092.68
753.722	1959.56
753.907	2004.62
754.091	2102.92
754.275	2117.26
754.459	1949.32
754.643	1943.18
754.828	2047.63
755.012	1971.85
755.196	1932.94
755.38	1928.85
755.564	1961.61
755.748	1844.88
755.932	1947.28
756.116	1855.12
756.3	1853.07
756.484	1799.82
756.668	1955.47
756.852	1773.2
757.036	1867.41
757.22	1812.11
757.404	1746.58
757.588	1769.1
757.772	1771.15
757.956	1787.54
758.14	1842.83
758.323	1664.66
758.507	1793.68
758.691	1703.57
758.875	1726.1
759.059	1808.02
759.242	1678.99
759.426	1574.55
759.61	1533.59
759.794	1695.38
759.977	1697.42
760.161	1695.38
760.345	1609.36
760.528	1672.85
760.712	1425.04
760.895	1678.99
761.079	1527.44
761.263	1619.6
761.446	1474.2
761.63	1638.03
761.813	1629.84
761.997	1592.98
762.18	1509.01
762.364	1580.69
762.547	1457.81
762.731	1494.68
762.914	1558.16
763.098	1453.72
763.281	1494.68
763.464	1439.38
763.648	1566.35
763.831	1425.04
764.015	1447.57
764.198	1416.85
764.381	1384.09
764.564	1545.88
764.748	1437.33
764.931	1562.26
765.114	1572.5
765.297	1472.15
765.481	1394.33
765.664	1423
765.847	1324.69
766.03	1474.2
766.213	1375.89
766.397	1365.65
766.58	1363.61
766.763	1457.81
766.946	1339.03
767.129	1336.98
767.312	1279.64
767.495	1343.13
767.678	1285.78
767.861	1324.69
768.044	1257.11
768.227	1326.74
768.41	1250.97
768.593	1216.15
768.776	1330.84
768.959	1371.8
769.142	1310.36
769.324	1365.65
769.507	1246.87
769.69	1326.74
769.873	1394.33
770.056	1357.46
770.239	1275.54
770.421	1248.92
770.604	1281.69
770.787	1328.79
770.97	1230.49
771.152	1234.58
771.335	1244.82
771.518	1179.29
771.7	1351.32
771.883	1216.15
772.066	1201.82
772.248	1132.19
772.431	1308.31
772.613	1150.62
772.796	1207.96
772.978	1183.38
773.161	1212.06
773.343	1191.58
773.526	1060.51
773.708	1064.6
773.891	1156.76
774.073	1113.75
774.256	1126.04
774.438	1134.23
774.621	1126.04
774.803	1056.41
774.985	1070.75
775.168	1013.4
775.35	1029.79
775.532	1080.99
775.715	1044.12
775.897	1132.19
776.079	1040.03
776.261	982.68
776.444	968.35
776.626	1085.08
776.808	1001.12
776.99	976.54
777.173	1050.27
777.355	1044.12
777.537	974.49
777.719	978.59
777.901	943.77
778.083	1027.74
778.265	913.05
778.447	992.92
778.629	822.94
778.811	1023.64
778.993	892.57
779.175	925.34
779.357	792.22
779.539	892.57
779.721	902.81
779.903	927.39
780.085	868
780.267	849.57
780.449	906.91
780.631	851.61
780.812	921.24
780.994	851.61
781.176	855.71
781.358	859.81
781.54	845.47
781.721	812.7
781.903	880.29
782.085	794.27
782.267	841.37
782.448	708.26
782.63	710.3
782.812	704.16
782.993	839.33
783.175	855.71
783.357	708.26
783.538	734.88
783.72	755.36
783.901	679.58
784.083	730.78
784.264	708.26
784.446	747.17
784.627	601.76
784.809	759.46
784.99	741.02
785.172	677.54
785.353	636.58
785.535	618.15
785.716	691.87
785.897	685.73
786.079	657.06
786.26	634.53
786.441	665.25
786.623	624.29
786.804	626.34
786.985	614.05
787.167	622.24
787.348	640.67
787.529	689.82
787.71	753.31
787.891	605.86
788.073	560.8
788.254	448.16
788.435	612
788.616	652.96
788.797	628.39
788.978	603.81
789.159	528.03
789.34	571.04
789.522	482.98
789.703	482.98
789.884	511.65
790.065	525.99
790.246	573.09
790.427	550.56
790.607	607.91
790.788	487.08
790.969	429.73
791.15	560.8
791.331	528.03
791.512	480.93
791.693	495.27
791.874	470.69
792.054	607.91
792.235	528.03
792.416	530.08
792.597	435.88
792.778	560.8
792.958	487.08
793.139	476.84
793.32	462.5
793.5	446.12
793.681	480.93
793.862	466.6
794.042	480.93
794.223	403.11
794.404	546.47
794.584	431.78
794.765	390.82
794.945	446.12
795.126	464.55
795.306	456.36
795.487	452.26
795.667	485.03
795.848	407.2
796.028	413.35
796.209	405.16
796.389	466.6
796.57	380.58
796.75	386.72
796.93	394.92
797.111	448.16
797.291	331.43
797.471	507.55
797.652	405.16
797.832	396.96
798.012	489.12
798.192	349.86
798.373	372.39
798.553	429.73
798.733	423.59
798.913	419.49
799.093	351.91
799.274	364.2
799.454	390.82
799.634	386.72
799.814	433.83
799.994	296.61
800.174	329.38
800.354	388.77
800.534	380.58
800.714	329.38
800.894	374.44
801.074	298.66
801.254	356.01
801.434	384.68
801.614	298.66
801.794	294.57
801.974	1205.91
802.154	364.2
802.334	384.68
802.514	313
802.693	300.71
802.873	284.33
803.053	419.49
803.233	356.01
803.413	253.61
803.592	302.76
803.772	362.15
803.952	319.14
804.131	280.23
804.311	351.91
804.491	353.96
804.67	335.53
804.85	368.29
805.03	345.77
805.209	325.29
805.389	247.46
805.568	376.48
805.748	313
805.928	317.09
806.107	345.77
806.287	288.42
806.466	343.72
806.646	356.01
806.825	224.94
807.004	255.65
807.184	288.42
807.363	304.81
807.543	226.98
807.722	269.99
807.901	292.52
808.081	294.57
808.26	173.74
808.439	226.98
808.619	218.79
808.798	210.6
808.977	241.32
809.156	325.29
809.336	243.37
809.515	233.13
809.694	218.79
809.873	245.41
810.052	294.57
810.231	263.85
810.411	300.71
810.59	249.51
810.769	310.95
810.948	243.37
811.127	151.21
811.306	165.54
811.485	245.41
811.664	321.19
811.843	280.23
812.022	239.27
812.201	255.65
812.38	159.4
812.559	196.26
812.737	224.94
812.916	206.5
813.095	194.22
813.274	192.17
813.453	216.74
813.632	261.8
813.811	204.46
813.989	163.5
814.168	208.55
814.347	243.37
814.526	183.98
814.704	310.95
814.883	136.87
815.062	173.74
815.24	249.51
815.419	206.5
815.598	208.55
815.776	143.02
815.955	222.89
816.133	95.91
816.312	183.98
816.49	278.18
816.669	167.59
816.847	134.82
817.026	222.89
817.204	188.07
817.383	222.89
817.561	138.92
817.74	196.26
817.918	177.83
818.097	153.26
818.275	237.22
818.453	243.37
818.632	192.17
818.81	192.17
818.988	188.07
819.167	181.93
819.345	147.11
819.523	136.87
819.701	208.55
819.879	175.78
820.058	198.31
820.236	89.77
820.414	153.26
820.592	120.49
820.77	167.59
820.948	155.3
821.127	114.34
821.305	169.64
821.483	147.11
821.661	249.51
821.839	196.26
822.017	120.49
822.195	106.15
822.373	126.63
822.551	110.25
822.729	263.85
822.907	143.02
823.085	192.17
823.262	186.02
823.44	114.34
823.618	104.11
823.796	159.4
823.974	100.01
824.152	183.98
824.329	147.11
824.507	204.46
824.685	128.68
824.863	159.4
825.04	202.41
825.218	167.59
825.396	149.16
825.574	161.45
825.751	138.92
825.929	194.22
826.107	38.57
826.284	169.64
826.462	165.54
826.639	87.72
826.817	91.82
826.994	161.45
827.172	108.2
827.349	196.26
827.527	157.35
827.704	192.17
827.882	130.73
828.059	169.64
828.237	118.44
828.414	157.35
828.591	-16.73
828.769	91.82
828.946	114.34
829.124	140.97
829.301	114.34
829.478	73.39
829.655	110.25
829.833	169.64
830.01	95.91
830.187	97.96
830.364	104.11
830.542	171.69
830.719	196.26
830.896	153.26
831.073	167.59
831.25	196.26
831.427	145.06
831.604	149.16
831.782	61.1
831.959	77.48
832.136	145.06
832.313	112.3
832.49	59.05
832.667	136.87
832.844	63.15
833.021	130.73
833.198	91.82
833.374	54.95
833.551	118.44
833.728	57
833.905	157.35
834.082	11.95
834.259	100.01
834.436	89.77
834.612	48.81
834.789	122.54
834.966	114.34
835.143	91.82
835.319	85.67
835.496	85.67
835.673	181.93
835.85	83.63
836.026	104.11
836.203	83.63
836.38	108.2
836.556	77.48
836.733	69.29
836.909	134.82
837.086	28.33
837.262	34.47
837.439	46.76
837.616	46.76
837.792	83.63
837.968	87.72
838.145	7.85
838.321	122.54
838.498	97.96
838.674	63.15
838.851	67.24
839.027	34.47
839.203	102.06
839.38	155.3
839.556	57
839.732	134.82
839.909	40.62
840.085	54.95
840.261	67.24
840.437	100.01
840.614	30.38
840.79	67.24
840.966	85.67
841.142	95.91
841.318	28.33
841.494	67.24
841.671	87.72
841.847	42.67
842.023	54.95
842.199	75.43
842.375	104.11
842.551	-31.06
842.727	-59.73
842.903	69.29
843.079	38.57
843.255	87.72
843.431	65.19
843.607	73.39
843.783	20.14
843.959	118.44
844.134	-14.68
844.31	100.01
844.486	77.48
844.662	-0.34
844.838	28.33
845.013	77.48
845.189	136.87
845.365	11.95
845.541	11.95
845.716	-4.44
845.892	54.95
846.068	69.29
846.244	104.11
846.419	93.87
846.595	34.47
846.77	30.38
846.946	61.1
847.122	38.57
847.297	26.28
847.473	186.02
847.648	-33.11
847.824	-6.49
847.999	-24.92
848.175	69.29
848.35	-0.34
848.526	73.39
848.701	69.29
848.876	77.48
849.052	112.3
849.227	32.43
849.403	71.34
849.578	38.57
849.753	61.1
849.929	50.86
850.104	5.8
850.279	36.52
850.454	44.71
850.63	65.19
850.805	38.57
850.98	73.39
851.155	71.34
851.33	54.95
851.505	9.9
851.681	93.87
851.856	-47.44
852.031	79.53
852.206	93.87
852.381	42.67
852.556	20.14
852.731	20.14
852.906	22.19
853.081	46.76
853.256	116.39
853.431	-37.2
853.606	-10.58
853.781	38.57
853.956	-72.02
854.131	13.99
854.305	-8.53
854.48	18.09
854.655	69.29
854.83	-33.11
855.005	44.71
855.18	65.19
855.354	40.62
855.529	36.52
855.704	22.19
855.879	91.82
856.053	32.43
856.228	36.52
856.403	28.33
856.577	38.57
856.752	-29.01
856.926	24.23
857.101	73.39
857.276	-55.64
857.45	22.19
857.625	147.11
857.799	9.9
857.974	36.52
858.148	36.52
858.323	93.87
858.497	9.9
858.672	59.05
858.846	-26.96
859.02	124.58
859.195	30.38
859.369	26.28
859.543	13.99
859.718	67.24
859.892	54.95
860.066	-10.58
860.241	13.99
860.415	52.91
860.589	34.47
860.763	-20.82
860.938	7.85
861.112	52.91
861.286	73.39
861.46	63.15
861.634	20.14
861.808	140.97
861.982	-20.82
862.157	48.81
862.331	-16.73
862.505	-37.2
862.679	-18.77
862.853	30.38
863.027	-43.35
863.201	110.25
863.375	9.9
863.549	20.14
863.722	18.09
863.896	-12.63
864.07	5.8
864.244	-20.82
864.418	42.67
864.592	54.95
864.766	20.14
864.939	11.95
865.113	-29.01
865.287	75.43
865.461	13.99
865.634	9.9
865.808	57
865.982	69.29
866.156	-18.77
866.329	16.04
866.503	-51.54
866.676	71.34
866.85	48.81
867.024	30.38
867.197	59.05
867.371	46.76
867.544	-51.54
867.718	38.57
867.891	77.48
868.065	-55.64
868.238	75.43
868.412	67.24
868.585	26.28
868.759	24.23
868.932	46.76
869.105	5.8
869.279	69.29
869.452	-10.58
869.625	61.1
869.799	-6.49
869.972	-115.03
870.145	65.19
870.319	106.15
870.492	-59.73
870.665	87.72
870.838	-20.82
871.011	-47.44
871.185	-39.25
871.358	-10.58
871.531	81.58
871.704	-6.49
871.877	30.38
872.05	-4.44
872.223	-39.25
872.396	149.16
872.569	16.04
872.742	-45.4
872.915	59.05
873.088	1.71
873.261	-29.01
873.434	50.86
873.607	22.19
873.78	95.91
873.953	-33.11
874.126	7.85
874.299	28.33
874.471	16.04
874.644	1.71
874.817	24.23
874.99	200.36
875.163	-6.49
875.335	-29.01
875.508	-49.49
875.681	59.05
875.853	-53.59
876.026	44.71
876.199	59.05
876.371	46.76
876.544	-22.87
876.717	50.86
876.889	13.99
877.062	13.99
877.234	-33.11
877.407	-14.68
877.579	-22.87
877.752	54.95
877.924	77.48
878.097	3.75
878.269	13.99
878.442	48.81
878.614	40.62
878.786	-8.53
878.959	9.9
879.131	-6.49
879.303	-72.02
879.476	-39.25
879.648	36.52
879.82	75.43
879.993	-16.73
880.165	-4.44
880.337	-16.73
880.509	1.71
880.681	-0.34
880.854	-10.58
881.026	120.49
881.198	87.72
881.37	-10.58
881.542	102.06
881.714	32.43
881.886	-2.39
882.058	-6.49
882.23	3.75
882.402	-24.92
882.574	57
882.746	34.47
882.918	13.99
883.09	24.23
883.262	32.43
883.434	36.52
883.606	-20.82
883.778	-53.59
883.95	42.67
884.122	69.29
884.293	40.62
884.465	-12.63
884.637	3.75
884.809	-69.97
884.98	20.14
885.152	112.3
885.324	1.71
885.496	-35.16
885.667	-67.92
885.839	-12.63
886.011	87.72
886.182	9.9
886.354	69.29
886.525	81.58
886.697	44.71
886.869	-59.73
887.04	-14.68
887.212	77.48
887.383	71.34
887.555	-6.49
887.726	-6.49
887.897	-20.82
888.069	-12.63
888.24	-20.82
888.412	-45.4
888.583	-10.58
888.754	-4.44
888.926	-65.88
889.097	-22.87
889.268	-94.55
889.44	5.8
889.611	-61.78
889.782	-82.26
889.953	-29.01
890.125	71.34
890.296	-61.78
890.467	-35.16
890.638	11.95
890.809	-0.34
890.98	-67.92
891.151	9.9
891.323	59.05
891.494	-59.73
891.665	20.14
891.836	11.95
892.007	28.33
892.178	-6.49
892.349	-35.16
892.52	-22.87
892.691	3.75
892.862	-37.2
893.032	-31.06
893.203	-0.34
893.374	18.09
893.545	52.91
893.716	-37.2
893.887	112.3
894.057	-12.63
894.228	63.15
894.399	-49.49
894.57	46.76
894.74	-39.25
894.911	-41.3
895.082	-37.2
895.253	-59.73
895.423	-0.34
895.594	16.04
895.764	-65.88
895.935	-59.73
896.106	57
896.276	-22.87
896.447	5.8
896.617	-22.87
896.788	16.04
896.958	-51.54
897.129	-33.11
897.299	13.99
897.47	-8.53
897.64	83.63
897.81	-31.06
897.981	3.75
898.151	30.38
898.322	16.04
898.492	11.95
898.662	-59.73
898.832	-20.82
899.003	20.14
899.173	24.23
899.343	-14.68
899.513	-26.96
