Data from USB4F104151__42__12-12-03-557.txt Node

Date: Fri Mar 14 12:12:03 EDT 2025
User: louis
Spectrometer: USB4F10415
Trigger mode: 4
Integration Time (sec): 5.000000E-2
Scans to average: 1
Electric dark correction enabled: true
Nonlinearity correction enabled: false
Boxcar width: 0
XAxis mode: Wavelengths
Number of Pixels in Spectrum: 3648
>>>>>Begin Spectral Data<<<<<
178.204	-183.81
178.424	-183.81
178.644	-183.81
178.864	-138.75
179.084	-212.48
179.304	2.56
179.524	-48.64
179.744	31.23
179.964	-1.54
180.184	-36.35
180.404	-13.82
180.624	-26.11
180.844	8.7
181.064	6.66
181.283	33.28
181.503	-26.11
181.723	70.14
181.943	-54.78
182.163	92.67
182.383	35.33
182.602	88.57
182.822	125.44
183.042	100.86
183.262	-28.16
183.482	49.66
183.701	-36.35
183.921	25.09
184.141	2.56
184.361	154.11
184.58	18.94
184.8	18.94
185.02	33.28
185.239	53.76
185.459	78.33
185.679	41.47
185.898	-28.16
186.118	111.1
186.338	-15.87
186.557	162.3
186.777	-71.17
186.997	20.99
187.216	-7.68
187.436	145.92
187.655	18.94
187.875	104.96
188.095	-19.97
188.314	98.81
188.534	43.52
188.753	8.7
188.973	68.09
189.192	92.67
189.412	35.33
189.631	49.66
189.851	-22.02
190.07	55.81
190.29	-15.87
190.509	39.42
190.729	35.33
190.948	16.9
191.168	201.21
191.387	76.29
191.607	-65.02
191.826	64
192.045	-73.21
192.265	64
192.484	111.1
192.704	35.33
192.923	43.52
193.142	94.72
193.362	35.33
193.581	33.28
193.8	20.99
194.02	111.1
194.239	82.43
194.458	55.81
194.678	2.56
194.897	10.75
195.116	45.57
195.335	98.81
195.555	18.94
195.774	49.66
195.993	29.18
196.212	-22.02
196.432	57.86
196.651	33.28
196.87	16.9
197.089	182.78
197.308	113.15
197.528	76.29
197.747	-1.54
197.966	35.33
198.185	111.1
198.404	-11.78
198.623	0.51
198.842	78.33
199.062	57.86
199.281	113.15
199.5	61.95
199.719	100.86
199.938	107.01
200.157	123.39
200.376	59.9
200.595	92.67
200.814	33.28
201.033	104.96
201.252	55.81
201.471	121.34
201.69	119.29
201.909	61.95
202.128	84.48
202.347	66.05
202.566	70.14
202.785	55.81
203.004	23.04
203.223	164.35
203.442	158.21
203.661	35.33
203.879	47.62
204.098	61.95
204.317	104.96
204.536	82.43
204.755	-11.78
204.974	107.01
205.193	2.56
205.411	82.43
205.63	29.18
205.849	27.14
206.068	41.47
206.287	57.86
206.505	109.05
206.724	-65.02
206.943	47.62
207.162	20.99
207.381	33.28
207.599	25.09
207.818	86.53
208.037	41.47
208.255	12.8
208.474	20.99
208.693	84.48
208.911	10.75
209.13	39.42
209.349	39.42
209.567	176.64
209.786	-15.87
210.005	47.62
210.223	35.33
210.442	10.75
210.661	10.75
210.879	57.86
211.098	55.81
211.316	109.05
211.535	100.86
211.753	72.19
211.972	80.38
212.191	-3.58
212.409	49.66
212.628	104.96
212.846	6.66
213.065	41.47
213.283	160.25
213.502	23.04
213.72	23.04
213.938	61.95
214.157	-71.17
214.375	41.47
214.594	33.28
214.812	109.05
215.031	18.94
215.249	43.52
215.467	104.96
215.686	70.14
215.904	96.77
216.122	-1.54
216.341	76.29
216.559	59.9
216.778	98.81
216.996	76.29
217.214	61.95
217.432	74.24
217.651	-5.63
217.869	88.57
218.087	-15.87
218.306	59.9
218.524	61.95
218.742	-22.02
218.96	23.04
219.179	-1.54
219.397	119.29
219.615	135.68
219.833	47.62
220.051	-48.64
220.27	80.38
220.488	4.61
220.706	59.9
220.924	68.09
221.142	6.66
221.36	57.86
221.578	64
221.796	20.99
222.015	66.05
222.233	147.97
222.451	168.45
222.669	-19.97
222.887	174.59
223.105	66.05
223.323	43.52
223.541	14.85
223.759	104.96
223.977	29.18
224.195	104.96
224.413	80.38
224.631	33.28
224.849	-30.21
225.067	166.4
225.285	57.86
225.503	-5.63
225.721	-50.69
225.939	66.05
226.157	-7.68
226.375	180.73
226.592	43.52
226.81	-5.63
227.028	109.05
227.246	150.01
227.464	59.9
227.682	66.05
227.9	47.62
228.117	41.47
228.335	55.81
228.553	70.14
228.771	-3.58
228.989	47.62
229.206	125.44
229.424	102.91
229.642	51.71
229.86	16.9
230.077	72.19
230.295	20.99
230.513	119.29
230.731	88.57
230.948	102.91
231.166	104.96
231.384	27.14
231.601	-75.26
231.819	59.9
232.037	-13.82
232.254	-9.73
232.472	18.94
232.689	53.76
232.907	92.67
233.125	94.72
233.342	25.09
233.56	-79.36
233.777	16.9
233.995	-44.54
234.213	145.92
234.43	84.48
234.648	49.66
234.865	55.81
235.083	20.99
235.3	-40.45
235.518	78.33
235.735	59.9
235.953	92.67
236.17	76.29
236.388	10.75
236.605	27.14
236.822	76.29
237.04	82.43
237.257	55.81
237.475	14.85
237.692	82.43
237.909	127.49
238.127	16.9
238.344	51.71
238.562	74.24
238.779	-93.69
238.996	-1.54
239.214	27.14
239.431	47.62
239.648	-36.35
239.865	-3.58
240.083	90.62
240.3	47.62
240.517	90.62
240.735	10.75
240.952	145.92
241.169	86.53
241.386	133.63
241.603	-28.16
241.821	92.67
242.038	90.62
242.255	84.48
242.472	-24.06
242.689	49.66
242.907	145.92
243.124	16.9
243.341	23.04
243.558	-24.06
243.775	-5.63
243.992	-24.06
244.209	4.61
244.426	133.63
244.643	109.05
244.86	-40.45
245.078	64
245.295	150.01
245.512	31.23
245.729	53.76
245.946	64
246.163	29.18
246.38	104.96
246.597	55.81
246.814	35.33
247.031	78.33
247.248	29.18
247.464	109.05
247.681	20.99
247.898	23.04
248.115	78.33
248.332	10.75
248.549	109.05
248.766	150.01
248.983	96.77
249.2	43.52
249.417	16.9
249.633	33.28
249.85	53.76
250.067	-40.45
250.284	68.09
250.501	57.86
250.717	82.43
250.934	-83.45
251.151	-101.89
251.368	92.67
251.585	143.87
251.801	23.04
252.018	-1.54
252.235	57.86
252.451	-30.21
252.668	41.47
252.885	55.81
253.102	10.75
253.318	-52.74
253.535	43.52
253.752	10.75
253.968	6.66
254.185	-54.78
254.401	25.09
254.618	31.23
254.835	-30.21
255.051	98.81
255.268	20.99
255.484	64
255.701	14.85
255.917	84.48
256.134	-17.92
256.351	78.33
256.567	14.85
256.784	66.05
257	-9.73
257.217	137.73
257.433	20.99
257.65	53.76
257.866	43.52
258.082	-28.16
258.299	37.38
258.515	43.52
258.732	29.18
258.948	-1.54
259.165	104.96
259.381	61.95
259.597	115.2
259.814	27.14
260.03	45.57
260.246	57.86
260.463	68.09
260.679	18.94
260.895	92.67
261.112	158.21
261.328	37.38
261.544	39.42
261.761	129.53
261.977	59.9
262.193	33.28
262.409	43.52
262.626	68.09
262.842	43.52
263.058	-5.63
263.274	78.33
263.49	10.75
263.707	49.66
263.923	129.53
264.139	-17.92
264.355	10.75
264.571	109.05
264.787	12.8
265.004	45.57
265.22	61.95
265.436	31.23
265.652	-5.63
265.868	39.42
266.084	14.85
266.3	82.43
266.516	16.9
266.732	41.47
266.948	47.62
267.164	4.61
267.38	80.38
267.596	10.75
267.812	74.24
268.028	45.57
268.244	-36.35
268.46	-24.06
268.676	-38.4
268.892	53.76
269.108	-50.69
269.324	-30.21
269.54	-44.54
269.756	72.19
269.972	35.33
270.188	31.23
270.403	4.61
270.619	12.8
270.835	16.9
271.051	45.57
271.267	18.94
271.483	27.14
271.698	37.38
271.914	6.66
272.13	-13.82
272.346	33.28
272.562	59.9
272.777	55.81
272.993	4.61
273.209	20.99
273.425	41.47
273.64	37.38
273.856	82.43
274.072	-34.3
274.287	51.71
274.503	86.53
274.719	14.85
274.934	119.29
275.15	20.99
275.366	14.85
275.581	64
275.797	16.9
276.012	20.99
276.228	0.51
276.444	10.75
276.659	90.62
276.875	-65.02
277.09	-36.35
277.306	25.09
277.521	66.05
277.737	-3.58
277.952	-5.63
278.168	66.05
278.383	74.24
278.599	55.81
278.814	176.64
279.03	37.38
279.245	139.77
279.461	18.94
279.676	133.63
279.892	51.71
280.107	-7.68
280.322	41.47
280.538	18.94
280.753	8.7
280.969	25.09
281.184	64
281.399	61.95
281.615	10.75
281.83	53.76
282.045	-34.3
282.26	-17.92
282.476	98.81
282.691	90.62
282.906	98.81
283.122	8.7
283.337	14.85
283.552	16.9
283.767	129.53
283.983	90.62
284.198	23.04
284.413	55.81
284.628	-48.64
284.843	70.14
285.058	61.95
285.274	94.72
285.489	-5.63
285.704	31.23
285.919	68.09
286.134	43.52
286.349	4.61
286.564	64
286.779	45.57
286.995	59.9
287.21	27.14
287.425	6.66
287.64	4.61
287.855	96.77
288.07	-44.54
288.285	104.96
288.5	68.09
288.715	49.66
288.93	117.25
289.145	61.95
289.36	111.1
289.575	61.95
289.79	47.62
290.004	10.75
290.219	115.2
290.434	8.7
290.649	20.99
290.864	61.95
291.079	18.94
291.294	82.43
291.509	53.76
291.724	90.62
291.938	6.66
292.153	100.86
292.368	80.38
292.583	82.43
292.798	78.33
293.012	84.48
293.227	92.67
293.442	90.62
293.657	49.66
293.871	154.11
294.086	41.47
294.301	98.81
294.516	107.01
294.73	68.09
294.945	100.86
295.16	-30.21
295.374	31.23
295.589	78.33
295.804	-3.58
296.018	39.42
296.233	113.15
296.447	68.09
296.662	45.57
296.877	150.01
297.091	68.09
297.306	16.9
297.52	-5.63
297.735	-5.63
297.949	68.09
298.164	94.72
298.378	29.18
298.593	61.95
298.807	59.9
299.022	39.42
299.236	27.14
299.451	10.75
299.665	31.23
299.88	0.51
300.094	51.71
300.309	51.71
300.523	18.94
300.737	74.24
300.952	92.67
301.166	104.96
301.381	96.77
301.595	86.53
301.809	-13.82
302.024	107.01
302.238	51.71
302.452	51.71
302.667	70.14
302.881	111.1
303.095	84.48
303.309	90.62
303.524	88.57
303.738	113.15
303.952	2.56
304.166	160.25
304.381	-38.4
304.595	113.15
304.809	12.8
305.023	37.38
305.237	51.71
305.452	23.04
305.666	0.51
305.88	133.63
306.094	45.57
306.308	55.81
306.522	51.71
306.736	92.67
306.95	98.81
307.164	37.38
307.379	80.38
307.593	90.62
307.807	107.01
308.021	35.33
308.235	68.09
308.449	33.28
308.663	49.66
308.877	137.73
309.091	84.48
309.305	129.53
309.519	-56.83
309.733	123.39
309.947	10.75
310.161	31.23
310.374	102.91
310.588	100.86
310.802	0.51
311.016	10.75
311.23	57.86
311.444	18.94
311.658	64
311.872	147.97
312.085	166.4
312.299	127.49
312.513	127.49
312.727	78.33
312.941	-5.63
313.154	119.29
313.368	20.99
313.582	8.7
313.796	55.81
314.009	86.53
314.223	61.95
314.437	72.19
314.651	18.94
314.864	23.04
315.078	70.14
315.292	-11.78
315.505	53.76
315.719	4.61
315.933	29.18
316.146	35.33
316.36	45.57
316.573	107.01
316.787	115.2
317.001	39.42
317.214	82.43
317.428	92.67
317.641	102.91
317.855	57.86
318.068	70.14
318.282	53.76
318.495	121.34
318.709	76.29
318.922	100.86
319.136	123.39
319.349	111.1
319.563	29.18
319.776	160.25
319.99	55.81
320.203	8.7
320.417	-7.68
320.63	119.29
320.843	152.06
321.057	78.33
321.27	172.54
321.483	31.23
321.697	92.67
321.91	55.81
322.124	119.29
322.337	66.05
322.55	18.94
322.763	18.94
322.977	43.52
323.19	-62.98
323.403	41.47
323.617	94.72
323.83	88.57
324.043	98.81
324.256	57.86
324.469	25.09
324.683	131.58
324.896	18.94
325.109	-11.78
325.322	12.8
325.535	33.28
325.748	72.19
325.962	-19.97
326.175	51.71
326.388	127.49
326.601	-1.54
326.814	-11.78
327.027	84.48
327.24	131.58
327.453	23.04
327.666	64
327.879	111.1
328.092	80.38
328.305	57.86
328.518	57.86
328.731	-28.16
328.944	127.49
329.157	109.05
329.37	59.9
329.583	131.58
329.796	205.31
330.009	-15.87
330.222	139.77
330.435	117.25
330.648	47.62
330.861	113.15
331.073	20.99
331.286	72.19
331.499	125.44
331.712	25.09
331.925	64
332.138	80.38
332.35	57.86
332.563	51.71
332.776	152.06
332.989	86.53
333.202	102.91
333.414	92.67
333.627	47.62
333.84	55.81
334.053	57.86
334.265	107.01
334.478	14.85
334.691	78.33
334.903	80.38
335.116	-24.06
335.329	107.01
335.541	-19.97
335.754	98.81
335.966	53.76
336.179	98.81
336.392	18.94
336.604	129.53
336.817	37.38
337.029	98.81
337.242	23.04
337.454	6.66
337.667	64
337.88	66.05
338.092	115.2
338.305	107.01
338.517	66.05
338.729	37.38
338.942	68.09
339.154	64
339.367	-15.87
339.579	76.29
339.792	2.56
340.004	76.29
340.217	35.33
340.429	35.33
340.641	82.43
340.854	59.9
341.066	70.14
341.278	141.82
341.491	86.53
341.703	57.86
341.915	74.24
342.128	45.57
342.34	59.9
342.552	23.04
342.764	53.76
342.977	43.52
343.189	109.05
343.401	39.42
343.613	80.38
343.826	98.81
344.038	-26.11
344.25	133.63
344.462	29.18
344.674	104.96
344.886	-1.54
345.099	47.62
345.311	88.57
345.523	70.14
345.735	-52.74
345.947	43.52
346.159	109.05
346.371	104.96
346.583	29.18
346.795	82.43
347.007	-24.06
347.219	80.38
347.431	20.99
347.643	137.73
347.855	0.51
348.067	82.43
348.279	43.52
348.491	119.29
348.703	86.53
348.915	-62.98
349.127	-9.73
349.339	74.24
349.551	35.33
349.763	123.39
349.975	49.66
350.187	41.47
350.399	51.71
350.61	57.86
350.822	47.62
351.034	37.38
351.246	113.15
351.458	139.77
351.669	59.9
351.881	154.11
352.093	139.77
352.305	49.66
352.517	133.63
352.728	123.39
352.94	29.18
353.152	96.77
353.363	35.33
353.575	107.01
353.787	104.96
353.999	57.86
354.21	59.9
354.422	-46.59
354.633	70.14
354.845	92.67
355.057	59.9
355.268	135.68
355.48	20.99
355.692	66.05
355.903	-5.63
356.115	68.09
356.326	-28.16
356.538	172.54
356.749	78.33
356.961	113.15
357.172	39.42
357.384	2.56
357.595	190.97
357.807	23.04
358.018	-7.68
358.23	55.81
358.441	162.3
358.653	27.14
358.864	6.66
359.075	45.57
359.287	104.96
359.498	57.86
359.709	59.9
359.921	45.57
360.132	72.19
360.344	107.01
360.555	53.76
360.766	16.9
360.977	47.62
361.189	80.38
361.4	14.85
361.611	72.19
361.823	78.33
362.034	49.66
362.245	35.33
362.456	68.09
362.667	141.82
362.879	-24.06
363.09	86.53
363.301	43.52
363.512	111.1
363.723	23.04
363.935	31.23
364.146	107.01
364.357	49.66
364.568	76.29
364.779	-11.78
364.99	209.4
365.201	102.91
365.412	180.73
365.623	12.8
365.834	78.33
366.045	55.81
366.256	66.05
366.467	92.67
366.678	68.09
366.889	59.9
367.1	27.14
367.311	12.8
367.522	61.95
367.733	147.97
367.944	121.34
368.155	39.42
368.366	104.96
368.577	94.72
368.788	143.87
368.999	92.67
369.209	41.47
369.42	201.21
369.631	186.88
369.842	57.86
370.053	20.99
370.264	150.01
370.474	-44.54
370.685	80.38
370.896	117.25
371.107	133.63
371.317	162.3
371.528	80.38
371.739	113.15
371.95	107.01
372.16	49.66
372.371	27.14
372.582	68.09
372.792	154.11
373.003	20.99
373.214	53.76
373.424	162.3
373.635	2.56
373.846	127.49
374.056	47.62
374.267	0.51
374.477	18.94
374.688	55.81
374.898	72.19
375.109	57.86
375.319	119.29
375.53	117.25
375.74	92.67
375.951	100.86
376.161	53.76
376.372	164.35
376.582	80.38
376.793	39.42
377.003	23.04
377.214	18.94
377.424	66.05
377.635	80.38
377.845	20.99
378.055	123.39
378.266	-15.87
378.476	72.19
378.686	111.1
378.897	33.28
379.107	158.21
379.317	100.86
379.528	57.86
379.738	16.9
379.948	-77.31
380.158	59.9
380.369	49.66
380.579	59.9
380.789	23.04
380.999	123.39
381.21	158.21
381.42	156.16
381.63	61.95
381.84	57.86
382.05	84.48
382.261	88.57
382.471	100.86
382.681	-3.58
382.891	104.96
383.101	53.76
383.311	14.85
383.521	47.62
383.731	135.68
383.941	125.44
384.151	123.39
384.361	57.86
384.571	31.23
384.781	2.56
384.991	111.1
385.201	131.58
385.411	164.35
385.621	174.59
385.831	119.29
386.041	72.19
386.251	33.28
386.461	174.59
386.671	70.14
386.881	64
387.091	109.05
387.301	59.9
387.511	80.38
387.72	111.1
387.93	186.88
388.14	6.66
388.35	43.52
388.56	53.76
388.769	92.67
388.979	82.43
389.189	59.9
389.399	43.52
389.609	31.23
389.818	174.59
390.028	127.49
390.238	115.2
390.447	68.09
390.657	102.91
390.867	41.47
391.076	39.42
391.286	199.16
391.496	96.77
391.705	84.48
391.915	84.48
392.125	152.06
392.334	131.58
392.544	98.81
392.753	139.77
392.963	90.62
393.172	131.58
393.382	-5.63
393.591	139.77
393.801	119.29
394.01	156.16
394.22	137.73
394.429	72.19
394.639	102.91
394.848	80.38
395.058	158.21
395.267	57.86
395.477	104.96
395.686	119.29
395.895	184.83
396.105	207.36
396.314	178.69
396.524	182.78
396.733	145.92
396.942	193.02
397.152	139.77
397.361	96.77
397.57	84.48
397.78	156.16
397.989	211.45
398.198	246.27
398.407	131.58
398.617	96.77
398.826	154.11
399.035	190.97
399.244	193.02
399.453	156.16
399.663	174.59
399.872	115.2
400.081	104.96
400.29	168.45
400.499	92.67
400.708	182.78
400.917	109.05
401.127	178.69
401.336	174.59
401.545	199.16
401.754	203.26
401.963	287.23
402.172	150.01
402.381	143.87
402.59	139.77
402.799	172.54
403.008	211.45
403.217	203.26
403.426	195.07
403.635	127.49
403.844	233.98
404.053	160.25
404.262	184.83
404.471	330.23
404.68	225.79
404.888	240.12
405.097	223.74
405.306	244.22
405.515	254.46
405.724	225.79
405.933	272.89
406.142	213.5
406.35	346.62
406.559	207.36
406.768	281.08
406.977	426.49
407.185	262.65
407.394	330.23
407.603	332.28
407.812	311.8
408.02	393.72
408.229	356.86
408.438	262.65
408.646	350.71
408.855	399.87
409.064	430.59
409.272	346.62
409.481	408.06
409.69	461.3
409.898	430.59
410.107	522.74
410.315	539.13
410.524	442.87
410.733	510.46
410.941	479.74
411.15	606.71
411.358	698.87
411.567	641.53
411.775	594.42
411.984	625.14
412.192	690.68
412.401	649.72
412.609	721.4
412.818	780.79
413.026	778.74
413.234	846.32
413.443	819.7
413.651	827.89
413.86	891.38
414.068	1051.12
414.276	1069.55
414.485	971.25
414.693	1087.98
414.901	1165.81
415.11	1087.98
415.318	1141.23
415.526	1067.5
415.734	1237.49
415.943	1262.06
416.151	1343.98
416.359	1253.87
416.567	1241.58
416.776	1475.05
416.984	1442.28
417.192	1597.93
417.4	1458.67
417.608	1477.1
417.817	1569.26
418.025	1726.95
418.233	1798.63
418.441	1753.57
418.649	1939.94
418.857	1960.42
419.065	2073.06
419.273	1944.03
419.481	2066.91
419.689	2310.62
419.897	2306.52
420.105	2462.17
420.313	2429.4
420.521	2447.83
420.729	2599.38
420.937	2765.27
421.145	2818.52
421.353	2857.43
421.561	3107.28
421.769	3148.24
421.977	3248.59
422.185	3205.58
422.393	3422.67
422.601	3635.66
422.809	3674.57
423.017	3627.46
423.224	3805.64
423.432	3938.76
423.64	3836.36
423.848	4313.53
424.056	4110.79
424.263	4487.61
424.471	4358.59
424.679	4592.06
424.887	4780.47
425.094	4952.5
425.302	4886.97
425.51	5155.25
425.718	5181.87
425.925	5388.72
426.133	5413.29
426.341	5863.85
426.548	6099.36
426.756	5990.82
426.964	6101.41
427.171	6429.09
427.379	6801.82
427.586	6619.55
427.794	7045.52
428.001	7278.99
428.209	7711.11
428.417	7440.78
428.624	8065.41
428.832	7960.97
429.039	7825.8
429.247	8016.26
429.454	8601.98
429.662	9255.28
429.869	8587.64
430.076	9245.04
430.284	9179.51
430.491	9386.35
430.699	9875.82
430.906	10070.37
431.114	10209.64
431.321	10479.97
431.528	10619.23
431.736	11200.85
431.943	11751.76
432.15	11534.67
432.358	11698.51
432.565	12085.58
432.772	11981.13
432.979	12796.22
433.187	12886.33
433.394	13099.32
433.601	13990.19
433.808	13930.8
434.016	13904.17
434.223	14414.12
434.43	15200.54
434.637	14731.55
434.844	15986.96
435.052	16173.32
435.259	15993.1
435.466	16341.25
435.673	15919.37
435.88	17297.66
436.087	17762.54
436.294	18069.74
436.501	17709.3
436.708	17795.31
436.915	18557.16
437.122	19235.03
437.329	19165.4
437.537	19517.65
437.743	20232.4
437.95	19884.24
438.157	21119.17
438.364	21704.88
438.571	21502.14
438.778	21680.31
438.985	23707.8
439.192	22784.16
439.399	23310.49
439.606	22956.19
439.813	24537.23
440.02	25704.57
440.227	25174.14
440.433	24856.71
440.64	25901.17
440.847	25442.43
441.054	26167.41
441.261	27781.21
441.467	27478.11
441.674	28164.18
441.881	28956.74
442.088	29048.9
442.294	28745.8
442.501	29485.12
442.708	29823.03
442.914	31053.86
443.121	32612.37
443.328	31191.08
443.534	33552.38
443.741	32622.61
443.948	32137.24
444.154	35006.44
444.361	34082.81
444.568	34334.71
444.774	34551.79
444.981	34779.12
445.187	35514.34
445.394	37554.11
445.6	36591.57
445.807	40490.9
446.013	38416.31
446.22	39186.35
446.426	40531.86
446.633	40753.04
446.839	42129.28
447.046	40447.89
447.252	43118.45
447.459	42735.48
447.665	42536.82
447.871	44236.64
448.078	46264.13
448.284	44189.53
448.491	45180.75
448.697	46858.04
448.903	47732.52
449.11	47666.98
449.316	46972.72
449.522	47642.41
449.728	48525.08
449.935	48801.56
450.141	49102.61
450.347	49966.85
450.553	48133.92
450.76	49051.41
450.966	50499.33
451.172	50071.3
451.378	50888.44
451.584	49952.52
451.791	51091.19
451.997	51255.03
452.203	51504.88
452.409	52010.73
452.615	51160.82
452.821	49598.22
453.027	49325.84
453.233	51545.84
453.44	48940.82
453.646	50142.98
453.852	50216.71
454.058	50810.62
454.264	49428.24
454.47	50210.56
454.676	49041.17
454.882	50427.65
455.088	46391.1
455.294	46817.08
455.5	47464.24
455.705	47849.25
455.911	45535.05
456.117	44785.49
456.323	44189.53
456.529	42039.17
456.735	43781.99
456.941	42311.55
457.147	41930.62
457.352	40540.05
457.558	40394.65
457.764	40392.6
457.97	39405.48
458.176	38547.38
458.381	38637.49
458.587	36569.04
458.793	36538.32
458.999	34877.42
459.204	37146.57
459.41	36038.62
459.616	33452.03
459.821	33316.87
460.027	33468.42
460.233	32460.82
460.438	31197.22
460.644	31518.75
460.85	29829.18
461.055	29595.71
461.261	29612.09
461.466	27261.02
461.672	26382.45
461.878	28078.16
462.083	26372.21
462.289	25575.55
462.494	25489.53
462.7	24348.81
462.905	23916.69
463.111	24572.04
463.316	24416.4
463.522	24242.32
463.727	24027.28
463.932	23810.2
464.138	23425.18
464.343	23574.68
464.549	22843.56
464.754	23763.09
464.959	23472.28
465.165	23363.74
465.37	22489.26
465.575	21311.67
465.781	22567.08
465.986	22864.04
466.191	21797.04
466.397	21450.94
466.602	20146.38
466.807	21178.56
467.012	21035.2
467.218	21205.18
467.423	20746.44
467.628	20662.47
467.833	21446.84
468.038	20547.78
468.244	20220.11
468.449	20918.46
468.654	19968.21
468.859	20029.65
469.064	20050.13
469.269	19374.3
469.474	19394.78
469.679	19634.39
469.885	19099.87
470.09	19341.53
470.295	18966.75
470.5	18542.82
470.705	18821.34
470.91	18360.55
471.115	18317.54
471.32	18467.05
471.525	17946.86
471.73	17905.9
471.935	17692.91
472.139	17109.24
472.344	17228.03
472.549	17287.42
472.754	17121.53
472.959	16560.39
473.164	16425.22
473.369	16171.27
473.574	16728.32
473.778	16435.46
473.983	16136.46
474.188	16019.72
474.393	15505.68
474.598	15405.33
474.802	15446.29
475.007	15284.5
475.212	15044.89
475.417	14719.26
475.621	14649.63
475.826	14514.47
476.031	14309.67
476.235	14250.28
476.44	14199.08
476.645	13861.16
476.849	14194.98
477.054	13648.18
477.259	13728.05
477.463	13781.29
477.668	13322.55
477.872	13195.57
478.077	13035.83
478.282	12800.32
478.486	12904.76
478.691	12738.88
478.895	12626.24
479.1	12663.1
479.304	12564.8
479.509	12392.77
479.713	12527.94
479.918	11987.27
480.122	11862.35
480.326	12132.68
480.531	12044.62
480.735	11891.02
480.94	11678.03
481.144	12071.24
481.348	11614.54
481.553	11616.59
481.757	11305.3
481.961	11415.89
482.166	11653.45
482.37	11581.78
482.574	11444.56
482.778	11419.99
482.983	11729.23
483.187	11379.03
483.391	11657.55
483.595	11422.03
483.8	11323.73
484.004	11497.81
484.208	11690.32
484.412	11374.93
484.616	11477.33
484.821	11446.61
485.025	11151.7
485.229	11305.3
485.433	11278.68
485.637	11495.76
485.841	11166.04
486.045	11432.27
486.249	11260.24
486.453	11364.69
486.657	11440.47
486.861	11243.86
487.065	11043.16
487.269	11254.1
487.473	11256.15
487.677	11575.63
487.881	11471.18
488.085	11495.76
488.289	11467.09
488.493	11145.56
488.697	11407.7
488.901	11446.61
489.105	11227.48
489.309	11514.19
489.512	11465.04
489.716	11319.64
489.92	11342.16
490.124	11471.18
490.328	11702.61
490.531	11610.45
490.735	11520.34
490.939	11780.43
491.143	11518.29
491.346	11473.23
491.55	11583.82
491.754	11641.17
491.958	11839.82
492.161	11632.97
492.365	11862.35
492.569	11712.85
492.772	11866.44
492.976	11987.27
493.18	11966.79
493.383	12253.51
493.587	12085.58
493.79	12177.73
493.994	11954.51
494.197	12130.63
494.401	12460.35
494.605	12374.34
494.808	12476.74
495.012	12638.53
495.215	12505.41
495.419	12720.45
495.622	12726.59
495.825	12890.43
496.029	12722.49
496.232	13134.14
496.436	12960.06
496.639	13588.78
496.843	13179.19
497.046	13592.88
497.249	13850.92
497.453	13695.28
497.656	13701.42
497.859	14055.72
498.063	14121.26
498.266	14696.74
498.469	14348.58
498.673	14567.71
498.876	14586.15
499.079	14848.29
499.282	14727.46
499.485	15294.74
499.689	15259.93
499.892	15356.18
500.095	15632.66
500.298	15954.19
500.501	15542.55
500.705	15806.73
500.908	16253.19
501.111	16367.88
501.314	16453.89
501.517	16845.05
501.72	16947.45
501.923	16935.17
502.126	17314.04
502.329	17424.63
502.532	17297.66
502.735	17623.28
502.938	18153.71
503.141	17877.23
503.344	18270.44
503.547	18206.95
503.75	18677.99
503.953	19058.91
504.156	19024.09
504.359	19323.1
504.562	19386.58
504.765	19593.43
504.968	19839.19
505.17	20039.89
505.373	20152.52
505.576	20271.31
505.779	20441.29
505.982	20678.85
506.185	20891.84
506.387	21139.65
506.59	21246.14
506.793	21747.89
506.996	21366.97
507.198	22104.24
507.401	22313.13
507.604	22476.97
507.807	22651.05
508.009	22958.24
508.212	23195.81
508.415	23179.42
508.617	23388.32
508.82	23439.51
509.022	23625.88
509.225	24361.1
509.428	24406.16
509.63	24707.21
509.833	24526.99
510.035	25104.51
510.238	24791.17
510.44	25575.55
510.643	25790.58
510.845	26052.72
511.048	25876.6
511.25	25909.36
511.453	26638.44
511.655	27330.65
511.858	26789.99
512.06	27318.37
512.262	27312.22
512.465	27215.97
512.667	27940.95
512.87	28049.49
513.072	27916.37
513.274	28846.15
513.477	28772.42
513.679	28520.52
513.881	29059.14
514.084	29730.87
514.286	29775.93
514.488	29689.91
514.69	30425.14
514.893	30505.01
515.095	30318.64
515.297	30898.22
515.499	30935.08
515.701	31178.79
515.904	31662.11
516.106	31586.33
516.308	32235.54
516.51	32450.58
516.712	32106.52
516.914	32929.8
517.116	33267.72
517.318	33275.91
517.52	33286.15
517.722	33105.93
517.925	33935.35
518.127	33867.77
518.329	34777.07
518.531	34277.36
518.733	34756.59
518.935	34861.04
519.136	35252.2
519.338	35514.34
519.54	35262.44
519.742	35731.42
519.944	35528.67
520.146	36335.57
520.348	36399.06
520.55	36610
520.752	36978.64
520.954	37566.4
521.155	37015.5
521.357	37443.52
521.559	37816.25
521.761	38442.93
521.963	38170.55
522.164	38129.59
522.366	38125.5
522.568	38731.7
522.77	38696.88
522.971	39139.24
523.173	39042.99
523.375	39368.62
523.576	39264.17
523.778	39241.64
523.98	40036.25
524.181	39940
524.383	39727.01
524.584	40040.35
524.786	40128.41
524.988	40124.32
525.189	40454.04
525.391	40449.94
525.592	40865.68
525.794	40845.2
525.995	41101.2
526.197	41187.21
526.398	41138.06
526.6	41400.2
526.801	41203.6
527.003	41508.74
527.204	41500.55
527.406	41887.62
527.607	42092.41
527.808	42057.6
528.01	41521.03
528.211	42110.85
528.412	42669.94
528.614	42372.99
528.815	42360.7
529.016	42469.24
529.218	42248.06
529.419	42461.05
529.62	42659.7
529.822	42350.46
530.023	42573.69
530.224	42553.21
530.425	42665.84
530.626	42317.69
530.828	42184.57
531.029	42823.54
531.23	42483.58
531.431	42780.53
531.632	42608.5
531.833	42983.28
532.035	42704.76
532.236	42696.56
532.437	42889.07
532.638	42444.66
532.839	42723.19
533.04	43009.9
533.241	42600.31
533.442	43024.24
533.643	42575.73
533.844	42567.54
534.045	42819.44
534.246	42532.73
534.447	42280.83
534.648	42549.11
534.849	43050.86
535.05	42592.12
535.251	42688.37
535.451	42495.86
535.652	42970.99
535.853	42749.81
536.054	42532.73
536.255	42489.72
536.456	42465.14
536.657	43177.84
536.857	42549.11
537.058	42633.08
537.259	42909.55
537.46	42850.16
537.66	42215.29
537.861	42671.99
538.062	42858.35
538.263	42532.73
538.463	42319.74
538.664	42135.42
538.865	42524.54
539.065	42653.56
539.266	42088.32
539.466	42424.18
539.667	42096.51
539.868	42880.88
540.068	42502.01
540.269	42184.57
540.469	42379.13
540.67	42045.31
540.87	42454.9
541.071	42459
541.271	42569.59
541.472	42344.31
541.672	41840.51
541.873	42217.34
542.073	41705.35
542.274	42655.61
542.474	42211.2
542.675	41949.06
542.875	42504.06
543.075	41928.58
543.276	41486.21
543.476	42434.42
543.676	41777.03
543.877	42274.68
544.077	42391.42
544.277	41928.58
544.478	41922.43
544.678	42235.77
544.878	41979.78
545.078	41942.91
545.279	41904
545.479	41658.24
545.679	42096.51
545.879	41944.96
546.079	42229.63
546.28	41680.77
546.48	41619.33
546.68	41328.52
546.88	42076.03
547.08	42092.41
547.28	41815.94
547.48	41709.44
547.68	41951.1
547.88	41475.98
548.081	41725.83
548.281	41860.99
548.481	41809.79
548.681	41760.64
548.881	41338.76
549.081	41817.99
549.28	41330.57
549.48	41963.39
549.68	41789.31
549.88	41916.29
550.08	41240.46
550.28	41895.81
550.48	41430.92
550.68	41611.14
550.88	41105.29
551.08	41578.37
551.279	41531.27
551.479	41287.56
551.679	41826.18
551.879	41195.4
552.079	41635.72
552.278	41484.17
552.478	41230.22
552.678	41611.14
552.878	41641.86
553.077	41258.89
553.277	41029.52
553.477	41789.31
553.676	41494.41
553.876	41131.92
554.076	40693.65
554.275	40814.48
554.475	40808.34
554.674	41349
554.874	41484.17
555.074	41133.96
555.273	41265.03
555.473	41326.47
555.672	41041.81
555.872	41127.82
556.071	41334.67
556.271	41172.88
556.47	40877.97
556.67	40646.55
556.869	40728.47
557.068	41697.16
557.268	40851.34
557.467	40660.88
557.667	41199.5
557.866	40910.74
558.065	40359.83
558.265	40632.21
558.464	40576.92
558.663	41093
558.863	40495
559.062	41168.78
559.261	40794
559.461	41140.11
559.66	40597.4
559.859	40847.25
560.058	40796.05
560.258	40591.25
560.457	40138.65
560.656	40744.85
560.855	40398.74
561.054	40705.94
561.253	40206.23
561.453	40560.53
561.652	40609.68
561.851	40959.89
562.05	40570.77
562.249	40259.48
562.448	40339.35
562.647	40705.94
562.846	40210.33
563.045	40562.58
563.244	40124.32
563.443	40411.03
563.642	39991.2
563.841	40224.67
564.04	40017.82
564.239	40546.2
564.438	40064.92
564.637	40290.2
564.836	40245.15
565.035	40101.79
565.234	39892.9
565.432	39944.09
565.631	39741.35
565.83	40396.7
566.029	39880.61
566.228	39907.23
566.427	40120.22
566.625	39524.26
566.824	39382.95
567.023	39745.44
567.222	39206.83
567.42	39802.78
567.619	39514.02
567.818	39579.56
568.016	39993.25
568.215	40071.07
568.414	39651.23
568.612	39903.14
568.811	39847.84
569.01	39708.58
569.208	38942.64
569.407	39630.76
569.605	39192.49
569.804	39704.48
570.002	39522.21
570.201	39669.67
570.4	38977.45
570.598	39061.42
570.797	39327.66
570.995	39161.77
571.193	39174.06
571.392	39554.98
571.59	38520.76
571.789	39462.82
571.987	38821.81
572.186	39012.27
572.384	39096.24
572.582	39069.61
572.781	38991.79
572.979	38590.39
573.177	38752.18
573.376	39098.28
573.574	38467.51
573.772	38594.48
573.971	38602.67
574.169	38369.21
574.367	38250.42
574.565	38707.12
574.763	38623.15
574.962	38180.79
575.16	37998.52
575.358	38569.91
575.556	38180.79
575.754	38676.4
575.952	38109.11
576.151	38221.75
576.349	37918.65
576.547	38334.39
576.745	38055.87
576.943	38465.46
577.141	38365.11
577.339	38107.07
577.537	37672.9
577.735	38111.16
577.933	38006.72
578.131	37754.82
578.329	37613.51
578.527	37617.6
578.725	37732.29
578.923	38033.34
579.121	37527.49
579.319	37818.3
579.516	37625.79
579.714	37715.9
579.912	37277.64
580.11	37537.73
580.308	37703.62
580.506	37126.09
580.704	36874.19
580.901	36612.05
581.099	37359.56
581.297	37087.18
581.495	37248.97
581.692	37527.49
581.89	36999.12
582.088	37371.85
582.285	36937.68
582.483	37394.37
582.681	37052.36
582.878	36913.1
583.076	36442.07
583.274	37435.33
583.471	36587.47
583.669	36634.58
583.866	36708.3
584.064	36943.82
584.262	36098.01
584.459	36859.85
584.657	36489.17
584.854	37208.01
585.052	36354.01
585.249	36671.44
585.447	36345.81
585.644	36218.84
585.841	36517.84
586.039	36304.85
586.236	36157.4
586.434	36100.06
586.631	35799.01
586.828	35987.42
587.026	36151.26
587.223	35938.27
587.42	36112.34
587.618	35770.33
587.815	35778.53
588.012	35737.57
588.21	35456.99
588.407	36274.13
588.604	35491.81
588.801	35481.57
588.999	35954.65
589.196	35547.11
589.393	35768.29
589.59	35393.51
589.787	35219.43
589.984	35629.02
590.182	35284.97
590.379	35520.48
590.576	35442.66
590.773	35452.9
590.97	34996.2
591.167	35373.03
591.364	35055.59
591.561	35833.82
591.758	35039.21
591.955	35006.44
592.152	35342.31
592.349	35119.08
592.546	35309.54
592.743	35299.3
592.94	35047.4
593.137	34842.6
593.334	35254.25
593.531	34719.73
593.727	35071.98
593.924	35270.63
594.121	34834.41
594.318	35069.93
594.515	34922.48
594.712	35710.94
594.908	34656.24
595.105	35041.26
595.302	34619.38
595.499	34820.08
595.696	35012.59
595.892	34660.34
596.089	34895.85
596.286	35022.83
596.482	34621.42
596.679	34670.57
596.876	34805.74
597.072	34693.1
597.269	34963.43
597.466	34643.95
597.662	34562.03
597.859	34662.38
598.055	34934.76
598.252	34736.11
598.448	34973.67
598.645	34918.38
598.841	34732.01
599.038	34736.11
599.234	34967.53
599.431	34476.02
599.627	34543.6
599.824	34865.13
600.02	34734.06
600.217	34580.46
600.413	34654.19
600.609	34478.07
600.806	34883.56
601.002	35018.73
601.198	34390
601.395	34699.25
601.591	34891.76
601.787	34762.73
601.984	34445.3
602.18	35139.56
602.376	34523.12
602.572	34490.35
602.769	34873.32
602.965	34455.54
603.161	34783.21
603.357	34768.88
603.553	34996.2
603.75	35192.81
603.946	34906.09
604.142	34985.96
604.338	34729.97
604.534	35100.65
604.73	35180.52
604.926	35237.86
605.122	35258.34
605.318	35223.53
605.514	35227.62
605.71	35160.04
605.906	35092.46
606.102	35463.14
606.298	35418.08
606.494	35682.27
606.69	35612.64
606.886	35618.78
607.082	35266.53
607.278	36098.01
607.474	35258.34
607.67	35667.94
607.866	35307.49
608.062	36245.46
608.257	35831.77
608.453	36147.16
608.649	36331.48
608.845	36171.74
609.041	36323.29
609.236	36276.18
609.432	36564.95
609.628	36628.43
609.824	36710.35
610.019	36343.77
610.215	36708.3
610.411	37361.61
610.606	37146.57
610.802	37019.6
610.998	37191.62
611.193	37187.53
611.389	37439.43
611.584	37269.45
611.78	37136.33
611.976	37310.41
612.171	37611.46
612.367	37689.28
612.562	37580.74
612.758	37394.37
612.953	37515.2
613.149	38176.7
613.344	37814.21
613.539	38574
613.735	38184.89
613.93	38422.45
614.126	38522.8
614.321	38928.3
614.517	38557.62
614.712	38825.9
614.907	38748.08
615.103	39253.93
615.298	38813.62
615.493	39454.63
615.688	38789.04
615.884	39616.42
616.079	39186.35
616.274	39767.97
616.47	39362.47
616.665	39776.16
616.86	39696.29
617.055	39473.06
617.25	39933.85
617.445	40206.23
617.641	39538.6
617.836	40146.84
618.031	39589.8
618.226	40460.18
618.421	39794.59
618.616	40804.24
618.811	40126.36
619.006	40583.06
619.201	40081.31
619.396	40480.66
619.591	39602.08
619.786	40693.65
619.981	40290.2
620.176	40425.37
620.371	40226.71
620.566	40320.92
620.761	40226.71
620.956	40488.85
621.151	40005.53
621.346	40597.4
621.541	39649.19
621.735	40458.13
621.93	39686.05
622.125	40488.85
622.32	39739.3
622.515	40142.75
622.709	39972.77
622.904	39911.33
623.099	39618.47
623.294	39829.41
623.488	39796.64
623.683	39757.73
623.878	39178.15
624.072	39661.47
624.267	40077.21
624.462	39618.47
624.656	39141.29
624.851	39497.64
625.046	39362.47
625.24	39071.66
625.435	39092.14
625.629	39071.66
625.824	38823.86
626.018	38852.53
626.213	37988.28
626.407	38758.32
626.602	38168.51
626.796	38576.05
626.991	38381.49
627.185	38471.6
627.38	38082.49
627.574	38283.19
627.768	37822.4
627.963	38098.87
628.157	37619.65
628.352	38135.74
628.546	37363.65
628.74	37709.76
628.935	37504.96
629.129	37756.86
629.323	37203.91
629.517	36999.12
629.712	36960.2
629.906	37130.19
630.1	36730.83
630.294	37136.33
630.489	36562.9
630.683	36792.27
630.877	36345.81
631.071	36276.18
631.265	36714.45
631.459	36102.11
631.653	36071.39
631.848	36325.33
632.042	35913.69
632.236	36239.32
632.43	36057.05
632.624	36075.48
632.818	35723.23
633.012	35540.96
633.206	35452.9
633.4	35696.61
633.594	35344.36
633.788	35139.56
633.982	35405.8
634.176	35248.1
634.369	34910.19
634.563	34537.46
634.757	34582.51
634.951	34732.01
635.145	34691.05
635.339	34564.08
635.533	34314.23
635.726	34209.78
635.92	33753.08
636.114	34349.04
636.308	33763.32
636.501	34033.66
636.695	33710.08
636.889	33357.83
637.083	33345.54
637.276	33576.96
637.47	33169.41
637.664	33171.46
637.857	33132.55
638.051	32870.41
638.244	32827.4
638.438	32501.78
638.632	32704.52
638.825	32038.94
639.019	32133.14
639.212	31772.7
639.406	32131.09
639.599	32094.23
639.793	31883.29
639.986	31535.13
640.18	31932.44
640.373	31543.33
640.567	31406.11
640.76	31383.59
640.954	30933.03
641.147	30773.29
641.34	30726.19
641.534	30949.42
641.727	30924.84
641.92	30703.66
642.114	30535.73
642.307	30052.41
642.5	30300.21
642.694	29530.17
642.887	29589.56
643.08	29945.91
643.273	29577.28
643.467	29214.79
643.66	29098.05
643.853	29374.53
644.046	29007.94
644.239	29286.47
644.432	28713.03
644.626	28635.21
644.819	28477.52
645.012	28371.02
645.205	28577.87
645.398	28393.55
645.591	28041.3
645.784	27924.57
645.977	27539.55
646.17	27619.42
646.363	27285.6
646.556	27244.64
646.749	27349.09
646.942	27199.58
647.135	26771.56
647.328	26648.68
647.521	26759.27
647.714	26308.72
647.907	26153.07
648.099	26310.77
648.292	26488.94
648.485	26040.43
648.678	25548.92
648.871	25698.42
649.064	25550.97
649.256	25522.3
649.449	25188.48
649.642	25227.39
649.835	24701.06
650.027	25084.03
650.22	24850.56
650.413	24758.41
650.605	24518.79
650.798	24565.9
650.991	24062.1
651.183	24193.17
651.376	23732.37
651.568	23939.22
651.761	23511.19
651.954	23492.76
652.146	23449.75
652.339	23462.04
652.531	23126.18
652.724	23052.45
652.916	22640.81
653.109	22671.53
653.301	22898.85
653.494	22700.2
653.686	22137.01
653.879	22401.19
654.071	21909.68
654.263	21924.02
654.456	22038.7
654.648	21821.62
654.84	21194.94
655.033	21287.1
655.225	21426.36
655.417	20959.42
655.61	21002.43
655.802	21119.17
655.994	20877.51
656.186	20508.87
656.379	20431.05
656.571	20316.36
656.763	20058.32
656.955	19878.1
657.148	19857.62
657.34	20123.85
657.532	19450.07
657.724	19499.22
657.916	19581.14
658.108	19439.83
658.3	18950.37
658.492	18952.41
658.684	18792.67
658.876	18557.16
659.068	18432.23
659.26	18641.12
659.452	18634.98
659.644	18456.81
659.836	17615.09
660.028	18088.17
660.22	17727.73
660.412	17713.39
660.604	17502.45
660.796	17514.74
660.988	17209.59
661.18	17182.97
661.372	16957.69
661.563	16855.29
661.755	16617.73
661.947	16634.11
662.139	16349.45
662.331	16300.3
662.522	16179.47
662.714	16136.46
662.906	16072.97
663.097	15925.52
663.289	15655.19
663.481	15579.41
663.673	15413.52
663.864	15380.76
664.056	15302.93
664.247	15184.15
664.439	15096.09
664.631	15175.96
664.822	14737.7
665.014	14950.68
665.205	14821.66
665.397	14229.8
665.588	14551.33
665.78	14297.38
665.971	14453.03
666.163	14254.37
666.354	14119.21
666.546	13812.01
666.737	13664.56
666.929	13834.54
667.12	13560.11
667.311	13494.58
667.503	13484.34
667.694	13295.93
667.885	13254.97
668.077	13113.66
668.268	13021.5
668.459	12788.03
668.651	12908.86
668.842	13107.51
669.033	12509.51
669.224	12595.52
669.416	12749.12
669.607	12446.02
669.798	12286.28
669.989	12343.62
670.18	12079.43
670.371	12165.45
670.563	12067.14
670.754	12011.85
670.945	11897.16
671.136	11784.52
671.327	11852.11
671.518	11813.2
671.709	11653.45
671.9	11888.97
672.091	11499.86
672.282	11397.46
672.473	11366.74
672.664	11585.87
672.855	11456.85
673.046	11356.5
673.237	11219.28
673.428	11256.15
673.619	10869.08
673.809	10918.23
674	10926.43
674.191	10901.85
674.382	10850.65
674.573	10852.7
674.764	10797.4
674.954	10756.44
675.145	10676.57
675.336	10541.41
675.527	10488.16
675.717	10482.02
675.908	10383.71
676.099	10459.49
676.289	10211.68
676.48	10201.44
676.671	10111.33
676.861	10361.19
677.052	10185.06
677.243	10129.77
677.433	10021.22
677.624	10389.86
677.814	10162.53
678.005	9949.54
678.195	9781.61
678.386	9830.76
678.576	9707.88
678.767	9763.18
678.957	9947.5
679.148	9777.51
679.338	9742.7
679.529	9658.73
679.719	9601.39
679.909	9525.61
680.1	9329.01
680.29	9572.72
680.481	9638.25
680.671	9535.85
680.861	9376.11
681.052	9535.85
681.242	9195.89
681.432	9392.5
681.622	9355.63
681.813	9324.91
682.003	9281.91
682.193	9070.97
682.383	9212.28
682.573	9273.71
682.764	9206.13
682.954	9214.32
683.144	9113.97
683.334	9257.33
683.524	9038.2
683.714	9222.52
683.904	9281.91
684.094	9173.36
684.284	9124.21
684.474	9126.26
684.664	8997.24
684.854	9050.49
685.044	8958.33
685.234	8939.9
685.424	9089.4
685.614	8855.93
685.804	9056.63
685.994	8937.85
686.184	9085.3
686.374	8946.04
686.564	8677.76
686.753	8874.36
686.943	8845.69
687.133	8876.41
687.323	8896.89
687.513	8929.66
687.702	8755.58
687.892	8780.15
688.082	8722.81
688.272	8890.74
688.461	8731
688.651	8814.97
688.841	8737.15
689.03	8827.26
689.22	8610.17
689.41	8636.8
689.599	8565.12
689.789	8614.27
689.979	8714.62
690.168	8538.49
690.358	8604.03
690.547	8575.36
690.737	8597.88
690.926	8599.93
691.116	8223.11
691.305	8677.76
691.495	8526.21
691.684	8501.63
691.874	8577.41
692.063	8620.41
692.252	8571.26
692.442	8501.63
692.631	8237.44
692.82	8403.33
693.01	8298.88
693.199	8440.19
693.388	8374.66
693.578	8190.34
693.767	8343.94
693.956	8262.02
694.146	8198.53
694.335	8155.52
694.524	8137.09
694.713	8407.42
694.902	8239.49
695.092	8253.83
695.281	8100.23
695.47	8223.11
695.659	8188.29
695.848	8274.31
696.037	7991.69
696.226	8171.91
696.415	8151.43
696.604	8102.28
696.793	8085.89
696.982	8133
697.171	8083.84
697.36	7999.88
697.549	7901.58
697.738	7934.34
697.927	8153.48
698.116	7883.14
698.305	7860.62
698.494	7950.73
698.683	7874.95
698.872	7864.71
699.061	7848.33
699.25	7819.66
699.438	7801.22
699.627	7713.16
699.816	7770.51
700.005	7870.86
700.193	7717.26
700.382	7633.29
700.571	7498.13
700.76	7760.27
700.948	7244.18
701.137	7557.52
701.326	7645.58
701.514	7494.03
701.703	7498.13
701.892	7504.27
702.08	7518.61
702.269	7424.4
702.457	7303.57
702.646	7489.93
702.834	7268.75
703.023	7297.42
703.212	7342.48
703.4	7381.39
703.589	7115.16
703.777	7149.97
703.965	7143.83
704.154	7113.11
704.342	7008.66
704.531	6957.46
704.719	6930.84
704.907	7098.77
705.096	6830.49
705.284	7037.33
705.472	6902.17
705.661	6834.58
705.849	6900.12
706.037	7115.16
706.226	6930.84
706.414	6803.86
706.602	6734.23
706.79	6787.48
706.979	6781.34
707.167	6738.33
707.355	6734.23
707.543	6601.12
707.731	6769.05
707.919	6543.77
708.107	6511
708.296	6513.05
708.484	6414.75
708.672	6457.76
708.86	6324.64
709.048	6570.4
709.236	6406.56
709.424	6439.33
709.612	6203.81
709.8	6341.02
709.988	6351.26
710.176	6437.28
710.364	6220.19
710.551	6269.34
710.739	6021.54
710.927	6285.73
711.115	6166.95
711.303	6160.8
711.491	6091.17
711.679	5925.29
711.866	5992.87
712.054	6162.85
712.242	5980.58
712.43	6031.78
712.617	5919.14
712.805	5953.96
712.993	5947.81
713.181	5788.07
713.368	5921.19
713.556	5878.18
713.744	5761.45
713.931	5908.9
714.119	5769.64
714.306	5777.83
714.494	5616.04
714.682	5667.24
714.869	5503.4
715.057	5669.29
715.244	5405.1
715.432	5552.56
715.619	5597.61
715.807	5446.06
715.994	5646.76
716.182	5444.01
716.369	5544.36
716.556	5353.9
716.744	5398.96
716.931	5280.18
717.119	5499.31
717.306	5429.68
717.493	5366.19
717.681	5423.53
717.868	5181.87
718.055	5145.01
718.242	5177.78
718.43	5210.54
718.617	5124.53
718.804	5317.04
718.991	5231.02
719.179	5118.39
719.366	5018.04
719.553	5009.84
719.74	4927.92
719.927	4815.29
720.114	4848.05
720.301	4874.68
720.488	4966.84
720.676	4757.94
720.863	4805.05
721.05	4807.09
721.237	4751.8
721.424	4864.44
721.611	4745.66
721.798	4792.76
721.985	4710.84
722.172	4800.95
722.358	4565.43
722.545	4768.18
722.732	4762.04
722.919	4542.91
723.106	4620.73
723.293	4622.78
723.48	4669.88
723.667	4594.11
723.853	4473.28
724.04	4491.71
724.227	4512.19
724.414	4413.88
724.6	4415.93
724.787	4401.6
724.974	4383.17
725.161	4446.65
725.347	4356.54
725.534	4215.23
725.72	4348.35
725.907	4262.33
726.094	4282.81
726.28	4362.69
726.467	4172.22
726.653	4116.93
726.84	4043.2
727.027	4372.93
727.213	4094.4
727.4	4094.4
727.586	4108.74
727.773	4172.22
727.959	4071.87
728.145	3987.91
728.332	4080.07
728.518	3985.86
728.705	3887.56
728.891	3938.76
729.077	3879.36
729.264	3967.43
729.45	3905.99
729.636	3949
729.823	4000.19
730.009	3979.72
730.195	3963.33
730.382	3932.61
730.568	3887.56
730.754	3801.54
730.94	3789.25
731.126	3850.69
731.313	3908.04
731.499	3787.21
731.685	3916.23
731.871	3643.85
732.057	3729.86
732.243	3748.29
732.429	3676.62
732.615	3682.76
732.801	3672.52
732.987	3559.88
733.173	3455.44
733.359	3469.77
733.545	3611.08
733.731	3531.21
733.917	3516.87
734.103	3502.54
734.289	3703.24
734.475	3455.44
734.661	3557.83
734.847	3580.36
735.033	3437
735.219	3387.85
735.404	3422.67
735.59	3463.63
735.776	3320.27
735.962	3394
736.148	3299.79
736.333	3353.04
736.519	3287.5
736.705	3232.21
736.89	3269.07
737.076	3291.6
737.262	3369.42
737.447	3281.36
737.633	3254.73
737.819	3312.08
738.004	3254.73
738.19	3146.19
738.375	3056.08
738.561	3060.18
738.747	3129.81
738.932	3043.79
739.118	3099.09
739.303	3086.8
739.489	3054.03
739.674	3086.8
739.859	3041.75
740.045	2976.21
740.23	3054.03
740.416	2951.63
740.601	2890.2
740.786	2949.59
740.972	2976.21
741.157	3027.41
741.342	2877.91
741.528	2929.11
741.713	3006.93
741.898	2824.66
742.084	3023.31
742.269	2892.24
742.454	2828.76
742.639	2841.04
742.824	2746.84
743.01	2828.76
743.195	2783.7
743.38	2738.65
743.565	2752.98
743.75	2656.73
743.935	2767.32
744.12	2699.73
744.305	2679.26
744.49	2736.6
744.675	2673.11
744.86	2681.3
745.045	2630.1
745.23	2453.98
745.415	2556.38
745.6	2615.77
745.785	2435.55
745.97	2615.77
746.155	2599.38
746.34	2556.38
746.525	2511.32
746.71	2537.95
746.895	2443.74
747.079	2496.99
747.264	2370.01
747.449	2478.55
747.634	2433.5
747.819	2415.07
748.003	2370.01
748.188	2370.01
748.373	2372.06
748.557	2281.95
748.742	2288.09
748.927	2277.85
749.111	2206.17
749.296	2232.8
749.481	2116.06
749.665	2265.57
749.85	2130.4
750.034	2204.13
750.219	2077.15
750.404	2183.65
750.588	2142.69
750.773	2048.48
750.957	2085.34
751.141	2128.35
751.326	2023.91
751.51	2138.59
751.695	2062.82
751.879	2116.06
752.064	2075.1
752.248	2056.67
752.432	2066.91
752.617	2140.64
752.801	1980.9
752.985	1989.09
753.17	2068.96
753.354	1941.99
753.538	1921.51
753.722	1962.47
753.907	1804.77
754.091	1843.68
754.275	1901.03
754.459	1862.12
754.643	1868.26
754.828	1987.04
755.012	1849.83
755.196	1692.13
755.38	1819.11
755.564	1792.48
755.748	1626.6
755.932	1763.81
756.116	1661.41
756.3	1808.87
756.484	1751.53
756.668	1694.18
756.852	1681.89
757.036	1761.77
757.22	1800.68
757.404	1638.89
757.588	1724.9
757.772	1665.51
757.956	1642.98
758.14	1729
758.323	1583.59
758.507	1561.06
758.691	1579.5
758.875	1516.01
759.059	1642.98
759.242	1573.35
759.426	1503.72
759.61	1583.59
759.794	1542.63
759.977	1491.43
760.161	1597.93
760.345	1536.49
760.528	1540.58
760.712	1583.59
760.895	1559.02
761.079	1528.3
761.263	1485.29
761.446	1483.24
761.63	1444.33
761.813	1434.09
761.997	1315.31
762.18	1378.79
762.364	1513.96
762.547	1425.9
762.731	1473
762.914	1462.76
763.098	1505.77
763.281	1483.24
763.464	1419.75
763.648	1372.65
763.831	1503.72
764.015	1343.98
764.198	1446.38
764.381	1382.89
764.564	1432.04
764.748	1337.84
764.931	1374.7
765.114	1319.4
765.297	1368.56
765.481	1364.46
765.664	1352.17
765.847	1343.98
766.03	1380.84
766.213	1231.34
766.397	1296.88
766.58	1325.55
766.763	1446.38
766.946	1294.83
767.129	1380.84
767.312	1262.06
767.495	1315.31
767.678	1245.68
767.861	1217.01
768.044	1300.97
768.227	1298.92
768.41	1280.49
768.593	1401.32
768.776	1343.98
768.959	1327.6
769.142	1313.26
769.324	1233.39
769.507	1300.97
769.69	1284.59
769.873	1202.67
770.056	1366.51
770.239	1241.58
770.421	1372.65
770.604	1229.29
770.787	1198.57
770.97	1178.09
771.152	1163.76
771.335	1176.05
771.518	1137.13
771.7	1278.44
771.883	1239.53
772.066	1108.46
772.248	1143.28
772.431	1233.39
772.613	1255.92
772.796	1161.71
772.978	1276.4
773.161	1233.39
773.343	1137.13
773.526	1153.52
773.708	1094.13
773.891	1149.42
774.073	1065.46
774.256	1057.26
774.438	1145.33
774.621	1139.18
774.803	1145.33
774.985	1040.88
775.168	1053.17
775.35	1042.93
775.532	1038.83
775.715	1063.41
775.897	1077.74
776.079	981.49
776.261	1057.26
776.444	1069.55
776.626	1055.22
776.808	1016.3
776.99	967.15
777.173	965.11
777.355	977.39
777.537	1032.69
777.719	946.67
777.901	1006.06
778.083	987.63
778.265	874.99
778.447	977.39
778.629	915.95
778.811	913.91
778.993	934.39
779.175	918
779.357	950.77
779.539	848.37
779.721	932.34
779.903	883.19
780.085	956.91
780.267	844.28
780.449	840.18
780.631	856.56
780.812	893.43
780.994	834.04
781.176	848.37
781.358	815.6
781.54	872.95
781.721	852.47
781.903	748.02
782.085	791.03
782.267	870.9
782.448	862.71
782.63	774.64
782.812	791.03
782.993	791.03
783.175	733.68
783.357	801.27
783.538	795.12
783.72	729.59
783.901	725.49
784.083	760.31
784.264	727.54
784.446	723.44
784.627	668.15
784.809	825.84
784.99	725.49
785.172	778.74
785.353	702.97
785.535	764.4
785.716	692.73
785.897	655.86
786.079	729.59
786.26	688.63
786.441	750.07
786.623	612.85
786.804	588.28
786.985	688.63
787.167	573.94
787.348	635.38
787.529	606.71
787.71	657.91
787.891	690.68
788.073	608.76
788.254	555.51
788.435	645.62
788.616	684.53
788.797	635.38
788.978	551.42
789.159	616.95
789.34	522.74
789.522	594.42
789.703	469.5
789.884	567.8
790.065	606.71
790.246	502.26
790.427	575.99
790.607	659.96
790.788	606.71
790.969	557.56
791.15	575.99
791.331	471.54
791.512	510.46
791.693	475.64
791.874	539.13
792.054	610.81
792.235	590.33
792.416	520.7
792.597	406.01
792.778	532.98
792.958	561.66
793.139	520.7
793.32	465.4
793.5	467.45
793.681	606.71
793.862	444.92
794.042	473.59
794.223	350.71
794.404	377.34
794.584	416.25
794.765	512.5
794.945	553.46
795.126	442.87
795.306	502.26
795.487	395.77
795.667	414.2
795.848	418.3
796.028	518.65
796.209	418.3
796.389	510.46
796.57	440.83
796.75	377.34
796.93	367.1
797.111	369.15
797.291	328.19
797.471	461.3
797.652	320
797.832	375.29
798.012	446.97
798.192	317.95
798.373	324.09
798.553	365.05
798.733	397.82
798.913	291.32
799.093	422.39
799.274	455.16
799.454	373.24
799.634	434.68
799.814	469.5
799.994	444.92
800.174	389.63
800.354	375.29
800.534	346.62
800.714	420.35
800.894	360.95
801.074	391.67
801.254	289.28
801.434	442.87
801.614	348.67
801.794	340.47
801.974	1354.22
802.154	301.56
802.334	371.19
802.514	233.98
802.693	289.28
802.873	395.77
803.053	434.68
803.233	313.85
803.413	363
803.592	324.09
803.772	340.47
803.952	381.43
804.131	279.04
804.311	342.52
804.491	403.96
804.67	344.57
804.85	363
805.03	258.56
805.209	363
805.389	305.66
805.568	297.47
805.748	281.08
805.928	330.23
806.107	360.95
806.287	338.43
806.466	348.67
806.646	303.61
806.825	322.04
807.004	279.04
807.184	369.15
807.363	346.62
807.543	260.6
807.722	248.32
807.901	371.19
808.081	303.61
808.26	201.21
808.439	285.18
808.619	317.95
808.798	272.89
808.977	281.08
809.156	334.33
809.336	225.79
809.515	336.38
809.694	215.55
809.873	225.79
810.052	262.65
810.231	324.09
810.411	215.55
810.59	317.95
810.769	215.55
810.948	309.76
811.127	141.82
811.306	223.74
811.485	274.94
811.664	358.91
811.843	272.89
812.022	229.88
812.201	250.36
812.38	197.12
812.559	197.12
812.737	199.16
812.916	215.55
813.095	184.83
813.274	260.6
813.453	293.37
813.632	236.03
813.811	225.79
813.989	223.74
814.168	254.46
814.347	195.07
814.526	266.75
814.704	287.23
814.883	246.27
815.062	166.4
815.24	246.27
815.419	127.49
815.598	190.97
815.776	129.53
815.955	174.59
816.133	184.83
816.312	240.12
816.49	276.99
816.669	229.88
816.847	182.78
817.026	156.16
817.204	272.89
817.383	193.02
817.561	125.44
817.74	238.08
817.918	203.26
818.097	184.83
818.275	223.74
818.453	219.64
818.632	248.32
818.81	236.03
818.988	195.07
819.167	158.21
819.345	225.79
819.523	150.01
819.701	133.63
819.879	190.97
820.058	90.62
820.236	121.34
820.414	135.68
820.592	213.5
820.77	174.59
820.948	129.53
821.127	96.77
821.305	215.55
821.483	166.4
821.661	215.55
821.839	176.64
822.017	131.58
822.195	172.54
822.373	170.49
822.551	147.97
822.729	205.31
822.907	147.97
823.085	209.4
823.262	102.91
823.44	121.34
823.618	141.82
823.796	205.31
823.974	141.82
824.152	55.81
824.329	111.1
824.507	162.3
824.685	135.68
824.863	111.1
825.04	76.29
825.218	178.69
825.396	109.05
825.574	76.29
825.751	168.45
825.929	152.06
826.107	109.05
826.284	117.25
826.462	119.29
826.639	51.71
826.817	119.29
826.994	158.21
827.172	131.58
827.349	270.84
827.527	186.88
827.704	150.01
827.882	127.49
828.059	182.78
828.237	92.67
828.414	125.44
828.591	31.23
828.769	68.09
828.946	125.44
829.124	141.82
829.301	182.78
829.478	98.81
829.655	154.11
829.833	143.87
830.01	92.67
830.187	170.49
830.364	131.58
830.542	51.71
830.719	180.73
830.896	145.92
831.073	84.48
831.25	133.63
831.427	92.67
831.604	180.73
831.782	80.38
831.959	166.4
832.136	137.73
832.313	115.2
832.49	74.24
832.667	211.45
832.844	12.8
833.021	125.44
833.198	145.92
833.374	88.57
833.551	162.3
833.728	154.11
833.905	137.73
834.082	68.09
834.259	107.01
834.436	166.4
834.612	31.23
834.789	154.11
834.966	199.16
835.143	178.69
835.319	76.29
835.496	141.82
835.673	104.96
835.85	113.15
836.026	96.77
836.203	201.21
836.38	109.05
836.556	84.48
836.733	57.86
836.909	180.73
837.086	90.62
837.262	66.05
837.439	66.05
837.616	39.42
837.792	29.18
837.968	137.73
838.145	-9.73
838.321	121.34
838.498	119.29
838.674	92.67
838.851	123.39
839.027	92.67
839.203	123.39
839.38	51.71
839.556	49.66
839.732	92.67
839.909	66.05
840.085	68.09
840.261	-26.11
840.437	43.52
840.614	88.57
840.79	121.34
840.966	113.15
841.142	131.58
841.318	78.33
841.494	170.49
841.671	127.49
841.847	29.18
842.023	-24.06
842.199	182.78
842.375	76.29
842.551	53.76
842.727	51.71
842.903	119.29
843.079	39.42
843.255	121.34
843.431	64
843.607	82.43
843.783	-30.21
843.959	70.14
844.134	18.94
844.31	78.33
844.486	18.94
844.662	59.9
844.838	125.44
845.013	86.53
845.189	76.29
845.365	76.29
845.541	164.35
845.716	59.9
845.892	86.53
846.068	127.49
846.244	64
846.419	135.68
846.595	-9.73
846.77	80.38
846.946	25.09
847.122	59.9
847.297	117.25
847.473	143.87
847.648	-13.82
847.824	102.91
847.999	37.38
848.175	-19.97
848.35	72.19
848.526	147.97
848.701	111.1
848.876	57.86
849.052	121.34
849.227	59.9
849.403	121.34
849.578	102.91
849.753	107.01
849.929	59.9
850.104	100.86
850.279	45.57
850.454	43.52
850.63	117.25
850.805	100.86
850.98	29.18
851.155	107.01
851.33	127.49
851.505	23.04
851.681	145.92
851.856	18.94
852.031	84.48
852.206	53.76
852.381	92.67
852.556	61.95
852.731	68.09
852.906	88.57
853.081	43.52
853.256	162.3
853.431	86.53
853.606	27.14
853.781	18.94
853.956	33.28
854.131	39.42
854.305	-36.35
854.48	68.09
854.655	78.33
854.83	37.38
855.005	158.21
855.18	14.85
855.354	68.09
855.529	57.86
855.704	16.9
855.879	49.66
856.053	-40.45
856.228	20.99
856.403	-32.26
856.577	86.53
856.752	31.23
856.926	82.43
857.101	68.09
857.276	12.8
857.45	-17.92
857.625	96.77
857.799	78.33
857.974	39.42
858.148	4.61
858.323	72.19
858.497	47.62
858.672	35.33
858.846	37.38
859.02	25.09
859.195	-42.5
859.369	59.9
859.543	35.33
859.718	-24.06
859.892	96.77
860.066	41.47
860.241	-38.4
860.415	49.66
860.589	25.09
860.763	57.86
860.938	43.52
861.112	80.38
861.286	70.14
861.46	57.86
861.634	-56.83
861.808	82.43
861.982	43.52
862.157	-11.78
862.331	0.51
862.505	43.52
862.679	-38.4
862.853	18.94
863.027	113.15
863.201	107.01
863.375	-9.73
863.549	16.9
863.722	33.28
863.896	82.43
864.07	18.94
864.244	131.58
864.418	68.09
864.592	53.76
864.766	45.57
864.939	8.7
865.113	86.53
865.287	158.21
865.461	12.8
865.634	25.09
865.808	31.23
865.982	-24.06
866.156	14.85
866.329	37.38
866.503	104.96
866.676	61.95
866.85	92.67
867.024	29.18
867.197	64
867.371	86.53
867.544	-15.87
867.718	43.52
867.891	96.77
868.065	-34.3
868.238	6.66
868.412	29.18
868.585	31.23
868.759	31.23
868.932	-11.78
869.105	-83.45
869.279	33.28
869.452	-17.92
869.625	29.18
869.799	4.61
869.972	-11.78
870.145	6.66
870.319	-9.73
870.492	59.9
870.665	37.38
870.838	-40.45
871.011	-38.4
871.185	47.62
871.358	4.61
871.531	76.29
871.704	-28.16
871.877	-30.21
872.05	29.18
872.223	4.61
872.396	-1.54
872.569	51.71
872.742	-58.88
872.915	92.67
873.088	-44.54
873.261	-91.65
873.434	98.81
873.607	6.66
873.78	98.81
873.953	49.66
874.126	-11.78
874.299	16.9
874.471	16.9
874.644	-9.73
874.817	37.38
874.99	104.96
875.163	12.8
875.335	2.56
875.508	74.24
875.681	41.47
875.853	20.99
876.026	18.94
876.199	27.14
876.371	102.91
876.544	10.75
876.717	55.81
876.889	-26.11
877.062	8.7
877.234	-52.74
877.407	6.66
877.579	-32.26
877.752	39.42
877.924	23.04
878.097	88.57
878.269	27.14
878.442	64
878.614	-58.88
878.786	35.33
878.959	70.14
879.131	16.9
879.303	-65.02
879.476	-30.21
879.648	-11.78
879.82	0.51
879.993	4.61
880.165	4.61
880.337	-32.26
880.509	68.09
880.681	-54.78
880.854	39.42
881.026	-9.73
881.198	145.92
881.37	-9.73
881.542	25.09
881.714	-44.54
881.886	-44.54
882.058	37.38
882.23	-15.87
882.402	6.66
882.574	57.86
882.746	-32.26
882.918	115.2
883.09	8.7
883.262	59.9
883.434	10.75
883.606	39.42
883.778	51.71
883.95	68.09
884.122	-24.06
884.293	16.9
884.465	127.49
884.637	70.14
884.809	-11.78
884.98	-1.54
885.152	25.09
885.324	72.19
885.496	16.9
885.667	-19.97
885.839	-7.68
886.011	86.53
886.182	25.09
886.354	-48.64
886.525	16.9
886.697	-11.78
886.869	-56.83
887.04	-71.17
887.212	31.23
887.383	90.62
887.555	162.3
887.726	-11.78
887.897	-19.97
888.069	-24.06
888.24	84.48
888.412	41.47
888.583	39.42
888.754	35.33
888.926	-44.54
889.097	45.57
889.268	-13.82
889.44	49.66
889.611	33.28
889.782	-7.68
889.953	-40.45
890.125	141.82
890.296	-48.64
890.467	12.8
890.638	-17.92
890.809	31.23
890.98	29.18
891.151	51.71
891.323	53.76
891.494	-24.06
891.665	4.61
891.836	-9.73
892.007	51.71
892.178	49.66
892.349	53.76
892.52	-58.88
892.691	-48.64
892.862	64
893.032	-46.59
893.203	-5.63
893.374	-38.4
893.545	-5.63
893.716	-56.83
893.887	-17.92
894.057	18.94
894.228	-36.35
894.399	31.23
894.57	123.39
894.74	82.43
894.911	-5.63
895.082	-9.73
895.253	-5.63
895.423	-1.54
895.594	94.72
895.764	61.95
895.935	20.99
896.106	29.18
896.276	-15.87
896.447	23.04
896.617	14.85
896.788	-30.21
896.958	31.23
897.129	-15.87
897.299	18.94
897.47	59.9
897.64	80.38
897.81	-75.26
897.981	2.56
898.151	-42.5
898.322	27.14
898.492	14.85
898.662	-34.3
898.832	-9.73
899.003	-69.12
899.173	-1.54
899.343	-5.63
899.513	25.09
