Data from USB4F104151__60__12-12-26-404.txt Node

Date: Fri Mar 14 12:12:26 EDT 2025
User: louis
Spectrometer: USB4F10415
Trigger mode: 4
Integration Time (sec): 5.000000E-2
Scans to average: 1
Electric dark correction enabled: true
Nonlinearity correction enabled: false
Boxcar width: 0
XAxis mode: Wavelengths
Number of Pixels in Spectrum: 3648
>>>>>Begin Spectral Data<<<<<
178.204	-239.95
178.424	-239.95
178.644	-239.95
178.864	-254.29
179.084	-217.43
179.304	3.75
179.524	-26.96
179.744	-37.2
179.964	71.34
180.184	16.04
180.404	-63.83
180.624	-41.3
180.844	67.24
181.064	-16.73
181.283	-2.39
181.503	-2.39
181.723	32.43
181.943	-84.31
182.163	173.74
182.383	5.8
182.602	18.09
182.822	89.77
183.042	5.8
183.262	-14.68
183.482	24.23
183.701	118.44
183.921	5.8
184.141	3.75
184.361	7.85
184.58	65.19
184.8	59.05
185.02	81.58
185.239	102.06
185.459	-14.68
185.679	5.8
185.898	5.8
186.118	5.8
186.338	57
186.557	11.95
186.777	-20.82
186.997	-24.92
187.216	-10.58
187.436	108.2
187.655	28.33
187.875	34.47
188.095	-43.35
188.314	130.73
188.534	79.53
188.753	-20.82
188.973	46.76
189.192	81.58
189.412	-10.58
189.631	-6.49
189.851	32.43
190.07	63.15
190.29	9.9
190.509	24.23
190.729	-8.53
190.948	100.01
191.168	190.12
191.387	65.19
191.607	-8.53
191.826	16.04
192.045	48.81
192.265	26.28
192.484	77.48
192.704	13.99
192.923	-16.73
193.142	128.68
193.362	67.24
193.581	108.2
193.8	36.52
194.02	30.38
194.239	-10.58
194.458	104.11
194.678	46.76
194.897	65.19
195.116	40.62
195.335	57
195.555	69.29
195.774	-0.34
195.993	48.81
196.212	73.39
196.432	5.8
196.651	38.57
196.87	-18.77
197.089	149.16
197.308	16.04
197.528	132.78
197.747	42.67
197.966	22.19
198.185	147.11
198.404	69.29
198.623	-2.39
198.842	114.34
199.062	-18.77
199.281	52.91
199.5	36.52
199.719	46.76
199.938	100.01
200.157	73.39
200.376	50.86
200.595	110.25
200.814	7.85
201.033	-10.58
201.252	44.71
201.471	9.9
201.69	77.48
201.909	-8.53
202.128	61.1
202.347	63.15
202.566	11.95
202.785	20.14
203.004	22.19
203.223	83.63
203.442	40.62
203.661	-31.06
203.879	3.75
204.098	11.95
204.317	-24.92
204.536	112.3
204.755	3.75
204.974	69.29
205.193	71.34
205.411	61.1
205.63	20.14
205.849	16.04
206.068	5.8
206.287	57
206.505	-59.73
206.724	34.47
206.943	3.75
207.162	30.38
207.381	42.67
207.599	44.71
207.818	36.52
208.037	-2.39
208.255	102.06
208.474	-8.53
208.693	67.24
208.911	34.47
209.13	30.38
209.349	36.52
209.567	40.62
209.786	83.63
210.005	65.19
210.223	71.34
210.442	-12.63
210.661	-43.35
210.879	-12.63
211.098	-39.25
211.316	89.77
211.535	34.47
211.753	89.77
211.972	102.06
212.191	46.76
212.409	44.71
212.628	11.95
212.846	-0.34
213.065	102.06
213.283	140.97
213.502	40.62
213.72	-4.44
213.938	36.52
214.157	5.8
214.375	42.67
214.594	-45.4
214.812	28.33
215.031	34.47
215.249	59.05
215.467	75.43
215.686	20.14
215.904	77.48
216.122	-31.06
216.341	87.72
216.559	57
216.778	16.04
216.996	38.57
217.214	48.81
217.432	-72.02
217.651	-63.83
217.869	52.91
218.087	-16.73
218.306	34.47
218.524	75.43
218.742	75.43
218.96	114.34
219.179	1.71
219.397	11.95
219.615	83.63
219.833	63.15
220.051	46.76
220.27	93.87
220.488	61.1
220.706	69.29
220.924	16.04
221.142	3.75
221.36	57
221.578	44.71
221.796	9.9
222.015	3.75
222.233	-4.44
222.451	87.72
222.669	7.85
222.887	71.34
223.105	-37.2
223.323	71.34
223.541	54.95
223.759	59.05
223.977	89.77
224.195	102.06
224.413	20.14
224.631	122.54
224.849	65.19
225.067	73.39
225.285	-6.49
225.503	59.05
225.721	-53.59
225.939	-4.44
226.157	18.09
226.375	173.74
226.592	-12.63
226.81	42.67
227.028	95.91
227.246	57
227.464	38.57
227.682	-10.58
227.9	79.53
228.117	11.95
228.335	1.71
228.553	-12.63
228.771	-2.39
228.989	-10.58
229.206	36.52
229.424	-18.77
229.642	-4.44
229.86	-20.82
230.077	83.63
230.295	-16.73
230.513	77.48
230.731	81.58
230.948	61.1
231.166	42.67
231.384	-0.34
231.601	77.48
231.819	63.15
232.037	73.39
232.254	5.8
232.472	-33.11
232.689	52.91
232.907	112.3
233.125	112.3
233.342	79.53
233.56	46.76
233.777	136.87
233.995	32.43
234.213	124.58
234.43	50.86
234.648	28.33
234.865	67.24
235.083	59.05
235.3	16.04
235.518	-12.63
235.735	9.9
235.953	16.04
236.17	7.85
236.388	24.23
236.605	-6.49
236.822	44.71
237.04	61.1
237.257	52.91
237.475	26.28
237.692	36.52
237.909	3.75
238.127	-22.87
238.344	79.53
238.562	28.33
238.779	3.75
238.996	-106.84
239.214	75.43
239.431	38.57
239.648	81.58
239.865	59.05
240.083	67.24
240.3	-0.34
240.517	5.8
240.735	44.71
240.952	124.58
241.169	48.81
241.386	67.24
241.603	50.86
241.821	7.85
242.038	104.11
242.255	46.76
242.472	7.85
242.689	69.29
242.907	57
243.124	54.95
243.341	-8.53
243.558	-2.39
243.775	-96.6
243.992	-26.96
244.209	22.19
244.426	108.2
244.643	24.23
244.86	-10.58
245.078	97.96
245.295	79.53
245.512	38.57
245.729	-8.53
245.946	20.14
246.163	54.95
246.38	26.28
246.597	44.71
246.814	48.81
247.031	9.9
247.248	-14.68
247.464	11.95
247.681	36.52
247.898	30.38
248.115	87.72
248.332	5.8
248.549	46.76
248.766	75.43
248.983	87.72
249.2	44.71
249.417	114.34
249.633	3.75
249.85	13.99
250.067	-6.49
250.284	-8.53
250.501	42.67
250.717	128.68
250.934	-12.63
251.151	22.19
251.368	44.71
251.585	81.58
251.801	40.62
252.018	1.71
252.235	40.62
252.451	30.38
252.668	28.33
252.885	102.06
253.102	44.71
253.318	-69.97
253.535	16.04
253.752	-0.34
253.968	46.76
254.185	-94.55
254.401	48.81
254.618	63.15
254.835	-20.82
255.051	63.15
255.268	110.25
255.484	138.92
255.701	48.81
255.917	75.43
256.134	16.04
256.351	95.91
256.567	-43.35
256.784	67.24
257	-45.4
257.217	67.24
257.433	71.34
257.65	30.38
257.866	122.54
258.082	-18.77
258.299	5.8
258.515	-67.92
258.732	-2.39
258.948	-57.68
259.165	89.77
259.381	102.06
259.597	-16.73
259.814	-47.44
260.03	-20.82
260.246	136.87
260.463	93.87
260.679	171.69
260.895	71.34
261.112	28.33
261.328	-43.35
261.544	13.99
261.761	85.67
261.977	24.23
262.193	-0.34
262.409	165.54
262.626	91.82
262.842	134.82
263.058	-6.49
263.274	46.76
263.49	48.81
263.707	87.72
263.923	67.24
264.139	1.71
264.355	32.43
264.571	153.26
264.787	34.47
265.004	89.77
265.22	24.23
265.436	11.95
265.652	-47.44
265.868	30.38
266.084	-18.77
266.3	26.28
266.516	-31.06
266.732	61.1
266.948	5.8
267.164	50.86
267.38	30.38
267.596	75.43
267.812	18.09
268.028	36.52
268.244	44.71
268.46	40.62
268.676	-6.49
268.892	83.63
269.108	-2.39
269.324	46.76
269.54	1.71
269.756	81.58
269.972	-39.25
270.188	3.75
270.403	61.1
270.619	73.39
270.835	87.72
271.051	32.43
271.267	7.85
271.483	110.25
271.698	18.09
271.914	32.43
272.13	-0.34
272.346	18.09
272.562	28.33
272.777	106.15
272.993	83.63
273.209	26.28
273.425	50.86
273.64	7.85
273.856	-24.92
274.072	28.33
274.287	9.9
274.503	18.09
274.719	22.19
274.934	71.34
275.15	54.95
275.366	77.48
275.581	-6.49
275.797	61.1
276.012	-37.2
276.228	13.99
276.444	-18.77
276.659	106.15
276.875	3.75
277.09	-16.73
277.306	-16.73
277.521	46.76
277.737	-43.35
277.952	59.05
278.168	18.09
278.383	67.24
278.599	13.99
278.814	42.67
279.03	67.24
279.245	122.54
279.461	-14.68
279.676	42.67
279.892	-8.53
280.107	16.04
280.322	-51.54
280.538	20.14
280.753	9.9
280.969	52.91
281.184	40.62
281.399	57
281.615	20.14
281.83	26.28
282.045	-63.83
282.26	16.04
282.476	48.81
282.691	93.87
282.906	-14.68
283.122	48.81
283.337	57
283.552	28.33
283.767	36.52
283.983	50.86
284.198	32.43
284.413	102.06
284.628	-8.53
284.843	38.57
285.058	44.71
285.274	36.52
285.489	22.19
285.704	120.49
285.919	1.71
286.134	59.05
286.349	52.91
286.564	-14.68
286.779	110.25
286.995	9.9
287.21	-16.73
287.425	3.75
287.64	77.48
287.855	30.38
288.07	-18.77
288.285	61.1
288.5	97.96
288.715	36.52
288.93	-31.06
289.145	18.09
289.36	73.39
289.575	-41.3
289.79	126.63
290.004	54.95
290.219	54.95
290.434	75.43
290.649	-53.59
290.864	1.71
291.079	18.09
291.294	42.67
291.509	61.1
291.724	11.95
291.938	-72.02
292.153	75.43
292.368	28.33
292.583	50.86
292.798	-10.58
293.012	77.48
293.227	114.34
293.442	34.47
293.657	126.63
293.871	100.01
294.086	57
294.301	130.73
294.516	120.49
294.73	-10.58
294.945	-24.92
295.16	3.75
295.374	61.1
295.589	-4.44
295.804	11.95
296.018	22.19
296.233	138.92
296.447	67.24
296.662	-35.16
296.877	95.91
297.091	155.3
297.306	-2.39
297.52	18.09
297.735	28.33
297.949	153.26
298.164	112.3
298.378	13.99
298.593	48.81
298.807	22.19
299.022	122.54
299.236	54.95
299.451	77.48
299.665	13.99
299.88	7.85
300.094	138.92
300.309	69.29
300.523	65.19
300.737	3.75
300.952	67.24
301.166	13.99
301.381	16.04
301.595	18.09
301.809	36.52
302.024	-6.49
302.238	7.85
302.452	71.34
302.667	-63.83
302.881	104.11
303.095	42.67
303.309	13.99
303.524	-6.49
303.738	50.86
303.952	-20.82
304.166	18.09
304.381	-65.88
304.595	110.25
304.809	30.38
305.023	36.52
305.237	48.81
305.452	40.62
305.666	73.39
305.88	65.19
306.094	20.14
306.308	77.48
306.522	46.76
306.736	95.91
306.95	54.95
307.164	73.39
307.379	-59.73
307.593	108.2
307.807	65.19
308.021	40.62
308.235	71.34
308.449	-43.35
308.663	52.91
308.877	102.06
309.091	13.99
309.305	77.48
309.519	-55.64
309.733	38.57
309.947	30.38
310.161	89.77
310.374	159.4
310.588	77.48
310.802	-43.35
311.016	28.33
311.23	-2.39
311.444	16.04
311.658	36.52
311.872	112.3
312.085	71.34
312.299	151.21
312.513	40.62
312.727	-0.34
312.941	38.57
313.154	75.43
313.368	30.38
313.582	77.48
313.796	67.24
314.009	40.62
314.223	-35.16
314.437	50.86
314.651	83.63
314.864	20.14
315.078	46.76
315.292	-14.68
315.505	-51.54
315.719	-18.77
315.933	50.86
316.146	28.33
316.36	22.19
316.573	73.39
316.787	104.11
317.001	40.62
317.214	44.71
317.428	38.57
317.641	-2.39
317.855	108.2
318.068	16.04
318.282	30.38
318.495	73.39
318.709	120.49
318.922	36.52
319.136	57
319.349	26.28
319.563	34.47
319.776	59.05
319.99	-26.96
320.203	54.95
320.417	50.86
320.63	116.39
320.843	161.45
321.057	69.29
321.27	16.04
321.483	28.33
321.697	44.71
321.91	3.75
322.124	69.29
322.337	57
322.55	42.67
322.763	87.72
322.977	34.47
323.19	59.05
323.403	16.04
323.617	5.8
323.83	63.15
324.043	63.15
324.256	20.14
324.469	-2.39
324.683	104.11
324.896	57
325.109	11.95
325.322	59.05
325.535	18.09
325.748	-33.11
325.962	-16.73
326.175	16.04
326.388	87.72
326.601	38.57
326.814	-4.44
327.027	91.82
327.24	118.44
327.453	5.8
327.666	128.68
327.879	22.19
328.092	83.63
328.305	-29.01
328.518	108.2
328.731	81.58
328.944	48.81
329.157	-20.82
329.37	48.81
329.583	81.58
329.796	126.63
330.009	-16.73
330.222	83.63
330.435	44.71
330.648	40.62
330.861	26.28
331.073	52.91
331.286	48.81
331.499	112.3
331.712	-8.53
331.925	54.95
332.138	87.72
332.35	87.72
332.563	-33.11
332.776	140.97
332.989	22.19
333.202	-24.92
333.414	16.04
333.627	36.52
333.84	91.82
334.053	34.47
334.265	-18.77
334.478	63.15
334.691	134.82
334.903	-39.25
335.116	11.95
335.329	63.15
335.541	16.04
335.754	138.92
335.966	1.71
336.179	9.9
336.392	-55.64
336.604	57
336.817	89.77
337.029	13.99
337.242	28.33
337.454	26.28
337.667	71.34
337.88	163.5
338.092	63.15
338.305	95.91
338.517	-22.87
338.729	85.67
338.942	118.44
339.154	18.09
339.367	20.14
339.579	40.62
339.792	50.86
340.004	44.71
340.217	28.33
340.429	-0.34
340.641	22.19
340.854	59.05
341.066	-24.92
341.278	73.39
341.491	73.39
341.703	44.71
341.915	-14.68
342.128	40.62
342.34	85.67
342.552	44.71
342.764	59.05
342.977	-8.53
343.189	52.91
343.401	30.38
343.613	16.04
343.826	32.43
344.038	7.85
344.25	52.91
344.462	38.57
344.674	22.19
344.886	36.52
345.099	34.47
345.311	85.67
345.523	11.95
345.735	-31.06
345.947	16.04
346.159	87.72
346.371	65.19
346.583	9.9
346.795	145.06
347.007	24.23
347.219	-2.39
347.431	5.8
347.643	93.87
347.855	65.19
348.067	38.57
348.279	-76.12
348.491	7.85
348.703	63.15
348.915	-8.53
349.127	-6.49
349.339	30.38
349.551	59.05
349.763	134.82
349.975	36.52
350.187	36.52
350.399	118.44
350.61	114.34
350.822	91.82
351.034	89.77
351.246	46.76
351.458	-24.92
351.669	-16.73
351.881	65.19
352.093	77.48
352.305	134.82
352.517	59.05
352.728	91.82
352.94	1.71
353.152	42.67
353.363	-22.87
353.575	54.95
353.787	57
353.999	79.53
354.21	93.87
354.422	-29.01
354.633	87.72
354.845	93.87
355.057	-22.87
355.268	-41.3
355.48	112.3
355.692	36.52
355.903	34.47
356.115	5.8
356.326	-76.12
356.538	95.91
356.749	93.87
356.961	81.58
357.172	54.95
357.384	44.71
357.595	179.88
357.807	3.75
358.018	-31.06
358.23	28.33
358.441	108.2
358.653	38.57
358.864	-26.96
359.075	3.75
359.287	149.16
359.498	165.54
359.709	91.82
359.921	-31.06
360.132	30.38
360.344	52.91
360.555	-20.82
360.766	75.43
360.977	63.15
361.189	118.44
361.4	-26.96
361.611	79.53
361.823	73.39
362.034	28.33
362.245	38.57
362.456	30.38
362.667	89.77
362.879	-31.06
363.09	44.71
363.301	44.71
363.512	46.76
363.723	30.38
363.935	26.28
364.146	95.91
364.357	85.67
364.568	54.95
364.779	-8.53
364.99	110.25
365.201	26.28
365.412	104.11
365.623	7.85
365.834	110.25
366.045	24.23
366.256	79.53
366.467	40.62
366.678	44.71
366.889	-47.44
367.1	54.95
367.311	28.33
367.522	77.48
367.733	83.63
367.944	104.11
368.155	61.1
368.366	5.8
368.577	108.2
368.788	140.97
368.999	52.91
369.209	71.34
369.42	177.83
369.631	120.49
369.842	52.91
370.053	-20.82
370.264	89.77
370.474	1.71
370.685	50.86
370.896	83.63
371.107	132.78
371.317	24.23
371.528	46.76
371.739	102.06
371.95	67.24
372.16	124.58
372.371	-14.68
372.582	-0.34
372.792	83.63
373.003	30.38
373.214	30.38
373.424	138.92
373.635	48.81
373.846	136.87
374.056	18.09
374.267	42.67
374.477	18.09
374.688	30.38
374.898	69.29
375.109	65.19
375.319	118.44
375.53	89.77
375.74	77.48
375.951	44.71
376.161	42.67
376.372	114.34
376.582	32.43
376.793	97.96
377.003	85.67
377.214	16.04
377.424	48.81
377.635	44.71
377.845	22.19
378.055	67.24
378.266	34.47
378.476	46.76
378.686	26.28
378.897	57
379.107	87.72
379.317	26.28
379.528	-51.54
379.738	79.53
379.948	-51.54
380.158	128.68
380.369	-37.2
380.579	89.77
380.789	100.01
380.999	54.95
381.21	59.05
381.42	151.21
381.63	93.87
381.84	112.3
382.05	77.48
382.261	138.92
382.471	-12.63
382.681	116.39
382.891	200.36
383.101	61.1
383.311	61.1
383.521	-39.25
383.731	112.3
383.941	69.29
384.151	7.85
384.361	44.71
384.571	42.67
384.781	36.52
384.991	81.58
385.201	116.39
385.411	34.47
385.621	110.25
385.831	89.77
386.041	38.57
386.251	32.43
386.461	95.91
386.671	18.09
386.881	54.95
387.091	75.43
387.301	118.44
387.511	128.68
387.72	89.77
387.93	30.38
388.14	85.67
388.35	5.8
388.56	134.82
388.769	97.96
388.979	87.72
389.189	38.57
389.399	59.05
389.609	59.05
389.818	34.47
390.028	81.58
390.238	95.91
390.447	26.28
390.657	63.15
390.867	-0.34
391.076	1.71
391.286	130.73
391.496	102.06
391.705	-10.58
391.915	108.2
392.125	42.67
392.334	57
392.544	36.52
392.753	36.52
392.963	-2.39
393.172	38.57
393.382	-2.39
393.591	79.53
393.801	-12.63
394.01	155.3
394.22	128.68
394.429	42.67
394.639	26.28
394.848	143.02
395.058	108.2
395.267	59.05
395.477	100.01
395.686	161.45
395.895	147.11
396.105	169.64
396.314	161.45
396.524	75.43
396.733	112.3
396.942	163.5
397.152	38.57
397.361	183.98
397.57	171.69
397.78	83.63
397.989	38.57
398.198	122.54
398.407	85.67
398.617	132.78
398.826	140.97
399.035	65.19
399.244	143.02
399.453	120.49
399.663	147.11
399.872	140.97
400.081	73.39
400.29	134.82
400.499	44.71
400.708	159.4
400.917	28.33
401.127	110.25
401.336	102.06
401.545	220.84
401.754	181.93
401.963	132.78
402.172	124.58
402.381	67.24
402.59	149.16
402.799	126.63
403.008	200.36
403.217	181.93
403.426	100.01
403.635	87.72
403.844	114.34
404.053	118.44
404.262	155.3
404.471	257.7
404.68	181.93
404.888	186.02
405.097	136.87
405.306	153.26
405.515	192.17
405.724	138.92
405.933	247.46
406.142	200.36
406.35	249.51
406.559	202.41
406.768	220.84
406.977	251.56
407.185	251.56
407.394	249.51
407.603	261.8
407.812	212.65
408.02	204.46
408.229	235.18
408.438	267.94
408.646	198.31
408.855	284.33
409.064	310.95
409.272	321.19
409.481	265.89
409.69	300.71
409.898	267.94
410.107	374.44
410.315	411.3
410.524	313
410.733	444.07
410.941	356.01
411.15	462.5
411.358	401.06
411.567	446.12
411.775	429.73
411.984	439.97
412.192	480.93
412.401	433.83
412.609	468.64
412.818	595.62
413.026	595.62
413.234	485.03
413.443	599.71
413.651	593.57
413.86	634.53
414.068	597.67
414.276	710.3
414.485	736.93
414.693	743.07
414.901	765.6
415.11	732.83
415.318	775.84
415.526	763.55
415.734	923.29
415.943	859.81
416.151	933.53
416.359	904.86
416.567	857.76
416.776	1015.45
416.984	1083.03
417.192	1121.95
417.4	1164.95
417.608	1048.22
417.817	1074.84
418.025	1238.68
418.233	1281.69
418.441	1212.06
418.649	1283.74
418.857	1425.04
419.065	1466
419.273	1361.56
419.481	1519.25
419.689	1517.2
419.897	1627.79
420.105	1674.9
420.313	1785.49
420.521	1789.58
420.729	1836.69
420.937	1738.38
421.145	1928.85
421.353	2002.57
421.561	2152.07
421.769	2143.88
421.977	2137.74
422.185	2164.36
422.393	2315.91
422.601	2389.64
422.809	2449.03
423.017	2533
423.224	2559.62
423.432	2807.42
423.64	2758.27
423.848	2975.36
424.056	2952.83
424.263	2975.36
424.471	3081.85
424.679	3110.52
424.887	3280.5
425.094	3343.99
425.302	3454.58
425.51	3456.63
425.718	3563.12
425.925	3624.56
426.133	3812.98
426.341	4075.12
426.548	4195.95
426.756	4216.43
426.964	4296.3
427.171	4636.26
427.379	4474.47
427.586	4623.97
427.794	4669.03
428.001	4908.64
428.209	5178.97
428.417	5103.2
428.624	5480.02
428.832	5488.21
429.039	5426.78
429.247	5381.72
429.454	5979.73
429.662	6434.38
429.869	5762.64
430.076	6434.38
430.284	6250.06
430.491	6456.9
430.699	6807.11
430.906	6852.16
431.114	6821.44
431.321	7233.08
431.528	7327.29
431.736	7769.65
431.943	7951.92
432.15	7804.47
432.358	7902.77
432.565	8431.15
432.772	8472.11
432.979	8840.74
433.187	8875.56
433.394	8891.94
433.601	9360.92
433.808	9606.68
434.016	9379.36
434.223	9938.45
434.43	10536.46
434.637	10090
434.844	11062.79
435.052	11214.34
435.259	10948.1
435.466	11267.58
435.673	10939.91
435.88	11552.25
436.087	12283.38
436.294	12154.35
436.501	12062.19
436.708	12148.21
436.915	12459.5
437.122	13157.86
437.329	12948.97
437.537	13610.46
437.743	13659.61
437.95	13667.8
438.157	14552.52
438.364	14429.65
438.571	14663.11
438.778	14878.15
438.985	16180.66
439.192	15797.69
439.399	15865.27
439.606	15441.34
439.813	16350.64
440.02	17601.95
440.227	17370.53
440.433	16694.7
440.64	17503.65
440.847	17540.51
441.054	17784.22
441.261	19000.71
441.467	18996.62
441.674	19060.1
441.881	19879.29
442.088	19604.86
442.294	19549.57
442.501	20145.53
442.708	20557.17
442.914	21378.4
443.121	22277.46
443.328	21646.69
443.534	22947.15
443.741	22158.68
443.948	21835.1
444.154	23512.39
444.361	23223.62
444.568	23233.86
444.774	23665.99
444.981	23881.02
445.187	24356.15
445.394	25492.77
445.6	25091.37
445.807	27464.97
446.013	26473.75
446.22	26703.12
446.426	28130.56
446.633	27847.94
446.839	28953.84
447.046	27815.17
447.252	29318.38
447.459	29285.61
447.665	29271.28
447.871	30610.65
448.078	31890.63
448.284	30428.38
448.491	31116.5
448.697	32175.3
448.903	32584.89
449.11	32767.16
449.316	32410.81
449.522	32918.71
449.728	33258.67
449.935	34073.76
450.141	34206.88
450.347	34577.56
450.553	33340.59
450.76	34061.47
450.966	34940.05
451.172	34469.02
451.378	35916.93
451.584	34602.14
451.791	35392.65
451.997	35488.91
452.203	35835.02
452.409	35873.93
452.615	35882.12
452.821	34645.15
453.027	34153.63
453.233	35640.46
453.44	34155.68
453.646	35064.98
453.852	35042.45
454.058	35894.41
454.264	34165.92
454.47	34690.2
454.676	34163.87
454.882	35087.51
455.088	32326.85
455.294	32736.44
455.5	33037.49
455.705	33275.05
455.911	32509.11
456.117	31472.84
456.323	31046.86
456.529	29097.2
456.735	30641.37
456.941	29768.93
457.147	29498.6
457.352	28345.59
457.558	27708.68
457.764	28232.96
457.97	27505.93
458.176	27014.41
458.381	26897.68
458.587	25527.59
458.793	25494.82
458.999	24044.86
459.204	26074.4
459.41	25113.9
459.616	23227.72
459.821	23510.34
460.027	23502.15
460.233	22975.82
460.438	21865.82
460.644	22058.33
460.85	21073.26
461.055	20616.56
461.261	20671.86
461.466	19099.02
461.672	18408.85
461.878	19694.97
462.083	18441.62
462.289	18025.88
462.494	17757.6
462.7	16995.75
462.905	16485.81
463.111	17376.67
463.316	17567.13
463.522	16655.79
463.727	16788.91
463.932	16795.05
464.138	16399.79
464.343	16680.36
464.549	16334.26
464.754	16487.86
464.959	16186.8
465.165	16119.22
465.37	15580.6
465.575	15205.83
465.781	15748.54
465.986	15805.88
466.191	15377.86
466.397	14779.85
466.602	14357.97
466.807	14728.65
467.012	14722.51
467.218	14368.21
467.423	14384.59
467.628	14435.79
467.833	15060.42
468.038	14603.72
468.244	14095.83
468.449	14777.8
468.654	14114.26
468.859	14163.41
469.064	13934.04
469.269	13333.98
469.474	13567.45
469.679	13798.87
469.885	13417.95
470.09	13270.5
470.295	13573.6
470.5	13043.17
470.705	13293.02
470.91	12776.94
471.115	12735.98
471.32	12932.58
471.525	12983.78
471.73	12766.7
471.935	12189.17
472.139	12072.43
472.344	12275.18
472.549	12037.62
472.754	11847.16
472.959	11410.94
473.164	11488.76
473.369	11519.48
473.574	11668.98
473.778	11666.94
473.983	11294.21
474.188	11318.78
474.393	10890.76
474.598	10925.57
474.802	10524.17
475.007	10757.64
475.212	10839.56
475.417	10198.54
475.621	10360.33
475.826	10290.7
476.031	10145.3
476.235	9981.46
476.44	10073.62
476.645	9635.35
476.849	9815.57
477.054	9858.58
477.259	9260.57
477.463	9709.08
477.668	9399.84
477.872	9504.28
478.077	9299.48
478.282	9061.92
478.486	9039.39
478.691	8920.61
478.895	8752.68
479.1	8904.23
479.304	9045.54
479.509	8668.71
479.713	8873.51
479.918	8701.48
480.122	8416.81
480.326	8492.59
480.531	8447.53
480.735	8502.82
480.94	8537.64
481.144	8459.82
481.348	8336.94
481.553	8220.21
481.757	7986.74
481.961	8226.35
482.166	8429.1
482.37	8287.79
482.574	8023.6
482.778	7880.24
482.983	8345.13
483.187	7900.72
483.391	8060.46
483.595	8142.38
483.8	7890.48
484.004	8113.71
484.208	8093.23
484.412	8152.62
484.616	8093.23
484.821	8033.84
485.025	7859.76
485.229	8117.81
485.433	7816.76
485.637	7943.73
485.841	7929.39
486.045	7939.63
486.249	8111.66
486.453	7960.11
486.657	8109.61
486.861	7933.49
487.065	7874.1
487.269	7929.39
487.473	7876.15
487.677	7978.54
487.881	8101.42
488.085	7804.47
488.289	7990.83
488.493	7812.66
488.697	8119.85
488.901	8027.7
489.105	8023.6
489.309	8273.45
489.512	8074.8
489.716	8017.46
489.92	8058.42
490.124	7919.15
490.328	8287.79
490.531	8105.52
490.735	8207.92
490.939	8076.85
491.143	8070.7
491.346	8031.79
491.55	8392.23
491.754	8175.15
491.958	8367.66
492.161	8267.31
492.365	8427.05
492.569	8212.01
492.772	8433.19
492.976	8338.99
493.18	8283.69
493.383	8472.11
493.587	8498.73
493.79	8672.81
493.994	8492.59
494.197	8738.34
494.401	8742.44
494.605	8773.16
494.808	8803.88
495.012	9090.59
495.215	8818.21
495.419	8957.47
495.622	8967.71
495.825	9023.01
496.029	8982.05
496.232	9295.39
496.436	9209.37
496.639	9567.77
496.843	9403.93
497.046	9635.35
497.249	9704.98
497.453	9641.5
497.656	9737.75
497.859	9758.23
498.063	10036.75
498.266	10231.31
498.469	10022.42
498.673	10184.21
498.876	10294.8
499.079	10427.92
499.282	10567.18
499.485	10724.87
499.689	10802.69
499.892	10970.63
500.095	10847.75
500.298	11148.8
500.501	11030.02
500.705	11390.46
500.908	11521.53
501.111	11443.71
501.314	11556.35
501.517	11779.57
501.72	11963.89
501.923	11810.29
502.126	12029.43
502.329	12553.71
502.532	12406.25
502.735	12459.5
502.938	12778.98
503.141	13006.31
503.344	13026.79
503.547	12959.2
503.75	13120.99
503.953	13424.09
504.156	13391.33
504.359	13434.33
504.562	13733.34
504.765	13778.39
504.968	13995.48
505.17	14134.74
505.373	14288.34
505.576	14247.38
505.779	14503.37
505.982	14464.46
506.185	14843.34
506.387	14751.18
506.59	15099.33
506.793	15291.84
506.996	15091.14
507.198	16033.21
507.401	15605.18
507.604	16014.77
507.807	16301.49
508.009	16393.65
508.212	16364.98
508.415	16706.99
508.617	16725.42
508.82	16713.13
509.022	16733.61
509.225	17139.11
509.428	17343.91
509.63	17110.44
509.833	17509.79
510.035	18060.7
510.238	17833.37
510.44	17716.64
510.643	18159
510.845	18189.72
511.048	18308.5
511.25	18574.74
511.453	18785.68
511.655	19477.89
511.858	19174.79
512.06	19307.91
512.262	19242.37
512.465	19561.86
512.667	19559.81
512.87	19953.02
513.072	19930.49
513.274	20153.72
513.477	20374.9
513.679	20489.59
513.881	20936.04
514.084	20895.08
514.286	20829.55
514.488	21030.25
514.69	21460.32
514.893	21671.26
515.095	22007.13
515.297	21646.69
515.499	21931.36
515.701	22418.77
515.904	22629.71
516.106	22555.99
516.308	22771.02
516.51	22789.45
516.712	22898
516.914	22891.85
517.116	23461.19
517.318	23151.95
517.52	23616.83
517.722	23651.65
517.925	23850.3
518.127	24280.38
518.329	24503.6
518.531	24126.78
518.733	24739.12
518.935	24773.94
519.136	24911.15
519.338	25132.33
519.54	25265.45
519.742	25720.1
519.944	25720.1
520.146	25869.6
520.348	26197.27
520.55	26279.19
520.752	26115.36
520.954	26467.61
521.155	26273.05
521.357	26883.34
521.559	26914.06
521.761	27364.62
521.963	27112.72
522.164	27372.81
522.366	27348.23
522.568	27542.79
522.77	27491.59
522.971	27792.64
523.173	27682.05
523.375	28087.55
523.576	28038.4
523.778	28103.93
523.98	28450.04
524.181	28327.16
524.383	28626.17
524.584	28695.8
524.786	28921.07
524.988	28411.13
525.189	29084.91
525.391	28988.66
525.592	29060.34
525.794	29408.49
525.995	29172.97
526.197	29238.51
526.398	29474.02
526.6	29191.41
526.801	29736.16
527.003	29535.46
527.204	29779.17
527.406	30000.35
527.607	30082.27
527.808	29830.37
528.01	29601
528.211	29957.35
528.412	30590.17
528.614	30129.37
528.815	30180.57
529.016	30473.43
529.218	29871.33
529.419	30534.87
529.62	30389.47
529.822	30424.28
530.023	30352.6
530.224	30133.47
530.425	30399.71
530.626	30049.5
530.828	30094.56
531.029	30979.28
531.23	30538.97
531.431	30682.33
531.632	30463.19
531.833	30717.14
532.035	30629.08
532.236	30760.15
532.437	30616.79
532.638	30160.09
532.839	30682.33
533.04	30776.53
533.241	30317.79
533.442	30678.23
533.643	30665.94
533.844	30510.3
534.045	30659.8
534.246	30444.76
534.447	30285.02
534.648	30225.63
534.849	30665.94
535.05	30498.01
535.251	30655.7
535.451	30633.18
535.652	30432.47
535.853	30575.83
536.054	30436.57
536.255	30528.73
536.456	30688.47
536.657	31028.43
536.857	30758.1
537.058	30348.51
537.259	30418.14
537.46	30704.85
537.66	30371.04
537.861	30463.19
538.062	30391.51
538.263	30229.73
538.463	30295.26
538.664	30186.72
538.865	30600.41
539.065	30575.83
539.266	30393.56
539.466	30297.31
539.667	30276.83
539.868	30475.48
540.068	30571.74
540.269	30291.16
540.469	30225.63
540.67	30141.66
540.87	30448.86
541.071	30635.22
541.271	30379.23
541.472	30239.97
541.672	29961.44
541.873	30389.47
542.073	29953.25
542.274	30450.91
542.474	30121.18
542.675	30096.61
542.875	30448.86
543.075	29893.86
543.276	29476.07
543.476	30340.32
543.676	30043.36
543.877	30117.09
544.077	30377.18
544.277	29979.87
544.478	30244.06
544.678	30031.07
544.878	29730.02
545.078	29947.11
545.279	29854.95
545.479	29603.05
545.679	30176.48
545.879	30119.14
546.079	29926.63
546.28	29629.67
546.48	29775.08
546.68	30338.27
546.88	30012.64
547.08	30057.7
547.28	30039.26
547.48	29777.12
547.68	29900
547.88	29607.14
548.081	30072.03
548.281	29678.82
548.481	29523.18
548.681	29459.69
548.881	29687.01
549.081	29641.96
549.28	29676.77
549.48	29656.29
549.68	29621.48
549.88	29738.21
550.08	29439.21
550.28	29547.75
550.48	29822.18
550.68	29969.63
550.88	29488.36
551.08	29590.76
551.279	29748.45
551.479	29598.95
551.679	29803.75
551.879	29605.09
552.079	30045.41
552.278	29224.17
552.478	29469.93
552.678	29365.48
552.878	29865.19
553.077	29617.38
553.277	29267.18
553.477	29824.23
553.676	29445.35
553.876	29431.02
554.076	29582.57
554.275	29684.97
554.475	29295.85
554.674	29211.88
554.874	29693.16
555.074	29437.16
555.273	29326.57
555.473	29412.59
555.672	29738.21
555.872	29492.46
556.071	29199.6
556.271	29359.34
556.47	29644.01
556.67	29324.52
556.869	29363.43
557.068	29340.91
557.268	29385.96
557.467	29185.26
557.667	29261.04
557.866	29183.21
558.065	29338.86
558.265	29371.63
558.464	29254.89
558.663	29398.25
558.863	28833.01
559.062	29443.31
559.261	28886.26
559.461	29134.06
559.66	28861.68
559.859	28962.03
560.058	28939.51
560.258	28847.35
560.457	28480.76
560.656	29082.86
560.855	29146.35
561.054	29007.09
561.253	28980.46
561.453	29242.6
561.652	29035.76
561.851	28941.55
562.05	28945.65
562.249	28519.67
562.448	28822.77
562.647	28880.11
562.846	28886.26
563.045	28916.98
563.244	28894.45
563.443	29158.64
563.642	28634.36
563.841	28663.03
564.04	28679.41
564.239	28916.98
564.438	28521.72
564.637	29062.38
564.836	28996.85
565.035	28386.55
565.234	28404.99
565.432	28695.8
565.631	28382.46
565.83	28962.03
566.029	28583.16
566.228	28075.26
566.427	28548.34
566.625	28267.77
566.824	28376.31
567.023	28251.39
567.222	27923.71
567.42	28034.3
567.619	28370.17
567.818	28470.52
568.016	28388.6
568.215	28699.89
568.414	28353.79
568.612	28347.64
568.811	28167.42
569.01	28626.17
569.208	27858.18
569.407	28374.27
569.605	28171.52
569.804	28302.59
570.002	27794.69
570.201	28089.6
570.4	28052.73
570.598	28052.73
570.797	27659.52
570.995	28036.35
571.193	27749.64
571.392	27966.72
571.59	27745.54
571.789	28179.71
571.987	27903.23
572.186	27952.38
572.384	27804.93
572.582	27913.47
572.781	27702.53
572.979	27430.15
573.177	27612.42
573.376	27733.25
573.574	27266.31
573.772	27845.89
573.971	27806.98
574.169	27491.59
574.367	27344.14
574.565	27462.92
574.763	27231.5
574.962	27643.14
575.16	27188.49
575.358	27251.98
575.556	27088.14
575.754	27792.64
575.952	27008.27
576.151	27444.49
576.349	26971.41
576.547	27286.79
576.745	27067.66
576.943	27514.12
577.141	27182.35
577.339	26965.26
577.537	26684.69
577.735	27290.89
577.933	26963.22
578.131	27012.37
578.329	27254.03
578.527	26850.58
578.725	26590.48
578.923	26823.95
579.121	26756.37
579.319	26909.97
579.516	26574.1
579.714	26924.3
579.912	26531.09
580.11	26363.16
580.308	27094.29
580.506	26731.79
580.704	26508.57
580.901	26785.04
581.099	26780.95
581.297	26307.87
581.495	26393.88
581.692	26639.64
581.89	26289.43
582.088	26160.41
582.285	26203.42
582.483	26424.6
582.681	26070.3
582.878	26375.45
583.076	26209.56
583.274	26242.33
583.471	25711.91
583.669	26172.7
583.866	26346.78
584.064	26004.77
584.262	25820.45
584.459	26236.19
584.657	25939.23
584.854	26223.9
585.052	25507.11
585.249	25920.8
585.447	25812.26
585.644	25830.69
585.841	25824.54
586.039	25902.37
586.236	25777.44
586.434	25466.15
586.631	25609.51
586.828	25406.76
587.026	26019.1
587.223	25634.08
587.42	25498.92
587.618	25765.15
587.815	25373.99
588.012	25247.02
588.21	25208.11
588.407	25826.59
588.604	25427.24
588.801	24886.57
588.999	24778.03
589.196	25394.47
589.393	25339.18
589.59	25128.24
589.787	25068.84
589.984	25115.95
590.182	24980.78
590.379	25050.41
590.576	25460.01
590.773	24995.12
590.97	25077.04
591.167	25197.87
591.364	24976.69
591.561	25107.76
591.758	24892.72
591.955	25318.7
592.152	24870.19
592.349	25017.64
592.546	25222.44
592.743	25062.7
592.94	24808.75
593.137	25048.36
593.334	25087.28
593.531	24671.54
593.727	24792.37
593.924	24849.71
594.121	24491.32
594.318	24765.74
594.515	24640.82
594.712	24907.05
594.908	24563
595.105	24716.59
595.302	24747.31
595.499	24685.87
595.696	24945.97
595.892	24493.36
596.089	24657.2
596.286	24841.52
596.482	24806.7
596.679	24882.48
596.876	24943.92
597.072	24567.09
597.269	24669.49
597.466	24546.61
597.662	24563
597.859	24649.01
598.055	24814.9
598.252	24495.41
598.448	24546.61
598.645	24636.72
598.841	24382.77
599.038	24917.29
599.234	24780.08
599.431	24487.22
599.627	24722.74
599.824	24614.2
600.02	24565.04
600.217	24798.51
600.413	24665.39
600.609	24857.9
600.806	24841.52
601.002	24614.2
601.198	24427.83
601.395	24485.17
601.591	24683.83
601.787	24862
601.984	24847.66
602.18	24880.43
602.376	24573.24
602.572	24618.29
602.769	24661.3
602.965	24436.02
603.161	24884.53
603.357	24683.83
603.553	24671.54
603.75	24810.8
603.946	24923.44
604.142	24524.08
604.338	24462.65
604.534	24630.58
604.73	24237.37
604.926	24710.45
605.122	24749.36
605.318	24929.58
605.514	24870.19
605.71	24974.64
605.906	25087.28
606.102	25072.94
606.298	24905.01
606.494	25132.33
606.69	25066.8
606.886	25021.74
607.082	25083.18
607.278	24999.21
607.474	24980.78
607.67	25259.31
607.866	25087.28
608.062	25353.51
608.257	25077.04
608.453	25500.97
608.649	25455.91
608.845	25154.86
609.041	25400.62
609.236	25238.83
609.432	25472.29
609.628	25382.18
609.824	25251.11
610.019	25349.42
610.215	25474.34
610.411	25951.52
610.606	25634.08
610.802	25845.02
610.998	26193.18
611.193	25799.97
611.389	26178.84
611.584	25836.83
611.78	26133.79
611.976	25748.77
612.171	25670.95
612.367	26015.01
612.562	26008.86
612.758	25771.3
612.953	25902.37
613.149	25992.48
613.344	26117.4
613.539	26346.78
613.735	26303.77
613.93	26567.96
614.126	26072.35
614.321	26572.05
614.517	26400.02
614.712	26551.57
614.907	26592.53
615.103	26813.71
615.298	26598.68
615.493	26926.35
615.688	26156.32
615.884	27333.9
616.079	26576.15
616.274	27120.91
616.47	26862.86
616.665	27082
616.86	26617.11
617.055	26858.77
617.25	26877.2
617.445	27249.93
617.641	26746.13
617.836	27196.68
618.031	26805.52
618.226	27127.05
618.421	26793.23
618.616	27278.6
618.811	26766.61
619.006	27219.21
619.201	26647.83
619.396	27139.34
619.591	26598.68
619.786	27200.78
619.981	26770.71
620.176	27012.37
620.371	26645.78
620.566	26932.5
620.761	26785.04
620.956	26764.56
621.151	26293.53
621.346	27055.37
621.541	26459.41
621.735	26940.69
621.93	26529.05
622.125	26748.18
622.32	26109.21
622.515	26649.88
622.709	26277.15
622.904	26416.41
623.099	26471.7
623.294	26381.59
623.488	25951.52
623.683	26510.61
623.878	25795.87
624.072	26002.72
624.267	25767.2
624.462	25879.84
624.656	25582.88
624.851	26094.88
625.046	25537.83
625.24	25509.16
625.435	25197.87
625.629	25425.19
625.824	25382.18
626.018	25285.93
626.213	24851.76
626.407	25263.4
626.602	25142.57
626.796	24988.97
626.991	24966.45
627.185	25199.91
627.38	24894.77
627.574	24804.66
627.768	24495.41
627.963	24460.6
628.157	24149.31
628.352	24837.42
628.546	24063.29
628.74	24544.56
628.935	24319.29
629.129	23901.5
629.323	23817.54
629.517	23674.18
629.712	23711.04
629.906	24012.09
630.1	23659.84
630.294	23889.21
630.489	23405.89
630.683	23643.46
630.877	23211.34
631.071	23608.64
631.265	23356.74
631.459	23084.36
631.653	22816.08
631.848	23094.6
632.042	22889.81
632.236	22918.48
632.43	22439.25
632.624	22596.95
632.818	22162.78
633.012	22752.59
633.206	22390.1
633.4	22474.07
633.594	22013.27
633.788	22343
633.982	22486.36
634.176	21843.29
634.369	21892.44
634.563	21755.23
634.757	21486.95
634.951	21460.32
635.145	21828.96
635.339	21740.89
635.533	21542.24
635.726	21159.27
635.92	21036.39
636.114	21001.58
636.308	21024.11
636.501	21040.49
636.695	21089.64
636.889	20923.76
637.083	20788.59
637.276	20454.77
637.47	20585.84
637.664	20288.89
637.857	20358.52
638.051	20405.62
638.244	20127.1
638.438	20227.45
638.632	20118.9
638.825	19996.03
639.019	19875.2
639.212	19703.17
639.406	19746.17
639.599	19430.79
639.793	19682.69
639.986	19271.04
640.18	19162.5
640.373	19395.97
640.567	19131.78
640.76	18982.28
640.954	18789.77
641.147	18802.06
641.34	18693.52
641.534	18750.86
641.727	18412.95
641.92	18937.23
642.114	18214.29
642.307	18877.83
642.5	18339.22
642.694	17853.85
642.887	17974.68
643.08	17999.26
643.273	17880.47
643.467	17604
643.66	17517.98
643.853	17704.35
644.046	17470.88
644.239	17350.05
644.432	17212.84
644.626	17145.25
644.819	16975.27
645.012	17122.73
645.205	17051.05
645.398	16836.01
645.591	16706.99
645.784	16739.76
645.977	16629.16
646.17	16580.01
646.363	16178.61
646.556	16252.34
646.749	16100.79
646.942	15994.29
647.135	15936.95
647.328	16106.93
647.521	15762.87
647.714	15701.44
647.907	15777.21
648.099	15545.79
648.292	15590.84
648.485	15637.95
648.678	15355.33
648.871	15105.48
649.064	15066.56
649.256	15095.24
649.449	14968.26
649.642	15136.2
649.835	14892.49
650.027	14632.4
650.22	14876.1
650.413	14478.8
650.605	14620.11
650.798	14650.83
650.991	14056.92
651.183	14400.97
651.376	14112.21
651.568	14269.9
651.761	14040.53
651.954	13942.23
652.146	13872.6
652.339	13684.19
652.531	13837.78
652.724	13721.05
652.916	13491.68
653.109	13395.42
653.301	13657.56
653.494	13604.32
653.686	13252.06
653.879	13501.92
654.071	13080.04
654.263	12862.95
654.456	13157.86
654.648	13141.47
654.84	12807.66
655.033	12807.66
655.225	12860.9
655.417	12602.86
655.61	12774.89
655.802	12623.34
655.994	12576.23
656.186	12377.58
656.379	12092.91
656.571	12187.12
656.763	12152.31
656.955	12015.09
657.148	12011
657.34	11881.97
657.532	11679.22
657.724	11703.8
657.916	11556.35
658.108	11744.76
658.3	11490.81
658.492	11763.19
658.684	11365.89
658.876	11234.82
659.068	11343.36
659.26	10995.2
659.452	11216.38
659.644	11183.62
659.836	10958.34
660.028	10929.67
660.22	10905.09
660.412	10878.47
660.604	10771.97
660.796	10556.94
660.988	10624.52
661.18	10626.57
661.372	10321.42
661.563	10442.25
661.755	10266.13
661.947	10341.9
662.139	10192.4
662.331	10149.39
662.522	9807.38
662.714	9971.22
662.906	9879.06
663.097	9819.67
663.289	9721.37
663.481	9561.62
663.673	9588.25
663.864	9528.86
664.056	9471.51
664.247	9405.98
664.439	9299.48
664.631	9432.6
664.822	9272.86
665.014	9166.37
665.205	9088.54
665.397	9051.68
665.588	9203.23
665.78	9178.65
665.971	8973.86
666.163	8867.36
666.354	9059.87
666.546	8834.6
666.737	8838.69
666.929	8898.08
667.12	8748.58
667.311	8566.31
667.503	8355.37
667.694	8732.2
667.885	8347.18
668.077	8357.42
668.268	8427.05
668.459	8373.8
668.651	8144.43
668.842	8277.55
669.033	8130.09
669.224	8212.01
669.416	8189.49
669.607	8064.56
669.798	7884.34
669.989	8107.57
670.18	7925.3
670.371	7810.61
670.563	7882.29
670.754	8001.07
670.945	7779.89
671.136	7702.07
671.327	7790.13
671.518	7728.69
671.709	7804.47
671.9	7595.57
672.091	7743.03
672.282	7571
672.473	7564.86
672.664	7640.63
672.855	7429.69
673.046	7429.69
673.237	7630.39
673.428	7335.48
673.619	7495.22
673.809	7132.73
674	7333.43
674.191	7368.25
674.382	6936.13
674.573	7245.37
674.764	7208.51
674.954	7122.49
675.145	7069.25
675.336	7028.29
675.527	7147.07
675.717	7081.53
675.908	7050.82
676.099	7032.38
676.289	7128.64
676.48	6760
676.671	6782.53
676.861	6846.02
677.052	6886.98
677.243	6712.9
677.433	6739.52
677.624	6772.29
677.814	6784.58
678.005	6678.08
678.195	6698.56
678.386	6817.35
678.576	6663.75
678.767	6522.44
678.957	6602.31
679.148	6766.15
679.338	6590.02
679.529	6526.54
679.719	6575.69
679.909	6721.09
680.1	6776.39
680.29	6520.39
680.481	6514.25
680.671	6483.53
680.861	6628.93
681.052	6590.02
681.242	6583.88
681.432	6559.3
681.622	6430.28
681.813	6200.91
682.003	6540.87
682.193	6399.56
682.383	6440.52
682.573	6348.36
682.764	6356.55
682.954	6442.57
683.144	6399.56
683.334	6471.24
683.524	6334.03
683.714	6389.32
683.904	6276.68
684.094	6317.64
684.284	6288.97
684.474	6250.06
684.664	6194.76
684.854	6381.13
685.044	6274.63
685.234	6168.14
685.424	6237.77
685.614	6020.69
685.804	6114.89
685.994	6174.28
686.184	6245.96
686.374	6112.85
686.564	6059.6
686.753	6039.12
686.943	6026.83
687.133	6164.04
687.323	5998.16
687.513	6088.27
687.702	5992.02
687.892	5867.09
688.082	6024.78
688.272	6135.37
688.461	6108.75
688.651	5912.14
688.841	5981.78
689.03	5916.24
689.22	5869.14
689.41	6018.64
689.599	5836.37
689.789	5865.04
689.979	5924.43
690.168	5854.8
690.358	5842.51
690.547	5873.23
690.737	5875.28
690.926	5650
691.116	5846.61
691.305	5842.51
691.495	5740.12
691.684	5738.07
691.874	5744.21
692.063	5754.45
692.252	5672.53
692.442	5774.93
692.631	5666.39
692.82	5633.62
693.01	5760.59
693.199	5762.64
693.388	5500.5
693.578	5592.66
693.767	5733.97
693.956	5543.51
694.146	5666.39
694.335	5701.2
694.524	5750.35
694.713	5607
694.902	5920.34
695.092	5516.89
695.281	5545.56
695.47	5742.16
695.659	5627.48
695.848	5604.95
696.037	5627.48
696.226	5643.86
696.415	5668.44
696.604	5746.26
696.793	5412.44
696.982	5701.2
697.171	5611.09
697.36	5604.95
697.549	5664.34
697.738	5363.29
697.927	5572.18
698.116	5482.07
698.305	5563.99
698.494	5580.37
698.683	5459.54
698.872	5617.24
699.061	5695.06
699.25	5670.48
699.438	5643.86
699.627	5418.58
699.816	5563.99
700.005	5535.32
700.193	5514.84
700.382	5563.99
700.571	5672.53
700.76	5484.12
700.948	5639.76
701.137	5551.7
701.326	5418.58
701.514	5574.23
701.703	5527.13
701.892	5418.58
702.08	5682.77
702.269	5559.89
702.457	5535.32
702.646	5463.64
702.834	5518.93
703.023	5506.65
703.212	5414.49
703.4	5455.45
703.589	5320.28
703.777	5461.59
703.965	5383.77
704.154	5557.85
704.342	5480.02
704.531	5437.02
704.719	5344.86
704.907	5516.89
705.096	5480.02
705.284	5471.83
705.472	5295.71
705.661	5496.41
705.849	5344.86
706.037	5369.43
706.226	5332.57
706.414	5369.43
706.602	5307.99
706.79	5461.59
706.979	5379.67
707.167	5420.63
707.355	5232.22
707.543	5369.43
707.731	5367.38
707.919	5314.14
708.107	5260.89
708.296	5267.03
708.484	5205.6
708.672	5336.67
708.86	5203.55
709.048	5176.92
709.236	5066.33
709.424	5324.38
709.612	5201.5
709.8	5000.8
709.988	5140.06
710.176	5029.47
710.364	5310.04
710.551	5115.48
710.739	5029.47
710.927	5060.19
711.115	5150.3
711.303	5144.16
711.491	5203.55
711.679	5064.29
711.866	4894.3
712.054	5193.31
712.242	5029.47
712.43	5224.03
712.617	4896.35
712.805	5111.39
712.993	5029.47
713.181	4818.53
713.368	5060.19
713.556	5103.2
713.744	4867.68
713.931	4992.61
714.119	4943.46
714.306	5013.09
714.494	4908.64
714.682	4974.17
714.869	4800.1
715.057	4925.02
715.244	4804.19
715.432	4906.59
715.619	4947.55
715.807	4927.07
715.994	4882.02
716.182	4699.75
716.369	4910.69
716.556	4935.26
716.744	4914.78
716.931	4673.12
717.119	4666.98
717.306	4828.77
717.493	4769.38
717.681	4685.41
717.868	4820.58
718.055	4793.95
718.242	4724.32
718.43	4738.66
718.617	4644.45
718.804	4638.31
718.991	4834.91
719.179	4726.37
719.366	4507.24
719.553	4875.87
719.74	4576.87
719.927	4486.76
720.114	4611.68
720.301	4488.81
720.488	4490.85
720.676	4415.08
720.863	4564.58
721.05	4564.58
721.237	4445.8
721.424	4466.28
721.611	4480.61
721.798	4341.35
721.985	4566.63
722.172	4562.53
722.358	4378.22
722.545	4503.14
722.732	4374.12
722.919	4525.67
723.106	4253.29
723.293	4271.72
723.48	4433.51
723.667	4331.11
723.853	4406.89
724.04	4253.29
724.227	4331.11
724.414	4417.13
724.6	4296.3
724.787	4296.3
724.974	4402.79
725.161	4243.05
725.347	4241
725.534	4126.32
725.72	4271.72
725.907	4241
726.094	4238.95
726.28	4230.76
726.467	4177.51
726.653	4060.78
726.84	4232.81
727.027	4138.6
727.213	4093.55
727.4	4185.71
727.586	4093.55
727.773	4111.98
727.959	4189.8
728.145	4230.76
728.332	4212.33
728.518	4044.4
728.705	4077.16
728.891	4118.12
729.077	4040.3
729.264	3864.18
729.45	4044.4
729.636	4046.44
729.823	3954.29
730.009	4028.01
730.195	4187.75
730.382	4005.49
730.568	3862.13
730.754	3956.33
730.94	3974.77
731.126	4011.63
731.313	4071.02
731.499	3872.37
731.685	3913.33
731.871	3927.66
732.057	3962.48
732.243	3800.69
732.429	3862.13
732.615	3798.64
732.801	3898.99
732.987	3741.3
733.173	3815.02
733.359	3737.2
733.545	3636.85
733.731	3769.97
733.917	3931.76
734.103	3862.13
734.289	3722.87
734.475	3778.16
734.661	4017.77
734.847	3751.54
735.033	3757.68
735.219	3622.52
735.404	3806.83
735.59	3718.77
735.776	3542.64
735.962	3645.04
736.148	3618.42
736.333	3645.04
736.519	3632.76
736.705	3616.37
736.89	3460.73
737.076	3538.55
737.262	3526.26
737.447	3499.64
737.633	3413.62
737.819	3532.4
738.004	3362.42
738.19	3546.74
738.375	3378.81
738.561	3561.08
738.747	3362.42
738.932	3358.33
739.118	3503.73
739.303	3462.77
739.489	3341.94
739.674	3327.61
739.859	3458.68
740.045	3298.94
740.23	3325.56
740.416	3176.06
740.601	3212.92
740.786	3438.2
740.972	3288.7
741.157	3227.26
741.342	3122.81
741.528	3120.76
741.713	3288.7
741.898	3147.39
742.084	3214.97
742.269	3116.67
742.454	3188.35
742.639	3165.82
742.824	3163.77
743.01	3149.43
743.195	3169.91
743.38	3139.19
743.565	2926.21
743.75	3096.19
743.935	3073.66
744.12	2985.6
744.305	3034.75
744.49	2985.6
744.675	2975.36
744.86	3081.85
745.045	2895.49
745.23	2977.41
745.415	2807.42
745.6	3032.7
745.785	2856.58
745.97	2934.4
746.155	2870.91
746.34	2817.66
746.525	2815.62
746.71	2821.76
746.895	2756.22
747.079	2684.55
747.264	2752.13
747.449	2809.47
747.634	2743.94
747.819	2784.9
748.003	2573.96
748.188	2723.46
748.373	2696.83
748.557	2586.24
748.742	2492.04
748.927	2547.33
749.111	2625.15
749.296	2479.75
749.481	2582.15
749.665	2430.6
749.85	2377.35
750.034	2498.18
750.219	2453.13
750.404	2315.91
750.588	2430.6
750.773	2367.11
750.957	2408.07
751.141	2363.01
751.326	2397.83
751.51	2289.29
751.695	2367.11
751.879	2283.14
752.064	2393.73
752.248	2272.9
752.432	2289.29
752.617	2363.01
752.801	2256.52
752.985	2201.23
753.17	2258.57
753.354	2141.83
753.538	2186.89
753.722	2156.17
753.907	2193.03
754.091	2100.87
754.275	2168.46
754.459	2219.66
754.643	2137.74
754.828	2070.16
755.012	2162.31
755.196	2141.83
755.38	2066.06
755.564	1920.65
755.748	2059.92
755.932	1980.04
756.116	2039.44
756.3	2025.1
756.484	2012.81
756.668	1934.99
756.852	1857.17
757.036	1945.23
757.22	1943.18
757.404	1871.5
757.588	1848.97
757.772	1836.69
757.956	2002.57
758.14	1877.65
758.323	1838.73
758.507	1797.78
758.691	1814.16
758.875	1922.7
759.059	1787.54
759.242	1746.58
759.426	1810.06
759.61	1722
759.794	1719.95
759.977	1750.67
760.161	1742.48
760.345	1779.34
760.528	1803.92
760.712	1705.62
760.895	1685.14
761.079	1668.75
761.263	1617.55
761.446	1560.21
761.63	1552.02
761.813	1711.76
761.997	1631.89
762.18	1525.4
762.364	1580.69
762.547	1447.57
762.731	1666.71
762.914	1590.93
763.098	1549.97
763.281	1611.41
763.464	1535.64
763.648	1506.96
763.831	1545.88
764.015	1463.96
764.198	1617.55
764.381	1564.31
764.564	1420.95
764.748	1517.2
764.931	1459.86
765.114	1556.11
765.297	1511.06
765.481	1392.28
765.664	1451.67
765.847	1537.68
766.03	1468.05
766.213	1361.56
766.397	1398.42
766.58	1291.93
766.763	1439.38
766.946	1474.2
767.129	1382.04
767.312	1552.02
767.495	1416.85
767.678	1439.38
767.861	1420.95
768.044	1357.46
768.227	1425.04
768.41	1425.04
768.593	1334.93
768.776	1341.08
768.959	1402.52
769.142	1461.91
769.324	1408.66
769.507	1316.5
769.69	1359.51
769.873	1275.54
770.056	1414.81
770.239	1291.93
770.421	1324.69
770.604	1281.69
770.787	1363.61
770.97	1359.51
771.152	1314.45
771.335	1347.22
771.518	1261.21
771.7	1451.67
771.883	1412.76
772.066	1341.08
772.248	1320.6
772.431	1339.03
772.613	1293.97
772.796	1238.68
772.978	1300.12
773.161	1267.35
773.343	1205.91
773.526	1228.44
773.708	1195.67
773.891	1195.67
774.073	1238.68
774.256	1152.67
774.438	1314.45
774.621	1150.62
774.803	1193.62
774.985	1138.33
775.168	1179.29
775.35	1156.76
775.532	1160.86
775.715	1134.23
775.897	1156.76
776.079	1134.23
776.261	1150.62
776.444	1052.31
776.626	1111.71
776.808	1093.27
776.99	1062.55
777.173	1031.83
777.355	1005.21
777.537	1025.69
777.719	994.97
777.901	1076.89
778.083	958.11
778.265	1107.61
778.447	1009.31
778.629	1019.55
778.811	1046.17
778.993	1052.31
779.175	962.2
779.357	1001.12
779.539	933.53
779.721	1035.93
779.903	1031.83
780.085	915.1
780.267	956.06
780.449	927.39
780.631	962.2
780.812	919.2
780.994	876.19
781.176	865.95
781.358	919.2
781.54	827.04
781.721	988.83
781.903	997.02
782.085	943.77
782.267	906.91
782.448	724.64
782.63	837.28
782.812	896.67
782.993	835.23
783.175	792.22
783.357	794.27
783.538	747.17
783.72	818.85
783.901	851.61
784.083	831.13
784.264	822.94
784.446	722.59
784.627	652.96
784.809	790.17
784.99	724.64
785.172	804.51
785.353	708.26
785.535	708.26
785.716	706.21
785.897	702.11
786.079	759.46
786.26	736.93
786.441	700.06
786.623	587.43
786.804	661.15
786.985	655.01
787.167	640.67
787.348	698.02
787.529	710.3
787.71	759.46
787.891	734.88
788.073	657.06
788.254	556.71
788.435	681.63
788.616	650.91
788.797	689.82
788.978	689.82
789.159	614.05
789.34	683.68
789.522	622.24
789.703	605.86
789.884	579.23
790.065	566.95
790.246	636.58
790.427	560.8
790.607	685.73
790.788	593.57
790.969	538.27
791.15	472.74
791.331	573.09
791.512	515.75
791.693	536.23
791.874	542.37
792.054	577.19
792.235	593.57
792.416	523.94
792.597	499.36
792.778	575.14
792.958	515.75
793.139	595.62
793.32	503.46
793.5	521.89
793.681	605.86
793.862	585.38
794.042	480.93
794.223	444.07
794.404	454.31
794.584	370.34
794.765	409.25
794.945	595.62
795.126	503.46
795.306	562.85
795.487	548.51
795.667	501.41
795.848	497.32
796.028	454.31
796.209	519.84
796.389	482.98
796.57	470.69
796.75	431.78
796.93	487.08
797.111	431.78
797.291	392.87
797.471	493.22
797.652	431.78
797.832	405.16
798.012	505.51
798.192	306.85
798.373	362.15
798.553	439.97
798.733	435.88
798.913	384.68
799.093	413.35
799.274	444.07
799.454	464.55
799.634	364.2
799.814	446.12
799.994	405.16
800.174	382.63
800.354	409.25
800.534	403.11
800.714	337.57
800.894	337.57
801.074	370.34
801.254	358.05
801.434	517.79
801.614	310.95
801.794	315.05
801.974	1273.5
802.154	378.53
802.334	417.44
802.514	347.81
802.693	380.58
802.873	313
803.053	401.06
803.233	351.91
803.413	356.01
803.592	288.42
803.772	331.43
803.952	376.48
804.131	296.61
804.311	376.48
804.491	372.39
804.67	274.09
804.85	272.04
805.03	413.35
805.209	370.34
805.389	313
805.568	315.05
805.748	272.04
805.928	317.09
806.107	337.57
806.287	317.09
806.466	347.81
806.646	327.33
806.825	351.91
807.004	257.7
807.184	261.8
807.363	296.61
807.543	329.38
807.722	239.27
807.901	300.71
808.081	298.66
808.26	163.5
808.439	257.7
808.619	356.01
808.798	188.07
808.977	286.37
809.156	315.05
809.336	251.56
809.515	351.91
809.694	216.74
809.873	245.41
810.052	341.67
810.231	255.65
810.411	231.08
810.59	216.74
810.769	210.6
810.948	351.91
811.127	210.6
811.306	198.31
811.485	245.41
811.664	376.48
811.843	231.08
812.022	292.52
812.201	245.41
812.38	286.37
812.559	208.55
812.737	231.08
812.916	179.88
813.095	206.5
813.274	239.27
813.453	196.26
813.632	255.65
813.811	253.61
813.989	253.61
814.168	249.51
814.347	220.84
814.526	210.6
814.704	235.18
814.883	294.57
815.062	188.07
815.24	298.66
815.419	196.26
815.598	290.47
815.776	167.59
815.955	245.41
816.133	171.69
816.312	218.79
816.49	253.61
816.669	196.26
816.847	237.22
817.026	272.04
817.204	245.41
817.383	218.79
817.561	208.55
817.74	245.41
817.918	222.89
818.097	274.09
818.275	198.31
818.453	183.98
818.632	282.28
818.81	202.41
818.988	59.05
819.167	124.58
819.345	220.84
819.523	157.35
819.701	198.31
819.879	290.47
820.058	169.64
820.236	216.74
820.414	220.84
820.592	93.87
820.77	206.5
820.948	190.12
821.127	192.17
821.305	249.51
821.483	224.94
821.661	233.13
821.839	171.69
822.017	194.22
822.195	257.7
822.373	149.16
822.551	175.78
822.729	249.51
822.907	147.11
823.085	136.87
823.262	138.92
823.44	167.59
823.618	73.39
823.796	192.17
823.974	161.45
824.152	145.06
824.329	114.34
824.507	161.45
824.685	130.73
824.863	104.11
825.04	222.89
825.218	112.3
825.396	212.65
825.574	161.45
825.751	136.87
825.929	161.45
826.107	149.16
826.284	214.7
826.462	112.3
826.639	108.2
826.817	44.71
826.994	120.49
827.172	93.87
827.349	179.88
827.527	151.21
827.704	126.63
827.882	130.73
828.059	69.29
828.237	89.77
828.414	145.06
828.591	5.8
828.769	126.63
828.946	110.25
829.124	106.15
829.301	186.02
829.478	87.72
829.655	190.12
829.833	151.21
830.01	-4.44
830.187	167.59
830.364	65.19
830.542	145.06
830.719	151.21
830.896	183.98
831.073	97.96
831.25	220.84
831.427	151.21
831.604	112.3
831.782	85.67
831.959	186.02
832.136	100.01
832.313	97.96
832.49	34.47
832.667	183.98
832.844	73.39
833.021	145.06
833.198	118.44
833.374	106.15
833.551	91.82
833.728	54.95
833.905	112.3
834.082	65.19
834.259	83.63
834.436	79.53
834.612	116.39
834.789	118.44
834.966	112.3
835.143	124.58
835.319	124.58
835.496	130.73
835.673	67.24
835.85	151.21
836.026	106.15
836.203	100.01
836.38	114.34
836.556	63.15
836.733	50.86
836.909	196.26
837.086	81.58
837.262	52.91
837.439	44.71
837.616	63.15
837.792	106.15
837.968	59.05
838.145	59.05
838.321	69.29
838.498	81.58
838.674	104.11
838.851	91.82
839.027	79.53
839.203	128.68
839.38	134.82
839.556	116.39
839.732	130.73
839.909	16.04
840.085	20.14
840.261	83.63
840.437	122.54
840.614	61.1
840.79	143.02
840.966	118.44
841.142	54.95
841.318	77.48
841.494	91.82
841.671	112.3
841.847	34.47
842.023	54.95
842.199	186.02
842.375	95.91
842.551	-35.16
842.727	5.8
842.903	97.96
843.079	38.57
843.255	183.98
843.431	136.87
843.607	155.3
843.783	59.05
843.959	151.21
844.134	40.62
844.31	97.96
844.486	-45.4
844.662	-76.12
844.838	69.29
845.013	44.71
845.189	97.96
845.365	100.01
845.541	16.04
845.716	30.38
845.892	81.58
846.068	67.24
846.244	57
846.419	81.58
846.595	89.77
846.77	-8.53
846.946	89.77
847.122	79.53
847.297	59.05
847.473	153.26
847.648	-37.2
847.824	118.44
847.999	-39.25
848.175	-10.58
848.35	42.67
848.526	42.67
848.701	145.06
848.876	3.75
849.052	122.54
849.227	87.72
849.403	73.39
849.578	11.95
849.753	22.19
849.929	79.53
850.104	30.38
850.279	11.95
850.454	114.34
850.63	65.19
850.805	44.71
850.98	18.09
851.155	28.33
851.33	106.15
851.505	-10.58
851.681	50.86
851.856	20.14
852.031	42.67
852.206	116.39
852.381	30.38
852.556	93.87
852.731	26.28
852.906	63.15
853.081	46.76
853.256	75.43
853.431	30.38
853.606	-78.16
853.781	32.43
853.956	30.38
854.131	116.39
854.305	54.95
854.48	13.99
854.655	20.14
854.83	-29.01
855.005	9.9
855.18	50.86
855.354	36.52
855.529	118.44
855.704	32.43
855.879	24.23
856.053	18.09
856.228	3.75
856.403	-31.06
856.577	50.86
856.752	77.48
856.926	-6.49
857.101	38.57
857.276	-10.58
857.45	122.54
857.625	89.77
857.799	40.62
857.974	16.04
858.148	97.96
858.323	85.67
858.497	-2.39
858.672	42.67
858.846	24.23
859.02	134.82
859.195	-4.44
859.369	38.57
859.543	1.71
859.718	24.23
859.892	42.67
860.066	104.11
860.241	13.99
860.415	38.57
860.589	44.71
860.763	3.75
860.938	87.72
861.112	100.01
861.286	-26.96
861.46	16.04
861.634	-80.21
861.808	75.43
861.982	22.19
862.157	36.52
862.331	42.67
862.505	34.47
862.679	16.04
862.853	20.14
863.027	-8.53
863.201	138.92
863.375	-57.68
863.549	34.47
863.722	38.57
863.896	42.67
864.07	-4.44
864.244	46.76
864.418	134.82
864.592	116.39
864.766	-33.11
864.939	20.14
865.113	-31.06
865.287	102.06
865.461	-65.88
865.634	42.67
865.808	26.28
865.982	-18.77
866.156	1.71
866.329	-10.58
866.503	77.48
866.676	65.19
866.85	87.72
867.024	28.33
867.197	40.62
867.371	102.06
867.544	65.19
867.718	-31.06
867.891	118.44
868.065	-86.36
868.238	30.38
868.412	36.52
868.585	48.81
868.759	30.38
868.932	-29.01
869.105	-18.77
869.279	63.15
869.452	71.34
869.625	54.95
869.799	26.28
869.972	-37.2
870.145	13.99
870.319	65.19
870.492	-24.92
870.665	36.52
870.838	-18.77
871.011	-45.4
871.185	79.53
871.358	-0.34
871.531	50.86
871.704	-8.53
871.877	42.67
872.05	-16.73
872.223	-45.4
872.396	13.99
872.569	69.29
872.742	-63.83
872.915	5.8
873.088	32.43
873.261	50.86
873.434	13.99
873.607	-8.53
873.78	30.38
873.953	-82.26
874.126	36.52
874.299	1.71
874.471	-18.77
874.644	-47.44
874.817	79.53
874.99	26.28
875.163	-4.44
875.335	16.04
875.508	54.95
875.681	67.24
875.853	-41.3
876.026	65.19
876.199	7.85
876.371	7.85
876.544	30.38
876.717	54.95
876.889	-14.68
877.062	-14.68
877.234	79.53
877.407	1.71
877.579	-22.87
877.752	83.63
877.924	52.91
878.097	18.09
878.269	18.09
878.442	73.39
878.614	-10.58
878.786	50.86
878.959	44.71
879.131	46.76
879.303	-47.44
879.476	65.19
879.648	50.86
879.82	18.09
879.993	30.38
880.165	-16.73
880.337	-43.35
880.509	44.71
880.681	-33.11
880.854	9.9
881.026	102.06
881.198	83.63
881.37	-104.79
881.542	40.62
881.714	22.19
881.886	-18.77
882.058	50.86
882.23	67.24
882.402	-41.3
882.574	77.48
882.746	59.05
882.918	71.34
883.09	3.75
883.262	-24.92
883.434	-2.39
883.606	-37.2
883.778	-14.68
883.95	50.86
884.122	24.23
884.293	73.39
884.465	1.71
884.637	26.28
884.809	-8.53
884.98	73.39
885.152	18.09
885.324	-16.73
885.496	-39.25
885.667	59.05
885.839	9.9
886.011	42.67
886.182	11.95
886.354	54.95
886.525	-2.39
886.697	-53.59
886.869	11.95
887.04	-29.01
887.212	46.76
887.383	128.68
887.555	36.52
887.726	71.34
887.897	-10.58
888.069	-20.82
888.24	-29.01
888.412	36.52
888.583	32.43
888.754	57
888.926	32.43
889.097	-20.82
889.268	-92.5
889.44	30.38
889.611	-31.06
889.782	-6.49
889.953	-90.45
890.125	34.47
890.296	-78.16
890.467	18.09
890.638	18.09
890.809	81.58
890.98	-14.68
891.151	61.1
891.323	34.47
891.494	-96.6
891.665	-4.44
891.836	-20.82
892.007	9.9
892.178	-35.16
892.349	20.14
892.52	-33.11
892.691	79.53
892.862	-74.07
893.032	-102.74
893.203	44.71
893.374	46.76
893.545	30.38
893.716	-16.73
893.887	24.23
894.057	-67.92
894.228	-26.96
894.399	5.8
894.57	36.52
894.74	-6.49
894.911	-29.01
895.082	-43.35
895.253	-6.49
895.423	22.19
895.594	57
895.764	67.24
895.935	-67.92
896.106	54.95
896.276	-55.64
896.447	40.62
896.617	5.8
896.788	-10.58
896.958	-31.06
897.129	38.57
897.299	-90.45
897.47	3.75
897.64	30.38
897.81	9.9
897.981	16.04
898.151	-8.53
898.322	-4.44
898.492	46.76
898.662	26.28
898.832	38.57
899.003	20.14
899.173	-59.73
899.343	20.14
899.513	-57.68
