Data from USB4F104151__28__12-11-45-963.txt Node

Date: Fri Mar 14 12:11:45 EDT 2025
User: louis
Spectrometer: USB4F10415
Trigger mode: 4
Integration Time (sec): 5.000000E-2
Scans to average: 1
Electric dark correction enabled: true
Nonlinearity correction enabled: false
Boxcar width: 0
XAxis mode: Wavelengths
Number of Pixels in Spectrum: 3648
>>>>>Begin Spectral Data<<<<<
178.204	-248.66
178.424	-248.66
178.644	-248.66
178.864	-207.7
179.084	-265.04
179.304	60.59
179.524	11.43
179.744	-90.96
179.964	-9.05
180.184	83.11
180.404	19.63
180.624	-33.62
180.844	15.53
181.064	-33.62
181.283	11.43
181.503	-56.15
181.723	21.67
181.943	-113.49
182.163	85.16
182.383	3.24
182.602	-35.67
182.822	62.63
183.042	-54.1
183.262	-56.15
183.482	1.19
183.701	25.77
183.921	23.72
184.141	-27.48
184.361	29.87
184.58	-2.9
184.8	17.58
185.02	-11.09
185.239	3.24
185.459	-37.72
185.679	46.25
185.898	-68.44
186.118	60.59
186.338	-88.92
186.557	56.49
186.777	-45.91
186.997	-41.81
187.216	-29.52
187.436	36.01
187.655	50.35
187.875	19.63
188.095	25.77
188.314	44.2
188.534	31.91
188.753	-9.05
188.973	46.25
189.192	58.54
189.412	23.72
189.631	48.3
189.851	25.77
190.07	42.15
190.29	-52.05
190.509	-0.85
190.729	-52.05
190.948	134.31
191.168	181.42
191.387	46.25
191.607	-29.52
191.826	7.34
192.045	-0.85
192.265	3.24
192.484	-0.85
192.704	17.58
192.923	-58.2
193.142	140.46
193.362	105.64
193.581	58.54
193.8	-9.05
194.02	52.39
194.239	-0.85
194.458	21.67
194.678	56.49
194.897	-29.52
195.116	25.77
195.335	29.87
195.555	-19.29
195.774	29.87
195.993	56.49
196.212	19.63
196.432	-60.24
196.651	-19.29
196.87	-23.38
197.089	124.07
197.308	-9.05
197.528	91.31
197.747	-74.58
197.966	-9.05
198.185	128.17
198.404	27.82
198.623	36.01
198.842	42.15
199.062	62.63
199.281	-17.24
199.5	-0.85
199.719	-13.14
199.938	48.3
200.157	21.67
200.376	25.77
200.595	25.77
200.814	-52.05
201.033	-52.05
201.252	-0.85
201.471	-25.43
201.69	21.67
201.909	66.73
202.128	83.11
202.347	1.19
202.566	11.43
202.785	-39.76
203.004	-35.67
203.223	144.55
203.442	-64.34
203.661	-29.52
203.879	21.67
204.098	87.21
204.317	-58.2
204.536	3.24
204.755	-17.24
204.974	60.59
205.193	-17.24
205.411	173.22
205.63	25.77
205.849	89.26
206.068	-19.29
206.287	-13.14
206.505	25.77
206.724	3.24
206.943	27.82
207.162	-4.95
207.381	19.63
207.599	-19.29
207.818	17.58
208.037	-27.48
208.255	33.96
208.474	-4.95
208.693	89.26
208.911	9.39
209.13	-45.91
209.349	23.72
209.567	-19.29
209.786	56.49
210.005	-13.14
210.223	54.44
210.442	-15.19
210.661	-33.62
210.879	36.01
211.098	7.34
211.316	-17.24
211.535	66.73
211.753	-47.96
211.972	9.39
212.191	85.16
212.409	-0.85
212.628	-0.85
212.846	-7
213.065	60.59
213.283	103.59
213.502	-9.05
213.72	66.73
213.938	15.53
214.157	-23.38
214.375	-31.57
214.594	-2.9
214.812	36.01
215.031	-7
215.249	19.63
215.467	27.82
215.686	-33.62
215.904	81.07
216.122	46.25
216.341	52.39
216.559	15.53
216.778	124.07
216.996	93.35
217.214	1.19
217.432	56.49
217.651	-11.09
217.869	-15.19
218.087	64.68
218.306	-78.68
218.524	11.43
218.742	21.67
218.96	42.15
219.179	3.24
219.397	72.87
219.615	70.83
219.833	44.2
220.051	17.58
220.27	105.64
220.488	5.29
220.706	11.43
220.924	-25.43
221.142	-0.85
221.36	68.78
221.578	3.24
221.796	-2.9
222.015	52.39
222.233	17.58
222.451	58.54
222.669	-33.62
222.887	-2.9
223.105	-66.39
223.323	9.39
223.541	-33.62
223.759	70.83
223.977	-37.72
224.195	105.64
224.413	40.11
224.631	-21.33
224.849	-17.24
225.067	66.73
225.285	-39.76
225.503	29.87
225.721	-58.2
225.939	19.63
226.157	-11.09
226.375	177.32
226.592	-27.48
226.81	-54.1
227.028	15.53
227.246	87.21
227.464	5.29
227.682	107.69
227.9	62.63
228.117	17.58
228.335	-64.34
228.553	38.06
228.771	-13.14
228.989	40.11
229.206	19.63
229.424	-25.43
229.642	-45.91
229.86	29.87
230.077	107.69
230.295	-15.19
230.513	162.98
230.731	58.54
230.948	9.39
231.166	9.39
231.384	54.44
231.601	23.72
231.819	91.31
232.037	-15.19
232.254	-95.06
232.472	7.34
232.689	-23.38
232.907	62.63
233.125	-25.43
233.342	54.44
233.56	-54.1
233.777	13.48
233.995	-37.72
234.213	93.35
234.43	50.35
234.648	-33.62
234.865	31.91
235.083	11.43
235.3	52.39
235.518	15.53
235.735	81.07
235.953	46.25
236.17	31.91
236.388	-7
236.605	-4.95
236.822	58.54
237.04	54.44
237.257	-11.09
237.475	9.39
237.692	79.02
237.909	15.53
238.127	-60.24
238.344	74.92
238.562	-17.24
238.779	-47.96
238.996	-52.05
239.214	31.91
239.431	-2.9
239.648	-7
239.865	66.73
240.083	99.5
240.3	21.67
240.517	46.25
240.735	3.24
240.952	3.24
241.169	23.72
241.386	-25.43
241.603	46.25
241.821	15.53
242.038	136.36
242.255	7.34
242.472	-99.16
242.689	38.06
242.907	105.64
243.124	-21.33
243.341	93.35
243.558	-17.24
243.775	-19.29
243.992	-117.59
244.209	40.11
244.426	54.44
244.643	58.54
244.86	38.06
245.078	19.63
245.295	9.39
245.512	11.43
245.729	-95.06
245.946	36.01
246.163	40.11
246.38	13.48
246.597	5.29
246.814	66.73
247.031	1.19
247.248	31.91
247.464	58.54
247.681	-19.29
247.898	52.39
248.115	31.91
248.332	33.96
248.549	33.96
248.766	95.4
248.983	-7
249.2	9.39
249.417	9.39
249.633	-54.1
249.85	-27.48
250.067	15.53
250.284	-9.05
250.501	-80.72
250.717	9.39
250.934	-13.14
251.151	-21.33
251.368	-86.87
251.585	33.96
251.801	-11.09
252.018	-27.48
252.235	5.29
252.451	-41.81
252.668	-76.63
252.885	46.25
253.102	-29.52
253.318	33.96
253.535	-45.91
253.752	29.87
253.968	-58.2
254.185	-58.2
254.401	-21.33
254.618	31.91
254.835	29.87
255.051	91.31
255.268	23.72
255.484	-23.38
255.701	11.43
255.917	91.31
256.134	7.34
256.351	-15.19
256.567	-66.39
256.784	-25.43
257	3.24
257.217	38.06
257.433	46.25
257.65	11.43
257.866	99.5
258.082	5.29
258.299	17.58
258.515	46.25
258.732	-43.86
258.948	-99.16
259.165	-4.95
259.381	29.87
259.597	85.16
259.814	33.96
260.03	-39.76
260.246	-37.72
260.463	62.63
260.679	36.01
260.895	15.53
261.112	-72.53
261.328	3.24
261.544	-76.63
261.761	109.74
261.977	-78.68
262.193	-11.09
262.409	-37.72
262.626	64.68
262.842	33.96
263.058	-45.91
263.274	93.35
263.49	-0.85
263.707	38.06
263.923	-56.15
264.139	-47.96
264.355	40.11
264.571	109.74
264.787	-76.63
265.004	25.77
265.22	23.72
265.436	48.3
265.652	-29.52
265.868	-19.29
266.084	-56.15
266.3	-13.14
266.516	9.39
266.732	95.4
266.948	48.3
267.164	21.67
267.38	1.19
267.596	-76.63
267.812	60.59
268.028	-4.95
268.244	-19.29
268.46	11.43
268.676	-33.62
268.892	21.67
269.108	-15.19
269.324	1.19
269.54	-27.48
269.756	17.58
269.972	-2.9
270.188	-0.85
270.403	-23.38
270.619	89.26
270.835	-25.43
271.051	44.2
271.267	-9.05
271.483	19.63
271.698	42.15
271.914	83.11
272.13	-37.72
272.346	-41.81
272.562	64.68
272.777	95.4
272.993	-19.29
273.209	-88.92
273.425	9.39
273.64	-54.1
273.856	89.26
274.072	11.43
274.287	-21.33
274.503	-68.44
274.719	50.35
274.934	31.91
275.15	5.29
275.366	-37.72
275.581	-11.09
275.797	13.48
276.012	13.48
276.228	-13.14
276.444	-4.95
276.659	85.16
276.875	-25.43
277.09	-17.24
277.306	17.58
277.521	46.25
277.737	-11.09
277.952	25.77
278.168	66.73
278.383	-11.09
278.599	70.83
278.814	21.67
279.03	44.2
279.245	58.54
279.461	93.35
279.676	-2.9
279.892	-119.64
280.107	-50
280.322	-33.62
280.538	58.54
280.753	-54.1
280.969	40.11
281.184	-7
281.399	54.44
281.615	25.77
281.83	-17.24
282.045	19.63
282.26	-90.96
282.476	-47.96
282.691	56.49
282.906	54.44
283.122	5.29
283.337	-19.29
283.552	44.2
283.767	56.49
283.983	40.11
284.198	-56.15
284.413	38.06
284.628	-9.05
284.843	15.53
285.058	-0.85
285.274	-37.72
285.489	-31.57
285.704	58.54
285.919	19.63
286.134	25.77
286.349	-13.14
286.564	-13.14
286.779	85.16
286.995	-17.24
287.21	-52.05
287.425	19.63
287.64	-62.29
287.855	-2.9
288.07	-52.05
288.285	15.53
288.5	9.39
288.715	-9.05
288.93	-19.29
289.145	13.48
289.36	83.11
289.575	-31.57
289.79	50.35
290.004	91.31
290.219	87.21
290.434	-109.4
290.649	-58.2
290.864	-115.54
291.079	-0.85
291.294	33.96
291.509	76.97
291.724	40.11
291.938	-56.15
292.153	-35.67
292.368	25.77
292.583	-19.29
292.798	29.87
293.012	5.29
293.227	29.87
293.442	85.16
293.657	87.21
293.871	33.96
294.086	-54.1
294.301	42.15
294.516	109.74
294.73	-45.91
294.945	-13.14
295.16	-58.2
295.374	83.11
295.589	33.96
295.804	-27.48
296.018	-0.85
296.233	31.91
296.447	126.12
296.662	-35.67
296.877	23.72
297.091	85.16
297.306	23.72
297.52	-35.67
297.735	36.01
297.949	-2.9
298.164	-13.14
298.378	11.43
298.593	3.24
298.807	3.24
299.022	38.06
299.236	79.02
299.451	11.43
299.665	-27.48
299.88	-7
300.094	7.34
300.309	9.39
300.523	-19.29
300.737	42.15
300.952	-0.85
301.166	52.39
301.381	33.96
301.595	-33.62
301.809	-11.09
302.024	19.63
302.238	-54.1
302.452	-13.14
302.667	-9.05
302.881	50.35
303.095	83.11
303.309	23.72
303.524	31.91
303.738	-2.9
303.952	-35.67
304.166	-2.9
304.381	-74.58
304.595	68.78
304.809	-97.11
305.023	46.25
305.237	15.53
305.452	54.44
305.666	44.2
305.88	15.53
306.094	38.06
306.308	74.92
306.522	58.54
306.736	-45.91
306.95	1.19
307.164	117.93
307.379	-60.24
307.593	79.02
307.807	23.72
308.021	31.91
308.235	46.25
308.449	-74.58
308.663	21.67
308.877	33.96
309.091	64.68
309.305	17.58
309.519	-76.63
309.733	91.31
309.947	-25.43
310.161	87.21
310.374	76.97
310.588	72.87
310.802	-64.34
311.016	-7
311.23	58.54
311.444	-4.95
311.658	48.3
311.872	11.43
312.085	38.06
312.299	29.87
312.513	5.29
312.727	29.87
312.941	-37.72
313.154	19.63
313.368	-2.9
313.582	-19.29
313.796	38.06
314.009	17.58
314.223	54.44
314.437	-25.43
314.651	29.87
314.864	40.11
315.078	50.35
315.292	15.53
315.505	3.24
315.719	52.39
315.933	13.48
316.146	29.87
316.36	-33.62
316.573	13.48
316.787	115.88
317.001	-9.05
317.214	-62.29
317.428	52.39
317.641	-23.38
317.855	-7
318.068	97.45
318.282	1.19
318.495	31.91
318.709	19.63
318.922	11.43
319.136	89.26
319.349	54.44
319.563	15.53
319.776	-35.67
319.99	-60.24
320.203	40.11
320.417	21.67
320.63	25.77
320.843	154.79
321.057	-21.33
321.27	-27.48
321.483	48.3
321.697	79.02
321.91	-33.62
322.124	50.35
322.337	91.31
322.55	-15.19
322.763	-43.86
322.977	-60.24
323.19	-58.2
323.403	-15.19
323.617	68.78
323.83	101.55
324.043	-0.85
324.256	29.87
324.469	-80.72
324.683	83.11
324.896	50.35
325.109	40.11
325.322	-27.48
325.535	25.77
325.748	25.77
325.962	54.44
326.175	-7
326.388	42.15
326.601	66.73
326.814	21.67
327.027	9.39
327.24	140.46
327.453	-7
327.666	-47.96
327.879	46.25
328.092	48.3
328.305	13.48
328.518	-11.09
328.731	29.87
328.944	-19.29
329.157	-27.48
329.37	1.19
329.583	103.59
329.796	74.92
330.009	-70.48
330.222	85.16
330.435	5.29
330.648	23.72
330.861	44.2
331.073	128.17
331.286	56.49
331.499	44.2
331.712	-50
331.925	-7
332.138	17.58
332.35	31.91
332.563	-33.62
332.776	54.44
332.989	5.29
333.202	21.67
333.414	1.19
333.627	-0.85
333.84	-33.62
334.053	42.15
334.265	-70.48
334.478	70.83
334.691	21.67
334.903	95.4
335.116	-45.91
335.329	33.96
335.541	-2.9
335.754	38.06
335.966	11.43
336.179	-33.62
336.392	-27.48
336.604	-0.85
336.817	-23.38
337.029	3.24
337.242	-54.1
337.454	52.39
337.667	83.11
337.88	95.4
338.092	31.91
338.305	5.29
338.517	-52.05
338.729	40.11
338.942	91.31
339.154	-72.53
339.367	54.44
339.579	-11.09
339.792	-35.67
340.004	107.69
340.217	25.77
340.429	-11.09
340.641	38.06
340.854	-25.43
341.066	50.35
341.278	-7
341.491	58.54
341.703	1.19
341.915	-62.29
342.128	3.24
342.34	-7
342.552	-11.09
342.764	23.72
342.977	79.02
343.189	-2.9
343.401	60.59
343.613	-74.58
343.826	42.15
344.038	-41.81
344.25	3.24
344.462	-31.57
344.674	-4.95
344.886	-21.33
345.099	103.59
345.311	-62.29
345.523	9.39
345.735	-68.44
345.947	64.68
346.159	38.06
346.371	-13.14
346.583	-2.9
346.795	74.92
347.007	15.53
347.219	38.06
347.431	-23.38
347.643	74.92
347.855	-0.85
348.067	42.15
348.279	-82.77
348.491	27.82
348.703	-4.95
348.915	91.31
349.127	3.24
349.339	31.91
349.551	5.29
349.763	72.87
349.975	-7
350.187	-13.14
350.399	87.21
350.61	72.87
350.822	87.21
351.034	15.53
351.246	11.43
351.458	66.73
351.669	-0.85
351.881	74.92
352.093	97.45
352.305	1.19
352.517	54.44
352.728	36.01
352.94	-4.95
353.152	64.68
353.363	-45.91
353.575	44.2
353.787	132.26
353.999	81.07
354.21	105.64
354.422	-19.29
354.633	-21.33
354.845	38.06
355.057	7.34
355.268	74.92
355.48	29.87
355.692	-70.48
355.903	38.06
356.115	-76.63
356.326	27.82
356.538	103.59
356.749	19.63
356.961	91.31
357.172	62.63
357.384	21.67
357.595	119.98
357.807	21.67
358.018	-7
358.23	29.87
358.441	124.07
358.653	29.87
358.864	60.59
359.075	11.43
359.287	-0.85
359.498	-2.9
359.709	31.91
359.921	25.77
360.132	13.48
360.344	25.77
360.555	-27.48
360.766	-0.85
360.977	54.44
361.189	-19.29
361.4	-29.52
361.611	44.2
361.823	54.44
362.034	-11.09
362.245	-60.24
362.456	-70.48
362.667	29.87
362.879	25.77
363.09	-15.19
363.301	23.72
363.512	31.91
363.723	7.34
363.935	93.35
364.146	23.72
364.357	23.72
364.568	27.82
364.779	-2.9
364.99	124.07
365.201	-9.05
365.412	13.48
365.623	-17.24
365.834	56.49
366.045	46.25
366.256	85.16
366.467	21.67
366.678	-11.09
366.889	-2.9
367.1	29.87
367.311	64.68
367.522	7.34
367.733	29.87
367.944	-0.85
368.155	11.43
368.366	85.16
368.577	-19.29
368.788	66.73
368.999	-27.48
369.209	44.2
369.42	109.74
369.631	95.4
369.842	91.31
370.053	52.39
370.264	13.48
370.474	54.44
370.685	13.48
370.896	11.43
371.107	40.11
371.317	11.43
371.528	11.43
371.739	-64.34
371.95	103.59
372.16	83.11
372.371	-52.05
372.582	-70.48
372.792	40.11
373.003	27.82
373.214	-13.14
373.424	36.01
373.635	27.82
373.846	-11.09
374.056	62.63
374.267	29.87
374.477	15.53
374.688	31.91
374.898	27.82
375.109	19.63
375.319	70.83
375.53	91.31
375.74	97.45
375.951	3.24
376.161	23.72
376.372	85.16
376.582	33.96
376.793	31.91
377.003	-99.16
377.214	-23.38
377.424	-7
377.635	38.06
377.845	21.67
378.055	175.27
378.266	-17.24
378.476	40.11
378.686	60.59
378.897	130.22
379.107	66.73
379.317	-15.19
379.528	29.87
379.738	119.98
379.948	-15.19
380.158	23.72
380.369	33.96
380.579	54.44
380.789	-11.09
380.999	23.72
381.21	109.74
381.42	97.45
381.63	13.48
381.84	27.82
382.05	93.35
382.261	38.06
382.471	-11.09
382.681	19.63
382.891	95.4
383.101	60.59
383.311	-103.25
383.521	-15.19
383.731	64.68
383.941	70.83
384.151	66.73
384.361	11.43
384.571	-21.33
384.781	74.92
384.991	107.69
385.201	85.16
385.411	79.02
385.621	27.82
385.831	40.11
386.041	-9.05
386.251	-15.19
386.461	93.35
386.671	60.59
386.881	31.91
387.091	58.54
387.301	76.97
387.511	7.34
387.72	40.11
387.93	122.02
388.14	-60.24
388.35	21.67
388.56	83.11
388.769	72.87
388.979	-7
389.189	-0.85
389.399	33.96
389.609	15.53
389.818	91.31
390.028	160.94
390.238	76.97
390.447	-17.24
390.657	-17.24
390.867	-9.05
391.076	15.53
391.286	-23.38
391.496	27.82
391.705	40.11
391.915	128.17
392.125	7.34
392.334	-7
392.544	99.5
392.753	64.68
392.963	29.87
393.172	68.78
393.382	38.06
393.591	117.93
393.801	15.53
394.01	38.06
394.22	1.19
394.429	54.44
394.639	136.36
394.848	70.83
395.058	70.83
395.267	15.53
395.477	44.2
395.686	62.63
395.895	76.97
396.105	144.55
396.314	117.93
396.524	62.63
396.733	144.55
396.942	111.78
397.152	83.11
397.361	171.18
397.57	128.17
397.78	-4.95
397.989	113.83
398.198	140.46
398.407	74.92
398.617	56.49
398.826	85.16
399.035	38.06
399.244	79.02
399.453	169.13
399.663	11.43
399.872	74.92
400.081	68.78
400.29	132.26
400.499	50.35
400.708	162.98
400.917	44.2
401.127	126.12
401.336	68.78
401.545	128.17
401.754	81.07
401.963	138.41
402.172	105.64
402.381	13.48
402.59	89.26
402.799	74.92
403.008	91.31
403.217	81.07
403.426	195.75
403.635	52.39
403.844	162.98
404.053	105.64
404.262	105.64
404.471	140.46
404.68	122.02
404.888	99.5
405.097	130.22
405.306	99.5
405.515	183.46
405.724	140.46
405.933	191.66
406.142	142.5
406.35	160.94
406.559	189.61
406.768	85.16
406.977	191.66
407.185	201.9
407.394	169.13
407.603	187.56
407.812	214.18
408.02	300.2
408.229	228.52
408.438	208.04
408.646	103.59
408.855	201.9
409.064	318.63
409.272	302.25
409.481	251.05
409.69	263.33
409.898	269.48
410.107	208.04
410.315	294.05
410.524	191.66
410.733	322.73
410.941	269.48
411.15	337.06
411.358	292.01
411.567	357.54
411.775	363.69
411.984	439.46
412.192	380.07
412.401	421.03
412.609	447.65
412.818	400.55
413.026	525.47
413.234	494.76
413.443	543.91
413.651	482.47
413.86	513.19
414.068	599.2
414.276	638.11
414.485	595.11
414.693	756.9
414.901	750.75
415.11	711.84
415.318	582.82
415.526	693.41
415.734	760.99
415.943	806.05
416.151	943.26
416.359	863.39
416.567	910.49
416.776	920.73
416.984	865.44
417.192	1025.18
417.4	910.49
417.608	947.36
417.817	1076.38
418.025	1098.91
418.233	1270.94
418.441	1148.06
418.649	1100.95
418.857	1242.26
419.065	1223.83
419.273	1340.57
419.481	1338.52
419.689	1338.52
419.897	1379.48
420.105	1465.49
420.313	1463.44
420.521	1660.05
420.729	1676.43
420.937	1666.19
421.145	1791.12
421.353	1791.12
421.561	1936.53
421.769	2004.11
421.977	2053.26
422.185	2002.06
422.393	2225.29
422.601	2385.03
422.809	2352.26
423.017	2288.78
423.224	2413.7
423.432	2559.11
423.64	2509.96
423.848	2765.95
424.056	2632.83
424.263	2942.08
424.471	2825.34
424.679	2993.28
424.887	3124.35
425.094	3286.14
425.302	3327.1
425.51	3304.57
425.718	3474.55
425.925	3359.86
426.133	3513.46
426.341	3769.46
426.548	3863.66
426.756	3935.34
426.964	4115.56
427.171	4240.49
427.379	4332.65
427.586	4600.93
427.794	4439.14
428.001	5028.96
428.209	5088.35
428.417	4920.42
428.624	5243.99
428.832	5264.47
429.039	5301.34
429.247	5375.06
429.454	5747.79
429.662	6024.27
429.869	5747.79
430.076	6239.31
430.284	6134.86
430.491	6270.03
430.699	6626.37
430.906	6655.05
431.114	6679.62
431.321	6956.1
431.528	7140.41
431.736	7380.03
431.943	7898.16
432.15	7732.28
432.358	7705.65
432.565	8236.08
432.772	8008.75
432.979	8543.27
433.187	8549.42
433.394	8911.91
433.601	9149.47
433.808	9235.49
434.016	9139.23
434.223	9700.37
434.43	10376.2
434.637	9888.79
434.844	10537.99
435.052	10816.52
435.259	10882.05
435.466	10847.24
435.673	10646.54
435.88	11600.89
436.087	12157.94
436.294	11854.84
436.501	11848.69
436.708	11938.8
436.915	12397.55
437.122	12938.21
437.329	12757.99
437.537	13521.88
437.743	13525.98
437.95	13544.41
438.157	14261.2
438.364	14543.82
438.571	14650.32
438.778	14609.36
438.985	15748.03
439.192	15391.68
439.399	15842.23
439.606	15635.39
439.813	16391.09
440.02	17359.78
440.227	17365.92
440.433	16913.32
440.64	17445.79
440.847	17202.08
441.054	18039.7
441.261	19035.02
441.467	18715.53
441.674	19243.91
441.881	19907.45
442.088	19827.58
442.294	19831.68
442.501	20169.59
442.708	20448.11
442.914	21388.13
443.121	22260.57
443.328	21521.25
443.534	23151.43
443.741	22690.64
443.948	22272.85
444.154	23608.13
444.361	23661.38
444.568	23939.9
444.774	23720.77
444.981	24036.16
445.187	24963.89
445.394	25951.01
445.6	25533.22
445.807	28039.93
446.013	26700.56
446.22	27427.59
446.426	28232.44
446.633	28474.1
446.839	29367.02
447.046	28226.3
447.252	29887.2
447.459	30194.4
447.665	29661.93
447.871	31003.35
448.078	32602.81
448.284	30855.89
448.491	31609.54
448.697	33243.82
448.903	33309.36
449.11	33639.08
449.316	32938.68
449.522	33759.91
449.728	34513.56
449.935	34620.06
450.141	34957.97
450.347	35494.54
450.553	34626.2
450.76	34933.4
450.966	36031.11
451.172	35590.8
451.378	36403.84
451.584	35844.74
451.791	36889.21
451.997	36653.69
452.203	37137.01
452.409	36838.01
452.615	36510.33
452.821	35601.04
453.027	35084.95
453.233	36893.3
453.44	35519.12
453.646	35381.9
453.852	35777.16
454.058	36196.99
454.264	35818.12
454.47	36194.95
454.676	35173.01
454.882	36358.78
455.088	33391.28
455.294	33677.99
455.5	33888.93
455.705	34359.97
455.911	32961.2
456.117	32537.27
456.323	32074.43
456.529	30737.11
456.735	32037.57
456.941	30866.13
457.147	30354.14
457.352	29391.59
457.558	28918.51
457.764	28732.15
457.97	28695.28
458.176	27618.05
458.381	27669.25
458.587	26741.52
458.793	26620.69
458.999	25066.28
459.204	26958.61
459.41	26174.24
459.616	24587.06
459.821	24619.83
460.027	24124.22
460.233	23933.76
460.438	22745.94
460.644	22881.1
460.85	21660.51
461.055	21635.94
461.261	21406.56
461.466	19876.73
461.672	19221.38
461.878	20726.64
462.083	19219.33
462.289	18822.03
462.494	18652.05
462.7	17806.23
462.905	17185.7
463.111	17822.62
463.316	17892.25
463.522	17707.93
463.727	17546.14
463.932	17605.53
464.138	17535.9
464.343	17617.82
464.549	17030.05
464.754	17441.7
464.959	17517.47
465.165	17204.13
465.37	16522.16
465.575	16100.28
465.781	16710.57
465.986	16694.19
466.191	16303.03
466.397	15915.96
466.602	15172.55
466.807	15637.44
467.012	16001.97
467.218	15463.36
467.423	15227.84
467.628	15463.36
467.833	15967.16
468.038	15598.52
468.244	15037.38
468.449	15731.64
468.654	14953.41
468.859	15064
469.064	15031.24
469.269	14181.33
469.474	14494.67
469.679	14509.01
469.885	14320.59
470.09	14457.81
470.295	14318.54
470.5	13911
470.705	14132.18
470.91	13601.76
471.115	13700.06
471.32	14097.36
471.525	14050.26
471.73	13622.23
471.935	13530.08
472.139	12911.59
472.344	13198.31
472.549	13036.52
472.754	12956.64
472.959	12680.17
473.164	12350.45
473.369	12276.72
473.574	12837.86
473.778	12377.07
473.983	12237.81
474.188	12366.83
474.393	11656.18
474.598	11693.05
474.802	11650.04
475.007	11465.72
475.212	11537.4
475.417	11013.12
475.621	11279.36
475.826	11193.34
476.031	10984.45
476.235	10832.9
476.44	10822.66
476.645	10669.06
476.849	10755.08
477.054	10454.03
477.259	10253.33
477.463	10554.38
477.668	10185.74
477.872	10378.25
478.077	10191.89
478.282	9880.6
478.486	9862.16
478.691	9767.96
478.895	9761.81
479.1	9647.13
479.304	9585.69
479.509	9395.23
479.713	9640.98
479.918	9323.55
480.122	9174.05
480.326	9335.84
480.531	9196.57
480.735	9294.88
480.94	9153.57
481.144	9327.64
481.348	8940.58
481.553	9194.53
481.757	8985.63
481.961	9126.94
482.166	9145.38
482.37	9108.51
482.574	9030.69
482.778	8838.18
482.983	9018.4
483.187	9002.02
483.391	9128.99
483.595	8942.63
483.8	8848.42
484.004	9022.5
484.208	9083.94
484.412	8711.21
484.616	9030.69
484.821	8856.61
485.025	8746.02
485.229	8936.48
485.433	8854.56
485.637	8899.62
485.841	8950.82
486.045	8846.37
486.249	9008.16
486.453	8782.88
486.657	8881.19
486.861	8916
487.065	8698.92
487.269	9055.26
487.473	8596.52
487.677	8969.25
487.881	9131.04
488.085	8680.49
488.289	8856.61
488.493	8885.28
488.697	8940.58
488.901	8873
489.105	8991.78
489.309	8930.34
489.512	8956.96
489.716	8905.76
489.92	8985.63
490.124	8956.96
490.328	9073.7
490.531	8664.1
490.735	9081.89
490.939	9020.45
491.143	9045.02
491.346	9114.66
491.55	9139.23
491.754	9169.95
491.958	9395.23
492.161	9174.05
492.365	9180.19
492.569	9139.23
492.772	9188.38
492.976	9581.59
493.18	9434.14
493.383	9636.89
493.587	9620.5
493.79	9794.58
493.994	9501.72
494.197	9675.8
494.401	9657.37
494.605	9645.08
494.808	9829.4
495.012	9993.23
495.215	9946.13
495.419	10089.49
495.622	9974.8
495.825	10011.67
496.029	10263.57
496.232	10273.81
496.436	10310.67
496.639	10761.22
496.843	10513.42
497.046	10726.41
497.249	11054.08
497.453	10941.44
497.656	10992.64
497.859	11236.35
498.063	11056.13
498.266	11609.08
498.469	11146.24
498.673	11478.01
498.876	11672.57
499.079	11619.32
499.282	11801.59
499.485	12129.27
499.689	11914.23
499.892	12256.24
500.095	12268.53
500.298	12622.83
500.501	12241.9
500.705	12710.89
500.908	13001.7
501.111	12891.11
501.314	13337.57
501.517	13331.42
501.72	13351.9
501.923	13485.02
502.126	13650.91
502.329	14076.88
502.532	13870.04
502.735	14076.88
502.938	14242.77
503.141	14463.95
503.344	14527.44
503.547	14607.31
503.75	14734.28
503.953	14916.55
504.156	15256.51
504.359	15166.4
504.562	15291.33
504.765	15688.64
504.968	16100.28
505.17	16163.76
505.373	15885.24
505.576	16051.13
505.779	16315.31
505.982	16386.99
506.185	16741.29
506.387	16649.13
506.59	16878.51
506.793	17316.77
506.996	17202.08
507.198	17656.73
507.401	17578.91
507.604	17619.87
507.807	18203.54
508.009	18379.67
508.212	18334.61
508.415	18506.64
508.617	18566.03
508.82	18701.2
509.022	18676.62
509.225	18932.62
509.428	19403.65
509.63	19481.47
509.833	19458.95
510.035	20095.86
510.238	19848.06
510.44	20149.11
510.643	20394.87
510.845	20329.33
511.048	20534.13
511.25	20925.29
511.453	20720.49
511.655	21572.45
511.858	21658.46
512.06	21621.6
512.262	21953.37
512.465	21539.68
512.667	22016.86
512.87	22010.71
513.072	22410.07
513.274	22760.27
513.477	23249.74
513.679	23358.28
513.881	23247.69
514.084	23532.36
514.286	23489.35
514.488	23601.99
514.69	24298.3
514.893	24503.09
515.095	24525.62
515.297	24611.64
515.499	24617.78
515.701	24888.11
515.904	25246.51
516.106	25250.6
516.308	25467.69
516.51	26077.98
516.712	25643.81
516.914	26282.78
517.116	26327.83
517.318	26340.12
517.52	26528.53
517.722	26768.15
517.925	26968.85
518.127	27151.12
518.329	27314.95
518.531	27067.15
518.733	27691.78
518.935	27802.37
519.136	27867.91
519.338	28467.96
519.54	28461.82
519.742	28392.19
519.944	28625.65
520.146	29039.34
520.348	29059.82
520.55	28717.81
520.752	29295.34
520.954	29614.82
521.155	29377.26
521.357	29793
521.559	30059.23
521.761	30268.12
521.963	30427.87
522.164	30733.01
522.366	30778.07
522.568	30730.97
522.77	30984.91
522.971	31288.01
523.173	30966.48
523.375	31230.67
523.576	31638.22
523.778	31177.42
523.98	31783.62
524.181	31963.84
524.383	32156.35
524.584	32180.93
524.786	32287.42
524.988	32166.59
525.189	32305.85
525.391	32688.82
525.592	32670.39
525.794	32809.65
525.995	32488.12
526.197	33102.51
526.398	32912.05
526.6	33096.37
526.801	33532.59
527.003	33245.87
527.204	33225.39
527.406	33540.78
527.607	33708.71
527.808	33833.64
528.01	33020.59
528.211	33551.02
528.412	33882.79
528.614	33727.14
528.815	33708.71
529.016	34101.92
529.218	33581.74
529.419	33782.44
529.62	34007.72
529.822	33825.45
530.023	33782.44
530.224	33759.91
530.425	33977
530.626	33858.21
530.828	33510.06
531.029	34060.96
531.23	34028.2
531.431	33786.54
531.632	33729.19
531.833	34194.08
532.035	33993.38
532.236	33880.74
532.437	33929.89
532.638	33956.52
532.839	33952.42
533.04	34286.24
533.241	34118.31
533.442	34224.8
533.643	34128.55
533.844	33913.51
534.045	34314.91
534.246	33954.47
534.447	34316.96
534.648	33962.66
534.849	33921.7
535.05	33970.85
535.251	33684.14
535.451	33872.55
535.652	34366.11
535.853	33901.22
536.054	33913.51
536.255	34335.39
536.456	33378.99
536.657	34157.22
536.857	33794.73
537.058	33716.9
537.259	33948.32
537.46	33866.41
537.66	33573.55
537.861	34020
538.062	33811.11
538.263	33868.45
538.463	33647.27
538.664	33874.6
538.865	33761.96
539.065	34077.35
539.266	33370.8
539.466	33868.45
539.667	33723.05
539.868	33940.13
540.068	34048.68
540.269	33446.57
540.469	33721
540.67	33682.09
540.87	33739.43
541.071	33284.78
541.271	33675.94
541.472	33229.49
541.672	33374.89
541.873	33301.17
542.073	32981.68
542.274	33811.11
542.474	32930.48
542.675	33108.66
542.875	33706.66
543.075	33428.14
543.276	32924.34
543.476	33653.42
543.676	33163.95
543.877	33577.64
544.077	32926.39
544.277	33067.7
544.478	33198.77
544.678	32920.24
544.878	33010.35
545.078	33405.61
545.279	33036.98
545.479	32481.98
545.679	33024.69
545.879	33395.37
546.079	33366.7
546.28	32768.69
546.48	32916.15
546.68	33026.74
546.88	33434.28
547.08	32991.92
547.28	33022.64
547.48	32635.58
547.68	33209.01
547.88	32703.16
548.081	33206.96
548.281	32707.26
548.481	32834.23
548.681	33184.43
548.881	32699.06
549.081	33139.38
549.28	32498.36
549.48	32785.08
549.68	32402.11
549.88	32971.44
550.08	32875.19
550.28	32848.57
550.48	32678.58
550.68	33092.27
550.88	32531.13
551.08	32803.51
551.279	32830.13
551.479	32385.72
551.679	32916.15
551.879	32596.67
552.079	32864.95
552.278	32586.43
552.478	32766.65
552.678	32887.48
552.878	32643.77
553.077	32312
553.277	32156.35
553.477	32746.17
553.676	32565.95
553.876	32418.49
554.076	32361.15
554.275	32613.05
554.475	32033.47
554.674	32416.44
554.874	32180.93
555.074	32533.18
555.273	32457.4
555.473	32567.99
555.672	32187.07
555.872	32119.49
556.071	32185.02
556.271	32318.14
556.47	32334.53
556.67	31906.5
556.869	32015.04
557.068	32273.09
557.268	32248.51
557.467	32322.24
557.667	31800.01
557.866	32215.74
558.065	32193.22
558.265	32082.63
558.464	31949.51
558.663	31984.32
558.863	31883.97
559.062	32144.06
559.261	31972.03
559.461	32207.55
559.66	31648.46
559.859	31861.44
560.058	31754.95
560.258	31945.41
560.457	31316.68
560.656	31838.92
560.855	31427.28
561.054	32072.39
561.253	31787.72
561.453	31945.41
561.652	31736.52
561.851	32123.58
562.05	31703.75
562.249	31228.62
562.448	31900.36
562.647	31607.5
562.846	31455.95
563.045	31730.37
563.244	31351.5
563.443	31634.12
563.642	31064.78
563.841	31763.14
564.04	31410.89
564.239	31470.28
564.438	31158.99
564.637	31382.22
564.836	31220.43
565.035	31083.22
565.234	31392.46
565.432	30966.48
565.631	30843.6
565.83	31036.11
566.029	31007.44
566.228	31167.18
566.427	31062.74
566.625	31046.35
566.824	30690.01
567.023	31187.66
567.222	30282.46
567.42	31009.49
567.619	30806.74
567.818	30851.8
568.016	30872.28
568.215	31296.21
568.414	30685.91
568.612	31013.59
568.811	30513.88
569.01	30708.44
569.208	30380.76
569.407	31027.92
569.605	30237.41
569.804	30608.09
570.002	30399.19
570.201	30622.42
570.4	29850.34
570.598	30118.62
570.797	30008.03
570.995	30089.95
571.193	30153.44
571.392	30765.78
571.59	29975.27
571.789	30034.66
571.987	30317.28
572.186	29782.76
572.384	30003.94
572.582	29932.26
572.781	30233.31
572.979	29553.38
573.177	29637.35
573.376	29848.29
573.574	29434.6
573.772	30083.81
573.971	29573.86
574.169	29532.9
574.367	29235.95
574.565	29633.25
574.763	29485.8
574.962	29455.08
575.16	29027.06
575.358	29399.79
575.556	29248.24
575.754	29514.47
575.952	29246.19
576.151	29430.51
576.349	28932.85
576.547	28824.31
576.745	29348.59
576.943	28920.56
577.141	28918.51
577.339	28994.29
577.537	28859.12
577.735	28803.83
577.933	28601.08
578.131	28619.51
578.329	28529.4
578.527	28404.47
578.725	28637.94
578.923	28445.43
579.121	28470.01
579.319	28238.59
579.516	28730.1
579.714	28470.01
579.912	28424.95
580.11	28001.02
580.308	28197.63
580.506	27867.91
580.704	27642.63
580.901	27788.03
581.099	27902.72
581.297	27986.69
581.495	27706.12
581.692	27497.22
581.89	27876.1
582.088	27761.41
582.285	27411.21
582.483	27906.82
582.681	27583.24
582.878	27644.68
583.076	27155.21
583.274	27532.04
583.471	27151.12
583.669	27429.64
583.866	27093.77
584.064	27249.42
584.262	26845.97
584.459	27169.55
584.657	26878.74
584.854	27396.87
585.052	26657.56
585.249	26802.96
585.447	26737.43
585.644	26745.62
585.841	26604.31
586.039	26866.45
586.236	26616.6
586.434	26579.73
586.631	26266.39
586.828	26241.82
587.026	26311.45
587.223	26032.93
587.42	26120.99
587.618	26223.39
587.815	25875.23
588.012	26055.45
588.21	26149.66
588.407	26307.35
588.604	25733.92
588.801	25676.58
588.999	25658.15
589.196	25733.92
589.393	25428.77
589.59	25228.07
589.787	25580.32
589.984	25426.73
590.182	25266.99
590.379	25561.89
590.576	25320.23
590.773	25463.59
590.97	24834.86
591.167	25223.98
591.364	24822.58
591.561	25107.24
591.758	24578.87
591.955	24769.33
592.152	24869.68
592.349	24836.91
592.546	25015.08
592.743	24765.23
592.94	24388.41
593.137	24804.14
593.334	24492.85
593.531	24519.48
593.727	24525.62
593.924	24404.79
594.121	24107.83
594.318	24263.48
594.515	23894.85
594.712	24402.74
594.908	24490.8
595.105	24042.3
595.302	23817.02
595.499	24189.75
595.696	23821.12
595.892	23642.95
596.089	23808.83
596.286	23614.27
596.482	23753.54
596.679	23761.73
596.876	23384.9
597.072	23180.1
597.269	23280.46
597.466	23214.92
597.662	23216.97
597.859	23239.5
598.055	23440.2
598.252	23180.1
598.448	23268.17
598.645	23042.89
598.841	23057.23
599.038	23173.96
599.234	22856.53
599.431	22651.73
599.627	22393.68
599.824	22872.91
600.02	23073.61
600.217	22610.77
600.413	22225.75
600.609	22424.4
600.806	22465.36
601.002	22367.06
601.198	22469.46
601.395	22233.94
601.591	22178.65
601.787	22453.08
601.984	22256.47
602.18	22307.67
602.376	21969.76
602.572	21658.46
602.769	22041.43
602.965	21748.57
603.161	21893.98
603.357	21756.77
603.553	21576.55
603.75	21738.33
603.946	21625.7
604.142	21707.62
604.338	21349.22
604.534	21349.22
604.73	21326.69
604.926	21064.55
605.122	21736.29
605.318	21158.76
605.514	21044.07
605.71	20925.29
605.906	21166.95
606.102	21318.5
606.298	20913
606.494	20935.53
606.69	20953.96
606.886	20597.62
607.082	20509.55
607.278	20808.56
607.474	20642.67
607.67	20695.92
607.866	20407.16
608.062	20958.06
608.257	20695.92
608.453	20714.35
608.649	20704.11
608.845	20425.59
609.041	20525.94
609.236	20546.42
609.432	20304.76
609.628	20388.72
609.824	20235.13
610.019	20206.45
610.215	20173.69
610.411	20255.61
610.606	20292.47
610.802	20102.01
610.998	20138.87
611.193	20429.68
611.389	19610.5
611.584	19784.57
611.78	19866.49
611.976	19856.25
612.171	20013.95
612.367	19772.28
612.562	19809.15
612.758	19637.12
612.953	19460.99
613.149	19739.52
613.344	19465.09
613.539	19946.36
613.735	19626.88
613.93	19716.99
614.126	19499.91
614.321	19547.01
614.517	19264.39
614.712	19446.66
614.907	19223.43
615.103	19622.78
615.298	19397.51
615.493	19268.48
615.688	19164.04
615.884	19407.75
616.079	18920.33
616.274	19266.44
616.47	19075.98
616.665	18965.39
616.86	19180.42
617.055	19000.2
617.25	18733.96
617.445	19084.17
617.641	18779.02
617.836	19022.73
618.031	18631.57
618.226	18959.24
618.421	18736.01
618.616	18799.5
618.811	18303.89
619.006	18541.46
619.201	18215.83
619.396	18242.45
619.591	17988.5
619.786	18359.19
619.981	18217.88
620.176	18312.08
620.371	17912.73
620.566	17920.92
620.761	17920.92
620.956	17912.73
621.151	17484.7
621.346	17740.7
621.541	17531.81
621.735	17839
621.93	17349.54
622.125	17480.61
622.32	16966.57
622.515	17150.88
622.709	17001.38
622.904	16855.98
623.099	16683.95
623.294	17185.7
623.488	16753.58
623.683	16737.2
623.878	16366.51
624.072	16823.21
624.267	16364.46
624.462	16257.97
624.656	16350.13
624.851	16032.69
625.046	16208.82
625.24	16358.32
625.435	15793.08
625.629	15940.54
625.824	15784.89
626.018	15928.25
626.213	15350.72
626.407	15641.53
626.602	15428.54
626.796	15555.52
626.991	15535.04
627.185	15406.02
627.38	14992.33
627.574	15096.77
627.768	15000.52
627.963	15031.24
628.157	14687.18
628.352	14982.09
628.546	14523.34
628.74	14818.25
628.935	14494.67
629.129	14691.27
629.323	14420.94
629.517	14382.03
629.712	14263.25
629.906	14494.67
630.1	14113.75
630.294	14242.77
630.489	14058.45
630.683	13980.63
630.877	13913.05
631.071	13845.46
631.265	13677.53
631.459	13777.88
631.653	13595.61
631.848	13353.95
632.042	13366.24
632.236	13614.04
632.43	13206.5
632.624	13220.83
632.818	13009.89
633.012	13118.43
633.206	13194.21
633.4	13224.93
633.594	12946.41
633.788	12753.9
633.982	12934.12
634.176	12712.94
634.369	12600.3
634.563	12606.44
634.757	12405.74
634.951	12737.51
635.145	12481.52
635.339	12383.21
635.533	12264.43
635.726	12133.36
635.92	11996.15
636.114	12180.46
636.308	11992.05
636.501	11957.24
636.695	11959.28
636.889	11801.59
637.083	11957.24
637.276	11627.51
637.47	11451.39
637.664	11557.88
637.857	11719.67
638.051	11613.18
638.244	11443.2
638.438	11426.81
638.632	11265.02
638.825	11035.65
639.019	11222.02
639.212	11242.5
639.406	11222.02
639.599	10802.18
639.793	11013.12
639.986	10724.36
640.18	10775.56
640.373	10841.09
640.567	10478.6
640.76	10787.85
640.954	10566.67
641.147	10486.79
641.34	10554.38
641.534	10454.03
641.727	10505.23
641.92	10314.77
642.114	10386.44
642.307	10310.67
642.5	10097.68
642.694	9974.8
642.887	9989.14
643.08	10208.27
643.273	9841.68
643.467	9833.49
643.66	9710.61
643.853	9634.84
644.046	9808.92
644.239	9505.82
644.432	9583.64
644.626	9550.87
644.819	9567.26
645.012	9411.61
645.205	9442.33
645.398	9483.29
645.591	9255.97
645.784	9319.45
645.977	9032.74
646.17	9016.35
646.363	8918.05
646.556	8858.66
646.749	9088.03
646.942	9153.57
647.135	8965.15
647.328	8805.41
647.521	8916
647.714	8680.49
647.907	8700.97
648.099	8504.36
648.292	8723.49
648.485	8588.33
648.678	8688.68
648.871	8420.39
649.064	8590.38
649.256	8377.39
649.449	8451.11
649.642	8287.28
649.835	8399.91
650.027	8252.46
650.22	8238.12
650.413	8139.82
650.605	8090.67
650.798	8025.14
650.991	7898.16
651.183	8004.66
651.376	7904.31
651.568	8059.95
651.761	7701.56
651.954	7810.1
652.146	7730.23
652.339	7664.69
652.531	7656.5
652.724	7633.97
652.916	7554.1
653.109	7482.42
653.301	7679.03
653.494	7652.41
653.686	7345.21
653.879	7482.42
654.071	7404.6
654.263	7218.24
654.456	7461.94
654.648	7236.67
654.84	7283.77
655.033	7142.46
655.225	7287.87
655.417	7052.35
655.61	7375.93
655.802	7322.68
655.994	7208
656.186	6915.14
656.379	7048.26
656.571	7195.71
656.763	6773.83
656.955	6804.55
657.148	6718.53
657.34	6880.32
657.532	6437.96
657.724	6739.01
657.916	6808.64
658.108	6753.35
658.3	6519.88
658.492	6612.04
658.684	6458.44
658.876	6640.71
659.068	6536.26
659.26	6376.52
659.452	6319.18
659.644	6360.14
659.836	6362.19
660.028	6317.13
660.22	6122.57
660.412	6278.22
660.604	6315.08
660.796	6423.62
660.988	6341.71
661.18	6100.05
661.372	6114.38
661.563	6241.36
661.755	6048.85
661.947	5995.6
662.139	6128.72
662.331	5872.72
662.522	5950.54
662.714	5923.92
662.906	5735.51
663.097	5901.39
663.289	5758.03
663.481	5739.6
663.673	5846.1
663.864	5647.44
664.056	5778.51
664.247	5819.47
664.439	5686.36
664.631	5635.16
664.822	5723.22
665.014	5655.64
665.205	5598.29
665.397	5680.21
665.588	5543
665.78	5577.81
665.971	5622.87
666.163	5631.06
666.354	5499.99
666.546	5418.07
666.737	5198.94
666.929	5360.73
667.12	5475.42
667.311	5401.69
667.503	5323.87
667.694	5313.63
667.885	5289.05
668.077	5231.71
668.268	5237.85
668.459	5512.28
668.651	5256.28
668.842	5061.73
669.033	5223.51
669.224	5104.73
669.416	5270.62
669.607	5108.83
669.798	4998.24
669.989	5176.41
670.18	5100.64
670.371	4990.05
670.563	5008.48
670.754	5057.63
670.945	4893.79
671.136	5047.39
671.327	5022.81
671.518	5047.39
671.709	5157.98
671.9	5112.92
672.091	4944.99
672.282	5055.58
672.473	4944.99
672.664	4822.11
672.855	4838.5
673.046	4955.23
673.237	4990.05
673.428	4762.72
673.619	5074.01
673.809	4756.58
674	4822.11
674.191	4891.74
674.382	4998.24
674.573	4779.11
674.764	4715.62
674.954	4828.26
675.145	4713.57
675.336	4699.23
675.527	4881.5
675.717	4668.52
675.908	4725.86
676.099	4682.85
676.289	4680.8
676.48	4686.95
676.671	4590.69
676.861	4715.62
677.052	4723.81
677.243	4697.19
677.433	4662.37
677.624	4789.35
677.814	4613.22
678.005	4725.86
678.195	4611.17
678.386	4699.23
678.576	4584.55
678.767	4689
678.957	4680.8
679.148	4756.58
679.338	4695.14
679.529	4750.43
679.719	4570.21
679.909	4805.73
680.1	4672.61
680.29	4621.41
680.481	4607.08
680.671	4762.72
680.861	4668.52
681.052	4691.04
681.242	4611.17
681.432	4676.71
681.622	4570.21
681.813	4723.81
682.003	4531.3
682.193	4605.03
682.383	4609.12
682.573	4666.47
682.764	4621.41
682.954	4734.05
683.144	4664.42
683.334	4717.67
683.524	4701.28
683.714	4617.32
683.904	4596.84
684.094	4623.46
684.284	4594.79
684.474	4629.6
684.664	4586.6
684.854	4572.26
685.044	4582.5
685.234	4430.95
685.424	4564.07
685.614	4502.63
685.804	4627.56
685.994	4549.73
686.184	4480.1
686.374	4562.02
686.564	4453.48
686.753	4598.88
686.943	4506.73
687.133	4408.42
687.323	4455.53
687.513	4496.49
687.702	4473.96
687.892	4285.55
688.082	4314.22
688.272	4381.8
688.461	4369.51
688.651	4387.94
688.841	4209.77
689.03	4197.48
689.22	4150.38
689.41	4095.08
689.599	4125.8
689.789	4123.76
689.979	4189.29
690.168	4205.67
690.358	4072.56
690.547	4086.89
690.737	4107.37
690.926	3976.3
691.116	4039.79
691.305	4197.48
691.495	4031.6
691.684	4013.17
691.874	4095.08
692.063	3898.48
692.252	3925.1
692.442	4025.45
692.631	3859.57
692.82	3845.23
693.01	3929.2
693.199	3894.38
693.388	3894.38
693.578	3871.86
693.767	3810.42
693.956	3912.81
694.146	3939.44
694.335	3869.81
694.524	3681.39
694.713	3923.05
694.902	3861.62
695.092	3927.15
695.281	3810.42
695.47	3806.32
695.659	3927.15
695.848	3751.03
696.037	3781.74
696.226	3775.6
696.415	3716.21
696.604	3851.38
696.793	3941.49
696.982	3837.04
697.171	3863.66
697.36	3837.04
697.549	3705.97
697.738	3765.36
697.927	3804.27
698.116	3787.89
698.305	3824.75
698.494	3773.55
698.683	3798.13
698.872	3759.22
699.061	3761.27
699.25	3744.88
699.438	3759.22
699.627	3720.31
699.816	3775.6
700.005	3673.2
700.193	3824.75
700.382	3914.86
700.571	3812.46
700.76	3822.7
700.948	3943.53
701.137	3798.13
701.326	3908.72
701.514	3814.51
701.703	3759.22
701.892	3632.24
702.08	3847.28
702.269	4025.45
702.457	3818.61
702.646	3839.09
702.834	3789.94
703.023	3808.37
703.212	3908.72
703.4	3878
703.589	3734.64
703.777	3779.7
703.965	3839.09
704.154	3798.13
704.342	3888.24
704.531	3955.82
704.719	3941.49
704.907	4052.08
705.096	3812.46
705.284	4023.41
705.472	4056.17
705.661	3947.63
705.849	4009.07
706.037	3867.76
706.226	3918.96
706.414	3961.97
706.602	3878
706.79	3916.91
706.979	4000.88
707.167	3935.34
707.355	3853.42
707.543	3978.35
707.731	3970.16
707.919	3855.47
708.107	4035.69
708.296	4000.88
708.484	3984.49
708.672	4082.8
708.86	3998.83
709.048	3896.43
709.236	3980.4
709.424	4031.6
709.612	4125.8
709.8	3900.53
709.988	3921.01
710.176	4140.14
710.364	4045.93
710.551	4037.74
710.739	3976.3
710.927	4097.13
711.115	3929.2
711.303	4146.28
711.491	4105.32
711.679	4029.55
711.866	4035.69
712.054	3994.73
712.242	4050.03
712.43	4195.43
712.617	4101.23
712.805	4183.15
712.993	4127.85
713.181	4121.71
713.368	4101.23
713.556	4295.79
713.744	3951.73
713.931	4168.81
714.119	4195.43
714.306	4099.18
714.494	4158.57
714.682	4072.56
714.869	4064.36
715.057	4062.32
715.244	4146.28
715.432	4232.3
715.619	4054.12
715.807	4240.49
715.994	4162.67
716.182	4146.28
716.369	4267.11
716.556	4166.76
716.744	4187.24
716.931	4260.97
717.119	4355.18
717.306	4246.63
717.493	4195.43
717.681	4220.01
717.868	4174.95
718.055	4258.92
718.242	4201.58
718.43	4306.02
718.617	4275.31
718.804	4318.31
718.991	4271.21
719.179	4416.62
719.366	4242.54
719.553	4301.93
719.74	4105.32
719.927	4250.73
720.114	4217.96
720.301	4248.68
720.488	4232.3
720.676	4250.73
720.863	4285.55
721.05	4461.67
721.237	4228.2
721.424	4336.74
721.611	4283.5
721.798	4283.5
721.985	4205.67
722.172	4295.79
722.358	4283.5
722.545	4316.26
722.732	4308.07
722.919	4430.95
723.106	4318.31
723.293	4361.32
723.48	4344.94
723.667	4271.21
723.853	4422.76
724.04	4435.05
724.227	4314.22
724.414	4336.74
724.6	4281.45
724.787	4361.32
724.974	4428.9
725.161	4369.51
725.347	4269.16
725.534	4379.75
725.72	4420.71
725.907	4263.02
726.094	4385.9
726.28	4195.43
726.467	4363.37
726.653	4373.61
726.84	4340.84
727.027	4471.91
727.213	4158.57
727.4	4349.03
727.586	4222.06
727.773	4416.62
727.959	4275.31
728.145	4330.6
728.332	4383.85
728.518	4316.26
728.705	4453.48
728.891	4379.75
729.077	4297.83
729.264	4424.81
729.45	4342.89
729.636	4449.38
729.823	4222.06
730.009	4373.61
730.195	4308.07
730.382	4299.88
730.568	4402.28
730.754	4336.74
730.94	4185.19
731.126	4396.14
731.313	4373.61
731.499	4424.81
731.685	4527.21
731.871	4383.85
732.057	4312.17
732.243	4465.77
732.429	4355.18
732.615	4529.25
732.801	4316.26
732.987	4185.19
733.173	4267.11
733.359	4328.55
733.545	4355.18
733.731	4207.72
733.917	4410.47
734.103	4359.27
734.289	4453.48
734.475	4297.83
734.661	4461.67
734.847	4383.85
735.033	4457.57
735.219	4193.39
735.404	4363.37
735.59	4387.94
735.776	4228.2
735.962	4385.9
736.148	4342.89
736.333	4281.45
736.519	4396.14
736.705	4279.4
736.89	4099.18
737.076	4220.01
737.262	4140.14
737.447	4136.04
737.633	4299.88
737.819	4281.45
738.004	4138.09
738.19	4252.78
738.375	4246.63
738.561	4244.59
738.747	4179.05
738.932	4043.88
739.118	4265.07
739.303	4293.74
739.489	4242.54
739.674	4060.27
739.859	4179.05
740.045	3998.83
740.23	4097.13
740.416	4078.7
740.601	4148.33
740.786	3992.69
740.972	4084.84
741.157	4109.42
741.342	4056.17
741.528	3951.73
741.713	4052.08
741.898	3921.01
742.084	4017.26
742.269	4074.6
742.454	4072.56
742.639	3880.05
742.824	3802.22
743.01	3968.11
743.195	3959.92
743.38	3810.42
743.565	3855.47
743.75	3857.52
743.935	3853.42
744.12	3837.04
744.305	3845.23
744.49	3812.46
744.675	3822.7
744.86	3818.61
745.045	3738.74
745.23	3740.79
745.415	3740.79
745.6	3767.41
745.785	3546.23
745.97	3796.08
746.155	3585.14
746.34	3671.15
746.525	3570.8
746.71	3619.96
746.895	3525.75
747.079	3417.21
747.264	3499.13
747.449	3499.13
747.634	3427.45
747.819	3533.94
748.003	3368.06
748.188	3366.01
748.373	3255.42
748.557	3222.65
748.742	3400.82
748.927	3181.69
749.111	3318.9
749.296	3187.83
749.481	3263.61
749.665	3085.44
749.85	3155.07
750.034	3288.18
750.219	3042.43
750.404	3159.16
750.588	3183.74
750.773	3099.77
750.957	3073.15
751.141	3038.33
751.326	3030.14
751.51	3009.66
751.695	3110.01
751.879	3042.43
752.064	2915.45
752.248	2903.17
752.432	3007.61
752.617	2993.28
752.801	2872.45
752.985	2835.58
753.17	2911.36
753.354	2845.82
753.538	2722.95
753.722	2716.8
753.907	2786.43
754.091	2712.71
754.275	2686.08
754.459	2669.7
754.643	2700.42
754.828	2673.79
755.012	2593.92
755.196	2442.37
755.38	2571.4
755.564	2608.26
755.748	2593.92
755.932	2555.01
756.116	2600.07
756.3	2616.45
756.484	2514.05
756.668	2434.18
756.852	2477.19
757.036	2358.41
757.22	2407.56
757.404	2376.84
757.588	2315.4
757.772	2403.46
757.956	2292.87
758.14	2362.5
758.323	2178.19
758.507	2311.3
758.691	2243.72
758.875	2335.88
759.059	2333.83
759.242	2208.9
759.426	2186.38
759.61	2213
759.794	2131.08
759.977	2235.53
760.161	2315.4
760.345	2067.6
760.528	2200.71
760.712	2114.7
760.895	2077.83
761.079	2077.83
761.263	2073.74
761.446	2012.3
761.63	1997.96
761.813	1997.96
761.997	2032.78
762.18	2102.41
762.364	1954.96
762.547	1891.47
762.731	2016.4
762.914	1936.53
763.098	1971.34
763.281	1932.43
763.464	1887.37
763.648	1897.61
763.831	1864.85
764.015	1725.58
764.198	2028.68
764.381	1877.13
764.564	1938.57
764.748	1813.65
764.931	1993.87
765.114	1920.14
765.297	1877.13
765.481	1795.22
765.664	1883.28
765.847	1735.82
766.03	1864.85
766.213	1789.07
766.397	1916.05
766.58	1680.53
766.763	1815.69
766.946	1737.87
767.129	1766.54
767.312	1744.02
767.495	1723.54
767.678	1719.44
767.861	1817.74
768.044	1703.06
768.227	1674.39
768.41	1735.82
768.593	1768.59
768.776	1631.38
768.959	1701.01
769.142	1809.55
769.324	1641.62
769.507	1614.99
769.69	1649.81
769.873	1664.15
770.056	1729.68
770.239	1660.05
770.421	1682.58
770.604	1727.63
770.787	1606.8
770.97	1547.41
771.152	1569.94
771.335	1653.91
771.518	1496.21
771.7	1637.52
771.883	1535.12
772.066	1580.18
772.248	1545.36
772.431	1547.41
772.613	1635.47
772.796	1473.68
772.978	1522.84
773.161	1496.21
773.343	1438.87
773.526	1463.44
773.708	1428.63
773.891	1447.06
774.073	1514.64
774.256	1455.25
774.438	1539.22
774.621	1432.72
774.803	1418.39
774.985	1381.53
775.168	1492.12
775.35	1340.57
775.532	1406.1
775.715	1320.09
775.897	1422.48
776.079	1318.04
776.261	1344.66
776.444	1399.96
776.626	1234.07
776.808	1250.46
776.99	1229.98
777.173	1291.41
777.355	1275.03
777.537	1238.17
777.719	1258.65
777.901	1193.11
778.083	1127.58
778.265	1211.54
778.447	1209.5
778.629	1141.91
778.811	1232.02
778.993	1166.49
779.175	1141.91
779.357	1107.1
779.539	1137.82
779.721	1121.43
779.903	1121.43
780.085	1148.06
780.267	1164.44
780.449	1156.25
780.631	1135.77
780.812	1096.86
780.994	1033.37
781.176	1066.14
781.358	1031.32
781.54	986.27
781.721	1135.77
781.903	1051.8
782.085	1019.04
782.267	1014.94
782.448	1031.32
782.63	933.02
782.812	949.4
782.993	1014.94
783.175	1023.13
783.357	914.59
783.538	1086.62
783.72	875.68
783.901	939.16
784.083	924.83
784.264	900.25
784.446	844.96
784.627	859.29
784.809	863.39
784.99	799.9
785.172	896.16
785.353	865.44
785.535	853.15
785.716	834.72
785.897	763.04
786.079	799.9
786.26	892.06
786.441	867.49
786.623	799.9
786.804	855.2
786.985	828.57
787.167	855.2
787.348	662.69
787.529	732.32
787.71	828.57
787.891	797.85
788.073	742.56
788.254	726.18
788.435	795.81
788.616	750.75
788.797	689.31
788.978	652.45
789.159	715.94
789.34	724.13
789.522	685.22
789.703	672.93
789.884	736.42
790.065	715.94
790.246	707.74
790.427	703.65
790.607	758.94
790.788	652.45
790.969	660.64
791.15	646.3
791.331	582.82
791.512	715.94
791.693	636.06
791.874	597.15
792.054	705.7
792.235	621.73
792.416	576.67
792.597	597.15
792.778	625.83
792.958	599.2
793.139	636.06
793.32	578.72
793.5	513.19
793.681	650.4
793.862	564.39
794.042	566.43
794.223	531.62
794.404	537.76
794.584	429.22
794.765	453.8
794.945	578.72
795.126	607.39
795.306	629.92
795.487	523.43
795.667	554.15
795.848	556.19
796.028	554.15
796.209	552.1
796.389	545.95
796.57	521.38
796.75	502.95
796.93	504.99
797.111	554.15
797.291	470.18
797.471	566.43
797.652	423.08
797.832	476.32
798.012	507.04
798.192	517.28
798.373	421.03
798.553	461.99
798.733	490.66
798.913	468.13
799.093	519.33
799.274	457.89
799.454	531.62
799.634	523.43
799.814	552.1
799.994	476.32
800.174	445.6
800.354	388.26
800.534	498.85
800.714	451.75
800.894	402.6
801.074	414.88
801.254	449.7
801.434	488.61
801.614	380.07
801.794	353.45
801.974	1471.64
802.154	429.22
802.334	531.62
802.514	343.21
802.693	410.79
802.873	412.84
803.053	461.99
803.233	431.27
803.413	445.6
803.592	347.3
803.772	453.8
803.952	357.54
804.131	449.7
804.311	378.02
804.491	429.22
804.67	339.11
804.85	283.81
805.03	365.73
805.209	425.12
805.389	353.45
805.568	335.01
805.748	375.97
805.928	330.92
806.107	390.31
806.287	392.36
806.466	410.79
806.646	322.73
806.825	298.15
807.004	326.82
807.184	302.25
807.363	332.97
807.543	347.3
807.722	300.2
807.901	398.5
808.081	461.99
808.26	332.97
808.439	353.45
808.619	382.12
808.798	289.96
808.977	312.49
809.156	306.34
809.336	246.95
809.515	351.4
809.694	287.91
809.873	279.72
810.052	275.62
810.231	312.49
810.411	230.57
810.59	349.35
810.769	269.48
810.948	359.59
811.127	332.97
811.306	232.62
811.485	187.56
811.664	355.49
811.843	355.49
812.022	306.34
812.201	263.33
812.38	281.77
812.559	232.62
812.737	306.34
812.916	287.91
813.095	232.62
813.274	273.57
813.453	287.91
813.632	304.29
813.811	285.86
813.989	140.46
814.168	218.28
814.347	224.42
814.526	199.85
814.704	324.77
814.883	253.09
815.062	230.57
815.24	222.38
815.419	146.6
815.598	302.25
815.776	148.65
815.955	287.91
816.133	201.9
816.312	316.58
816.49	144.55
816.669	251.05
816.847	218.28
817.026	308.39
817.204	169.13
817.383	214.18
817.561	277.67
817.74	226.47
817.918	232.62
818.097	156.84
818.275	244.9
818.453	281.77
818.632	214.18
818.81	189.61
818.988	203.94
819.167	199.85
819.345	191.66
819.523	169.13
819.701	183.46
819.879	244.9
820.058	228.52
820.236	205.99
820.414	210.09
820.592	232.62
820.77	140.46
820.948	167.08
821.127	154.79
821.305	210.09
821.483	136.36
821.661	205.99
821.839	195.75
822.017	111.78
822.195	226.47
822.373	191.66
822.551	197.8
822.729	208.04
822.907	160.94
823.085	205.99
823.262	154.79
823.44	128.17
823.618	189.61
823.796	142.5
823.974	193.7
824.152	144.55
824.329	195.75
824.507	205.99
824.685	222.38
824.863	60.59
825.04	169.13
825.218	175.27
825.396	70.83
825.574	142.5
825.751	179.37
825.929	140.46
826.107	68.78
826.284	179.37
826.462	136.36
826.639	85.16
826.817	99.5
826.994	144.55
827.172	148.65
827.349	165.03
827.527	117.93
827.704	124.07
827.882	228.52
828.059	205.99
828.237	107.69
828.414	154.79
828.591	50.35
828.769	128.17
828.946	89.26
829.124	197.8
829.301	122.02
829.478	134.31
829.655	232.62
829.833	117.93
830.01	93.35
830.187	113.83
830.364	126.12
830.542	154.79
830.719	195.75
830.896	113.83
831.073	201.9
831.25	177.32
831.427	169.13
831.604	236.71
831.782	91.31
831.959	144.55
832.136	132.26
832.313	136.36
832.49	152.74
832.667	177.32
832.844	119.98
833.021	68.78
833.198	140.46
833.374	173.22
833.551	95.4
833.728	95.4
833.905	244.9
834.082	58.54
834.259	128.17
834.436	126.12
834.612	171.18
834.789	199.85
834.966	101.55
835.143	76.97
835.319	29.87
835.496	185.51
835.673	193.7
835.85	93.35
836.026	128.17
836.203	93.35
836.38	76.97
836.556	89.26
836.733	62.63
836.909	179.37
837.086	54.44
837.262	52.39
837.439	66.73
837.616	119.98
837.792	119.98
837.968	79.02
838.145	-15.19
838.321	60.59
838.498	138.41
838.674	52.39
838.851	62.63
839.027	70.83
839.203	25.77
839.38	38.06
839.556	122.02
839.732	101.55
839.909	144.55
840.085	52.39
840.261	50.35
840.437	122.02
840.614	140.46
840.79	150.7
840.966	195.75
841.142	107.69
841.318	72.87
841.494	44.2
841.671	111.78
841.847	25.77
842.023	-37.72
842.199	48.3
842.375	66.73
842.551	-60.24
842.727	72.87
842.903	171.18
843.079	-33.62
843.255	134.31
843.431	64.68
843.607	44.2
843.783	-9.05
843.959	117.93
844.134	56.49
844.31	146.6
844.486	25.77
844.662	-2.9
844.838	62.63
845.013	167.08
845.189	48.3
845.365	128.17
845.541	36.01
845.716	103.59
845.892	126.12
846.068	58.54
846.244	31.91
846.419	109.74
846.595	40.11
846.77	38.06
846.946	136.36
847.122	-7
847.297	11.43
847.473	54.44
847.648	-9.05
847.824	44.2
847.999	-47.96
848.175	40.11
848.35	40.11
848.526	91.31
848.701	109.74
848.876	136.36
849.052	44.2
849.227	64.68
849.403	15.53
849.578	54.44
849.753	93.35
849.929	60.59
850.104	3.24
850.279	19.63
850.454	1.19
850.63	87.21
850.805	19.63
850.98	1.19
851.155	-37.72
851.33	111.78
851.505	50.35
851.681	103.59
851.856	-50
852.031	54.44
852.206	19.63
852.381	-19.29
852.556	5.29
852.731	-7
852.906	56.49
853.081	44.2
853.256	134.31
853.431	48.3
853.606	23.72
853.781	-9.05
853.956	-15.19
854.131	40.11
854.305	-15.19
854.48	-15.19
854.655	81.07
854.83	31.91
855.005	23.72
855.18	31.91
855.354	-39.76
855.529	68.78
855.704	-19.29
855.879	107.69
856.053	17.58
856.228	42.15
856.403	-7
856.577	31.91
856.752	-21.33
856.926	-15.19
857.101	-21.33
857.276	-54.1
857.45	-25.43
857.625	52.39
857.799	13.48
857.974	-39.76
858.148	29.87
858.323	29.87
858.497	1.19
858.672	25.77
858.846	-47.96
859.02	48.3
859.195	-2.9
859.369	-54.1
859.543	33.96
859.718	5.29
859.892	36.01
860.066	68.78
860.241	-72.53
860.415	-2.9
860.589	-74.58
860.763	17.58
860.938	11.43
861.112	11.43
861.286	79.02
861.46	19.63
861.634	-47.96
861.808	-0.85
861.982	60.59
862.157	13.48
862.331	-33.62
862.505	-9.05
862.679	13.48
862.853	-11.09
863.027	-25.43
863.201	48.3
863.375	-105.3
863.549	54.44
863.722	-9.05
863.896	-13.14
864.07	19.63
864.244	-37.72
864.418	111.78
864.592	-21.33
864.766	33.96
864.939	11.43
865.113	72.87
865.287	19.63
865.461	-43.86
865.634	79.02
865.808	60.59
865.982	29.87
866.156	25.77
866.329	-76.63
866.503	27.82
866.676	-33.62
866.85	40.11
867.024	5.29
867.197	7.34
867.371	46.25
867.544	-35.67
867.718	-70.48
867.891	13.48
868.065	-37.72
868.238	23.72
868.412	42.15
868.585	-13.14
868.759	-43.86
868.932	-45.91
869.105	36.01
869.279	-29.52
869.452	19.63
869.625	40.11
869.799	62.63
869.972	-56.15
870.145	58.54
870.319	-11.09
870.492	36.01
870.665	-9.05
870.838	-17.24
871.011	-97.11
871.185	-62.29
871.358	-80.72
871.531	7.34
871.704	7.34
871.877	-27.48
872.05	-4.95
872.223	-29.52
872.396	29.87
872.569	31.91
872.742	-60.24
872.915	72.87
873.088	-35.67
873.261	-43.86
873.434	42.15
873.607	-21.33
873.78	70.83
873.953	-62.29
874.126	21.67
874.299	-21.33
874.471	3.24
874.644	-2.9
874.817	-33.62
874.99	85.16
875.163	3.24
875.335	1.19
875.508	36.01
875.681	68.78
875.853	-50
876.026	-52.05
876.199	19.63
876.371	-17.24
876.544	13.48
876.717	13.48
876.889	-64.34
877.062	11.43
877.234	-37.72
877.407	-35.67
877.579	-4.95
877.752	-7
877.924	42.15
878.097	-7
878.269	50.35
878.442	25.77
878.614	-86.87
878.786	-11.09
878.959	23.72
879.131	52.39
879.303	-31.57
879.476	40.11
879.648	21.67
879.82	-37.72
879.993	-88.92
880.165	46.25
880.337	-47.96
880.509	27.82
880.681	-35.67
880.854	-45.91
881.026	46.25
881.198	46.25
881.37	-60.24
881.542	-78.68
881.714	-31.57
881.886	3.24
882.058	9.39
882.23	-29.52
882.402	-74.58
882.574	15.53
882.746	19.63
882.918	7.34
883.09	70.83
883.262	36.01
883.434	-41.81
883.606	-15.19
883.778	3.24
883.95	68.78
884.122	-68.44
884.293	52.39
884.465	-70.48
884.637	-19.29
884.809	-60.24
884.98	40.11
885.152	19.63
885.324	-0.85
885.496	-45.91
885.667	-4.95
885.839	-23.38
886.011	7.34
886.182	-9.05
886.354	91.31
886.525	5.29
886.697	-27.48
886.869	-76.63
887.04	-90.96
887.212	60.59
887.383	68.78
887.555	-2.9
887.726	-86.87
887.897	-54.1
888.069	3.24
888.24	-21.33
888.412	-52.05
888.583	-27.48
888.754	13.48
888.926	-88.92
889.097	-56.15
889.268	-58.2
889.44	15.53
889.611	-88.92
889.782	-13.14
889.953	-23.38
890.125	33.96
890.296	-50
890.467	36.01
890.638	-21.33
890.809	-68.44
890.98	-107.35
891.151	5.29
891.323	-15.19
891.494	58.54
891.665	-2.9
891.836	36.01
892.007	-2.9
892.178	-33.62
892.349	-41.81
892.52	-15.19
892.691	-7
892.862	25.77
893.032	-117.59
893.203	-17.24
893.374	3.24
893.545	44.2
893.716	-56.15
893.887	13.48
894.057	-52.05
894.228	-35.67
894.399	-13.14
894.57	-11.09
894.74	3.24
894.911	-33.62
895.082	-7
895.253	-58.2
895.423	-39.76
895.594	-11.09
895.764	-23.38
895.935	-43.86
896.106	11.43
896.276	31.91
896.447	-11.09
896.617	5.29
896.788	-95.06
896.958	25.77
897.129	-52.05
897.299	-47.96
897.47	33.96
897.64	-43.86
897.81	-68.44
897.981	-29.52
898.151	-31.57
898.322	-54.1
898.492	11.43
898.662	-25.43
898.832	-76.63
899.003	15.53
899.173	-31.57
899.343	-43.86
899.513	25.77
