Data from USB4F104151__38__12-11-59-857.txt Node

Date: Fri Mar 14 12:11:59 EDT 2025
User: louis
Spectrometer: USB4F10415
Trigger mode: 4
Integration Time (sec): 5.000000E-2
Scans to average: 1
Electric dark correction enabled: true
Nonlinearity correction enabled: false
Boxcar width: 0
XAxis mode: Wavelengths
Number of Pixels in Spectrum: 3648
>>>>>Begin Spectral Data<<<<<
178.204	-224.08
178.424	-224.08
178.644	-224.08
178.864	-258.9
179.084	-285.52
179.304	-76.63
179.524	13.48
179.744	25.77
179.964	3.24
180.184	27.82
180.404	-4.95
180.624	-4.95
180.844	31.91
181.064	-33.62
181.283	-17.24
181.503	-9.05
181.723	44.2
181.943	-2.9
182.163	142.5
182.383	13.48
182.602	83.11
182.822	79.02
183.042	44.2
183.262	74.92
183.482	-19.29
183.701	-64.34
183.921	27.82
184.141	-4.95
184.361	36.01
184.58	3.24
184.8	11.43
185.02	83.11
185.239	76.97
185.459	-11.09
185.679	115.88
185.898	-47.96
186.118	56.49
186.338	68.78
186.557	99.5
186.777	87.21
186.997	7.34
187.216	17.58
187.436	119.98
187.655	58.54
187.875	85.16
188.095	-33.62
188.314	58.54
188.534	-25.43
188.753	27.82
188.973	48.3
189.192	124.07
189.412	-2.9
189.631	29.87
189.851	44.2
190.07	29.87
190.29	-45.91
190.509	1.19
190.729	33.96
190.948	122.02
191.168	240.81
191.387	60.59
191.607	-2.9
191.826	9.39
192.045	-25.43
192.265	42.15
192.484	128.17
192.704	-0.85
192.923	-0.85
193.142	156.84
193.362	52.39
193.581	103.59
193.8	46.25
194.02	-27.48
194.239	-7
194.458	103.59
194.678	46.25
194.897	33.96
195.116	83.11
195.335	113.83
195.555	95.4
195.774	-9.05
195.993	62.63
196.212	50.35
196.432	-95.06
196.651	33.96
196.87	9.39
197.089	138.41
197.308	33.96
197.528	101.55
197.747	-33.62
197.966	-29.52
198.185	132.26
198.404	81.07
198.623	113.83
198.842	66.73
199.062	87.21
199.281	21.67
199.5	81.07
199.719	62.63
199.938	76.97
200.157	124.07
200.376	89.26
200.595	5.29
200.814	109.74
201.033	72.87
201.252	91.31
201.471	68.78
201.69	56.49
201.909	113.83
202.128	52.39
202.347	93.35
202.566	52.39
202.785	-0.85
203.004	-4.95
203.223	197.8
203.442	42.15
203.661	13.48
203.879	17.58
204.098	13.48
204.317	-35.67
204.536	91.31
204.755	142.5
204.974	-11.09
205.193	64.68
205.411	148.65
205.63	132.26
205.849	27.82
206.068	-17.24
206.287	44.2
206.505	33.96
206.724	-9.05
206.943	64.68
207.162	-37.72
207.381	-21.33
207.599	29.87
207.818	72.87
208.037	64.68
208.255	23.72
208.474	79.02
208.693	95.4
208.911	56.49
209.13	50.35
209.349	21.67
209.567	93.35
209.786	76.97
210.005	74.92
210.223	23.72
210.442	-70.48
210.661	-4.95
210.879	83.11
211.098	48.3
211.316	31.91
211.535	13.48
211.753	9.39
211.972	25.77
212.191	29.87
212.409	50.35
212.628	115.88
212.846	-54.1
213.065	117.93
213.283	66.73
213.502	66.73
213.72	31.91
213.938	15.53
214.157	25.77
214.375	52.39
214.594	-47.96
214.812	56.49
215.031	-29.52
215.249	17.58
215.467	103.59
215.686	89.26
215.904	87.21
216.122	25.77
216.341	115.88
216.559	11.43
216.778	132.26
216.996	33.96
217.214	91.31
217.432	-19.29
217.651	9.39
217.869	31.91
218.087	-0.85
218.306	19.63
218.524	23.72
218.742	-64.34
218.96	85.16
219.179	54.44
219.397	70.83
219.615	103.59
219.833	50.35
220.051	-84.82
220.27	42.15
220.488	70.83
220.706	15.53
220.924	17.58
221.142	44.2
221.36	-13.14
221.578	-19.29
221.796	19.63
222.015	42.15
222.233	70.83
222.451	62.63
222.669	-4.95
222.887	99.5
223.105	17.58
223.323	5.29
223.541	-47.96
223.759	-2.9
223.977	-15.19
224.195	68.78
224.413	50.35
224.631	60.59
224.849	93.35
225.067	128.17
225.285	40.11
225.503	13.48
225.721	-64.34
225.939	23.72
226.157	81.07
226.375	146.6
226.592	-19.29
226.81	-33.62
227.028	23.72
227.246	152.74
227.464	66.73
227.682	76.97
227.9	85.16
228.117	46.25
228.335	-27.48
228.553	62.63
228.771	50.35
228.989	81.07
229.206	95.4
229.424	36.01
229.642	11.43
229.86	27.82
230.077	83.11
230.295	23.72
230.513	122.02
230.731	70.83
230.948	165.03
231.166	117.93
231.384	-35.67
231.601	89.26
231.819	130.22
232.037	-25.43
232.254	-72.53
232.472	25.77
232.689	-11.09
232.907	25.77
233.125	-7
233.342	25.77
233.56	-11.09
233.777	11.43
233.995	36.01
234.213	140.46
234.43	-2.9
234.648	48.3
234.865	1.19
235.083	-31.57
235.3	13.48
235.518	-4.95
235.735	103.59
235.953	36.01
236.17	58.54
236.388	38.06
236.605	33.96
236.822	103.59
237.04	25.77
237.257	56.49
237.475	-2.9
237.692	33.96
237.909	44.2
238.127	72.87
238.344	-13.14
238.562	74.92
238.779	-27.48
238.996	-58.2
239.214	72.87
239.431	105.64
239.648	-4.95
239.865	15.53
240.083	38.06
240.3	42.15
240.517	5.29
240.735	-35.67
240.952	150.7
241.169	103.59
241.386	29.87
241.603	-13.14
241.821	5.29
242.038	19.63
242.255	87.21
242.472	1.19
242.689	74.92
242.907	83.11
243.124	-25.43
243.341	-27.48
243.558	-47.96
243.775	21.67
243.992	-17.24
244.209	27.82
244.426	93.35
244.643	68.78
244.86	25.77
245.078	21.67
245.295	29.87
245.512	23.72
245.729	64.68
245.946	62.63
246.163	87.21
246.38	3.24
246.597	23.72
246.814	23.72
247.031	21.67
247.248	9.39
247.464	183.46
247.681	40.11
247.898	132.26
248.115	95.4
248.332	-23.38
248.549	40.11
248.766	91.31
248.983	89.26
249.2	-13.14
249.417	113.83
249.633	-99.16
249.85	60.59
250.067	-0.85
250.284	54.44
250.501	13.48
250.717	68.78
250.934	-62.29
251.151	31.91
251.368	52.39
251.585	42.15
251.801	36.01
252.018	-9.05
252.235	66.73
252.451	13.48
252.668	97.45
252.885	66.73
253.102	109.74
253.318	42.15
253.535	-23.38
253.752	64.68
253.968	-4.95
254.185	-76.63
254.401	52.39
254.618	-21.33
254.835	-50
255.051	111.78
255.268	9.39
255.484	87.21
255.701	-7
255.917	5.29
256.134	-2.9
256.351	36.01
256.567	13.48
256.784	95.4
257	-7
257.217	38.06
257.433	-27.48
257.65	54.44
257.866	68.78
258.082	25.77
258.299	-21.33
258.515	81.07
258.732	85.16
258.948	-43.86
259.165	36.01
259.381	1.19
259.597	66.73
259.814	124.07
260.03	68.78
260.246	46.25
260.463	81.07
260.679	85.16
260.895	33.96
261.112	19.63
261.328	23.72
261.544	-0.85
261.761	156.84
261.977	-2.9
262.193	-52.05
262.409	72.87
262.626	91.31
262.842	48.3
263.058	29.87
263.274	46.25
263.49	66.73
263.707	33.96
263.923	64.68
264.139	-80.72
264.355	42.15
264.571	117.93
264.787	19.63
265.004	101.55
265.22	85.16
265.436	76.97
265.652	48.3
265.868	89.26
266.084	70.83
266.3	36.01
266.516	11.43
266.732	83.11
266.948	72.87
267.164	56.49
267.38	52.39
267.596	48.3
267.812	162.98
268.028	79.02
268.244	58.54
268.46	17.58
268.676	33.96
268.892	21.67
269.108	83.11
269.324	38.06
269.54	-11.09
269.756	48.3
269.972	-37.72
270.188	-56.15
270.403	44.2
270.619	54.44
270.835	29.87
271.051	115.88
271.267	5.29
271.483	7.34
271.698	70.83
271.914	42.15
272.13	42.15
272.346	56.49
272.562	-45.91
272.777	62.63
272.993	-17.24
273.209	21.67
273.425	79.02
273.64	-27.48
273.856	9.39
274.072	-2.9
274.287	7.34
274.503	29.87
274.719	46.25
274.934	-9.05
275.15	46.25
275.366	56.49
275.581	38.06
275.797	93.35
276.012	46.25
276.228	15.53
276.444	56.49
276.659	3.24
276.875	70.83
277.09	38.06
277.306	11.43
277.521	103.59
277.737	56.49
277.952	70.83
278.168	31.91
278.383	7.34
278.599	7.34
278.814	105.64
279.03	-43.86
279.245	81.07
279.461	85.16
279.676	158.89
279.892	13.48
280.107	-15.19
280.322	19.63
280.538	58.54
280.753	-31.57
280.969	54.44
281.184	68.78
281.399	64.68
281.615	40.11
281.83	107.69
282.045	52.39
282.26	-15.19
282.476	-13.14
282.691	7.34
282.906	89.26
283.122	72.87
283.337	74.92
283.552	74.92
283.767	50.35
283.983	42.15
284.198	48.3
284.413	21.67
284.628	33.96
284.843	-25.43
285.058	15.53
285.274	-7
285.489	50.35
285.704	111.78
285.919	-2.9
286.134	58.54
286.349	58.54
286.564	9.39
286.779	29.87
286.995	58.54
287.21	23.72
287.425	29.87
287.64	19.63
287.855	128.17
288.07	-33.62
288.285	103.59
288.5	33.96
288.715	64.68
288.93	64.68
289.145	15.53
289.36	29.87
289.575	44.2
289.79	62.63
290.004	60.59
290.219	66.73
290.434	-4.95
290.649	23.72
290.864	83.11
291.079	23.72
291.294	19.63
291.509	99.5
291.724	13.48
291.938	-4.95
292.153	-11.09
292.368	85.16
292.583	91.31
292.798	124.07
293.012	23.72
293.227	93.35
293.442	-17.24
293.657	48.3
293.871	81.07
294.086	19.63
294.301	111.78
294.516	42.15
294.73	17.58
294.945	-47.96
295.16	-0.85
295.374	95.4
295.589	23.72
295.804	17.58
296.018	33.96
296.233	91.31
296.447	115.88
296.662	-35.67
296.877	48.3
297.091	115.88
297.306	1.19
297.52	52.39
297.735	38.06
297.949	11.43
298.164	46.25
298.378	44.2
298.593	27.82
298.807	50.35
299.022	-52.05
299.236	40.11
299.451	9.39
299.665	-0.85
299.88	33.96
300.094	48.3
300.309	38.06
300.523	42.15
300.737	46.25
300.952	3.24
301.166	44.2
301.381	19.63
301.595	-7
301.809	7.34
302.024	46.25
302.238	5.29
302.452	50.35
302.667	7.34
302.881	130.22
303.095	117.93
303.309	52.39
303.524	7.34
303.738	11.43
303.952	27.82
304.166	109.74
304.381	-76.63
304.595	56.49
304.809	54.44
305.023	76.97
305.237	81.07
305.452	1.19
305.666	76.97
305.88	111.78
306.094	54.44
306.308	60.59
306.522	81.07
306.736	-50
306.95	3.24
307.164	25.77
307.379	3.24
307.593	31.91
307.807	66.73
308.021	40.11
308.235	93.35
308.449	-7
308.663	58.54
308.877	152.74
309.091	29.87
309.305	136.36
309.519	11.43
309.733	76.97
309.947	40.11
310.161	146.6
310.374	91.31
310.588	124.07
310.802	95.4
311.016	40.11
311.23	68.78
311.444	50.35
311.658	62.63
311.872	140.46
312.085	68.78
312.299	119.98
312.513	44.2
312.727	5.29
312.941	1.19
313.154	42.15
313.368	36.01
313.582	-7
313.796	33.96
314.009	52.39
314.223	23.72
314.437	3.24
314.651	60.59
314.864	29.87
315.078	46.25
315.292	19.63
315.505	44.2
315.719	113.83
315.933	36.01
316.146	101.55
316.36	25.77
316.573	130.22
316.787	130.22
317.001	99.5
317.214	-35.67
317.428	38.06
317.641	-7
317.855	-7
318.068	81.07
318.282	76.97
318.495	105.64
318.709	76.97
318.922	48.3
319.136	76.97
319.349	105.64
319.563	-0.85
319.776	113.83
319.99	-33.62
320.203	99.5
320.417	70.83
320.63	70.83
320.843	150.7
321.057	50.35
321.27	48.3
321.483	146.6
321.697	17.58
321.91	60.59
322.124	40.11
322.337	60.59
322.55	-15.19
322.763	19.63
322.977	40.11
323.19	-47.96
323.403	25.77
323.617	130.22
323.83	42.15
324.043	33.96
324.256	79.02
324.469	31.91
324.683	48.3
324.896	50.35
325.109	21.67
325.322	9.39
325.535	-4.95
325.748	44.2
325.962	33.96
326.175	64.68
326.388	19.63
326.601	25.77
326.814	50.35
327.027	95.4
327.24	72.87
327.453	-4.95
327.666	87.21
327.879	31.91
328.092	-13.14
328.305	64.68
328.518	-4.95
328.731	23.72
328.944	79.02
329.157	62.63
329.37	44.2
329.583	140.46
329.796	93.35
330.009	-19.29
330.222	66.73
330.435	126.12
330.648	33.96
330.861	72.87
331.073	95.4
331.286	138.41
331.499	-17.24
331.712	-21.33
331.925	38.06
332.138	66.73
332.35	72.87
332.563	50.35
332.776	107.69
332.989	-25.43
333.202	64.68
333.414	52.39
333.627	17.58
333.84	-9.05
334.053	58.54
334.265	74.92
334.478	27.82
334.691	83.11
334.903	101.55
335.116	33.96
335.329	15.53
335.541	25.77
335.754	66.73
335.966	-33.62
336.179	-7
336.392	38.06
336.604	72.87
336.817	21.67
337.029	76.97
337.242	89.26
337.454	58.54
337.667	56.49
337.88	99.5
338.092	93.35
338.305	56.49
338.517	-27.48
338.729	83.11
338.942	60.59
339.154	-17.24
339.367	-54.1
339.579	9.39
339.792	13.48
340.004	97.45
340.217	-80.72
340.429	93.35
340.641	19.63
340.854	-2.9
341.066	38.06
341.278	85.16
341.491	122.02
341.703	33.96
341.915	-17.24
342.128	97.45
342.34	62.63
342.552	38.06
342.764	74.92
342.977	38.06
343.189	68.78
343.401	103.59
343.613	23.72
343.826	-21.33
344.038	-54.1
344.25	25.77
344.462	33.96
344.674	40.11
344.886	5.29
345.099	25.77
345.311	11.43
345.523	3.24
345.735	31.91
345.947	109.74
346.159	1.19
346.371	42.15
346.583	50.35
346.795	162.98
347.007	58.54
347.219	109.74
347.431	15.53
347.643	62.63
347.855	46.25
348.067	66.73
348.279	-58.2
348.491	109.74
348.703	33.96
348.915	11.43
349.127	58.54
349.339	93.35
349.551	-0.85
349.763	64.68
349.975	17.58
350.187	48.3
350.399	113.83
350.61	167.08
350.822	9.39
351.034	99.5
351.246	76.97
351.458	132.26
351.669	99.5
351.881	119.98
352.093	46.25
352.305	-35.67
352.517	64.68
352.728	76.97
352.94	54.44
353.152	107.69
353.363	11.43
353.575	58.54
353.787	156.84
353.999	68.78
354.21	165.03
354.422	-39.76
354.633	40.11
354.845	107.69
355.057	31.91
355.268	52.39
355.48	25.77
355.692	-54.1
355.903	40.11
356.115	50.35
356.326	-4.95
356.538	66.73
356.749	33.96
356.961	111.78
357.172	42.15
357.384	-21.33
357.595	152.74
357.807	33.96
358.018	-4.95
358.23	113.83
358.441	150.7
358.653	68.78
358.864	15.53
359.075	36.01
359.287	81.07
359.498	115.88
359.709	58.54
359.921	-29.52
360.132	23.72
360.344	68.78
360.555	76.97
360.766	66.73
360.977	105.64
361.189	97.45
361.4	58.54
361.611	117.93
361.823	70.83
362.034	68.78
362.245	5.29
362.456	7.34
362.667	66.73
362.879	23.72
363.09	124.07
363.301	101.55
363.512	111.78
363.723	44.2
363.935	48.3
364.146	81.07
364.357	33.96
364.568	40.11
364.779	-29.52
364.99	99.5
365.201	9.39
365.412	27.82
365.623	38.06
365.834	97.45
366.045	-4.95
366.256	87.21
366.467	36.01
366.678	105.64
366.889	107.69
367.1	36.01
367.311	83.11
367.522	-4.95
367.733	160.94
367.944	113.83
368.155	119.98
368.366	122.02
368.577	101.55
368.788	97.45
368.999	5.29
369.209	44.2
369.42	136.36
369.631	99.5
369.842	117.93
370.053	46.25
370.264	83.11
370.474	21.67
370.685	-7
370.896	21.67
371.107	72.87
371.317	13.48
371.528	74.92
371.739	158.89
371.95	117.93
372.16	89.26
372.371	-54.1
372.582	44.2
372.792	95.4
373.003	50.35
373.214	79.02
373.424	115.88
373.635	42.15
373.846	60.59
374.056	62.63
374.267	54.44
374.477	79.02
374.688	46.25
374.898	48.3
375.109	107.69
375.319	99.5
375.53	27.82
375.74	52.39
375.951	72.87
376.161	74.92
376.372	128.17
376.582	38.06
376.793	11.43
377.003	-11.09
377.214	48.3
377.424	48.3
377.635	31.91
377.845	48.3
378.055	95.4
378.266	-31.57
378.476	31.91
378.686	122.02
378.897	76.97
379.107	138.41
379.317	52.39
379.528	36.01
379.738	83.11
379.948	52.39
380.158	130.22
380.369	23.72
380.579	103.59
380.789	64.68
380.999	29.87
381.21	119.98
381.42	183.46
381.63	52.39
381.84	74.92
382.05	-0.85
382.261	89.26
382.471	68.78
382.681	64.68
382.891	79.02
383.101	54.44
383.311	11.43
383.521	27.82
383.731	23.72
383.941	154.79
384.151	126.12
384.361	72.87
384.571	5.29
384.781	60.59
384.991	134.31
385.201	54.44
385.411	117.93
385.621	83.11
385.831	29.87
386.041	130.22
386.251	158.89
386.461	68.78
386.671	38.06
386.881	58.54
387.091	158.89
387.301	99.5
387.511	74.92
387.72	87.21
387.93	103.59
388.14	-23.38
388.35	58.54
388.56	136.36
388.769	72.87
388.979	48.3
389.189	85.16
389.399	87.21
389.609	64.68
389.818	146.6
390.028	27.82
390.238	113.83
390.447	70.83
390.657	48.3
390.867	91.31
391.076	-2.9
391.286	48.3
391.496	99.5
391.705	50.35
391.915	132.26
392.125	134.31
392.334	56.49
392.544	144.55
392.753	42.15
392.963	81.07
393.172	70.83
393.382	60.59
393.591	156.84
393.801	56.49
394.01	150.7
394.22	144.55
394.429	142.5
394.639	128.17
394.848	146.6
395.058	31.91
395.267	-7
395.477	122.02
395.686	128.17
395.895	169.13
396.105	122.02
396.314	191.66
396.524	148.65
396.733	97.45
396.942	109.74
397.152	187.56
397.361	236.71
397.57	117.93
397.78	76.97
397.989	140.46
398.198	201.9
398.407	97.45
398.617	122.02
398.826	23.72
399.035	66.73
399.244	152.74
399.453	132.26
399.663	52.39
399.872	242.85
400.081	162.98
400.29	205.99
400.499	44.2
400.708	111.78
400.917	58.54
401.127	150.7
401.336	103.59
401.545	173.22
401.754	64.68
401.963	105.64
402.172	111.78
402.381	107.69
402.59	158.89
402.799	132.26
403.008	132.26
403.217	91.31
403.426	79.02
403.635	111.78
403.844	89.26
404.053	146.6
404.262	93.35
404.471	216.23
404.68	171.18
404.888	126.12
405.097	150.7
405.306	158.89
405.515	183.46
405.724	199.85
405.933	242.85
406.142	140.46
406.35	238.76
406.559	201.9
406.768	289.96
406.977	283.81
407.185	222.38
407.394	269.48
407.603	189.61
407.812	234.66
408.02	210.09
408.229	283.81
408.438	232.62
408.646	222.38
408.855	242.85
409.064	281.77
409.272	285.86
409.481	369.83
409.69	244.9
409.898	255.14
410.107	287.91
410.315	304.29
410.524	279.72
410.733	351.4
410.941	386.21
411.15	410.79
411.358	394.4
411.567	435.36
411.775	416.93
411.984	425.12
412.192	431.27
412.401	550.05
412.609	574.63
412.818	484.52
413.026	494.76
413.234	527.52
413.443	513.19
413.651	509.09
413.86	537.76
414.068	728.22
414.276	703.65
414.485	621.73
414.693	636.06
414.901	734.37
415.11	775.33
415.318	689.31
415.526	752.8
415.734	824.48
415.943	763.04
416.151	873.63
416.359	842.91
416.567	961.69
416.776	978.08
416.984	1131.67
417.192	1027.23
417.4	953.5
417.608	1033.37
417.817	1055.9
418.025	1272.98
418.233	1338.52
418.441	1197.21
418.649	1166.49
418.857	1334.42
419.065	1330.33
419.273	1275.03
419.481	1442.96
419.689	1528.98
419.897	1426.58
420.105	1500.31
420.313	1580.18
420.521	1666.19
420.729	1721.49
420.937	1739.92
421.145	1764.5
421.353	1957
421.561	1961.1
421.769	2049.16
421.977	2088.07
422.185	1926.29
422.393	2233.48
422.601	2337.93
422.809	2270.34
423.017	2331.78
423.224	2499.72
423.432	2604.16
423.64	2626.69
423.848	2876.54
424.056	2712.71
424.263	3013.76
424.471	2720.9
424.679	3040.38
424.887	3118.2
425.094	3353.72
425.302	3232.89
425.51	3308.66
425.718	3488.89
425.925	3595.38
426.133	3626.1
426.341	3851.38
426.548	3992.69
426.756	4004.97
426.964	3908.72
427.171	4050.03
427.379	4375.66
427.586	4353.13
427.794	4625.51
428.001	4826.21
428.209	5065.82
428.417	4858.98
428.624	5270.62
428.832	5354.58
429.039	5231.71
429.247	5227.61
429.454	5778.51
429.662	6110.29
429.869	5590.1
430.076	6200.4
430.284	5913.68
430.491	6184.01
430.699	6534.21
430.906	6667.33
431.114	6642.76
431.321	6935.62
431.528	6978.62
431.736	7451.7
431.943	7756.85
432.15	7568.44
432.358	7740.47
432.565	8186.93
432.772	7949.36
432.979	8506.41
433.187	8723.49
433.394	8612.9
433.601	9020.45
433.808	9399.32
434.016	9163.81
434.223	9567.26
434.43	10236.94
434.637	9909.27
434.844	10593.29
435.052	10900.48
435.259	10628.1
435.466	11027.46
435.673	10732.55
435.88	11289.6
436.087	12143.6
436.294	12159.99
436.501	11693.05
436.708	11932.66
436.915	12289.01
437.122	12835.81
437.329	12801
437.537	13222.88
437.743	13495.26
437.95	13548.51
438.157	14058.45
438.364	14369.74
438.571	14410.7
438.778	14574.54
438.985	15760.31
439.192	15520.7
439.399	15862.71
439.606	15467.45
439.813	16477.1
440.02	17292.19
440.227	17058.73
440.433	16956.33
440.64	17478.56
440.847	17410.98
441.054	17974.17
441.261	19004.3
441.467	18701.2
441.674	19121.03
441.881	19491.71
442.088	19516.29
442.294	19248
442.501	20044.66
442.708	20636.53
442.914	21267.3
443.121	21994.33
443.328	21504.87
443.534	23161.67
443.741	22426.45
443.948	22092.63
444.154	23788.35
444.361	23313.22
444.568	23708.48
444.774	23976.76
444.981	24009.53
445.187	24781.62
445.394	25740.07
445.6	25400.1
445.807	27988.74
446.013	26874.64
446.22	27011.85
446.426	28568.31
446.633	28390.14
446.839	29659.88
447.046	28160.76
447.252	29795.04
447.459	30040.8
447.665	29817.57
447.871	30776.02
448.078	32402.11
448.284	31113.94
448.491	31578.82
448.697	32877.24
448.903	33579.69
449.11	33591.98
449.316	33213.1
449.522	33639.08
449.728	34638.49
449.935	35127.95
450.141	34644.63
450.347	35482.25
450.553	34454.17
450.76	35154.58
450.966	36047.49
451.172	35764.87
451.378	36561.53
451.584	35953.29
451.791	36809.34
451.997	36442.75
452.203	37573.23
452.409	37436.02
452.615	37165.68
452.821	35854.98
453.027	35142.29
453.233	37345.9
453.44	36078.21
453.646	36242.05
453.852	36414.08
454.058	36866.68
454.264	35496.59
454.47	36727.42
454.676	35824.26
454.882	36981.37
455.088	33817.25
455.294	34276
455.5	34744.98
455.705	35334.8
455.911	33747.62
456.117	33141.42
456.323	32660.15
456.529	30878.42
456.735	31763.14
456.941	31613.64
457.147	30925.52
457.352	30028.51
457.558	29641.45
457.764	29948.64
457.97	28938.99
458.176	28390.14
458.381	28463.86
458.587	27054.86
458.793	27308.81
458.999	25899.81
459.204	27759.36
459.41	26581.78
459.616	25189.16
459.821	25084.72
460.027	25051.95
460.233	24517.43
460.438	23333.7
460.644	23696.19
460.85	22424.4
461.055	22084.44
461.261	21926.75
461.466	20679.54
461.672	19919.74
461.878	21351.27
462.083	20149.11
462.289	19635.07
462.494	19112.84
462.7	18322.32
462.905	18045.85
463.111	18713.49
463.316	18711.44
463.522	18267.03
463.727	18133.91
463.932	18305.94
464.138	18070.42
464.343	18017.18
464.549	17660.83
464.754	18054.04
464.959	18070.42
465.165	17941.4
465.37	17093.54
465.575	16407.47
465.781	17531.81
465.986	17382.31
466.191	16667.56
466.397	16391.09
466.602	15838.14
466.807	16174
467.012	16223.16
467.218	16178.1
467.423	15897.53
467.628	16264.11
467.833	16618.41
468.038	16106.42
468.244	15629.24
468.449	16264.11
468.654	15721.4
468.859	15424.45
469.064	15573.95
469.269	14812.1
469.474	15109.06
469.679	15332.29
469.885	14877.64
470.09	15256.51
470.295	14726.09
470.5	14623.69
470.705	14730.19
470.91	14562.25
471.115	14394.32
471.32	14640.08
471.525	14359.5
471.73	14035.92
471.935	13980.63
472.139	13564.89
472.344	13704.15
472.549	13603.8
472.754	13566.94
472.959	12993.51
473.164	13018.08
473.369	12719.08
473.574	12993.51
473.778	12930.02
473.983	12794.86
474.188	12813.29
474.393	12317.68
474.598	12483.56
474.802	12215.28
475.007	12522.48
475.212	12057.59
475.417	11627.51
475.621	11883.51
475.826	11951.09
476.031	11344.89
476.235	11203.58
476.44	11498.49
476.645	11297.79
476.849	11146.24
477.054	11183.1
477.259	10927.11
477.463	11021.31
477.668	10783.75
477.872	10871.81
478.077	10701.83
478.282	10288.14
478.486	10370.06
478.691	10261.52
478.895	10234.89
479.1	10275.85
479.304	10171.41
479.509	9782.29
479.713	10034.19
479.918	9794.58
480.122	9595.93
480.326	9843.73
480.531	9796.63
480.735	9767.96
480.94	9505.82
481.144	9968.66
481.348	9460.76
481.553	9729.05
481.757	9356.32
481.961	9382.94
482.166	9655.32
482.37	9341.98
482.574	9399.32
482.778	9485.34
482.983	9571.35
483.187	9554.97
483.391	9559.06
483.595	9337.88
483.8	9264.16
484.004	9532.44
484.208	9663.51
484.412	9454.62
484.616	9405.47
484.821	9413.66
485.025	9053.22
485.229	9516.06
485.433	9438.23
485.637	9366.56
485.841	9296.92
486.045	9276.45
486.249	9548.82
486.453	9274.4
486.657	9503.77
486.861	9438.23
487.065	9231.39
487.269	9466.91
487.473	9286.68
487.677	9507.87
487.881	9636.89
488.085	9356.32
488.289	9315.36
488.493	9362.46
488.697	9561.11
488.901	9350.17
489.105	9374.75
489.309	9378.84
489.512	9573.4
489.716	9444.38
489.92	9427.99
490.124	9487.39
490.328	9810.96
490.531	9511.96
490.735	9755.67
490.939	9655.32
491.143	9610.26
491.346	9700.37
491.55	9819.16
491.754	9630.74
491.958	9714.71
492.161	9999.38
492.365	9829.4
492.569	9694.23
492.772	9800.73
492.976	10058.77
493.18	9890.84
493.383	10101.78
493.587	10036.24
493.79	10312.72
493.994	10157.07
494.197	10210.32
494.401	10419.21
494.605	10183.7
494.808	10456.08
495.012	10365.96
495.215	10548.23
495.419	10865.67
495.622	10619.91
495.825	10726.41
496.029	10937.35
496.232	10974.21
496.436	10834.95
496.639	11451.39
496.843	11238.4
497.046	11310.08
497.249	11424.76
497.453	11611.13
497.656	11656.18
497.859	11774.97
498.063	11893.75
498.266	12090.35
498.469	12110.83
498.673	11973.62
498.876	12280.82
499.079	12389.36
499.282	12370.93
499.485	12866.53
499.689	12735.46
499.892	13061.09
500.095	12997.6
500.298	13345.76
500.501	13126.63
500.705	13444.06
500.908	13695.96
501.111	13933.53
501.314	13896.66
501.517	14111.7
501.72	14259.15
501.923	14207.95
502.126	14674.89
502.329	14943.17
502.532	14754.76
502.735	14928.84
502.938	15131.59
503.141	15459.26
503.344	15315.9
503.547	15567.81
503.75	15707.07
503.953	16020.41
504.156	15920.06
504.359	16176.05
504.562	16491.44
504.765	16653.23
504.968	16741.29
505.17	17136.55
505.373	17173.41
505.576	17263.52
505.779	17179.56
505.982	17566.62
506.185	17832.86
506.387	17939.35
506.59	18076.57
506.793	18369.43
506.996	18498.45
507.198	18862.99
507.401	18580.37
507.604	18959.24
507.807	19229.57
508.009	19205
508.212	19610.5
508.415	19839.87
508.617	20122.49
508.82	19970.94
509.022	19813.24
509.225	20550.51
509.428	20788.08
509.63	20677.49
509.833	20736.88
510.035	21295.97
510.238	21232.49
510.44	21758.81
510.643	21777.25
510.845	22055.77
511.048	21791.58
511.25	22252.38
511.453	22297.43
511.655	23049.03
511.858	22729.55
512.06	23104.33
512.262	23249.74
512.465	23159.63
512.667	23403.33
512.87	24025.92
513.072	23782.21
513.274	24339.26
513.477	24466.23
513.679	24552.24
513.881	25049.9
514.084	25142.06
514.286	25041.71
514.488	25195.31
514.69	25860.9
514.893	25422.63
515.095	26061.6
515.297	26123.04
515.499	26252.06
515.701	26667.8
515.904	26544.92
516.106	26907.41
516.308	26850.06
516.51	27589.38
516.712	27462.41
516.914	27947.78
517.116	28232.44
517.318	28478.2
517.52	28283.64
517.722	28351.23
517.925	28463.86
518.127	28967.66
518.329	28957.42
518.531	28906.23
518.733	29547.24
518.935	29809.38
519.136	29823.72
519.338	30085.86
519.54	30278.36
519.742	30665.43
519.944	30669.53
520.146	31173.33
520.348	30935.76
520.55	31279.82
520.752	31247.05
520.954	31849.16
521.155	31652.55
521.357	31976.13
521.559	32500.41
521.761	32541.37
521.963	32129.73
522.164	32486.07
522.366	32717.5
522.568	32934.58
522.77	32996.02
522.971	33733.29
523.173	33274.54
523.375	33700.52
523.576	33721
523.778	33682.09
523.98	34208.42
524.181	34069.15
524.383	34142.88
524.584	34304.67
524.786	34538.14
524.988	34433.69
525.189	34886.29
525.391	35064.47
525.592	35179.15
525.794	35035.8
525.995	35277.46
526.197	35453.58
526.398	35283.6
526.6	35666.57
526.801	35408.53
527.003	35740.3
527.204	35584.65
527.406	36141.7
527.607	36135.56
527.808	35955.33
528.01	35633.8
528.211	35699.34
528.412	36401.79
528.614	36487.81
528.815	36463.23
529.016	36448.89
529.218	36027.01
529.419	36602.49
529.62	36491.9
529.822	36364.93
530.023	36575.87
530.224	36741.75
530.425	36514.43
530.626	36006.53
530.828	36252.29
531.029	36868.73
531.23	36633.21
531.431	36860.54
531.632	36936.31
531.833	36539.01
532.035	36567.68
532.236	36727.42
532.437	36825.72
532.638	36528.77
532.839	37046.9
533.04	36983.41
533.241	36825.72
533.442	37130.87
533.643	36960.89
533.844	37143.16
534.045	36756.09
534.246	36604.54
534.447	36928.12
534.648	36651.64
534.849	37100.15
535.05	36405.89
535.251	36702.84
535.451	36588.16
535.652	36938.36
535.853	36412.03
536.054	36985.46
536.255	36997.75
536.456	36455.04
536.657	37247.6
536.857	36831.86
537.058	36334.21
537.259	36555.39
537.46	36727.42
537.66	36647.55
537.861	36817.53
538.062	36303.49
538.263	36592.25
538.463	36739.71
538.664	36573.82
538.865	36682.36
539.065	36606.59
539.266	36289.15
539.466	37231.22
539.667	36412.03
539.868	36913.78
540.068	36428.41
540.269	36770.43
540.469	36676.22
540.67	36366.98
540.87	36551.29
541.071	36579.96
541.271	36952.69
541.472	36717.18
541.672	36440.7
541.873	36510.33
542.073	36375.17
542.274	36334.21
542.474	36289.15
542.675	35875.46
542.875	36543.1
543.075	36188.8
543.276	36158.08
543.476	36860.54
543.676	36330.11
543.877	36397.7
544.077	36727.42
544.277	36496
544.478	36172.42
544.678	36592.25
544.878	36637.31
545.078	36641.4
545.279	36600.44
545.479	36158.08
545.679	36119.17
545.879	36082.31
546.079	36153.99
546.28	36033.16
546.48	36199.04
546.68	36176.51
546.88	36520.57
547.08	36414.08
547.28	36385.41
547.48	35867.27
547.68	36432.51
547.88	35793.54
548.081	36057.73
548.281	35918.47
548.481	35764.87
548.681	36694.65
548.881	36129.41
549.081	35852.94
549.28	36024.96
549.48	36553.34
549.68	36242.05
549.88	36522.62
550.08	36278.91
550.28	36174.47
550.48	36272.77
550.68	36319.87
550.88	35867.27
551.08	36305.54
551.279	36252.29
551.479	36082.31
551.679	35941
551.879	36346.5
552.079	36344.45
552.278	36143.75
552.478	36049.54
552.678	36002.44
552.878	36354.69
553.077	35932.81
553.277	36113.03
553.477	36366.98
553.676	35590.8
553.876	36121.22
554.076	35680.91
554.275	36399.74
554.475	35760.78
554.674	36180.61
554.874	36131.46
555.074	35664.52
555.273	36096.64
555.473	35992.2
555.672	35617.42
555.872	35762.82
556.071	35633.8
556.271	36088.45
556.47	35826.31
556.67	35461.77
556.869	35744.39
557.068	35881.61
557.268	35596.94
557.467	35984.01
557.667	36004.49
557.866	36149.89
558.065	36092.55
558.265	35572.36
558.464	35625.61
558.663	36125.32
558.863	35256.98
559.062	35943.05
559.261	35568.27
559.461	36240
559.66	35408.53
559.859	35928.71
560.058	35738.25
560.258	35938.95
560.457	35406.48
560.656	35760.78
560.855	35703.43
561.054	35613.32
561.253	35641.99
561.453	35250.83
561.652	35705.48
561.851	35629.71
562.05	35195.54
562.249	35410.57
562.448	35705.48
562.647	35412.62
562.846	35203.73
563.045	35545.74
563.244	35457.68
563.443	35490.45
563.642	35259.02
563.841	35414.67
564.04	35043.99
564.239	35410.57
564.438	35009.17
564.637	35347.09
564.836	35318.42
565.035	35136.15
565.234	35138.19
565.432	35160.72
565.631	35162.77
565.83	35793.54
566.029	34929.3
566.228	34908.82
566.427	35494.54
566.625	35013.27
566.824	35072.66
567.023	35510.92
567.222	34835.1
567.42	35173.01
567.619	34972.31
567.818	35205.78
568.016	34984.6
568.215	35310.22
568.414	34972.31
568.612	34810.52
568.811	34753.18
569.01	34898.58
569.208	34429.6
569.407	35027.6
569.605	34384.54
569.804	35216.02
570.002	34407.07
570.201	34831
570.4	34736.79
570.598	34470.56
570.797	34679.45
570.995	34646.68
571.193	34523.8
571.392	35023.51
571.59	34065.06
571.789	34820.76
571.987	34511.52
572.186	34744.98
572.384	34202.27
572.582	34718.36
572.781	34767.51
572.979	33993.38
573.177	34132.64
573.376	34247.33
573.574	34151.07
573.772	34376.35
573.971	34327.2
574.169	34046.63
574.367	34001.57
574.565	33839.78
574.763	33501.87
574.962	33561.26
575.16	33462.96
575.358	33878.69
575.556	33774.25
575.754	33968.8
575.952	33385.13
576.151	33749.67
576.349	33426.09
576.547	33786.54
576.745	33542.83
576.943	33608.36
577.141	33661.61
577.339	33551.02
577.537	33309.36
577.735	33645.23
577.933	33088.18
578.131	33458.86
578.329	33092.27
578.527	33090.23
578.725	33495.72
578.923	33223.34
579.121	33137.33
579.319	33225.39
579.516	32936.63
579.714	33385.13
579.912	32914.1
580.11	32852.66
580.308	32889.52
580.506	32756.41
580.704	32506.55
580.901	32993.97
581.099	32783.03
581.297	32711.35
581.495	32402.11
581.692	32869.05
581.89	32346.81
582.088	32662.2
582.285	32447.16
582.483	32428.73
582.681	32225.98
582.878	32297.66
583.076	31640.26
583.274	32252.61
583.471	31924.93
583.669	32115.39
583.866	31890.12
584.064	32037.57
584.262	31851.2
584.459	31861.44
584.657	31763.14
584.854	31935.17
585.052	31482.57
585.249	32012.99
585.447	31460.04
585.644	31081.17
585.841	31251.15
586.039	31537.87
586.236	31288.01
586.434	31703.75
586.631	31032.02
586.828	31261.39
587.026	31181.52
587.223	31224.53
587.42	31263.44
587.618	31130.32
587.815	30995.15
588.012	30862.04
588.21	30335.71
588.407	31251.15
588.604	30589.66
588.801	30687.96
588.999	30583.51
589.196	30401.24
589.393	30530.26
589.59	30397.15
589.787	30378.72
589.984	30298.84
590.182	30300.89
590.379	30384.86
590.576	30012.13
590.773	30517.98
590.97	30092
591.167	30200.54
591.364	29836
591.561	29870.82
591.758	29803.24
591.955	29881.06
592.152	29876.96
592.349	29389.55
592.546	29842.15
592.743	29676.26
592.94	29360.87
593.137	29305.58
593.334	29913.83
593.531	29227.76
593.727	29711.08
593.924	29283.05
594.121	29334.25
594.318	29238
594.515	28910.32
594.712	29014.77
594.908	29072.11
595.105	29369.07
595.302	28912.37
595.499	29029.1
595.696	28984.05
595.892	28662.52
596.089	28920.56
596.286	28695.28
596.482	28740.34
596.679	28609.27
596.876	28574.45
597.072	28586.74
597.269	28650.23
597.466	28269.31
597.662	28029.69
597.859	28119.81
598.055	28263.16
598.252	28117.76
598.448	28048.13
598.645	28201.72
598.841	27865.86
599.038	27921.15
599.234	28261.12
599.431	27556.61
599.627	27740.93
599.824	28144.38
600.02	27673.35
600.217	27828.99
600.413	27640.58
600.609	27591.43
600.806	27577.09
601.002	27767.55
601.198	27394.82
601.395	27476.74
601.591	27163.4
601.787	27241.23
601.984	27343.63
602.18	27595.53
602.376	26858.26
602.572	27003.66
602.769	27525.89
602.965	26923.79
603.161	27018
603.357	27118.35
603.553	26680.08
603.75	26848.02
603.946	26868.5
604.142	26768.15
604.338	26608.4
604.534	26868.5
604.73	26751.76
604.926	26383.13
605.122	26542.87
605.318	26549.01
605.514	26389.27
605.71	26530.58
605.906	26483.48
606.102	26594.07
606.298	26411.8
606.494	26166.04
606.69	26352.41
606.886	26440.47
607.082	26069.79
607.278	26295.07
607.474	25666.34
607.67	26202.91
607.866	25889.57
608.062	26243.87
608.257	25817.89
608.453	26123.04
608.649	26227.48
608.845	25953.05
609.041	26018.59
609.236	26250.01
609.432	25817.89
609.628	25686.82
609.824	25778.98
610.019	25785.12
610.215	26047.26
610.411	25711.39
610.606	25760.55
610.802	25807.65
610.998	25715.49
611.193	25928.48
611.389	25283.37
611.584	25598.76
611.78	25502.5
611.976	25604.9
612.171	25852.7
612.367	25664.29
612.562	25443.11
612.758	25033.52
612.953	25164.59
613.149	25467.69
613.344	25111.34
613.539	25594.66
613.735	25209.64
613.93	25305.9
614.126	25105.2
614.321	25703.2
614.517	25385.77
614.712	25117.48
614.907	24943.41
615.103	25246.51
615.298	24890.16
615.493	25549.6
615.688	24759.09
615.884	25234.22
616.079	24722.23
616.274	25131.82
616.47	24986.41
616.665	24972.08
616.86	24849.2
617.055	24761.14
617.25	24740.66
617.445	24939.31
617.641	24679.22
617.836	24830.77
618.031	24472.37
618.226	24668.98
618.421	24169.27
618.616	24587.06
618.811	24142.65
619.006	24761.14
619.201	23995.2
619.396	24294.2
619.591	23755.58
619.786	24087.36
619.981	23706.43
620.176	24070.97
620.371	23763.78
620.566	24005.44
620.761	23696.19
620.956	23915.33
621.151	22981.45
621.346	23552.84
621.541	23133
621.735	23708.48
621.93	22807.37
622.125	22997.84
622.32	22715.22
622.515	22879.05
622.709	22688.59
622.904	22686.54
623.099	22504.28
623.294	22813.52
623.488	22391.64
623.683	22438.74
623.878	21824.35
624.072	22029.15
624.267	22172.5
624.462	21947.23
624.656	21599.07
624.851	21973.85
625.046	21345.12
625.24	21431.14
625.435	21324.65
625.629	21160.81
625.824	21381.99
626.018	21160.81
626.213	20624.24
626.407	20872.04
626.602	20671.34
626.796	20788.08
626.991	20947.82
627.185	20933.48
627.38	20659.06
627.574	20183.93
627.768	20126.58
627.963	20261.75
628.157	19741.57
628.352	19948.41
628.546	19733.37
628.74	19966.84
628.935	19823.48
629.129	19577.73
629.323	19401.6
629.517	19594.11
629.712	19268.48
629.906	19305.35
630.1	18840.46
630.294	19286.92
630.489	18961.29
630.683	18828.17
630.877	18613.13
631.071	18539.41
631.265	18871.18
631.459	18387.86
631.653	18207.64
631.848	18234.26
632.042	18310.04
632.236	18121.62
632.43	17982.36
632.624	18140.05
632.818	17910.68
633.012	17646.49
633.206	17648.54
633.4	18119.57
633.594	17537.95
633.788	17466.27
633.982	17347.49
634.176	17464.22
634.369	17333.15
634.563	17247.14
634.757	17245.09
634.951	17064.87
635.145	16974.76
635.339	16921.51
635.533	16847.79
635.726	16868.27
635.92	16610.22
636.114	16362.42
636.308	16407.47
636.501	16364.46
636.695	16217.01
636.889	16024.5
637.083	15967.16
637.276	16024.5
637.47	15743.93
637.664	15971.25
637.857	15987.64
638.051	15887.29
638.244	15424.45
638.438	15711.16
638.632	15606.72
638.825	15455.17
639.019	15408.06
639.212	15201.22
639.406	15438.78
639.599	14994.37
639.793	15162.31
639.986	14844.87
640.18	14994.37
640.373	14756.81
640.567	14779.34
640.76	14756.81
640.954	14609.36
641.147	14355.41
641.34	14408.65
641.534	14474.19
641.727	14361.55
641.92	14386.13
642.114	14076.88
642.307	13896.66
642.5	13892.57
642.694	13851.61
642.887	13781.98
643.08	14099.41
643.273	13611.99
643.467	13728.73
643.66	13564.89
643.853	13532.12
644.046	13413.34
644.239	13376.48
644.432	13276.13
644.626	13036.52
644.819	13173.73
645.012	13138.91
645.205	13114.34
645.398	13003.75
645.591	12684.27
645.784	12581.87
645.977	12577.77
646.17	12626.92
646.363	12516.33
646.556	12295.15
646.749	12415.98
646.942	12352.49
647.135	12415.98
647.328	12045.3
647.521	12215.28
647.714	11764.73
647.907	11992.05
648.099	11766.78
648.292	12133.36
648.485	11734.01
648.678	11531.26
648.871	11602.94
649.064	11514.87
649.256	11553.79
649.449	11148.29
649.642	11179.01
649.835	11355.13
650.027	11090.95
650.22	11271.17
650.413	11129.86
650.605	11328.51
650.798	11056.13
650.991	10730.5
651.183	11111.43
651.376	10537.99
651.568	10634.25
651.761	10642.44
651.954	10556.43
652.146	10537.99
652.339	10507.27
652.531	10521.61
652.724	10224.65
652.916	10238.99
653.109	10177.55
653.301	10171.41
653.494	10226.7
653.686	9964.56
653.879	10034.19
654.071	9925.65
654.263	9870.36
654.456	10044.43
654.648	9860.12
654.84	9636.89
655.033	9608.22
655.225	9557.02
655.417	9391.13
655.61	9440.28
655.802	9511.96
655.994	9397.28
656.186	9155.61
656.379	9096.22
656.571	9223.2
656.763	9014.31
656.955	9112.61
657.148	9303.07
657.34	8911.91
657.532	8881.19
657.724	8846.37
657.916	8946.72
658.108	8807.46
658.3	8668.2
658.492	8678.44
658.684	8606.76
658.876	8473.64
659.068	8514.6
659.26	8358.96
659.452	8438.83
659.644	8137.77
659.836	8299.56
660.028	8313.9
660.22	7984.18
660.412	8100.91
660.604	8102.96
660.796	8062
660.988	7926.83
661.18	7883.83
661.372	7912.5
661.563	7877.68
661.755	8004.66
661.947	7621.69
662.139	7488.57
662.331	7687.22
662.522	7545.91
662.714	7427.13
662.906	7429.18
663.097	7433.27
663.289	7377.98
663.481	7164.99
663.673	7314.49
663.864	7081.02
664.056	7306.3
664.247	7148.61
664.439	7097.41
664.631	7158.85
664.822	7107.65
665.014	7158.85
665.205	6966.34
665.397	7003.2
665.588	6947.9
665.78	6904.9
665.971	6984.77
666.163	6798.4
666.354	6755.4
666.546	6655.05
666.737	6595.65
666.929	6892.61
667.12	6558.79
667.311	6769.73
667.503	6558.79
667.694	6423.62
667.885	6403.14
668.077	6663.24
668.268	6392.91
668.459	6612.04
668.651	6368.33
668.842	6300.75
669.033	6351.95
669.224	6294.6
669.416	6397
669.607	6327.37
669.798	6169.68
669.989	6276.17
670.18	6155.34
670.371	6200.4
670.563	6052.94
670.754	6118.48
670.945	6065.23
671.136	6030.41
671.327	5833.81
671.518	5915.73
671.709	6050.89
671.9	5973.07
672.091	6052.94
672.282	5942.35
672.473	5952.59
672.664	5825.62
672.855	5776.47
673.046	5766.23
673.237	5792.85
673.428	5721.17
673.619	5696.6
673.809	5786.71
674	5848.15
674.191	5700.69
674.382	5657.68
674.573	5606.49
674.764	5543
674.954	5676.12
675.145	5387.35
675.336	5694.55
675.527	5549.14
675.717	5581.91
675.908	5508.18
676.099	5424.22
676.289	5405.78
676.48	5485.65
676.671	5469.27
676.861	5383.26
677.052	5581.91
677.243	5463.13
677.433	5440.6
677.624	5534.81
677.814	5276.76
678.005	5198.94
678.195	5375.06
678.386	5246.04
678.576	5209.18
678.767	5221.47
678.957	5223.51
679.148	5317.72
679.338	5344.35
679.529	5217.37
679.719	5307.48
679.909	5342.3
680.1	5289.05
680.29	5397.59
680.481	5225.56
680.671	5231.71
680.861	5334.11
681.052	5117.02
681.242	5110.88
681.432	5377.11
681.622	5033.05
681.813	5147.74
682.003	5069.92
682.193	5067.87
682.383	5071.97
682.573	5223.51
682.764	5002.33
682.954	5129.31
683.144	5166.17
683.334	4969.57
683.524	4930.66
683.714	5033.05
683.904	5180.51
684.094	5123.16
684.284	4990.05
684.474	5217.37
684.664	5282.91
684.854	5039.2
685.044	5049.44
685.234	4822.11
685.424	4906.08
685.614	4799.59
685.804	5063.77
685.994	4959.33
686.184	5031.01
686.374	4992.09
686.564	4936.8
686.753	4924.51
686.943	4781.15
687.133	5018.72
687.323	4856.93
687.513	4920.42
687.702	4762.72
687.892	4789.35
688.082	4766.82
688.272	4775.01
688.461	4805.73
688.651	4951.14
688.841	4820.07
689.03	4736.1
689.22	4779.11
689.41	4858.98
689.599	4744.29
689.789	4699.23
689.979	4682.85
690.168	4609.12
690.358	4701.28
690.547	4633.7
690.737	4719.71
690.926	4580.45
691.116	4627.56
691.305	4527.21
691.495	4598.88
691.684	4406.38
691.874	4605.03
692.063	4557.93
692.252	4541.54
692.442	4559.97
692.631	4523.11
692.82	4508.77
693.01	4639.84
693.199	4414.57
693.388	4508.77
693.578	4615.27
693.767	4523.11
693.956	4420.71
694.146	4635.75
694.335	4398.18
694.524	4410.47
694.713	4478.05
694.902	4480.1
695.092	4551.78
695.281	4463.72
695.47	4564.07
695.659	4398.18
695.848	4488.29
696.037	4326.5
696.226	4537.45
696.415	4387.94
696.604	4676.71
696.793	4324.46
696.982	4523.11
697.171	4584.55
697.36	4433
697.549	4443.24
697.738	4449.38
697.927	4469.86
698.116	4529.25
698.305	4576.36
698.494	4394.09
698.683	4525.16
698.872	4582.5
699.061	4426.86
699.25	4373.61
699.438	4574.31
699.627	4414.57
699.816	4596.84
700.005	4478.05
700.193	4383.85
700.382	4494.44
700.571	4457.57
700.76	4605.03
700.948	4473.96
701.137	4494.44
701.326	4580.45
701.514	4394.09
701.703	4435.05
701.892	4494.44
702.08	4574.31
702.269	4598.88
702.457	4525.16
702.646	4551.78
702.834	4512.87
703.023	4611.17
703.212	4574.31
703.4	4607.08
703.589	4428.9
703.777	4684.9
703.965	4459.62
704.154	4551.78
704.342	4641.89
704.531	4500.58
704.719	4381.8
704.907	4701.28
705.096	4244.59
705.284	4535.4
705.472	4555.88
705.661	4496.49
705.849	4652.13
706.037	4633.7
706.226	4328.55
706.414	4504.68
706.602	4459.62
706.79	4529.25
706.979	4537.45
707.167	4600.93
707.355	4322.41
707.543	4441.19
707.731	4533.35
707.919	4547.69
708.107	4428.9
708.296	4334.7
708.484	4349.03
708.672	4482.15
708.86	4512.87
709.048	4531.3
709.236	4344.94
709.424	4580.45
709.612	4416.62
709.8	4602.98
709.988	4605.03
710.176	4408.42
710.364	4484.2
710.551	4545.64
710.739	4476.01
710.927	4553.83
711.115	4461.67
711.303	4478.05
711.491	4439.14
711.679	4455.53
711.866	4441.19
712.054	4375.66
712.242	4418.66
712.43	4410.47
712.617	4256.87
712.805	4443.24
712.993	4242.54
713.181	4138.09
713.368	4328.55
713.556	4338.79
713.744	4281.45
713.931	4562.02
714.119	4334.7
714.306	4334.7
714.494	4387.94
714.682	4357.22
714.869	4295.79
715.057	4389.99
715.244	4144.24
715.432	4379.75
715.619	4449.38
715.807	4267.11
715.994	4338.79
716.182	4260.97
716.369	4285.55
716.556	4389.99
716.744	4117.61
716.931	4125.8
717.119	4338.79
717.306	4353.13
717.493	4281.45
717.681	4355.18
717.868	4256.87
718.055	4148.33
718.242	4338.79
718.43	4324.46
718.617	4289.64
718.804	4105.32
718.991	4299.88
719.179	4150.38
719.366	4342.89
719.553	4146.28
719.74	4344.94
719.927	4117.61
720.114	4152.43
720.301	4267.11
720.488	4211.82
720.676	4138.09
720.863	4162.67
721.05	4217.96
721.237	4086.89
721.424	4240.49
721.611	4066.41
721.798	4123.76
721.985	4115.56
722.172	4103.28
722.358	4101.23
722.545	4148.33
722.732	4037.74
722.919	4148.33
723.106	4070.51
723.293	4052.08
723.48	4004.97
723.667	4039.79
723.853	4037.74
724.04	4058.22
724.227	4045.93
724.414	3972.21
724.6	3908.72
724.787	4043.88
724.974	4009.07
725.161	3972.21
725.347	3982.45
725.534	3982.45
725.72	4129.9
725.907	3818.61
726.094	4054.12
726.28	3996.78
726.467	3980.4
726.653	3974.25
726.84	3996.78
727.027	3935.34
727.213	3896.43
727.4	3855.47
727.586	3894.38
727.773	4013.17
727.959	3839.09
728.145	3939.44
728.332	3769.46
728.518	3882.1
728.705	3933.29
728.891	3769.46
729.077	3818.61
729.264	3955.82
729.45	3945.58
729.636	3986.54
729.823	3832.94
730.009	3699.83
730.195	3832.94
730.382	3665.01
730.568	3732.59
730.754	3818.61
730.94	3859.57
731.126	3925.1
731.313	3732.59
731.499	3726.45
731.685	3845.23
731.871	3695.73
732.057	3728.5
732.243	3808.37
732.429	3777.65
732.615	3830.9
732.801	3660.91
732.987	3679.35
733.173	3802.22
733.359	3697.78
733.545	3738.74
733.731	3718.26
733.917	3708.02
734.103	3705.97
734.289	3695.73
734.475	3615.86
734.661	3773.55
734.847	3609.72
735.033	3589.24
735.219	3685.49
735.404	3607.67
735.59	3409.01
735.776	3562.61
735.962	3716.21
736.148	3497.08
736.333	3527.8
736.519	3603.57
736.705	3535.99
736.89	3513.46
737.076	3394.68
737.262	3398.77
737.447	3376.25
737.633	3568.76
737.819	3513.46
738.004	3292.28
738.19	3462.26
738.375	3292.28
738.561	3525.75
738.747	3357.82
738.932	3320.95
739.118	3417.21
739.303	3351.67
739.489	3406.97
739.674	3341.43
739.859	3357.82
740.045	3220.6
740.23	3275.9
740.416	3069.05
740.601	3234.94
740.786	3374.2
740.972	3222.65
741.157	3138.68
741.342	3185.79
741.528	3114.11
741.713	3163.26
741.898	3316.86
742.084	3087.48
742.269	3234.94
742.454	3083.39
742.639	3296.38
742.824	3105.92
743.01	3077.24
743.195	3230.84
743.38	3153.02
743.565	3050.62
743.75	3140.73
743.935	2946.17
744.12	3015.8
744.305	2903.17
744.49	3007.61
744.675	3034.24
744.86	3062.91
745.045	2966.65
745.23	2929.79
745.415	2944.13
745.6	3019.9
745.785	2866.3
745.97	2921.6
746.155	2876.54
746.34	2915.45
746.525	2892.93
746.71	2874.49
746.895	2843.78
747.079	2827.39
747.264	2884.73
747.449	2776.19
747.634	2733.18
747.819	2755.71
748.003	2745.47
748.188	2630.79
748.373	2669.7
748.557	2528.39
748.742	2604.16
748.927	2538.63
749.111	2587.78
749.296	2593.92
749.481	2612.35
749.665	2526.34
749.85	2466.95
750.034	2469
750.219	2495.62
750.404	2499.72
750.588	2475.14
750.773	2262.15
750.957	2442.37
751.141	2417.8
751.326	2376.84
751.51	2313.35
751.695	2278.54
751.879	2290.82
752.064	2450.57
752.248	2385.03
752.432	2444.42
752.617	2270.34
752.801	2223.24
752.985	2161.8
753.17	2192.52
753.354	2227.34
753.538	2161.8
753.722	2198.67
753.907	2110.6
754.091	2118.79
754.275	2206.86
754.459	2147.47
754.643	2090.12
754.828	2133.13
755.012	2055.31
755.196	1973.39
755.38	2083.98
755.564	2065.55
755.748	2057.36
755.932	1967.24
756.116	1938.57
756.3	2022.54
756.484	1832.08
756.668	1961.1
756.852	1911.95
757.036	1803.41
757.22	1916.05
757.404	1889.42
757.588	1887.37
757.772	1856.65
757.956	1905.81
758.14	1936.53
758.323	1776.78
758.507	1870.99
758.691	1758.35
758.875	1891.47
759.059	1825.93
759.242	1758.35
759.426	1815.69
759.61	1696.91
759.794	1762.45
759.977	1852.56
760.161	1815.69
760.345	1727.63
760.528	1793.17
760.712	1692.82
760.895	1637.52
761.079	1617.04
761.263	1614.99
761.446	1758.35
761.63	1676.43
761.813	1647.76
761.997	1637.52
762.18	1670.29
762.364	1635.47
762.547	1635.47
762.731	1563.79
762.914	1680.53
763.098	1492.12
763.281	1504.4
763.464	1490.07
763.648	1557.65
763.831	1547.41
764.015	1469.59
764.198	1627.28
764.381	1528.98
764.564	1477.78
764.748	1510.55
764.931	1580.18
765.114	1545.36
765.297	1485.97
765.481	1461.4
765.664	1408.15
765.847	1377.43
766.03	1506.45
766.213	1385.62
766.397	1424.53
766.58	1418.39
766.763	1467.54
766.946	1438.87
767.129	1432.72
767.312	1381.53
767.495	1426.58
767.678	1359
767.861	1391.77
768.044	1426.58
768.227	1338.52
768.41	1387.67
768.593	1375.38
768.776	1479.83
768.959	1354.9
769.142	1377.43
769.324	1324.18
769.507	1375.38
769.69	1404.05
769.873	1359
770.056	1379.48
770.239	1402.01
770.421	1297.56
770.604	1412.25
770.787	1244.31
770.97	1295.51
771.152	1287.32
771.335	1336.47
771.518	1166.49
771.7	1408.15
771.883	1348.76
772.066	1291.41
772.248	1205.4
772.431	1268.89
772.613	1311.89
772.796	1328.28
772.978	1219.74
773.161	1266.84
773.343	1207.45
773.526	1100.95
773.708	1115.29
773.891	1088.67
774.073	1189.02
774.256	1117.34
774.438	1158.3
774.621	1123.48
774.803	1117.34
774.985	1078.43
775.168	1248.41
775.35	1133.72
775.532	1139.87
775.715	1088.67
775.897	1047.71
776.079	1156.25
776.261	1066.14
776.444	1000.6
776.626	1064.09
776.808	976.03
776.99	984.22
777.173	1074.33
777.355	1074.33
777.537	1041.56
777.719	1055.9
777.901	1037.47
778.083	930.97
778.265	967.84
778.447	971.93
778.629	939.16
778.811	1037.47
778.993	1012.89
779.175	1010.84
779.357	1021.08
779.539	898.2
779.721	904.35
779.903	945.31
780.085	963.74
780.267	926.88
780.449	847.01
780.631	937.12
780.812	963.74
780.994	949.4
781.176	812.19
781.358	832.67
781.54	842.91
781.721	910.49
781.903	953.5
782.085	922.78
782.267	830.62
782.448	728.22
782.63	697.5
782.812	855.2
782.993	855.2
783.175	795.81
783.357	709.79
783.538	863.39
783.72	726.18
783.901	799.9
784.083	765.09
784.264	754.85
784.446	674.98
784.627	756.9
784.809	713.89
784.99	697.5
785.172	808.09
785.353	681.12
785.535	740.51
785.716	738.46
785.897	674.98
786.079	697.5
786.26	744.61
786.441	771.23
786.623	623.78
786.804	562.34
786.985	640.16
787.167	648.35
787.348	617.63
787.529	734.37
787.71	711.84
787.891	636.06
788.073	564.39
788.254	621.73
788.435	662.69
788.616	695.46
788.797	599.2
788.978	564.39
789.159	552.1
789.34	705.7
789.522	564.39
789.703	609.44
789.884	560.29
790.065	584.87
790.246	580.77
790.427	578.72
790.607	609.44
790.788	570.53
790.969	472.23
791.15	507.04
791.331	570.53
791.512	570.53
791.693	539.81
791.874	545.95
792.054	584.87
792.235	562.34
792.416	617.63
792.597	492.71
792.778	437.41
792.958	535.71
793.139	355.49
793.32	472.23
793.5	408.74
793.681	521.38
793.862	498.85
794.042	441.51
794.223	451.75
794.404	484.52
794.584	455.84
794.765	480.42
794.945	474.28
795.126	480.42
795.306	521.38
795.487	502.95
795.667	378.02
795.848	423.08
796.028	504.99
796.209	421.03
796.389	437.41
796.57	425.12
796.75	355.49
796.93	468.13
797.111	435.36
797.291	455.84
797.471	410.79
797.652	388.26
797.832	373.92
798.012	390.31
798.192	337.06
798.373	388.26
798.553	468.13
798.733	427.17
798.913	392.36
799.093	337.06
799.274	414.88
799.454	414.88
799.634	388.26
799.814	396.45
799.994	421.03
800.174	345.25
800.354	371.88
800.534	343.21
800.714	375.97
800.894	396.45
801.074	367.78
801.254	343.21
801.434	402.6
801.614	335.01
801.794	261.29
801.974	1328.28
802.154	265.38
802.334	318.63
802.514	353.45
802.693	410.79
802.873	343.21
803.053	447.65
803.233	347.3
803.413	326.82
803.592	332.97
803.772	330.92
803.952	339.11
804.131	322.73
804.311	363.69
804.491	380.07
804.67	302.25
804.85	298.15
805.03	287.91
805.209	345.25
805.389	238.76
805.568	249
805.748	320.68
805.928	302.25
806.107	347.3
806.287	328.87
806.466	402.6
806.646	230.57
806.825	277.67
807.004	255.14
807.184	351.4
807.363	349.35
807.543	246.95
807.722	265.38
807.901	249
808.081	326.82
808.26	249
808.439	212.14
808.619	294.05
808.798	246.95
808.977	322.73
809.156	373.92
809.336	294.05
809.515	349.35
809.694	269.48
809.873	236.71
810.052	253.09
810.231	312.49
810.411	287.91
810.59	318.63
810.769	177.32
810.948	242.85
811.127	238.76
811.306	302.25
811.485	251.05
811.664	324.77
811.843	220.33
812.022	195.75
812.201	216.23
812.38	287.91
812.559	240.81
812.737	283.81
812.916	246.95
813.095	162.98
813.274	285.86
813.453	210.09
813.632	302.25
813.811	218.28
813.989	224.42
814.168	275.62
814.347	171.18
814.526	339.11
814.704	169.13
814.883	347.3
815.062	140.46
815.24	199.85
815.419	193.7
815.598	328.87
815.776	167.08
815.955	222.38
816.133	189.61
816.312	232.62
816.49	165.03
816.669	160.94
816.847	263.33
817.026	214.18
817.204	205.99
817.383	199.85
817.561	201.9
817.74	232.62
817.918	232.62
818.097	179.37
818.275	210.09
818.453	203.94
818.632	193.7
818.81	132.26
818.988	124.07
819.167	195.75
819.345	224.42
819.523	205.99
819.701	187.56
819.879	177.32
820.058	232.62
820.236	187.56
820.414	113.83
820.592	124.07
820.77	261.29
820.948	160.94
821.127	124.07
821.305	171.18
821.483	111.78
821.661	128.17
821.839	246.95
822.017	203.94
822.195	165.03
822.373	203.94
822.551	97.45
822.729	218.28
822.907	113.83
823.085	201.9
823.262	167.08
823.44	138.41
823.618	83.11
823.796	160.94
823.974	216.23
824.152	162.98
824.329	150.7
824.507	142.5
824.685	142.5
824.863	89.26
825.04	156.84
825.218	175.27
825.396	124.07
825.574	189.61
825.751	201.9
825.929	236.71
826.107	79.02
826.284	167.08
826.462	212.14
826.639	115.88
826.817	85.16
826.994	150.7
827.172	134.31
827.349	193.7
827.527	167.08
827.704	158.89
827.882	218.28
828.059	117.93
828.237	66.73
828.414	142.5
828.591	91.31
828.769	152.74
828.946	103.59
829.124	142.5
829.301	199.85
829.478	76.97
829.655	150.7
829.833	165.03
830.01	62.63
830.187	140.46
830.364	124.07
830.542	97.45
830.719	183.46
830.896	162.98
831.073	152.74
831.25	244.9
831.427	179.37
831.604	27.82
831.782	113.83
831.959	148.65
832.136	52.39
832.313	111.78
832.49	97.45
832.667	126.12
832.844	132.26
833.021	126.12
833.198	95.4
833.374	140.46
833.551	179.37
833.728	23.72
833.905	130.22
834.082	107.69
834.259	83.11
834.436	134.31
834.612	101.55
834.789	95.4
834.966	76.97
835.143	122.02
835.319	27.82
835.496	128.17
835.673	52.39
835.85	132.26
836.026	138.41
836.203	124.07
836.38	99.5
836.556	119.98
836.733	66.73
836.909	220.33
837.086	126.12
837.262	113.83
837.439	99.5
837.616	15.53
837.792	58.54
837.968	101.55
838.145	-25.43
838.321	105.64
838.498	109.74
838.674	181.42
838.851	81.07
839.027	81.07
839.203	117.93
839.38	89.26
839.556	128.17
839.732	70.83
839.909	83.11
840.085	122.02
840.261	21.67
840.437	23.72
840.614	68.78
840.79	160.94
840.966	169.13
841.142	93.35
841.318	81.07
841.494	156.84
841.671	140.46
841.847	56.49
842.023	81.07
842.199	85.16
842.375	97.45
842.551	-45.91
842.727	27.82
842.903	156.84
843.079	52.39
843.255	165.03
843.431	99.5
843.607	54.44
843.783	-15.19
843.959	91.31
844.134	31.91
844.31	50.35
844.486	85.16
844.662	144.55
844.838	89.26
845.013	117.93
845.189	107.69
845.365	54.44
845.541	93.35
845.716	46.25
845.892	99.5
846.068	48.3
846.244	60.59
846.419	58.54
846.595	33.96
846.77	50.35
846.946	72.87
847.122	1.19
847.297	70.83
847.473	70.83
847.648	29.87
847.824	-0.85
847.999	-39.76
848.175	50.35
848.35	144.55
848.526	83.11
848.701	136.36
848.876	107.69
849.052	83.11
849.227	66.73
849.403	68.78
849.578	58.54
849.753	103.59
849.929	23.72
850.104	-21.33
850.279	9.39
850.454	99.5
850.63	134.31
850.805	54.44
850.98	64.68
851.155	56.49
851.33	109.74
851.505	-37.72
851.681	122.02
851.856	36.01
852.031	138.41
852.206	60.59
852.381	9.39
852.556	95.4
852.731	130.22
852.906	117.93
853.081	107.69
853.256	76.97
853.431	79.02
853.606	-31.57
853.781	11.43
853.956	-9.05
854.131	81.07
854.305	-47.96
854.48	-2.9
854.655	81.07
854.83	33.96
855.005	23.72
855.18	42.15
855.354	7.34
855.529	42.15
855.704	42.15
855.879	72.87
856.053	29.87
856.228	42.15
856.403	25.77
856.577	89.26
856.752	29.87
856.926	33.96
857.101	62.63
857.276	-7
857.45	54.44
857.625	60.59
857.799	23.72
857.974	13.48
858.148	5.29
858.323	42.15
858.497	15.53
858.672	42.15
858.846	62.63
859.02	132.26
859.195	21.67
859.369	54.44
859.543	-0.85
859.718	79.02
859.892	-33.62
860.066	58.54
860.241	-29.52
860.415	33.96
860.589	23.72
860.763	-47.96
860.938	9.39
861.112	33.96
861.286	13.48
861.46	-21.33
861.634	91.31
861.808	107.69
861.982	15.53
862.157	27.82
862.331	-19.29
862.505	-9.05
862.679	-17.24
862.853	-17.24
863.027	38.06
863.201	60.59
863.375	46.25
863.549	83.11
863.722	85.16
863.896	1.19
864.07	-19.29
864.244	-25.43
864.418	1.19
864.592	91.31
864.766	68.78
864.939	56.49
865.113	19.63
865.287	124.07
865.461	-23.38
865.634	25.77
865.808	40.11
865.982	13.48
866.156	46.25
866.329	-54.1
866.503	-31.57
866.676	21.67
866.85	-4.95
867.024	17.58
867.197	119.98
867.371	52.39
867.544	-43.86
867.718	-56.15
867.891	91.31
868.065	-17.24
868.238	33.96
868.412	83.11
868.585	36.01
868.759	-29.52
868.932	-15.19
869.105	-9.05
869.279	-15.19
869.452	-17.24
869.625	29.87
869.799	76.97
869.972	-25.43
870.145	-15.19
870.319	44.2
870.492	-2.9
870.665	-15.19
870.838	-9.05
871.011	-27.48
871.185	31.91
871.358	31.91
871.531	50.35
871.704	-62.29
871.877	54.44
872.05	29.87
872.223	11.43
872.396	74.92
872.569	68.78
872.742	13.48
872.915	33.96
873.088	-29.52
873.261	15.53
873.434	48.3
873.607	-7
873.78	29.87
873.953	1.19
874.126	-21.33
874.299	48.3
874.471	-9.05
874.644	36.01
874.817	93.35
874.99	25.77
875.163	46.25
875.335	-9.05
875.508	-13.14
875.681	33.96
875.853	38.06
876.026	52.39
876.199	-25.43
876.371	5.29
876.544	-13.14
876.717	27.82
876.889	9.39
877.062	-0.85
877.234	-105.3
877.407	66.73
877.579	-21.33
877.752	9.39
877.924	89.26
878.097	87.21
878.269	52.39
878.442	40.11
878.614	58.54
878.786	-25.43
878.959	5.29
879.131	-41.81
879.303	-56.15
879.476	66.73
879.648	95.4
879.82	23.72
879.993	-17.24
880.165	13.48
880.337	25.77
880.509	31.91
880.681	-78.68
880.854	64.68
881.026	87.21
881.198	42.15
881.37	-37.72
881.542	-7
881.714	21.67
881.886	-15.19
882.058	64.68
882.23	70.83
882.402	27.82
882.574	17.58
882.746	72.87
882.918	50.35
883.09	97.45
883.262	19.63
883.434	91.31
883.606	-31.57
883.778	42.15
883.95	56.49
884.122	-7
884.293	162.98
884.465	5.29
884.637	29.87
884.809	-13.14
884.98	-21.33
885.152	31.91
885.324	66.73
885.496	-39.76
885.667	7.34
885.839	70.83
886.011	58.54
886.182	-25.43
886.354	48.3
886.525	107.69
886.697	132.26
886.869	-43.86
887.04	62.63
887.212	64.68
887.383	13.48
887.555	-56.15
887.726	-0.85
887.897	29.87
888.069	-29.52
888.24	48.3
888.412	60.59
888.583	-23.38
888.754	15.53
888.926	-17.24
889.097	-60.24
889.268	-45.91
889.44	5.29
889.611	-23.38
889.782	-78.68
889.953	-7
890.125	62.63
890.296	-72.53
890.467	-33.62
890.638	-62.29
890.809	3.24
890.98	1.19
891.151	-31.57
891.323	93.35
891.494	46.25
891.665	-15.19
891.836	-41.81
892.007	-0.85
892.178	42.15
892.349	36.01
892.52	-33.62
892.691	-23.38
892.862	13.48
893.032	33.96
893.203	56.49
893.374	11.43
893.545	44.2
893.716	-56.15
893.887	33.96
894.057	-31.57
894.228	-2.9
894.399	-13.14
894.57	-33.62
894.74	60.59
894.911	17.58
895.082	-54.1
895.253	103.59
895.423	-29.52
895.594	70.83
895.764	23.72
895.935	-25.43
896.106	44.2
896.276	23.72
896.447	15.53
896.617	-2.9
896.788	-33.62
896.958	3.24
897.129	-25.43
897.299	40.11
897.47	91.31
897.64	44.2
897.81	11.43
897.981	17.58
898.151	15.53
898.322	68.78
898.492	97.45
898.662	-25.43
898.832	9.39
899.003	-19.29
899.173	3.24
899.343	38.06
899.513	29.87
