Data from USB4F104151__73__12-12-40-552.txt Node

Date: Fri Mar 14 12:12:40 EDT 2025
User: louis
Spectrometer: USB4F10415
Trigger mode: 4
Integration Time (sec): 5.000000E-2
Scans to average: 1
Electric dark correction enabled: true
Nonlinearity correction enabled: false
Boxcar width: 0
XAxis mode: Wavelengths
Number of Pixels in Spectrum: 3648
>>>>>Begin Spectral Data<<<<<
178.204	-212.48
178.424	-212.48
178.644	-212.48
178.864	-183.81
179.084	-167.42
179.304	-11.78
179.524	45.57
179.744	12.8
179.964	18.94
180.184	-15.87
180.404	-22.02
180.624	14.85
180.844	-28.16
181.064	-34.3
181.283	37.38
181.503	-36.35
181.723	18.94
181.943	-108.03
182.163	115.2
182.383	-32.26
182.602	49.66
182.822	96.77
183.042	131.58
183.262	-79.36
183.482	10.75
183.701	39.42
183.921	-34.3
184.141	25.09
184.361	78.33
184.58	18.94
184.8	6.66
185.02	49.66
185.239	102.91
185.459	109.05
185.679	109.05
185.898	-40.45
186.118	88.57
186.338	51.71
186.557	43.52
186.777	-5.63
186.997	0.51
187.216	35.33
187.436	131.58
187.655	64
187.875	117.25
188.095	-15.87
188.314	45.57
188.534	113.15
188.753	27.14
188.973	49.66
189.192	113.15
189.412	47.62
189.631	90.62
189.851	31.23
190.07	115.2
190.29	-13.82
190.509	-1.54
190.729	66.05
190.948	35.33
191.168	162.3
191.387	129.53
191.607	29.18
191.826	-17.92
192.045	6.66
192.265	55.81
192.484	86.53
192.704	37.38
192.923	6.66
193.142	143.87
193.362	31.23
193.581	129.53
193.8	55.81
194.02	78.33
194.239	18.94
194.458	6.66
194.678	98.81
194.897	-24.06
195.116	31.23
195.335	35.33
195.555	49.66
195.774	33.28
195.993	84.48
196.212	14.85
196.432	-38.4
196.651	23.04
196.87	31.23
197.089	133.63
197.308	47.62
197.528	33.28
197.747	-38.4
197.966	51.71
198.185	205.31
198.404	43.52
198.623	59.9
198.842	-15.87
199.062	37.38
199.281	139.77
199.5	2.56
199.719	64
199.938	72.19
200.157	59.9
200.376	43.52
200.595	70.14
200.814	10.75
201.033	23.04
201.252	84.48
201.471	2.56
201.69	80.38
201.909	55.81
202.128	37.38
202.347	59.9
202.566	37.38
202.785	104.96
203.004	-11.78
203.223	164.35
203.442	51.71
203.661	-19.97
203.879	76.29
204.098	57.86
204.317	16.9
204.536	59.9
204.755	45.57
204.974	111.1
205.193	64
205.411	168.45
205.63	123.39
205.849	-15.87
206.068	-1.54
206.287	4.61
206.505	53.76
206.724	59.9
206.943	10.75
207.162	-15.87
207.381	49.66
207.599	47.62
207.818	64
208.037	-38.4
208.255	4.61
208.474	72.19
208.693	-11.78
208.911	53.76
209.13	35.33
209.349	78.33
209.567	125.44
209.786	16.9
210.005	51.71
210.223	-38.4
210.442	12.8
210.661	115.2
210.879	-15.87
211.098	64
211.316	61.95
211.535	29.18
211.753	16.9
211.972	12.8
212.191	55.81
212.409	20.99
212.628	20.99
212.846	-28.16
213.065	100.86
213.283	18.94
213.502	-83.45
213.72	90.62
213.938	88.57
214.157	-3.58
214.375	109.05
214.594	-17.92
214.812	47.62
215.031	25.09
215.249	47.62
215.467	59.9
215.686	8.7
215.904	68.09
216.122	10.75
216.341	111.1
216.559	66.05
216.778	68.09
216.996	14.85
217.214	41.47
217.432	53.76
217.651	-5.63
217.869	92.67
218.087	4.61
218.306	20.99
218.524	51.71
218.742	-1.54
218.96	184.83
219.179	29.18
219.397	74.24
219.615	143.87
219.833	127.49
220.051	23.04
220.27	57.86
220.488	72.19
220.706	68.09
220.924	37.38
221.142	51.71
221.36	45.57
221.578	33.28
221.796	10.75
222.015	23.04
222.233	74.24
222.451	127.49
222.669	2.56
222.887	-3.58
223.105	4.61
223.323	49.66
223.541	-52.74
223.759	119.29
223.977	41.47
224.195	51.71
224.413	29.18
224.631	55.81
224.849	66.05
225.067	104.96
225.285	66.05
225.503	-19.97
225.721	-17.92
225.939	18.94
226.157	80.38
226.375	156.16
226.592	-52.74
226.81	18.94
227.028	104.96
227.246	111.1
227.464	-65.02
227.682	113.15
227.9	59.9
228.117	59.9
228.335	135.68
228.553	35.33
228.771	70.14
228.989	59.9
229.206	-24.06
229.424	10.75
229.642	-17.92
229.86	-62.98
230.077	152.06
230.295	0.51
230.513	66.05
230.731	82.43
230.948	76.29
231.166	47.62
231.384	41.47
231.601	-44.54
231.819	125.44
232.037	4.61
232.254	31.23
232.472	16.9
232.689	-7.68
232.907	80.38
233.125	23.04
233.342	0.51
233.56	68.09
233.777	-17.92
233.995	41.47
234.213	64
234.43	6.66
234.648	16.9
234.865	51.71
235.083	18.94
235.3	37.38
235.518	82.43
235.735	111.1
235.953	23.04
236.17	16.9
236.388	-11.78
236.605	-15.87
236.822	72.19
237.04	66.05
237.257	59.9
237.475	-40.45
237.692	10.75
237.909	49.66
238.127	20.99
238.344	35.33
238.562	39.42
238.779	61.95
238.996	-9.73
239.214	8.7
239.431	100.86
239.648	41.47
239.865	100.86
240.083	88.57
240.3	61.95
240.517	39.42
240.735	37.38
240.952	49.66
241.169	57.86
241.386	43.52
241.603	43.52
241.821	-19.97
242.038	90.62
242.255	16.9
242.472	68.09
242.689	14.85
242.907	0.51
243.124	4.61
243.341	-15.87
243.558	25.09
243.775	-44.54
243.992	-73.21
244.209	55.81
244.426	59.9
244.643	123.39
244.86	10.75
245.078	100.86
245.295	59.9
245.512	82.43
245.729	-9.73
245.946	82.43
246.163	98.81
246.38	39.42
246.597	25.09
246.814	113.15
247.031	70.14
247.248	96.77
247.464	53.76
247.681	-44.54
247.898	33.28
248.115	37.38
248.332	59.9
248.549	43.52
248.766	133.63
248.983	41.47
249.2	35.33
249.417	20.99
249.633	64
249.85	80.38
250.067	-7.68
250.284	90.62
250.501	90.62
250.717	158.21
250.934	-5.63
251.151	66.05
251.368	27.14
251.585	70.14
251.801	45.57
252.018	16.9
252.235	96.77
252.451	51.71
252.668	70.14
252.885	117.25
253.102	37.38
253.318	37.38
253.535	78.33
253.752	-3.58
253.968	33.28
254.185	-11.78
254.401	125.44
254.618	31.23
254.835	-83.45
255.051	61.95
255.268	10.75
255.484	98.81
255.701	37.38
255.917	107.01
256.134	-40.45
256.351	14.85
256.567	0.51
256.784	6.66
257	-71.17
257.217	33.28
257.433	76.29
257.65	70.14
257.866	47.62
258.082	20.99
258.299	-40.45
258.515	61.95
258.732	-52.74
258.948	-91.65
259.165	45.57
259.381	18.94
259.597	78.33
259.814	100.86
260.03	-17.92
260.246	94.72
260.463	88.57
260.679	98.81
260.895	41.47
261.112	107.01
261.328	29.18
261.544	-38.4
261.761	131.58
261.977	45.57
262.193	-3.58
262.409	45.57
262.626	76.29
262.842	139.77
263.058	20.99
263.274	133.63
263.49	35.33
263.707	88.57
263.923	25.09
264.139	-5.63
264.355	-54.78
264.571	39.42
264.787	20.99
265.004	61.95
265.22	133.63
265.436	72.19
265.652	39.42
265.868	14.85
266.084	39.42
266.3	98.81
266.516	0.51
266.732	137.73
266.948	53.76
267.164	66.05
267.38	76.29
267.596	-7.68
267.812	78.33
268.028	51.71
268.244	84.48
268.46	47.62
268.676	35.33
268.892	2.56
269.108	0.51
269.324	-46.59
269.54	-7.68
269.756	86.53
269.972	33.28
270.188	16.9
270.403	23.04
270.619	47.62
270.835	45.57
271.051	-40.45
271.267	35.33
271.483	-26.11
271.698	68.09
271.914	127.49
272.13	41.47
272.346	8.7
272.562	-30.21
272.777	96.77
272.993	86.53
273.209	59.9
273.425	18.94
273.64	8.7
273.856	6.66
274.072	4.61
274.287	-60.93
274.503	12.8
274.719	68.09
274.934	-7.68
275.15	-28.16
275.366	-7.68
275.581	27.14
275.797	70.14
276.012	49.66
276.228	23.04
276.444	102.91
276.659	98.81
276.875	-17.92
277.09	-32.26
277.306	-11.78
277.521	90.62
277.737	-34.3
277.952	59.9
278.168	-32.26
278.383	14.85
278.599	37.38
278.814	121.34
279.03	-11.78
279.245	113.15
279.461	51.71
279.676	55.81
279.892	-7.68
280.107	-11.78
280.322	6.66
280.538	61.95
280.753	31.23
280.969	31.23
281.184	-13.82
281.399	90.62
281.615	43.52
281.83	-1.54
282.045	-56.83
282.26	-30.21
282.476	57.86
282.691	49.66
282.906	74.24
283.122	10.75
283.337	0.51
283.552	18.94
283.767	57.86
283.983	41.47
284.198	92.67
284.413	66.05
284.628	-17.92
284.843	64
285.058	57.86
285.274	18.94
285.489	-56.83
285.704	41.47
285.919	76.29
286.134	-1.54
286.349	-24.06
286.564	-17.92
286.779	12.8
286.995	-3.58
287.21	-11.78
287.425	35.33
287.64	18.94
287.855	70.14
288.07	27.14
288.285	55.81
288.5	27.14
288.715	68.09
288.93	61.95
289.145	10.75
289.36	-1.54
289.575	51.71
289.79	104.96
290.004	72.19
290.219	47.62
290.434	-22.02
290.649	-44.54
290.864	72.19
291.079	49.66
291.294	61.95
291.509	133.63
291.724	31.23
291.938	47.62
292.153	68.09
292.368	23.04
292.583	-9.73
292.798	98.81
293.012	6.66
293.227	47.62
293.442	-24.06
293.657	102.91
293.871	98.81
294.086	18.94
294.301	129.53
294.516	20.99
294.73	14.85
294.945	-28.16
295.16	31.23
295.374	121.34
295.589	113.15
295.804	20.99
296.018	35.33
296.233	76.29
296.447	61.95
296.662	-1.54
296.877	59.9
297.091	64
297.306	41.47
297.52	31.23
297.735	57.86
297.949	-1.54
298.164	-24.06
298.378	-30.21
298.593	20.99
298.807	-3.58
299.022	16.9
299.236	78.33
299.451	64
299.665	31.23
299.88	27.14
300.094	47.62
300.309	10.75
300.523	14.85
300.737	51.71
300.952	53.76
301.166	-26.11
301.381	-11.78
301.595	2.56
301.809	10.75
302.024	29.18
302.238	31.23
302.452	61.95
302.667	-42.5
302.881	111.1
303.095	53.76
303.309	18.94
303.524	25.09
303.738	-73.21
303.952	12.8
304.166	31.23
304.381	-36.35
304.595	92.67
304.809	107.01
305.023	133.63
305.237	-30.21
305.452	4.61
305.666	90.62
305.88	37.38
306.094	57.86
306.308	23.04
306.522	-5.63
306.736	10.75
306.95	45.57
307.164	84.48
307.379	-24.06
307.593	156.16
307.807	72.19
308.021	57.86
308.235	49.66
308.449	-46.59
308.663	12.8
308.877	137.73
309.091	55.81
309.305	66.05
309.519	23.04
309.733	37.38
309.947	-3.58
310.161	51.71
310.374	111.1
310.588	92.67
310.802	-19.97
311.016	80.38
311.23	39.42
311.444	-50.69
311.658	53.76
311.872	86.53
312.085	12.8
312.299	72.19
312.513	115.2
312.727	55.81
312.941	37.38
313.154	33.28
313.368	35.33
313.582	61.95
313.796	66.05
314.009	2.56
314.223	-11.78
314.437	107.01
314.651	37.38
314.864	51.71
315.078	74.24
315.292	-101.89
315.505	107.01
315.719	31.23
315.933	80.38
316.146	45.57
316.36	31.23
316.573	76.29
316.787	47.62
317.001	88.57
317.214	-11.78
317.428	41.47
317.641	-26.11
317.855	2.56
318.068	68.09
318.282	39.42
318.495	66.05
318.709	86.53
318.922	57.86
319.136	41.47
319.349	61.95
319.563	-24.06
319.776	68.09
319.99	-99.84
320.203	90.62
320.417	33.28
320.63	115.2
320.843	156.16
321.057	109.05
321.27	-9.73
321.483	27.14
321.697	92.67
321.91	94.72
322.124	64
322.337	33.28
322.55	-46.59
322.763	53.76
322.977	49.66
323.19	33.28
323.403	61.95
323.617	43.52
323.83	64
324.043	57.86
324.256	115.2
324.469	-44.54
324.683	66.05
324.896	2.56
325.109	86.53
325.322	23.04
325.535	33.28
325.748	2.56
325.962	0.51
326.175	37.38
326.388	18.94
326.601	72.19
326.814	-9.73
327.027	4.61
327.24	90.62
327.453	12.8
327.666	64
327.879	125.44
328.092	76.29
328.305	45.57
328.518	82.43
328.731	-7.68
328.944	66.05
329.157	29.18
329.37	25.09
329.583	66.05
329.796	31.23
330.009	-11.78
330.222	31.23
330.435	135.68
330.648	12.8
330.861	39.42
331.073	16.9
331.286	94.72
331.499	64
331.712	47.62
331.925	12.8
332.138	35.33
332.35	35.33
332.563	33.28
332.776	98.81
332.989	12.8
333.202	33.28
333.414	20.99
333.627	80.38
333.84	23.04
334.053	61.95
334.265	-24.06
334.478	-22.02
334.691	-1.54
334.903	-7.68
335.116	4.61
335.329	-17.92
335.541	109.05
335.754	121.34
335.966	23.04
336.179	33.28
336.392	49.66
336.604	113.15
336.817	35.33
337.029	-1.54
337.242	-3.58
337.454	-32.26
337.667	10.75
337.88	92.67
338.092	111.1
338.305	80.38
338.517	0.51
338.729	84.48
338.942	61.95
339.154	49.66
339.367	41.47
339.579	125.44
339.792	-1.54
340.004	43.52
340.217	68.09
340.429	49.66
340.641	4.61
340.854	27.14
341.066	-58.88
341.278	76.29
341.491	94.72
341.703	70.14
341.915	16.9
342.128	78.33
342.34	29.18
342.552	16.9
342.764	55.81
342.977	20.99
343.189	64
343.401	31.23
343.613	-60.93
343.826	53.76
344.038	-34.3
344.25	27.14
344.462	82.43
344.674	94.72
344.886	-1.54
345.099	92.67
345.311	55.81
345.523	107.01
345.735	39.42
345.947	-28.16
346.159	82.43
346.371	37.38
346.583	-22.02
346.795	82.43
347.007	59.9
347.219	12.8
347.431	82.43
347.643	88.57
347.855	72.19
348.067	111.1
348.279	6.66
348.491	-38.4
348.703	39.42
348.915	-15.87
349.127	-38.4
349.339	45.57
349.551	72.19
349.763	78.33
349.975	66.05
350.187	-1.54
350.399	66.05
350.61	23.04
350.822	-77.31
351.034	39.42
351.246	12.8
351.458	66.05
351.669	14.85
351.881	102.91
352.093	96.77
352.305	33.28
352.517	137.73
352.728	29.18
352.94	51.71
353.152	123.39
353.363	8.7
353.575	4.61
353.787	70.14
353.999	66.05
354.21	119.29
354.422	43.52
354.633	23.04
354.845	27.14
355.057	31.23
355.268	39.42
355.48	74.24
355.692	53.76
355.903	18.94
356.115	20.99
356.326	27.14
356.538	80.38
356.749	98.81
356.961	121.34
357.172	41.47
357.384	20.99
357.595	147.97
357.807	82.43
358.018	-5.63
358.23	16.9
358.441	86.53
358.653	-26.11
358.864	59.9
359.075	33.28
359.287	-3.58
359.498	109.05
359.709	37.38
359.921	59.9
360.132	-26.11
360.344	57.86
360.555	-11.78
360.766	43.52
360.977	64
361.189	66.05
361.4	-34.3
361.611	49.66
361.823	107.01
362.034	41.47
362.245	-15.87
362.456	59.9
362.667	51.71
362.879	16.9
363.09	25.09
363.301	123.39
363.512	-15.87
363.723	14.85
363.935	-24.06
364.146	98.81
364.357	39.42
364.568	68.09
364.779	-19.97
364.99	80.38
365.201	-28.16
365.412	131.58
365.623	-97.79
365.834	-32.26
366.045	41.47
366.256	104.96
366.467	25.09
366.678	41.47
366.889	61.95
367.1	61.95
367.311	57.86
367.522	72.19
367.733	72.19
367.944	80.38
368.155	100.86
368.366	23.04
368.577	51.71
368.788	96.77
368.999	59.9
369.209	31.23
369.42	186.88
369.631	76.29
369.842	18.94
370.053	-3.58
370.264	27.14
370.474	-50.69
370.685	100.86
370.896	33.28
371.107	37.38
371.317	14.85
371.528	14.85
371.739	109.05
371.95	4.61
372.16	66.05
372.371	-17.92
372.582	41.47
372.792	70.14
373.003	72.19
373.214	35.33
373.424	78.33
373.635	25.09
373.846	117.25
374.056	64
374.267	64
374.477	82.43
374.688	61.95
374.898	53.76
375.109	-15.87
375.319	109.05
375.53	59.9
375.74	172.54
375.951	-11.78
376.161	47.62
376.372	16.9
376.582	57.86
376.793	121.34
377.003	16.9
377.214	49.66
377.424	27.14
377.635	27.14
377.845	-3.58
378.055	172.54
378.266	31.23
378.476	16.9
378.686	39.42
378.897	25.09
379.107	53.76
379.317	86.53
379.528	100.86
379.738	2.56
379.948	-7.68
380.158	139.77
380.369	92.67
380.579	53.76
380.789	-7.68
380.999	55.81
381.21	45.57
381.42	88.57
381.63	51.71
381.84	-22.02
382.05	39.42
382.261	88.57
382.471	37.38
382.681	16.9
382.891	96.77
383.101	0.51
383.311	-7.68
383.521	47.62
383.731	125.44
383.941	78.33
384.151	64
384.361	43.52
384.571	70.14
384.781	31.23
384.991	211.45
385.201	104.96
385.411	137.73
385.621	88.57
385.831	117.25
386.041	2.56
386.251	-3.58
386.461	96.77
386.671	86.53
386.881	59.9
387.091	-7.68
387.301	92.67
387.511	31.23
387.72	6.66
387.93	27.14
388.14	-17.92
388.35	14.85
388.56	90.62
388.769	78.33
388.979	121.34
389.189	33.28
389.399	100.86
389.609	96.77
389.818	123.39
390.028	100.86
390.238	39.42
390.447	10.75
390.657	88.57
390.867	53.76
391.076	88.57
391.286	98.81
391.496	76.29
391.705	86.53
391.915	92.67
392.125	86.53
392.334	92.67
392.544	141.82
392.753	18.94
392.963	-48.64
393.172	61.95
393.382	-3.58
393.591	137.73
393.801	27.14
394.01	123.39
394.22	45.57
394.429	94.72
394.639	117.25
394.848	117.25
395.058	100.86
395.267	12.8
395.477	88.57
395.686	64
395.895	109.05
396.105	182.78
396.314	86.53
396.524	23.04
396.733	53.76
396.942	92.67
397.152	111.1
397.361	82.43
397.57	23.04
397.78	47.62
397.989	53.76
398.198	111.1
398.407	82.43
398.617	74.24
398.826	45.57
399.035	33.28
399.244	98.81
399.453	-17.92
399.663	-11.78
399.872	61.95
400.081	84.48
400.29	152.06
400.499	100.86
400.708	152.06
400.917	104.96
401.127	74.24
401.336	64
401.545	137.73
401.754	129.53
401.963	152.06
402.172	88.57
402.381	61.95
402.59	109.05
402.799	88.57
403.008	84.48
403.217	64
403.426	68.09
403.635	61.95
403.844	123.39
404.053	100.86
404.262	51.71
404.471	219.64
404.68	133.63
404.888	49.66
405.097	100.86
405.306	115.2
405.515	188.93
405.724	102.91
405.933	186.88
406.142	117.25
406.35	145.92
406.559	135.68
406.768	88.57
406.977	213.5
407.185	158.21
407.394	109.05
407.603	143.87
407.812	188.93
408.02	117.25
408.229	141.82
408.438	113.15
408.646	64
408.855	94.72
409.064	207.36
409.272	219.64
409.481	162.3
409.69	133.63
409.898	201.21
410.107	262.65
410.315	195.07
410.524	180.73
410.733	242.17
410.941	225.79
411.15	295.42
411.358	279.04
411.567	254.46
411.775	291.32
411.984	311.8
412.192	303.61
412.401	238.08
412.609	295.42
412.818	338.43
413.026	326.14
413.234	256.51
413.443	309.76
413.651	295.42
413.86	344.57
414.068	383.48
414.276	479.74
414.485	393.72
414.693	475.64
414.901	424.44
415.11	469.5
415.318	406.01
415.526	438.78
415.734	424.44
415.943	446.97
416.151	492.02
416.359	461.3
416.567	453.11
416.776	580.09
416.984	582.14
417.192	668.15
417.4	571.9
417.608	633.33
417.817	528.89
418.025	766.45
418.233	752.12
418.441	711.16
418.649	651.77
418.857	786.93
419.065	821.75
419.273	811.51
419.481	727.54
419.689	842.23
419.897	834.04
420.105	805.36
420.313	1014.26
420.521	1030.64
420.729	975.35
420.937	969.2
421.145	1069.55
421.353	1090.03
421.561	1202.67
421.769	1112.56
421.977	1102.32
422.185	1313.26
422.393	1329.64
422.601	1360.36
422.809	1368.56
423.017	1356.27
423.224	1376.75
423.432	1487.34
423.64	1438.19
423.848	1573.35
424.056	1546.73
424.263	1610.22
424.471	1606.12
424.679	1733.09
424.887	1640.93
425.094	1874.4
425.302	1841.64
425.51	1898.98
425.718	1911.27
425.925	1980.9
426.133	2075.1
426.341	2177.5
426.548	2308.57
426.756	2343.39
426.964	2247.13
427.171	2341.34
427.379	2517.47
427.586	2441.69
427.794	2687.45
428.001	2687.45
428.209	2738.65
428.417	2742.74
428.624	2961.87
428.832	2990.55
429.039	2955.73
429.247	2982.35
429.454	3248.59
429.662	3394
429.869	3230.16
430.076	3396.04
430.284	3500.49
430.491	3621.32
430.699	3635.66
430.906	3629.51
431.114	3817.93
431.321	3908.04
431.528	4006.34
431.736	4248
431.943	4463.04
432.15	4323.77
432.358	4147.65
432.565	4544.95
432.772	4387.26
432.979	4716.98
433.187	4903.35
433.394	4895.16
433.601	5149.11
433.808	5263.79
434.016	5239.22
434.223	5511.6
434.43	5714.34
434.637	5646.76
434.844	5841.32
435.052	5900.71
435.259	6160.8
435.466	6173.09
435.673	5906.85
435.88	6488.48
436.087	6826.39
436.294	6664.6
436.501	6468
436.708	6687.13
436.915	7066
437.122	7258.51
437.329	7305.62
437.537	7500.17
437.743	7483.79
437.95	7559.56
438.157	7840.14
438.364	8108.42
438.571	8190.34
438.778	8198.53
438.985	8919.42
439.192	8593.79
439.399	8743.29
439.606	8804.73
439.813	9212.28
440.02	9693.55
440.227	9445.74
440.433	9351.54
440.64	9820.52
440.847	9644.4
441.054	9806.19
441.261	10658.14
441.467	10629.47
441.674	10541.41
441.881	11114.84
442.088	10969.43
442.294	10864.99
442.501	11049.3
442.708	11508.05
442.914	11813.2
443.121	12478.79
443.328	11794.76
443.534	12558.66
443.741	12310.85
443.948	12200.26
444.154	13220.15
444.361	12947.77
444.568	13310.26
444.774	13379.89
444.981	13306.16
445.187	13926.7
445.394	14233.89
445.6	14078.25
445.807	15325.46
446.013	14657.82
446.22	15057.18
446.426	15591.7
446.633	15649.04
446.839	16193.8
447.046	15548.69
447.252	16601.35
447.459	16396.55
447.665	16402.69
447.871	17101.05
448.078	17987.82
448.284	16986.36
448.491	17258.74
448.697	18436.33
448.903	18565.35
449.11	18510.05
449.316	18249.96
449.522	18665.7
449.728	19196.12
449.935	19161.31
450.141	19151.07
450.347	19884.24
450.553	18837.73
450.76	19243.23
450.966	19943.63
451.172	19765.46
451.378	20410.57
451.584	19933.39
451.791	20281.55
451.997	20500.68
452.203	20777.15
452.409	20723.91
452.615	20416.71
452.821	19501.27
453.027	19349.72
453.233	20658.37
453.44	19595.48
453.646	19988.69
453.852	20179.15
454.058	20304.07
454.264	19949.78
454.47	20365.51
454.676	19839.19
454.882	20259.02
455.088	18585.83
455.294	18882.78
455.5	18964.7
455.705	19333.34
455.911	18415.85
456.117	18295.02
456.323	18069.74
456.529	17002.75
456.735	17703.15
456.941	17320.18
457.147	17103.1
457.352	16441.61
457.558	16455.94
457.764	16306.44
457.97	15995.15
458.176	15737.1
458.381	15827.21
458.587	14991.64
458.793	14899.48
458.999	14170.41
459.204	15331.61
459.41	14772.51
459.616	13887.79
459.821	13596.98
460.027	13789.49
460.233	13244.73
460.438	12693.82
460.644	12894.52
460.85	12357.96
461.055	12292.42
461.261	12081.48
461.466	11139.41
461.672	10883.42
461.878	11706.7
462.083	10871.13
462.289	10457.44
462.494	10684.76
462.7	10144.1
462.905	9818.47
463.111	10262.88
463.316	10322.27
463.522	10000.74
463.727	10027.37
463.932	9832.81
464.138	9800.04
464.343	9820.52
464.549	9656.68
464.754	9853.29
464.959	9767.27
465.165	9732.46
465.37	9431.41
465.575	8903.03
465.781	9337.2
465.986	9480.56
466.191	9060.73
466.397	8884.6
466.602	8554.88
466.807	8743.29
467.012	8771.96
467.218	8690.04
467.423	8671.61
467.628	8806.78
467.833	8935.8
468.038	8774.01
468.244	8489.34
468.449	8966.52
468.654	8665.47
468.859	8305.03
469.064	8194.43
469.269	8067.46
469.474	8157.57
469.679	8360.32
469.885	7999.88
470.09	8190.34
470.295	8126.85
470.5	7887.24
470.705	7991.69
470.91	7758.22
471.115	7881.1
471.32	7797.13
471.525	8018.31
471.73	7616.91
471.935	7651.72
472.139	7340.43
472.344	7512.46
472.549	7184.79
472.754	7393.68
472.959	7319.95
473.164	7070.1
473.369	6898.07
473.574	7172.5
473.778	6961.56
473.983	7039.38
474.188	6988.18
474.393	6627.74
474.598	6736.28
474.802	6723.99
475.007	6654.36
475.212	6611.36
475.417	6625.69
475.621	6551.96
475.826	6244.77
476.031	6144.42
476.235	6205.86
476.44	6281.63
476.645	6070.69
476.849	6085.03
477.054	6107.55
477.259	6056.36
477.463	5990.82
477.668	5812.65
477.872	5884.33
478.077	5794.22
478.282	5470.64
478.486	5667.24
478.691	5460.4
478.895	5478.83
479.1	5390.77
479.304	5491.12
479.509	5450.16
479.713	5476.78
479.918	5341.61
480.122	5179.82
480.326	5247.41
480.531	5325.23
480.735	5159.35
480.94	5314.99
481.144	5308.85
481.348	5046.71
481.553	5257.65
481.757	5134.77
481.961	5282.22
482.166	5198.26
482.37	5208.5
482.574	4981.17
482.778	4989.36
482.983	5282.22
483.187	5202.35
483.391	5151.15
483.595	5142.96
483.8	5085.62
484.004	5095.86
484.208	4979.12
484.412	5081.52
484.616	5126.58
484.821	5200.3
485.025	5153.2
485.229	5089.71
485.433	5120.43
485.637	5102
485.841	5198.26
486.045	5013.94
486.249	5110.19
486.453	5151.15
486.657	4989.36
486.861	5003.7
487.065	5001.65
487.269	5194.16
487.473	5020.08
487.677	5034.42
487.881	5214.64
488.085	5018.04
488.289	5085.62
488.493	5030.32
488.697	5028.28
488.901	5165.49
489.105	5237.17
489.309	5044.66
489.512	5128.63
489.716	5253.55
489.92	5112.24
490.124	5046.71
490.328	5128.63
490.531	5061.04
490.735	5198.26
490.939	5181.87
491.143	5226.93
491.346	5173.68
491.55	5245.36
491.754	5177.78
491.958	5423.53
492.161	5226.93
492.365	5317.04
492.569	5390.77
492.772	5380.53
492.976	5333.42
493.18	5323.18
493.383	5525.93
493.587	5435.82
493.79	5749.16
493.994	5491.12
494.197	5566.89
494.401	5585.32
494.605	5605.8
494.808	5648.81
495.012	5620.14
495.215	5898.66
495.419	5822.89
495.622	5751.21
495.825	5702.06
496.029	5697.96
496.232	6076.84
496.436	6087.08
496.639	6074.79
496.843	6019.49
497.046	6142.37
497.249	6164.9
497.453	6146.47
497.656	6293.92
497.859	6322.59
498.063	6439.33
498.266	6564.25
498.469	6418.85
498.673	6599.07
498.876	6640.03
499.079	6601.12
499.282	6699.42
499.485	7029.14
499.689	6943.13
499.892	6979.99
500.095	6957.46
500.298	7319.95
500.501	7164.31
500.705	7278.99
500.908	7432.59
501.111	7475.6
501.314	7367.06
501.517	7575.95
501.72	7743.88
501.923	7608.72
502.126	7854.47
502.329	7985.54
502.532	7979.4
502.735	7983.49
502.938	8151.43
503.141	8366.46
503.344	8348.03
503.547	8329.6
503.75	8558.97
503.953	8579.45
504.156	8583.55
504.359	8794.49
504.562	8708.48
504.765	8974.71
504.968	8917.37
505.17	9122.16
505.373	9116.02
505.576	9224.56
505.779	9410.93
505.982	9445.74
506.185	9714.03
506.387	9589.1
506.59	9822.57
506.793	9916.78
506.996	9914.73
507.198	10178.92
507.401	10107.24
507.604	10144.1
507.807	10393.95
508.009	10649.95
508.212	10381.67
508.415	10733.92
508.617	10639.71
508.82	10723.68
509.022	10813.79
509.225	11278.68
509.428	10951
509.63	11231.57
509.833	11272.53
510.035	11454.8
510.238	11399.51
510.44	11546.96
510.643	11888.97
510.845	11802.96
511.048	11745.61
511.25	11903.31
511.453	12212.55
511.655	12372.29
511.858	12224.84
512.06	12353.86
512.262	12542.27
512.465	12607.81
512.667	12904.76
512.87	12826.94
513.072	13033.79
513.274	12931.39
513.477	13304.12
513.679	13267.25
513.881	13220.15
514.084	13365.56
514.286	13263.16
514.488	13564.21
514.69	14172.46
514.893	13836.59
515.095	13938.99
515.297	14197.03
515.499	14242.09
515.701	14383.4
515.904	14522.66
516.106	14496.03
516.308	14639.39
516.51	15046.94
516.712	14735.65
516.914	14893.34
517.116	15208.73
517.318	14979.36
517.52	15419.67
517.722	15532.31
517.925	15661.33
518.127	15667.47
518.329	15444.24
518.531	15749.39
518.733	16058.63
518.935	15913.23
519.136	15956.24
519.338	16468.23
519.54	16251.14
519.742	16384.26
519.944	16539.91
520.146	16638.21
520.348	16976.12
520.55	16734.46
520.752	16711.94
520.954	17125.63
521.155	17086.72
521.357	17281.27
521.559	17099
521.761	17737.97
521.963	17492.21
522.164	17576.18
522.366	17660.15
522.568	17768.69
522.77	17766.64
522.971	18143.47
523.173	17651.95
523.375	17973.49
523.576	18079.98
523.778	17936.62
523.98	18391.27
524.181	18321.64
524.383	18319.59
524.584	18602.21
524.786	18657.51
524.988	18630.88
525.189	18725.09
525.391	18790.63
525.592	19230.94
525.794	18784.48
525.995	18899.17
526.197	19020
526.398	19065.05
526.6	19108.06
526.801	18995.42
527.003	19171.55
527.204	19032.29
527.406	19308.76
527.607	19251.42
527.808	19362.01
528.01	19083.48
528.211	19189.98
528.412	19347.67
528.614	19626.2
528.815	19378.39
529.016	19671.25
529.218	19443.93
529.419	19679.44
529.62	19597.52
529.822	19650.77
530.023	19556.57
530.224	19663.06
530.425	19261.66
530.626	19364.06
530.828	19536.09
531.029	19949.78
531.23	19597.52
531.431	19558.61
531.632	19792.08
531.833	19568.85
532.035	19722.45
532.236	19630.29
532.437	19579.09
532.638	19577.05
532.839	19810.51
533.04	19710.16
533.241	19611.86
533.442	20025.55
533.643	19525.85
533.844	19925.2
534.045	19740.88
534.246	19609.81
534.447	19861.71
534.648	19587.29
534.849	19726.55
535.05	19632.34
535.251	19480.79
535.451	19474.65
535.652	19744.98
535.853	19556.57
536.054	19910.86
536.255	19742.93
536.456	19531.99
536.657	19945.68
536.857	19480.79
537.058	19540.18
537.259	19830.99
537.46	19857.62
537.66	19519.7
537.861	19734.74
538.062	19478.74
538.263	19601.62
538.463	19624.15
538.664	19355.86
538.865	19667.16
539.065	19685.59
539.266	19423.45
539.466	19603.67
539.667	19331.29
539.868	19740.88
540.068	19441.88
540.269	19515.61
540.469	19560.66
540.67	19405.02
540.87	19628.24
541.071	19450.07
541.271	19396.82
541.472	19400.92
541.672	19679.44
541.873	19427.54
542.073	19183.84
542.274	19677.4
542.474	19441.88
542.675	19343.58
542.875	19566.81
543.075	19341.53
543.276	19357.91
543.476	19499.22
543.676	19466.45
543.877	19319
544.077	19507.41
544.277	19271.9
544.478	19405.02
544.678	19327.19
544.878	19357.91
545.078	19335.38
545.279	19181.79
545.479	19267.8
545.679	19339.48
545.879	19220.7
546.079	19185.88
546.28	19136.73
546.48	19198.17
546.68	19310.81
546.88	19327.19
547.08	19290.33
547.28	19155.16
547.48	19017.95
547.68	19560.66
547.88	19120.35
548.081	19359.96
548.281	19124.44
548.481	19232.99
548.681	19392.73
548.881	19108.06
549.081	19124.44
549.28	19065.05
549.48	19142.88
549.68	19161.31
549.88	19439.83
550.08	19173.6
550.28	19132.64
550.48	19022.05
550.68	19194.08
550.88	18872.54
551.08	19171.55
551.279	19077.34
551.479	18970.85
551.679	19028.19
551.879	18948.32
552.079	19196.12
552.278	19161.31
552.478	19187.93
552.678	18995.42
552.878	19128.54
553.077	18800.87
553.277	18766.05
553.477	19151.07
553.676	19054.81
553.876	18938.08
554.076	18985.18
554.275	19009.76
554.475	18618.6
554.674	19153.12
554.874	19101.92
555.074	18827.49
555.273	18766.05
555.473	18991.33
555.672	18921.7
555.872	19050.72
556.071	18858.21
556.271	18929.89
556.47	18886.88
556.67	18884.83
556.869	18520.29
557.068	19054.81
557.268	18819.3
557.467	18802.91
557.667	18796.77
557.866	19075.29
558.065	18864.35
558.265	18612.45
558.464	18688.23
558.663	18925.79
558.863	18544.87
559.062	18989.28
559.261	18815.2
559.461	18917.6
559.66	18503.91
559.859	18663.65
560.058	18704.61
560.258	18440.42
560.457	18536.68
560.656	18751.71
560.855	18657.51
561.054	18751.71
561.253	18530.53
561.453	18514.15
561.652	18505.96
561.851	18727.14
562.05	18485.48
562.249	18376.94
562.448	18413.8
562.647	18372.84
562.846	18524.39
563.045	18622.69
563.244	18413.8
563.443	18434.28
563.642	18280.68
563.841	18557.16
564.04	18346.22
564.239	18335.98
564.438	18307.3
564.637	18221.29
564.836	18233.58
565.035	18209
565.234	18477.29
565.432	18194.67
565.631	18436.33
565.83	18485.48
566.029	18139.37
566.228	18335.98
566.427	18356.46
566.625	18176.23
566.824	18211.05
567.023	18565.35
567.222	18094.32
567.42	18325.74
567.619	18141.42
567.818	17922.29
568.016	18397.42
568.215	18133.23
568.414	18202.86
568.612	18147.56
568.811	18055.4
569.01	18245.87
569.208	17826.03
569.407	18112.75
569.605	17969.39
569.804	18227.43
570.002	18018.54
570.201	17996.01
570.4	17920.24
570.598	17799.41
570.797	17674.48
570.995	17938.67
571.193	17715.44
571.392	17918.19
571.59	17651.95
571.789	17955.05
571.987	17836.27
572.186	17842.42
572.384	17744.11
572.582	17783.02
572.781	17918.19
572.979	17596.66
573.177	17811.7
573.376	17701.11
573.574	17611
573.772	17635.57
573.971	17502.45
574.169	17524.98
574.367	17645.81
574.565	17481.97
574.763	17434.87
574.962	17496.31
575.16	17359.1
575.358	17393.91
575.556	17410.29
575.754	17742.07
575.952	17453.3
576.151	17352.95
576.349	16939.26
576.547	17174.78
576.745	17365.24
576.943	17453.3
577.141	17461.49
577.339	17060.09
577.537	17107.19
577.735	17051.9
577.933	17101.05
578.131	17109.24
578.329	17191.16
578.527	16638.21
578.725	17193.21
578.923	17131.77
579.121	16947.45
579.319	16906.49
579.516	17060.09
579.714	17051.9
579.912	16861.44
580.11	16838.91
580.308	16865.53
580.506	16883.97
580.704	16554.24
580.901	16648.45
581.099	17023.23
581.297	16621.83
581.495	16746.75
581.692	16802.05
581.89	16597.25
582.088	16640.26
582.285	16466.18
582.483	16619.78
582.681	16558.34
582.878	16681.22
583.076	16681.22
583.274	16472.32
583.471	16197.9
583.669	16501
583.866	16179.47
584.064	16666.88
584.262	16175.37
584.459	16091.4
584.657	16101.64
584.854	16437.51
585.052	16085.26
585.249	16046.35
585.447	16177.42
585.644	16091.4
585.841	15966.48
586.039	16457.99
586.236	16068.87
586.434	16011.53
586.631	16130.31
586.828	16103.69
587.026	16101.64
587.223	15794.45
587.42	15874.32
587.618	15663.38
587.815	15773.97
588.012	16056.59
588.21	15823.12
588.407	15999.24
588.604	15452.44
588.801	15405.33
588.999	15642.9
589.196	15581.46
589.393	15587.6
589.59	15579.41
589.787	15624.47
589.984	15485.2
590.182	15446.29
590.379	15352.09
590.576	15202.58
590.773	15345.94
590.97	15419.67
591.167	15315.22
591.364	15196.44
591.561	15202.58
591.758	15059.23
591.955	15180.06
592.152	15364.37
592.349	14999.84
592.546	15366.42
592.743	15171.86
592.94	15169.82
593.137	15053.08
593.334	15255.83
593.531	14848.29
593.727	15171.86
593.924	14836
594.121	14778.65
594.318	14819.61
594.515	14801.18
594.712	15048.99
594.908	14993.69
595.105	14874.91
595.302	14694.69
595.499	14788.89
595.696	14571.81
595.892	14823.71
596.089	14618.91
596.286	14616.86
596.482	14690.59
596.679	14471.46
596.876	14696.74
597.072	14373.16
597.269	14379.3
597.466	14237.99
597.662	14154.02
597.859	14143.78
598.055	14577.95
598.252	14354.72
598.448	14342.44
598.645	14358.82
598.841	14149.93
599.038	14231.85
599.234	14342.44
599.431	14041.39
599.627	13996.33
599.824	14022.95
600.02	13924.65
600.217	14201.13
600.413	13936.94
600.609	14090.54
600.806	13953.32
601.002	13828.4
601.198	13891.88
601.395	13707.57
601.591	13797.68
601.787	13916.46
601.984	13758.77
602.18	13857.07
602.376	13701.42
602.572	13871.4
602.769	13693.23
602.965	13566.26
603.161	13506.87
603.357	13779.25
603.553	13721.9
603.75	13553.97
603.946	13533.49
604.142	13572.4
604.338	13498.67
604.534	13404.47
604.73	13467.95
604.926	13490.48
605.122	13525.3
605.318	13326.64
605.514	13287.73
605.71	13179.19
605.906	13209.91
606.102	13109.56
606.298	13390.13
606.494	13365.56
606.69	13306.16
606.886	13164.86
607.082	13084.98
607.278	13326.64
607.474	12859.71
607.67	13044.02
607.866	12800.32
608.062	13228.34
608.257	12869.95
608.453	12988.73
608.649	12992.83
608.845	12753.21
609.041	12984.63
609.236	12935.48
609.432	12929.34
609.628	13044.02
609.824	12804.41
610.019	12826.94
610.215	12593.47
610.411	12818.75
610.606	12767.55
610.802	12798.27
610.998	12605.76
611.193	13113.66
611.389	12638.53
611.584	12648.77
611.78	12683.58
611.976	12726.59
612.171	12736.83
612.367	12781.88
612.562	12484.93
612.758	12384.58
612.953	12626.24
613.149	12714.3
613.344	12478.79
613.539	12591.42
613.735	12599.62
613.93	12626.24
614.126	12482.88
614.321	12560.7
614.517	12370.24
614.712	12450.11
614.907	12362.05
615.103	12400.96
615.298	12509.51
615.493	12509.51
615.688	12089.67
615.884	12603.71
616.079	12190.02
616.274	12323.14
616.47	12187.97
616.665	12323.14
616.86	12061
617.055	12110.15
617.25	12253.51
617.445	12290.37
617.641	11827.53
617.836	12112.2
618.031	11809.1
618.226	11950.41
618.421	12024.14
618.616	12034.38
618.811	11950.41
619.006	12071.24
619.201	11673.93
619.396	11931.98
619.591	11807.05
619.786	11999.56
619.981	11491.66
620.176	11891.02
620.371	11528.53
620.566	11575.63
620.761	11516.24
620.956	11729.23
621.151	11266.39
621.346	11544.91
621.541	11190.61
621.735	11438.42
621.93	11153.75
622.125	11415.89
622.32	11202.9
622.515	11190.61
622.709	11276.63
622.904	11096.41
623.099	10983.77
623.294	11127.13
623.488	11088.21
623.683	10867.03
623.878	10817.88
624.072	10875.23
624.267	10789.21
624.462	10594.65
624.656	10559.84
624.851	10643.81
625.046	10449.25
625.24	10477.92
625.435	10469.73
625.629	10385.76
625.824	10398.05
626.018	10281.32
626.213	10195.3
626.407	10424.67
626.602	10232.16
626.796	9992.55
626.991	10242.4
627.185	9785.71
627.38	10113.38
627.574	9951.59
627.768	9777.51
627.963	9779.56
628.157	9759.08
628.352	9767.27
628.546	9607.53
628.74	9511.28
628.935	9451.89
629.129	9564.53
629.323	9398.64
629.517	9482.61
629.712	9437.55
629.906	9103.73
630.1	9253.23
630.294	9181.56
630.489	9259.38
630.683	9083.25
630.877	8968.57
631.071	9068.92
631.265	9259.38
631.459	9193.84
631.653	8919.42
631.848	9091.45
632.042	8718.71
632.236	8898.94
632.43	8790.39
632.624	8767.87
632.818	8640.89
633.012	8567.17
633.206	8667.52
633.4	8616.32
633.594	8434.05
633.788	8475.01
633.982	8302.98
634.176	8503.68
634.369	8458.62
634.563	8407.42
634.757	8300.93
634.951	8130.95
635.145	8345.98
635.339	8270.21
635.533	8180.1
635.726	8251.78
635.92	7905.67
636.114	7971.21
636.308	7971.21
636.501	8079.75
636.695	7942.53
636.889	7776.65
637.083	7623.05
637.276	7696.78
637.47	7868.81
637.664	7711.11
637.857	7758.22
638.051	7498.13
638.244	7647.63
638.438	7598.48
638.632	7487.89
638.825	7405.97
639.019	7365.01
639.212	7252.37
639.406	7246.23
639.599	7158.16
639.793	7297.42
639.986	7111.06
640.18	7076.24
640.373	7127.44
640.567	7131.54
640.76	7229.84
640.954	6906.26
641.147	6945.17
641.34	6891.93
641.534	6840.73
641.727	6859.16
641.92	6830.49
642.114	6814.1
642.307	6728.09
642.5	6748.57
642.694	6486.43
642.887	6664.6
643.08	6709.66
643.273	6488.48
643.467	6496.67
643.66	6379.93
643.853	6478.24
644.046	6306.21
644.239	6408.61
644.432	6138.27
644.626	6349.22
644.819	6242.72
645.012	6232.48
645.205	6326.69
645.398	6216.1
645.591	6097.31
645.784	6072.74
645.977	6093.22
646.17	6152.61
646.363	5882.28
646.556	5851.56
646.749	5994.92
646.942	6027.68
647.135	5816.74
647.328	5884.33
647.521	5880.23
647.714	5855.65
647.907	5777.83
648.099	5702.06
648.292	5749.16
648.485	5890.47
648.678	5704.1
648.871	5429.68
649.064	5573.03
649.256	5478.83
649.449	5388.72
649.642	5491.12
649.835	5323.18
650.027	5247.41
650.22	5349.81
650.413	5216.69
650.605	5335.47
650.798	5265.84
650.991	5134.77
651.183	5218.74
651.376	5083.57
651.568	5104.05
651.761	5142.96
651.954	5122.48
652.146	5056.95
652.339	5050.8
652.531	5024.18
652.724	5022.13
652.916	4927.92
653.109	4975.03
653.301	4981.17
653.494	4944.31
653.686	4833.72
653.879	4921.78
654.071	4794.81
654.263	4714.94
654.456	4641.21
654.648	4796.85
654.84	4690.36
655.033	4561.34
655.225	4569.53
655.417	4622.78
655.61	4661.69
655.802	4778.42
655.994	4594.11
656.186	4487.61
656.379	4522.43
656.571	4317.63
656.763	4370.88
656.955	4489.66
657.148	4291.01
657.34	4413.88
657.532	4360.64
657.724	4407.74
657.916	4297.15
658.108	4299.2
658.3	4276.67
658.492	4405.69
658.684	4252.1
658.876	4110.79
659.068	4190.66
659.26	4170.18
659.452	4086.21
659.644	4037.06
659.836	4256.19
660.028	4045.25
660.22	4035.01
660.412	3963.33
660.604	3860.93
660.796	3949
660.988	4039.11
661.18	3838.41
661.372	3938.76
661.563	3957.19
661.755	3914.18
661.947	3805.64
662.139	3889.6
662.331	3754.44
662.522	3877.32
662.714	3742.15
662.906	3746.25
663.097	3682.76
663.289	3733.96
663.481	3756.49
663.673	3533.26
663.864	3672.52
664.056	3713.48
664.247	3807.69
664.439	3645.9
664.631	3656.14
664.822	3613.13
665.014	3627.46
665.205	3471.82
665.397	3572.17
665.588	3480.01
665.78	3537.35
665.971	3561.93
666.163	3510.73
666.354	3353.04
666.546	3512.78
666.737	3357.13
666.929	3375.56
667.12	3424.72
667.311	3371.47
667.503	3330.51
667.694	3473.87
667.885	3254.73
668.077	3264.97
668.268	3353.04
668.459	3219.92
668.651	3209.68
668.842	3246.54
669.033	3066.32
669.224	3244.49
669.416	3424.72
669.607	3299.79
669.798	3293.65
669.989	3230.16
670.18	3207.63
670.371	3181.01
670.563	3164.62
670.754	3207.63
670.945	3279.31
671.136	3078.61
671.327	3191.25
671.518	3183.06
671.709	3150.29
671.9	3297.74
672.091	3121.62
672.282	3043.79
672.473	3135.95
672.664	3121.62
672.855	3045.84
673.046	3043.79
673.237	3082.7
673.428	3238.35
673.619	3076.56
673.809	3039.7
674	3002.83
674.191	3025.36
674.382	3039.7
674.573	3183.06
674.764	3035.6
674.954	3062.23
675.145	3017.17
675.336	2949.59
675.527	3015.12
675.717	2994.64
675.908	3078.61
676.099	2980.31
676.289	3088.85
676.48	2900.44
676.671	3047.89
676.861	2980.31
677.052	3008.98
677.243	3041.75
677.433	3023.31
677.624	3017.17
677.814	2978.26
678.005	3029.46
678.195	2963.92
678.386	2935.25
678.576	3127.76
678.767	2900.44
678.957	3039.7
679.148	3181.01
679.338	3002.83
679.529	3023.31
679.719	2996.69
679.909	3088.85
680.1	3002.83
680.29	2955.73
680.481	2927.06
680.671	3074.51
680.861	2853.33
681.052	3131.86
681.242	2888.15
681.432	2890.2
681.622	3064.27
681.813	2937.3
682.003	2990.55
682.193	2824.66
682.383	3105.23
682.573	3002.83
682.764	2965.97
682.954	2968.02
683.144	2961.87
683.334	2941.4
683.524	2908.63
683.714	2896.34
683.904	2882
684.094	3033.55
684.284	2914.77
684.474	2992.59
684.664	3039.7
684.854	3017.17
685.044	2925.01
685.234	2900.44
685.424	3090.9
685.614	2902.48
685.804	2970.07
685.994	3006.93
686.184	2947.54
686.374	2949.59
686.564	2820.56
686.753	2900.44
686.943	2945.49
687.133	2830.8
687.323	2834.9
687.513	2929.11
687.702	2841.04
687.892	2677.21
688.082	2841.04
688.272	2908.63
688.461	2836.95
688.651	2968.02
688.841	2732.5
689.03	2748.89
689.22	2859.48
689.41	2740.69
689.599	2748.89
689.789	2605.53
689.979	2783.7
690.168	2695.64
690.358	2814.42
690.547	2611.67
690.737	2662.87
690.926	2783.7
691.116	2626.01
691.305	2722.26
691.495	2591.19
691.684	2593.24
691.874	2621.91
692.063	2603.48
692.252	2568.66
692.442	2646.49
692.631	2580.95
692.82	2583
693.01	2664.92
693.199	2681.3
693.388	2617.82
693.578	2574.81
693.767	2431.45
693.956	2519.51
694.146	2550.23
694.335	2507.23
694.524	2460.12
694.713	2615.77
694.902	2429.4
695.092	2513.37
695.281	2523.61
695.47	2576.86
695.659	2513.37
695.848	2482.65
696.037	2470.36
696.226	2599.38
696.415	2525.66
696.604	2660.82
696.793	2542.04
696.982	2568.66
697.171	2652.63
697.36	2562.52
697.549	2544.09
697.738	2486.75
697.927	2580.95
698.116	2490.84
698.305	2648.54
698.494	2539.99
698.683	2562.52
698.872	2650.58
699.061	2496.99
699.25	2615.77
699.438	2605.53
699.627	2685.4
699.816	2652.63
700.005	2533.85
700.193	2720.21
700.382	2652.63
700.571	2716.12
700.76	2660.82
700.948	2718.17
701.137	2648.54
701.326	2630.1
701.514	2583
701.703	2593.24
701.892	2591.19
702.08	2755.03
702.269	2666.97
702.457	2664.92
702.646	2632.15
702.834	2671.06
703.023	2793.94
703.212	2679.26
703.4	2752.98
703.589	2687.45
703.777	2714.07
703.965	2750.93
704.154	2691.54
704.342	2798.04
704.531	2791.89
704.719	2728.41
704.907	2810.33
705.096	2556.38
705.284	2693.59
705.472	2738.65
705.661	2781.65
705.849	2750.93
706.037	2773.46
706.226	2646.49
706.414	2894.29
706.602	2673.11
706.79	2722.26
706.979	2687.45
707.167	2761.17
707.355	2705.88
707.543	2814.42
707.731	2877.91
707.919	2722.26
708.107	2789.85
708.296	2759.13
708.484	2767.32
708.672	2791.89
708.86	2884.05
709.048	2728.41
709.236	2752.98
709.424	2974.16
709.612	2806.23
709.8	2746.84
709.988	2961.87
710.176	2916.82
710.364	2904.53
710.551	2836.95
710.739	2943.44
710.927	2736.6
711.115	2851.28
711.303	2822.61
711.491	2879.96
711.679	2709.97
711.866	2916.82
712.054	2787.8
712.242	2884.05
712.43	2898.39
712.617	2869.72
712.805	2759.13
712.993	2810.33
713.181	2841.04
713.368	2892.24
713.556	2773.46
713.744	2853.33
713.931	3011.03
714.119	2890.2
714.306	2875.86
714.494	2976.21
714.682	2945.49
714.869	2777.56
715.057	2914.77
715.244	2791.89
715.432	2857.43
715.619	2902.48
715.807	3004.88
715.994	2968.02
716.182	2925.01
716.369	2963.92
716.556	2955.73
716.744	2849.24
716.931	2902.48
717.119	2935.25
717.306	2957.78
717.493	2886.1
717.681	2925.01
717.868	2953.68
718.055	2935.25
718.242	3058.13
718.43	2898.39
718.617	2906.58
718.804	3082.7
718.991	3086.8
719.179	3002.83
719.366	3019.22
719.553	3004.88
719.74	2974.16
719.927	3045.84
720.114	3035.6
720.301	2867.67
720.488	2961.87
720.676	3047.89
720.863	2922.96
721.05	3117.52
721.237	3060.18
721.424	2937.3
721.611	3082.7
721.798	2863.57
721.985	2882
722.172	2988.5
722.358	3090.9
722.545	3070.42
722.732	2986.45
722.919	3062.23
723.106	3031.51
723.293	2961.87
723.48	3099.09
723.667	2832.85
723.853	3043.79
724.04	3027.41
724.227	2982.35
724.414	2925.01
724.6	3066.32
724.787	3092.94
724.974	2951.63
725.161	2931.16
725.347	2920.92
725.534	2982.35
725.72	2900.44
725.907	3064.27
726.094	3086.8
726.28	2998.74
726.467	2963.92
726.653	3006.93
726.84	3045.84
727.027	3191.25
727.213	2957.78
727.4	3115.47
727.586	2972.11
727.773	2816.47
727.959	2961.87
728.145	3002.83
728.332	3058.13
728.518	2961.87
728.705	2871.76
728.891	2992.59
729.077	3113.42
729.264	2955.73
729.45	3029.46
729.636	3062.23
729.823	2828.76
730.009	2943.44
730.195	3047.89
730.382	2922.96
730.568	2941.4
730.754	2931.16
730.94	3049.94
731.126	2918.87
731.313	3088.85
731.499	2945.49
731.685	3090.9
731.871	3031.51
732.057	3002.83
732.243	3041.75
732.429	2968.02
732.615	2900.44
732.801	2994.64
732.987	2873.81
733.173	2906.58
733.359	2787.8
733.545	2918.87
733.731	2963.92
733.917	2992.59
734.103	2939.35
734.289	2970.07
734.475	2996.69
734.661	3037.65
734.847	2886.1
735.033	2957.78
735.219	2945.49
735.404	2922.96
735.59	2996.69
735.776	2871.76
735.962	2875.86
736.148	2873.81
736.333	2976.21
736.519	2988.5
736.705	2965.97
736.89	3006.93
737.076	2914.77
737.262	2783.7
737.447	2826.71
737.633	2884.05
737.819	2861.52
738.004	2879.96
738.19	2795.99
738.375	2879.96
738.561	2937.3
738.747	2779.61
738.932	2841.04
739.118	2757.08
739.303	2859.48
739.489	2916.82
739.674	2787.8
739.859	2853.33
740.045	2785.75
740.23	2752.98
740.416	2761.17
740.601	2851.28
740.786	2724.31
740.972	2666.97
741.157	2734.55
741.342	2628.06
741.528	2583
741.713	2603.48
741.898	2660.82
742.084	2552.28
742.269	2685.4
742.454	2593.24
742.639	2662.87
742.824	2601.43
743.01	2562.52
743.195	2714.07
743.38	2621.91
743.565	2636.25
743.75	2671.06
743.935	2501.08
744.12	2621.91
744.305	2480.6
744.49	2400.73
744.675	2537.95
744.86	2476.51
745.045	2619.86
745.23	2341.34
745.415	2494.94
745.6	2449.88
745.785	2312.67
745.97	2427.35
746.155	2292.19
746.34	2503.13
746.525	2259.42
746.71	2529.75
746.895	2238.94
747.079	2392.54
747.264	2277.85
747.449	2410.97
747.634	2355.68
747.819	2355.68
748.003	2179.55
748.188	2214.37
748.373	2300.38
748.557	2236.89
748.742	2329.05
748.927	2150.88
749.111	2187.74
749.296	2200.03
749.481	2230.75
749.665	2083.3
749.85	2087.39
750.034	2132.45
750.219	2048.48
750.404	2073.06
750.588	2150.88
750.773	2040.29
750.957	2093.54
751.141	2056.67
751.326	1984.99
751.51	1989.09
751.695	1995.23
751.879	1960.42
752.064	2062.82
752.248	1931.75
752.432	2040.29
752.617	1835.49
752.801	1997.28
752.985	2019.81
753.17	1995.23
753.354	1950.18
753.538	1769.96
753.722	1798.63
753.907	1804.77
754.091	1808.87
754.275	1804.77
754.459	1839.59
754.643	1749.48
754.828	1870.31
755.012	1837.54
755.196	1679.85
755.38	1706.47
755.564	1677.8
755.748	1690.09
755.932	1796.58
756.116	1835.49
756.3	1894.88
756.484	1628.65
756.668	1659.37
756.852	1599.98
757.036	1651.17
757.22	1685.99
757.404	1622.5
757.588	1599.98
757.772	1663.46
757.956	1649.13
758.14	1579.5
758.323	1550.82
758.507	1595.88
758.691	1604.07
758.875	1561.06
759.059	1497.58
759.242	1546.73
759.426	1556.97
759.61	1530.34
759.794	1473
759.977	1528.3
760.161	1583.59
760.345	1389.03
760.528	1536.49
760.712	1450.47
760.895	1452.52
761.079	1466.86
761.263	1352.17
761.446	1403.37
761.63	1438.19
761.813	1413.61
761.997	1343.98
762.18	1399.27
762.364	1464.81
762.547	1366.51
762.731	1415.66
762.914	1401.32
763.098	1321.45
763.281	1251.82
763.464	1425.9
763.648	1354.22
763.831	1391.08
764.015	1210.86
764.198	1237.49
764.381	1235.44
764.564	1333.74
764.748	1333.74
764.931	1284.59
765.114	1327.6
765.297	1329.64
765.481	1149.42
765.664	1307.12
765.847	1225.2
766.03	1296.88
766.213	1325.55
766.397	1280.49
766.58	1208.81
766.763	1262.06
766.946	1165.81
767.129	1272.3
767.312	1219.05
767.495	1214.96
767.678	1180.14
767.861	1153.52
768.044	1208.81
768.227	1286.64
768.41	1087.98
768.593	1178.09
768.776	1233.39
768.959	1227.25
769.142	1262.06
769.324	1200.62
769.507	1077.74
769.69	1212.91
769.873	1159.66
770.056	1192.43
770.239	1120.75
770.421	1225.2
770.604	1194.48
770.787	1102.32
770.97	1026.54
771.152	1167.85
771.335	1114.61
771.518	1108.46
771.7	1122.8
771.883	1176.05
772.066	1030.64
772.248	1065.46
772.431	1178.09
772.613	1114.61
772.796	1073.65
772.978	1188.33
773.161	979.44
773.343	1075.7
773.526	958.96
773.708	858.61
773.891	985.58
774.073	997.87
774.256	950.77
774.438	1098.22
774.621	944.63
774.803	987.63
774.985	948.72
775.168	915.95
775.35	911.86
775.532	1036.78
775.715	920.05
775.897	985.58
776.079	924.15
776.261	956.91
776.444	987.63
776.626	901.62
776.808	915.95
776.99	895.47
777.173	891.38
777.355	922.1
777.537	860.66
777.719	866.8
777.901	807.41
778.083	819.7
778.265	805.36
778.447	850.42
778.629	784.88
778.811	831.99
778.993	860.66
779.175	850.42
779.357	762.36
779.539	813.56
779.721	823.8
779.903	799.22
780.085	782.84
780.267	817.65
780.449	776.69
780.631	870.9
780.812	836.08
780.994	668.15
781.176	778.74
781.358	748.02
781.54	735.73
781.721	705.01
781.903	690.68
782.085	643.57
782.267	766.45
782.448	598.52
782.63	684.53
782.812	635.38
782.993	690.68
783.175	608.76
783.357	713.21
783.538	670.2
783.72	666.1
783.901	682.49
784.083	633.33
784.264	702.97
784.446	573.94
784.627	604.66
784.809	645.62
784.99	547.32
785.172	616.95
785.353	641.53
785.535	739.83
785.716	549.37
785.897	514.55
786.079	565.75
786.26	569.85
786.441	643.57
786.623	487.93
786.804	623.09
786.985	506.36
787.167	614.9
787.348	547.32
787.529	453.11
787.71	676.34
787.891	520.7
788.073	594.42
788.254	508.41
788.435	588.28
788.616	455.16
788.797	434.68
788.978	530.94
789.159	524.79
789.34	399.87
789.522	492.02
789.703	512.5
789.884	549.37
790.065	573.94
790.246	578.04
790.427	471.54
790.607	494.07
790.788	506.36
790.969	481.78
791.15	524.79
791.331	524.79
791.512	477.69
791.693	426.49
791.874	430.59
792.054	608.76
792.235	481.78
792.416	391.67
792.597	358.91
792.778	481.78
792.958	506.36
793.139	451.07
793.32	430.59
793.5	348.67
793.681	555.51
793.862	461.3
794.042	367.1
794.223	356.86
794.404	412.15
794.584	352.76
794.765	385.53
794.945	442.87
795.126	451.07
795.306	434.68
795.487	408.06
795.667	344.57
795.848	408.06
796.028	455.16
796.209	389.63
796.389	326.14
796.57	391.67
796.75	320
796.93	375.29
797.111	350.71
797.291	375.29
797.471	410.11
797.652	377.34
797.832	354.81
798.012	377.34
798.192	289.28
798.373	315.9
798.553	365.05
798.733	381.43
798.913	254.46
799.093	229.88
799.274	301.56
799.454	375.29
799.634	332.28
799.814	348.67
799.994	346.62
800.174	315.9
800.354	283.13
800.534	176.64
800.714	360.95
800.894	190.97
801.074	221.69
801.254	330.23
801.434	326.14
801.614	309.76
801.794	338.43
801.974	1358.32
802.154	352.76
802.334	358.91
802.514	291.32
802.693	324.09
802.873	205.31
803.053	334.33
803.233	283.13
803.413	238.08
803.592	227.84
803.772	276.99
803.952	250.36
804.131	238.08
804.311	262.65
804.491	301.56
804.67	223.74
804.85	227.84
805.03	283.13
805.209	338.43
805.389	281.08
805.568	262.65
805.748	274.94
805.928	217.6
806.107	256.51
806.287	258.56
806.466	221.69
806.646	309.76
806.825	238.08
807.004	236.03
807.184	258.56
807.363	276.99
807.543	145.92
807.722	180.73
807.901	240.12
808.081	268.8
808.26	135.68
808.439	299.52
808.619	180.73
808.798	246.27
808.977	256.51
809.156	240.12
809.336	305.66
809.515	291.32
809.694	236.03
809.873	188.93
810.052	242.17
810.231	281.08
810.411	221.69
810.59	242.17
810.769	188.93
810.948	264.7
811.127	219.64
811.306	250.36
811.485	176.64
811.664	326.14
811.843	231.93
812.022	162.3
812.201	213.5
812.38	113.15
812.559	170.49
812.737	236.03
812.916	92.67
813.095	107.01
813.274	229.88
813.453	186.88
813.632	264.7
813.811	242.17
813.989	53.76
814.168	150.01
814.347	180.73
814.526	131.58
814.704	211.45
814.883	180.73
815.062	180.73
815.24	195.07
815.419	88.57
815.598	152.06
815.776	154.11
815.955	158.21
816.133	129.53
816.312	190.97
816.49	107.01
816.669	125.44
816.847	197.12
817.026	182.78
817.204	59.9
817.383	139.77
817.561	109.05
817.74	209.4
817.918	193.02
818.097	123.39
818.275	172.54
818.453	154.11
818.632	158.21
818.81	111.1
818.988	154.11
819.167	129.53
819.345	137.73
819.523	207.36
819.701	127.49
819.879	117.25
820.058	205.31
820.236	129.53
820.414	127.49
820.592	150.01
820.77	107.01
820.948	107.01
821.127	111.1
821.305	178.69
821.483	84.48
821.661	168.45
821.839	172.54
822.017	90.62
822.195	152.06
822.373	141.82
822.551	172.54
822.729	197.12
822.907	152.06
823.085	141.82
823.262	137.73
823.44	111.1
823.618	70.14
823.796	147.97
823.974	188.93
824.152	82.43
824.329	109.05
824.507	166.4
824.685	37.38
824.863	129.53
825.04	82.43
825.218	203.26
825.396	98.81
825.574	57.86
825.751	78.33
825.929	186.88
826.107	121.34
826.284	121.34
826.462	152.06
826.639	174.59
826.817	8.7
826.994	53.76
827.172	92.67
827.349	184.83
827.527	104.96
827.704	180.73
827.882	178.69
828.059	113.15
828.237	70.14
828.414	96.77
828.591	-13.82
828.769	82.43
828.946	84.48
829.124	162.3
829.301	154.11
829.478	172.54
829.655	178.69
829.833	119.29
830.01	55.81
830.187	51.71
830.364	76.29
830.542	66.05
830.719	109.05
830.896	90.62
831.073	186.88
831.25	147.97
831.427	160.25
831.604	127.49
831.782	70.14
831.959	119.29
832.136	147.97
832.313	102.91
832.49	76.29
832.667	98.81
832.844	29.18
833.021	98.81
833.198	90.62
833.374	31.23
833.551	141.82
833.728	57.86
833.905	156.16
834.082	8.7
834.259	88.57
834.436	86.53
834.612	35.33
834.789	102.91
834.966	88.57
835.143	139.77
835.319	131.58
835.496	90.62
835.673	47.62
835.85	94.72
836.026	92.67
836.203	127.49
836.38	68.09
836.556	98.81
836.733	76.29
836.909	168.45
837.086	66.05
837.262	16.9
837.439	90.62
837.616	59.9
837.792	82.43
837.968	61.95
838.145	109.05
838.321	51.71
838.498	70.14
838.674	107.01
838.851	193.02
839.027	41.47
839.203	76.29
839.38	98.81
839.556	-30.21
839.732	115.2
839.909	-28.16
840.085	107.01
840.261	-38.4
840.437	27.14
840.614	-28.16
840.79	74.24
840.966	133.63
841.142	51.71
841.318	53.76
841.494	102.91
841.671	51.71
841.847	27.14
842.023	74.24
842.199	92.67
842.375	145.92
842.551	78.33
842.727	37.38
842.903	174.59
843.079	68.09
843.255	66.05
843.431	61.95
843.607	57.86
843.783	53.76
843.959	102.91
844.134	27.14
844.31	88.57
844.486	39.42
844.662	72.19
844.838	68.09
845.013	49.66
845.189	18.94
845.365	57.86
845.541	96.77
845.716	43.52
845.892	72.19
846.068	31.23
846.244	-11.78
846.419	84.48
846.595	0.51
846.77	16.9
846.946	119.29
847.122	-32.26
847.297	107.01
847.473	176.64
847.648	61.95
847.824	-1.54
847.999	8.7
848.175	-62.98
848.35	100.86
848.526	102.91
848.701	96.77
848.876	78.33
849.052	-15.87
849.227	152.06
849.403	68.09
849.578	41.47
849.753	78.33
849.929	16.9
850.104	51.71
850.279	49.66
850.454	88.57
850.63	123.39
850.805	35.33
850.98	82.43
851.155	39.42
851.33	82.43
851.505	53.76
851.681	94.72
851.856	-7.68
852.031	113.15
852.206	76.29
852.381	72.19
852.556	57.86
852.731	76.29
852.906	70.14
853.081	57.86
853.256	86.53
853.431	59.9
853.606	96.77
853.781	-9.73
853.956	57.86
854.131	20.99
854.305	-11.78
854.48	72.19
854.655	-32.26
854.83	-11.78
855.005	53.76
855.18	43.52
855.354	-28.16
855.529	23.04
855.704	41.47
855.879	23.04
856.053	33.28
856.228	47.62
856.403	-44.54
856.577	45.57
856.752	-30.21
856.926	25.09
857.101	51.71
857.276	23.04
857.45	51.71
857.625	156.16
857.799	-9.73
857.974	20.99
858.148	-3.58
858.323	137.73
858.497	64
858.672	-26.11
858.846	12.8
859.02	76.29
859.195	-28.16
859.369	23.04
859.543	59.9
859.718	55.81
859.892	64
860.066	31.23
860.241	45.57
860.415	129.53
860.589	84.48
860.763	57.86
860.938	14.85
861.112	78.33
861.286	18.94
861.46	29.18
861.634	25.09
861.808	74.24
861.982	72.19
862.157	27.14
862.331	51.71
862.505	-28.16
862.679	10.75
862.853	6.66
863.027	-1.54
863.201	147.97
863.375	29.18
863.549	14.85
863.722	18.94
863.896	107.01
864.07	-30.21
864.244	49.66
864.418	57.86
864.592	47.62
864.766	8.7
864.939	-1.54
865.113	31.23
865.287	59.9
865.461	-3.58
865.634	6.66
865.808	18.94
865.982	12.8
866.156	2.56
866.329	-22.02
866.503	41.47
866.676	123.39
866.85	25.09
867.024	16.9
867.197	-9.73
867.371	-1.54
867.544	49.66
867.718	-42.5
867.891	41.47
868.065	-46.59
868.238	-13.82
868.412	74.24
868.585	18.94
868.759	-93.69
868.932	8.7
869.105	55.81
869.279	-22.02
869.452	-87.55
869.625	115.2
869.799	-24.06
869.972	0.51
870.145	47.62
870.319	66.05
870.492	-9.73
870.665	-13.82
870.838	25.09
871.011	-44.54
871.185	84.48
871.358	14.85
871.531	45.57
871.704	-67.07
871.877	20.99
872.05	18.94
872.223	20.99
872.396	41.47
872.569	-22.02
872.742	-17.92
872.915	72.19
873.088	6.66
873.261	-36.35
873.434	74.24
873.607	66.05
873.78	66.05
873.953	-34.3
874.126	12.8
874.299	-34.3
874.471	-17.92
874.644	16.9
874.817	78.33
874.99	107.01
875.163	-34.3
875.335	0.51
875.508	96.77
875.681	27.14
875.853	2.56
876.026	-24.06
876.199	37.38
876.371	10.75
876.544	-1.54
876.717	-1.54
876.889	14.85
877.062	23.04
877.234	-58.88
877.407	-46.59
877.579	70.14
877.752	-81.41
877.924	45.57
878.097	37.38
878.269	88.57
878.442	76.29
878.614	-73.21
878.786	6.66
878.959	72.19
879.131	27.14
879.303	4.61
879.476	33.28
879.648	25.09
879.82	-7.68
879.993	-15.87
880.165	10.75
880.337	-65.02
880.509	-28.16
880.681	-81.41
880.854	12.8
881.026	74.24
881.198	166.4
881.37	49.66
881.542	4.61
881.714	-11.78
881.886	41.47
882.058	-11.78
882.23	16.9
882.402	-34.3
882.574	-36.35
882.746	4.61
882.918	84.48
883.09	23.04
883.262	-17.92
883.434	-32.26
883.606	-48.64
883.778	-5.63
883.95	55.81
884.122	-5.63
884.293	4.61
884.465	-30.21
884.637	117.25
884.809	-22.02
884.98	94.72
885.152	18.94
885.324	35.33
885.496	-15.87
885.667	-83.45
885.839	-3.58
886.011	109.05
886.182	66.05
886.354	64
886.525	-22.02
886.697	-5.63
886.869	2.56
887.04	41.47
887.212	53.76
887.383	98.81
887.555	98.81
887.726	-24.06
887.897	-5.63
888.069	-13.82
888.24	33.28
888.412	41.47
888.583	39.42
888.754	-13.82
888.926	14.85
889.097	-24.06
889.268	12.8
889.44	29.18
889.611	-38.4
889.782	4.61
889.953	-60.93
890.125	86.53
890.296	12.8
890.467	27.14
890.638	-62.98
890.809	0.51
890.98	20.99
891.151	76.29
891.323	119.29
891.494	6.66
891.665	-17.92
891.836	80.38
892.007	23.04
892.178	33.28
892.349	61.95
892.52	6.66
892.691	61.95
892.862	35.33
893.032	-75.26
893.203	-44.54
893.374	20.99
893.545	4.61
893.716	-15.87
893.887	41.47
894.057	-48.64
894.228	88.57
894.399	-1.54
894.57	92.67
894.74	70.14
894.911	-13.82
895.082	-22.02
895.253	20.99
895.423	4.61
895.594	0.51
895.764	2.56
895.935	-77.31
896.106	-17.92
896.276	4.61
896.447	59.9
896.617	74.24
896.788	-60.93
896.958	-34.3
897.129	12.8
897.299	47.62
897.47	10.75
897.64	107.01
897.81	-5.63
897.981	25.09
898.151	-79.36
898.322	74.24
898.492	25.09
898.662	-36.35
898.832	-3.58
899.003	-26.11
899.173	35.33
899.343	-15.87
899.513	-30.21
