Data from USB4F104151__13__12-11-31-261.txt Node

Date: Fri Mar 14 12:11:31 EDT 2025
User: louis
Spectrometer: USB4F10415
Trigger mode: 4
Integration Time (sec): 5.000000E-2
Scans to average: 1
Electric dark correction enabled: true
Nonlinearity correction enabled: false
Boxcar width: 0
XAxis mode: Wavelengths
Number of Pixels in Spectrum: 3648
>>>>>Begin Spectral Data<<<<<
178.204	-160.94
178.424	-160.94
178.644	-160.94
178.864	-203.94
179.084	-226.47
179.304	88.92
179.524	-89.26
179.744	-74.92
179.964	-33.96
180.184	41.81
180.404	50
180.624	7
180.844	68.44
181.064	-50.35
181.283	21.33
181.503	-9.39
181.723	-19.63
181.943	-79.02
182.163	195.41
182.383	-44.2
182.602	19.29
182.822	68.44
183.042	27.48
183.262	19.29
183.482	23.38
183.701	23.38
183.921	-40.11
184.141	-5.29
184.361	4.95
184.58	9.05
184.8	27.48
185.02	13.14
185.239	66.39
185.459	29.52
185.679	58.2
185.898	-31.91
186.118	129.88
186.338	31.57
186.557	90.96
186.777	-58.54
186.997	27.48
187.216	-25.77
187.436	66.39
187.655	-40.11
187.875	133.97
188.095	-44.2
188.314	74.58
188.534	99.16
188.753	31.57
188.973	50
189.192	113.49
189.412	47.96
189.631	76.63
189.851	17.24
190.07	-27.82
190.29	-11.43
190.509	33.62
190.729	21.33
190.948	62.29
191.168	193.36
191.387	97.11
191.607	39.76
191.826	113.49
192.045	-7.34
192.265	-21.67
192.484	-13.48
192.704	23.38
192.923	4.95
193.142	62.29
193.362	56.15
193.581	60.24
193.8	4.95
194.02	-27.82
194.239	-23.72
194.458	45.91
194.678	-25.77
194.897	-27.82
195.116	27.48
195.335	-1.19
195.555	37.72
195.774	68.44
195.993	80.72
196.212	-29.87
196.432	-11.43
196.651	33.62
196.87	2.9
197.089	107.35
197.308	25.43
197.528	21.33
197.747	-91.31
197.966	39.76
198.185	103.25
198.404	25.43
198.623	43.86
198.842	66.39
199.062	70.48
199.281	72.53
199.5	9.05
199.719	99.16
199.938	23.38
200.157	-27.82
200.376	33.62
200.595	29.52
200.814	72.53
201.033	93.01
201.252	25.43
201.471	39.76
201.69	21.33
201.909	4.95
202.128	80.72
202.347	-11.43
202.566	15.19
202.785	27.48
203.004	-11.43
203.223	152.4
203.442	-5.29
203.661	-40.11
203.879	62.29
204.098	129.88
204.317	-27.82
204.536	80.72
204.755	45.91
204.974	74.58
205.193	21.33
205.411	111.44
205.63	90.96
205.849	50
206.068	31.57
206.287	11.09
206.505	101.2
206.724	-76.97
206.943	47.96
207.162	66.39
207.381	70.48
207.599	56.15
207.818	-42.15
208.037	-52.39
208.255	4.95
208.474	4.95
208.693	56.15
208.911	-42.15
209.13	86.87
209.349	93.01
209.567	35.67
209.786	109.4
210.005	72.53
210.223	35.67
210.442	-60.59
210.661	39.76
210.879	80.72
211.098	97.11
211.316	-70.83
211.535	76.63
211.753	62.29
211.972	66.39
212.191	9.05
212.409	70.48
212.628	54.1
212.846	52.05
213.065	58.2
213.283	123.73
213.502	-38.06
213.72	-5.29
213.938	33.62
214.157	-3.24
214.375	-44.2
214.594	-7.34
214.812	37.72
215.031	17.24
215.249	-5.29
215.467	101.2
215.686	52.05
215.904	2.9
216.122	35.67
216.341	82.77
216.559	72.53
216.778	93.01
216.996	64.34
217.214	-3.24
217.432	4.95
217.651	-19.63
217.869	27.48
218.087	93.01
218.306	109.4
218.524	76.63
218.742	43.86
218.96	9.05
219.179	66.39
219.397	-87.21
219.615	88.92
219.833	41.81
220.051	-40.11
220.27	25.43
220.488	121.68
220.706	4.95
220.924	-60.59
221.142	-15.53
221.36	84.82
221.578	15.19
221.796	74.58
222.015	27.48
222.233	43.86
222.451	50
222.669	-29.87
222.887	54.1
223.105	-15.53
223.323	-11.43
223.541	70.48
223.759	-95.4
223.977	68.44
224.195	60.24
224.413	76.63
224.631	99.16
224.849	-33.96
225.067	119.64
225.285	-11.43
225.503	-46.25
225.721	-74.92
225.939	111.44
226.157	50
226.375	111.44
226.592	-48.3
226.81	-3.24
227.028	97.11
227.246	103.25
227.464	27.48
227.682	64.34
227.9	115.54
228.117	37.72
228.335	15.19
228.553	-31.91
228.771	60.24
228.989	11.09
229.206	15.19
229.424	21.33
229.642	9.05
229.86	2.9
230.077	76.63
230.295	17.24
230.513	84.82
230.731	56.15
230.948	119.64
231.166	7
231.384	17.24
231.601	-40.11
231.819	90.96
232.037	-1.19
232.254	-25.77
232.472	11.09
232.689	35.67
232.907	11.09
233.125	62.29
233.342	52.05
233.56	-42.15
233.777	15.19
233.995	-33.96
234.213	121.68
234.43	72.53
234.648	27.48
234.865	21.33
235.083	27.48
235.3	60.24
235.518	43.86
235.735	101.2
235.953	33.62
236.17	35.67
236.388	-21.67
236.605	7
236.822	82.77
237.04	70.48
237.257	125.78
237.475	-87.21
237.692	84.82
237.909	68.44
238.127	-7.34
238.344	31.57
238.562	15.19
238.779	23.38
238.996	-46.25
239.214	37.72
239.431	11.09
239.648	47.96
239.865	25.43
240.083	68.44
240.3	45.91
240.517	56.15
240.735	95.06
240.952	54.1
241.169	76.63
241.386	15.19
241.603	33.62
241.821	66.39
242.038	64.34
242.255	-13.48
242.472	-13.48
242.689	35.67
242.907	86.87
243.124	31.57
243.341	43.86
243.558	19.29
243.775	-46.25
243.992	-25.77
244.209	4.95
244.426	123.73
244.643	93.01
244.86	-42.15
245.078	43.86
245.295	17.24
245.512	78.68
245.729	19.29
245.946	39.76
246.163	17.24
246.38	4.95
246.597	-23.72
246.814	-27.82
247.031	-15.53
247.248	17.24
247.464	129.88
247.681	127.83
247.898	-5.29
248.115	-19.63
248.332	11.09
248.549	62.29
248.766	140.12
248.983	56.15
249.2	127.83
249.417	74.58
249.633	47.96
249.85	68.44
250.067	54.1
250.284	-19.63
250.501	52.05
250.717	23.38
250.934	29.52
251.151	-17.58
251.368	76.63
251.585	70.48
251.801	-36.01
252.018	-50.35
252.235	0.85
252.451	35.67
252.668	-15.53
252.885	70.48
253.102	-44.2
253.318	37.72
253.535	4.95
253.752	45.91
253.968	47.96
254.185	27.48
254.401	15.19
254.618	84.82
254.835	58.2
255.051	80.72
255.268	64.34
255.484	-17.58
255.701	-23.72
255.917	35.67
256.134	-3.24
256.351	37.72
256.567	45.91
256.784	62.29
257	-11.43
257.217	80.72
257.433	19.29
257.65	109.4
257.866	76.63
258.082	0.85
258.299	7
258.515	27.48
258.732	13.14
258.948	-7.34
259.165	-19.63
259.381	-36.01
259.597	60.24
259.814	19.29
260.03	33.62
260.246	23.38
260.463	138.07
260.679	76.63
260.895	54.1
261.112	41.81
261.328	23.38
261.544	-13.48
261.761	93.01
261.977	-44.2
262.193	-25.77
262.409	78.68
262.626	-40.11
262.842	-3.24
263.058	78.68
263.274	68.44
263.49	41.81
263.707	62.29
263.923	80.72
264.139	2.9
264.355	-15.53
264.571	72.53
264.787	47.96
265.004	103.25
265.22	62.29
265.436	-21.67
265.652	25.43
265.868	17.24
266.084	2.9
266.3	-7.34
266.516	-46.25
266.732	33.62
266.948	74.58
267.164	27.48
267.38	115.54
267.596	23.38
267.812	166.74
268.028	21.33
268.244	-52.39
268.46	31.57
268.676	-31.91
268.892	62.29
269.108	-13.48
269.324	-27.82
269.54	54.1
269.756	113.49
269.972	-40.11
270.188	-17.58
270.403	13.14
270.619	27.48
270.835	52.05
271.051	-1.19
271.267	-17.58
271.483	41.81
271.698	64.34
271.914	111.44
272.13	7
272.346	-46.25
272.562	37.72
272.777	86.87
272.993	47.96
273.209	-31.91
273.425	-9.39
273.64	-60.59
273.856	117.59
274.072	43.86
274.287	-21.67
274.503	23.38
274.719	37.72
274.934	72.53
275.15	-134.31
275.366	41.81
275.581	15.19
275.797	35.67
276.012	47.96
276.228	-3.24
276.444	19.29
276.659	74.58
276.875	29.52
277.09	23.38
277.306	-9.39
277.521	101.2
277.737	-44.2
277.952	4.95
278.168	19.29
278.383	19.29
278.599	-3.24
278.814	78.68
279.03	-13.48
279.245	13.14
279.461	74.58
279.676	-25.77
279.892	33.62
280.107	-25.77
280.322	-21.67
280.538	56.15
280.753	-25.77
280.969	52.05
281.184	35.67
281.399	82.77
281.615	35.67
281.83	-27.82
282.045	15.19
282.26	84.82
282.476	74.58
282.691	4.95
282.906	37.72
283.122	131.92
283.337	-13.48
283.552	35.67
283.767	-79.02
283.983	2.9
284.198	-72.87
284.413	47.96
284.628	-17.58
284.843	-11.43
285.058	-23.72
285.274	2.9
285.489	41.81
285.704	50
285.919	47.96
286.134	80.72
286.349	99.16
286.564	11.09
286.779	29.52
286.995	7
287.21	-23.72
287.425	84.82
287.64	-38.06
287.855	13.14
288.07	-62.63
288.285	64.34
288.5	121.68
288.715	11.09
288.93	2.9
289.145	15.19
289.36	136.02
289.575	76.63
289.79	19.29
290.004	43.86
290.219	25.43
290.434	66.39
290.649	9.05
290.864	-3.24
291.079	64.34
291.294	9.05
291.509	88.92
291.724	52.05
291.938	-33.96
292.153	-42.15
292.368	4.95
292.583	23.38
292.798	45.91
293.012	43.86
293.227	90.96
293.442	-17.58
293.657	27.48
293.871	97.11
294.086	76.63
294.301	78.68
294.516	-11.43
294.73	58.2
294.945	-46.25
295.16	4.95
295.374	54.1
295.589	101.2
295.804	25.43
296.018	41.81
296.233	31.57
296.447	13.14
296.662	-25.77
296.877	25.43
297.091	23.38
297.306	37.72
297.52	-29.87
297.735	11.09
297.949	64.34
298.164	-27.82
298.378	37.72
298.593	-23.72
298.807	-13.48
299.022	37.72
299.236	-5.29
299.451	52.05
299.665	-3.24
299.88	4.95
300.094	9.05
300.309	-54.44
300.523	-1.19
300.737	76.63
300.952	37.72
301.166	74.58
301.381	4.95
301.595	-42.15
301.809	19.29
302.024	43.86
302.238	-25.77
302.452	74.58
302.667	17.24
302.881	88.92
303.095	13.14
303.309	64.34
303.524	0.85
303.738	2.9
303.952	33.62
304.166	-9.39
304.381	-99.5
304.595	82.77
304.809	19.29
305.023	-5.29
305.237	33.62
305.452	99.16
305.666	66.39
305.88	54.1
306.094	29.52
306.308	15.19
306.522	90.96
306.736	4.95
306.95	35.67
307.164	45.91
307.379	11.09
307.593	70.48
307.807	56.15
308.021	-81.07
308.235	107.35
308.449	-19.63
308.663	68.44
308.877	113.49
309.091	9.05
309.305	50
309.519	-44.2
309.733	66.39
309.947	-33.96
310.161	119.64
310.374	86.87
310.588	86.87
310.802	-1.19
311.016	74.58
311.23	72.53
311.444	-52.39
311.658	11.09
311.872	13.14
312.085	64.34
312.299	105.3
312.513	127.83
312.727	-11.43
312.941	-79.02
313.154	11.09
313.368	64.34
313.582	2.9
313.796	-17.58
314.009	43.86
314.223	45.91
314.437	23.38
314.651	119.64
314.864	66.39
315.078	-9.39
315.292	13.14
315.505	-9.39
315.719	82.77
315.933	50
316.146	-3.24
316.36	-17.58
316.573	78.68
316.787	84.82
317.001	21.33
317.214	-21.67
317.428	-1.19
317.641	-36.01
317.855	-1.19
318.068	54.1
318.282	41.81
318.495	125.78
318.709	74.58
318.922	99.16
319.136	185.17
319.349	111.44
319.563	19.29
319.776	37.72
319.99	41.81
320.203	72.53
320.417	-7.34
320.63	25.43
320.843	62.29
321.057	-52.39
321.27	66.39
321.483	4.95
321.697	76.63
321.91	-29.87
322.124	29.52
322.337	99.16
322.55	-48.3
322.763	4.95
322.977	-29.87
323.19	11.09
323.403	27.48
323.617	76.63
323.83	64.34
324.043	78.68
324.256	29.52
324.469	4.95
324.683	68.44
324.896	0.85
325.109	78.68
325.322	-87.21
325.535	101.2
325.748	52.05
325.962	-19.63
326.175	52.05
326.388	19.29
326.601	19.29
326.814	23.38
327.027	-40.11
327.24	148.31
327.453	-42.15
327.666	11.09
327.879	15.19
328.092	31.57
328.305	142.16
328.518	47.96
328.731	-13.48
328.944	11.09
329.157	31.57
329.37	-42.15
329.583	101.2
329.796	52.05
330.009	-29.87
330.222	21.33
330.435	70.48
330.648	25.43
330.861	-17.58
331.073	70.48
331.286	70.48
331.499	56.15
331.712	-21.67
331.925	27.48
332.138	39.76
332.35	84.82
332.563	45.91
332.776	66.39
332.989	-7.34
333.202	13.14
333.414	-21.67
333.627	68.44
333.84	72.53
334.053	74.58
334.265	74.58
334.478	66.39
334.691	-46.25
334.903	-25.77
335.116	43.86
335.329	43.86
335.541	35.67
335.754	119.64
335.966	-27.82
336.179	15.19
336.392	-25.77
336.604	25.43
336.817	62.29
337.029	35.67
337.242	27.48
337.454	70.48
337.667	0.85
337.88	45.91
338.092	56.15
338.305	45.91
338.517	9.05
338.729	19.29
338.942	97.11
339.154	-44.2
339.367	19.29
339.579	64.34
339.792	11.09
340.004	86.87
340.217	11.09
340.429	158.55
340.641	-9.39
340.854	19.29
341.066	-3.24
341.278	56.15
341.491	33.62
341.703	56.15
341.915	-7.34
342.128	33.62
342.34	47.96
342.552	21.33
342.764	54.1
342.977	-9.39
343.189	76.63
343.401	-21.67
343.613	-11.43
343.826	35.67
344.038	-60.59
344.25	37.72
344.462	54.1
344.674	13.14
344.886	21.33
345.099	72.53
345.311	50
345.523	17.24
345.735	-9.39
345.947	45.91
346.159	4.95
346.371	68.44
346.583	52.05
346.795	76.63
347.007	-17.58
347.219	47.96
347.431	72.53
347.643	86.87
347.855	-21.67
348.067	152.4
348.279	111.44
348.491	13.14
348.703	37.72
348.915	39.76
349.127	-40.11
349.339	41.81
349.551	27.48
349.763	15.19
349.975	4.95
350.187	76.63
350.399	56.15
350.61	101.2
350.822	47.96
351.034	41.81
351.246	74.58
351.458	66.39
351.669	31.57
351.881	72.53
352.093	68.44
352.305	25.43
352.517	113.49
352.728	88.92
352.94	95.06
353.152	35.67
353.363	-52.39
353.575	88.92
353.787	78.68
353.999	15.19
354.21	74.58
354.422	-5.29
354.633	64.34
354.845	15.19
355.057	90.96
355.268	-5.29
355.48	33.62
355.692	-66.73
355.903	15.19
356.115	-13.48
356.326	-33.96
356.538	78.68
356.749	47.96
356.961	164.69
357.172	-13.48
357.384	21.33
357.595	142.16
357.807	43.86
358.018	39.76
358.23	58.2
358.441	84.82
358.653	41.81
358.864	56.15
359.075	68.44
359.287	11.09
359.498	156.5
359.709	109.4
359.921	39.76
360.132	37.72
360.344	21.33
360.555	7
360.766	88.92
360.977	72.53
361.189	37.72
361.4	47.96
361.611	109.4
361.823	52.05
362.034	86.87
362.245	-1.19
362.456	80.72
362.667	66.39
362.879	29.52
363.09	33.62
363.301	33.62
363.512	15.19
363.723	43.86
363.935	31.57
364.146	39.76
364.357	101.2
364.568	37.72
364.779	-17.58
364.99	66.39
365.201	-33.96
365.412	105.3
365.623	17.24
365.834	101.2
366.045	15.19
366.256	9.05
366.467	68.44
366.678	60.24
366.889	60.24
367.1	7
367.311	41.81
367.522	-40.11
367.733	54.1
367.944	7
368.155	2.9
368.366	35.67
368.577	121.68
368.788	60.24
368.999	45.91
369.209	23.38
369.42	144.21
369.631	121.68
369.842	19.29
370.053	33.62
370.264	107.35
370.474	-17.58
370.685	56.15
370.896	70.48
371.107	121.68
371.317	60.24
371.528	-60.59
371.739	95.06
371.95	43.86
372.16	121.68
372.371	-21.67
372.582	43.86
372.792	80.72
373.003	37.72
373.214	39.76
373.424	70.48
373.635	70.48
373.846	70.48
374.056	4.95
374.267	58.2
374.477	45.91
374.688	-33.96
374.898	95.06
375.109	47.96
375.319	9.05
375.53	78.68
375.74	33.62
375.951	54.1
376.161	23.38
376.372	109.4
376.582	47.96
376.793	54.1
377.003	-48.3
377.214	-13.48
377.424	23.38
377.635	-40.11
377.845	43.86
378.055	99.16
378.266	-46.25
378.476	17.24
378.686	-21.67
378.897	64.34
379.107	7
379.317	29.52
379.528	11.09
379.738	123.73
379.948	15.19
380.158	4.95
380.369	13.14
380.579	70.48
380.789	-56.49
380.999	107.35
381.21	37.72
381.42	95.06
381.63	62.29
381.84	41.81
382.05	105.3
382.261	133.97
382.471	2.9
382.681	41.81
382.891	105.3
383.101	43.86
383.311	31.57
383.521	13.14
383.731	-11.43
383.941	154.45
384.151	86.87
384.361	4.95
384.571	47.96
384.781	84.82
384.991	107.35
385.201	23.38
385.411	29.52
385.621	70.48
385.831	58.2
386.041	-17.58
386.251	31.57
386.461	15.19
386.671	39.76
386.881	76.63
387.091	-5.29
387.301	84.82
387.511	23.38
387.72	66.39
387.93	29.52
388.14	-11.43
388.35	11.09
388.56	111.44
388.769	109.4
388.979	23.38
389.189	41.81
389.399	125.78
389.609	103.25
389.818	152.4
390.028	35.67
390.238	82.77
390.447	35.67
390.657	29.52
390.867	29.52
391.076	-54.44
391.286	35.67
391.496	103.25
391.705	7
391.915	93.01
392.125	64.34
392.334	0.85
392.544	39.76
392.753	144.21
392.963	13.14
393.172	86.87
393.382	52.05
393.591	86.87
393.801	29.52
394.01	103.25
394.22	76.63
394.429	-42.15
394.639	33.62
394.848	50
395.058	88.92
395.267	43.86
395.477	136.02
395.686	80.72
395.895	74.58
396.105	176.98
396.314	68.44
396.524	11.09
396.733	60.24
396.942	101.2
397.152	66.39
397.361	95.06
397.57	50
397.78	64.34
397.989	45.91
398.198	136.02
398.407	60.24
398.617	33.62
398.826	84.82
399.035	54.1
399.244	50
399.453	60.24
399.663	54.1
399.872	119.64
400.081	101.2
400.29	111.44
400.499	43.86
400.708	111.44
400.917	45.91
401.127	101.2
401.336	56.15
401.545	183.12
401.754	105.3
401.963	111.44
402.172	93.01
402.381	103.25
402.59	82.77
402.799	78.68
403.008	76.63
403.217	101.2
403.426	47.96
403.635	109.4
403.844	52.05
404.053	-5.29
404.262	80.72
404.471	93.01
404.68	142.16
404.888	68.44
405.097	164.69
405.306	123.73
405.515	95.06
405.724	136.02
405.933	144.21
406.142	133.97
406.35	176.98
406.559	95.06
406.768	117.59
406.977	162.64
407.185	125.78
407.394	168.79
407.603	109.4
407.812	125.78
408.02	211.79
408.229	158.55
408.438	222.03
408.646	86.87
408.855	138.07
409.064	133.97
409.272	121.68
409.481	338.77
409.69	209.75
409.898	154.45
410.107	185.17
410.315	230.23
410.524	168.79
410.733	281.43
410.941	279.38
411.15	242.51
411.358	183.12
411.567	355.15
411.775	201.55
411.984	269.14
412.192	262.99
412.401	250.71
412.609	312.14
412.818	308.05
413.026	328.53
413.234	316.24
413.443	353.1
413.651	342.86
413.86	396.11
414.068	490.32
414.276	381.78
414.485	426.83
414.693	416.59
414.901	516.94
415.11	459.6
415.318	482.13
415.526	488.27
415.734	559.95
415.943	506.7
416.151	688.97
416.359	535.37
416.567	596.81
416.776	598.86
416.984	670.54
417.192	727.88
417.4	623.44
417.608	717.64
417.817	654.16
418.025	725.83
418.233	912.2
418.441	725.83
418.649	744.27
418.857	750.41
419.065	850.76
419.273	746.31
419.481	848.71
419.689	934.73
419.897	1020.74
420.105	1012.55
420.313	1059.65
420.521	1084.23
420.729	1076.04
420.937	1067.85
421.145	1157.96
421.353	1225.54
421.561	1198.92
421.769	1274.69
421.977	1252.16
422.185	1321.79
422.393	1377.09
422.601	1434.43
422.809	1475.39
423.017	1575.74
423.224	1532.73
423.432	1661.76
423.64	1655.61
423.848	1741.63
424.056	1772.35
424.263	1823.55
424.471	1833.79
424.679	1899.32
424.887	1952.57
425.094	2048.82
425.302	2085.69
425.51	2114.36
425.718	2288.43
425.925	2274.1
426.133	2208.56
426.341	2376.5
426.548	2550.57
426.756	2614.06
426.964	2511.66
427.171	2730.8
427.379	2816.81
427.586	2890.54
427.794	2765.61
428.001	3097.38
428.209	3074.85
428.417	3189.54
428.624	3291.94
428.832	3277.6
429.039	3250.98
429.247	3359.52
429.454	3646.24
429.662	3863.32
429.869	3539.74
430.076	3848.99
430.284	3814.17
430.491	4021.02
430.699	4139.8
430.906	4223.76
431.114	4336.4
431.321	4449.04
431.528	4432.66
431.736	4528.91
431.943	4911.88
432.15	4690.7
432.358	4739.85
432.565	5133.06
432.772	4942.6
432.979	5364.48
433.187	5470.98
433.394	5456.64
433.601	5792.51
433.808	5733.12
434.016	5632.77
434.223	6056.7
434.43	6296.31
434.637	6216.44
434.844	6689.52
435.052	6611.7
435.259	6689.52
435.466	6822.64
435.673	6640.37
435.88	7068.39
436.087	7381.73
436.294	7410.4
436.501	7371.49
436.708	7430.88
436.915	7535.33
437.122	8014.56
437.329	7863.01
437.537	8176.34
437.743	8166.1
437.95	8379.09
438.157	8708.82
438.364	8839.89
438.571	8983.24
438.778	8932.05
438.985	9845.44
439.192	9476.8
439.399	9726.66
439.606	9444.04
439.813	9994.94
440.02	10656.43
440.227	10531.51
440.433	10324.66
440.64	10523.32
440.847	10750.64
441.054	11008.69
441.261	11608.74
441.467	11348.65
441.674	11590.31
441.881	11997.85
442.088	11868.83
442.294	11889.31
442.501	12386.97
442.708	12417.69
442.914	12913.3
443.121	13257.36
443.328	13259.4
443.534	14105.21
443.741	13662.85
443.948	13513.35
444.154	14391.93
444.361	14373.5
444.568	14383.74
444.774	14260.86
444.981	14555.77
445.187	15065.71
445.394	15657.57
445.6	15407.72
445.807	16810.58
446.013	16321.12
446.22	16476.76
446.426	17101.39
446.633	17472.07
446.839	17883.72
447.046	16951.89
447.252	18117.18
447.459	17992.26
447.665	17906.24
447.871	18944.56
448.078	19368.49
448.284	18401.85
448.491	19198.51
448.697	19870.25
448.903	20048.42
449.11	20154.91
449.316	19706.41
449.522	20255.26
449.728	20763.16
449.935	21105.17
450.141	20750.87
450.347	21529.1
450.553	20701.72
450.76	20908.57
450.966	21344.78
451.172	21283.34
451.378	21836.3
451.584	21545.48
451.791	21852.68
451.997	21885.45
452.203	22276.61
452.409	22178.31
452.615	22145.54
452.821	21453.33
453.027	21037.59
453.233	22174.21
453.44	20851.22
453.646	21350.93
453.852	21619.21
454.058	22006.28
454.264	20947.48
454.47	21590.54
454.676	20953.62
454.882	21688.84
455.088	19847.72
455.294	20146.72
455.5	20566.56
455.705	20740.63
455.911	19767.85
456.117	19561
456.323	19122.74
456.529	18035.27
456.735	18848.31
456.941	18348.61
457.147	18166.34
457.352	17175.12
457.558	17232.46
457.764	17345.1
457.97	17109.58
458.176	16554.58
458.381	16693.85
458.587	15721.06
458.793	15782.5
458.999	14944.88
459.204	16024.16
459.41	15532.65
459.616	14746.23
459.821	14471.8
460.027	14193.28
460.233	14279.29
460.438	13593.22
460.644	13449.86
460.85	12987.02
461.055	12839.57
461.261	12735.12
461.466	11637.41
461.672	11551.4
461.878	12294.81
462.083	11412.14
462.289	11037.36
462.494	10924.72
462.7	10662.58
462.905	10134.2
463.111	10711.73
463.316	10822.32
463.522	10318.52
463.727	10197.69
463.932	10267.32
464.138	10056.38
464.343	10166.97
464.549	9894.59
464.754	10402.49
464.959	10289.85
465.165	10050.24
465.37	10029.76
465.575	9403.08
465.781	9931.45
465.986	9657.03
466.191	9441.99
466.397	9198.28
466.602	8938.19
466.807	9165.51
467.012	9175.75
467.218	9188.04
467.423	8997.58
467.628	9063.12
467.833	9499.33
468.038	9011.92
468.244	8751.82
468.449	9018.06
468.654	8778.45
468.859	8815.31
469.064	8698.58
469.269	8520.4
469.474	8280.79
469.679	8622.8
469.885	8336.09
470.09	8542.93
470.295	8364.76
470.5	8223.45
470.705	8301.27
470.91	7817.95
471.115	7951.07
471.32	8178.39
471.525	7959.26
471.73	7813.85
471.935	7776.99
472.139	7488.23
472.344	7467.75
472.549	7631.58
472.754	7430.88
472.959	7359.21
473.164	7252.71
473.369	6896.36
473.574	7297.77
473.778	7277.29
473.983	7236.33
474.188	7123.69
474.393	6646.51
474.598	6849.26
474.802	6638.32
475.007	6705.9
475.212	6697.71
475.417	6345.46
475.621	6621.94
475.826	6580.98
476.031	6601.46
476.235	6179.58
476.44	6394.61
476.645	6275.83
476.849	6230.77
477.054	6071.03
477.259	6124.28
477.463	6052.6
477.668	5896.96
477.872	6077.18
478.077	5790.46
478.282	5573.38
478.486	5741.31
478.691	5833.47
478.895	5622.53
479.1	5540.61
479.304	5640.96
479.509	5389.06
479.713	5518.08
479.918	5413.63
480.122	5241.61
480.326	5380.87
480.531	5319.43
480.735	5286.66
480.94	5354.24
481.144	5423.87
481.348	5057.29
481.553	5227.27
481.757	5051.14
481.961	5188.36
482.166	5257.99
482.37	5208.84
482.574	5120.78
482.778	5206.79
482.983	5348.1
483.187	5182.21
483.391	5159.69
483.595	5255.94
483.8	5045
484.004	5182.21
484.208	5116.68
484.412	5081.86
484.616	5126.92
484.821	5020.42
485.025	4891.4
485.229	5163.78
485.433	4979.47
485.637	5198.6
485.841	5092.1
486.045	5135.11
486.249	5161.73
486.453	5063.43
486.657	5022.47
486.861	5030.66
487.065	4993.8
487.269	5098.25
487.473	4969.23
487.677	5251.85
487.881	5395.2
488.085	5008.14
488.289	5104.39
488.493	4961.03
488.697	5030.66
488.901	5188.36
489.105	5090.06
489.309	5020.42
489.512	5178.12
489.716	5257.99
489.92	5206.79
490.124	5085.96
490.328	5237.51
490.531	5174.02
490.735	5167.88
490.939	5194.5
491.143	5356.29
491.346	5182.21
491.55	5159.69
491.754	5141.25
491.958	5194.5
492.161	5301
492.365	5264.13
492.569	5229.32
492.772	5239.56
492.976	5264.13
493.18	5401.35
493.383	5546.75
493.587	5606.14
493.79	5495.55
493.994	5563.14
494.197	5411.59
494.401	5636.86
494.605	5548.8
494.808	5612.29
495.012	5849.85
495.215	5735.17
495.419	5677.82
495.622	5741.31
495.825	5845.76
496.029	5772.03
496.232	5925.63
496.436	6007.55
496.639	6224.63
496.843	6032.12
497.046	6081.27
497.249	6261.49
497.453	6177.53
497.656	6023.93
497.859	6259.45
498.063	6517.49
498.266	6562.55
498.469	6343.41
498.673	6492.91
498.876	6685.42
499.079	6857.45
499.282	6634.22
499.485	6988.52
499.689	6640.37
499.892	7064.3
500.095	7006.95
500.298	7303.91
500.501	7011.05
500.705	7185.13
500.908	7383.78
501.111	7340.77
501.314	7506.66
501.517	7537.38
501.72	7697.12
501.923	7779.04
502.126	7934.68
502.329	7963.36
502.532	8024.79
502.735	7934.68
502.938	8360.66
503.141	8223.45
503.344	8235.74
503.547	8461.01
503.75	8360.66
503.953	8381.14
504.156	8571.6
504.359	8663.76
504.562	8747.73
504.765	9087.69
504.968	9153.23
505.17	9181.9
505.373	9036.49
505.576	9431.75
505.779	9286.34
505.982	9525.96
506.185	9525.96
506.387	9605.83
506.59	9702.08
506.793	10017.47
506.996	9847.49
507.198	10185.4
507.401	9988.8
507.604	10199.74
507.807	10478.26
508.009	10427.06
508.212	10382.01
508.415	10605.24
508.617	10629.81
508.82	10711.73
509.022	10891.95
509.225	10865.33
509.428	11309.74
509.63	11274.92
509.833	11137.71
510.035	11621.03
510.238	11367.08
510.44	11551.4
510.643	11776.67
510.845	11940.51
511.048	11756.19
511.25	11733.67
511.453	12020.38
511.655	12223.13
511.858	12292.76
512.06	12456.6
512.262	12604.05
512.465	12421.78
512.667	12624.53
512.87	12690.07
513.072	12745.36
513.274	13062.8
513.477	13361.8
513.679	13183.63
513.881	13251.21
514.084	13660.8
514.286	13384.33
514.488	13607.56
514.69	14006.91
514.893	14160.51
515.095	14025.34
515.297	14131.84
515.499	14242.43
515.701	14277.24
515.904	14502.52
516.106	14486.14
516.308	14479.99
516.51	14865.01
516.712	14910.07
516.914	14926.45
517.116	15196.78
517.318	15051.38
517.52	15239.79
517.722	15215.21
517.925	15577.7
518.127	15518.31
518.329	15643.24
518.531	15313.52
518.733	15903.33
518.935	16108.13
519.136	15864.42
519.338	16120.42
519.54	15979.11
519.742	16441.95
519.944	16292.44
520.146	16562.78
520.348	16865.88
520.55	16659.03
520.752	16894.55
520.954	17093.2
521.155	16978.51
521.357	17119.82
521.559	17189.46
521.761	17472.07
521.963	17582.67
522.164	17492.55
522.366	17586.76
522.568	17795.65
522.77	17709.64
522.971	17949.25
523.173	17781.32
523.375	18139.71
523.576	18102.85
523.778	17918.53
523.98	18184.77
524.181	18301.5
524.383	18233.92
524.584	18657.85
524.786	18416.19
524.988	18094.66
525.189	18471.48
525.391	18733.62
525.592	18545.21
525.794	18692.66
525.995	18698.81
526.197	18737.72
526.398	18793.01
526.6	19155.51
526.801	19094.07
527.003	18985.52
527.204	18999.86
527.406	19421.74
527.607	19257.9
527.808	19458.6
528.01	18784.82
528.211	19235.38
528.412	19364.4
528.614	19370.54
528.815	19429.93
529.016	19536.43
529.218	19366.45
529.419	19616.3
529.62	19489.32
529.822	19536.43
530.023	19294.77
530.224	19348.01
530.425	19448.36
530.626	19368.49
530.828	19425.84
531.029	19825.19
531.23	19393.07
531.431	19403.31
531.632	19714.6
531.833	19583.53
532.035	19501.61
532.236	19737.13
532.437	19739.18
532.638	19876.39
532.839	19726.89
533.04	19718.7
533.241	19593.77
533.442	19771.94
533.643	19782.18
533.844	19532.33
534.045	19573.29
534.246	19427.88
534.447	19718.7
534.648	19561
534.849	19593.77
535.05	19515.95
535.251	19526.19
535.451	19350.06
535.652	19663.4
535.853	19227.18
536.054	19524.14
536.255	19939.88
536.456	19157.55
536.657	19792.42
536.857	19497.52
537.058	19237.42
537.259	19499.56
537.46	19401.26
537.66	19563.05
537.861	19573.29
538.062	19472.94
538.263	19470.89
538.463	19491.37
538.664	19685.93
538.865	19569.19
539.065	19626.54
539.266	19577.39
539.466	19561
539.667	19300.91
539.868	19464.75
540.068	19589.67
540.269	19462.7
540.469	19624.49
540.67	19495.47
540.87	19679.79
541.071	19487.28
541.271	19391.02
541.472	19292.72
541.672	19266.1
541.873	19022.39
542.073	19046.96
542.274	19644.97
542.474	19401.26
542.675	19399.21
542.875	19501.61
543.075	19372.59
543.276	19061.3
543.476	19503.66
543.676	19184.18
543.877	19569.19
544.077	19350.06
544.277	19216.94
544.478	19292.72
544.678	19393.07
544.878	19315.25
545.078	19233.33
545.279	19180.08
545.479	19022.39
545.679	19198.51
545.879	19114.55
546.079	19288.62
546.28	18903.6
546.48	18903.6
546.68	19262
546.88	19104.31
547.08	19274.29
547.28	19094.07
547.48	18938.42
547.68	19315.25
547.88	18786.87
548.081	19147.31
548.281	19071.54
548.481	19053.11
548.681	19085.87
548.881	19122.74
549.081	18901.56
549.28	18874.93
549.48	19147.31
549.68	19008.05
549.88	19151.41
550.08	19014.2
550.28	19231.28
550.48	18829.88
550.68	19049.01
550.88	18657.85
551.08	18932.28
551.279	18852.41
551.479	18801.21
551.679	19235.38
551.879	18911.8
552.079	19192.37
552.278	18836.02
552.478	18840.12
552.678	19028.53
552.878	18901.56
553.077	19032.63
553.277	18829.88
553.477	19042.87
553.676	18950.71
553.876	18756.15
554.076	18782.77
554.275	18532.92
554.475	18668.09
554.674	18702.9
554.874	18686.52
555.074	18616.89
555.273	18911.8
555.473	18870.84
555.672	18852.41
555.872	18647.61
556.071	18766.39
556.271	18940.47
556.47	18983.48
556.67	18635.32
556.869	18891.32
557.068	19012.15
557.268	18735.67
557.467	18729.53
557.667	18905.65
557.866	18876.98
558.065	18723.38
558.265	18594.36
558.464	18512.44
558.663	18631.23
558.863	18182.72
559.062	18897.46
559.261	18362.94
559.461	18692.66
559.66	18356.8
559.859	18608.7
560.058	18539.07
560.258	18698.81
560.457	18604.6
560.656	18852.41
560.855	18278.97
561.054	18500.16
561.253	18477.63
561.453	18451
561.652	18467.39
561.851	18651.7
562.05	18334.27
562.249	18303.55
562.448	18463.29
562.647	18346.56
562.846	18436.67
563.045	18436.67
563.244	18276.93
563.443	18500.16
563.642	18305.6
563.841	18465.34
564.04	18235.97
564.239	18410.04
564.438	18229.82
564.637	18131.52
564.836	18256.45
565.035	18192.96
565.234	18149.95
565.432	18250.3
565.631	18262.59
565.83	18424.38
566.029	18387.52
566.228	18174.53
566.427	18002.5
566.625	18000.45
566.824	18018.88
567.023	18338.37
567.222	17871.43
567.42	18055.75
567.619	18061.89
567.818	18121.28
568.016	17928.77
568.215	18035.27
568.414	17896
568.612	18295.36
568.811	17912.39
569.01	17904.2
569.208	17705.54
569.407	17996.35
569.605	17807.94
569.804	18029.12
570.002	17752.65
570.201	18078.27
570.4	17844.81
570.598	17756.74
570.797	17672.78
570.995	17861.19
571.193	17545.8
571.392	17822.28
571.59	17605.19
571.789	17584.71
571.987	17683.02
572.186	17601.1
572.384	17306.19
572.582	17617.48
572.781	17584.71
572.979	17474.12
573.177	17441.36
573.376	17680.97
573.574	17488.46
573.772	17523.27
573.971	17467.98
574.169	17328.72
574.367	17320.53
574.565	17777.22
574.763	17492.55
574.962	17642.06
575.16	17109.58
575.358	17271.37
575.556	17164.88
575.754	17347.15
575.952	17007.19
576.151	17486.41
576.349	17134.16
576.547	16992.85
576.745	17289.81
576.943	17033.81
577.141	17453.64
577.339	17031.76
577.537	16937.55
577.735	16976.47
577.933	17119.82
578.131	17072.72
578.329	17164.88
578.527	16777.81
578.725	17234.51
578.923	16798.29
579.121	16955.99
579.319	16831.06
579.516	17042
579.714	16990.8
579.912	16917.08
580.11	16822.87
580.308	16874.07
580.506	16970.32
580.704	16456.28
580.901	16681.56
581.099	16743
581.297	16525.91
581.495	16622.17
581.692	16620.12
581.89	16499.29
582.088	16837.2
582.285	16736.85
582.483	16579.16
582.681	16609.88
582.878	16593.5
583.076	16349.79
583.274	16550.49
583.471	16224.86
583.669	16474.71
583.866	16220.77
584.064	16495.19
584.262	16095.84
584.459	16382.56
584.657	16161.37
584.854	16396.89
585.052	16265.82
585.249	16153.18
585.447	16214.62
585.644	16013.92
585.841	16099.94
586.039	16138.85
586.236	15952.48
586.434	15997.54
586.631	16024.16
586.828	16044.64
587.026	16122.46
587.223	15856.23
587.42	15911.52
587.618	15934.05
587.815	15970.91
588.012	15934.05
588.21	15954.53
588.407	15868.52
588.604	15962.72
588.801	15952.48
588.999	15811.17
589.196	15546.98
589.393	15927.91
589.59	15739.49
589.787	15389.29
589.984	15716.97
590.182	15716.97
590.379	15845.99
590.576	15413.87
590.773	15686.25
590.97	15444.59
591.167	15932
591.364	15475.31
591.561	15764.07
591.758	15495.78
591.955	15563.37
592.152	15694.44
592.349	15606.38
592.546	15491.69
592.743	15420.01
592.94	15344.24
593.137	15592.04
593.334	15579.75
593.531	15225.45
593.727	15446.63
593.924	15653.48
594.121	15061.62
594.318	15422.06
594.515	15209.07
594.712	15329.9
594.908	15387.24
595.105	15417.96
595.302	15061.62
595.499	15377
595.696	15417.96
595.892	14969.46
596.089	15370.86
596.286	15196.78
596.482	15282.8
596.679	15346.28
596.876	15483.5
597.072	15133.29
597.269	14961.27
597.466	15086.19
597.662	15194.73
597.859	15088.24
598.055	15176.3
598.252	14963.31
598.448	14922.35
598.645	15334
598.841	15002.22
599.038	15123.05
599.234	15190.64
599.431	15182.45
599.627	15026.8
599.824	15487.59
600.02	14822
600.217	15086.19
600.413	15202.93
600.609	14766.71
600.806	15151.73
601.002	15336.04
601.198	15153.77
601.395	15104.62
601.591	15182.45
601.787	15200.88
601.984	15094.38
602.18	15321.71
602.376	15082.1
602.572	15172.21
602.769	15299.18
602.965	14826.1
603.161	15334
603.357	15016.56
603.553	15166.06
603.75	15137.39
603.946	15168.11
604.142	15241.84
604.338	15082.1
604.534	15313.52
604.73	15039.09
604.926	14957.17
605.122	15067.76
605.318	15182.45
605.514	15198.83
605.71	15112.81
605.906	15143.53
606.102	15305.32
606.298	15157.87
606.494	15422.06
606.69	15338.09
606.886	15317.61
607.082	15141.49
607.278	15356.52
607.474	15104.62
607.67	15098.48
607.866	15116.91
608.062	15342.19
608.257	15284.84
608.453	15100.53
608.649	15143.53
608.845	15391.34
609.041	15336.04
609.236	15338.09
609.432	15467.11
609.628	15458.92
609.824	15393.39
610.019	15385.19
610.215	15465.07
610.411	15493.74
610.606	15532.65
610.802	15714.92
610.998	15602.28
611.193	15719.01
611.389	15340.14
611.584	15606.38
611.78	15516.26
611.976	15579.75
612.171	15708.77
612.367	15571.56
612.562	15651.43
612.758	15489.64
612.953	15454.83
613.149	15702.63
613.344	15608.42
613.539	15659.62
613.735	15864.42
613.93	15800.93
614.126	15772.26
614.321	15811.17
614.517	16095.84
614.712	15802.98
614.907	15907.43
615.103	16165.47
615.298	15827.56
615.493	15952.48
615.688	15921.76
615.884	16392.8
616.079	15778.4
616.274	16081.5
616.47	15972.96
616.665	15878.76
616.86	16067.17
617.055	15929.95
617.25	16108.13
617.445	16204.38
617.641	15870.56
617.836	16224.86
618.031	15972.96
618.226	16218.72
618.421	15972.96
618.616	16239.2
618.811	15710.82
619.006	16251.49
619.201	15919.71
619.396	16022.11
619.591	15868.52
619.786	16206.43
619.981	15800.93
620.176	15784.55
620.371	16018.02
620.566	16005.73
620.761	16026.21
620.956	16024.16
621.151	15929.95
621.346	15917.67
621.541	15661.67
621.735	16056.93
621.93	15424.11
622.125	15731.3
622.32	15387.24
622.515	15702.63
622.709	15534.7
622.904	15592.04
623.099	15338.09
623.294	15686.25
623.488	15501.93
623.683	15368.81
623.878	15071.86
624.072	15186.54
624.267	15278.7
624.462	15194.73
624.656	15110.77
624.851	15250.03
625.046	15012.46
625.24	14844.53
625.435	14959.22
625.629	14957.17
625.824	14916.21
626.018	14994.03
626.213	14631.54
626.407	14914.16
626.602	14598.77
626.796	14510.71
626.991	14838.39
627.185	14781.04
627.38	14688.89
627.574	14410.36
627.768	14387.83
627.963	14416.51
628.157	14156.41
628.352	14123.65
628.546	13875.84
628.74	14092.93
628.935	14035.58
629.129	14121.6
629.323	13900.42
629.517	14037.63
629.712	14082.69
629.906	13824.64
630.1	13582.98
630.294	13894.27
630.489	13671.04
630.683	13879.94
630.877	13369.99
631.071	13572.74
631.265	13388.43
631.459	13509.26
631.653	13308.55
631.848	13378.19
632.042	13408.9
632.236	13288.07
632.43	13308.55
632.624	13599.37
632.818	13085.33
633.012	13353.61
633.206	13150.86
633.4	13226.64
633.594	12931.73
633.788	12851.86
633.982	12909.2
634.176	12780.18
634.369	12855.95
634.563	12751.51
634.757	12544.66
634.951	12792.47
635.145	12550.81
635.339	12827.28
635.533	12331.67
635.726	12620.44
635.92	12194.46
636.114	12255.9
636.308	12434.07
636.501	12294.81
636.695	12149.4
636.889	11838.11
637.083	11999.9
637.276	11901.6
637.47	12145.31
637.664	11817.63
637.857	12004
638.051	11655.84
638.244	11641.51
638.438	11721.38
638.632	11557.54
638.825	11516.58
639.019	11653.8
639.212	11449
639.406	11356.84
639.599	11303.59
639.793	11537.06
639.986	11244.2
640.18	11076.27
640.373	10969.77
640.567	11047.6
640.76	11145.9
640.954	11373.22
641.147	10824.37
641.34	10687.15
641.534	10824.37
641.727	10762.93
641.92	10760.88
642.114	10566.32
642.307	10689.2
642.5	10379.96
642.694	10265.27
642.887	10490.55
643.08	10431.16
643.273	10414.77
643.467	10361.53
643.66	10220.22
643.853	10236.6
644.046	9939.65
644.239	9861.82
644.432	9929.41
644.626	9697.99
644.819	9931.45
645.012	10054.33
645.205	9876.16
645.398	9798.34
645.591	9519.81
645.784	9562.82
645.977	9360.07
646.17	9521.86
646.363	9552.58
646.556	9347.78
646.749	9118.41
646.942	9437.89
647.135	9251.53
647.328	9181.9
647.521	8950.48
647.714	8921.81
647.907	8841.93
648.099	8747.73
648.292	8891.09
648.485	8784.59
648.678	8635.09
648.871	8733.39
649.064	8690.38
649.256	8544.98
649.449	8510.16
649.642	8501.97
649.835	8268.5
650.027	8458.96
650.22	8336.09
650.413	8276.7
650.605	8338.13
650.798	8225.5
650.991	8055.51
651.183	8080.09
651.376	8006.36
651.568	8159.96
651.761	7738.08
651.954	8086.23
652.146	7891.68
652.339	7879.39
652.531	7801.57
652.724	7848.67
652.916	7592.67
653.109	7553.76
653.301	7729.89
653.494	7731.94
653.686	7396.07
653.879	7633.63
654.071	7650.02
654.263	7445.22
654.456	7441.12
654.648	7314.15
654.84	7203.56
655.033	7228.14
655.225	7465.7
655.417	7068.39
655.61	7092.97
655.802	7213.8
655.994	7107.3
656.186	6961.9
656.379	6853.36
656.571	6787.82
656.763	6726.38
656.955	6812.4
657.148	6830.83
657.34	6742.77
657.532	6419.19
657.724	6707.95
657.916	6576.88
658.108	6732.53
658.3	6525.68
658.492	6462.19
658.684	6503.15
658.876	6241.01
659.068	6349.56
659.26	6327.03
659.452	6284.02
659.644	6013.69
659.836	6275.83
660.028	5980.92
660.22	5944.06
660.412	6019.83
660.604	6048.51
660.796	5880.57
660.988	5995.26
661.18	5962.49
661.372	5800.7
661.563	5765.89
661.755	5845.76
661.947	5720.83
662.139	5806.84
662.331	5487.36
662.522	5681.92
662.714	5571.33
662.906	5380.87
663.097	5509.89
663.289	5454.59
663.481	5513.99
663.673	5591.81
663.864	5225.22
664.056	5311.24
664.247	5313.28
664.439	5143.3
664.631	5141.25
664.822	5395.2
665.014	5014.28
665.205	5042.95
665.397	5020.42
665.588	4932.36
665.78	4872.97
665.971	4875.02
666.163	5176.07
666.354	4973.32
666.546	4823.82
666.737	4799.24
666.929	4791.05
667.12	4719.37
667.311	4907.79
667.503	4584.21
667.694	4700.94
667.885	4641.55
668.077	4729.61
668.268	4547.34
668.459	4731.66
668.651	4635.41
668.842	4668.17
669.033	4551.44
669.224	4498.19
669.416	4561.68
669.607	4602.64
669.798	4592.4
669.989	4510.48
670.18	4403.99
670.371	4475.67
670.563	4297.49
670.754	4496.14
670.945	4375.31
671.136	4356.88
671.327	4197.14
671.518	4309.78
671.709	4244.24
671.9	4285.2
672.091	4156.18
672.282	4154.13
672.473	4223.76
672.664	4225.81
672.855	4236.05
673.046	4307.73
673.237	4035.35
673.428	4094.74
673.619	4109.08
673.809	4090.65
674	4158.23
674.191	4043.54
674.382	4059.93
674.573	4023.06
674.764	3967.77
674.954	4055.83
675.145	3924.76
675.336	3908.38
675.527	3887.9
675.717	3978.01
675.908	3986.2
676.099	3844.89
676.289	3932.95
676.48	3949.34
676.671	3756.83
676.861	3939.1
677.052	3867.42
677.243	3799.84
677.433	3793.69
677.624	3779.36
677.814	3877.66
678.005	3830.55
678.195	3877.66
678.386	3805.98
678.576	3756.83
678.767	3728.16
678.957	3871.51
679.148	3760.92
679.338	3617.57
679.529	3744.54
679.719	3724.06
679.909	3879.71
680.1	3781.4
680.29	3687.2
680.481	3627.81
680.671	3820.32
680.861	3738.4
681.052	3664.67
681.242	3742.49
681.432	3805.98
681.622	3703.58
681.813	3638.05
682.003	3672.86
682.193	3865.37
682.383	3658.53
682.573	3650.33
682.764	3736.35
682.954	3758.88
683.144	3615.52
683.334	3646.24
683.524	3717.92
683.714	3670.81
683.904	3607.33
684.094	3564.32
684.284	3572.51
684.474	3701.53
684.664	3683.1
684.854	3734.3
685.044	3646.24
685.234	3486.5
685.424	3652.38
685.614	3586.85
685.804	3650.33
685.994	3599.13
686.184	3578.65
686.374	3601.18
686.564	3527.46
686.753	3734.3
686.943	3453.73
687.133	3658.53
687.323	3521.31
687.513	3662.62
687.702	3554.08
687.892	3541.79
688.082	3543.84
688.272	3586.85
688.461	3449.63
688.651	3605.28
688.841	3509.02
689.03	3603.23
689.22	3556.13
689.41	3513.12
689.599	3476.26
689.789	3552.03
689.979	3466.02
690.168	3517.22
690.358	3527.46
690.547	3679.01
690.737	3625.76
690.926	3435.3
691.116	3443.49
691.305	3513.12
691.495	3500.83
691.684	3351.33
691.874	3463.97
692.063	3568.41
692.252	3603.23
692.442	3603.23
692.631	3461.92
692.82	3482.4
693.01	3642.14
693.199	3496.74
693.388	3476.26
693.578	3371.81
693.767	3380
693.956	3474.21
694.146	3382.05
694.335	3398.43
694.524	3506.98
694.713	3445.54
694.902	3453.73
695.092	3521.31
695.281	3402.53
695.47	3500.83
695.659	3449.63
695.848	3488.54
696.037	3410.72
696.226	3625.76
696.415	3517.22
696.604	3605.28
696.793	3437.34
696.982	3627.81
697.171	3609.37
697.36	3592.99
697.549	3523.36
697.738	3414.82
697.927	3511.07
698.116	3425.06
698.305	3500.83
698.494	3525.41
698.683	3517.22
698.872	3615.52
699.061	3560.22
699.25	3605.28
699.438	3783.45
699.627	3457.82
699.816	3433.25
700.005	3488.54
700.193	3603.23
700.382	3644.19
700.571	3662.62
700.76	3668.77
700.948	3627.81
701.137	3447.58
701.326	3812.12
701.514	3566.37
701.703	3488.54
701.892	3695.39
702.08	3851.03
702.269	3652.38
702.457	3482.4
702.646	3822.36
702.834	3560.22
703.023	3494.69
703.212	3586.85
703.4	3713.82
703.589	3582.75
703.777	3666.72
703.965	3592.99
704.154	3648.29
704.342	3496.74
704.531	3461.92
704.719	3549.98
704.907	3588.89
705.096	3564.32
705.284	3654.43
705.472	3531.55
705.661	3582.75
705.849	3615.52
706.037	3648.29
706.226	3547.94
706.414	3562.27
706.602	3498.78
706.79	3611.42
706.979	3584.8
707.167	3697.44
707.355	3556.13
707.543	3758.88
707.731	3779.36
707.919	3719.96
708.107	3601.18
708.296	3568.41
708.484	3521.31
708.672	3617.57
708.86	3654.43
709.048	3494.69
709.236	3668.77
709.424	3603.23
709.612	3744.54
709.8	3519.26
709.988	3521.31
710.176	3609.37
710.364	3638.05
710.551	3597.09
710.739	3592.99
710.927	3568.41
711.115	3625.76
711.303	3633.95
711.491	3676.96
711.679	3515.17
711.866	3693.34
712.054	3449.63
712.242	3439.39
712.43	3582.75
712.617	3590.94
712.805	3488.54
712.993	3506.98
713.181	3392.29
713.368	3603.23
713.556	3574.56
713.744	3453.73
713.931	3584.8
714.119	3566.37
714.306	3451.68
714.494	3484.45
714.682	3468.06
714.869	3380
715.057	3461.92
715.244	3414.82
715.432	3590.94
715.619	3429.15
715.807	3629.85
715.994	3445.54
716.182	3330.85
716.369	3498.78
716.556	3560.22
716.744	3361.57
716.931	3455.78
717.119	3547.94
717.306	3494.69
717.493	3472.16
717.681	3492.64
717.868	3373.86
718.055	3449.63
718.242	3539.74
718.43	3445.54
718.617	3568.41
718.804	3498.78
718.991	3468.06
719.179	3439.39
719.366	3380
719.553	3441.44
719.74	3320.61
719.927	3298.08
720.114	3373.86
720.301	3285.8
720.488	3312.42
720.676	3355.43
720.863	3369.76
721.05	3416.87
721.237	3394.34
721.424	3339.04
721.611	3435.3
721.798	3205.92
721.985	3224.36
722.172	3248.93
722.358	3332.9
722.545	3392.29
722.732	3314.47
722.919	3408.67
723.106	3410.72
723.293	3275.56
723.48	3218.21
723.667	3306.27
723.853	3173.16
724.04	3341.09
724.227	3207.97
724.414	3283.75
724.6	3402.53
724.787	3341.09
724.974	3347.23
725.161	3201.83
725.347	3136.29
725.534	3113.77
725.72	3330.85
725.907	3289.89
726.094	3164.97
726.28	3205.92
726.467	3124.01
726.653	3103.53
726.84	3134.25
727.027	3437.34
727.213	3130.15
727.4	3164.97
727.586	3210.02
727.773	3009.32
727.959	3140.39
728.145	3205.92
728.332	3111.72
728.518	3232.55
728.705	3132.2
728.891	3246.88
729.077	3130.15
729.264	3046.18
729.45	3064.61
729.636	3291.94
729.823	3097.38
730.009	3029.8
730.195	3074.85
730.382	3164.97
730.568	3062.57
730.754	3081
730.94	3066.66
731.126	3181.35
731.313	3109.67
731.499	3216.16
731.685	3013.42
731.871	3132.2
732.057	3076.9
732.243	3029.8
732.429	2994.98
732.615	3072.81
732.801	3095.33
732.987	2892.59
733.173	2927.4
733.359	3097.38
733.545	2794.28
733.731	2927.4
733.917	2994.98
734.103	2984.74
734.289	3064.61
734.475	2974.5
734.661	2976.55
734.847	2978.6
735.033	2976.55
735.219	2894.63
735.404	2868.01
735.59	2773.8
735.776	2798.38
735.962	3066.66
736.148	2808.62
736.333	2878.25
736.519	2904.87
736.705	2825
736.89	2767.66
737.076	2874.15
737.262	2835.24
737.447	2806.57
737.633	2763.56
737.819	2863.91
738.004	2818.86
738.19	2771.76
738.375	2784.04
738.561	2796.33
738.747	2816.81
738.932	2698.03
739.118	2792.23
739.303	2833.19
739.489	2734.89
739.674	2763.56
739.859	2738.99
740.045	2759.47
740.23	2679.6
740.416	2642.73
740.601	2667.31
740.786	2620.21
740.972	2575.15
741.157	2487.09
741.342	2585.39
741.528	2612.01
741.713	2560.81
741.898	2673.45
742.084	2472.75
742.269	2597.68
742.454	2544.43
742.639	2526
742.824	2503.47
743.01	2503.47
743.195	2558.77
743.38	2466.61
743.565	2444.08
743.75	2401.07
743.935	2448.18
744.12	2579.25
744.305	2274.1
744.49	2325.3
744.675	2353.97
744.86	2323.25
745.045	2347.83
745.23	2331.44
745.415	2372.4
745.6	2360.11
745.785	2263.86
745.97	2401.07
746.155	2335.54
746.34	2415.41
746.525	2224.95
746.71	2384.69
746.895	2227
747.079	2183.99
747.264	2196.28
747.449	2216.76
747.634	2140.98
747.819	2214.71
748.003	2255.67
748.188	2157.36
748.373	2155.32
748.557	2171.7
748.742	2116.41
748.927	2192.18
749.111	2007.86
749.296	1979.19
749.481	2100.02
749.665	2028.34
749.85	2009.91
750.034	2036.53
750.219	2050.87
750.404	1856.31
750.588	2022.2
750.773	1882.94
750.957	1911.61
751.141	2014.01
751.326	2014.01
751.51	1977.14
751.695	1942.33
751.879	1901.37
752.064	1862.46
752.248	1817.4
752.432	1999.67
752.617	1858.36
752.801	1911.61
752.985	1770.3
753.17	1862.46
753.354	1884.98
753.538	1825.59
753.722	1737.53
753.907	1784.63
754.091	1700.67
754.275	1837.88
754.459	1766.2
754.643	1725.24
754.828	1647.42
755.012	1651.52
755.196	1723.2
755.38	1672
755.564	1694.52
755.748	1600.32
755.932	1659.71
756.116	1553.21
756.3	1692.48
756.484	1665.85
756.668	1581.89
756.852	1545.02
757.036	1592.13
757.22	1571.65
757.404	1477.44
757.588	1536.83
757.772	1536.83
757.956	1547.07
758.14	1559.36
758.323	1413.95
758.507	1483.58
758.691	1444.67
758.875	1446.72
759.059	1491.77
759.242	1372.99
759.426	1381.18
759.61	1426.24
759.794	1291.07
759.977	1401.66
760.161	1510.21
760.345	1463.1
760.528	1536.83
760.712	1360.7
760.895	1336.13
761.079	1385.28
761.263	1342.27
761.446	1321.79
761.63	1368.9
761.813	1397.57
761.997	1223.49
762.18	1307.46
762.364	1321.79
762.547	1262.4
762.731	1321.79
762.914	1268.55
763.098	1282.88
763.281	1344.32
763.464	1248.07
763.648	1258.31
763.831	1278.79
764.015	1215.3
764.198	1268.55
764.381	1241.92
764.564	1262.4
764.748	1262.4
764.931	1231.68
765.114	1266.5
765.297	1293.12
765.481	1178.44
765.664	1233.73
765.847	1217.35
766.03	1319.75
766.213	1200.96
766.397	1160
766.58	1198.92
766.763	1180.48
766.946	1100.61
767.129	1067.85
767.312	1061.7
767.495	1157.96
767.678	1217.35
767.861	1162.05
768.044	1151.81
768.227	1139.52
768.41	1135.43
768.593	1160
768.776	1121.09
768.959	1098.56
769.142	1151.81
769.324	1067.85
769.507	1088.32
769.69	1098.56
769.873	1067.85
770.056	1243.97
770.239	1184.58
770.421	1184.58
770.604	1110.85
770.787	1012.55
770.97	1139.52
771.152	1160
771.335	1047.37
771.518	1084.23
771.7	1117
771.883	1110.85
772.066	1086.28
772.248	1104.71
772.431	1039.17
772.613	1039.17
772.796	1006.41
772.978	1004.36
773.161	994.12
773.343	996.17
773.526	928.58
773.708	1026.89
773.891	912.2
774.073	895.82
774.256	951.11
774.438	1000.26
774.621	850.76
774.803	1002.31
774.985	920.39
775.168	996.17
775.35	869.19
775.532	961.35
775.715	904.01
775.897	944.97
776.079	983.88
776.261	977.73
776.444	899.91
776.626	846.66
776.808	873.29
776.99	914.25
777.173	883.53
777.355	787.27
777.537	836.42
777.719	852.81
777.901	740.17
778.083	807.75
778.265	729.93
778.447	893.77
778.629	772.94
778.811	785.23
778.993	852.81
779.175	848.71
779.357	705.35
779.539	727.88
779.721	791.37
779.903	785.23
780.085	764.75
780.267	729.93
780.449	883.53
780.631	828.23
780.812	828.23
780.994	721.74
781.176	807.75
781.358	793.42
781.54	723.79
781.721	783.18
781.903	758.6
782.085	748.36
782.267	744.27
782.448	584.52
782.63	682.83
782.812	686.92
782.993	805.71
783.175	693.07
783.357	635.72
783.538	691.02
783.72	525.13
783.901	637.77
784.083	578.38
784.264	682.83
784.446	617.29
784.627	633.68
784.809	611.15
784.99	641.87
785.172	586.57
785.353	619.34
785.535	590.67
785.716	523.09
785.897	516.94
786.079	609.1
786.26	625.48
786.441	613.2
786.623	488.27
786.804	490.32
786.985	590.67
787.167	570.19
787.348	523.09
787.529	617.29
787.71	623.44
787.891	582.48
788.073	533.33
788.254	547.66
788.435	555.85
788.616	559.95
788.797	408.4
788.978	506.7
789.159	488.27
789.34	547.66
789.522	445.26
789.703	525.13
789.884	533.33
790.065	506.7
790.246	557.9
790.427	506.7
790.607	504.65
790.788	502.61
790.969	349.01
791.15	426.83
791.331	402.26
791.512	492.37
791.693	381.78
791.874	453.45
792.054	551.76
792.235	496.46
792.416	443.21
792.597	297.81
792.778	461.65
792.958	488.27
793.139	338.77
793.32	441.17
793.5	394.06
793.681	502.61
793.862	412.5
794.042	349.01
794.223	349.01
794.404	398.16
794.584	353.1
794.765	367.44
794.945	402.26
795.126	471.89
795.306	371.54
795.487	422.73
795.667	367.44
795.848	418.64
796.028	406.35
796.209	463.69
796.389	365.39
796.57	375.63
796.75	285.52
796.93	320.34
797.111	256.85
797.291	318.29
797.471	385.87
797.652	363.34
797.832	271.19
798.012	469.84
798.192	379.73
798.373	303.95
798.553	314.19
798.733	377.68
798.913	301.9
799.093	281.43
799.274	326.48
799.454	367.44
799.634	344.91
799.814	365.39
799.994	349.01
800.174	308.05
800.354	318.29
800.534	160.59
800.714	351.06
800.894	293.71
801.074	230.23
801.254	293.71
801.434	359.25
801.614	334.67
801.794	254.8
801.974	1231.68
802.154	222.03
802.334	355.15
802.514	258.9
802.693	277.33
802.873	201.55
803.053	332.62
803.233	277.33
803.413	258.9
803.592	252.75
803.772	207.7
803.952	164.69
804.131	283.47
804.311	299.86
804.491	361.3
804.67	291.66
804.85	174.93
805.03	330.58
805.209	291.66
805.389	291.66
805.568	201.55
805.748	232.27
805.928	246.61
806.107	271.19
806.287	308.05
806.466	242.51
806.646	248.66
806.825	260.95
807.004	152.4
807.184	242.51
807.363	303.95
807.543	199.51
807.722	140.12
807.901	240.47
808.081	189.27
808.26	133.97
808.439	252.75
808.619	199.51
808.798	199.51
808.977	283.47
809.156	252.75
809.336	224.08
809.515	265.04
809.694	174.93
809.873	189.27
810.052	232.27
810.231	246.61
810.411	238.42
810.59	242.51
810.769	99.16
810.948	187.22
811.127	138.07
811.306	207.7
811.485	187.22
811.664	267.09
811.843	215.89
812.022	154.45
812.201	158.55
812.38	172.88
812.559	168.79
812.737	244.56
812.916	90.96
813.095	115.54
813.274	334.67
813.453	195.41
813.632	246.61
813.811	248.66
813.989	84.82
814.168	197.46
814.347	129.88
814.526	168.79
814.704	158.55
814.883	187.22
815.062	76.63
815.24	213.84
815.419	111.44
815.598	129.88
815.776	95.06
815.955	140.12
816.133	54.1
816.312	164.69
816.49	199.51
816.669	166.74
816.847	166.74
817.026	113.49
817.204	211.79
817.383	166.74
817.561	121.68
817.74	183.12
817.918	193.36
818.097	125.78
818.275	179.03
818.453	166.74
818.632	185.17
818.81	140.12
818.988	82.77
819.167	133.97
819.345	242.51
819.523	117.59
819.701	144.21
819.879	193.36
820.058	185.17
820.236	109.4
820.414	193.36
820.592	150.36
820.77	119.64
820.948	107.35
821.127	105.3
821.305	56.15
821.483	105.3
821.661	252.75
821.839	191.31
822.017	150.36
822.195	105.3
822.373	189.27
822.551	111.44
822.729	205.65
822.907	148.31
823.085	156.5
823.262	176.98
823.44	31.57
823.618	64.34
823.796	166.74
823.974	90.96
824.152	160.59
824.329	109.4
824.507	88.92
824.685	109.4
824.863	125.78
825.04	136.02
825.218	105.3
825.396	217.94
825.574	111.44
825.751	82.77
825.929	199.51
826.107	99.16
826.284	109.4
826.462	146.26
826.639	66.39
826.817	101.2
826.994	162.64
827.172	37.72
827.349	158.55
827.527	78.68
827.704	68.44
827.882	99.16
828.059	136.02
828.237	152.4
828.414	166.74
828.591	88.92
828.769	90.96
828.946	41.81
829.124	193.36
829.301	250.71
829.478	105.3
829.655	193.36
829.833	60.24
830.01	88.92
830.187	162.64
830.364	82.77
830.542	146.26
830.719	146.26
830.896	113.49
831.073	158.55
831.25	101.2
831.427	172.88
831.604	82.77
831.782	156.5
831.959	117.59
832.136	107.35
832.313	68.44
832.49	-56.49
832.667	115.54
832.844	62.29
833.021	125.78
833.198	74.58
833.374	129.88
833.551	97.11
833.728	7
833.905	109.4
834.082	-17.58
834.259	113.49
834.436	142.16
834.612	35.67
834.789	97.11
834.966	93.01
835.143	60.24
835.319	66.39
835.496	107.35
835.673	43.86
835.85	60.24
836.026	76.63
836.203	133.97
836.38	90.96
836.556	93.01
836.733	-1.19
836.909	172.88
837.086	29.52
837.262	33.62
837.439	47.96
837.616	31.57
837.792	17.24
837.968	117.59
838.145	-1.19
838.321	84.82
838.498	113.49
838.674	68.44
838.851	164.69
839.027	19.29
839.203	43.86
839.38	82.77
839.556	7
839.732	45.91
839.909	50
840.085	78.68
840.261	15.19
840.437	66.39
840.614	-44.2
840.79	64.34
840.966	11.09
841.142	109.4
841.318	88.92
841.494	41.81
841.671	17.24
841.847	103.25
842.023	0.85
842.199	23.38
842.375	148.31
842.551	33.62
842.727	13.14
842.903	115.54
843.079	47.96
843.255	117.59
843.431	72.53
843.607	37.72
843.783	-13.48
843.959	125.78
844.134	-3.24
844.31	33.62
844.486	64.34
844.662	35.67
844.838	64.34
845.013	27.48
845.189	150.36
845.365	43.86
845.541	31.57
845.716	54.1
845.892	45.91
846.068	13.14
846.244	-44.2
846.419	52.05
846.595	41.81
846.77	-3.24
846.946	80.72
847.122	119.64
847.297	23.38
847.473	123.73
847.648	-17.58
847.824	25.43
847.999	15.19
848.175	23.38
848.35	17.24
848.526	52.05
848.701	101.2
848.876	70.48
849.052	105.3
849.227	74.58
849.403	97.11
849.578	21.33
849.753	121.68
849.929	58.2
850.104	-36.01
850.279	31.57
850.454	17.24
850.63	109.4
850.805	29.52
850.98	60.24
851.155	31.57
851.33	68.44
851.505	31.57
851.681	86.87
851.856	35.67
852.031	88.92
852.206	111.44
852.381	-48.3
852.556	-7.34
852.731	41.81
852.906	41.81
853.081	41.81
853.256	68.44
853.431	11.09
853.606	68.44
853.781	-105.64
853.956	-52.39
854.131	76.63
854.305	4.95
854.48	2.9
854.655	-52.39
854.83	-58.54
855.005	45.91
855.18	39.76
855.354	80.72
855.529	19.29
855.704	56.15
855.879	115.54
856.053	0.85
856.228	82.77
856.403	-42.15
856.577	62.29
856.752	-9.39
856.926	78.68
857.101	39.76
857.276	78.68
857.45	93.01
857.625	88.92
857.799	84.82
857.974	62.29
858.148	-56.49
858.323	25.43
858.497	-50.35
858.672	-56.49
858.846	-27.82
859.02	64.34
859.195	-42.15
859.369	-3.24
859.543	68.44
859.718	4.95
859.892	29.52
860.066	-11.43
860.241	-52.39
860.415	13.14
860.589	-11.43
860.763	78.68
860.938	-23.72
861.112	43.86
861.286	25.43
861.46	-50.35
861.634	-21.67
861.808	13.14
861.982	-50.35
862.157	-54.44
862.331	60.24
862.505	-44.2
862.679	-44.2
862.853	45.91
863.027	64.34
863.201	99.16
863.375	-54.44
863.549	-7.34
863.722	45.91
863.896	119.64
864.07	-15.53
864.244	45.91
864.418	15.19
864.592	29.52
864.766	2.9
864.939	-3.24
865.113	-54.44
865.287	72.53
865.461	-46.25
865.634	-1.19
865.808	-1.19
865.982	-42.15
866.156	-1.19
866.329	-103.59
866.503	23.38
866.676	7
866.85	-1.19
867.024	60.24
867.197	54.1
867.371	9.05
867.544	31.57
867.718	-9.39
867.891	88.92
868.065	21.33
868.238	21.33
868.412	80.72
868.585	9.05
868.759	-33.96
868.932	27.48
869.105	-27.82
869.279	-7.34
869.452	0.85
869.625	27.48
869.799	-27.82
869.972	-56.49
870.145	64.34
870.319	62.29
870.492	-54.44
870.665	4.95
870.838	21.33
871.011	-97.45
871.185	-15.53
871.358	15.19
871.531	29.52
871.704	15.19
871.877	0.85
872.05	-72.87
872.223	-11.43
872.396	113.49
872.569	29.52
872.742	-83.11
872.915	33.62
873.088	13.14
873.261	-66.73
873.434	31.57
873.607	29.52
873.78	107.35
873.953	-79.02
874.126	33.62
874.299	70.48
874.471	19.29
874.644	-48.3
874.817	-13.48
874.99	107.35
875.163	0.85
875.335	84.82
875.508	7
875.681	115.54
875.853	-31.91
876.026	9.05
876.199	25.43
876.371	-1.19
876.544	-62.63
876.717	9.05
876.889	13.14
877.062	15.19
877.234	-17.58
877.407	9.05
877.579	-109.74
877.752	0.85
877.924	29.52
878.097	60.24
878.269	17.24
878.442	23.38
878.614	-3.24
878.786	7
878.959	-21.67
879.131	4.95
879.303	-85.16
879.476	-74.92
879.648	9.05
879.82	-19.63
879.993	25.43
880.165	-33.96
880.337	-64.68
880.509	13.14
880.681	-58.54
880.854	-38.06
881.026	-7.34
881.198	181.07
881.37	-42.15
881.542	27.48
881.714	-70.83
881.886	27.48
882.058	103.25
882.23	2.9
882.402	29.52
882.574	2.9
882.746	47.96
882.918	-19.63
883.09	66.39
883.262	-56.49
883.434	72.53
883.606	-15.53
883.778	-60.59
883.95	80.72
884.122	23.38
884.293	-1.19
884.465	33.62
884.637	25.43
884.809	-64.68
884.98	58.2
885.152	-9.39
885.324	37.72
885.496	-33.96
885.667	45.91
885.839	11.09
886.011	103.25
886.182	-9.39
886.354	58.2
886.525	23.38
886.697	-27.82
886.869	-76.97
887.04	54.1
887.212	-9.39
887.383	37.72
887.555	-5.29
887.726	-23.72
887.897	17.24
888.069	0.85
888.24	-74.92
888.412	-83.11
888.583	45.91
888.754	-25.77
888.926	9.05
889.097	-9.39
889.268	-91.31
889.44	62.29
889.611	-42.15
889.782	-23.72
889.953	-87.21
890.125	101.2
890.296	-38.06
890.467	-44.2
890.638	-5.29
890.809	37.72
890.98	-1.19
891.151	-23.72
891.323	66.39
891.494	50
891.665	-9.39
891.836	23.38
892.007	-38.06
892.178	-1.19
892.349	-15.53
892.52	15.19
892.691	17.24
892.862	-7.34
893.032	-48.3
893.203	-29.87
893.374	21.33
893.545	39.76
893.716	-56.49
893.887	56.15
894.057	-1.19
894.228	56.15
894.399	-107.69
894.57	82.77
894.74	35.67
894.911	2.9
895.082	-56.49
895.253	-66.73
895.423	47.96
895.594	31.57
895.764	37.72
895.935	-11.43
896.106	-42.15
896.276	9.05
896.447	21.33
896.617	-99.5
896.788	-31.91
896.958	-60.59
897.129	-38.06
897.299	-66.73
897.47	35.67
897.64	-9.39
897.81	21.33
897.981	27.48
898.151	-91.31
898.322	21.33
898.492	-64.68
898.662	-64.68
898.832	-33.96
899.003	-23.72
899.173	-13.48
899.343	43.86
899.513	9.05
