Data from USB4F104151__51__12-12-18-055.txt Node

Date: Fri Mar 14 12:12:18 EDT 2025
User: louis
Spectrometer: USB4F10415
Trigger mode: 4
Integration Time (sec): 5.000000E-2
Scans to average: 1
Electric dark correction enabled: true
Nonlinearity correction enabled: false
Boxcar width: 0
XAxis mode: Wavelengths
Number of Pixels in Spectrum: 3648
>>>>>Begin Spectral Data<<<<<
178.204	-182.1
178.424	-182.1
178.644	-182.1
178.864	-241.49
179.084	-200.53
179.304	12.46
179.524	-59.22
179.744	10.41
179.964	16.55
180.184	20.65
180.404	8.36
180.624	41.13
180.844	47.27
181.064	-63.32
181.283	-18.26
181.503	-42.84
181.723	26.79
181.943	-87.89
182.163	34.99
182.383	-22.36
182.602	61.61
182.822	84.14
183.042	26.79
183.262	-67.41
183.482	28.84
183.701	18.6
183.921	-5.97
184.141	-57.17
184.361	-3.93
184.58	47.27
184.8	-40.79
185.02	-112.47
185.239	135.34
185.459	-1.88
185.679	10.41
185.898	28.84
186.118	39.08
186.338	-28.5
186.557	90.28
186.777	-51.03
186.997	2.22
187.216	-65.36
187.436	94.38
187.655	8.36
187.875	-18.26
188.095	10.41
188.314	77.99
188.534	4.27
188.753	-30.55
188.973	43.18
189.192	37.03
189.412	41.13
189.631	8.36
189.851	14.51
190.07	65.71
190.29	-79.7
190.509	22.7
190.729	-51.03
190.948	30.89
191.168	198.82
191.387	37.03
191.607	-5.97
191.826	-5.97
192.045	18.6
192.265	0.17
192.484	4.27
192.704	37.03
192.923	-14.17
193.142	151.72
193.362	37.03
193.581	10.41
193.8	18.6
194.02	67.75
194.239	4.27
194.458	47.27
194.678	28.84
194.897	-36.69
195.116	96.43
195.335	88.23
195.555	8.36
195.774	-42.84
195.993	43.18
196.212	92.33
196.432	-10.07
196.651	-24.4
196.87	49.32
197.089	110.76
197.308	14.51
197.528	61.61
197.747	-77.65
197.966	18.6
198.185	112.81
198.404	-40.79
198.623	57.51
198.842	28.84
199.062	88.23
199.281	133.29
199.5	-26.45
199.719	4.27
199.938	53.42
200.157	57.51
200.376	65.71
200.595	57.51
200.814	73.9
201.033	-59.22
201.252	39.08
201.471	-51.03
201.69	125.1
201.909	47.27
202.128	-40.79
202.347	41.13
202.566	39.08
202.785	0.17
203.004	-59.22
203.223	145.58
203.442	-3.93
203.661	-42.84
203.879	4.27
204.098	104.62
204.317	-16.21
204.536	18.6
204.755	84.14
204.974	51.37
205.193	37.03
205.411	77.99
205.63	-51.03
205.849	26.79
206.068	26.79
206.287	-53.08
206.505	-3.93
206.724	-46.93
206.943	12.46
207.162	6.31
207.381	22.7
207.599	96.43
207.818	28.84
208.037	-67.41
208.255	8.36
208.474	49.32
208.693	61.61
208.911	-18.26
209.13	94.38
209.349	73.9
209.567	69.8
209.786	86.19
210.005	28.84
210.223	-10.07
210.442	-3.93
210.661	41.13
210.879	-44.88
211.098	10.41
211.316	37.03
211.535	63.66
211.753	75.95
211.972	69.8
212.191	-20.31
212.409	10.41
212.628	32.94
212.846	-42.84
213.065	71.85
213.283	104.62
213.502	-5.97
213.72	73.9
213.938	22.7
214.157	22.7
214.375	10.41
214.594	34.99
214.812	28.84
215.031	92.33
215.249	8.36
215.467	-40.79
215.686	-5.97
215.904	108.71
216.122	10.41
216.341	65.71
216.559	127.14
216.778	69.8
216.996	59.56
217.214	-26.45
217.432	-5.97
217.651	106.67
217.869	30.89
218.087	28.84
218.306	32.94
218.524	14.51
218.742	-61.27
218.96	94.38
219.179	26.79
219.397	0.17
219.615	207.02
219.833	92.33
220.051	-34.64
220.27	53.42
220.488	59.56
220.706	26.79
220.924	10.41
221.142	39.08
221.36	65.71
221.578	-30.55
221.796	43.18
222.015	-18.26
222.233	51.37
222.451	170.15
222.669	6.31
222.887	12.46
223.105	-32.6
223.323	67.75
223.541	-1.88
223.759	18.6
223.977	-24.4
224.195	67.75
224.413	55.47
224.631	4.27
224.849	-26.45
225.067	77.99
225.285	-16.21
225.503	4.27
225.721	2.22
225.939	75.95
226.157	-48.98
226.375	127.14
226.592	-59.22
226.81	30.89
227.028	49.32
227.246	82.09
227.464	63.66
227.682	63.66
227.9	18.6
228.117	39.08
228.335	49.32
228.553	-16.21
228.771	-20.31
228.989	26.79
229.206	49.32
229.424	18.6
229.642	-89.94
229.86	-65.36
230.077	77.99
230.295	-22.36
230.513	57.51
230.731	106.67
230.948	37.03
231.166	67.75
231.384	37.03
231.601	-77.65
231.819	20.65
232.037	-24.4
232.254	-36.69
232.472	32.94
232.689	10.41
232.907	108.71
233.125	16.55
233.342	32.94
233.56	30.89
233.777	47.27
233.995	30.89
234.213	75.95
234.43	14.51
234.648	-3.93
234.865	14.51
235.083	47.27
235.3	-24.4
235.518	4.27
235.735	182.44
235.953	98.47
236.17	-36.69
236.388	-12.12
236.605	43.18
236.822	45.23
237.04	82.09
237.257	49.32
237.475	-26.45
237.692	69.8
237.909	80.04
238.127	6.31
238.344	12.46
238.562	47.27
238.779	-42.84
238.996	-18.26
239.214	-22.36
239.431	45.23
239.648	22.7
239.865	34.99
240.083	37.03
240.3	22.7
240.517	16.55
240.735	-28.5
240.952	69.8
241.169	123.05
241.386	59.56
241.603	2.22
241.821	-28.5
242.038	-5.97
242.255	18.6
242.472	14.51
242.689	28.84
242.907	34.99
243.124	-22.36
243.341	67.75
243.558	45.23
243.775	-20.31
243.992	-34.64
244.209	8.36
244.426	159.91
244.643	37.03
244.86	-8.02
245.078	37.03
245.295	41.13
245.512	-24.4
245.729	8.36
245.946	94.38
246.163	30.89
246.38	49.32
246.597	10.41
246.814	34.99
247.031	61.61
247.248	57.51
247.464	53.42
247.681	-61.27
247.898	92.33
248.115	2.22
248.332	-1.88
248.549	28.84
248.766	106.67
248.983	-14.17
249.2	63.66
249.417	-20.31
249.633	-44.88
249.85	106.67
250.067	8.36
250.284	51.37
250.501	4.27
250.717	84.14
250.934	-63.32
251.151	24.75
251.368	10.41
251.585	75.95
251.801	-24.4
252.018	-94.04
252.235	47.27
252.451	2.22
252.668	-16.21
252.885	28.84
253.102	43.18
253.318	75.95
253.535	26.79
253.752	-28.5
253.968	-16.21
254.185	-30.55
254.401	22.7
254.618	75.95
254.835	-26.45
255.051	59.56
255.268	47.27
255.484	22.7
255.701	-10.07
255.917	43.18
256.134	-14.17
256.351	32.94
256.567	-12.12
256.784	37.03
257	-69.46
257.217	84.14
257.433	65.71
257.65	51.37
257.866	59.56
258.082	-14.17
258.299	47.27
258.515	10.41
258.732	53.42
258.948	75.95
259.165	2.22
259.381	51.37
259.597	-3.93
259.814	51.37
260.03	4.27
260.246	34.99
260.463	-8.02
260.679	80.04
260.895	-10.07
261.112	16.55
261.328	67.75
261.544	-22.36
261.761	84.14
261.977	10.41
262.193	-57.17
262.409	24.75
262.626	-14.17
262.842	30.89
263.058	-118.61
263.274	-36.69
263.49	65.71
263.707	114.86
263.923	108.71
264.139	-61.27
264.355	51.37
264.571	59.56
264.787	65.71
265.004	47.27
265.22	2.22
265.436	129.19
265.652	32.94
265.868	51.37
266.084	12.46
266.3	-3.93
266.516	-55.12
266.732	73.9
266.948	-18.26
267.164	14.51
267.38	-5.97
267.596	59.56
267.812	90.28
268.028	28.84
268.244	47.27
268.46	-38.74
268.676	-38.74
268.892	61.61
269.108	-22.36
269.324	-5.97
269.54	16.55
269.756	65.71
269.972	-30.55
270.188	32.94
270.403	-34.64
270.619	-44.88
270.835	63.66
271.051	16.55
271.267	2.22
271.483	-16.21
271.698	32.94
271.914	96.43
272.13	28.84
272.346	32.94
272.562	8.36
272.777	39.08
272.993	-10.07
273.209	-18.26
273.425	82.09
273.64	6.31
273.856	32.94
274.072	-22.36
274.287	12.46
274.503	43.18
274.719	10.41
274.934	10.41
275.15	-77.65
275.366	47.27
275.581	-48.98
275.797	-67.41
276.012	30.89
276.228	-30.55
276.444	4.27
276.659	137.38
276.875	-38.74
277.09	-8.02
277.306	47.27
277.521	34.99
277.737	67.75
277.952	88.23
278.168	-8.02
278.383	16.55
278.599	47.27
278.814	47.27
279.03	51.37
279.245	102.57
279.461	-8.02
279.676	69.8
279.892	28.84
280.107	-46.93
280.322	-55.12
280.538	24.75
280.753	12.46
280.969	-1.88
281.184	26.79
281.399	112.81
281.615	-30.55
281.83	102.57
282.045	-81.75
282.26	4.27
282.476	14.51
282.691	-30.55
282.906	69.8
283.122	34.99
283.337	-10.07
283.552	61.61
283.767	-12.12
283.983	28.84
284.198	55.47
284.413	-30.55
284.628	-28.5
284.843	94.38
285.058	37.03
285.274	51.37
285.489	-61.27
285.704	123.05
285.919	55.47
286.134	-12.12
286.349	6.31
286.564	-34.64
286.779	94.38
286.995	30.89
287.21	-69.46
287.425	-59.22
287.64	12.46
287.855	86.19
288.07	-32.6
288.285	57.51
288.5	61.61
288.715	41.13
288.93	0.17
289.145	-79.7
289.36	45.23
289.575	-1.88
289.79	61.61
290.004	34.99
290.219	2.22
290.434	-1.88
290.649	0.17
290.864	0.17
291.079	-57.17
291.294	59.56
291.509	-10.07
291.724	-71.51
291.938	8.36
292.153	39.08
292.368	88.23
292.583	8.36
292.798	75.95
293.012	-20.31
293.227	-10.07
293.442	49.32
293.657	51.37
293.871	114.86
294.086	4.27
294.301	204.97
294.516	51.37
294.73	77.99
294.945	-36.69
295.16	4.27
295.374	24.75
295.589	61.61
295.804	26.79
296.018	-14.17
296.233	37.03
296.447	57.51
296.662	51.37
296.877	-12.12
297.091	26.79
297.306	63.66
297.52	-34.64
297.735	-48.98
297.949	51.37
298.164	59.56
298.378	-22.36
298.593	-30.55
298.807	8.36
299.022	16.55
299.236	98.47
299.451	20.65
299.665	-53.08
299.88	57.51
300.094	45.23
300.309	-18.26
300.523	69.8
300.737	-22.36
300.952	18.6
301.166	41.13
301.381	-75.6
301.595	47.27
301.809	24.75
302.024	-18.26
302.238	20.65
302.452	51.37
302.667	-5.97
302.881	24.75
303.095	-22.36
303.309	55.47
303.524	-10.07
303.738	0.17
303.952	12.46
304.166	49.32
304.381	-38.74
304.595	28.84
304.809	-59.22
305.023	80.04
305.237	-22.36
305.452	-22.36
305.666	6.31
305.88	59.56
306.094	-55.12
306.308	18.6
306.522	26.79
306.736	10.41
306.95	75.95
307.164	22.7
307.379	20.65
307.593	53.42
307.807	94.38
308.021	75.95
308.235	-24.4
308.449	-22.36
308.663	-20.31
308.877	30.89
309.091	39.08
309.305	65.71
309.519	22.7
309.733	88.23
309.947	16.55
310.161	53.42
310.374	-20.31
310.588	53.42
310.802	-26.45
311.016	8.36
311.23	47.27
311.444	-55.12
311.658	84.14
311.872	59.56
312.085	110.76
312.299	32.94
312.513	51.37
312.727	37.03
312.941	-34.64
313.154	84.14
313.368	-22.36
313.582	41.13
313.796	30.89
314.009	82.09
314.223	47.27
314.437	84.14
314.651	45.23
314.864	-22.36
315.078	32.94
315.292	4.27
315.505	65.71
315.719	30.89
315.933	34.99
316.146	55.47
316.36	51.37
316.573	34.99
316.787	-30.55
317.001	-14.17
317.214	-34.64
317.428	59.56
317.641	-53.08
317.855	12.46
318.068	2.22
318.282	80.04
318.495	22.7
318.709	43.18
318.922	14.51
319.136	30.89
319.349	98.47
319.563	8.36
319.776	63.66
319.99	-14.17
320.203	12.46
320.417	6.31
320.63	71.85
320.843	75.95
321.057	32.94
321.27	-5.97
321.483	30.89
321.697	61.61
321.91	94.38
322.124	69.8
322.337	12.46
322.55	18.6
322.763	-10.07
322.977	8.36
323.19	-79.7
323.403	96.43
323.617	110.76
323.83	75.95
324.043	30.89
324.256	4.27
324.469	-36.69
324.683	34.99
324.896	-32.6
325.109	26.79
325.322	-20.31
325.535	32.94
325.748	88.23
325.962	-12.12
326.175	86.19
326.388	63.66
326.601	47.27
326.814	2.22
327.027	59.56
327.24	59.56
327.453	-116.56
327.666	63.66
327.879	112.81
328.092	37.03
328.305	47.27
328.518	-5.97
328.731	-10.07
328.944	73.9
329.157	71.85
329.37	45.23
329.583	116.9
329.796	57.51
330.009	-77.65
330.222	8.36
330.435	20.65
330.648	18.6
330.861	-8.02
331.073	53.42
331.286	41.13
331.499	10.41
331.712	-67.41
331.925	4.27
332.138	-5.97
332.35	16.55
332.563	30.89
332.776	53.42
332.989	14.51
333.202	-24.4
333.414	57.51
333.627	69.8
333.84	-24.4
334.053	43.18
334.265	-42.84
334.478	-28.5
334.691	-40.79
334.903	41.13
335.116	45.23
335.329	-32.6
335.541	114.86
335.754	106.67
335.966	-24.4
336.179	-5.97
336.392	-10.07
336.604	28.84
336.817	174.25
337.029	12.46
337.242	53.42
337.454	18.6
337.667	49.32
337.88	110.76
338.092	-1.88
338.305	104.62
338.517	16.55
338.729	0.17
338.942	88.23
339.154	55.47
339.367	-63.32
339.579	-36.69
339.792	28.84
340.004	90.28
340.217	57.51
340.429	8.36
340.641	-55.12
340.854	26.79
341.066	14.51
341.278	43.18
341.491	100.52
341.703	-34.64
341.915	2.22
342.128	67.75
342.34	-3.93
342.552	57.51
342.764	18.6
342.977	-8.02
343.189	41.13
343.401	94.38
343.613	32.94
343.826	-1.88
344.038	51.37
344.25	-63.32
344.462	0.17
344.674	57.51
344.886	2.22
345.099	118.95
345.311	47.27
345.523	43.18
345.735	22.7
345.947	6.31
346.159	112.81
346.371	102.57
346.583	-44.88
346.795	88.23
347.007	-36.69
347.219	16.55
347.431	102.57
347.643	47.27
347.855	26.79
348.067	67.75
348.279	14.51
348.491	6.31
348.703	41.13
348.915	-38.74
349.127	-14.17
349.339	123.05
349.551	-40.79
349.763	24.75
349.975	69.8
350.187	100.52
350.399	16.55
350.61	26.79
350.822	47.27
351.034	59.56
351.246	-24.4
351.458	34.99
351.669	-12.12
351.881	92.33
352.093	59.56
352.305	34.99
352.517	26.79
352.728	-10.07
352.94	16.55
353.152	57.51
353.363	-59.22
353.575	75.95
353.787	94.38
353.999	30.89
354.21	139.43
354.422	102.57
354.633	0.17
354.845	24.75
355.057	2.22
355.268	84.14
355.48	59.56
355.692	18.6
355.903	51.37
356.115	41.13
356.326	8.36
356.538	121
356.749	28.84
356.961	75.95
357.172	75.95
357.384	-34.64
357.595	143.53
357.807	24.75
358.018	-5.97
358.23	-26.45
358.441	176.3
358.653	51.37
358.864	14.51
359.075	16.55
359.287	86.19
359.498	147.62
359.709	24.75
359.921	67.75
360.132	-10.07
360.344	-10.07
360.555	-14.17
360.766	32.94
360.977	12.46
361.189	96.43
361.4	49.32
361.611	92.33
361.823	106.67
362.034	-16.21
362.245	-24.4
362.456	2.22
362.667	73.9
362.879	-16.21
363.09	18.6
363.301	39.08
363.512	37.03
363.723	26.79
363.935	16.55
364.146	77.99
364.357	8.36
364.568	69.8
364.779	-40.79
364.99	118.95
365.201	8.36
365.412	-16.21
365.623	26.79
365.834	57.51
366.045	55.47
366.256	65.71
366.467	94.38
366.678	-1.88
366.889	55.47
367.1	22.7
367.311	94.38
367.522	47.27
367.733	39.08
367.944	-16.21
368.155	59.56
368.366	59.56
368.577	32.94
368.788	100.52
368.999	26.79
369.209	32.94
369.42	188.58
369.631	131.24
369.842	71.85
370.053	-55.12
370.264	71.85
370.474	-18.26
370.685	24.75
370.896	24.75
371.107	77.99
371.317	82.09
371.528	86.19
371.739	63.66
371.95	155.82
372.16	57.51
372.371	32.94
372.582	43.18
372.792	28.84
373.003	49.32
373.214	-59.22
373.424	63.66
373.635	45.23
373.846	24.75
374.056	26.79
374.267	8.36
374.477	88.23
374.688	28.84
374.898	39.08
375.109	18.6
375.319	32.94
375.53	67.75
375.74	28.84
375.951	22.7
376.161	20.65
376.372	100.52
376.582	-44.88
376.793	32.94
377.003	43.18
377.214	4.27
377.424	92.33
377.635	82.09
377.845	-5.97
378.055	108.71
378.266	-51.03
378.476	30.89
378.686	34.99
378.897	41.13
379.107	39.08
379.317	20.65
379.528	2.22
379.738	102.57
379.948	-10.07
380.158	47.27
380.369	28.84
380.579	88.23
380.789	41.13
380.999	92.33
381.21	37.03
381.42	213.16
381.63	61.61
381.84	34.99
382.05	55.47
382.261	110.76
382.471	75.95
382.681	0.17
382.891	108.71
383.101	4.27
383.311	-20.31
383.521	-14.17
383.731	47.27
383.941	155.82
384.151	-22.36
384.361	-57.17
384.571	32.94
384.781	39.08
384.991	104.62
385.201	129.19
385.411	90.28
385.621	14.51
385.831	61.61
386.041	71.85
386.251	22.7
386.461	92.33
386.671	157.86
386.881	32.94
387.091	4.27
387.301	90.28
387.511	-40.79
387.72	43.18
387.93	73.9
388.14	-12.12
388.35	100.52
388.56	-3.93
388.769	75.95
388.979	8.36
389.189	-38.74
389.399	-22.36
389.609	12.46
389.818	75.95
390.028	129.19
390.238	84.14
390.447	53.42
390.657	125.1
390.867	-8.02
391.076	-22.36
391.286	57.51
391.496	41.13
391.705	55.47
391.915	114.86
392.125	63.66
392.334	94.38
392.544	71.85
392.753	96.43
392.963	28.84
393.172	12.46
393.382	12.46
393.591	127.14
393.801	45.23
394.01	168.1
394.22	34.99
394.429	18.6
394.639	49.32
394.848	67.75
395.058	112.81
395.267	123.05
395.477	141.48
395.686	73.9
395.895	118.95
396.105	180.39
396.314	57.51
396.524	80.04
396.733	82.09
396.942	129.19
397.152	151.72
397.361	65.71
397.57	116.9
397.78	57.51
397.989	65.71
398.198	178.34
398.407	20.65
398.617	67.75
398.826	67.75
399.035	32.94
399.244	16.55
399.453	123.05
399.663	153.77
399.872	131.24
400.081	28.84
400.29	190.63
400.499	71.85
400.708	96.43
400.917	69.8
401.127	73.9
401.336	43.18
401.545	129.19
401.754	80.04
401.963	110.76
402.172	80.04
402.381	82.09
402.59	112.81
402.799	24.75
403.008	143.53
403.217	102.57
403.426	108.71
403.635	45.23
403.844	84.14
404.053	139.43
404.262	157.86
404.471	168.1
404.68	153.77
404.888	43.18
405.097	147.62
405.306	159.91
405.515	202.92
405.724	104.62
405.933	178.34
406.142	147.62
406.35	155.82
406.559	221.35
406.768	198.82
406.977	254.12
407.185	233.64
407.394	225.45
407.603	102.57
407.812	166.06
408.02	182.44
408.229	219.3
408.438	235.69
408.646	207.02
408.855	264.36
409.064	350.37
409.272	252.07
409.481	368.81
409.69	288.93
409.898	266.41
410.107	247.97
410.315	342.18
410.524	278.69
410.733	333.99
410.941	348.33
411.15	325.8
411.358	436.39
411.567	436.39
411.775	346.28
411.984	385.19
412.192	479.4
412.401	417.96
412.609	618.66
412.818	589.99
413.026	637.09
413.234	546.98
413.443	528.55
413.651	536.74
413.86	549.03
414.068	690.34
414.276	719.01
414.485	579.75
414.693	831.65
414.901	776.35
415.11	774.3
415.318	786.59
415.526	735.39
415.734	759.97
415.943	835.74
416.151	925.85
416.359	829.6
416.567	944.28
416.776	1048.73
416.984	964.76
417.192	1046.68
417.4	989.34
417.608	1001.63
417.817	1007.77
418.025	1187.99
418.233	1335.45
418.441	1120.41
418.649	1337.49
418.857	1433.75
419.065	1501.33
419.273	1327.25
419.481	1446.04
419.689	1532.05
419.897	1534.1
420.105	1644.69
420.313	1667.22
420.521	1796.24
420.729	1820.81
420.937	1826.96
421.145	1927.31
421.353	1941.65
421.561	2085
421.769	2058.38
421.977	2216.07
422.185	2171.02
422.393	2384.01
422.601	2529.41
422.809	2390.15
423.017	2400.39
423.224	2533.51
423.432	2685.06
423.64	2752.64
423.848	2979.97
424.056	2799.74
424.263	3115.13
424.471	2924.67
424.679	3293.3
424.887	3297.4
425.094	3461.24
425.302	3373.18
425.51	3549.3
425.718	3541.11
425.925	3629.17
426.133	3915.89
426.341	4042.86
426.548	4182.12
426.756	4249.71
426.964	4309.1
427.171	4677.73
427.379	4720.74
427.586	4683.88
427.794	5003.36
428.001	4989.02
428.209	5390.42
428.417	5159
428.624	5752.91
428.832	5513.3
429.039	5501.01
429.247	5453.91
429.454	6125.65
429.662	6455.37
429.869	6041.68
430.076	6420.55
430.284	6355.02
430.491	6758.47
430.699	6948.93
430.906	6987.84
431.114	7116.86
431.321	7200.83
431.528	7434.3
431.736	7882.8
431.943	8216.62
432.15	7966.77
432.358	8226.86
432.565	8630.31
432.772	8556.58
432.979	8990.75
433.187	9035.81
433.394	9183.26
433.601	9795.61
433.808	9877.52
434.016	9902.1
434.223	10033.17
434.43	10743.81
434.637	10717.19
434.844	11315.2
435.052	11427.84
435.259	11550.71
435.466	11753.46
435.673	11524.09
435.88	12179.44
436.087	12748.78
436.294	12847.08
436.501	12560.36
436.708	12820.46
436.915	13309.92
437.122	13574.11
437.329	13387.74
437.537	14268.37
437.743	14399.44
437.95	14045.14
438.157	14938.05
438.364	15538.11
438.571	15376.32
438.778	15548.35
438.985	17072.04
439.192	16322.48
439.399	17065.89
439.606	16424.88
439.813	17266.6
440.02	18300.82
440.227	17950.62
440.433	17721.24
440.64	18536.34
440.847	18272.15
441.054	18704.27
441.261	20019.07
441.467	19810.17
441.674	20141.94
441.881	20694.89
442.088	20840.3
442.294	20483.95
442.501	21043.05
442.708	21874.52
442.914	22505.3
443.121	23308.1
443.328	22914.89
443.534	24289.08
443.741	23695.17
443.948	23179.08
444.154	24989.49
444.361	24616.76
444.568	24899.37
444.774	24921.9
444.981	25454.37
445.187	26033.95
445.394	27227.92
445.6	26842.9
445.807	29484.78
446.013	27971.33
446.22	28403.45
446.426	29712.1
446.633	30039.78
446.839	30602.97
447.046	29347.56
447.252	31389.39
447.459	31319.76
447.665	30987.99
447.871	32616.12
448.078	33820.33
448.284	32132.8
448.491	33164.98
448.697	34219.68
448.903	35335.82
449.11	34991.76
449.316	34401.95
449.522	35104.4
449.728	36167.3
449.935	36437.63
450.141	36066.95
450.347	37066.36
450.553	35702.41
450.76	36206.21
450.966	37658.22
451.172	37305.97
451.378	38305.38
451.584	37013.11
451.791	38055.53
451.997	38090.34
452.203	38594.14
452.409	38573.66
452.615	38393.44
452.821	36982.39
453.027	36587.13
453.233	38678.11
453.44	36836.98
453.646	37267.06
453.852	37580.4
454.058	38266.47
454.264	36990.58
454.47	37584.49
454.676	36853.37
454.882	38344.29
455.088	34897.56
455.294	35208.85
455.5	35614.35
455.705	35880.58
455.911	34582.17
456.117	34139.81
456.323	33275.57
456.529	32022.21
456.735	33103.54
456.941	32251.58
457.147	31633.1
457.352	30559.96
457.558	30254.81
457.764	30314.2
457.97	29900.51
458.176	29312.75
458.381	29142.77
458.587	27647.75
458.793	27913.98
458.999	26019.61
459.204	28016.38
459.41	27328.27
459.616	25446.18
459.821	25245.48
460.027	25081.64
460.233	24616.76
460.438	23445.32
460.644	23889.73
460.85	22660.94
461.055	22191.96
461.261	22126.43
461.466	20678.51
461.672	19912.57
461.878	21032.81
462.083	20115.32
462.289	19324.8
462.494	19322.76
462.7	18732.94
462.905	17862.55
463.111	18542.48
463.316	18763.66
463.522	18147.22
463.727	18380.69
463.932	18218.9
464.138	17964.95
464.343	18112.41
464.549	17649.57
464.754	18147.22
464.959	17934.23
465.165	17944.47
465.37	16900.01
465.575	16629.68
465.781	17334.18
465.986	17285.03
466.191	16922.54
466.397	16230.32
466.602	15337.41
466.807	16193.46
467.012	16070.58
467.218	16099.25
467.423	15806.39
467.628	15878.07
467.833	16480.18
468.038	15947.7
468.244	15400.9
468.449	16250.8
468.654	15425.47
468.859	15427.52
469.064	15132.61
469.269	14813.13
469.474	14698.44
469.679	15001.54
469.885	14634.96
470.09	14868.42
470.295	14626.76
470.5	14428.11
470.705	14501.84
470.91	14047.19
471.115	13922.26
471.32	14354.38
471.525	14088.15
471.73	13819.86
471.935	13805.53
472.139	13225.95
472.344	13271.01
472.549	12845.03
472.754	13144.03
472.959	12554.22
473.164	12519.4
473.369	12550.12
473.574	12926.95
473.778	12744.68
473.983	12666.86
474.188	12605.42
474.393	12079.09
474.598	12003.32
474.802	11798.52
475.007	11589.63
475.212	11905.01
475.417	11247.62
475.621	11337.73
475.826	11350.01
476.031	11339.77
476.235	11102.21
476.44	10932.23
476.645	10915.84
476.849	10792.97
477.054	10792.97
477.259	10584.07
477.463	10453
477.668	10176.53
477.872	10487.82
478.077	10012.69
478.282	9633.82
478.486	9887.76
478.691	10018.83
478.895	9754.65
479.1	9717.78
479.304	9822.23
479.509	9474.07
479.713	9560.09
479.918	9336.86
480.122	9056.29
480.326	9431.07
480.531	9336.86
480.735	9238.56
480.94	9039.9
481.144	9574.42
481.348	8876.07
481.553	9173.02
481.757	8806.44
481.961	9058.34
482.166	9277.47
482.37	9080.86
482.574	8861.73
482.778	8894.5
482.983	9076.77
483.187	8833.06
483.391	9009.19
483.595	8886.31
483.8	8794.15
484.004	8964.13
484.208	8953.89
484.412	8908.83
484.616	8763.43
484.821	9170.97
485.025	8777.76
485.229	8810.53
485.433	8710.18
485.637	9044
485.841	8755.24
486.045	8757.29
486.249	8763.43
486.453	8546.34
486.657	8921.12
486.861	8874.02
487.065	8689.7
487.269	8658.98
487.473	8622.12
487.677	9037.86
487.881	8982.56
488.085	8552.49
488.289	8894.5
488.493	8726.57
488.697	8788
488.901	8757.29
489.105	8714.28
489.309	8714.28
489.512	8933.41
489.716	8912.93
489.92	8962.08
490.124	8736.81
490.328	8933.41
490.531	9000.99
490.735	8912.93
490.939	9261.09
491.143	8820.77
491.346	9140.26
491.55	8978.47
491.754	9127.97
491.958	9173.02
492.161	9064.48
492.365	9166.88
492.569	9013.28
492.772	9226.27
492.976	9244.7
493.18	9170.97
493.383	9457.69
493.587	9537.56
493.79	9576.47
493.994	9324.57
494.197	9680.92
494.401	9646.1
494.605	9357.34
494.808	9760.79
495.012	9785.37
495.215	9699.35
495.419	9996.31
495.622	9703.45
495.825	9996.31
496.029	10131.47
496.232	10342.41
496.436	9918.48
496.639	10227.73
496.843	10321.93
497.046	10588.17
497.249	10717.19
497.453	10758.15
497.656	10579.98
497.859	10692.62
498.063	10811.4
498.266	11018.24
498.469	11098.11
498.673	11294.72
498.876	11374.59
499.079	11499.52
499.282	11333.63
499.485	11950.07
499.689	11888.63
499.892	11999.22
500.095	11939.83
500.298	12079.09
500.501	12113.91
500.705	12390.38
500.908	12556.27
501.111	12611.56
501.314	12763.11
501.517	12908.52
501.72	13008.87
501.923	12955.62
502.126	13248.48
502.329	13582.3
502.532	13481.95
502.735	13522.91
502.938	13934.55
503.141	14002.13
503.344	14190.55
503.547	14159.83
503.75	14383.06
503.953	14565.32
504.156	14594
504.359	14725.07
504.562	14847.94
504.765	14993.35
504.968	15333.31
505.17	15284.16
505.373	15292.35
505.576	15673.28
505.779	15638.46
505.982	15957.94
506.185	16263.09
506.387	16297.91
506.59	15978.42
506.793	16623.53
506.996	16396.21
507.198	16932.78
507.401	16881.58
507.604	17246.12
507.807	17309.6
508.009	17303.46
508.212	17577.89
508.415	17956.76
508.617	18016.15
508.82	18087.83
509.022	18098.07
509.225	18517.9
509.428	18354.07
509.63	18771.85
509.833	18900.87
510.035	19498.88
510.238	19179.4
510.44	19380.1
510.643	19670.91
510.845	19828.6
511.048	19462.02
511.25	20010.87
511.453	20029.31
511.655	20615.02
511.858	20412.28
512.06	20834.16
512.262	20731.76
512.465	20987.75
512.667	20903.79
512.87	21446.5
513.072	21466.98
513.274	21751.65
513.477	21686.11
513.679	21837.66
513.881	22277.97
514.084	22576.98
514.286	22409.04
514.488	22697.81
514.69	23138.12
514.893	23134.03
515.095	23250.76
515.297	23138.12
515.499	23392.07
515.701	23981.88
515.904	23953.21
516.106	23963.45
516.308	24325.94
516.51	24444.73
516.712	24606.52
516.914	24606.52
517.116	25214.76
517.318	25110.32
517.52	25349.93
517.722	25284.39
517.925	25442.09
518.127	25913.12
518.329	25544.48
518.531	25702.18
518.733	26201.88
518.935	26253.08
519.136	26371.86
519.338	27189
519.54	26844.95
519.742	27014.93
519.944	27129.61
520.146	27430.66
520.348	27352.84
520.55	27862.79
520.752	27543.3
520.954	28288.76
521.155	27928.32
521.357	28475.13
521.559	28393.21
521.761	28659.45
521.963	28264.19
522.164	28761.84
522.366	28708.6
522.568	29005.55
522.77	29161.2
522.971	29392.62
523.173	29314.8
523.375	29476.58
523.576	29064.94
523.778	29796.07
523.98	29736.68
524.181	30269.15
524.383	29937.38
524.584	30443.23
524.786	30414.55
524.988	30224.09
525.189	30537.43
525.391	30736.09
525.592	30418.65
525.794	30629.59
525.995	30834.39
526.197	30904.02
526.398	30775
526.6	31237.84
526.801	30961.36
527.003	31039.19
527.204	31262.41
527.406	31278.8
527.607	31272.65
527.808	31354.57
528.01	31030.99
528.211	31403.72
528.412	31925.96
528.614	31684.3
528.815	31422.16
529.016	31907.52
529.218	31698.63
529.419	31731.4
529.62	31522.51
529.822	31708.87
530.023	31612.62
530.224	31583.94
530.425	31522.51
530.626	31579.85
530.828	31446.73
531.029	32067.27
531.23	31958.72
531.431	31760.07
531.632	32046.79
531.833	31977.15
532.035	31801.03
532.236	31829.7
532.437	32212.67
532.638	31682.25
532.839	31913.67
533.04	31989.44
533.241	31555.27
533.442	32335.55
533.643	31999.68
533.844	31839.94
534.045	32126.66
534.246	31432.4
534.447	31862.47
534.648	31528.65
534.849	32036.55
535.05	31573.7
535.251	32032.45
535.451	31350.48
535.652	31723.21
535.853	31676.1
536.054	31717.06
536.255	31633.1
536.456	31387.34
536.657	31721.16
536.857	31702.73
537.058	31137.49
537.259	31770.31
537.46	31393.48
537.66	31373
537.861	31456.97
538.062	31530.7
538.263	31702.73
538.463	31436.49
538.664	31471.31
538.865	31610.57
539.065	31524.55
539.266	31338.19
539.466	31592.14
539.667	30654.17
539.868	31606.47
540.068	31297.23
540.269	31039.19
540.469	31379.15
540.67	31164.11
540.87	31379.15
541.071	30918.35
541.271	31383.24
541.472	31061.71
541.672	31084.24
541.873	30961.36
542.073	30609.11
542.274	31286.99
542.474	31010.51
542.675	30957.27
542.875	31325.9
543.075	30809.81
543.276	30275.29
543.476	31157.97
543.676	31080.14
543.877	30922.45
544.077	30877.4
544.277	31041.23
544.478	30531.29
544.678	31041.23
544.878	30944.98
545.078	30613.21
545.279	30600.92
545.479	30183.13
545.679	30826.2
545.879	30701.27
546.079	30656.21
546.28	30428.89
546.48	30398.17
546.68	30510.81
546.88	30664.41
547.08	30572.25
547.28	30672.6
547.48	30342.88
547.68	30508.76
547.88	30598.87
548.081	30715.61
548.281	30451.42
548.481	30007.01
548.681	30564.06
548.881	30459.61
549.081	30246.62
549.28	30052.06
549.48	30586.58
549.68	30123.74
549.88	30615.26
550.08	30136.03
550.28	30203.61
550.48	30387.93
550.68	30455.51
550.88	30273.24
551.08	30185.18
551.279	30516.95
551.479	29875.94
551.679	30574.3
551.879	29937.38
552.079	30236.38
552.278	30119.65
552.478	30412.51
552.678	30285.53
552.878	29957.86
553.077	30011.1
553.277	29687.53
553.477	30123.74
553.676	30056.16
553.876	30056.16
554.076	29970.15
554.275	29720.29
554.475	29365.99
554.674	29871.84
554.874	29562.6
555.074	29611.75
555.273	29877.99
555.473	29869.79
555.672	29390.57
555.872	29619.94
556.071	29826.79
556.271	30080.74
556.47	29898.47
556.67	29542.12
556.869	29413.1
557.068	29533.93
557.268	29339.37
557.467	29249.26
557.667	29253.36
557.866	29665
558.065	29781.73
558.265	29445.87
558.464	29347.56
558.663	29710.05
558.863	28923.63
559.062	29714.15
559.261	29066.99
559.461	29275.88
559.66	29193.97
559.859	29275.88
560.058	29374.19
560.258	29255.4
560.457	29064.94
560.656	29138.67
560.855	29144.81
561.054	29110
561.253	28931.83
561.453	29161.2
561.652	29261.55
561.851	29058.8
562.05	28962.54
562.249	28700.4
562.448	29243.12
562.647	28790.52
562.846	28954.35
563.045	29118.19
563.244	28577.53
563.443	29032.18
563.642	28225.28
563.841	28925.68
564.04	28497.66
564.239	28856.05
564.438	28466.94
564.637	28651.25
564.836	28559.09
565.035	28270.33
565.234	28628.73
565.432	28305.15
565.631	28526.33
565.83	28655.35
566.029	28299
566.228	28417.79
566.427	28149.5
566.625	28040.96
566.824	27819.78
567.023	28450.55
567.222	27995.9
567.42	28436.22
567.619	28079.87
567.818	27856.64
568.016	28518.14
568.215	27932.42
568.414	28083.97
568.612	28217.08
568.811	28184.32
569.01	28104.45
569.208	27975.42
569.407	27916.03
569.605	28212.99
569.804	28083.97
570.002	27547.4
570.201	27965.18
570.4	27864.83
570.598	27590.41
570.797	27373.32
570.995	27686.66
571.193	27221.77
571.392	27584.26
571.59	27471.62
571.789	27416.33
571.987	27275.02
572.186	27563.78
572.384	27166.48
572.582	27477.77
572.781	27504.39
572.979	26681.11
573.177	27320.07
573.376	27150.09
573.574	27135.76
573.772	27631.37
573.971	27150.09
574.169	26830.61
574.367	27070.22
574.565	27019.02
574.763	26941.2
574.962	26652.44
575.16	26849.04
575.358	26732.31
575.556	26693.4
575.754	27078.41
575.952	26748.69
576.151	26488.6
576.349	26369.82
576.547	26760.98
576.745	26552.09
576.943	26881.81
577.141	26720.02
577.339	26500.89
577.537	26722.07
577.735	26160.92
577.933	26042.14
578.131	26218.27
578.329	26267.42
578.527	26294.04
578.725	26191.64
578.923	26122.01
579.121	25810.72
579.319	26068.76
579.516	26031.9
579.714	26169.12
579.912	26011.42
580.11	25671.46
580.308	25825.06
580.506	25624.36
580.704	25390.89
580.901	25868.06
581.099	25866.02
581.297	25904.93
581.495	25573.16
581.692	25644.84
581.89	25317.16
582.088	25698.08
582.285	25270.06
582.483	25632.55
582.681	25171.75
582.878	24944.43
583.076	24698.67
583.274	25374.5
583.471	24737.59
583.669	25294.63
583.866	24590.13
584.064	25349.93
584.262	24962.86
584.459	24911.66
584.657	25003.82
584.854	24743.73
585.052	24631.09
585.249	24692.53
585.447	24919.85
585.644	24487.73
585.841	24643.38
586.039	24706.87
586.236	24205.11
586.434	24618.8
586.631	24375.09
586.828	24545.08
587.026	24309.56
587.223	24117.05
587.42	24133.43
587.618	24407.86
587.815	24241.98
588.012	24020.8
588.21	23930.69
588.407	24026.94
588.604	23502.66
588.801	24010.56
588.999	23953.21
589.196	24196.92
589.393	24020.8
589.59	23467.84
589.787	23777.09
589.984	23633.73
590.182	23263.05
590.379	23719.74
590.576	23488.32
590.773	23531.33
590.97	23484.23
591.167	23455.56
591.364	23215.94
591.561	23347.01
591.758	23148.36
591.955	23203.66
592.152	23351.11
592.349	22978.38
592.546	23138.12
592.743	23174.99
592.94	22935.37
593.137	22781.78
593.334	23025.48
593.531	22667.09
593.727	23115.59
593.924	22902.61
594.121	22650.71
594.318	22900.56
594.515	22273.88
594.712	22937.42
594.908	22390.61
595.105	22544.21
595.302	22595.41
595.499	22499.16
595.696	22396.76
595.892	21958.49
596.089	22251.35
596.286	22691.66
596.482	22269.78
596.679	22390.61
596.876	22048.6
597.072	22210.39
597.269	22069.08
597.466	22046.55
597.662	21886.81
597.859	21954.4
598.055	22234.97
598.252	22099.8
598.448	21675.87
598.645	22136.66
598.841	21907.29
599.038	21817.18
599.234	22005.59
599.431	21505.89
599.627	21462.88
599.824	21772.13
600.02	21606.24
600.217	21860.19
600.413	21708.64
600.609	21628.77
600.806	21671.78
601.002	21593.95
601.198	21444.45
601.395	21391.2
601.591	21630.82
601.787	21358.44
601.984	21186.41
602.18	21507.94
602.376	21157.74
602.572	21043.05
602.769	21319.53
602.965	21079.91
603.161	20897.64
603.357	20895.6
603.553	21104.49
603.75	20948.84
603.946	20672.37
604.142	21014.38
604.338	20811.63
604.534	21176.17
604.73	20709.23
604.926	20635.5
605.122	20934.51
605.318	20756.33
605.514	20514.67
605.71	20500.34
605.906	20789.1
606.102	20498.29
606.298	20916.08
606.494	20698.99
606.69	21208.94
606.886	20666.22
607.082	20189.05
607.278	20713.33
607.474	20174.71
607.67	20754.29
607.866	20141.94
608.062	20668.27
608.257	20492.15
608.453	20473.71
608.649	20457.33
608.845	20469.62
609.041	20289.4
609.236	20451.19
609.432	20365.17
609.628	20836.2
609.824	20131.7
610.019	20438.9
610.215	20391.8
610.411	20545.39
610.606	20432.75
610.802	20483.95
610.998	20426.61
611.193	20481.91
611.389	19922.81
611.584	20199.29
611.78	20107.13
611.976	20004.73
612.171	20475.76
612.367	20373.36
612.562	20371.32
612.758	20006.78
612.953	20084.6
613.149	20217.72
613.344	20080.5
613.539	20629.36
613.735	20365.17
613.93	20508.53
614.126	20369.27
614.321	20256.63
614.517	20338.55
614.712	20178.81
614.907	19955.58
615.103	20025.21
615.298	20115.32
615.493	20174.71
615.688	20197.24
615.884	20389.75
616.079	19840.89
616.274	20367.22
616.47	19984.25
616.665	20254.58
616.86	19947.39
617.055	19816.32
617.25	19914.62
617.445	20170.61
617.641	19672.96
617.836	20146.04
618.031	19713.92
618.226	20055.93
618.421	20160.38
618.616	20332.4
618.811	19791.74
619.006	19898.24
619.201	19548.03
619.396	19949.43
619.591	19494.79
619.786	19351.43
619.981	19361.67
620.176	19543.94
620.371	19160.97
620.566	19244.93
620.761	19242.89
620.956	19488.64
621.151	18907.02
621.346	19482.5
621.541	19044.23
621.735	18964.36
621.93	18864.01
622.125	19117.96
622.32	18788.24
622.515	19044.23
622.709	18749.32
622.904	18929.55
623.099	18542.48
623.294	18866.06
623.488	18386.83
623.683	18368.4
623.878	18067.35
624.072	18249.62
624.267	18349.97
624.462	18018.2
624.656	17915.8
624.851	18059.16
625.046	17733.53
625.24	17878.94
625.435	17719.2
625.629	17784.73
625.824	17553.31
626.018	17852.31
626.213	17334.18
626.407	17559.45
626.602	17371.04
626.796	17567.65
626.991	17301.41
627.185	17018.79
627.38	16994.22
627.574	17053.61
627.768	16959.4
627.963	16854.95
628.157	16576.43
628.352	16945.06
628.546	16605.1
628.74	16707.5
628.935	16377.78
629.129	16711.6
629.323	16392.11
629.517	16402.35
629.712	16246.71
629.906	16209.84
630.1	15912.89
630.294	16134.07
630.489	15630.27
630.683	15828.92
630.877	15781.82
631.071	15620.03
631.265	15945.66
631.459	15673.28
631.653	15448
631.848	15556.54
632.042	15206.34
632.236	15398.85
632.43	15157.19
632.624	15220.67
632.818	15118.28
633.012	14931.91
633.206	15054.79
633.4	15036.36
633.594	14985.16
633.788	14901.19
633.982	14868.42
634.176	15009.73
634.369	14501.84
634.563	14591.95
634.757	14397.39
634.951	14663.63
635.145	14561.23
635.339	14469.07
635.533	14419.92
635.726	14430.16
635.92	14143.44
636.114	14221.27
636.308	13811.67
636.501	13948.89
636.695	14016.47
636.889	13860.82
637.083	13838.3
637.276	13979.61
637.47	13989.85
637.664	13854.68
637.857	13873.11
638.051	13299.68
638.244	13592.54
638.438	13395.93
638.632	13078.5
638.825	13115.36
639.019	13205.47
639.212	13010.92
639.406	13107.17
639.599	12861.41
639.793	12900.33
639.986	12728.3
640.18	12689.39
640.373	12883.94
640.567	12713.96
640.76	12765.16
640.954	12445.68
641.147	12374
641.34	12140.53
641.534	12134.39
641.727	12304.37
641.92	12316.65
642.114	11935.73
642.307	12210.16
642.5	12120.05
642.694	11800.57
642.887	11931.64
643.08	12042.23
643.273	11788.28
643.467	11741.18
643.66	11472.89
643.853	11554.81
644.046	11311.1
644.239	11417.6
644.432	11395.07
644.626	11261.95
644.819	11304.96
645.012	11024.39
645.205	11220.99
645.398	11110.4
645.591	11032.58
645.784	11051.01
645.977	10817.54
646.17	10862.6
646.363	10823.69
646.556	10749.96
646.749	10694.66
646.942	10692.62
647.135	10686.47
647.328	10688.52
647.521	10616.84
647.714	10504.2
647.907	10483.72
648.099	10252.3
648.292	10444.81
648.485	10274.83
648.678	10186.77
648.871	9900.05
649.064	9994.26
649.256	10158.1
649.449	9678.87
649.642	9963.54
649.835	9685.01
650.027	9822.23
650.22	9814.04
650.413	9834.52
650.605	9533.47
650.798	9459.74
650.991	9295.9
651.183	9447.45
651.376	9222.17
651.568	9195.55
651.761	9218.08
651.954	9250.85
652.146	9070.62
652.339	9007.14
652.531	8982.56
652.724	9025.57
652.916	8929.31
653.109	8837.16
653.301	8708.13
653.494	8790.05
653.686	8699.94
653.879	8693.8
654.071	8642.6
654.263	8577.06
654.456	8585.26
654.648	8587.3
654.84	8540.2
655.033	8390.7
655.225	8542.25
655.417	8146.99
655.61	8343.6
655.802	8370.22
655.994	8245.29
656.186	8136.75
656.379	8208.43
656.571	7841.84
656.763	7993.39
656.955	7897.14
657.148	7901.23
657.34	7761.97
657.532	7729.2
657.724	7774.26
657.916	7665.72
658.108	7702.58
658.3	7735.35
658.492	7518.26
658.684	7399.48
658.876	7436.35
659.068	7495.74
659.26	7258.17
659.452	7305.28
659.644	7389.24
659.836	7141.44
660.028	7323.71
660.22	7049.28
660.412	7114.81
660.604	7123.01
660.796	6975.55
660.988	6811.71
661.18	6860.87
661.372	6957.12
661.563	6828.1
661.755	6625.35
661.947	6656.07
662.139	6875.2
662.331	6705.22
662.522	6535.24
662.714	6697.03
662.906	6559.81
663.097	6680.64
663.289	6416.46
663.481	6459.46
663.673	6426.7
663.864	6432.84
664.056	6185.04
664.247	6305.87
664.439	6070.35
664.631	6293.58
664.822	6056.01
665.014	6096.97
665.205	6039.63
665.397	6092.88
665.588	6058.06
665.78	6101.07
665.971	5890.13
666.163	5990.48
666.354	5898.32
666.546	5736.53
666.737	5687.38
666.929	5824.59
667.12	5824.59
667.311	5533.78
667.503	5681.24
667.694	5804.11
667.885	5695.57
668.077	5630.04
668.268	5615.7
668.459	5433.43
668.651	5410.9
668.842	5548.12
669.033	5384.28
669.224	5441.62
669.416	5550.17
669.607	5474.39
669.798	5548.12
669.989	5443.67
670.18	5214.3
670.371	5285.98
670.563	5113.95
670.754	5277.79
670.945	5079.13
671.136	5210.2
671.327	5013.6
671.518	5077.09
671.709	5146.72
671.9	4966.49
672.091	5138.52
672.282	5038.17
672.473	4890.72
672.664	4968.54
672.855	4980.83
673.046	5072.99
673.237	4935.78
673.428	4946.02
673.619	4835.42
673.809	4685.92
674	4948.06
674.191	4857.95
674.382	4771.94
674.573	4739.17
674.764	4814.95
674.954	4794.47
675.145	4812.9
675.336	4669.54
675.527	4702.31
675.717	4661.35
675.908	4661.35
676.099	4585.57
676.289	4489.32
676.48	4552.81
676.671	4694.12
676.861	4520.04
677.052	4509.8
677.243	4556.9
677.433	4460.65
677.624	4614.24
677.814	4507.75
678.005	4481.13
678.195	4536.42
678.386	4345.96
678.576	4417.64
678.767	4325.48
678.957	4423.78
679.148	4446.31
679.338	4474.98
679.529	4456.55
679.719	4335.72
679.909	4515.94
680.1	4380.78
680.29	4245.61
680.481	4311.14
680.671	4413.54
680.861	4157.55
681.052	4268.14
681.242	4202.6
681.432	4354.15
681.622	4313.19
681.813	4212.84
682.003	4284.52
682.193	4264.04
682.383	4282.47
682.573	4241.51
682.764	4276.33
682.954	4227.18
683.144	4229.23
683.334	4112.49
683.524	4196.46
683.714	4077.68
683.904	4104.3
684.094	4210.79
684.284	4094.06
684.474	4096.11
684.664	4145.26
684.854	4182.12
685.044	4063.34
685.234	4042.86
685.424	4153.45
685.614	3967.09
685.804	4190.31
685.994	4173.93
686.184	4132.97
686.374	4059.24
686.564	3981.42
686.753	4135.02
686.943	3952.75
687.133	3838.06
687.323	3981.42
687.513	3985.52
687.702	3881.07
687.892	3967.09
688.082	3784.82
688.272	3854.45
688.461	3813.49
688.651	3948.65
688.841	3727.47
689.03	3856.5
689.22	3819.63
689.41	3709.04
689.599	3788.91
689.789	3809.39
689.979	3942.51
690.168	3725.43
690.358	3756.15
690.547	3733.62
690.737	3641.46
690.926	3833.97
691.116	3625.08
691.305	3752.05
691.495	3694.71
691.684	3598.45
691.874	3606.64
692.063	3717.23
692.252	3731.57
692.442	3649.65
692.631	3428.47
692.82	3680.37
693.01	3577.97
693.199	3608.69
693.388	3575.92
693.578	3508.34
693.767	3592.31
693.956	3477.62
694.146	3623.03
694.335	3547.25
694.524	3436.66
694.713	3553.4
694.902	3498.1
695.092	3545.2
695.281	3647.6
695.47	3620.98
695.659	3500.15
695.848	3473.53
696.037	3541.11
696.226	3592.31
696.415	3530.87
696.604	3643.51
696.793	3586.16
696.982	3485.81
697.171	3520.63
697.36	3426.42
697.549	3512.44
697.738	3575.92
697.927	3407.99
698.116	3534.96
698.305	3526.77
698.494	3481.72
698.683	3491.96
698.872	3604.6
699.061	3496.05
699.25	3520.63
699.438	3623.03
699.627	3518.58
699.816	3602.55
700.005	3504.25
700.193	3559.54
700.382	3571.83
700.571	3612.79
700.76	3328.12
700.948	3534.96
701.137	3477.62
701.326	3506.29
701.514	3463.29
701.703	3430.52
701.892	3545.2
702.08	3526.77
702.269	3508.34
702.457	3498.1
702.646	3547.25
702.834	3428.47
703.023	3440.76
703.212	3551.35
703.4	3407.99
703.589	3414.13
703.777	3373.18
703.965	3330.17
704.154	3506.29
704.342	3424.37
704.531	3569.78
704.719	3448.95
704.907	3557.49
705.096	3481.72
705.284	3428.47
705.472	3504.25
705.661	3510.39
705.849	3453.05
706.037	3645.56
706.226	3506.29
706.414	3545.2
706.602	3428.47
706.79	3530.87
706.979	3342.46
707.167	3465.33
707.355	3537.01
707.543	3502.2
707.731	3469.43
707.919	3412.09
708.107	3307.64
708.296	3473.53
708.484	3428.47
708.672	3465.33
708.86	3412.09
709.048	3405.94
709.236	3350.65
709.424	3446.9
709.612	3475.57
709.8	3477.62
709.988	3281.02
710.176	3526.77
710.364	3518.58
710.551	3451
710.739	3522.68
710.927	3438.71
711.115	3397.75
711.303	3299.45
711.491	3381.37
711.679	3491.96
711.866	3502.2
712.054	3436.66
712.242	3537.01
712.43	3516.53
712.617	3414.13
712.805	3385.46
712.993	3276.92
713.181	3215.48
713.368	3477.62
713.556	3463.29
713.744	3364.98
713.931	3555.44
714.119	3371.13
714.306	3391.61
714.494	3387.51
714.682	3334.26
714.869	3233.91
715.057	3334.26
715.244	3268.73
715.432	3338.36
715.619	3326.07
715.807	3328.12
715.994	3272.82
716.182	3276.92
716.369	3225.72
716.556	3319.93
716.744	3328.12
716.931	3229.82
717.119	3285.11
717.306	3307.64
717.493	3281.02
717.681	3225.72
717.868	3205.24
718.055	3256.44
718.242	3197.05
718.43	3291.26
718.617	3266.68
718.804	3242.11
718.991	3377.27
719.179	3268.73
719.366	3301.5
719.553	3260.54
719.74	3166.33
719.927	3192.95
720.114	3184.76
720.301	3121.28
720.488	3102.84
720.676	3035.26
720.863	3205.24
721.05	3354.74
721.237	3211.39
721.424	3266.68
721.611	3205.24
721.798	3057.79
721.985	3094.65
722.172	3195
722.358	3119.23
722.545	3197.05
722.732	3229.82
722.919	3299.45
723.106	3143.8
723.293	2986.11
723.48	3256.44
723.667	3061.88
723.853	3264.63
724.04	3139.71
724.227	3094.65
724.414	3070.08
724.6	2994.3
724.787	3104.89
724.974	3154.04
725.161	3051.64
725.347	3111.04
725.534	3008.64
725.72	3080.32
725.907	3090.56
726.094	3020.92
726.28	3098.75
726.467	3022.97
726.653	3080.32
726.84	3133.56
727.027	3100.8
727.213	3000.44
727.4	3104.89
727.586	3068.03
727.773	2973.82
727.959	2910.33
728.145	2992.25
728.332	2934.91
728.518	2951.29
728.705	3084.41
728.891	3037.31
729.077	2973.82
729.264	2984.06
729.45	3016.83
729.636	3037.31
729.823	2867.33
730.009	3014.78
730.195	2953.34
730.382	2924.67
730.568	2844.8
730.754	2951.29
730.94	2961.53
731.126	3016.83
731.313	2789.5
731.499	2920.57
731.685	2914.43
731.871	2846.85
732.057	2916.48
732.243	2910.33
732.429	2867.33
732.615	2943.1
732.801	2955.39
732.987	2875.52
733.173	2891.9
733.359	2863.23
733.545	2832.51
733.731	2799.74
733.917	2850.94
734.103	2793.6
734.289	2795.65
734.475	2709.63
734.661	2979.97
734.847	2728.07
735.033	2842.75
735.219	2816.13
735.404	2728.07
735.59	2734.21
735.776	2721.92
735.962	2668.67
736.148	2705.54
736.333	2830.46
736.519	2683.01
736.705	2730.11
736.89	2652.29
737.076	2740.35
737.262	2572.42
737.447	2660.48
737.633	2588.8
737.819	2723.97
738.004	2535.56
738.19	2715.78
738.375	2599.04
738.561	2691.2
738.747	2615.43
738.932	2490.5
739.118	2656.39
739.303	2631.81
739.489	2566.28
739.674	2535.56
739.859	2539.65
740.045	2525.32
740.23	2465.93
740.416	2498.69
740.601	2476.16
740.786	2449.54
740.972	2377.86
741.157	2316.42
741.342	2476.16
741.528	2459.78
741.713	2498.69
741.898	2476.16
742.084	2400.39
742.269	2416.77
742.454	2437.25
742.639	2513.03
742.824	2345.09
743.01	2312.33
743.195	2422.92
743.38	2455.69
743.565	2367.62
743.75	2424.97
743.935	2318.47
744.12	2418.82
744.305	2259.08
744.49	2312.33
744.675	2371.72
744.86	2214.02
745.045	2224.26
745.23	2277.51
745.415	2181.26
745.6	2252.94
745.785	2214.02
745.97	2312.33
746.155	2050.19
746.34	2289.8
746.525	2156.68
746.71	2230.41
746.895	2148.49
747.079	2195.59
747.264	2113.67
747.449	2138.25
747.634	2066.57
747.819	2044.04
748.003	2019.47
748.188	2123.91
748.373	2138.25
748.557	1988.75
748.742	2046.09
748.927	1996.94
749.111	1919.12
749.296	1996.94
749.481	2052.24
749.665	1794.19
749.85	1915.02
750.034	1962.12
750.219	1898.64
750.404	1763.47
750.588	1880.21
750.773	1804.43
750.957	1906.83
751.141	1808.53
751.326	1863.82
751.51	1835.15
751.695	1843.34
751.879	1749.14
752.064	1835.15
752.248	1794.19
752.432	1837.2
752.617	1693.84
752.801	1738.9
752.985	1714.32
753.17	1855.63
753.354	1745.04
753.538	1734.8
753.722	1636.5
753.907	1759.38
754.091	1591.44
754.275	1681.55
754.459	1638.55
754.643	1564.82
754.828	1656.98
755.012	1575.06
755.196	1575.06
755.38	1570.96
755.564	1480.85
755.748	1499.28
755.932	1636.5
756.116	1593.49
756.3	1484.95
756.484	1403.03
756.668	1632.4
756.852	1409.17
757.036	1532.05
757.22	1480.85
757.404	1411.22
757.588	1403.03
757.772	1446.04
757.956	1390.74
758.14	1478.8
758.323	1288.34
758.507	1429.65
758.691	1327.25
758.875	1423.51
759.059	1366.17
759.242	1374.36
759.426	1312.92
759.61	1341.59
759.794	1366.17
759.977	1403.03
760.161	1493.14
760.345	1472.66
760.528	1429.65
760.712	1353.88
760.895	1360.02
761.079	1267.86
761.263	1257.62
761.446	1198.23
761.63	1306.77
761.813	1274.01
761.997	1202.33
762.18	1327.25
762.364	1220.76
762.547	1216.66
762.731	1187.99
762.914	1181.85
763.098	1151.13
763.281	1251.48
763.464	1237.14
763.648	1216.66
763.831	1106.07
764.015	1194.14
764.198	1206.42
764.381	1190.04
764.564	1161.37
764.748	1140.89
764.931	1144.99
765.114	1198.23
765.297	1312.92
765.481	1079.45
765.664	1159.32
765.847	1192.09
766.03	1179.8
766.213	1167.51
766.397	1132.7
766.58	1089.69
766.763	1251.48
766.946	1159.32
767.129	1050.78
767.312	1044.63
767.495	1171.61
767.678	1061.02
767.861	1183.9
768.044	1036.44
768.227	1050.78
768.41	1009.82
768.593	1110.17
768.776	1128.6
768.959	1083.55
769.142	1118.36
769.324	1011.87
769.507	1099.93
769.69	1009.82
769.873	1034.39
770.056	1079.45
770.239	1005.72
770.421	1081.5
770.604	1003.68
770.787	1042.59
770.97	1030.3
771.152	927.9
771.335	968.86
771.518	950.43
771.7	1030.3
771.883	1044.63
772.066	1005.72
772.248	987.29
772.431	1026.2
772.613	991.39
772.796	911.52
772.978	934.04
773.161	934.04
773.343	876.7
773.526	913.56
773.708	940.19
773.891	850.08
774.073	895.13
774.256	866.46
774.438	968.86
774.621	843.93
774.803	927.9
774.985	843.93
775.168	911.52
775.35	899.23
775.532	897.18
775.715	825.5
775.897	983.2
776.079	831.65
776.261	899.23
776.444	895.13
776.626	858.27
776.808	882.85
776.99	882.85
777.173	874.65
777.355	819.36
777.537	839.84
777.719	735.39
777.901	802.97
778.083	796.83
778.265	723.1
778.447	776.35
778.629	778.4
778.811	841.89
778.993	837.79
779.175	852.13
779.357	710.82
779.539	770.21
779.721	682.14
779.903	774.3
780.085	747.68
780.267	827.55
780.449	716.96
780.631	764.06
780.812	757.92
780.994	663.71
781.176	714.91
781.358	704.67
781.54	706.72
781.721	680.1
781.903	723.1
782.085	614.56
782.267	708.77
782.448	678.05
782.63	618.66
782.812	762.02
782.993	649.38
783.175	637.09
783.357	579.75
783.538	653.47
783.72	622.75
783.901	632.99
784.083	700.58
784.264	647.33
784.446	536.74
784.627	510.11
784.809	608.42
784.99	585.89
785.172	557.22
785.353	614.56
785.535	520.35
785.716	526.5
785.897	485.54
786.079	581.79
786.26	557.22
786.441	497.83
786.623	458.92
786.804	596.13
786.985	520.35
787.167	538.79
787.348	506.02
787.529	583.84
787.71	626.85
787.891	518.31
788.073	430.24
788.254	417.96
788.435	549.03
788.616	549.03
788.797	436.39
788.978	460.96
789.159	458.92
789.34	469.16
789.522	477.35
789.703	477.35
789.884	432.29
790.065	497.83
790.246	499.88
790.427	526.5
790.607	585.89
790.788	510.11
790.969	489.64
791.15	438.44
791.331	432.29
791.512	442.53
791.693	444.58
791.874	436.39
792.054	436.39
792.235	503.97
792.416	393.38
792.597	399.52
792.778	444.58
792.958	391.33
793.139	422.05
793.32	487.59
793.5	288.93
793.681	479.4
793.862	493.73
794.042	399.52
794.223	413.86
794.404	368.81
794.584	360.61
794.765	323.75
794.945	331.94
795.126	411.81
795.306	428.2
795.487	319.65
795.667	393.38
795.848	397.48
796.028	368.81
796.209	387.24
796.389	413.86
796.57	329.89
796.75	346.28
796.93	278.69
797.111	262.31
797.291	348.33
797.471	329.89
797.652	317.61
797.832	313.51
798.012	411.81
798.192	219.3
798.373	307.37
798.553	284.84
798.733	338.09
798.913	305.32
799.093	245.93
799.274	336.04
799.454	303.27
799.634	336.04
799.814	436.39
799.994	350.37
800.174	313.51
800.354	231.59
800.534	305.32
800.714	307.37
800.894	262.31
801.074	272.55
801.254	227.5
801.434	338.09
801.614	254.12
801.794	272.55
801.974	1101.98
802.154	264.36
802.334	278.69
802.514	219.3
802.693	209.06
802.873	207.02
803.053	315.56
803.233	344.23
803.413	243.88
803.592	237.74
803.772	186.54
803.952	262.31
804.131	270.5
804.311	317.61
804.491	301.22
804.67	219.3
804.85	161.96
805.03	258.21
805.209	270.5
805.389	137.38
805.568	274.6
805.748	270.5
805.928	176.3
806.107	215.21
806.287	268.45
806.466	207.02
806.646	311.46
806.825	243.88
807.004	237.74
807.184	207.02
807.363	200.87
807.543	176.3
807.722	170.15
807.901	237.74
808.081	338.09
808.26	176.3
808.439	266.41
808.619	245.93
808.798	196.78
808.977	182.44
809.156	293.03
809.336	219.3
809.515	301.22
809.694	200.87
809.873	182.44
810.052	182.44
810.231	182.44
810.411	176.3
810.59	344.23
810.769	196.78
810.948	274.6
811.127	143.53
811.306	182.44
811.485	180.39
811.664	280.74
811.843	260.26
812.022	168.1
812.201	151.72
812.38	262.31
812.559	116.9
812.737	215.21
812.916	170.15
813.095	174.25
813.274	192.68
813.453	178.34
813.632	247.97
813.811	184.49
813.989	82.09
814.168	207.02
814.347	104.62
814.526	186.54
814.704	202.92
814.883	198.82
815.062	67.75
815.24	239.78
815.419	88.23
815.598	198.82
815.776	145.58
815.955	131.24
816.133	151.72
816.312	188.58
816.49	108.71
816.669	256.17
816.847	139.43
817.026	106.67
817.204	147.62
817.383	147.62
817.561	133.29
817.74	114.86
817.918	143.53
818.097	55.47
818.275	149.67
818.453	159.91
818.632	121
818.81	141.48
818.988	114.86
819.167	137.38
819.345	137.38
819.523	100.52
819.701	153.77
819.879	131.24
820.058	223.4
820.236	92.33
820.414	174.25
820.592	71.85
820.77	170.15
820.948	135.34
821.127	129.19
821.305	106.67
821.483	69.8
821.661	209.06
821.839	161.96
822.017	133.29
822.195	131.24
822.373	141.48
822.551	65.71
822.729	188.58
822.907	41.13
823.085	133.29
823.262	145.58
823.44	77.99
823.618	106.67
823.796	67.75
823.974	80.04
824.152	118.95
824.329	94.38
824.507	69.8
824.685	49.32
824.863	100.52
825.04	65.71
825.218	98.47
825.396	96.43
825.574	139.43
825.751	82.09
825.929	141.48
826.107	24.75
826.284	98.47
826.462	139.43
826.639	67.75
826.817	6.31
826.994	39.08
827.172	57.51
827.349	225.45
827.527	24.75
827.704	69.8
827.882	118.95
828.059	86.19
828.237	75.95
828.414	192.68
828.591	84.14
828.769	92.33
828.946	16.55
829.124	88.23
829.301	100.52
829.478	100.52
829.655	133.29
829.833	82.09
830.01	10.41
830.187	84.14
830.364	73.9
830.542	125.1
830.719	77.99
830.896	88.23
831.073	118.95
831.25	51.37
831.427	41.13
831.604	137.38
831.782	32.94
831.959	65.71
832.136	106.67
832.313	125.1
832.49	37.03
832.667	67.75
832.844	39.08
833.021	149.67
833.198	100.52
833.374	24.75
833.551	108.71
833.728	59.56
833.905	-8.02
834.082	59.56
834.259	84.14
834.436	161.96
834.612	51.37
834.789	90.28
834.966	77.99
835.143	43.18
835.319	34.99
835.496	45.23
835.673	98.47
835.85	147.62
836.026	65.71
836.203	71.85
836.38	57.51
836.556	104.62
836.733	82.09
836.909	131.24
837.086	71.85
837.262	12.46
837.439	16.55
837.616	59.56
837.792	69.8
837.968	104.62
838.145	2.22
838.321	-8.02
838.498	37.03
838.674	65.71
838.851	75.95
839.027	49.32
839.203	116.9
839.38	59.56
839.556	18.6
839.732	94.38
839.909	12.46
840.085	80.04
840.261	47.27
840.437	-16.21
840.614	28.84
840.79	51.37
840.966	63.66
841.142	51.37
841.318	47.27
841.494	73.9
841.671	39.08
841.847	34.99
842.023	-32.6
842.199	34.99
842.375	155.82
842.551	16.55
842.727	30.89
842.903	90.28
843.079	-38.74
843.255	65.71
843.431	51.37
843.607	86.19
843.783	-46.93
843.959	51.37
844.134	4.27
844.31	59.56
844.486	30.89
844.662	55.47
844.838	20.65
845.013	112.81
845.189	45.23
845.365	0.17
845.541	34.99
845.716	125.1
845.892	61.61
846.068	22.7
846.244	41.13
846.419	41.13
846.595	-28.5
846.77	-3.93
846.946	59.56
847.122	16.55
847.297	32.94
847.473	61.61
847.648	-26.45
847.824	28.84
847.999	-98.13
848.175	59.56
848.35	69.8
848.526	80.04
848.701	69.8
848.876	73.9
849.052	37.03
849.227	47.27
849.403	-12.12
849.578	12.46
849.753	75.95
849.929	34.99
850.104	18.6
850.279	63.66
850.454	-5.97
850.63	-73.56
850.805	18.6
850.98	10.41
851.155	96.43
851.33	45.23
851.505	-67.41
851.681	92.33
851.856	57.51
852.031	104.62
852.206	2.22
852.381	-3.93
852.556	32.94
852.731	14.51
852.906	139.43
853.081	49.32
853.256	41.13
853.431	6.31
853.606	-20.31
853.781	39.08
853.956	-16.21
854.131	92.33
854.305	61.61
854.48	-57.17
854.655	-16.21
854.83	-5.97
855.005	47.27
855.18	114.86
855.354	67.75
855.529	-48.98
855.704	-1.88
855.879	47.27
856.053	20.65
856.228	88.23
856.403	-38.74
856.577	53.42
856.752	4.27
856.926	12.46
857.101	14.51
857.276	-26.45
857.45	-8.02
857.625	71.85
857.799	32.94
857.974	39.08
858.148	-14.17
858.323	92.33
858.497	32.94
858.672	34.99
858.846	-18.26
859.02	16.55
859.195	4.27
859.369	-18.26
859.543	-3.93
859.718	37.03
859.892	73.9
860.066	-5.97
860.241	-71.51
860.415	4.27
860.589	37.03
860.763	39.08
860.938	-10.07
861.112	-14.17
861.286	-67.41
861.46	114.86
861.634	61.61
861.808	67.75
861.982	84.14
862.157	-5.97
862.331	-30.55
862.505	37.03
862.679	-81.75
862.853	8.36
863.027	-53.08
863.201	100.52
863.375	-34.64
863.549	-48.98
863.722	28.84
863.896	49.32
864.07	-14.17
864.244	8.36
864.418	47.27
864.592	41.13
864.766	14.51
864.939	41.13
865.113	-36.69
865.287	12.46
865.461	-75.6
865.634	-10.07
865.808	88.23
865.982	32.94
866.156	12.46
866.329	-22.36
866.503	43.18
866.676	57.51
866.85	39.08
867.024	-8.02
867.197	80.04
867.371	69.8
867.544	-10.07
867.718	-112.47
867.891	45.23
868.065	-48.98
868.238	-57.17
868.412	39.08
868.585	10.41
868.759	-22.36
868.932	-28.5
869.105	-12.12
869.279	-24.4
869.452	16.55
869.625	-14.17
869.799	24.75
869.972	-26.45
870.145	-48.98
870.319	22.7
870.492	-18.26
870.665	-10.07
870.838	-48.98
871.011	-98.13
871.185	24.75
871.358	-69.46
871.531	34.99
871.704	-10.07
871.877	-34.64
872.05	2.22
872.223	26.79
872.396	18.6
872.569	24.75
872.742	-40.79
872.915	41.13
873.088	-30.55
873.261	24.75
873.434	22.7
873.607	-8.02
873.78	24.75
873.953	-18.26
874.126	-75.6
874.299	90.28
874.471	8.36
874.644	32.94
874.817	47.27
874.99	26.79
875.163	-30.55
875.335	24.75
875.508	6.31
875.681	57.51
875.853	-36.69
876.026	43.18
876.199	6.31
876.371	-28.5
876.544	-3.93
876.717	51.37
876.889	-40.79
877.062	0.17
877.234	-87.89
877.407	26.79
877.579	-38.74
877.752	-53.08
877.924	57.51
878.097	37.03
878.269	-8.02
878.442	-40.79
878.614	8.36
878.786	-18.26
878.959	-32.6
879.131	-61.27
879.303	-57.17
879.476	-69.46
879.648	39.08
879.82	-34.64
879.993	-22.36
880.165	-16.21
880.337	-57.17
880.509	-28.5
880.681	-75.6
880.854	-36.69
881.026	41.13
881.198	51.37
881.37	22.7
881.542	-51.03
881.714	-36.69
881.886	-10.07
882.058	-16.21
882.23	0.17
882.402	-30.55
882.574	-22.36
882.746	45.23
882.918	59.56
883.09	63.66
883.262	-14.17
883.434	0.17
883.606	-40.79
883.778	10.41
883.95	43.18
884.122	-3.93
884.293	20.65
884.465	-14.17
884.637	59.56
884.809	-91.99
884.98	55.47
885.152	28.84
885.324	0.17
885.496	-87.89
885.667	-8.02
885.839	8.36
886.011	67.75
886.182	-28.5
886.354	-51.03
886.525	77.99
886.697	75.95
886.869	-5.97
887.04	10.41
887.212	28.84
887.383	8.36
887.555	14.51
887.726	-10.07
887.897	-22.36
888.069	-12.12
888.24	102.57
888.412	-106.32
888.583	-63.32
888.754	-1.88
888.926	-85.84
889.097	16.55
889.268	-46.93
889.44	-79.7
889.611	-122.71
889.782	-94.04
889.953	-42.84
890.125	98.47
890.296	-38.74
890.467	-5.97
890.638	18.6
890.809	-55.12
890.98	-42.84
891.151	22.7
891.323	90.28
891.494	-71.51
891.665	8.36
891.836	-44.88
892.007	-8.02
892.178	82.09
892.349	6.31
892.52	2.22
892.691	-10.07
892.862	16.55
893.032	37.03
893.203	67.75
893.374	47.27
893.545	41.13
893.716	-20.31
893.887	-5.97
894.057	-75.6
894.228	-3.93
894.399	8.36
894.57	45.23
894.74	14.51
894.911	30.89
895.082	0.17
895.253	-44.88
895.423	-57.17
895.594	-3.93
895.764	16.55
895.935	4.27
896.106	6.31
896.276	-71.51
896.447	-36.69
896.617	-1.88
896.788	-24.4
896.958	16.55
897.129	-42.84
897.299	-34.64
897.47	32.94
897.64	55.47
897.81	-32.6
897.981	37.03
898.151	-83.8
898.322	10.41
898.492	43.18
898.662	-28.5
898.832	6.31
899.003	32.94
899.173	4.27
899.343	57.51
899.513	-22.36
