Data from USB4F104151__6__12-11-15-712.txt Node

Date: Fri Mar 14 12:11:15 EDT 2025
User: louis
Spectrometer: USB4F10415
Trigger mode: 4
Integration Time (sec): 5.000000E-2
Scans to average: 1
Electric dark correction enabled: true
Nonlinearity correction enabled: false
Boxcar width: 0
XAxis mode: Wavelengths
Number of Pixels in Spectrum: 3648
>>>>>Begin Spectral Data<<<<<
178.204	-233.81
178.424	-233.81
178.644	-233.81
178.864	-254.29
179.084	-254.29
179.304	-8.53
179.524	-76.12
179.744	-16.73
179.964	69.29
180.184	-29.01
180.404	75.43
180.624	28.33
180.844	7.85
181.064	-72.02
181.283	20.14
181.503	-31.06
181.723	32.43
181.943	-33.11
182.163	38.57
182.383	7.85
182.602	-67.92
182.822	42.67
183.042	24.23
183.262	-59.73
183.482	44.71
183.701	11.95
183.921	18.09
184.141	-43.35
184.361	95.91
184.58	-0.34
184.8	32.43
185.02	-24.92
185.239	71.34
185.459	63.15
185.679	95.91
185.898	-74.07
186.118	40.62
186.338	-20.82
186.557	79.53
186.777	-86.36
186.997	7.85
187.216	5.8
187.436	-2.39
187.655	48.81
187.875	30.38
188.095	-39.25
188.314	32.43
188.534	77.48
188.753	-45.4
188.973	24.23
189.192	130.73
189.412	-2.39
189.631	54.95
189.851	13.99
190.07	79.53
190.29	-88.4
190.509	48.81
190.729	-18.77
190.948	32.43
191.168	198.31
191.387	34.47
191.607	-31.06
191.826	50.86
192.045	-24.92
192.265	54.95
192.484	20.14
192.704	-2.39
192.923	-37.2
193.142	63.15
193.362	59.05
193.581	93.87
193.8	52.91
194.02	-16.73
194.239	-16.73
194.458	71.34
194.678	24.23
194.897	42.67
195.116	1.71
195.335	11.95
195.555	20.14
195.774	-59.73
195.993	106.15
196.212	-31.06
196.432	-22.87
196.651	9.9
196.87	1.71
197.089	42.67
197.308	-18.77
197.528	71.34
197.747	-26.96
197.966	46.76
198.185	32.43
198.404	22.19
198.623	79.53
198.842	-20.82
199.062	50.86
199.281	30.38
199.5	16.04
199.719	24.23
199.938	38.57
200.157	81.58
200.376	130.73
200.595	44.71
200.814	93.87
201.033	36.52
201.252	44.71
201.471	38.57
201.69	77.48
201.909	85.67
202.128	93.87
202.347	46.76
202.566	138.92
202.785	-31.06
203.004	48.81
203.223	104.11
203.442	-35.16
203.661	-12.63
203.879	54.95
204.098	73.39
204.317	3.75
204.536	108.2
204.755	52.91
204.974	63.15
205.193	-6.49
205.411	59.05
205.63	-8.53
205.849	-20.82
206.068	52.91
206.287	-4.44
206.505	61.1
206.724	42.67
206.943	-12.63
207.162	-6.49
207.381	22.19
207.599	-35.16
207.818	9.9
208.037	59.05
208.255	-39.25
208.474	7.85
208.693	36.52
208.911	-22.87
209.13	-8.53
209.349	13.99
209.567	100.01
209.786	114.34
210.005	48.81
210.223	50.86
210.442	-49.49
210.661	32.43
210.879	20.14
211.098	24.23
211.316	-24.92
211.535	-14.68
211.753	-39.25
211.972	67.24
212.191	-55.64
212.409	3.75
212.628	13.99
212.846	-4.44
213.065	7.85
213.283	1.71
213.502	108.2
213.72	5.8
213.938	42.67
214.157	-2.39
214.375	36.52
214.594	13.99
214.812	81.58
215.031	77.48
215.249	20.14
215.467	-6.49
215.686	1.71
215.904	77.48
216.122	-16.73
216.341	110.25
216.559	61.1
216.778	32.43
216.996	59.05
217.214	1.71
217.432	46.76
217.651	-31.06
217.869	71.34
218.087	28.33
218.306	-14.68
218.524	30.38
218.742	5.8
218.96	-31.06
219.179	-4.44
219.397	7.85
219.615	112.3
219.833	28.33
220.051	-6.49
220.27	104.11
220.488	5.8
220.706	-22.87
220.924	-55.64
221.142	-47.44
221.36	-6.49
221.578	5.8
221.796	-51.54
222.015	50.86
222.233	28.33
222.451	89.77
222.669	-63.83
222.887	-6.49
223.105	42.67
223.323	13.99
223.541	-33.11
223.759	40.62
223.977	1.71
224.195	28.33
224.413	24.23
224.631	36.52
224.849	-0.34
225.067	120.49
225.285	-55.64
225.503	-37.2
225.721	-94.55
225.939	30.38
226.157	7.85
226.375	110.25
226.592	-33.11
226.81	16.04
227.028	79.53
227.246	52.91
227.464	42.67
227.682	36.52
227.9	5.8
228.117	102.06
228.335	-41.3
228.553	16.04
228.771	44.71
228.989	30.38
229.206	-4.44
229.424	20.14
229.642	-41.3
229.86	-35.16
230.077	104.11
230.295	-4.44
230.513	75.43
230.731	-0.34
230.948	7.85
231.166	54.95
231.384	-90.45
231.601	1.71
231.819	71.34
232.037	13.99
232.254	-39.25
232.472	18.09
232.689	-37.2
232.907	18.09
233.125	26.28
233.342	7.85
233.56	-10.58
233.777	-37.2
233.995	-4.44
234.213	13.99
234.43	36.52
234.648	9.9
234.865	-18.77
235.083	-16.73
235.3	22.19
235.518	40.62
235.735	63.15
235.953	93.87
236.17	11.95
236.388	24.23
236.605	-61.78
236.822	-6.49
237.04	-0.34
237.257	57
237.475	-51.54
237.692	40.62
237.909	-51.54
238.127	-35.16
238.344	48.81
238.562	-4.44
238.779	-29.01
238.996	-92.5
239.214	-59.73
239.431	69.29
239.648	-35.16
239.865	20.14
240.083	11.95
240.3	52.91
240.517	9.9
240.735	-10.58
240.952	34.47
241.169	-4.44
241.386	-20.82
241.603	-2.39
241.821	26.28
242.038	-51.54
242.255	65.19
242.472	-35.16
242.689	20.14
242.907	38.57
243.124	-2.39
243.341	1.71
243.558	24.23
243.775	46.76
243.992	-61.78
244.209	38.57
244.426	93.87
244.643	54.95
244.86	13.99
245.078	22.19
245.295	116.39
245.512	-8.53
245.729	18.09
245.946	40.62
246.163	75.43
246.38	32.43
246.597	7.85
246.814	13.99
247.031	-16.73
247.248	52.91
247.464	97.96
247.681	42.67
247.898	77.48
248.115	71.34
248.332	-6.49
248.549	75.43
248.766	54.95
248.983	30.38
249.2	132.78
249.417	104.11
249.633	28.33
249.85	-14.68
250.067	22.19
250.284	-14.68
250.501	120.49
250.717	-12.63
250.934	3.75
251.151	34.47
251.368	22.19
251.585	75.43
251.801	13.99
252.018	-35.16
252.235	34.47
252.451	-20.82
252.668	-4.44
252.885	59.05
253.102	-4.44
253.318	42.67
253.535	-61.78
253.752	-69.97
253.968	-24.92
254.185	-12.63
254.401	46.76
254.618	34.47
254.835	-4.44
255.051	102.06
255.268	67.24
255.484	83.63
255.701	32.43
255.917	28.33
256.134	-16.73
256.351	22.19
256.567	-65.88
256.784	38.57
257	-18.77
257.217	100.01
257.433	22.19
257.65	79.53
257.866	73.39
258.082	-45.4
258.299	-0.34
258.515	63.15
258.732	22.19
258.948	-61.78
259.165	-0.34
259.381	-39.25
259.597	50.86
259.814	26.28
260.03	-6.49
260.246	-84.31
260.463	38.57
260.679	65.19
260.895	-4.44
261.112	46.76
261.328	-51.54
261.544	28.33
261.761	126.63
261.977	42.67
262.193	-37.2
262.409	-24.92
262.626	9.9
262.842	-8.53
263.058	-12.63
263.274	48.81
263.49	-29.01
263.707	122.54
263.923	-10.58
264.139	-74.07
264.355	65.19
264.571	71.34
264.787	34.47
265.004	59.05
265.22	28.33
265.436	42.67
265.652	22.19
265.868	16.04
266.084	-8.53
266.3	-2.39
266.516	-112.98
266.732	34.47
266.948	-22.87
267.164	20.14
267.38	40.62
267.596	57
267.812	26.28
268.028	-18.77
268.244	52.91
268.46	93.87
268.676	-31.06
268.892	42.67
269.108	-24.92
269.324	-10.58
269.54	3.75
269.756	48.81
269.972	-0.34
270.188	-55.64
270.403	-10.58
270.619	44.71
270.835	40.62
271.051	20.14
271.267	-96.6
271.483	7.85
271.698	44.71
271.914	28.33
272.13	3.75
272.346	44.71
272.562	48.81
272.777	79.53
272.993	-86.36
273.209	-2.39
273.425	7.85
273.64	-59.73
273.856	48.81
274.072	24.23
274.287	-0.34
274.503	-18.77
274.719	36.52
274.934	-4.44
275.15	-20.82
275.366	-55.64
275.581	26.28
275.797	-0.34
276.012	11.95
276.228	65.19
276.444	34.47
276.659	91.82
276.875	-49.49
277.09	34.47
277.306	7.85
277.521	38.57
277.737	-100.69
277.952	-24.92
278.168	-31.06
278.383	-4.44
278.599	3.75
278.814	3.75
279.03	75.43
279.245	22.19
279.461	38.57
279.676	-14.68
279.892	-69.97
280.107	-24.92
280.322	-41.3
280.538	13.99
280.753	-12.63
280.969	28.33
281.184	-8.53
281.399	126.63
281.615	9.9
281.83	18.09
282.045	-14.68
282.26	-12.63
282.476	9.9
282.691	81.58
282.906	9.9
283.122	18.09
283.337	-37.2
283.552	7.85
283.767	3.75
283.983	85.67
284.198	67.24
284.413	50.86
284.628	-45.4
284.843	-4.44
285.058	-10.58
285.274	-0.34
285.489	-41.3
285.704	104.11
285.919	32.43
286.134	-8.53
286.349	-2.39
286.564	-102.74
286.779	57
286.995	52.91
287.21	5.8
287.425	100.01
287.64	28.33
287.855	40.62
288.07	-108.88
288.285	120.49
288.5	110.25
288.715	11.95
288.93	-2.39
289.145	-47.44
289.36	61.1
289.575	-18.77
289.79	69.29
290.004	-10.58
290.219	28.33
290.434	-2.39
290.649	-2.39
290.864	-16.73
291.079	-14.68
291.294	30.38
291.509	-33.11
291.724	30.38
291.938	52.91
292.153	50.86
292.368	-33.11
292.583	110.25
292.798	83.63
293.012	-14.68
293.227	93.87
293.442	18.09
293.657	65.19
293.871	104.11
294.086	-69.97
294.301	116.39
294.516	110.25
294.73	22.19
294.945	-43.35
295.16	38.57
295.374	91.82
295.589	54.95
295.804	-33.11
296.018	-16.73
296.233	48.81
296.447	-18.77
296.662	-74.07
296.877	32.43
297.091	-2.39
297.306	7.85
297.52	40.62
297.735	81.58
297.949	-6.49
298.164	46.76
298.378	-6.49
298.593	-31.06
298.807	-12.63
299.022	63.15
299.236	22.19
299.451	-47.44
299.665	22.19
299.88	36.52
300.094	104.11
300.309	48.81
300.523	-0.34
300.737	-53.59
300.952	57
301.166	11.95
301.381	13.99
301.595	-20.82
301.809	-20.82
302.024	52.91
302.238	7.85
302.452	46.76
302.667	40.62
302.881	89.77
303.095	-4.44
303.309	63.15
303.524	-65.88
303.738	61.1
303.952	-6.49
304.166	48.81
304.381	-102.74
304.595	89.77
304.809	-0.34
305.023	11.95
305.237	-22.87
305.452	-0.34
305.666	93.87
305.88	-0.34
306.094	9.9
306.308	36.52
306.522	93.87
306.736	57
306.95	16.04
307.164	-59.73
307.379	-24.92
307.593	59.05
307.807	83.63
308.021	52.91
308.235	-6.49
308.449	-45.4
308.663	-6.49
308.877	157.35
309.091	-2.39
309.305	54.95
309.519	-20.82
309.733	91.82
309.947	-20.82
310.161	-16.73
310.374	59.05
310.588	83.63
310.802	-31.06
311.016	-26.96
311.23	18.09
311.444	-10.58
311.658	81.58
311.872	81.58
312.085	1.71
312.299	63.15
312.513	65.19
312.727	-14.68
312.941	-18.77
313.154	-31.06
313.368	9.9
313.582	11.95
313.796	22.19
314.009	22.19
314.223	69.29
314.437	50.86
314.651	59.05
314.864	5.8
315.078	-33.11
315.292	-35.16
315.505	-20.82
315.719	36.52
315.933	-4.44
316.146	30.38
316.36	-0.34
316.573	69.29
316.787	-8.53
317.001	108.2
317.214	-22.87
317.428	85.67
317.641	-57.68
317.855	-29.01
318.068	71.34
318.282	30.38
318.495	50.86
318.709	-12.63
318.922	65.19
319.136	69.29
319.349	34.47
319.563	-20.82
319.776	59.05
319.99	-22.87
320.203	73.39
320.417	5.8
320.63	28.33
320.843	71.34
321.057	-57.68
321.27	20.14
321.483	18.09
321.697	77.48
321.91	3.75
322.124	-4.44
322.337	5.8
322.55	-14.68
322.763	9.9
322.977	110.25
323.19	20.14
323.403	38.57
323.617	20.14
323.83	48.81
324.043	52.91
324.256	81.58
324.469	-63.83
324.683	46.76
324.896	69.29
325.109	40.62
325.322	-18.77
325.535	28.33
325.748	69.29
325.962	13.99
326.175	71.34
326.388	48.81
326.601	36.52
326.814	20.14
327.027	24.23
327.24	-0.34
327.453	-41.3
327.666	-8.53
327.879	91.82
328.092	5.8
328.305	38.57
328.518	26.28
328.731	-4.44
328.944	42.67
329.157	52.91
329.37	-55.64
329.583	52.91
329.796	71.34
330.009	-35.16
330.222	114.34
330.435	5.8
330.648	24.23
330.861	1.71
331.073	5.8
331.286	116.39
331.499	9.9
331.712	48.81
331.925	16.04
332.138	-18.77
332.35	-80.21
332.563	13.99
332.776	5.8
332.989	-16.73
333.202	28.33
333.414	24.23
333.627	16.04
333.84	-22.87
334.053	44.71
334.265	71.34
334.478	26.28
334.691	67.24
334.903	-43.35
335.116	32.43
335.329	71.34
335.541	65.19
335.754	59.05
335.966	-35.16
336.179	-63.83
336.392	63.15
336.604	44.71
336.817	81.58
337.029	3.75
337.242	-0.34
337.454	77.48
337.667	-0.34
337.88	108.2
338.092	24.23
338.305	-33.11
338.517	-72.02
338.729	-12.63
338.942	42.67
339.154	32.43
339.367	-6.49
339.579	97.96
339.792	-51.54
340.004	40.62
340.217	-47.44
340.429	11.95
340.641	-4.44
340.854	20.14
341.066	89.77
341.278	-45.4
341.491	89.77
341.703	-0.34
341.915	-51.54
342.128	79.53
342.34	34.47
342.552	-4.44
342.764	18.09
342.977	13.99
343.189	65.19
343.401	30.38
343.613	-65.88
343.826	-80.21
344.038	-14.68
344.25	65.19
344.462	3.75
344.674	-20.82
344.886	36.52
345.099	57
345.311	28.33
345.523	-16.73
345.735	-86.36
345.947	34.47
346.159	-33.11
346.371	16.04
346.583	1.71
346.795	110.25
347.007	-12.63
347.219	36.52
347.431	34.47
347.643	95.91
347.855	-59.73
348.067	116.39
348.279	3.75
348.491	7.85
348.703	83.63
348.915	54.95
349.127	52.91
349.339	24.23
349.551	-37.2
349.763	48.81
349.975	34.47
350.187	32.43
350.399	11.95
350.61	22.19
350.822	73.39
351.034	7.85
351.246	-35.16
351.458	57
351.669	46.76
351.881	34.47
352.093	22.19
352.305	63.15
352.517	67.24
352.728	63.15
352.94	26.28
353.152	-16.73
353.363	22.19
353.575	61.1
353.787	69.29
353.999	9.9
354.21	130.73
354.422	-12.63
354.633	22.19
354.845	-37.2
355.057	16.04
355.268	-10.58
355.48	24.23
355.692	-76.12
355.903	63.15
356.115	18.09
356.326	-41.3
356.538	116.39
356.749	97.96
356.961	93.87
357.172	20.14
357.384	3.75
357.595	114.34
357.807	-31.06
358.018	-16.73
358.23	40.62
358.441	46.76
358.653	93.87
358.864	7.85
359.075	11.95
359.287	13.99
359.498	89.77
359.709	24.23
359.921	-24.92
360.132	38.57
360.344	42.67
360.555	32.43
360.766	38.57
360.977	-22.87
361.189	79.53
361.4	7.85
361.611	61.1
361.823	67.24
362.034	-2.39
362.245	-22.87
362.456	24.23
362.667	-45.4
362.879	-69.97
363.09	1.71
363.301	132.78
363.512	-45.4
363.723	-0.34
363.935	69.29
364.146	22.19
364.357	-12.63
364.568	54.95
364.779	1.71
364.99	110.25
365.201	42.67
365.412	46.76
365.623	-22.87
365.834	34.47
366.045	18.09
366.256	102.06
366.467	20.14
366.678	22.19
366.889	32.43
367.1	22.19
367.311	79.53
367.522	24.23
367.733	-6.49
367.944	28.33
368.155	7.85
368.366	52.91
368.577	48.81
368.788	54.95
368.999	-4.44
369.209	59.05
369.42	104.11
369.631	138.92
369.842	52.91
370.053	28.33
370.264	-39.25
370.474	-4.44
370.685	-16.73
370.896	22.19
371.107	61.1
371.317	-26.96
371.528	-16.73
371.739	16.04
371.95	40.62
372.16	-10.58
372.371	-22.87
372.582	83.63
372.792	3.75
373.003	34.47
373.214	24.23
373.424	122.54
373.635	-31.06
373.846	106.15
374.056	77.48
374.267	26.28
374.477	-49.49
374.688	-0.34
374.898	40.62
375.109	75.43
375.319	34.47
375.53	61.1
375.74	-10.58
375.951	22.19
376.161	9.9
376.372	136.87
376.582	-2.39
376.793	-2.39
377.003	-0.34
377.214	44.71
377.424	71.34
377.635	32.43
377.845	5.8
378.055	42.67
378.266	-29.01
378.476	110.25
378.686	18.09
378.897	-24.92
379.107	114.34
379.317	77.48
379.528	9.9
379.738	52.91
379.948	-29.01
380.158	91.82
380.369	9.9
380.579	54.95
380.789	28.33
380.999	75.43
381.21	-8.53
381.42	120.49
381.63	54.95
381.84	106.15
382.05	57
382.261	134.82
382.471	63.15
382.681	97.96
382.891	93.87
383.101	3.75
383.311	-41.3
383.521	30.38
383.731	57
383.941	46.76
384.151	61.1
384.361	-20.82
384.571	61.1
384.781	3.75
384.991	85.67
385.201	157.35
385.411	71.34
385.621	11.95
385.831	34.47
386.041	-4.44
386.251	-16.73
386.461	54.95
386.671	44.71
386.881	71.34
387.091	-63.83
387.301	67.24
387.511	-6.49
387.72	48.81
387.93	93.87
388.14	30.38
388.35	-49.49
388.56	102.06
388.769	132.78
388.979	48.81
389.189	-43.35
389.399	-26.96
389.609	65.19
389.818	97.96
390.028	44.71
390.238	65.19
390.447	63.15
390.657	97.96
390.867	13.99
391.076	20.14
391.286	-0.34
391.496	-2.39
391.705	-10.58
391.915	69.29
392.125	52.91
392.334	22.19
392.544	89.77
392.753	63.15
392.963	85.67
393.172	26.28
393.382	87.72
393.591	97.96
393.801	44.71
394.01	97.96
394.22	54.95
394.429	-31.06
394.639	73.39
394.848	116.39
395.058	69.29
395.267	-31.06
395.477	91.82
395.686	91.82
395.895	140.97
396.105	134.82
396.314	116.39
396.524	136.87
396.733	124.58
396.942	155.3
397.152	67.24
397.361	85.67
397.57	124.58
397.78	48.81
397.989	63.15
398.198	116.39
398.407	13.99
398.617	71.34
398.826	100.01
399.035	34.47
399.244	91.82
399.453	71.34
399.663	116.39
399.872	77.48
400.081	-2.39
400.29	212.65
400.499	13.99
400.708	85.67
400.917	48.81
401.127	110.25
401.336	48.81
401.545	153.26
401.754	106.15
401.963	179.88
402.172	57
402.381	26.28
402.59	81.58
402.799	97.96
403.008	108.2
403.217	38.57
403.426	36.52
403.635	16.04
403.844	75.43
404.053	118.44
404.262	59.05
404.471	202.41
404.68	136.87
404.888	83.63
405.097	30.38
405.306	124.58
405.515	110.25
405.724	186.02
405.933	245.41
406.142	198.31
406.35	143.02
406.559	165.54
406.768	149.16
406.977	247.46
407.185	128.68
407.394	200.36
407.603	57
407.812	229.03
408.02	204.46
408.229	149.16
408.438	255.65
408.646	188.07
408.855	210.6
409.064	206.5
409.272	173.74
409.481	282.28
409.69	235.18
409.898	233.13
410.107	276.13
410.315	323.24
410.524	206.5
410.733	337.57
410.941	253.61
411.15	341.67
411.358	353.96
411.567	390.82
411.775	370.34
411.984	321.19
412.192	433.83
412.401	380.58
412.609	462.5
412.818	433.83
413.026	456.36
413.234	480.93
413.443	413.35
413.651	468.64
413.86	495.27
414.068	595.62
414.276	575.14
414.485	560.8
414.693	595.62
414.901	655.01
415.11	593.57
415.318	571.04
415.526	607.91
415.734	667.3
415.943	642.72
416.151	722.59
416.359	642.72
416.567	757.41
416.776	800.41
416.984	868
417.192	913.05
417.4	833.18
417.608	851.61
417.817	892.57
418.025	843.42
418.233	1033.88
418.441	980.64
418.649	990.88
418.857	1046.17
419.065	1152.67
419.273	1117.85
419.481	1109.66
419.689	1212.06
419.897	1271.45
420.105	1234.58
420.313	1349.27
420.521	1590.93
420.729	1537.68
420.937	1367.7
421.145	1478.29
421.353	1693.33
421.561	1724.05
421.769	1726.1
421.977	1724.05
422.185	1676.95
422.393	1918.61
422.601	2059.92
422.809	1918.61
423.017	1973.9
423.224	2008.72
423.432	2145.93
423.64	2078.35
423.848	2313.86
424.056	2236.04
424.263	2500.23
424.471	2434.69
424.679	2492.04
424.887	2610.82
425.094	2752.13
425.302	2590.34
425.51	2819.71
425.718	2870.91
425.925	2938.49
426.133	3022.46
426.341	3188.35
426.548	3468.92
426.756	3325.56
426.964	3333.75
427.171	3653.23
427.379	3708.53
427.586	3772.02
427.794	3870.32
428.001	3964.53
428.209	4243.05
428.417	4269.67
428.624	4578.92
428.832	4421.22
429.039	4324.97
429.247	4378.22
429.454	4789.86
429.662	5221.98
429.869	4933.22
430.076	5293.66
430.284	4931.17
430.491	5230.17
430.699	5660.24
430.906	5674.58
431.114	5695.06
431.321	5867.09
431.528	5903.95
431.736	6342.22
431.943	6723.14
432.15	6461
432.358	6346.31
432.565	6870.59
432.772	6929.98
432.979	7188.03
433.187	7355.96
433.394	7413.31
433.601	7792.18
433.808	7702.07
434.016	7872.05
434.223	8181.29
434.43	8617.51
434.637	8457.77
434.844	9123.36
435.052	9000.48
435.259	9227.81
435.466	9049.63
435.673	9166.37
435.88	9817.62
436.087	10073.62
436.294	10331.66
436.501	10196.5
436.708	10118.67
436.915	10245.65
437.122	11062.79
437.329	10941.96
437.537	11435.52
437.743	11392.51
437.95	11318.78
438.157	11783.67
438.364	12223.98
438.571	12203.5
438.778	12383.73
438.985	13268.45
439.192	13014.5
439.399	13254.11
439.606	12940.77
439.813	13927.89
440.02	14687.69
440.227	14403.02
440.433	14091.73
440.64	14530
440.847	14411.21
441.054	14958.02
441.261	15963.58
441.467	15908.28
441.674	16149.94
441.881	16760.23
442.088	16610.73
442.294	16483.76
442.501	17075.62
442.708	17196.45
442.914	17644.96
443.121	18652.56
443.328	17968.54
443.534	19436.93
443.741	18863.5
443.948	18746.76
444.154	20090.23
444.361	20229.49
444.568	19936.63
444.774	20090.23
444.981	20053.37
445.187	20938.09
445.394	21802.33
445.6	21532
445.807	23362.89
446.013	22521.17
446.22	22785.36
446.426	23708.99
446.633	24055.1
446.839	25031.98
447.046	23774.53
447.252	25101.61
447.459	25013.55
447.665	24814.9
447.871	25967.9
448.078	27077.9
448.284	25947.42
448.491	26926.35
448.697	27716.87
448.903	28337.4
449.11	28181.76
449.316	27540.74
449.522	28468.47
449.728	29310.19
449.935	29203.69
450.141	29082.86
450.347	29721.83
450.553	28830.96
450.76	29244.65
450.966	30358.75
451.172	29725.93
451.378	30655.7
451.584	29990.11
451.791	30573.78
451.997	30526.68
452.203	30969.04
452.409	31188.17
452.615	31040.72
452.821	29850.85
453.027	29506.79
453.233	31134.93
453.44	30049.5
453.646	30201.05
453.852	30479.58
454.058	30733.53
454.264	29809.89
454.47	30534.87
454.676	29441.26
454.882	30461.15
455.088	27915.52
455.294	28257.53
455.5	28581.11
455.705	29304.04
455.911	27864.32
456.117	27350.28
456.323	26799.38
456.529	25568.55
456.735	26617.11
456.941	26058.01
457.147	25386.28
457.352	24868.14
457.558	24511.8
457.764	24737.07
457.97	23887.17
458.176	23575.87
458.381	23502.15
458.587	22216.02
458.793	22398.29
458.999	21233
459.204	22850.89
459.41	21880.16
459.616	20587.89
459.821	20653.42
460.027	20532.59
460.233	20010.36
460.438	19094.92
460.644	19238.28
460.85	18062.74
461.055	18161.05
461.261	17921.43
461.466	16448.94
461.672	16164.28
461.878	17079.72
462.083	15990.2
462.289	15578.56
462.494	15697.34
462.7	15056.32
462.905	14790.09
463.111	15308.23
463.316	15162.82
463.522	14628.3
463.727	14923.21
463.932	14767.56
464.138	14525.9
464.343	14749.13
464.549	14134.74
464.754	14773.71
464.959	14577.1
465.165	14319.06
465.37	13913.56
465.575	13534.68
465.781	14075.35
465.986	13905.37
466.191	13604.32
466.397	13313.5
466.602	12834.28
466.807	13420
467.012	13151.71
467.218	13090.27
467.423	12865
467.628	12940.77
467.833	13608.41
468.038	13108.71
468.244	12565.99
468.449	13116.9
468.654	12518.89
468.859	12596.71
469.064	12479.98
469.269	11965.94
469.474	12035.57
469.679	12330.48
469.885	11933.17
470.09	11998.71
470.295	12039.67
470.5	11652.6
470.705	11898.36
470.91	11554.3
471.115	11601.4
471.32	11574.78
471.525	11482.62
471.73	11206.14
471.935	11189.76
472.139	10980.87
472.344	10984.96
472.549	10882.56
472.754	10569.23
472.959	10558.99
473.164	10108.43
473.369	10124.82
473.574	10565.13
473.778	10436.11
473.983	10259.98
474.188	10227.21
474.393	9907.73
474.598	9885.2
474.802	9702.93
475.007	9692.69
475.212	9805.33
475.417	9209.37
475.621	9260.57
475.826	9403.93
476.031	8963.62
476.235	9119.26
476.44	9102.88
476.645	8867.36
476.849	9004.58
477.054	8822.31
477.259	8554.02
477.463	8771.11
477.668	8523.3
477.872	8631.85
478.077	8597.03
478.282	8029.74
478.486	8265.26
478.691	8109.61
478.895	8201.77
479.1	8132.14
479.304	8050.22
479.509	7665.21
479.713	8039.98
479.918	7638.58
480.122	7738.93
480.326	7767.6
480.531	7890.48
480.735	7579.19
480.94	7579.19
481.144	7851.57
481.348	7448.12
481.553	7802.42
481.757	7317.05
481.961	7439.93
482.166	7532.09
482.37	7507.51
482.574	7560.76
482.778	7380.54
482.983	7665.21
483.187	7413.31
483.391	7499.32
483.595	7362.11
483.8	7401.02
484.004	7448.12
484.208	7411.26
484.412	7634.49
484.616	7513.66
484.821	7323.19
485.025	7394.87
485.229	7474.74
485.433	7392.83
485.637	7325.24
485.841	7407.16
486.045	7294.52
486.249	7419.45
486.453	7439.93
486.657	7358.01
486.861	7212.6
487.065	7220.8
487.269	7269.95
487.473	7308.86
487.677	7327.29
487.881	7329.34
488.085	7245.37
488.289	7413.31
488.493	7454.26
488.697	7401.02
488.901	7480.89
489.105	7593.53
489.309	7409.21
489.512	7581.24
489.716	7423.55
489.92	7325.24
490.124	7423.55
490.328	7652.92
490.531	7501.37
490.735	7493.18
490.939	7384.63
491.143	7527.99
491.346	7622.2
491.55	7632.44
491.754	7777.84
491.958	7634.49
492.161	7554.62
492.365	7652.92
492.569	7536.18
492.772	7628.34
492.976	7618.1
493.18	7716.4
493.383	8021.55
493.587	7917.11
493.79	8087.09
493.994	7923.25
494.197	8001.07
494.401	7992.88
494.605	8007.22
494.808	8259.12
495.012	8255.02
495.215	8207.92
495.419	8449.58
495.622	8169.01
495.825	8384.04
496.029	8457.77
496.232	8767.01
496.436	8549.93
496.639	8807.97
496.843	8693.29
497.046	8803.88
497.249	9182.75
497.453	9053.73
497.656	8885.8
497.859	9156.13
498.063	9362.97
498.266	9408.03
498.469	9330.2
498.673	9461.27
498.876	9623.06
499.079	9819.67
499.282	9668.12
499.485	10059.28
499.689	10106.38
499.892	10077.71
500.095	10141.2
500.298	10333.71
500.501	10173.97
500.705	10530.31
500.908	10618.38
501.111	10698.25
501.314	10804.74
501.517	10876.42
501.72	11144.7
501.923	11156.99
502.126	11234.82
502.329	11462.14
502.532	11566.59
502.735	11748.86
502.938	11947.51
503.141	11861.49
503.344	11875.83
503.547	11963.89
503.75	12148.21
503.953	12422.64
504.156	12547.56
504.359	12512.75
504.562	12535.28
504.765	13012.45
504.968	13170.15
505.17	13239.78
505.373	13237.73
505.576	13231.58
505.779	13467.1
505.982	13673.95
506.185	13993.43
506.387	14061.01
506.59	14280.14
506.793	14155.22
506.996	14222.8
507.198	14480.85
507.401	14640.59
507.604	14667.21
507.807	15195.59
508.009	14951.88
508.212	15347.14
508.415	15381.95
508.617	15590.84
508.82	15676.86
509.022	15883.7
509.225	15828.41
509.428	15922.62
509.63	16143.8
509.833	16256.43
510.035	16508.33
510.238	16442.8
510.44	16457.14
510.643	16698.8
510.845	17210.79
511.048	17001.9
511.25	17352.1
511.453	17427.87
511.655	17763.74
511.858	17575.33
512.06	17960.34
512.262	17870.23
512.465	17925.53
512.667	18312.6
512.87	18507.15
513.072	18748.81
513.274	18515.34
513.477	19172.74
513.679	19137.93
513.881	19166.6
514.084	19344.77
514.286	19072.39
514.488	19623.3
514.69	19953.02
514.893	19824
515.095	19979.64
515.297	20221.3
515.499	20602.22
515.701	20557.17
515.904	21026.15
516.106	20895.08
516.308	21253.48
516.51	21327.21
516.712	21503.33
516.914	21478.75
517.116	21929.31
517.318	22115.67
517.52	21910.88
517.722	22140.25
517.925	22263.13
518.127	22453.59
518.329	23008.59
518.531	22515.03
518.733	23192.9
518.935	23063.88
519.136	23100.75
519.338	23627.07
519.54	23616.83
519.742	23559.49
519.944	23790.91
520.146	24100.15
520.348	23926.08
520.55	23901.5
520.752	24384.82
520.954	24505.65
521.155	24755.5
521.357	24569.14
521.559	25023.79
521.761	25001.26
521.963	24864.05
522.164	25244.97
522.366	25539.88
522.568	25664.8
522.77	25814.3
522.971	25902.37
523.173	25928.99
523.375	26383.64
523.576	26090.78
523.778	26223.9
523.98	26397.98
524.181	26363.16
524.383	26402.07
524.584	26744.08
524.786	26805.52
524.988	26723.6
525.189	27022.61
525.391	27239.69
525.592	26952.98
525.794	26705.17
525.995	27049.23
526.197	27434.25
526.398	27446.54
526.6	27495.69
526.801	27632.9
527.003	27350.28
527.204	27829.51
527.406	27837.7
527.607	27835.65
527.808	27927.81
528.01	27419.91
528.211	27616.52
528.412	28134.65
528.614	28126.46
528.815	28138.75
529.016	28398.84
529.218	27954.43
529.419	28232.96
529.62	28161.28
529.822	28194.04
530.023	28488.95
530.224	28296.44
530.425	27942.14
530.626	28110.08
530.828	28065.02
531.029	28560.63
531.23	28261.63
531.431	28290.3
531.632	28361.98
531.833	28138.75
532.035	28316.92
532.236	28302.59
532.437	28867.83
532.638	28128.51
532.839	28478.71
533.04	28482.81
533.241	28310.78
533.442	28824.82
533.643	28499.19
533.844	28755.19
534.045	28638.45
534.246	28419.32
534.447	28323.07
534.648	28247.29
534.849	28785.91
535.05	28310.78
535.251	28499.19
535.451	28312.83
535.652	28519.67
535.853	28441.85
536.054	28306.68
536.255	28290.3
536.456	28261.63
536.657	28935.41
536.857	28206.33
537.058	28167.42
537.259	28429.56
537.46	28132.61
537.66	28380.41
537.861	28585.21
538.062	28359.93
538.263	28177.66
538.463	28513.53
538.664	28327.16
538.865	28413.18
539.065	28318.97
539.266	28306.68
539.466	28331.26
539.667	27774.21
539.868	28525.82
540.068	28224.76
540.269	28060.93
540.469	28447.99
540.67	28189.95
540.87	28200.19
541.071	28148.99
541.271	28087.55
541.472	28007.68
541.672	28124.41
541.873	27809.03
542.073	27616.52
542.274	28411.13
542.474	28255.48
542.675	27555.08
542.875	28050.69
543.075	27827.46
543.276	27856.13
543.476	28124.41
543.676	28144.89
543.877	28134.65
544.077	27985.15
544.277	27774.21
544.478	27782.4
544.678	27901.18
544.878	28175.61
545.078	28118.27
545.279	28046.59
545.479	27854.08
545.679	28196.09
545.879	27759.88
546.079	27522.31
546.28	27886.85
546.48	27876.61
546.68	28069.12
546.88	28030.21
547.08	27940.1
547.28	27837.7
547.48	27493.64
547.68	28028.16
547.88	27534.6
548.081	27806.98
548.281	27780.35
548.481	27661.57
548.681	27890.95
548.881	27677.96
549.081	27675.91
549.28	27424.01
549.48	27995.39
549.68	27196.68
549.88	27845.89
550.08	27481.35
550.28	27698.44
550.48	27686.15
550.68	27626.76
550.88	27925.76
551.08	27561.22
551.279	27878.66
551.479	27675.91
551.679	27684.1
551.879	27479.3
552.079	27768.07
552.278	27473.16
552.478	27755.78
552.678	27593.99
552.878	27448.58
553.077	27475.21
553.277	27284.75
553.477	27768.07
553.676	27596.04
553.876	27507.97
554.076	27677.96
554.275	27587.85
554.475	27223.31
554.674	27198.73
554.874	27473.16
555.074	27129.1
555.273	27579.65
555.473	27479.3
555.672	27411.72
555.872	27307.27
556.071	27415.82
556.271	27573.51
556.47	27071.76
556.67	27108.62
556.869	27350.28
557.068	27505.93
557.268	27262.22
557.467	27337.99
557.667	27307.27
557.866	27485.45
558.065	27079.95
558.265	27030.8
558.464	26955.02
558.663	27215.12
558.863	26819.86
559.062	27290.89
559.261	26940.69
559.461	27159.82
559.66	27034.89
559.859	26981.65
560.058	26846.48
560.258	26780.95
560.457	26619.16
560.656	27051.28
560.855	26766.61
561.054	27172.11
561.253	26645.78
561.453	27194.64
561.652	27190.54
561.851	27245.83
562.05	26903.82
562.249	26527
562.448	27239.69
562.647	26940.69
562.846	26623.25
563.045	26801.43
563.244	26563.86
563.443	27190.54
563.642	26565.91
563.841	26604.82
564.04	26500.37
564.239	26737.94
564.438	26557.72
564.637	26709.27
564.836	26912.02
565.035	26248.47
565.234	26707.22
565.432	26496.28
565.631	26385.69
565.83	26551.57
566.029	26406.17
566.228	26295.58
566.427	26574.1
566.625	25988.38
566.824	26154.27
567.023	26273.05
567.222	25789.73
567.42	26367.26
567.619	26332.44
567.818	26344.73
568.016	26248.47
568.215	26383.64
568.414	26031.39
568.612	26512.66
568.811	25900.32
569.01	26096.92
569.208	25754.91
569.407	26209.56
569.605	25824.54
569.804	26236.19
570.002	26078.49
570.201	25957.66
570.4	26035.49
570.598	26160.41
570.797	25908.51
570.995	25894.18
571.193	25658.66
571.392	25982.24
571.59	25447.72
571.789	25525.54
571.987	25863.46
572.186	26139.93
572.384	25617.7
572.582	25910.56
572.781	25744.67
572.979	25242.92
573.177	25642.28
573.376	25875.74
573.574	25447.72
573.772	25672.99
573.971	25210.15
574.169	25486.63
574.367	25308.46
574.565	25578.79
574.763	25300.26
574.962	25380.14
575.16	25050.41
575.358	25355.56
575.556	24890.67
575.754	25390.38
575.952	25165.1
576.151	25290.02
576.349	24988.97
576.547	25068.84
576.745	25048.36
576.943	25054.51
577.141	24808.75
577.339	25140.52
577.537	24806.7
577.735	24775.98
577.933	24649.01
578.131	24814.9
578.329	24603.96
578.527	24450.36
578.725	24251.7
578.923	24489.27
579.121	24706.35
579.319	24487.22
579.516	24479.03
579.714	24569.14
579.912	24636.72
580.11	24116.54
580.308	24243.51
580.506	24186.17
580.704	24149.31
580.901	24343.86
581.099	24462.65
581.297	24204.6
581.495	24147.26
581.692	24278.33
581.89	23727.42
582.088	24175.93
582.285	23838.01
582.483	23973.18
582.681	23913.79
582.878	23516.48
583.076	23416.13
583.274	23956.8
583.471	23717.18
583.669	23635.27
583.866	23588.16
584.064	23747.9
584.262	23641.41
584.459	23364.93
584.657	23594.31
584.854	23518.53
585.052	23317.83
585.249	23461.19
585.447	23139.66
585.644	23184.71
585.841	23766.34
586.039	23260.49
586.236	23121.23
586.434	22930.76
586.631	22979.92
586.828	23360.84
587.026	23041.36
587.223	23029.07
587.42	22756.69
587.618	22879.57
587.815	22728.02
588.012	22728.02
588.21	22672.72
588.407	22859.09
588.604	22635.86
588.801	22617.43
588.999	22785.36
589.196	22758.74
589.393	22369.62
589.59	22424.92
589.787	22508.88
589.984	22461.78
590.182	22201.69
590.379	22314.33
590.576	22338.9
590.773	22117.72
590.97	22123.87
591.167	22652.24
591.364	21882.2
591.561	22238.55
591.758	21704.03
591.955	21640.54
592.152	21884.25
592.349	21931.36
592.546	21763.42
592.743	21931.36
592.94	21644.64
593.137	21732.7
593.334	21902.68
593.531	21642.59
593.727	21794.14
593.924	21882.2
594.121	21511.52
594.318	21548.39
594.515	21427.56
594.712	21630.3
594.908	21439.84
595.105	21435.75
595.302	21505.38
595.499	21532
595.696	21331.3
595.892	21103.98
596.089	21257.57
596.286	21372.26
596.482	21286.25
596.679	21286.25
596.876	21058.92
597.072	20934
597.269	21058.92
597.466	21044.59
597.662	20845.93
597.859	21050.73
598.055	21044.59
598.252	20909.42
598.448	20825.45
598.645	20739.44
598.841	20786.54
599.038	20798.83
599.234	21187.94
599.431	20569.46
599.627	20733.29
599.824	20985.19
600.02	20622.7
600.217	20673.9
600.413	20516.21
600.609	20622.7
600.806	20557.17
601.002	20688.24
601.198	20385.14
601.395	20196.73
601.591	20077.94
601.787	20053.37
601.984	20110.71
602.18	20426.1
602.376	20243.83
602.572	20147.58
602.769	20303.22
602.965	19991.93
603.161	20118.9
603.357	20174.2
603.553	20243.83
603.75	20362.61
603.946	20127.1
604.142	20102.52
604.338	19828.09
604.534	20256.12
604.73	19746.17
604.926	19867
605.122	19938.68
605.318	19649.92
605.514	19799.42
605.71	19758.46
605.906	19727.74
606.102	19613.06
606.298	19785.08
606.494	19912.06
606.69	19850.62
606.886	19783.04
607.082	19551.62
607.278	19817.85
607.474	19498.37
607.67	19875.2
607.866	19465.6
608.062	19629.44
608.257	19742.08
608.453	19332.48
608.649	19649.92
608.845	19549.57
609.041	19776.89
609.236	19545.47
609.432	19580.29
609.628	19780.99
609.824	19639.68
610.019	19600.77
610.215	19123.59
610.411	19447.17
610.606	19524.99
610.802	19434.88
610.998	19475.84
611.193	19625.34
611.389	19281.28
611.584	19357.06
611.78	19291.52
611.976	19277.19
612.171	19717.5
612.367	19271.04
612.562	19441.03
612.758	19180.93
612.953	19211.65
613.149	19449.22
613.344	19289.48
613.539	19754.37
613.735	19236.23
613.93	19430.79
614.126	19357.06
614.321	19406.21
614.517	19123.59
614.712	19602.82
614.907	19064.2
615.103	19367.3
615.298	19127.69
615.493	19318.15
615.688	19113.35
615.884	19305.86
616.079	19002.76
616.274	19228.04
616.47	19312
616.665	19133.83
616.86	19160.45
617.055	18601.36
617.25	19195.27
617.445	19166.6
617.641	18865.55
617.836	18972.04
618.031	18892.17
618.226	18890.12
618.421	18935.18
618.616	19105.16
618.811	18806.16
619.006	18996.62
619.201	18607.5
619.396	18896.27
619.591	18361.75
619.786	18867.59
619.981	18197.91
620.176	18318.74
620.371	18285.97
620.566	18587.02
620.761	18464.14
620.956	18750.86
621.151	18138.52
621.346	18449.81
621.541	17808.79
621.735	18232.72
621.93	17825.18
622.125	18019.74
622.32	17898.91
622.515	18052.5
622.709	17892.76
622.904	17814.94
623.099	17735.07
623.294	17579.42
623.488	17313.19
623.683	17239.46
623.878	17071.53
624.072	17272.23
624.267	17204.64
624.462	17032.61
624.656	16981.42
624.851	17042.85
625.046	17059.24
625.24	16784.81
625.435	16444.85
625.629	16694.7
625.824	16760.23
626.018	16657.84
626.213	16264.63
626.407	16575.92
626.602	16223.67
626.796	16428.46
626.991	16332.21
627.185	16160.18
627.38	16045.49
627.574	15965.62
627.768	15879.61
627.963	15678.91
628.157	15904.18
628.352	15664.57
628.546	15472.06
628.74	15613.37
628.935	15523.26
629.129	15467.97
629.323	15261.12
629.517	15154.63
629.712	15189.44
629.906	15230.4
630.1	14990.79
630.294	15197.63
630.489	14763.47
630.683	15078.85
630.877	14880.2
631.071	14656.97
631.265	14831.05
631.459	14747.08
631.653	14486.99
631.848	14585.29
632.042	14204.37
632.236	14505.42
632.43	14081.49
632.624	14341.58
632.818	14120.4
633.012	13907.41
633.206	14220.75
633.4	13872.6
633.594	13639.13
633.788	13827.54
633.982	13821.4
634.176	13886.93
634.369	13702.62
634.563	13288.93
634.757	13612.51
634.951	13483.48
635.145	13542.88
635.339	13592.03
635.533	13497.82
635.726	13495.77
635.92	13032.93
636.114	13194.72
636.308	12957.16
636.501	13043.17
636.695	12793.32
636.889	12936.68
637.083	12783.08
637.276	12772.84
637.47	12684.78
637.664	12522.99
637.857	12613.1
638.051	12699.11
638.244	12498.41
638.438	12269.04
638.632	12359.15
638.825	12191.22
639.019	12160.5
639.212	12246.51
639.406	12101.11
639.599	12058.1
639.793	11847.16
639.986	11857.4
640.18	11720.18
640.373	11834.87
640.567	11511.29
640.76	11632.12
640.954	11539.96
641.147	11378.17
641.34	11304.45
641.534	11374.08
641.727	11464.19
641.92	11488.76
642.114	11337.21
642.307	11269.63
642.5	11126.27
642.694	10804.74
642.887	10829.32
643.08	11113.99
643.273	10647.05
643.467	10739.21
643.66	10759.69
643.853	10532.36
644.046	10575.37
644.239	10475.02
644.432	10436.11
644.626	10307.09
644.819	10397.2
645.012	10137.1
645.205	10378.76
645.398	10294.8
645.591	9940.5
645.784	10065.43
645.977	9922.07
646.17	9911.83
646.363	9924.12
646.556	9807.38
646.749	9934.36
646.942	10022.42
647.135	9864.72
647.328	9702.93
647.521	9608.73
647.714	9428.51
647.907	9506.33
648.099	9354.78
648.292	9448.99
648.485	9256.48
648.678	9276.96
648.871	9205.28
649.064	9080.35
649.256	9059.87
649.449	9051.68
649.642	9008.67
649.835	8803.88
650.027	8992.29
650.22	8597.03
650.413	8799.78
650.605	8777.25
650.798	8650.28
650.991	8556.07
651.183	8627.75
651.376	8486.44
651.568	8633.89
651.761	8381.99
651.954	8414.76
652.146	8322.6
652.339	8486.44
652.531	8298.03
652.724	8263.21
652.916	7999.02
653.109	7962.16
653.301	8015.41
653.494	8101.42
653.686	7867.95
653.879	8160.81
654.071	7853.62
654.263	7777.84
654.456	7833.14
654.648	7820.85
654.84	7702.07
655.033	7640.63
655.225	7638.58
655.417	7593.53
655.61	7550.52
655.802	7462.46
655.994	7581.24
656.186	7452.22
656.379	7308.86
656.571	7255.61
656.763	7188.03
656.955	7261.76
657.148	7345.72
657.34	7218.75
657.532	7007.81
657.724	7022.14
657.916	7138.88
658.108	6942.27
658.3	6911.55
658.492	6954.56
658.684	6786.63
658.876	6626.89
659.068	6753.86
659.26	6733.38
659.452	6882.88
659.644	6733.38
659.836	6526.54
660.028	6493.77
660.22	6520.39
660.412	6489.67
660.604	6551.11
660.796	6471.24
660.988	6389.32
661.18	6182.48
661.372	6274.63
661.563	6319.69
661.755	6268.49
661.947	6080.08
662.139	6145.61
662.331	6037.07
662.522	5906
662.714	6002.26
662.906	5817.94
663.097	6012.49
663.289	5996.11
663.481	5774.93
663.673	5944.91
663.864	5764.69
664.056	5723.73
664.247	5768.79
664.439	5717.59
664.631	5582.42
664.822	5721.68
665.014	5660.24
665.205	5465.69
665.397	5690.96
665.588	5324.38
665.78	5502.55
665.971	5592.66
666.163	5475.93
666.354	5465.69
666.546	5371.48
666.737	5260.89
666.929	5342.81
667.12	5355.1
667.311	5285.47
667.503	5213.79
667.694	5256.79
667.885	5254.75
668.077	5187.16
668.268	5097.05
668.459	5054.05
668.651	5203.55
668.842	4996.7
669.033	5000.8
669.224	5013.09
669.416	5090.91
669.607	4986.46
669.798	4941.41
669.989	5092.96
670.18	4978.27
670.371	4834.91
670.563	4796
670.754	4822.63
670.945	4738.66
671.136	4709.99
671.327	4738.66
671.518	4836.96
671.709	4839.01
671.9	4783.71
672.091	4785.76
672.282	4699.75
672.473	4564.58
672.664	4652.64
672.855	4525.67
673.046	4812.39
673.237	4550.25
673.428	4654.69
673.619	4605.54
673.809	4580.96
674	4589.16
674.191	4523.62
674.382	4574.82
674.573	4447.85
674.764	4521.57
674.954	4652.64
675.145	4331.11
675.336	4423.27
675.527	4525.67
675.717	4533.86
675.908	4324.97
676.099	4396.65
676.289	4243.05
676.48	4345.45
676.671	4404.84
676.861	4404.84
677.052	4300.39
677.243	4404.84
677.433	4265.58
677.624	4439.65
677.814	4191.85
678.005	4286.06
678.195	4421.22
678.386	4300.39
678.576	4230.76
678.767	4191.85
678.957	4140.65
679.148	4304.49
679.338	4222.57
679.529	4247.15
679.719	4259.43
679.909	4286.06
680.1	4079.21
680.29	4210.28
680.481	4083.31
680.671	4265.58
680.861	4152.94
681.052	4236.91
681.242	4120.17
681.432	4335.21
681.622	4165.23
681.813	4064.88
682.003	4075.12
682.193	4011.63
682.383	4124.27
682.573	4066.92
682.764	4040.3
682.954	4011.63
683.144	4138.6
683.334	4148.84
683.524	4157.04
683.714	4140.65
683.904	4081.26
684.094	4085.36
684.284	4091.5
684.474	4167.28
684.664	4159.08
684.854	4042.35
685.044	4023.92
685.234	3931.76
685.424	4114.03
685.614	4062.83
685.804	4036.21
685.994	3991.15
686.184	4038.25
686.374	4099.69
686.564	3978.86
686.753	3964.53
686.943	3831.41
687.133	3980.91
687.323	3874.42
687.513	3944.05
687.702	3864.18
687.892	3802.74
688.082	3946.09
688.272	3999.34
688.461	3931.76
688.651	3972.72
688.841	3792.5
689.03	3806.83
689.22	3853.94
689.41	3753.59
689.599	3690.1
689.789	3835.5
689.979	3794.54
690.168	3806.83
690.358	3898.99
690.547	3919.47
690.737	3776.11
690.926	3763.83
691.116	3763.83
691.305	3743.35
691.495	3667.57
691.684	3595.89
691.874	3681.91
692.063	3724.91
692.252	3792.5
692.442	3855.98
692.631	3520.12
692.82	3698.29
693.01	3663.47
693.199	3677.81
693.388	3657.33
693.578	3579.51
693.767	3970.67
693.956	3677.81
694.146	3692.15
694.335	3696.24
694.524	3663.47
694.713	3628.66
694.902	3665.52
695.092	3636.85
695.281	3796.59
695.47	3634.8
695.659	3612.28
695.848	3616.37
696.037	3563.12
696.226	3618.42
696.415	3612.28
696.604	3688.05
696.793	3696.24
696.982	3731.06
697.171	3737.2
697.36	3696.24
697.549	3657.33
697.738	3710.58
697.927	3700.34
698.116	3769.97
698.305	3659.38
698.494	3702.39
698.683	3720.82
698.872	3888.75
699.061	3681.91
699.25	3585.65
699.438	3696.24
699.627	3745.39
699.816	3681.91
700.005	3712.63
700.193	3772.02
700.382	3643
700.571	3767.92
700.76	3772.02
700.948	3792.5
701.137	3862.13
701.326	3720.82
701.514	3622.52
701.703	3812.98
701.892	3739.25
702.08	3845.74
702.269	3729.01
702.457	3870.32
702.646	3767.92
702.834	3673.71
703.023	3755.63
703.212	3888.75
703.4	3712.63
703.589	3683.95
703.777	3710.58
703.965	3665.52
704.154	3700.34
704.342	3659.38
704.531	3716.72
704.719	3671.67
704.907	3796.59
705.096	3780.21
705.284	3815.02
705.472	3720.82
705.661	3855.98
705.849	3729.01
706.037	3808.88
706.226	3677.81
706.414	3796.59
706.602	3786.35
706.79	3829.36
706.979	3792.5
707.167	3778.16
707.355	3663.47
707.543	3671.67
707.731	3694.19
707.919	3722.87
708.107	3696.24
708.296	3718.77
708.484	3673.71
708.672	3704.43
708.86	3712.63
709.048	3653.23
709.236	3804.78
709.424	3880.56
709.612	3751.54
709.8	3706.48
709.988	3808.88
710.176	3751.54
710.364	3792.5
710.551	3726.96
710.739	3839.6
710.927	3796.59
711.115	3825.26
711.303	3884.66
711.491	3823.22
711.679	3757.68
711.866	3751.54
712.054	3712.63
712.242	3729.01
712.43	3761.78
712.617	3671.67
712.805	3804.78
712.993	3667.57
713.181	3749.49
713.368	3796.59
713.556	3692.15
713.744	3616.37
713.931	3812.98
714.119	3751.54
714.306	3722.87
714.494	3800.69
714.682	3624.56
714.869	3657.33
715.057	3784.3
715.244	3720.82
715.432	3759.73
715.619	3872.37
715.807	3806.83
715.994	3665.52
716.182	3823.22
716.369	3694.19
716.556	3751.54
716.744	3696.24
716.931	3724.91
717.119	3774.07
717.306	3819.12
717.493	3704.43
717.681	3694.19
717.868	3823.22
718.055	3665.52
718.242	3565.17
718.43	3833.46
718.617	3831.41
718.804	3855.98
718.991	3653.23
719.179	3866.22
719.366	3700.34
719.553	3808.88
719.74	3800.69
719.927	3679.86
720.114	3790.45
720.301	3751.54
720.488	3681.91
720.676	3618.42
720.863	3749.49
721.05	3808.88
721.237	3733.11
721.424	3796.59
721.611	3581.56
721.798	3702.39
721.985	3591.8
722.172	3610.23
722.358	3655.28
722.545	3731.06
722.732	3522.16
722.919	3700.34
723.106	3626.61
723.293	3645.04
723.48	3516.02
723.667	3669.62
723.853	3638.9
724.04	3706.48
724.227	3669.62
724.414	3655.28
724.6	3614.32
724.787	3653.23
724.974	3587.7
725.161	3595.89
725.347	3489.4
725.534	3681.91
725.72	3772.02
725.907	3522.16
726.094	3589.75
726.28	3503.73
726.467	3522.16
726.653	3477.11
726.84	3573.36
727.027	3702.39
727.213	3364.47
727.4	3667.57
727.586	3649.14
727.773	3583.6
727.959	3485.3
728.145	3577.46
728.332	3501.69
728.518	3475.06
728.705	3526.26
728.891	3503.73
729.077	3499.64
729.264	3421.81
729.45	3511.93
729.636	3395.19
729.823	3585.65
730.009	3583.6
730.195	3552.88
730.382	3415.67
730.568	3419.77
730.754	3346.04
730.94	3358.33
731.126	3481.21
731.313	3487.35
731.499	3550.84
731.685	3423.86
731.871	3487.35
732.057	3409.53
732.243	3501.69
732.429	3401.33
732.615	3389.05
732.801	3448.44
732.987	3446.39
733.173	3294.84
733.359	3288.7
733.545	3333.75
733.731	3245.69
733.917	3382.9
734.103	3358.33
734.289	3378.81
734.475	3264.12
734.661	3354.23
734.847	3321.46
735.033	3440.25
735.219	3356.28
735.404	3196.54
735.59	3284.6
735.776	3157.63
735.962	3350.14
736.148	3260.02
736.333	3253.88
736.519	3260.02
736.705	3202.68
736.89	3260.02
737.076	3241.59
737.262	3251.83
737.447	3192.44
737.633	3245.69
737.819	3208.83
738.004	3143.29
738.19	3092.09
738.375	3139.19
738.561	3292.79
738.747	3075.71
738.932	3135.1
739.118	3188.35
739.303	3174.01
739.489	3053.18
739.674	3090.04
739.859	3049.08
740.045	3100.28
740.23	3163.77
740.416	2909.82
740.601	3104.38
740.786	2926.21
740.972	3051.13
741.157	2963.07
741.342	2973.31
741.528	2854.53
741.713	3061.37
741.898	2883.2
742.084	2905.73
742.269	2915.97
742.454	2819.71
742.639	2885.25
742.824	2862.72
743.01	2977.41
743.195	3008.12
743.38	2920.06
743.565	2823.81
743.75	2844.29
743.935	2838.14
744.12	2887.29
744.305	2659.97
744.49	2657.92
744.675	2829.95
744.86	2764.42
745.045	2788.99
745.23	2674.31
745.415	2610.82
745.6	2791.04
745.785	2645.63
745.97	2682.5
746.155	2686.59
746.34	2588.29
746.525	2502.28
746.71	2686.59
746.895	2594.44
747.079	2530.95
747.264	2485.89
747.449	2643.59
747.634	2645.63
747.819	2498.18
748.003	2356.87
748.188	2526.85
748.373	2530.95
748.557	2410.12
748.742	2475.65
748.927	2334.34
749.111	2494.08
749.296	2303.62
749.481	2369.16
749.665	2371.21
749.85	2428.55
750.034	2236.04
750.219	2336.39
750.404	2205.32
750.588	2236.04
750.773	2162.31
750.957	2291.34
751.141	2203.27
751.326	2252.42
751.51	2184.84
751.695	2256.52
751.879	2244.23
752.064	2203.27
752.248	2195.08
752.432	2225.8
752.617	2133.64
752.801	2229.9
752.985	1992.33
753.17	2072.2
753.354	2080.39
753.538	2008.72
753.722	1992.33
753.907	1992.33
754.091	2053.77
754.275	1982.09
754.459	2107.02
754.643	1982.09
754.828	1943.18
755.012	1941.13
755.196	1846.93
755.38	1857.17
755.564	1865.36
755.748	1822.35
755.932	1992.33
756.116	1775.25
756.3	1713.81
756.484	1814.16
756.668	1844.88
756.852	1851.02
757.036	1851.02
757.22	1758.86
757.404	1840.78
757.588	1865.36
757.772	1842.83
757.956	1750.67
758.14	1883.79
758.323	1660.56
758.507	1644.18
758.691	1603.22
758.875	1762.96
759.059	1693.33
759.242	1588.88
759.426	1611.41
759.61	1646.23
759.794	1588.88
759.977	1666.71
760.161	1713.81
760.345	1750.67
760.528	1588.88
760.712	1644.18
760.895	1582.74
761.079	1717.9
761.263	1562.26
761.446	1474.2
761.63	1556.11
761.813	1590.93
761.997	1621.65
762.18	1535.64
762.364	1513.11
762.547	1373.85
762.731	1377.94
762.914	1457.81
763.098	1535.64
763.281	1509.01
763.464	1396.37
763.648	1576.59
763.831	1402.52
764.015	1455.76
764.198	1496.72
764.381	1273.5
764.564	1441.43
764.748	1556.11
764.931	1402.52
765.114	1420.95
765.297	1402.52
765.481	1339.03
765.664	1359.51
765.847	1332.89
766.03	1363.61
766.213	1310.36
766.397	1281.69
766.58	1382.04
766.763	1410.71
766.946	1298.07
767.129	1332.89
767.312	1287.83
767.495	1349.27
767.678	1423
767.861	1226.39
768.044	1341.08
768.227	1347.22
768.41	1316.5
768.593	1314.45
768.776	1269.4
768.959	1158.81
769.142	1302.17
769.324	1293.97
769.507	1339.03
769.69	1240.73
769.873	1232.54
770.056	1355.41
770.239	1296.02
770.421	1183.38
770.604	1341.08
770.787	1296.02
770.97	1379.99
771.152	1148.57
771.335	1121.95
771.518	1117.85
771.7	1226.39
771.883	1199.77
772.066	1193.62
772.248	1025.69
772.431	1287.83
772.613	1095.32
772.796	1080.99
772.978	1179.29
773.161	1101.47
773.343	1070.75
773.526	1083.03
773.708	1025.69
773.891	1128.09
774.073	1054.36
774.256	1076.89
774.438	1101.47
774.621	1052.31
774.803	1119.9
774.985	1068.7
775.168	1175.19
775.35	1040.03
775.532	1009.31
775.715	1011.36
775.897	1040.03
776.079	1021.6
776.261	966.3
776.444	935.58
776.626	1044.12
776.808	1023.64
776.99	933.53
777.173	968.35
777.355	988.83
777.537	1031.83
777.719	845.47
777.901	1009.31
778.083	947.87
778.265	947.87
778.447	1011.36
778.629	929.44
778.811	904.86
778.993	886.43
779.175	972.44
779.357	984.73
779.539	847.52
779.721	868
779.903	974.49
780.085	890.53
780.267	765.6
780.449	845.47
780.631	888.48
780.812	837.28
780.994	863.9
781.176	861.85
781.358	779.93
781.54	827.04
781.721	720.54
781.903	851.61
782.085	790.17
782.267	859.81
782.448	808.61
782.63	790.17
782.812	777.89
782.993	724.64
783.175	835.23
783.357	751.26
783.538	712.35
783.72	732.83
783.901	636.58
784.083	691.87
784.264	763.55
784.446	642.72
784.627	552.61
784.809	673.44
784.99	685.73
785.172	663.2
785.353	706.21
785.535	630.43
785.716	667.3
785.897	630.43
786.079	714.4
786.26	644.77
786.441	626.34
786.623	585.38
786.804	603.81
786.985	648.86
787.167	732.83
787.348	652.96
787.529	593.57
787.71	628.39
787.891	593.57
788.073	630.43
788.254	525.99
788.435	683.68
788.616	575.14
788.797	468.64
788.978	587.43
789.159	540.32
789.34	566.95
789.522	603.81
789.703	515.75
789.884	581.28
790.065	585.38
790.246	655.01
790.427	566.95
790.607	536.23
790.788	571.04
790.969	476.84
791.15	525.99
791.331	532.13
791.512	507.55
791.693	468.64
791.874	464.55
792.054	528.03
792.235	468.64
792.416	495.27
792.597	378.53
792.778	554.66
792.958	474.79
793.139	425.64
793.32	464.55
793.5	374.44
793.681	487.08
793.862	399.01
794.042	376.48
794.223	423.59
794.404	405.16
794.584	415.4
794.765	491.17
794.945	448.16
795.126	401.06
795.306	480.93
795.487	380.58
795.667	458.4
795.848	433.83
796.028	439.97
796.209	399.01
796.389	374.44
796.57	370.34
796.75	372.39
796.93	384.68
797.111	319.14
797.291	345.77
797.471	372.39
797.652	382.63
797.832	323.24
798.012	425.64
798.192	405.16
798.373	382.63
798.553	378.53
798.733	462.5
798.913	347.81
799.093	384.68
799.274	427.68
799.454	403.11
799.634	392.87
799.814	394.92
799.994	392.87
800.174	296.61
800.354	378.53
800.534	313
800.714	368.29
800.894	343.72
801.074	360.1
801.254	366.25
801.434	370.34
801.614	276.13
801.794	280.23
801.974	1244.82
802.154	325.29
802.334	384.68
802.514	321.19
802.693	276.13
802.873	306.85
803.053	427.68
803.233	333.48
803.413	304.81
803.592	310.95
803.772	231.08
803.952	327.33
804.131	308.9
804.311	343.72
804.491	396.96
804.67	218.79
804.85	306.85
805.03	276.13
805.209	284.33
805.389	313
805.568	196.26
805.748	274.09
805.928	284.33
806.107	343.72
806.287	356.01
806.466	345.77
806.646	235.18
806.825	280.23
807.004	233.13
807.184	274.09
807.363	267.94
807.543	257.7
807.722	159.4
807.901	292.52
808.081	272.04
808.26	167.59
808.439	208.55
808.619	243.37
808.798	257.7
808.977	269.99
809.156	249.51
809.336	257.7
809.515	267.94
809.694	239.27
809.873	265.89
810.052	274.09
810.231	380.58
810.411	302.76
810.59	243.37
810.769	200.36
810.948	204.46
811.127	159.4
811.306	161.45
811.485	188.07
811.664	300.71
811.843	274.09
812.022	229.03
812.201	218.79
812.38	245.41
812.559	229.03
812.737	257.7
812.916	202.41
813.095	153.26
813.274	224.94
813.453	169.64
813.632	267.94
813.811	245.41
813.989	79.53
814.168	263.85
814.347	163.5
814.526	183.98
814.704	202.41
814.883	304.81
815.062	167.59
815.24	165.54
815.419	169.64
815.598	198.31
815.776	165.54
815.955	169.64
816.133	77.48
816.312	237.22
816.49	212.65
816.669	169.64
816.847	120.49
817.026	214.7
817.204	153.26
817.383	112.3
817.561	151.21
817.74	200.36
817.918	194.22
818.097	237.22
818.275	153.26
818.453	169.64
818.632	186.02
818.81	157.35
818.988	104.11
819.167	132.78
819.345	173.74
819.523	134.82
819.701	208.55
819.879	147.11
820.058	145.06
820.236	147.11
820.414	145.06
820.592	159.4
820.77	126.63
820.948	153.26
821.127	173.74
821.305	87.72
821.483	95.91
821.661	190.12
821.839	220.84
822.017	106.15
822.195	147.11
822.373	210.6
822.551	118.44
822.729	192.17
822.907	188.07
823.085	161.45
823.262	132.78
823.44	194.22
823.618	116.39
823.796	153.26
823.974	130.73
824.152	52.91
824.329	140.97
824.507	91.82
824.685	157.35
824.863	237.22
825.04	24.23
825.218	175.78
825.396	130.73
825.574	128.68
825.751	81.58
825.929	159.4
826.107	77.48
826.284	71.34
826.462	159.4
826.639	77.48
826.817	120.49
826.994	85.67
827.172	24.23
827.349	188.07
827.527	93.87
827.704	114.34
827.882	157.35
828.059	79.53
828.237	143.02
828.414	175.78
828.591	5.8
828.769	97.96
828.946	20.14
829.124	57
829.301	198.31
829.478	100.01
829.655	200.36
829.833	81.58
830.01	13.99
830.187	65.19
830.364	75.43
830.542	59.05
830.719	83.63
830.896	200.36
831.073	93.87
831.25	126.63
831.427	95.91
831.604	48.81
831.782	97.96
831.959	79.53
832.136	26.28
832.313	89.77
832.49	106.15
832.667	116.39
832.844	59.05
833.021	151.21
833.198	110.25
833.374	30.38
833.551	102.06
833.728	16.04
833.905	48.81
834.082	44.71
834.259	120.49
834.436	149.16
834.612	65.19
834.789	140.97
834.966	93.87
835.143	65.19
835.319	-0.34
835.496	75.43
835.673	95.91
835.85	91.82
836.026	132.78
836.203	71.34
836.38	83.63
836.556	71.34
836.733	77.48
836.909	192.17
837.086	118.44
837.262	24.23
837.439	42.67
837.616	63.15
837.792	73.39
837.968	108.2
838.145	-29.01
838.321	110.25
838.498	34.47
838.674	128.68
838.851	18.09
839.027	112.3
839.203	69.29
839.38	132.78
839.556	95.91
839.732	65.19
839.909	36.52
840.085	120.49
840.261	44.71
840.437	-22.87
840.614	69.29
840.79	106.15
840.966	71.34
841.142	59.05
841.318	110.25
841.494	147.11
841.671	126.63
841.847	38.57
842.023	-2.39
842.199	85.67
842.375	112.3
842.551	-98.64
842.727	-14.68
842.903	87.72
843.079	-33.11
843.255	108.2
843.431	57
843.607	71.34
843.783	9.9
843.959	110.25
844.134	5.8
844.31	159.4
844.486	28.33
844.662	5.8
844.838	-2.39
845.013	67.24
845.189	140.97
845.365	28.33
845.541	46.76
845.716	28.33
845.892	71.34
846.068	18.09
846.244	-59.73
846.419	34.47
846.595	-14.68
846.77	38.57
846.946	104.11
847.122	130.73
847.297	13.99
847.473	136.87
847.648	-18.77
847.824	48.81
847.999	20.14
848.175	34.47
848.35	32.43
848.526	97.96
848.701	52.91
848.876	52.91
849.052	40.62
849.227	-12.63
849.403	77.48
849.578	61.1
849.753	-0.34
849.929	-10.58
850.104	-37.2
850.279	61.1
850.454	22.19
850.63	73.39
850.805	61.1
850.98	102.06
851.155	30.38
851.33	59.05
851.505	34.47
851.681	63.15
851.856	75.43
852.031	87.72
852.206	22.19
852.381	-35.16
852.556	93.87
852.731	52.91
852.906	67.24
853.081	44.71
853.256	145.06
853.431	20.14
853.606	-26.96
853.781	-33.11
853.956	-41.3
854.131	44.71
854.305	-59.73
854.48	30.38
854.655	-35.16
854.83	-33.11
855.005	9.9
855.18	26.28
855.354	9.9
855.529	85.67
855.704	28.33
855.879	52.91
856.053	13.99
856.228	11.95
856.403	-2.39
856.577	-65.88
856.752	-53.59
856.926	30.38
857.101	34.47
857.276	-61.78
857.45	75.43
857.625	85.67
857.799	22.19
857.974	-8.53
858.148	-65.88
858.323	16.04
858.497	-43.35
858.672	-20.82
858.846	-18.77
859.02	24.23
859.195	-59.73
859.369	-14.68
859.543	26.28
859.718	69.29
859.892	-24.92
860.066	16.04
860.241	-35.16
860.415	-12.63
860.589	-35.16
860.763	-6.49
860.938	20.14
861.112	46.76
861.286	-33.11
861.46	7.85
861.634	75.43
861.808	149.16
861.982	38.57
862.157	-119.12
862.331	-39.25
862.505	-24.92
862.679	-2.39
862.853	-2.39
863.027	-39.25
863.201	91.82
863.375	-6.49
863.549	57
863.722	28.33
863.896	20.14
864.07	-53.59
864.244	28.33
864.418	134.82
864.592	57
864.766	11.95
864.939	30.38
865.113	48.81
865.287	77.48
865.461	-20.82
865.634	52.91
865.808	-8.53
865.982	13.99
866.156	-29.01
866.329	-14.68
866.503	-37.2
866.676	89.77
866.85	5.8
867.024	48.81
867.197	100.01
867.371	87.72
867.544	95.91
867.718	-39.25
867.891	54.95
868.065	-33.11
868.238	-31.06
868.412	54.95
868.585	77.48
868.759	-31.06
868.932	-37.2
869.105	-78.16
869.279	-45.4
869.452	-37.2
869.625	-41.3
869.799	-61.78
869.972	-47.44
870.145	-94.55
870.319	36.52
870.492	-55.64
870.665	11.95
870.838	-29.01
871.011	-43.35
871.185	-35.16
871.358	22.19
871.531	57
871.704	38.57
871.877	36.52
872.05	-39.25
872.223	-82.26
872.396	48.81
872.569	-4.44
872.742	-51.54
872.915	-0.34
873.088	-33.11
873.261	-29.01
873.434	24.23
873.607	-41.3
873.78	-4.44
873.953	-0.34
874.126	9.9
874.299	-26.96
874.471	-10.58
874.644	-29.01
874.817	16.04
874.99	3.75
875.163	-6.49
875.335	22.19
875.508	-115.03
875.681	32.43
875.853	-61.78
876.026	-53.59
876.199	-18.77
876.371	-43.35
876.544	-16.73
876.717	57
876.889	-22.87
877.062	52.91
877.234	-29.01
877.407	3.75
877.579	-80.21
877.752	61.1
877.924	16.04
878.097	89.77
878.269	3.75
878.442	9.9
878.614	-10.58
878.786	16.04
878.959	24.23
879.131	-59.73
879.303	-108.88
879.476	57
879.648	69.29
879.82	-6.49
879.993	42.67
880.165	-14.68
880.337	-88.4
880.509	-16.73
880.681	-65.88
880.854	3.75
881.026	5.8
881.198	40.62
881.37	13.99
881.542	11.95
881.714	-53.59
881.886	-37.2
882.058	-53.59
882.23	-57.68
882.402	1.71
882.574	-20.82
882.746	1.71
882.918	40.62
883.09	3.75
883.262	-61.78
883.434	-0.34
883.606	-76.12
883.778	-0.34
883.95	9.9
884.122	1.71
884.293	75.43
884.465	-39.25
884.637	120.49
884.809	-14.68
884.98	-29.01
885.152	16.04
885.324	22.19
885.496	-59.73
885.667	-92.5
885.839	-16.73
886.011	67.24
886.182	61.1
886.354	85.67
886.525	50.86
886.697	61.1
886.869	-55.64
887.04	-35.16
887.212	67.24
887.383	57
887.555	-78.16
887.726	-8.53
887.897	-39.25
888.069	-22.87
888.24	63.15
888.412	32.43
888.583	-119.12
888.754	22.19
888.926	-162.13
889.097	-2.39
889.268	-92.5
889.44	-63.83
889.611	-98.64
889.782	-65.88
889.953	-65.88
890.125	110.25
890.296	-33.11
890.467	11.95
890.638	11.95
890.809	-43.35
890.98	-51.54
891.151	48.81
891.323	40.62
891.494	-16.73
891.665	-35.16
891.836	-14.68
892.007	-24.92
892.178	48.81
892.349	-29.01
892.52	-86.36
892.691	26.28
892.862	-41.3
893.032	-90.45
893.203	-18.77
893.374	75.43
893.545	-22.87
893.716	-20.82
893.887	30.38
894.057	-51.54
894.228	-47.44
894.399	-74.07
894.57	5.8
894.74	-29.01
894.911	-8.53
895.082	-18.77
895.253	-69.97
895.423	-12.63
895.594	52.91
895.764	-8.53
895.935	-63.83
896.106	-74.07
896.276	-16.73
896.447	-22.87
896.617	-6.49
896.788	-26.96
896.958	-35.16
897.129	44.71
897.299	46.76
897.47	46.76
897.64	36.52
897.81	5.8
897.981	26.28
898.151	-37.2
898.322	-33.11
898.492	28.33
898.662	-31.06
898.832	-51.54
899.003	3.75
899.173	87.72
899.343	-16.73
899.513	-76.12
