Data from USB4F104151__78__12-12-50-301.txt Node

Date: Fri Mar 14 12:12:50 EDT 2025
User: louis
Spectrometer: USB4F10415
Trigger mode: 4
Integration Time (sec): 5.000000E-2
Scans to average: 1
Electric dark correction enabled: true
Nonlinearity correction enabled: false
Boxcar width: 0
XAxis mode: Wavelengths
Number of Pixels in Spectrum: 3648
>>>>>Begin Spectral Data<<<<<
178.204	-183.29
178.424	-183.29
178.644	-183.29
178.864	-158.72
179.084	-224.25
179.304	27.65
179.524	-1.02
179.744	-11.26
179.964	29.7
180.184	-21.5
180.404	-27.65
180.624	-23.55
180.844	15.36
181.064	21.5
181.283	37.89
181.503	-54.27
181.723	7.17
181.943	-82.94
182.163	82.94
182.383	-21.5
182.602	-5.12
182.822	-1.02
183.042	17.41
183.262	19.46
183.482	9.22
183.701	27.65
183.921	39.94
184.141	11.26
184.361	72.7
184.58	41.98
184.8	17.41
185.02	-37.89
185.239	37.89
185.459	-17.41
185.679	41.98
185.898	-17.41
186.118	107.52
186.338	58.37
186.557	44.03
186.777	-64.51
186.997	-23.55
187.216	31.74
187.436	46.08
187.655	48.13
187.875	41.98
188.095	-58.37
188.314	35.84
188.534	25.6
188.753	-39.94
188.973	142.33
189.192	132.09
189.412	39.94
189.631	-1.02
189.851	-5.12
190.07	35.84
190.29	-64.51
190.509	48.13
190.729	142.33
190.948	50.18
191.168	216.06
191.387	130.05
191.607	62.46
191.826	29.7
192.045	37.89
192.265	1.02
192.484	-27.65
192.704	3.07
192.923	-25.6
193.142	105.47
193.362	-7.17
193.581	48.13
193.8	23.55
194.02	11.26
194.239	-146.43
194.458	95.23
194.678	-33.79
194.897	9.22
195.116	-3.07
195.335	-23.55
195.555	-21.5
195.774	48.13
195.993	29.7
196.212	46.08
196.432	46.08
196.651	11.26
196.87	54.27
197.089	148.48
197.308	19.46
197.528	62.46
197.747	-60.42
197.966	-29.7
198.185	117.76
198.404	-80.89
198.623	7.17
198.842	9.22
199.062	138.24
199.281	99.33
199.5	62.46
199.719	158.72
199.938	80.89
200.157	115.71
200.376	76.8
200.595	41.98
200.814	58.37
201.033	31.74
201.252	31.74
201.471	44.03
201.69	91.13
201.909	19.46
202.128	9.22
202.347	23.55
202.566	41.98
202.785	-13.31
203.004	-89.09
203.223	128
203.442	-99.33
203.661	78.85
203.879	74.75
204.098	13.31
204.317	25.6
204.536	11.26
204.755	84.99
204.974	-5.12
205.193	33.79
205.411	199.68
205.63	64.51
205.849	58.37
206.068	-35.84
206.287	11.26
206.505	74.75
206.724	62.46
206.943	-48.13
207.162	-46.08
207.381	35.84
207.599	41.98
207.818	37.89
208.037	48.13
208.255	46.08
208.474	76.8
208.693	93.18
208.911	17.41
209.13	50.18
209.349	84.99
209.567	97.28
209.786	70.65
210.005	56.32
210.223	-37.89
210.442	19.46
210.661	33.79
210.879	99.33
211.098	39.94
211.316	9.22
211.535	62.46
211.753	17.41
211.972	74.75
212.191	-21.5
212.409	-13.31
212.628	7.17
212.846	-56.32
213.065	15.36
213.283	93.18
213.502	-15.36
213.72	3.07
213.938	50.18
214.157	15.36
214.375	119.81
214.594	-64.51
214.812	-21.5
215.031	74.75
215.249	-27.65
215.467	60.42
215.686	41.98
215.904	35.84
216.122	11.26
216.341	115.71
216.559	-25.6
216.778	-19.46
216.996	125.95
217.214	23.55
217.432	-15.36
217.651	-7.17
217.869	-41.98
218.087	27.65
218.306	-1.02
218.524	3.07
218.742	27.65
218.96	25.6
219.179	44.03
219.397	19.46
219.615	150.53
219.833	-17.41
220.051	-103.42
220.27	103.42
220.488	13.31
220.706	25.6
220.924	-7.17
221.142	5.12
221.36	37.89
221.578	25.6
221.796	-1.02
222.015	68.61
222.233	-7.17
222.451	130.05
222.669	-17.41
222.887	52.22
223.105	-13.31
223.323	13.31
223.541	17.41
223.759	91.13
223.977	-25.6
224.195	56.32
224.413	76.8
224.631	48.13
224.849	-3.07
225.067	78.85
225.285	21.5
225.503	-5.12
225.721	-103.42
225.939	74.75
226.157	13.31
226.375	205.82
226.592	-46.08
226.81	1.02
227.028	95.23
227.246	56.32
227.464	72.7
227.682	37.89
227.9	27.65
228.117	25.6
228.335	41.98
228.553	-7.17
228.771	35.84
228.989	74.75
229.206	66.56
229.424	-3.07
229.642	-9.22
229.86	-13.31
230.077	46.08
230.295	46.08
230.513	103.42
230.731	50.18
230.948	54.27
231.166	123.9
231.384	-25.6
231.601	-111.61
231.819	23.55
232.037	-119.81
232.254	-35.84
232.472	13.31
232.689	-11.26
232.907	93.18
233.125	70.65
233.342	-76.8
233.56	74.75
233.777	-21.5
233.995	33.79
234.213	70.65
234.43	19.46
234.648	-19.46
234.865	33.79
235.083	39.94
235.3	60.42
235.518	91.13
235.735	76.8
235.953	132.09
236.17	11.26
236.388	-27.65
236.605	17.41
236.822	95.23
237.04	146.43
237.257	7.17
237.475	-41.98
237.692	50.18
237.909	-15.36
238.127	11.26
238.344	-5.12
238.562	54.27
238.779	-37.89
238.996	39.94
239.214	23.55
239.431	97.28
239.648	-19.46
239.865	35.84
240.083	39.94
240.3	37.89
240.517	-44.03
240.735	-23.55
240.952	29.7
241.169	52.22
241.386	-1.02
241.603	5.12
241.821	-41.98
242.038	60.42
242.255	17.41
242.472	-50.18
242.689	33.79
242.907	50.18
243.124	27.65
243.341	7.17
243.558	-11.26
243.775	35.84
243.992	-41.98
244.209	-1.02
244.426	115.71
244.643	60.42
244.86	54.27
245.078	64.51
245.295	48.13
245.512	19.46
245.729	-11.26
245.946	27.65
246.163	66.56
246.38	107.52
246.597	44.03
246.814	-37.89
247.031	-56.32
247.248	-21.5
247.464	-29.7
247.681	1.02
247.898	44.03
248.115	48.13
248.332	-17.41
248.549	25.6
248.766	134.14
248.983	64.51
249.2	1.02
249.417	3.07
249.633	-48.13
249.85	76.8
250.067	13.31
250.284	-19.46
250.501	119.81
250.717	70.65
250.934	-41.98
251.151	37.89
251.368	87.04
251.585	64.51
251.801	44.03
252.018	44.03
252.235	17.41
252.451	-3.07
252.668	-15.36
252.885	80.89
253.102	-25.6
253.318	-17.41
253.535	-41.98
253.752	56.32
253.968	-15.36
254.185	-25.6
254.401	72.7
254.618	39.94
254.835	-23.55
255.051	134.14
255.268	58.37
255.484	-35.84
255.701	80.89
255.917	95.23
256.134	35.84
256.351	-31.74
256.567	-60.42
256.784	125.95
257	-74.75
257.217	66.56
257.433	33.79
257.65	58.37
257.866	91.13
258.082	-58.37
258.299	-19.46
258.515	54.27
258.732	-3.07
258.948	-11.26
259.165	78.85
259.381	-21.5
259.597	23.55
259.814	78.85
260.03	39.94
260.246	25.6
260.463	35.84
260.679	23.55
260.895	103.42
261.112	-1.02
261.328	29.7
261.544	23.55
261.761	84.99
261.977	-44.03
262.193	-60.42
262.409	89.09
262.626	117.76
262.842	89.09
263.058	-7.17
263.274	76.8
263.49	7.17
263.707	23.55
263.923	66.56
264.139	-60.42
264.355	21.5
264.571	58.37
264.787	17.41
265.004	58.37
265.22	1.02
265.436	7.17
265.652	5.12
265.868	39.94
266.084	-7.17
266.3	72.7
266.516	-27.65
266.732	37.89
266.948	80.89
267.164	66.56
267.38	25.6
267.596	66.56
267.812	84.99
268.028	19.46
268.244	48.13
268.46	17.41
268.676	11.26
268.892	7.17
269.108	-52.22
269.324	23.55
269.54	-17.41
269.756	64.51
269.972	-1.02
270.188	-1.02
270.403	-23.55
270.619	-3.07
270.835	41.98
271.051	19.46
271.267	-27.65
271.483	-33.79
271.698	-1.02
271.914	33.79
272.13	29.7
272.346	9.22
272.562	-41.98
272.777	7.17
272.993	-39.94
273.209	-1.02
273.425	44.03
273.64	-3.07
273.856	46.08
274.072	-84.99
274.287	48.13
274.503	29.7
274.719	70.65
274.934	-5.12
275.15	-87.04
275.366	7.17
275.581	68.61
275.797	-39.94
276.012	-5.12
276.228	-52.22
276.444	46.08
276.659	66.56
276.875	-1.02
277.09	33.79
277.306	-15.36
277.521	60.42
277.737	1.02
277.952	37.89
278.168	80.89
278.383	-21.5
278.599	50.18
278.814	21.5
279.03	7.17
279.245	58.37
279.461	25.6
279.676	68.61
279.892	-58.37
280.107	-46.08
280.322	9.22
280.538	15.36
280.753	21.5
280.969	11.26
281.184	31.74
281.399	117.76
281.615	23.55
281.83	31.74
282.045	29.7
282.26	-58.37
282.476	-68.61
282.691	91.13
282.906	31.74
283.122	46.08
283.337	3.07
283.552	15.36
283.767	-7.17
283.983	25.6
284.198	27.65
284.413	58.37
284.628	-33.79
284.843	-25.6
285.058	-27.65
285.274	58.37
285.489	-19.46
285.704	107.52
285.919	-35.84
286.134	17.41
286.349	5.12
286.564	-17.41
286.779	132.09
286.995	-15.36
287.21	-1.02
287.425	78.85
287.64	29.7
287.855	119.81
288.07	-44.03
288.285	46.08
288.5	41.98
288.715	46.08
288.93	-52.22
289.145	-17.41
289.36	64.51
289.575	46.08
289.79	46.08
290.004	-25.6
290.219	54.27
290.434	27.65
290.649	-31.74
290.864	37.89
291.079	21.5
291.294	64.51
291.509	62.46
291.724	19.46
291.938	-1.02
292.153	41.98
292.368	-3.07
292.583	78.85
292.798	15.36
293.012	-7.17
293.227	60.42
293.442	76.8
293.657	66.56
293.871	70.65
294.086	15.36
294.301	117.76
294.516	50.18
294.73	-29.7
294.945	1.02
295.16	-66.56
295.374	115.71
295.589	62.46
295.804	15.36
296.018	-25.6
296.233	29.7
296.447	37.89
296.662	-17.41
296.877	37.89
297.091	48.13
297.306	-15.36
297.52	-50.18
297.735	-17.41
297.949	7.17
298.164	84.99
298.378	-11.26
298.593	37.89
298.807	-9.22
299.022	5.12
299.236	48.13
299.451	58.37
299.665	39.94
299.88	31.74
300.094	7.17
300.309	21.5
300.523	27.65
300.737	41.98
300.952	44.03
301.166	-87.04
301.381	56.32
301.595	21.5
301.809	68.61
302.024	52.22
302.238	3.07
302.452	17.41
302.667	-62.46
302.881	70.65
303.095	105.47
303.309	3.07
303.524	-35.84
303.738	60.42
303.952	-29.7
304.166	23.55
304.381	-93.18
304.595	117.76
304.809	-52.22
305.023	50.18
305.237	-15.36
305.452	-23.55
305.666	44.03
305.88	23.55
306.094	66.56
306.308	-37.89
306.522	68.61
306.736	-19.46
306.95	91.13
307.164	87.04
307.379	9.22
307.593	148.48
307.807	29.7
308.021	33.79
308.235	95.23
308.449	-56.32
308.663	3.07
308.877	115.71
309.091	56.32
309.305	-48.13
309.519	-46.08
309.733	-11.26
309.947	1.02
310.161	87.04
310.374	5.12
310.588	-3.07
310.802	-31.74
311.016	46.08
311.23	11.26
311.444	-33.79
311.658	-15.36
311.872	33.79
312.085	29.7
312.299	58.37
312.513	46.08
312.727	31.74
312.941	-48.13
313.154	-19.46
313.368	15.36
313.582	-17.41
313.796	17.41
314.009	50.18
314.223	58.37
314.437	60.42
314.651	17.41
314.864	-15.36
315.078	-19.46
315.292	-62.46
315.505	-23.55
315.719	39.94
315.933	54.27
316.146	-15.36
316.36	-58.37
316.573	-1.02
316.787	125.95
317.001	23.55
317.214	-5.12
317.428	-31.74
317.641	-72.7
317.855	-13.31
318.068	19.46
318.282	15.36
318.495	68.61
318.709	1.02
318.922	-13.31
319.136	158.72
319.349	-1.02
319.563	-23.55
319.776	33.79
319.99	-37.89
320.203	-33.79
320.417	33.79
320.63	3.07
320.843	78.85
321.057	44.03
321.27	1.02
321.483	58.37
321.697	121.85
321.91	13.31
322.124	89.09
322.337	-31.74
322.55	-11.26
322.763	-25.6
322.977	23.55
323.19	-35.84
323.403	-13.31
323.617	128
323.83	103.42
324.043	25.6
324.256	33.79
324.469	9.22
324.683	44.03
324.896	29.7
325.109	-7.17
325.322	-35.84
325.535	23.55
325.748	44.03
325.962	35.84
326.175	64.51
326.388	62.46
326.601	78.85
326.814	-39.94
327.027	17.41
327.24	128
327.453	-39.94
327.666	-17.41
327.879	95.23
328.092	21.5
328.305	25.6
328.518	19.46
328.731	-50.18
328.944	41.98
329.157	-15.36
329.37	1.02
329.583	99.33
329.796	140.29
330.009	-84.99
330.222	25.6
330.435	-33.79
330.648	-15.36
330.861	35.84
331.073	3.07
331.286	48.13
331.499	33.79
331.712	-31.74
331.925	101.37
332.138	31.74
332.35	101.37
332.563	39.94
332.776	41.98
332.989	5.12
333.202	52.22
333.414	3.07
333.627	-27.65
333.84	31.74
334.053	50.18
334.265	-82.94
334.478	-62.46
334.691	56.32
334.903	31.74
335.116	7.17
335.329	37.89
335.541	64.51
335.754	93.18
335.966	-19.46
336.179	17.41
336.392	74.75
336.604	41.98
336.817	-13.31
337.029	11.26
337.242	7.17
337.454	33.79
337.667	44.03
337.88	171.01
338.092	91.13
338.305	66.56
338.517	-7.17
338.729	23.55
338.942	58.37
339.154	13.31
339.367	-5.12
339.579	7.17
339.792	60.42
340.004	-31.74
340.217	23.55
340.429	48.13
340.641	31.74
340.854	11.26
341.066	54.27
341.278	60.42
341.491	-7.17
341.703	21.5
341.915	-21.5
342.128	52.22
342.34	9.22
342.552	19.46
342.764	11.26
342.977	-9.22
343.189	84.99
343.401	56.32
343.613	17.41
343.826	-3.07
344.038	1.02
344.25	60.42
344.462	31.74
344.674	60.42
344.886	78.85
345.099	66.56
345.311	91.13
345.523	-9.22
345.735	-60.42
345.947	115.71
346.159	60.42
346.371	33.79
346.583	33.79
346.795	82.94
347.007	46.08
347.219	-1.02
347.431	99.33
347.643	35.84
347.855	-17.41
348.067	64.51
348.279	-23.55
348.491	56.32
348.703	29.7
348.915	15.36
349.127	-15.36
349.339	41.98
349.551	-15.36
349.763	89.09
349.975	60.42
350.187	76.8
350.399	97.28
350.61	54.27
350.822	44.03
351.034	76.8
351.246	13.31
351.458	25.6
351.669	21.5
351.881	91.13
352.093	13.31
352.305	91.13
352.517	-44.03
352.728	105.47
352.94	-7.17
353.152	-37.89
353.363	-15.36
353.575	46.08
353.787	54.27
353.999	82.94
354.21	46.08
354.422	31.74
354.633	33.79
354.845	52.22
355.057	25.6
355.268	46.08
355.48	64.51
355.692	-50.18
355.903	-35.84
356.115	-7.17
356.326	-62.46
356.538	33.79
356.749	64.51
356.961	78.85
357.172	15.36
357.384	-23.55
357.595	87.04
357.807	64.51
358.018	33.79
358.23	76.8
358.441	74.75
358.653	33.79
358.864	82.94
359.075	5.12
359.287	78.85
359.498	84.99
359.709	60.42
359.921	23.55
360.132	23.55
360.344	17.41
360.555	39.94
360.766	66.56
360.977	39.94
361.189	64.51
361.4	-19.46
361.611	99.33
361.823	97.28
362.034	29.7
362.245	-54.27
362.456	23.55
362.667	58.37
362.879	-19.46
363.09	39.94
363.301	50.18
363.512	62.46
363.723	48.13
363.935	-46.08
364.146	29.7
364.357	-37.89
364.568	33.79
364.779	-3.07
364.99	91.13
365.201	-70.65
365.412	70.65
365.623	-5.12
365.834	39.94
366.045	11.26
366.256	52.22
366.467	11.26
366.678	27.65
366.889	-15.36
367.1	97.28
367.311	35.84
367.522	37.89
367.733	11.26
367.944	27.65
368.155	-44.03
368.366	76.8
368.577	37.89
368.788	101.37
368.999	15.36
369.209	-25.6
369.42	117.76
369.631	99.33
369.842	80.89
370.053	-3.07
370.264	7.17
370.474	-52.22
370.685	-15.36
370.896	39.94
371.107	107.52
371.317	66.56
371.528	17.41
371.739	93.18
371.95	21.5
372.16	19.46
372.371	5.12
372.582	-21.5
372.792	39.94
373.003	62.46
373.214	52.22
373.424	7.17
373.635	-11.26
373.846	107.52
374.056	82.94
374.267	41.98
374.477	15.36
374.688	-5.12
374.898	60.42
375.109	66.56
375.319	23.55
375.53	-7.17
375.74	-11.26
375.951	39.94
376.161	37.89
376.372	111.61
376.582	31.74
376.793	50.18
377.003	5.12
377.214	3.07
377.424	25.6
377.635	66.56
377.845	7.17
378.055	97.28
378.266	11.26
378.476	56.32
378.686	64.51
378.897	23.55
379.107	123.9
379.317	62.46
379.528	95.23
379.738	70.65
379.948	23.55
380.158	89.09
380.369	46.08
380.579	33.79
380.789	115.71
380.999	76.8
381.21	39.94
381.42	103.42
381.63	21.5
381.84	44.03
382.05	-27.65
382.261	41.98
382.471	80.89
382.681	13.31
382.891	91.13
383.101	109.57
383.311	46.08
383.521	62.46
383.731	33.79
383.941	64.51
384.151	33.79
384.361	41.98
384.571	48.13
384.781	82.94
384.991	66.56
385.201	109.57
385.411	41.98
385.621	72.7
385.831	19.46
386.041	31.74
386.251	37.89
386.461	128
386.671	31.74
386.881	121.85
387.091	-41.98
387.301	82.94
387.511	-19.46
387.72	48.13
387.93	95.23
388.14	-58.37
388.35	-3.07
388.56	148.48
388.769	21.5
388.979	-15.36
389.189	9.22
389.399	39.94
389.609	9.22
389.818	33.79
390.028	76.8
390.238	17.41
390.447	-15.36
390.657	37.89
390.867	50.18
391.076	-31.74
391.286	5.12
391.496	-46.08
391.705	-25.6
391.915	-3.07
392.125	76.8
392.334	-39.94
392.544	56.32
392.753	62.46
392.963	-23.55
393.172	99.33
393.382	-11.26
393.591	134.14
393.801	101.37
394.01	41.98
394.22	56.32
394.429	29.7
394.639	64.51
394.848	66.56
395.058	50.18
395.267	87.04
395.477	33.79
395.686	56.32
395.895	76.8
396.105	160.77
396.314	44.03
396.524	39.94
396.733	35.84
396.942	60.42
397.152	21.5
397.361	128
397.57	68.61
397.78	70.65
397.989	125.95
398.198	89.09
398.407	113.66
398.617	64.51
398.826	89.09
399.035	3.07
399.244	105.47
399.453	84.99
399.663	-3.07
399.872	68.61
400.081	-21.5
400.29	191.49
400.499	17.41
400.708	148.48
400.917	19.46
401.127	80.89
401.336	19.46
401.545	138.24
401.754	130.05
401.963	39.94
402.172	78.85
402.381	50.18
402.59	21.5
402.799	74.75
403.008	107.52
403.217	187.39
403.426	78.85
403.635	15.36
403.844	52.22
404.053	97.28
404.262	11.26
404.471	107.52
404.68	91.13
404.888	-3.07
405.097	3.07
405.306	95.23
405.515	76.8
405.724	35.84
405.933	105.47
406.142	103.42
406.35	195.58
406.559	56.32
406.768	166.91
406.977	74.75
407.185	109.57
407.394	140.29
407.603	33.79
407.812	109.57
408.02	146.43
408.229	179.2
408.438	166.91
408.646	78.85
408.855	105.47
409.064	152.57
409.272	171.01
409.481	185.34
409.69	76.8
409.898	119.81
410.107	224.25
410.315	220.16
410.524	193.53
410.733	173.05
410.941	242.68
411.15	207.87
411.358	220.16
411.567	238.59
411.775	197.63
411.984	238.59
412.192	269.31
412.401	277.5
412.609	312.32
412.818	320.51
413.026	357.37
413.234	273.4
413.443	343.03
413.651	312.32
413.86	220.16
414.068	275.45
414.276	427
414.485	367.61
414.693	408.57
414.901	377.85
415.11	381.95
415.318	390.14
415.526	433.15
415.734	527.35
415.943	447.48
416.151	551.93
416.359	525.3
416.567	494.58
416.776	527.35
416.984	621.56
417.192	578.55
417.4	586.74
417.608	539.64
417.817	599.03
418.025	666.61
418.233	785.4
418.441	656.37
418.649	582.65
418.857	754.68
419.065	865.27
419.273	719.86
419.481	775.16
419.689	865.27
419.897	771.06
420.105	869.36
420.313	967.67
420.521	1000.43
420.729	926.71
420.937	959.47
421.145	977.91
421.353	1055.73
421.561	1049.58
421.769	1106.93
421.977	1100.78
422.185	1156.08
422.393	1256.43
422.601	1295.34
422.809	1207.28
423.017	1246.19
423.224	1270.76
423.432	1420.27
423.64	1403.88
423.848	1573.86
424.056	1475.56
424.263	1541.1
424.471	1543.14
424.679	1711.08
424.887	1653.73
425.094	1813.48
425.302	1674.21
425.51	1745.89
425.718	1934.31
425.925	1905.63
426.133	1868.77
426.341	2124.77
426.548	2145.25
426.756	2175.97
426.964	2188.25
427.171	2337.76
427.379	2403.29
427.586	2401.24
427.794	2595.8
428.001	2647
428.209	2737.11
428.417	2659.29
428.624	2864.08
428.832	3056.59
429.039	2857.94
429.247	2835.41
429.454	3148.75
429.662	3316.69
429.869	3097.55
430.076	3421.13
430.284	3210.19
430.491	3458
430.699	3552.2
430.906	3615.69
431.114	3648.46
431.321	3779.53
431.528	3685.32
431.736	3963.84
431.943	4256.7
432.15	4125.63
432.358	4156.35
432.565	4516.8
432.772	4481.98
432.979	4578.23
433.187	4776.89
433.394	4539.32
433.601	4979.64
433.808	5198.77
434.016	5190.58
434.223	5149.62
434.43	5516.2
434.637	5454.76
434.844	5792.68
435.052	5876.65
435.259	5884.84
435.466	5925.8
435.673	5831.59
435.88	6237.09
436.087	6562.72
436.294	6529.95
436.501	6470.56
436.708	6593.44
436.915	6669.21
437.122	6992.79
437.329	7050.13
437.537	7177.11
437.743	7383.95
437.95	7373.71
438.157	7642
438.364	7861.13
438.571	7805.83
438.778	8141.7
438.985	8610.68
439.192	8430.46
439.399	8532.86
439.606	8342.4
439.813	8850.3
440.02	9513.84
440.227	9341.81
440.433	9184.12
440.64	9657.2
440.847	9581.42
441.054	9659.24
441.261	10251.11
441.467	9902.95
441.674	10271.59
441.881	10650.46
442.088	10589.02
442.294	10650.46
442.501	10986.33
442.708	11187.03
442.914	11463.51
443.121	12008.26
443.328	11570
443.534	12667.71
443.741	12165.96
443.948	11981.64
444.154	13013.82
444.361	12774.21
444.568	12825.4
444.774	13087.54
444.981	13005.63
445.187	13581.1
445.394	14082.86
445.6	13634.35
445.807	15055.64
446.013	14373.67
446.22	14723.87
446.426	15475.48
446.633	15342.36
446.839	15762.19
447.046	15389.46
447.252	16079.63
447.459	16220.94
447.665	15936.27
447.871	16737.02
448.078	17455.86
448.284	16657.15
448.491	16986.88
448.697	17941.23
448.903	18080.49
449.11	18254.57
449.316	17576.69
449.522	18178.79
449.728	18526.95
449.935	19139.29
450.141	18754.27
450.347	19335.9
450.553	18561.76
450.76	18848.48
450.966	19444.44
451.172	19356.38
451.378	19991.25
451.584	19397.34
451.791	19796.69
451.997	19823.31
452.203	20064.97
452.409	20337.35
452.615	19968.72
452.821	19270.36
453.027	19352.28
453.233	20249.29
453.44	19372.76
453.646	19616.47
453.852	19745.49
454.058	20079.31
454.264	19616.47
454.47	19808.98
454.676	19227.35
454.882	20050.64
455.088	18055.92
455.294	18469.61
455.5	18823.9
455.705	19342.04
455.911	18223.85
456.117	17670.9
456.323	17638.13
456.529	16642.82
456.735	17509.11
456.941	16986.88
457.147	16886.53
457.352	16237.32
457.558	15966.99
457.764	16110.35
457.97	15833.87
458.176	15287.06
458.381	15616.79
458.587	14773.02
458.793	14572.32
458.999	13845.29
459.204	15123.23
459.41	14414.63
459.616	13468.47
459.821	13630.26
460.027	13060.92
460.233	13079.35
460.438	12313.41
460.644	12616.51
460.85	12190.53
461.055	11803.47
461.261	11856.72
461.466	10992.47
461.672	10705.76
461.878	11535.18
462.083	10738.52
462.289	10537.82
462.494	10191.72
462.7	9974.63
462.905	9569.13
463.111	9911.14
463.316	9952.1
463.522	9773.93
463.727	9749.36
463.932	9624.43
464.138	9646.96
464.343	9530.22
464.549	9497.46
464.754	9757.55
464.959	9579.37
465.165	9331.57
465.37	9040.76
465.575	8811.39
465.781	9284.47
465.986	9208.69
466.191	8987.51
466.397	8747.9
466.602	8285.06
466.807	8508.29
467.012	8680.32
467.218	8596.35
467.423	8420.22
467.628	8358.78
467.833	8727.42
468.038	8377.22
468.244	8254.34
468.449	8602.49
468.654	8301.44
468.859	8160.13
469.064	8299.39
469.269	8061.83
469.474	7773.07
469.679	8162.18
469.885	7883.66
470.09	7857.03
470.295	7861.13
470.5	7656.33
470.705	7807.88
470.91	7635.85
471.115	7607.18
471.32	7736.2
471.525	7750.54
471.73	7336.85
471.935	7256.98
472.139	7066.52
472.344	7187.35
472.549	7093.14
472.754	6980.5
472.959	6972.31
473.164	6759.32
473.369	6663.07
473.574	7021.46
473.778	6732.7
473.983	6742.94
474.188	7025.56
474.393	6380.45
474.598	6429.6
474.802	6468.51
475.007	6345.63
475.212	6482.85
475.417	6091.68
475.621	6288.29
475.826	6171.55
476.031	5991.33
476.235	5958.57
476.44	6126.5
476.645	5983.14
476.849	5882.79
477.054	5651.37
477.259	5807.02
477.463	5737.38
477.668	5583.79
477.872	5796.78
478.077	5434.29
478.282	5323.69
478.486	5426.09
478.691	5249.97
478.895	5352.37
479.1	5424.05
479.304	5264.3
479.509	5258.16
479.713	5444.52
479.918	4991.92
480.122	5077.94
480.326	5067.7
480.531	5192.62
480.735	5057.46
480.94	4946.87
481.144	5219.25
481.348	4721.59
481.553	4971.44
481.757	4977.59
481.961	4924.34
482.166	4932.53
482.37	4946.87
482.574	4828.09
482.778	4740.02
482.983	4932.53
483.187	4850.61
483.391	4811.7
483.595	4928.44
483.8	4809.65
484.004	4973.49
484.208	4946.87
484.412	4871.09
484.616	4901.81
484.821	4860.85
485.025	4717.5
485.229	4805.56
485.433	4715.45
485.637	4871.09
485.841	4762.55
486.045	4916.15
486.249	4858.81
486.453	4828.09
486.657	4830.13
486.861	4854.71
487.065	4643.77
487.269	4797.37
487.473	4873.14
487.677	4826.04
487.881	4985.78
488.085	4785.08
488.289	4823.99
488.493	4709.3
488.697	4987.83
488.901	4864.95
489.105	4729.78
489.309	4748.22
489.512	4965.3
489.716	4817.85
489.92	4774.84
490.124	4889.53
490.328	4936.63
490.531	4850.61
490.735	5059.51
490.939	4983.73
491.143	5028.79
491.346	5006.26
491.55	5055.41
491.754	4940.72
491.958	5127.09
492.161	4946.87
492.365	4940.72
492.569	4987.83
492.772	5004.21
492.976	5190.58
493.18	5084.08
493.383	5227.44
493.587	5141.43
493.79	5172.15
493.994	5161.91
494.197	5241.78
494.401	5223.34
494.605	5168.05
494.808	5303.22
495.012	5340.08
495.215	5544.88
495.419	5596.07
495.622	5505.96
495.825	5516.2
496.029	5454.76
496.232	5761.96
496.436	5565.36
496.639	5749.67
496.843	5755.82
497.046	5700.52
497.249	5792.68
497.453	5913.51
497.656	5884.84
497.859	6097.83
498.063	6155.17
498.266	6112.16
498.469	6042.53
498.673	6278.05
498.876	6359.97
499.079	6302.62
499.282	6331.3
499.485	6558.62
499.689	6511.52
499.892	6601.63
500.095	6611.87
500.298	6904.73
500.501	6736.79
500.705	6802.33
500.908	6953.88
501.111	7013.27
501.314	7113.62
501.517	7125.91
501.72	7156.63
501.923	7297.94
502.126	7365.52
502.329	7633.8
502.532	7560.08
502.735	7652.24
502.938	7730.06
503.141	7621.52
503.344	7807.88
503.547	8037.25
503.75	7943.05
503.953	7809.93
504.156	8215.43
504.359	8223.62
504.562	8297.35
504.765	8375.17
504.968	8424.32
505.17	8778.62
505.373	8657.79
505.576	8690.56
505.779	8919.93
505.982	8846.2
506.185	9016.18
506.387	9116.53
506.59	9204.6
506.793	9321.33
506.996	9302.9
507.198	9393.01
507.401	9651.05
507.604	9659.24
507.807	9931.62
508.009	9898.86
508.212	9831.27
508.415	10171.24
508.617	10169.19
508.82	10279.78
509.022	10052.45
509.225	10277.73
509.428	10240.87
509.63	10552.16
509.833	10314.59
510.035	10853.21
510.238	10638.17
510.44	10918.75
510.643	10945.37
510.845	11121.49
511.048	11037.53
511.25	11275.09
511.453	11307.86
511.655	11774.8
511.858	11711.31
512.06	11918.15
512.262	11758.41
512.465	11832.14
512.667	11977.55
512.87	12034.89
513.072	12055.37
513.274	12235.59
513.477	12292.93
513.679	12501.83
513.881	12743.49
514.084	12935.99
514.286	12862.27
514.488	12833.6
514.69	13210.42
514.893	13331.25
515.095	13423.41
515.297	13421.36
515.499	13462.32
515.701	13534
515.904	13884.2
516.106	13882.16
516.308	13861.68
516.51	14121.77
516.712	14146.34
516.914	14250.79
517.116	14433.06
517.318	14301.99
517.52	14394.15
517.722	14824.22
517.925	14668.58
518.127	14820.13
518.329	15262.49
518.531	14816.03
518.733	15141.66
518.935	15311.64
519.136	15461.14
519.338	15385.37
519.54	15338.26
519.742	15817.49
519.944	15817.49
520.146	15674.13
520.348	16192.26
520.55	16177.93
520.752	15969.04
520.954	16411.4
521.155	16024.33
521.357	16593.67
521.559	16476.93
521.761	16409.35
521.963	16542.47
522.164	16737.02
522.366	16823.04
522.568	16857.85
522.77	16681.73
522.971	17234.68
523.173	16900.86
523.375	17388.28
523.576	17328.89
523.778	17165.05
523.98	17404.66
524.181	17302.26
524.383	17468.15
524.584	17535.73
524.786	17615.6
524.988	17445.62
525.189	18072.3
525.391	17924.85
525.592	17847.02
525.794	18189.03
525.995	18168.55
526.197	18232.04
526.398	18160.36
526.6	18283.24
526.801	18262.76
527.003	18117.36
527.204	18219.75
527.406	18631.4
527.607	18395.88
527.808	18447.08
528.01	18168.55
528.211	18490.09
528.412	18893.54
528.614	18696.93
528.815	18746.08
529.016	18823.9
529.218	18498.28
529.419	18709.22
529.62	18428.65
529.822	18733.79
530.023	18717.41
530.224	18776.8
530.425	18696.93
530.626	18703.07
530.828	18692.83
531.029	19155.68
531.23	18752.23
531.431	19006.17
531.632	18991.84
531.833	18920.16
532.035	18897.63
532.236	18858.72
532.437	18780.9
532.638	18967.26
532.839	19157.72
533.04	18909.92
533.241	19239.64
533.442	19299.03
533.643	18791.14
533.844	18916.06
534.045	18803.43
534.246	18852.58
534.447	18997.98
534.648	18854.62
534.849	19051.23
535.05	18852.58
535.251	18854.62
535.451	18952.93
535.652	18862.82
535.853	18934.5
536.054	19167.96
536.255	19024.61
536.456	18813.66
536.657	19106.52
536.857	18940.64
537.058	18686.69
537.259	18754.27
537.46	18868.96
537.66	18766.56
537.861	18877.15
538.062	18907.87
538.263	18885.34
538.463	18997.98
538.664	19036.89
538.865	18952.93
539.065	18934.5
539.266	18811.62
539.466	19206.87
539.667	18815.71
539.868	18938.59
540.068	18844.38
540.269	18586.34
540.469	19045.09
540.67	18696.93
540.87	18764.51
541.071	18969.31
541.271	18817.76
541.472	18711.27
541.672	18813.66
541.873	18764.51
542.073	18371.3
542.274	18854.62
542.474	18625.25
542.675	18356.97
542.875	18815.71
543.075	18600.68
543.276	18610.92
543.476	19110.62
543.676	18404.07
543.877	18608.87
544.077	18686.69
544.277	18828
544.478	18754.27
544.678	18660.07
544.878	18565.86
545.078	18688.74
545.279	18299.62
545.479	18428.65
545.679	18768.61
545.879	18551.52
546.079	18903.78
546.28	18475.75
546.48	18422.5
546.68	18952.93
546.88	18457.32
547.08	18739.94
547.28	18600.68
547.48	18311.91
547.68	18844.38
547.88	18311.91
548.081	18410.22
548.281	18762.47
548.481	18535.14
548.681	18582.24
548.881	18467.56
549.081	18774.75
549.28	18367.21
549.48	18713.31
549.68	18488.04
549.88	18705.12
550.08	18551.52
550.28	18584.29
550.48	18318.06
550.68	18574.05
550.88	18363.11
551.08	18526.95
551.279	18604.77
551.479	18213.61
551.679	18500.33
551.879	18696.93
552.079	18836.19
552.278	18588.39
552.478	18555.62
552.678	18408.17
552.878	18461.41
553.077	18440.93
553.277	18322.15
553.477	18520.81
553.676	18424.55
553.876	18475.75
554.076	18057.96
554.275	18475.75
554.475	18250.47
554.674	18152.17
554.874	18320.1
555.074	18330.34
555.273	18346.73
555.473	18465.51
555.672	18260.71
555.872	18264.81
556.071	18340.58
556.271	18359.02
556.47	18086.64
556.67	18229.99
556.869	18180.84
557.068	18354.92
557.268	18121.45
557.467	18252.52
557.667	18174.7
557.866	18412.26
558.065	18152.17
558.265	17982.19
558.464	18051.82
558.663	18344.68
558.863	17844.98
559.062	18301.67
559.261	17914.61
559.461	18365.16
559.66	18135.79
559.859	18049.77
560.058	18002.67
560.258	18320.1
560.457	17994.48
560.656	18299.62
560.855	18084.59
561.054	18023.15
561.253	17967.85
561.453	17898.22
561.652	18246.38
561.851	17683.19
562.05	17840.88
562.249	17750.77
562.448	18004.72
562.647	18041.58
562.846	18012.91
563.045	17967.85
563.244	17865.46
563.443	18186.99
563.642	17447.67
563.841	17953.52
564.04	17439.48
564.239	18281.19
564.438	17826.54
564.637	17885.94
564.836	17758.96
565.035	17781.49
565.234	17478.39
565.432	17709.81
565.631	17525.49
565.83	17771.25
566.029	17603.32
566.228	17627.89
566.427	17464.05
566.625	17462.01
566.824	17244.92
567.023	17601.27
567.222	17400.57
567.42	17838.83
567.619	17386.23
567.818	17287.93
568.016	17574.64
568.215	17570.55
568.414	17724.15
568.612	17425.14
568.811	17562.36
569.01	17578.74
569.208	17406.71
569.407	17580.79
569.605	17277.69
569.804	17154.81
570.002	17232.63
570.201	17165.05
570.4	17052.41
570.598	17038.08
570.797	17365.75
570.995	17210.11
571.193	16988.92
571.392	17371.89
571.59	17124.09
571.789	17206.01
571.987	16896.77
572.186	17203.96
572.384	16888.57
572.582	17072.89
572.781	17105.66
572.979	16829.18
573.177	16956.16
573.376	17199.87
573.574	17031.93
573.772	16945.92
573.971	16823.04
574.169	16919.29
574.367	17062.65
574.565	16855.81
574.763	16882.43
574.962	16651.01
575.16	16571.14
575.358	16900.86
575.556	16661.25
575.754	16644.87
575.952	16395.01
576.151	16745.22
576.349	16407.3
576.547	16468.74
576.745	16767.74
576.943	16438.02
577.141	16216.84
577.339	16304.9
577.537	16362.25
577.735	16335.62
577.933	16218.89
578.131	16319.24
578.329	16458.5
578.527	16263.94
578.725	16306.95
578.923	16245.51
579.121	16526.08
579.319	16169.74
579.516	16313.1
579.714	16261.9
579.912	16323.33
580.11	16067.34
580.308	15977.23
580.506	15954.7
580.704	15661.84
580.901	16134.92
581.099	15946.51
581.297	15813.39
581.495	15840.01
581.692	15860.49
581.89	15821.58
582.088	15733.52
582.285	15760.14
582.483	15936.27
582.681	15719.18
582.878	15852.3
583.076	15569.68
583.274	15934.22
583.471	15577.87
583.669	15444.76
583.866	15248.15
584.064	15749.9
584.262	15581.97
584.459	15581.97
584.657	15590.16
584.854	15627.03
585.052	15084.31
585.249	15581.97
585.447	15264.54
585.644	15041.31
585.841	15272.73
586.039	15536.91
586.236	15356.69
586.434	14719.78
586.631	14959.39
586.828	15072.03
587.026	15084.31
587.223	15065.88
587.42	15133.47
587.618	14934.81
587.815	14775.07
588.012	14873.37
588.21	14900
588.407	15211.29
588.604	14820.13
588.801	14715.68
588.999	14885.66
589.196	14807.84
589.393	14981.92
589.59	14603.04
589.787	14435.11
589.984	14799.65
590.182	14408.48
590.379	14725.92
590.576	14353.19
590.773	14517.03
590.97	14451.49
591.167	14297.89
591.364	14285.61
591.561	14385.96
591.758	14541.6
591.955	14342.95
592.152	14494.5
592.349	14299.94
592.546	14318.37
592.743	14099.24
592.94	13906.73
593.137	14045.99
593.334	14168.87
593.531	14068.52
593.727	14076.71
593.924	14211.88
594.121	14013.23
594.318	13871.92
594.515	13634.35
594.712	13937.45
594.908	13802.29
595.105	13859.63
595.302	13536.05
595.499	13972.27
595.696	13650.74
595.892	13718.32
596.089	13790
596.286	13511.47
596.482	13671.22
596.679	13759.28
596.876	13480.75
597.072	13474.61
597.269	13529.91
597.466	13431.6
597.662	13431.6
597.859	13474.61
598.055	13499.19
598.252	13179.7
598.448	13359.92
598.645	13169.46
598.841	13318.96
599.038	13308.72
599.234	13191.99
599.431	13142.84
599.627	13273.91
599.824	13206.33
600.02	12985.15
600.217	13177.65
600.413	13191.99
600.609	12956.47
600.806	12643.14
601.002	13165.37
601.198	12905.28
601.395	13019.96
601.591	12806.97
601.787	13034.3
601.984	12759.87
602.18	12852.03
602.376	12641.09
602.572	12790.59
602.769	12809.02
602.965	12589.89
603.161	12655.42
603.357	12561.22
603.553	12524.35
603.75	12739.39
603.946	12510.02
604.142	12450.63
604.338	12624.7
604.534	12401.47
604.73	12325.7
604.926	12272.45
605.122	12702.53
605.318	12493.63
605.514	12256.07
605.71	12159.81
605.906	12286.79
606.102	12364.61
606.298	12215.11
606.494	12372.8
606.69	12620.61
606.886	12245.83
607.082	11918.15
607.278	12223.3
607.474	11930.44
607.67	12168.01
607.866	11891.53
608.062	12200.77
608.257	11787.08
608.453	12188.49
608.649	12034.89
608.845	11969.35
609.041	11805.52
609.236	11948.87
609.432	11987.79
609.628	11797.32
609.824	11899.72
610.019	11760.46
610.215	11905.87
610.411	11766.6
610.606	11871.05
610.802	11780.94
610.998	11866.95
611.193	11875.15
611.389	11918.15
611.584	11729.74
611.78	11608.91
611.976	11633.49
612.171	11584.34
612.367	11922.25
612.562	11717.45
612.758	11461.46
612.953	11531.09
613.149	11674.45
613.344	11576.14
613.539	11613.01
613.735	11711.31
613.93	11541.33
614.126	11547.47
614.321	11479.89
614.517	11778.89
614.712	11320.15
614.907	11500.37
615.103	11557.71
615.298	11578.19
615.493	11336.53
615.688	11195.22
615.884	11443.03
616.079	11164.5
616.274	11363.15
616.47	11459.41
616.665	11254.61
616.86	11357.01
617.055	11393.87
617.25	11344.72
617.445	11445.07
617.641	11029.34
617.836	11383.63
618.031	11258.71
618.226	11197.27
618.421	10986.33
618.616	11244.37
618.811	10896.22
619.006	11148.12
619.201	11064.15
619.396	11150.17
619.591	10742.62
619.786	10908.51
619.981	10754.91
620.176	11051.86
620.371	10572.64
620.566	10820.44
620.761	10726.24
620.956	10734.43
621.151	10750.81
621.346	10529.63
621.541	10363.75
621.735	10658.65
621.93	10255.2
622.125	10392.42
622.32	10191.72
622.515	10298.21
622.709	10255.2
622.904	10337.12
623.099	10036.07
623.294	10306.4
623.488	10128.23
623.683	10197.86
623.878	9962.34
624.072	10224.48
624.267	9960.3
624.462	9757.55
624.656	9927.53
624.851	10029.93
625.046	9773.93
625.24	9765.74
625.435	9628.53
625.629	9818.99
625.824	9569.13
626.018	9692.01
626.213	9452.4
626.407	9483.12
626.602	9339.76
626.796	9356.15
626.991	9266.03
627.185	9534.32
627.38	9354.1
627.574	9206.64
627.768	9274.23
627.963	9143.16
628.157	8930.17
628.352	8960.89
628.546	8815.48
628.74	9227.12
628.935	8829.82
629.129	8997.75
629.323	8872.82
629.517	8694.65
629.712	8661.88
629.906	8766.33
630.1	8528.77
630.294	8768.38
630.489	8629.12
630.683	8608.64
630.877	8250.24
631.071	8420.22
631.265	8487.81
631.459	8342.4
631.653	8280.96
631.848	8424.32
632.042	8256.39
632.236	8291.2
632.43	8117.12
632.624	8307.59
632.818	7984.01
633.012	8088.45
633.206	7951.24
633.4	8014.73
633.594	7943.05
633.788	7852.94
633.982	7893.9
634.176	8084.36
634.369	7682.95
634.563	7828.36
634.757	7613.32
634.951	7560.08
635.145	7750.54
635.339	7642
635.533	7590.8
635.726	7648.14
635.92	7512.97
636.114	7566.22
636.308	7424.91
636.501	7478.16
636.695	7465.87
636.889	7216.02
637.083	7314.32
637.276	7103.38
637.47	7177.11
637.664	7130
637.857	7140.24
638.051	7062.42
638.244	7013.27
638.438	7142.29
638.632	6951.83
638.825	6990.74
639.019	6962.07
639.212	6839.19
639.406	6874.01
639.599	6833.05
639.793	6804.38
639.986	6765.46
640.18	6701.98
640.373	6687.64
640.567	6628.25
640.76	6701.98
640.954	6306.72
641.147	6495.13
641.34	6499.23
641.534	6466.46
641.727	6460.32
641.92	6378.4
642.114	6474.65
642.307	6298.53
642.5	6247.33
642.694	6239.14
642.887	6208.42
643.08	6120.35
643.273	6120.35
643.467	6187.94
643.66	6036.39
643.853	5907.37
644.046	6091.68
644.239	5972.9
644.432	5907.37
644.626	5847.97
644.819	5753.77
645.012	5827.5
645.205	5657.51
645.398	5802.92
645.591	5589.93
645.784	5680.04
645.977	5561.26
646.17	5579.69
646.363	5565.36
646.556	5426.09
646.749	5696.43
646.942	5532.59
647.135	5589.93
647.328	5503.92
647.521	5692.33
647.714	5452.72
647.907	5342.13
648.099	5335.98
648.292	5348.27
648.485	5395.37
648.678	5280.69
648.871	5233.58
649.064	5213.1
649.256	5149.62
649.449	5194.67
649.642	5041.08
649.835	5028.79
650.027	5043.12
650.22	5018.55
650.413	5110.71
650.605	5028.79
650.798	4993.97
650.991	4930.48
651.183	4940.72
651.376	4852.66
651.568	4936.63
651.761	4877.24
651.954	4953.01
652.146	4774.84
652.339	4768.7
652.531	4811.7
652.724	4729.78
652.916	4660.15
653.109	4645.82
653.301	4676.54
653.494	4637.63
653.686	4494.27
653.879	4707.26
654.071	4543.42
654.263	4504.51
654.456	4406.2
654.648	4498.36
654.84	4447.16
655.033	4465.6
655.225	4490.17
655.417	4355.01
655.61	4477.88
655.802	4463.55
655.994	4389.82
656.186	4254.66
656.379	4293.57
656.571	4232.13
656.763	4248.51
656.955	4166.59
657.148	4250.56
657.34	4271.04
657.532	4250.56
657.724	4051.91
657.916	4101.06
658.108	4115.39
658.3	4021.19
658.492	3998.66
658.684	3986.37
658.876	4049.86
659.068	4012.99
659.26	3914.69
659.452	3892.16
659.644	3920.84
659.836	3900.36
660.028	3879.88
660.22	3867.59
660.412	3795.91
660.604	3716.04
660.796	3908.55
660.988	3670.98
661.18	3683.27
661.372	3759.05
661.563	3810.25
661.755	3685.32
661.947	3732.42
662.139	3677.13
662.331	3552.2
662.522	3455.95
662.714	3490.76
662.906	3517.39
663.097	3642.31
663.289	3476.43
663.481	3541.96
663.673	3523.53
663.864	3412.94
664.056	3552.2
664.247	3437.52
664.439	3380.17
664.631	3292.11
664.822	3441.61
665.014	3281.87
665.205	3371.98
665.397	3230.67
665.588	3365.84
665.78	3400.65
665.971	3388.36
666.163	3367.88
666.354	3251.15
666.546	3240.91
666.737	3277.77
666.929	3306.45
667.12	3271.63
667.311	3138.51
667.503	3118.03
667.694	3134.42
667.885	3140.56
668.077	3337.17
668.268	3113.94
668.459	3122.13
668.651	3015.63
668.842	3099.6
669.033	3087.31
669.224	3154.9
669.416	2991.06
669.607	3077.07
669.798	3001.3
669.989	3175.38
670.18	3038.16
670.371	2952.15
670.563	3038.16
670.754	3052.5
670.945	3036.11
671.136	3005.39
671.327	2935.76
671.518	3064.79
671.709	2974.67
671.9	2952.15
672.091	3046.35
672.282	2847.7
672.473	2946
672.664	2837.46
672.855	2868.18
673.046	2898.9
673.237	2972.63
673.428	2806.74
673.619	2972.63
673.809	2892.76
674	2857.94
674.191	2943.96
674.382	2816.98
674.573	2859.99
674.764	2821.08
674.954	2905.04
675.145	2868.18
675.336	2747.35
675.527	2667.48
675.717	2696.15
675.908	2827.22
676.099	2733.01
676.289	2642.9
676.48	2677.72
676.671	2665.43
676.861	2765.78
677.052	2733.01
677.243	2696.15
677.433	2728.92
677.624	2802.65
677.814	2782.17
678.005	2690.01
678.195	2685.91
678.386	2737.11
678.576	2601.94
678.767	2679.77
678.957	2642.9
679.148	2630.62
679.338	2741.21
679.529	2741.21
679.719	2599.9
679.909	2583.51
680.1	2694.1
680.29	2714.58
680.481	2679.77
680.671	2677.72
680.861	2595.8
681.052	2651.1
681.242	2616.28
681.432	2694.1
681.622	2526.17
681.813	2575.32
682.003	2532.31
682.193	2601.94
682.383	2546.65
682.573	2517.98
682.764	2626.52
682.954	2497.5
683.144	2577.37
683.334	2608.09
683.524	2657.24
683.714	2571.22
683.904	2608.09
684.094	2585.56
684.284	2571.22
684.474	2470.87
684.664	2696.15
684.854	2589.66
685.044	2417.63
685.234	2515.93
685.424	2487.26
685.614	2460.63
685.804	2563.03
685.994	2532.31
686.184	2536.41
686.374	2511.83
686.564	2448.35
686.753	2483.16
686.943	2448.35
687.133	2474.97
687.323	2386.91
687.513	2513.88
687.702	2372.57
687.892	2399.2
688.082	2409.44
688.272	2401.24
688.461	2358.24
688.651	2479.07
688.841	2268.13
689.03	2434.01
689.22	2456.54
689.41	2458.59
689.599	2485.21
689.789	2188.25
689.979	2339.8
690.168	2417.63
690.358	2282.46
690.547	2089.95
690.737	2288.61
690.926	2438.11
691.116	2225.12
691.305	2407.39
691.495	2321.37
691.684	2198.49
691.874	2282.46
692.063	2198.49
692.252	2294.75
692.442	2227.17
692.631	2280.41
692.82	2261.98
693.01	2251.74
693.199	2200.54
693.388	2159.58
693.578	2315.23
693.767	2315.23
693.956	2241.5
694.146	2206.69
694.335	2257.89
694.524	2221.02
694.713	2194.4
694.902	2251.74
695.092	2135.01
695.281	2229.21
695.47	2137.06
695.659	2153.44
695.848	2188.25
696.037	2171.87
696.226	2233.31
696.415	2280.41
696.604	2309.08
696.793	2192.35
696.982	2251.74
697.171	2358.24
697.36	2253.79
697.549	2235.36
697.738	2233.31
697.927	2323.42
698.116	2180.06
698.305	2345.95
698.494	2276.32
698.683	2421.72
698.872	2241.5
699.061	2264.03
699.25	2286.56
699.438	2317.28
699.627	2290.65
699.816	2327.52
700.005	2261.98
700.193	2321.37
700.382	2348
700.571	2423.77
700.76	2345.95
700.948	2364.38
701.137	2302.94
701.326	2354.14
701.514	2356.19
701.703	2440.15
701.892	2395.1
702.08	2534.36
702.269	2391
702.457	2382.81
702.646	2485.21
702.834	2350.04
703.023	2442.2
703.212	2542.55
703.4	2407.39
703.589	2403.29
703.777	2352.09
703.965	2362.33
704.154	2429.91
704.342	2499.55
704.531	2311.13
704.719	2331.61
704.907	2546.65
705.096	2366.43
705.284	2472.92
705.472	2620.38
705.661	2436.06
705.849	2452.44
706.037	2507.74
706.226	2481.11
706.414	2497.5
706.602	2417.63
706.79	2458.59
706.979	2382.81
707.167	2468.83
707.355	2427.87
707.543	2497.5
707.731	2687.96
707.919	2513.88
708.107	2409.44
708.296	2372.57
708.484	2507.74
708.672	2573.27
708.86	2548.7
709.048	2593.75
709.236	2366.43
709.424	2571.22
709.612	2513.88
709.8	2454.49
709.988	2548.7
710.176	2675.67
710.364	2651.1
710.551	2417.63
710.739	2554.84
710.927	2470.87
711.115	2544.6
711.303	2599.9
711.491	2474.97
711.679	2491.35
711.866	2540.51
712.054	2634.71
712.242	2522.07
712.43	2761.69
712.617	2616.28
712.805	2634.71
712.993	2556.89
713.181	2470.87
713.368	2583.51
713.556	2589.66
713.744	2440.15
713.931	2706.39
714.119	2573.27
714.306	2563.03
714.494	2458.59
714.682	2499.55
714.869	2530.27
715.057	2560.98
715.244	2526.17
715.432	2552.79
715.619	2573.27
715.807	2542.55
715.994	2511.83
716.182	2692.05
716.369	2526.17
716.556	2610.14
716.744	2548.7
716.931	2536.41
717.119	2616.28
717.306	2540.51
717.493	2583.51
717.681	2573.27
717.868	2630.62
718.055	2567.13
718.242	2548.7
718.43	2597.85
718.617	2679.77
718.804	2532.31
718.991	2606.04
719.179	2620.38
719.366	2663.38
719.553	2622.42
719.74	2522.07
719.927	2468.83
720.114	2511.83
720.301	2472.92
720.488	2612.18
720.676	2603.99
720.863	2651.1
721.05	2687.96
721.237	2696.15
721.424	2708.44
721.611	2696.15
721.798	2544.6
721.985	2513.88
722.172	2579.42
722.358	2640.86
722.545	2741.21
722.732	2530.27
722.919	2681.82
723.106	2681.82
723.293	2558.94
723.48	2499.55
723.667	2517.98
723.853	2497.5
724.04	2573.27
724.227	2612.18
724.414	2583.51
724.6	2522.07
724.787	2626.52
724.974	2743.25
725.161	2618.33
725.347	2483.16
725.534	2735.06
725.72	2530.27
725.907	2489.31
726.094	2655.19
726.28	2587.61
726.467	2569.18
726.653	2384.86
726.84	2683.86
727.027	2669.53
727.213	2511.83
727.4	2642.9
727.586	2591.7
727.773	2540.51
727.959	2587.61
728.145	2708.44
728.332	2597.85
728.518	2552.79
728.705	2608.09
728.891	2520.03
729.077	2499.55
729.264	2569.18
729.45	2575.32
729.636	2624.47
729.823	2581.46
730.009	2593.75
730.195	2638.81
730.382	2581.46
730.568	2472.92
730.754	2634.71
730.94	2513.88
731.126	2571.22
731.313	2567.13
731.499	2591.7
731.685	2524.12
731.871	2544.6
732.057	2520.03
732.243	2597.85
732.429	2386.91
732.615	2556.89
732.801	2540.51
732.987	2472.92
733.173	2575.32
733.359	2497.5
733.545	2515.93
733.731	2405.34
733.917	2544.6
734.103	2536.41
734.289	2407.39
734.475	2378.72
734.661	2520.03
734.847	2622.42
735.033	2507.74
735.219	2509.79
735.404	2431.96
735.59	2388.96
735.776	2456.54
735.962	2464.73
736.148	2413.53
736.333	2429.91
736.519	2376.67
736.705	2548.7
736.89	2483.16
737.076	2397.15
737.262	2327.52
737.447	2294.75
737.633	2372.57
737.819	2341.85
738.004	2292.7
738.19	2350.04
738.375	2425.82
738.561	2409.44
738.747	2401.24
738.932	2329.56
739.118	2458.59
739.303	2290.65
739.489	2261.98
739.674	2255.84
739.859	2261.98
740.045	2317.28
740.23	2239.45
740.416	2290.65
740.601	2339.8
740.786	2241.5
740.972	2147.3
741.157	2284.51
741.342	2167.77
741.528	2274.27
741.713	2280.41
741.898	2169.82
742.084	2149.34
742.269	2288.61
742.454	2167.77
742.639	2333.66
742.824	2077.66
743.01	2259.93
743.195	2235.36
743.38	2135.01
743.565	2130.91
743.75	2130.91
743.935	2116.58
744.12	2225.12
744.305	2098.14
744.49	2126.82
744.675	1997.79
744.86	1977.31
745.045	2046.94
745.23	2038.75
745.415	2159.58
745.6	2075.62
745.785	1950.69
745.97	2059.23
746.155	1965.03
746.34	1999.84
746.525	1889.25
746.71	2104.29
746.895	1901.54
747.079	1885.16
747.264	1829.86
747.449	1971.17
747.634	1983.46
747.819	1922.02
748.003	1848.29
748.188	1844.2
748.373	1883.11
748.557	1889.25
748.742	1856.48
748.927	1795.04
749.111	1836
749.296	1836
749.481	1817.57
749.665	1793
749.85	1678.31
750.034	1815.52
750.219	1704.93
750.404	1756.13
750.588	1700.84
750.773	1606.63
750.957	1719.27
751.141	1637.35
751.326	1749.99
751.51	1647.59
751.695	1741.8
751.879	1602.54
752.064	1717.22
752.248	1610.73
752.432	1637.35
752.617	1602.54
752.801	1788.9
752.985	1528.81
753.17	1688.55
753.354	1573.86
753.538	1614.82
753.722	1450.99
753.907	1530.86
754.091	1379.31
754.275	1557.48
754.459	1422.31
754.643	1450.99
754.828	1518.57
755.012	1416.17
755.196	1457.13
755.38	1401.83
755.564	1358.83
755.748	1430.51
755.932	1405.93
756.116	1418.22
756.3	1418.22
756.484	1416.17
756.668	1399.79
756.852	1246.19
757.036	1397.74
757.22	1260.52
757.404	1367.02
757.588	1311.72
757.772	1293.29
757.956	1326.06
758.14	1371.12
758.323	1201.13
758.507	1297.39
758.691	1203.18
758.875	1436.65
759.059	1317.87
759.242	1080.3
759.426	1240.05
759.61	1203.18
759.794	1176.56
759.977	1242.09
760.161	1416.17
760.345	1281
760.528	1162.22
760.712	1180.65
760.895	1180.65
761.079	1213.42
761.263	1188.85
761.446	1141.74
761.63	1201.13
761.813	1166.32
761.997	1115.12
762.18	1147.89
762.364	1176.56
762.547	1055.73
762.731	1047.54
762.914	1221.61
763.098	1133.55
763.281	975.86
763.464	1086.45
763.648	1186.8
763.831	1072.11
764.015	1059.82
764.198	1080.3
764.381	1061.87
764.564	1092.59
764.748	973.81
764.931	1100.78
765.114	1094.64
765.297	1096.69
765.481	1027.06
765.664	959.47
765.847	1004.53
766.03	1082.35
766.213	977.91
766.397	1018.86
766.58	1045.49
766.763	1068.02
766.946	979.95
767.129	994.29
767.312	967.67
767.495	1102.83
767.678	998.38
767.861	1108.98
768.044	982
768.227	1074.16
768.41	988.14
768.593	963.57
768.776	1010.67
768.959	969.71
769.142	1035.25
769.324	953.33
769.507	941.04
769.69	785.4
769.873	1016.82
770.056	1065.97
770.239	969.71
770.421	996.34
770.604	986.1
770.787	900.08
770.97	930.8
771.152	852.98
771.335	889.84
771.518	869.36
771.7	865.27
771.883	891.89
772.066	910.32
772.248	885.75
772.431	947.19
772.613	930.8
772.796	852.98
772.978	857.07
773.161	893.94
773.343	840.69
773.526	803.83
773.708	801.78
773.891	717.81
774.073	924.66
774.256	746.48
774.438	945.14
774.621	801.78
774.803	807.92
774.985	758.77
775.168	777.2
775.35	769.01
775.532	744.44
775.715	746.48
775.897	701.43
776.079	865.27
776.261	756.72
776.444	807.92
776.626	762.87
776.808	685.05
776.99	678.9
777.173	812.02
777.355	820.21
777.537	732.15
777.719	709.62
777.901	715.77
778.083	736.24
778.265	654.33
778.447	766.96
778.629	631.8
778.811	723.96
778.993	685.05
779.175	766.96
779.357	750.58
779.539	607.22
779.721	594.93
779.903	680.95
780.085	689.14
780.267	676.85
780.449	596.98
780.631	642.04
780.812	652.28
780.994	566.26
781.176	584.7
781.358	570.36
781.54	590.84
781.721	623.61
781.903	646.13
782.085	654.33
782.267	656.37
782.448	613.37
782.63	568.31
782.812	596.98
782.993	594.93
783.175	613.37
783.357	496.63
783.538	568.31
783.72	443.39
783.901	508.92
784.083	490.49
784.264	607.22
784.446	500.73
784.627	437.24
784.809	519.16
784.99	453.63
785.172	568.31
785.353	498.68
785.535	562.17
785.716	467.96
785.897	420.86
786.079	504.82
786.26	478.2
786.441	502.78
786.623	484.34
786.804	451.58
786.985	494.58
787.167	513.02
787.348	470.01
787.529	500.73
787.71	470.01
787.891	402.43
788.073	429.05
788.254	408.57
788.435	445.43
788.616	418.81
788.797	418.81
788.978	420.86
789.159	388.09
789.34	453.63
789.522	349.18
789.703	443.39
789.884	453.63
790.065	392.19
790.246	451.58
790.427	429.05
790.607	386.04
790.788	410.62
790.969	312.32
791.15	371.71
791.331	338.94
791.512	353.27
791.693	338.94
791.874	334.84
792.054	564.22
792.235	363.51
792.416	293.88
792.597	318.46
792.778	400.38
792.958	302.08
793.139	343.03
793.32	297.98
793.5	334.84
793.681	441.34
793.862	506.87
794.042	357.37
794.223	328.7
794.404	304.12
794.584	400.38
794.765	265.21
794.945	279.55
795.126	359.42
795.306	297.98
795.487	306.17
795.667	355.32
795.848	306.17
796.028	175.1
796.209	353.27
796.389	289.79
796.57	334.84
796.75	267.26
796.93	263.16
797.111	236.54
797.291	236.54
797.471	302.08
797.652	312.32
797.832	250.88
798.012	394.23
798.192	314.36
798.373	211.96
798.553	238.59
798.733	257.02
798.913	271.36
799.093	293.88
799.274	297.98
799.454	314.36
799.634	281.6
799.814	302.08
799.994	338.94
800.174	285.69
800.354	173.05
800.534	254.97
800.714	269.31
800.894	156.67
801.074	162.81
801.254	277.5
801.434	250.88
801.614	281.6
801.794	168.96
801.974	1211.37
802.154	195.58
802.334	369.66
802.514	226.3
802.693	259.07
802.873	234.49
803.053	287.74
803.233	265.21
803.413	275.45
803.592	254.97
803.772	142.33
803.952	189.44
804.131	175.1
804.311	197.63
804.491	320.51
804.67	279.55
804.85	226.3
805.03	201.72
805.209	267.26
805.389	179.2
805.568	244.73
805.748	236.54
805.928	244.73
806.107	224.25
806.287	318.46
806.466	222.2
806.646	209.92
806.825	128
807.004	138.24
807.184	234.49
807.363	222.2
807.543	173.05
807.722	152.57
807.901	236.54
808.081	224.25
808.26	177.15
808.439	236.54
808.619	193.53
808.798	117.76
808.977	175.1
809.156	257.02
809.336	160.77
809.515	226.3
809.694	146.43
809.873	187.39
810.052	203.77
810.231	252.92
810.411	254.97
810.59	191.49
810.769	144.38
810.948	230.4
811.127	105.47
811.306	189.44
811.485	166.91
811.664	195.58
811.843	121.85
812.022	205.82
812.201	142.33
812.38	175.1
812.559	156.67
812.737	197.63
812.916	48.13
813.095	93.18
813.274	123.9
813.453	123.9
813.632	199.68
813.811	291.84
813.989	93.18
814.168	168.96
814.347	140.29
814.526	138.24
814.704	181.25
814.883	191.49
815.062	62.46
815.24	160.77
815.419	115.71
815.598	185.34
815.776	89.09
815.955	107.52
816.133	87.04
816.312	121.85
816.49	70.65
816.669	203.77
816.847	50.18
817.026	177.15
817.204	95.23
817.383	144.38
817.561	136.19
817.74	195.58
817.918	134.14
818.097	97.28
818.275	121.85
818.453	220.16
818.632	125.95
818.81	97.28
818.988	117.76
819.167	27.65
819.345	44.03
819.523	142.33
819.701	80.89
819.879	173.05
820.058	187.39
820.236	103.42
820.414	125.95
820.592	89.09
820.77	193.53
820.948	103.42
821.127	78.85
821.305	132.09
821.483	136.19
821.661	179.2
821.839	105.47
822.017	11.26
822.195	29.7
822.373	166.91
822.551	154.62
822.729	105.47
822.907	136.19
823.085	103.42
823.262	125.95
823.44	103.42
823.618	60.42
823.796	68.61
823.974	64.51
824.152	115.71
824.329	193.53
824.507	132.09
824.685	95.23
824.863	80.89
825.04	134.14
825.218	82.94
825.396	103.42
825.574	144.38
825.751	74.75
825.929	146.43
826.107	-15.36
826.284	158.72
826.462	166.91
826.639	70.65
826.817	48.13
826.994	87.04
827.172	95.23
827.349	222.2
827.527	93.18
827.704	84.99
827.882	130.05
828.059	95.23
828.237	125.95
828.414	91.13
828.591	-21.5
828.769	109.57
828.946	119.81
829.124	154.62
829.301	158.72
829.478	93.18
829.655	130.05
829.833	105.47
830.01	7.17
830.187	156.67
830.364	95.23
830.542	78.85
830.719	162.81
830.896	91.13
831.073	134.14
831.25	76.8
831.427	142.33
831.604	27.65
831.782	62.46
831.959	80.89
832.136	78.85
832.313	89.09
832.49	31.74
832.667	107.52
832.844	37.89
833.021	74.75
833.198	62.46
833.374	50.18
833.551	95.23
833.728	33.79
833.905	56.32
834.082	-23.55
834.259	62.46
834.436	142.33
834.612	25.6
834.789	150.53
834.966	44.03
835.143	99.33
835.319	44.03
835.496	27.65
835.673	78.85
835.85	117.76
836.026	138.24
836.203	64.51
836.38	21.5
836.556	17.41
836.733	46.08
836.909	93.18
837.086	13.31
837.262	46.08
837.439	7.17
837.616	19.46
837.792	111.61
837.968	56.32
838.145	46.08
838.321	58.37
838.498	31.74
838.674	82.94
838.851	23.55
839.027	82.94
839.203	33.79
839.38	27.65
839.556	87.04
839.732	54.27
839.909	95.23
840.085	87.04
840.261	7.17
840.437	35.84
840.614	13.31
840.79	117.76
840.966	7.17
841.142	84.99
841.318	39.94
841.494	17.41
841.671	9.22
841.847	-23.55
842.023	37.89
842.199	66.56
842.375	134.14
842.551	41.98
842.727	-50.18
842.903	146.43
843.079	17.41
843.255	97.28
843.431	78.85
843.607	95.23
843.783	-56.32
843.959	29.7
844.134	25.6
844.31	60.42
844.486	41.98
844.662	-33.79
844.838	-17.41
845.013	27.65
845.189	60.42
845.365	52.22
845.541	64.51
845.716	66.56
845.892	70.65
846.068	11.26
846.244	13.31
846.419	80.89
846.595	39.94
846.77	1.02
846.946	39.94
847.122	56.32
847.297	-48.13
847.473	128
847.648	-80.89
847.824	46.08
847.999	-68.61
848.175	46.08
848.35	64.51
848.526	84.99
848.701	82.94
848.876	44.03
849.052	60.42
849.227	33.79
849.403	19.46
849.578	-23.55
849.753	5.12
849.929	66.56
850.104	-25.6
850.279	87.04
850.454	29.7
850.63	80.89
850.805	41.98
850.98	56.32
851.155	-9.22
851.33	48.13
851.505	-60.42
851.681	121.85
851.856	31.74
852.031	60.42
852.206	27.65
852.381	-17.41
852.556	-23.55
852.731	27.65
852.906	48.13
853.081	70.65
853.256	74.75
853.431	-58.37
853.606	17.41
853.781	103.42
853.956	-62.46
854.131	-7.17
854.305	-29.7
854.48	-11.26
854.655	-9.22
854.83	-44.03
855.005	-54.27
855.18	76.8
855.354	35.84
855.529	13.31
855.704	-27.65
855.879	46.08
856.053	39.94
856.228	37.89
856.403	-68.61
856.577	60.42
856.752	-87.04
856.926	5.12
857.101	31.74
857.276	23.55
857.45	15.36
857.625	19.46
857.799	82.94
857.974	-5.12
858.148	-64.51
858.323	89.09
858.497	19.46
858.672	-23.55
858.846	-9.22
859.02	11.26
859.195	11.26
859.369	58.37
859.543	39.94
859.718	23.55
859.892	-13.31
860.066	-5.12
860.241	1.02
860.415	9.22
860.589	17.41
860.763	33.79
860.938	54.27
861.112	13.31
861.286	25.6
861.46	-39.94
861.634	70.65
861.808	-9.22
861.982	-27.65
862.157	27.65
862.331	-101.37
862.505	-60.42
862.679	19.46
862.853	-31.74
863.027	-31.74
863.201	95.23
863.375	-1.02
863.549	7.17
863.722	13.31
863.896	41.98
864.07	-41.98
864.244	48.13
864.418	25.6
864.592	58.37
864.766	-50.18
864.939	78.85
865.113	-7.17
865.287	113.66
865.461	-27.65
865.634	19.46
865.808	-37.89
865.982	70.65
866.156	-25.6
866.329	-9.22
866.503	68.61
866.676	60.42
866.85	-29.7
867.024	-37.89
867.197	82.94
867.371	60.42
867.544	-15.36
867.718	27.65
867.891	60.42
868.065	-25.6
868.238	33.79
868.412	48.13
868.585	-1.02
868.759	19.46
868.932	13.31
869.105	-21.5
869.279	13.31
869.452	-44.03
869.625	21.5
869.799	23.55
869.972	-60.42
870.145	17.41
870.319	52.22
870.492	66.56
870.665	-39.94
870.838	-41.98
871.011	-91.13
871.185	-29.7
871.358	7.17
871.531	44.03
871.704	-7.17
871.877	27.65
872.05	91.13
872.223	-41.98
872.396	21.5
872.569	-46.08
872.742	5.12
872.915	17.41
873.088	-33.79
873.261	-39.94
873.434	-33.79
873.607	39.94
873.78	82.94
873.953	41.98
874.126	23.55
874.299	44.03
874.471	7.17
874.644	-5.12
874.817	-35.84
874.99	68.61
875.163	41.98
875.335	-5.12
875.508	25.6
875.681	105.47
875.853	39.94
876.026	-25.6
876.199	37.89
876.371	-9.22
876.544	-54.27
876.717	17.41
876.889	33.79
877.062	21.5
877.234	15.36
877.407	-3.07
877.579	25.6
877.752	3.07
877.924	64.51
878.097	5.12
878.269	-15.36
878.442	1.02
878.614	1.02
878.786	33.79
878.959	21.5
879.131	9.22
879.303	-82.94
879.476	37.89
879.648	-87.04
879.82	19.46
879.993	-39.94
880.165	-3.07
880.337	27.65
880.509	-46.08
880.681	-41.98
880.854	-7.17
881.026	60.42
881.198	76.8
881.37	-37.89
881.542	-17.41
881.714	-17.41
881.886	-29.7
882.058	-15.36
882.23	76.8
882.402	33.79
882.574	-31.74
882.746	15.36
882.918	93.18
883.09	-5.12
883.262	1.02
883.434	54.27
883.606	-46.08
883.778	7.17
883.95	62.46
884.122	3.07
884.293	1.02
884.465	-31.74
884.637	82.94
884.809	-11.26
884.98	-23.55
885.152	25.6
885.324	13.31
885.496	-48.13
885.667	19.46
885.839	-33.79
886.011	113.66
886.182	17.41
886.354	23.55
886.525	37.89
886.697	7.17
886.869	-48.13
887.04	-46.08
887.212	17.41
887.383	82.94
887.555	-5.12
887.726	-41.98
887.897	-64.51
888.069	-5.12
888.24	-13.31
888.412	-56.32
888.583	-41.98
888.754	48.13
888.926	-113.66
889.097	62.46
889.268	-1.02
889.44	11.26
889.611	5.12
889.782	-48.13
889.953	5.12
890.125	58.37
890.296	17.41
890.467	-35.84
890.638	-54.27
890.809	-5.12
890.98	-52.22
891.151	11.26
891.323	-5.12
891.494	-58.37
891.665	-1.02
891.836	33.79
892.007	23.55
892.178	-33.79
892.349	-1.02
892.52	-13.31
892.691	-35.84
892.862	-84.99
893.032	-72.7
893.203	27.65
893.374	15.36
893.545	82.94
893.716	17.41
893.887	-15.36
894.057	-76.8
894.228	15.36
894.399	-62.46
894.57	9.22
894.74	-27.65
894.911	25.6
895.082	1.02
895.253	-15.36
895.423	-9.22
895.594	15.36
895.764	-15.36
895.935	-84.99
896.106	-50.18
896.276	-68.61
896.447	5.12
896.617	-50.18
896.788	-50.18
896.958	-68.61
897.129	-56.32
897.299	-23.55
897.47	29.7
897.64	17.41
897.81	-72.7
897.981	-15.36
898.151	27.65
898.322	70.65
898.492	48.13
898.662	-3.07
898.832	-37.89
899.003	-9.22
899.173	1.02
899.343	48.13
899.513	-44.03
