Data from USB4F104151__14__12-11-31-611.txt Node

Date: Fri Mar 14 12:11:31 EDT 2025
User: louis
Spectrometer: USB4F10415
Trigger mode: 4
Integration Time (sec): 5.000000E-2
Scans to average: 1
Electric dark correction enabled: true
Nonlinearity correction enabled: false
Boxcar width: 0
XAxis mode: Wavelengths
Number of Pixels in Spectrum: 3648
>>>>>Begin Spectral Data<<<<<
178.204	-170.83
178.424	-170.83
178.644	-170.83
178.864	-170.83
179.084	-197.46
179.304	62.63
179.524	-21.33
179.744	-29.52
179.964	36.01
180.184	74.92
180.404	-62.29
180.624	5.29
180.844	31.91
181.064	-54.1
181.283	13.48
181.503	-68.44
181.723	11.43
181.943	-109.4
182.163	109.74
182.383	19.63
182.602	101.55
182.822	72.87
183.042	60.59
183.262	33.96
183.482	3.24
183.701	54.44
183.921	117.93
184.141	-105.3
184.361	9.39
184.58	83.11
184.8	79.02
185.02	66.73
185.239	89.26
185.459	85.16
185.679	46.25
185.898	-15.19
186.118	117.93
186.338	-2.9
186.557	101.55
186.777	-54.1
186.997	1.19
187.216	50.35
187.436	140.46
187.655	109.74
187.875	83.11
188.095	40.11
188.314	105.64
188.534	29.87
188.753	-54.1
188.973	154.79
189.192	48.3
189.412	76.97
189.631	13.48
189.851	19.63
190.07	97.45
190.29	13.48
190.509	31.91
190.729	-72.53
190.948	54.44
191.168	279.72
191.387	42.15
191.607	60.59
191.826	54.44
192.045	70.83
192.265	-27.48
192.484	48.3
192.704	1.19
192.923	29.87
193.142	177.32
193.362	44.2
193.581	79.02
193.8	74.92
194.02	99.5
194.239	162.98
194.458	46.25
194.678	13.48
194.897	-7
195.116	21.67
195.335	25.77
195.555	60.59
195.774	25.77
195.993	107.69
196.212	3.24
196.432	29.87
196.651	7.34
196.87	11.43
197.089	99.5
197.308	52.39
197.528	85.16
197.747	27.82
197.966	83.11
198.185	113.83
198.404	36.01
198.623	101.55
198.842	81.07
199.062	122.02
199.281	122.02
199.5	62.63
199.719	56.49
199.938	56.49
200.157	140.46
200.376	9.39
200.595	60.59
200.814	101.55
201.033	-25.43
201.252	36.01
201.471	68.78
201.69	46.25
201.909	33.96
202.128	93.35
202.347	27.82
202.566	23.72
202.785	9.39
203.004	7.34
203.223	146.6
203.442	79.02
203.661	54.44
203.879	60.59
204.098	-31.57
204.317	13.48
204.536	146.6
204.755	48.3
204.974	19.63
205.193	93.35
205.411	130.22
205.63	140.46
205.849	-19.29
206.068	91.31
206.287	1.19
206.505	70.83
206.724	31.91
206.943	31.91
207.162	31.91
207.381	60.59
207.599	54.44
207.818	68.78
208.037	31.91
208.255	-37.72
208.474	128.17
208.693	50.35
208.911	25.77
209.13	-9.05
209.349	150.7
209.567	115.88
209.786	91.31
210.005	29.87
210.223	68.78
210.442	-27.48
210.661	-41.81
210.879	-9.05
211.098	117.93
211.316	113.83
211.535	68.78
211.753	36.01
211.972	87.21
212.191	11.43
212.409	48.3
212.628	76.97
212.846	44.2
213.065	-19.29
213.283	17.58
213.502	-41.81
213.72	1.19
213.938	21.67
214.157	29.87
214.375	74.92
214.594	-11.09
214.812	50.35
215.031	126.12
215.249	58.54
215.467	62.63
215.686	89.26
215.904	70.83
216.122	79.02
216.341	87.21
216.559	48.3
216.778	160.94
216.996	74.92
217.214	52.39
217.432	-21.33
217.651	17.58
217.869	1.19
218.087	-4.95
218.306	-2.9
218.524	-23.38
218.742	-23.38
218.96	85.16
219.179	74.92
219.397	31.91
219.615	146.6
219.833	21.67
220.051	38.06
220.27	72.87
220.488	46.25
220.706	38.06
220.924	-17.24
221.142	-37.72
221.36	126.12
221.578	46.25
221.796	29.87
222.015	46.25
222.233	56.49
222.451	72.87
222.669	-9.05
222.887	48.3
223.105	40.11
223.323	31.91
223.541	-45.91
223.759	25.77
223.977	72.87
224.195	91.31
224.413	79.02
224.631	68.78
224.849	40.11
225.067	56.49
225.285	-21.33
225.503	21.67
225.721	-2.9
225.939	42.15
226.157	50.35
226.375	162.98
226.592	-0.85
226.81	19.63
227.028	70.83
227.246	140.46
227.464	-13.14
227.682	70.83
227.9	74.92
228.117	70.83
228.335	111.78
228.553	-23.38
228.771	117.93
228.989	7.34
229.206	64.68
229.424	-0.85
229.642	25.77
229.86	11.43
230.077	48.3
230.295	23.72
230.513	68.78
230.731	103.59
230.948	146.6
231.166	103.59
231.384	-35.67
231.601	115.88
231.819	103.59
232.037	-41.81
232.254	-54.1
232.472	-95.06
232.689	23.72
232.907	156.84
233.125	23.72
233.342	50.35
233.56	33.96
233.777	83.11
233.995	-0.85
234.213	115.88
234.43	29.87
234.648	93.35
234.865	-7
235.083	64.68
235.3	13.48
235.518	60.59
235.735	33.96
235.953	72.87
236.17	5.29
236.388	11.43
236.605	33.96
236.822	76.97
237.04	76.97
237.257	-21.33
237.475	17.58
237.692	33.96
237.909	56.49
238.127	-15.19
238.344	7.34
238.562	31.91
238.779	-23.38
238.996	-27.48
239.214	-0.85
239.431	140.46
239.648	44.2
239.865	11.43
240.083	105.64
240.3	42.15
240.517	-17.24
240.735	-109.4
240.952	70.83
241.169	119.98
241.386	56.49
241.603	76.97
241.821	-27.48
242.038	124.07
242.255	113.83
242.472	-21.33
242.689	99.5
242.907	66.73
243.124	9.39
243.341	-50
243.558	62.63
243.775	-11.09
243.992	-21.33
244.209	62.63
244.426	87.21
244.643	46.25
244.86	17.58
245.078	29.87
245.295	31.91
245.512	81.07
245.729	-41.81
245.946	111.78
246.163	-64.34
246.38	-17.24
246.597	38.06
246.814	-54.1
247.031	122.02
247.248	23.72
247.464	62.63
247.681	64.68
247.898	40.11
248.115	79.02
248.332	40.11
248.549	3.24
248.766	167.08
248.983	25.77
249.2	-21.33
249.417	19.63
249.633	56.49
249.85	119.98
250.067	15.53
250.284	40.11
250.501	25.77
250.717	54.44
250.934	-17.24
251.151	23.72
251.368	-7
251.585	74.92
251.801	27.82
252.018	9.39
252.235	140.46
252.451	15.53
252.668	-80.72
252.885	89.26
253.102	19.63
253.318	56.49
253.535	-15.19
253.752	58.54
253.968	11.43
254.185	-45.91
254.401	-7
254.618	-41.81
254.835	66.73
255.051	124.07
255.268	7.34
255.484	132.26
255.701	60.59
255.917	79.02
256.134	58.54
256.351	150.7
256.567	21.67
256.784	42.15
257	-70.48
257.217	83.11
257.433	52.39
257.65	29.87
257.866	54.44
258.082	-15.19
258.299	-45.91
258.515	42.15
258.732	33.96
258.948	-72.53
259.165	-9.05
259.381	56.49
259.597	74.92
259.814	-0.85
260.03	27.82
260.246	52.39
260.463	89.26
260.679	109.74
260.895	81.07
261.112	-19.29
261.328	25.77
261.544	44.2
261.761	130.22
261.977	68.78
262.193	33.96
262.409	50.35
262.626	-19.29
262.842	64.68
263.058	-9.05
263.274	74.92
263.49	31.91
263.707	128.17
263.923	40.11
264.139	56.49
264.355	-7
264.571	128.17
264.787	31.91
265.004	89.26
265.22	19.63
265.436	42.15
265.652	50.35
265.868	9.39
266.084	-68.44
266.3	50.35
266.516	-39.76
266.732	60.59
266.948	56.49
267.164	7.34
267.38	-29.52
267.596	11.43
267.812	195.75
268.028	48.3
268.244	58.54
268.46	36.01
268.676	5.29
268.892	68.78
269.108	-35.67
269.324	68.78
269.54	9.39
269.756	68.78
269.972	107.69
270.188	44.2
270.403	-90.96
270.619	21.67
270.835	21.67
271.051	60.59
271.267	21.67
271.483	-72.53
271.698	89.26
271.914	15.53
272.13	-43.86
272.346	64.68
272.562	46.25
272.777	136.36
272.993	-43.86
273.209	-2.9
273.425	64.68
273.64	62.63
273.856	76.97
274.072	50.35
274.287	23.72
274.503	46.25
274.719	42.15
274.934	-35.67
275.15	40.11
275.366	15.53
275.581	56.49
275.797	87.21
276.012	58.54
276.228	62.63
276.444	31.91
276.659	101.55
276.875	-19.29
277.09	124.07
277.306	-27.48
277.521	83.11
277.737	3.24
277.952	89.26
278.168	-2.9
278.383	87.21
278.599	60.59
278.814	119.98
279.03	36.01
279.245	74.92
279.461	-33.62
279.676	11.43
279.892	25.77
280.107	-76.63
280.322	7.34
280.538	31.91
280.753	-78.68
280.969	46.25
281.184	-25.43
281.399	64.68
281.615	-37.72
281.83	68.78
282.045	-43.86
282.26	-27.48
282.476	117.93
282.691	54.44
282.906	-17.24
283.122	48.3
283.337	1.19
283.552	46.25
283.767	-11.09
283.983	105.64
284.198	-7
284.413	79.02
284.628	-43.86
284.843	64.68
285.058	72.87
285.274	7.34
285.489	-25.43
285.704	91.31
285.919	58.54
286.134	-2.9
286.349	70.83
286.564	9.39
286.779	179.37
286.995	48.3
287.21	-23.38
287.425	70.83
287.64	-9.05
287.855	23.72
288.07	27.82
288.285	83.11
288.5	79.02
288.715	85.16
288.93	17.58
289.145	79.02
289.36	19.63
289.575	48.3
289.79	74.92
290.004	29.87
290.219	183.46
290.434	-37.72
290.649	31.91
290.864	5.29
291.079	-41.81
291.294	3.24
291.509	5.29
291.724	-4.95
291.938	52.39
292.153	122.02
292.368	36.01
292.583	109.74
292.798	115.88
293.012	-23.38
293.227	83.11
293.442	-4.95
293.657	19.63
293.871	107.69
294.086	60.59
294.301	91.31
294.516	50.35
294.73	5.29
294.945	40.11
295.16	56.49
295.374	50.35
295.589	107.69
295.804	25.77
296.018	54.44
296.233	93.35
296.447	81.07
296.662	19.63
296.877	105.64
297.091	105.64
297.306	13.48
297.52	-2.9
297.735	87.21
297.949	15.53
298.164	27.82
298.378	11.43
298.593	-93.01
298.807	-19.29
299.022	62.63
299.236	113.83
299.451	-11.09
299.665	5.29
299.88	38.06
300.094	29.87
300.309	119.98
300.523	70.83
300.737	31.91
300.952	-33.62
301.166	103.59
301.381	-27.48
301.595	-19.29
301.809	74.92
302.024	-9.05
302.238	42.15
302.452	56.49
302.667	-13.14
302.881	140.46
303.095	68.78
303.309	25.77
303.524	72.87
303.738	87.21
303.952	3.24
304.166	79.02
304.381	-62.29
304.595	25.77
304.809	52.39
305.023	66.73
305.237	9.39
305.452	-31.57
305.666	40.11
305.88	124.07
306.094	50.35
306.308	64.68
306.522	99.5
306.736	46.25
306.95	122.02
307.164	-52.05
307.379	52.39
307.593	40.11
307.807	48.3
308.021	79.02
308.235	31.91
308.449	-60.24
308.663	62.63
308.877	122.02
309.091	25.77
309.305	87.21
309.519	-60.24
309.733	31.91
309.947	19.63
310.161	87.21
310.374	87.21
310.588	122.02
310.802	-52.05
311.016	11.43
311.23	-4.95
311.444	19.63
311.658	21.67
311.872	152.74
312.085	44.2
312.299	64.68
312.513	87.21
312.727	42.15
312.941	-4.95
313.154	64.68
313.368	21.67
313.582	-9.05
313.796	103.59
314.009	50.35
314.223	99.5
314.437	93.35
314.651	46.25
314.864	23.72
315.078	56.49
315.292	-21.33
315.505	-7
315.719	48.3
315.933	68.78
316.146	5.29
316.36	-45.91
316.573	31.91
316.787	13.48
317.001	58.54
317.214	-0.85
317.428	29.87
317.641	7.34
317.855	40.11
318.068	31.91
318.282	70.83
318.495	122.02
318.709	-11.09
318.922	13.48
319.136	87.21
319.349	64.68
319.563	36.01
319.776	85.16
319.99	-45.91
320.203	56.49
320.417	70.83
320.63	70.83
320.843	119.98
321.057	5.29
321.27	72.87
321.483	52.39
321.697	68.78
321.91	29.87
322.124	72.87
322.337	23.72
322.55	-25.43
322.763	31.91
322.977	25.77
323.19	9.39
323.403	68.78
323.617	60.59
323.83	79.02
324.043	-23.38
324.256	29.87
324.469	-35.67
324.683	33.96
324.896	-9.05
325.109	23.72
325.322	-78.68
325.535	76.97
325.748	58.54
325.962	3.24
326.175	-9.05
326.388	136.36
326.601	38.06
326.814	33.96
327.027	23.72
327.24	62.63
327.453	-15.19
327.666	93.35
327.879	85.16
328.092	23.72
328.305	54.44
328.518	-15.19
328.731	13.48
328.944	23.72
329.157	44.2
329.37	-7
329.583	144.55
329.796	136.36
330.009	-4.95
330.222	76.97
330.435	66.73
330.648	36.01
330.861	27.82
331.073	33.96
331.286	97.45
331.499	15.53
331.712	3.24
331.925	122.02
332.138	62.63
332.35	17.58
332.563	76.97
332.776	72.87
332.989	-4.95
333.202	11.43
333.414	40.11
333.627	13.48
333.84	54.44
334.053	27.82
334.265	3.24
334.478	144.55
334.691	31.91
334.903	-17.24
335.116	-64.34
335.329	-17.24
335.541	81.07
335.754	122.02
335.966	29.87
336.179	-13.14
336.392	25.77
336.604	29.87
336.817	29.87
337.029	21.67
337.242	23.72
337.454	81.07
337.667	5.29
337.88	74.92
338.092	13.48
338.305	54.44
338.517	58.54
338.729	23.72
338.942	119.98
339.154	25.77
339.367	29.87
339.579	58.54
339.792	11.43
340.004	21.67
340.217	-2.9
340.429	58.54
340.641	1.19
340.854	38.06
341.066	21.67
341.278	68.78
341.491	76.97
341.703	68.78
341.915	-50
342.128	54.44
342.34	38.06
342.552	-27.48
342.764	-21.33
342.977	38.06
343.189	64.68
343.401	-17.24
343.613	46.25
343.826	13.48
344.038	-13.14
344.25	17.58
344.462	119.98
344.674	7.34
344.886	46.25
345.099	1.19
345.311	52.39
345.523	36.01
345.735	-19.29
345.947	54.44
346.159	66.73
346.371	-13.14
346.583	27.82
346.795	74.92
347.007	62.63
347.219	5.29
347.431	-29.52
347.643	136.36
347.855	-2.9
348.067	68.78
348.279	-9.05
348.491	15.53
348.703	13.48
348.915	81.07
349.127	5.29
349.339	38.06
349.551	42.15
349.763	-0.85
349.975	122.02
350.187	79.02
350.399	122.02
350.61	38.06
350.822	48.3
351.034	40.11
351.246	9.39
351.458	-19.29
351.669	44.2
351.881	60.59
352.093	46.25
352.305	66.73
352.517	83.11
352.728	36.01
352.94	66.73
353.152	-2.9
353.363	-25.43
353.575	33.96
353.787	54.44
353.999	95.4
354.21	91.31
354.422	-9.05
354.633	42.15
354.845	91.31
355.057	36.01
355.268	62.63
355.48	68.78
355.692	-15.19
355.903	40.11
356.115	107.69
356.326	-54.1
356.538	101.55
356.749	68.78
356.961	60.59
357.172	25.77
357.384	52.39
357.595	160.94
357.807	-17.24
358.018	23.72
358.23	119.98
358.441	173.22
358.653	128.17
358.864	87.21
359.075	-13.14
359.287	93.35
359.498	111.78
359.709	79.02
359.921	66.73
360.132	68.78
360.344	-27.48
360.555	29.87
360.766	79.02
360.977	29.87
361.189	-7
361.4	-23.38
361.611	85.16
361.823	40.11
362.034	107.69
362.245	27.82
362.456	-31.57
362.667	89.26
362.879	68.78
363.09	72.87
363.301	87.21
363.512	-17.24
363.723	36.01
363.935	-2.9
364.146	13.48
364.357	-19.29
364.568	44.2
364.779	29.87
364.99	64.68
365.201	31.91
365.412	5.29
365.623	11.43
365.834	105.64
366.045	27.82
366.256	70.83
366.467	66.73
366.678	-9.05
366.889	56.49
367.1	-0.85
367.311	19.63
367.522	36.01
367.733	-0.85
367.944	62.63
368.155	58.54
368.366	56.49
368.577	79.02
368.788	126.12
368.999	-29.52
369.209	74.92
369.42	156.84
369.631	146.6
369.842	56.49
370.053	87.21
370.264	79.02
370.474	38.06
370.685	138.41
370.896	-2.9
371.107	152.74
371.317	29.87
371.528	40.11
371.739	52.39
371.95	76.97
372.16	74.92
372.371	-45.91
372.582	13.48
372.792	23.72
373.003	70.83
373.214	58.54
373.424	119.98
373.635	-2.9
373.846	117.93
374.056	66.73
374.267	46.25
374.477	9.39
374.688	-37.72
374.898	29.87
375.109	54.44
375.319	-43.86
375.53	89.26
375.74	15.53
375.951	66.73
376.161	-4.95
376.372	109.74
376.582	91.31
376.793	91.31
377.003	-7
377.214	29.87
377.424	21.67
377.635	48.3
377.845	-41.81
378.055	132.26
378.266	-21.33
378.476	13.48
378.686	66.73
378.897	97.45
379.107	85.16
379.317	-11.09
379.528	87.21
379.738	70.83
379.948	44.2
380.158	152.74
380.369	83.11
380.579	50.35
380.789	95.4
380.999	64.68
381.21	68.78
381.42	136.36
381.63	50.35
381.84	126.12
382.05	70.83
382.261	134.31
382.471	46.25
382.681	33.96
382.891	103.59
383.101	33.96
383.311	54.44
383.521	-0.85
383.731	46.25
383.941	142.5
384.151	74.92
384.361	21.67
384.571	76.97
384.781	87.21
384.991	91.31
385.201	99.5
385.411	19.63
385.621	103.59
385.831	89.26
386.041	115.88
386.251	97.45
386.461	48.3
386.671	-11.09
386.881	38.06
387.091	13.48
387.301	76.97
387.511	5.29
387.72	81.07
387.93	54.44
388.14	-23.38
388.35	97.45
388.56	89.26
388.769	79.02
388.979	48.3
389.189	-29.52
389.399	54.44
389.609	124.07
389.818	103.59
390.028	29.87
390.238	9.39
390.447	15.53
390.657	107.69
390.867	23.72
391.076	-4.95
391.286	-17.24
391.496	146.6
391.705	91.31
391.915	89.26
392.125	124.07
392.334	19.63
392.544	105.64
392.753	52.39
392.963	25.77
393.172	113.83
393.382	54.44
393.591	119.98
393.801	38.06
394.01	64.68
394.22	99.5
394.429	7.34
394.639	72.87
394.848	97.45
395.058	31.91
395.267	-4.95
395.477	42.15
395.686	56.49
395.895	130.22
396.105	109.74
396.314	124.07
396.524	91.31
396.733	87.21
396.942	97.45
397.152	91.31
397.361	103.59
397.57	89.26
397.78	103.59
397.989	85.16
398.198	199.85
398.407	105.64
398.617	25.77
398.826	122.02
399.035	15.53
399.244	101.55
399.453	60.59
399.663	15.53
399.872	177.32
400.081	50.35
400.29	189.61
400.499	33.96
400.708	117.93
400.917	126.12
401.127	38.06
401.336	72.87
401.545	187.56
401.754	107.69
401.963	91.31
402.172	60.59
402.381	89.26
402.59	68.78
402.799	27.82
403.008	179.37
403.217	126.12
403.426	95.4
403.635	58.54
403.844	79.02
404.053	91.31
404.262	134.31
404.471	115.88
404.68	156.84
404.888	68.78
405.097	95.4
405.306	130.22
405.515	183.46
405.724	105.64
405.933	136.36
406.142	158.89
406.35	214.18
406.559	130.22
406.768	142.5
406.977	238.76
407.185	167.08
407.394	171.18
407.603	91.31
407.812	144.55
408.02	203.94
408.229	210.09
408.438	253.09
408.646	122.02
408.855	115.88
409.064	210.09
409.272	173.22
409.481	165.03
409.69	150.7
409.898	210.09
410.107	228.52
410.315	308.39
410.524	236.71
410.733	203.94
410.941	287.91
411.15	232.62
411.358	271.53
411.567	392.36
411.775	253.09
411.984	306.34
412.192	328.87
412.401	283.81
412.609	349.35
412.818	306.34
413.026	359.59
413.234	294.05
413.443	367.78
413.651	382.12
413.86	396.45
414.068	441.51
414.276	457.89
414.485	351.4
414.693	484.52
414.901	582.82
415.11	498.85
415.318	474.28
415.526	498.85
415.734	556.19
415.943	519.33
416.151	615.59
416.359	570.53
416.567	584.87
416.776	703.65
416.984	668.83
417.192	758.94
417.4	613.54
417.608	617.63
417.817	629.92
418.025	709.79
418.233	799.9
418.441	742.56
418.649	859.29
418.857	822.43
419.065	908.44
419.273	775.33
419.481	949.4
419.689	973.98
419.897	992.41
420.105	1023.13
420.313	986.27
420.521	1135.77
420.729	1109.15
420.937	1219.74
421.145	1133.72
421.353	1236.12
421.561	1283.22
421.769	1334.42
421.977	1299.61
422.185	1315.99
422.393	1338.52
422.601	1447.06
422.809	1418.39
423.017	1592.47
423.224	1567.89
423.432	1776.78
423.64	1561.75
423.848	1721.49
424.056	1698.96
424.263	1926.29
424.471	1873.04
424.679	1858.7
424.887	1969.29
425.094	2106.51
425.302	2118.79
425.51	2114.7
425.718	2354.31
425.925	2161.8
426.133	2274.44
426.341	2440.33
426.548	2591.88
426.756	2542.72
426.964	2651.27
427.171	2808.96
427.379	2735.23
427.586	2790.53
427.794	2854.02
428.001	3075.2
428.209	3097.72
428.417	3150.97
428.624	3366.01
428.832	3218.55
429.039	3241.08
429.247	3263.61
429.454	3607.67
429.662	3818.61
429.869	3593.33
430.076	3863.66
430.284	3802.22
430.491	3990.64
430.699	4207.72
430.906	4260.97
431.114	4285.55
431.321	4191.34
431.528	4463.72
431.736	4721.76
431.943	4985.95
432.15	4828.26
432.358	4854.88
432.565	5184.6
432.772	4924.51
432.979	5211.23
433.187	5452.89
433.394	5266.52
433.601	5772.37
433.808	5663.83
434.016	5698.64
434.223	5983.31
434.43	6476.87
434.637	6231.12
434.844	6483.02
435.052	6769.73
435.259	6671.43
435.466	6675.52
435.673	6669.38
435.88	6999.1
436.087	7392.31
436.294	7451.7
436.501	7273.53
436.708	7298.11
436.915	7623.73
437.122	8047.66
437.329	7857.2
437.537	8219.69
437.743	8451.11
437.95	8367.15
438.157	8731.69
438.364	9090.08
438.571	8891.43
438.778	9057.31
438.985	9919.51
439.192	9458.71
439.399	9628.7
439.606	9610.26
439.813	10144.78
440.02	10816.52
440.227	10619.91
440.433	10433.55
440.64	10468.36
440.847	10486.79
441.054	10771.46
441.261	11576.31
441.467	11367.42
441.674	11783.16
441.881	12272.62
442.088	11916.28
442.294	11883.51
442.501	12317.68
442.708	12567.53
442.914	13226.98
443.121	13579.23
443.328	13034.47
443.534	13898.71
443.741	13530.08
443.948	13691.87
444.154	14414.8
444.361	14445.52
444.568	14466
444.774	14447.57
444.981	14478.29
445.187	15102.92
445.394	15702.97
445.6	15514.56
445.807	16952.23
446.013	16237.49
446.22	16315.31
446.426	17443.74
446.633	17314.72
446.839	17634.21
447.046	17189.8
447.252	18258.84
447.459	18107.29
447.665	17865.63
447.871	18664.33
448.078	19811.2
448.284	18600.85
448.491	19286.92
448.697	19895.16
448.903	20292.47
449.11	20374.39
449.316	19837.82
449.522	20401.01
449.728	20642.67
449.935	20943.72
450.141	20884.33
450.347	21412.71
450.553	20458.35
450.76	20720.49
450.966	21734.24
451.172	21414.76
451.378	22098.78
451.584	21119.85
451.791	22027.1
451.997	21769.05
452.203	22379.35
452.409	22172.5
452.615	21984.09
452.821	21064.55
453.027	21191.53
453.233	22240.09
453.44	21169
453.646	21414.76
453.852	21805.92
454.058	21820.25
454.264	20935.53
454.47	21558.11
454.676	20947.82
454.882	22027.1
455.088	19643.26
455.294	20069.24
455.5	20319.09
455.705	20790.13
455.911	20063.1
456.117	19334.02
456.323	18957.19
456.529	18187.16
456.735	18908.04
456.941	18396.05
457.147	18140.05
457.352	17306.53
457.558	17322.91
457.764	17370.02
457.97	17161.12
458.176	16612.27
458.381	16536.49
458.587	15881.14
458.793	15915.96
458.999	14914.5
459.204	16034.74
459.41	15444.93
459.616	14304.21
459.821	14578.64
460.027	14498.77
460.233	14253.01
460.438	13685.72
460.644	13673.43
460.85	12872.68
461.055	12645.35
461.261	12862.44
461.466	11592.7
461.672	11387.9
461.878	12192.75
462.083	11265.02
462.289	11004.93
462.494	11090.95
462.7	10548.23
462.905	10439.69
463.111	10687.5
463.316	10667.02
463.522	10550.28
463.727	10161.17
463.932	10376.2
464.138	10292.24
464.343	10273.81
464.549	9903.12
464.754	10335.24
464.959	10134.54
465.165	10222.61
465.37	9673.75
465.575	9288.73
465.781	9770.01
465.986	9770.01
466.191	9552.92
466.397	9409.56
466.602	8995.87
466.807	9112.61
467.012	9108.51
467.218	9047.07
467.423	8926.24
467.628	9081.89
467.833	9346.08
468.038	9128.99
468.244	8789.03
468.449	9110.56
468.654	8907.81
468.859	8743.97
469.064	8764.45
469.269	8428.59
469.474	8348.72
469.679	8737.83
469.885	8432.68
470.09	8490.03
470.295	8299.56
470.5	7930.93
470.705	8229.93
470.91	8160.3
471.115	7928.88
471.32	8141.87
471.525	8244.27
471.73	7959.6
471.935	7824.44
472.139	7304.25
472.344	7650.36
472.549	7521.34
472.754	7384.12
472.959	7355.45
473.164	7091.26
473.369	7167.04
473.574	7181.37
473.778	7134.27
473.983	7035.97
474.188	7101.5
474.393	6870.08
474.598	6968.38
474.802	7025.73
475.007	6663.24
475.212	6831.17
475.417	6464.58
475.621	6538.31
475.826	6552.65
476.031	6433.86
476.235	6384.71
476.44	6288.46
476.645	6298.7
476.849	6130.77
477.054	5956.69
477.259	6022.22
477.463	6110.29
477.668	6011.98
477.872	5876.82
478.077	5968.98
478.282	5598.29
478.486	5635.16
478.691	5704.79
478.895	5731.41
479.1	5557.33
479.304	5641.3
479.509	5448.79
479.713	5667.92
479.918	5323.87
480.122	5229.66
480.326	5368.92
480.531	5375.06
480.735	5348.44
480.94	5270.62
481.144	5397.59
481.348	5358.68
481.553	5293.15
481.757	5067.87
481.961	5133.4
482.166	5198.94
482.37	5223.51
482.574	5190.75
482.778	5246.04
482.983	5282.91
483.187	5084.25
483.391	5186.65
483.595	5092.44
483.8	5149.79
484.004	5143.64
484.208	5258.33
484.412	5080.16
484.616	5129.31
484.821	4914.27
485.025	5033.05
485.229	5184.6
485.433	4885.6
485.637	5207.13
485.841	4856.93
486.045	5008.48
486.249	5157.98
486.453	5147.74
486.657	5059.68
486.861	5141.6
487.065	4846.69
487.269	5002.33
487.473	4965.47
487.677	5112.92
487.881	5252.19
488.085	5106.78
488.289	5114.97
488.493	5084.25
488.697	5084.25
488.901	5094.49
489.105	5209.18
489.309	5074.01
489.512	5131.36
489.716	5207.13
489.92	5135.45
490.124	5033.05
490.328	5336.15
490.531	5151.84
490.735	5176.41
490.939	5264.47
491.143	5266.52
491.346	5198.94
491.55	5155.93
491.754	5356.63
491.958	5305.43
492.161	5307.48
492.365	5305.43
492.569	5405.78
492.772	5426.26
492.976	5311.58
493.18	5428.31
493.383	5553.24
493.587	5465.18
493.79	5520.47
493.994	5538.9
494.197	5446.74
494.401	5528.66
494.605	5522.52
494.808	5764.18
495.012	5667.92
495.215	5727.32
495.419	5856.34
495.622	5946.45
495.825	5860.43
496.029	5923.92
496.232	5979.22
496.436	5817.43
496.639	6161.48
496.843	5889.1
497.046	6077.52
497.249	6317.13
497.453	6247.5
497.656	6255.69
497.859	6202.44
498.063	6413.38
498.266	6376.52
498.469	6407.24
498.673	6634.57
498.876	6556.74
499.079	6577.22
499.282	6804.55
499.485	6943.81
499.689	6853.7
499.892	6925.38
500.095	7160.89
500.298	7291.96
500.501	7130.17
500.705	7263.29
500.908	7423.03
501.111	7447.61
501.314	7605.3
501.517	7562.3
501.72	7681.08
501.923	7564.34
502.126	7775.28
502.329	7971.89
502.532	8008.75
502.735	8174.64
502.938	8318
503.141	8086.58
503.344	8260.65
503.547	8330.28
503.75	8492.07
503.953	8582.18
504.156	8612.9
504.359	8549.42
504.562	8870.95
504.765	8866.85
504.968	9083.94
505.17	9255.97
505.373	9032.74
505.576	9255.97
505.779	9135.14
505.982	9430.04
506.185	9415.71
506.387	9483.29
506.59	9878.55
506.793	9948.18
506.996	9864.21
507.198	10224.65
507.401	10069.01
507.604	10208.27
507.807	10316.81
508.009	10232.85
508.212	10595.34
508.415	10728.45
508.617	10871.81
508.82	10806.28
509.022	10947.59
509.225	10945.54
509.428	11156.48
509.63	11351.04
509.833	11252.73
510.035	11437.05
510.238	11482.11
510.44	11361.28
510.643	11607.03
510.845	11787.25
511.048	11867.13
511.25	12112.88
511.453	12119.03
511.655	12377.07
511.858	12268.53
512.06	12235.76
512.262	12225.52
512.465	12434.41
512.667	12911.59
512.87	12772.33
513.072	13130.72
513.274	12942.31
513.477	13222.88
513.679	13298.66
513.881	13229.02
514.084	13396.96
514.286	13650.91
514.488	13409.25
514.69	13986.77
514.893	13919.19
515.095	13972.44
515.297	14058.45
515.499	14156.75
515.701	14392.27
515.904	14474.19
516.106	14427.09
516.308	14631.88
516.51	14791.62
516.712	14842.82
516.914	14830.54
517.116	15174.6
517.318	15039.43
517.52	15061.96
517.722	15250.37
517.925	15766.46
518.127	15606.72
518.329	15578.04
518.531	15641.53
518.733	15895.48
518.935	15944.63
519.136	16022.45
519.338	16378.8
519.54	16120.76
519.742	16536.49
519.944	16397.23
520.146	16626.6
520.348	16985
520.55	16636.84
520.752	16667.56
520.954	16929.7
521.155	16960.42
521.357	17318.82
521.559	17453.98
521.761	17546.14
521.963	17451.94
522.164	17376.16
522.366	17634.21
522.568	17664.93
522.77	17857.43
522.971	18002.84
523.173	17937.3
523.375	17832.86
523.576	18068.37
523.778	18037.66
523.98	18178.97
524.181	18373.52
524.383	18381.71
524.584	18492.3
524.786	18437.01
524.988	18590.61
525.189	18695.05
525.391	18834.32
525.592	18824.08
525.794	19059.59
525.995	18664.33
526.197	18942.86
526.398	18895.75
526.6	18881.42
526.801	18891.66
527.003	19065.74
527.204	19346.31
527.406	19043.21
527.607	19131.27
527.808	19381.12
528.01	18983.82
528.211	19520.38
528.412	19667.84
528.614	19530.62
528.815	19731.33
529.016	19567.49
529.218	19420.03
529.419	19643.26
529.62	19587.97
529.822	19456.9
530.023	19440.51
530.224	19434.37
530.425	19442.56
530.626	19374.98
530.828	19372.93
531.029	19850.11
531.23	19653.5
531.431	19690.37
531.632	19755.9
531.833	19608.45
532.035	19497.86
532.236	19641.21
532.437	19909.5
532.638	19612.54
532.839	19829.63
533.04	19731.33
533.241	19313.54
533.442	19628.93
533.643	19499.91
533.844	19659.65
534.045	19549.06
534.246	19417.99
534.447	19811.2
534.648	19612.54
534.849	19544.96
535.05	19481.47
535.251	19567.49
535.451	19702.65
535.652	19737.47
535.853	19536.77
536.054	19581.82
536.255	19835.77
536.456	19626.88
536.657	19950.46
536.857	19862.4
537.058	19495.81
537.259	19676.03
537.46	19606.4
537.66	19444.61
537.861	19673.98
538.062	19268.48
538.263	19528.58
538.463	19436.42
538.664	19735.42
538.865	19536.77
539.065	19729.28
539.266	19223.43
539.466	19499.91
539.667	19280.77
539.868	19288.96
540.068	19671.93
540.269	19342.21
540.469	19248
540.67	19381.12
540.87	19422.08
541.071	19489.67
541.271	19413.89
541.472	19202.95
541.672	19274.63
541.873	19647.36
542.073	19205
542.274	19716.99
542.474	19407.75
542.675	19135.37
542.875	19497.86
543.075	19069.83
543.276	19200.9
543.476	19479.43
543.676	19231.62
543.877	19065.74
544.077	19280.77
544.277	19458.95
544.478	19411.84
544.678	19313.54
544.878	19358.6
545.078	19258.24
545.279	19268.48
545.479	18949
545.679	19325.83
545.879	19227.53
546.079	19004.3
546.28	19168.13
546.48	19039.11
546.68	19280.77
546.88	19213.19
547.08	19297.16
547.28	19360.64
547.48	18922.38
547.68	19215.24
547.88	18889.61
548.081	19190.66
548.281	19078.02
548.481	18660.24
548.681	19168.13
548.881	19137.41
549.081	19028.87
549.28	18895.75
549.48	19043.21
549.68	18953.1
549.88	19471.23
550.08	18776.97
550.28	19088.26
550.48	18987.91
550.68	19352.45
550.88	18989.96
551.08	18992.01
551.279	19198.85
551.479	18813.84
551.679	18946.95
551.879	18740.11
552.079	19104.65
552.278	18848.65
552.478	19037.06
552.678	18946.95
552.878	19145.61
553.077	18709.39
553.277	18834.32
553.477	19018.63
553.676	18981.77
553.876	18893.71
554.076	18826.12
554.275	19065.74
554.475	18305.94
554.674	18674.57
554.874	18901.9
555.074	18723.72
555.273	18918.28
555.473	19049.35
555.672	18639.76
555.872	18752.4
556.071	18989.96
556.271	18684.81
556.47	18641.81
556.67	18633.61
556.869	18813.84
557.068	18852.75
557.268	18650
557.467	18670.48
557.667	18635.66
557.866	18736.01
558.065	18365.33
558.265	18736.01
558.464	18627.47
558.663	18983.82
558.863	18375.57
559.062	18946.95
559.261	18398.1
559.461	18801.55
559.66	18320.28
559.859	18283.41
560.058	18486.16
560.258	18420.63
560.457	18350.99
560.656	18762.64
560.855	18611.09
561.054	18514.83
561.253	18297.75
561.453	18434.96
561.652	18496.4
561.851	18631.57
562.05	18314.13
562.249	18246.55
562.448	18543.5
562.647	18303.89
562.846	18248.6
563.045	18463.63
563.244	18228.12
563.443	18602.89
563.642	18209.68
563.841	18316.18
564.04	18183.06
564.239	18307.99
564.438	17933.21
564.637	18443.15
564.836	18379.67
565.035	18097.05
565.234	18117.53
565.432	18195.35
565.631	18021.27
565.83	18445.2
566.029	18138.01
566.228	18135.96
566.427	18101.14
566.625	18140.05
566.824	17773.47
567.023	18240.4
567.222	17882.01
567.42	18246.55
567.619	18172.82
567.818	18332.56
568.016	17931.16
568.215	18047.9
568.414	18072.47
568.612	18394
568.811	17974.17
569.01	17839
569.208	17591.2
569.407	18043.8
569.605	17630.11
569.804	18082.71
570.002	17857.43
570.201	18109.33
570.4	17650.59
570.598	17818.52
570.797	17689.5
570.995	17685.4
571.193	17611.68
571.392	17726.36
571.59	17697.69
571.789	17580.96
571.987	17728.41
572.186	17660.83
572.384	17587.1
572.582	17531.81
572.781	17617.82
572.979	17468.32
573.177	17472.42
573.376	17298.34
573.574	17578.91
573.772	17607.58
573.971	17537.95
574.169	17273.76
574.367	17531.81
574.565	17748.89
574.763	17146.79
574.962	17523.62
575.16	17150.88
575.358	17505.18
575.556	17060.77
575.754	17562.53
575.952	17234.85
576.151	17202.08
576.349	17152.93
576.547	17021.86
576.745	17273.76
576.943	17292.19
577.141	16845.74
577.339	17245.09
577.537	17255.33
577.735	17257.38
577.933	16956.33
578.131	17068.97
578.329	17013.67
578.527	17120.17
578.725	16894.89
578.923	17103.78
579.121	16782.25
579.319	16952.23
579.516	16911.27
579.714	17042.34
579.912	17032.1
580.11	16675.76
580.308	17073.06
580.506	16794.54
580.704	16561.07
580.901	16466.86
581.099	16765.87
581.297	16761.77
581.495	16569.26
581.692	16638.89
581.89	16503.73
582.088	16810.92
582.285	16677.8
582.483	16573.36
582.681	16579.5
582.878	16927.66
583.076	16386.99
583.274	16706.48
583.471	16419.76
583.669	16622.51
583.866	16321.46
584.064	16382.9
584.262	16198.58
584.459	16602.03
584.657	16464.82
584.854	16638.89
585.052	15993.78
585.249	16192.44
585.447	16430
585.644	16118.71
585.841	16249.78
586.039	16184.24
586.236	16204.72
586.434	15897.53
586.631	15942.58
586.828	16018.36
587.026	16194.48
587.223	15782.84
587.42	16026.55
587.618	16124.85
587.815	16032.69
588.012	15985.59
588.21	15860.66
588.407	16167.86
588.604	15973.3
588.801	15868.86
588.999	15821.75
589.196	15827.9
589.393	15965.11
589.59	15639.48
589.787	15528.89
589.984	15733.69
590.182	15651.77
590.379	15731.64
590.576	15639.48
590.773	15543.23
590.97	15748.03
591.167	15571.9
591.364	15580.09
591.561	15590.33
591.758	15424.45
591.955	15705.02
592.152	15508.41
592.349	15416.26
592.546	15786.94
592.743	15668.16
592.94	15213.51
593.137	15684.54
593.334	15643.58
593.531	15520.7
593.727	15537.09
593.924	15412.16
594.121	15123.4
594.318	15535.04
594.515	15336.38
594.712	15514.56
594.908	15211.46
595.105	15465.41
595.302	15221.7
595.499	15449.02
595.696	15453.12
595.892	14941.13
596.089	15446.97
596.286	15199.17
596.482	15160.26
596.679	15317.95
596.876	15332.29
597.072	15078.34
597.269	15328.19
597.466	15098.82
597.662	15123.4
597.859	15143.88
598.055	15248.32
598.252	15266.75
598.448	15133.64
598.645	15111.11
598.841	15049.67
599.038	15268.8
599.234	15297.47
599.431	15082.44
599.627	15150.02
599.824	15215.55
600.02	15246.27
600.217	15131.59
600.413	15000.52
600.609	14994.37
600.806	14996.42
601.002	15233.99
601.198	14838.73
601.395	14990.28
601.591	15209.41
601.787	15221.7
601.984	14996.42
602.18	15293.38
602.376	15104.96
602.572	15121.35
602.769	15213.51
602.965	14971.85
603.161	15342.53
603.357	15088.58
603.553	15119.3
603.75	15375.3
603.946	15201.22
604.142	15289.28
604.338	15127.49
604.534	15137.73
604.73	15145.92
604.926	15229.89
605.122	15313.86
605.318	14975.94
605.514	15281.09
605.71	15131.59
605.906	15244.23
606.102	15072.2
606.298	15080.39
606.494	15401.92
606.69	15270.85
606.886	15297.47
607.082	15025.09
607.278	15557.57
607.474	15205.31
607.67	15444.93
607.866	15143.88
608.062	15563.71
608.257	15430.59
608.453	15401.92
608.649	15379.39
608.845	15236.03
609.041	15229.89
609.236	15711.16
609.432	15330.24
609.628	15301.57
609.824	15358.91
610.019	15537.09
610.215	15463.36
610.411	15514.56
610.606	15514.56
610.802	15442.88
610.998	15559.61
611.193	15594.43
611.389	15397.82
611.584	15467.45
611.78	15403.97
611.976	15727.55
612.171	15817.66
612.367	15676.35
612.562	15670.2
612.758	15682.49
612.953	15627.2
613.149	15637.44
613.344	15692.73
613.539	15911.86
613.735	16104.37
613.93	15948.73
614.126	15813.56
614.321	16235.44
614.517	15811.51
614.712	15909.82
614.907	15989.69
615.103	16311.22
615.298	15659.96
615.493	16092.09
615.688	15944.63
615.884	16294.83
616.079	15797.18
616.274	15938.49
616.47	15831.99
616.665	15823.8
616.86	15891.38
617.055	16001.97
617.25	15819.71
617.445	16034.74
617.641	15870.9
617.836	16223.16
618.031	16096.18
618.226	16217.01
618.421	15844.28
618.616	16208.82
618.811	16061.37
619.006	16407.47
619.201	15887.29
619.396	16063.41
619.591	15956.92
619.786	16122.8
619.981	15672.25
620.176	16298.93
620.371	15784.89
620.566	16034.74
620.761	15711.16
620.956	15954.87
621.151	15594.43
621.346	15819.71
621.541	15799.23
621.735	15983.54
621.93	15512.51
622.125	15684.54
622.32	15481.79
622.515	15643.58
622.709	15438.78
622.904	15389.63
623.099	15326.14
623.294	15549.37
623.488	15332.29
623.683	15514.56
623.878	15281.09
624.072	15324.1
624.267	15481.79
624.462	15379.39
624.656	15033.29
624.851	15082.44
625.046	15078.34
625.24	15225.79
625.435	15000.52
625.629	14975.94
625.824	14934.98
626.018	14910.41
626.213	14767.05
626.407	14650.32
626.602	14795.72
626.796	14853.06
626.991	14808.01
627.185	14521.29
627.38	14576.59
627.574	14408.65
627.768	14349.26
627.963	14255.06
628.157	14136.27
628.352	14257.11
628.546	14175.19
628.74	14128.08
628.935	14013.4
629.129	14134.23
629.323	14123.99
629.517	14158.8
629.712	13767.64
629.906	13802.46
630.1	13681.63
630.294	13788.12
630.489	13720.54
630.683	13745.11
630.877	13827.03
631.071	13349.85
631.265	13587.42
631.459	13446.11
631.653	13411.29
631.848	13501.4
632.042	13353.95
632.236	13308.9
632.43	13374.43
632.624	13384.67
632.818	13128.67
633.012	13255.65
633.206	13016.04
633.4	13208.55
633.594	12856.29
633.788	13165.54
633.982	12919.78
634.176	12932.07
634.369	12897.25
634.563	13077.48
634.757	12731.37
634.951	12727.27
635.145	12633.07
635.339	12626.92
635.533	12557.29
635.726	12379.12
635.92	12272.62
636.114	12354.54
636.308	12231.66
636.501	12225.52
636.695	12299.25
636.889	12006.39
637.083	12086.26
637.276	11899.89
637.47	11867.13
637.664	11777.01
637.857	11934.71
638.051	11717.62
638.244	11832.31
638.438	11633.66
638.632	11535.35
638.825	11518.97
639.019	11361.28
639.212	11379.71
639.406	11357.18
639.599	11412.48
639.793	11293.69
639.986	11179.01
640.18	11142.14
640.373	11256.83
640.567	11185.15
640.76	10990.59
640.954	10966.02
641.147	10775.56
641.34	10851.33
641.534	10923.01
641.727	10869.76
641.92	10638.34
642.114	10728.45
642.307	10533.9
642.5	10566.67
642.694	10392.59
642.887	10581
643.08	10652.68
643.273	10214.41
643.467	10286.09
643.66	10218.51
643.853	9847.83
644.046	9958.42
644.239	10013.71
644.432	9815.06
644.626	9833.49
644.819	9843.73
645.012	9681.94
645.205	9722.9
645.398	9735.19
645.591	9786.39
645.784	9587.74
645.977	9514.01
646.17	9731.09
646.363	9450.52
646.556	9364.51
646.749	9301.02
646.942	9249.82
647.135	9155.61
647.328	9182.24
647.521	9247.77
647.714	8954.91
647.907	8938.53
648.099	8916
648.292	8950.82
648.485	8854.56
648.678	8690.73
648.871	8758.31
649.064	8621.1
649.256	8727.59
649.449	8610.86
649.642	8789.03
649.835	8430.63
650.027	8514.6
650.22	8305.71
650.413	8363.05
650.605	8414.25
650.798	7984.18
650.991	8008.75
651.183	8350.76
651.376	8057.9
651.568	8231.98
651.761	8016.94
651.954	7840.82
652.146	7877.68
652.339	7777.33
652.531	7881.78
652.724	7926.83
652.916	7429.18
653.109	7599.16
653.301	7760.95
653.494	7515.19
653.686	7468.09
653.879	7689.27
654.071	7402.55
654.263	7224.38
654.456	7275.58
654.648	7386.17
654.84	7253.05
655.033	7504.95
655.225	7316.54
655.417	7025.73
655.61	7107.65
655.802	7210.04
655.994	7033.92
656.186	6972.48
656.379	7066.69
656.571	6921.28
656.763	6882.37
656.955	6941.76
657.148	6923.33
657.34	6696
657.532	6706.24
657.724	6683.72
657.916	6624.33
658.108	6509.64
658.3	6589.51
658.492	6569.03
658.684	6245.45
658.876	6440.01
659.068	6134.86
659.26	6224.97
659.452	6276.17
659.644	6102.09
659.836	6151.24
660.028	6284.36
660.22	5991.5
660.412	6009.93
660.604	6087.76
660.796	5954.64
660.988	6022.22
661.18	5741.65
661.372	5923.92
661.563	5655.64
661.755	5704.79
661.947	5557.33
662.139	5686.36
662.331	5565.53
662.522	5696.6
662.714	5432.41
662.906	5614.68
663.097	5397.59
663.289	5385.3
663.481	5469.27
663.673	5264.47
663.864	5323.87
664.056	5203.04
664.247	5209.18
664.439	5131.36
664.631	5235.8
664.822	5106.78
665.014	5104.73
665.205	5186.65
665.397	5114.97
665.588	5084.25
665.78	5043.29
665.971	4926.56
666.163	4940.9
666.354	4949.09
666.546	4815.97
666.737	4904.03
666.929	4766.82
667.12	4824.16
667.311	4854.88
667.503	4627.56
667.694	4709.47
667.885	4680.8
668.077	4713.57
668.268	4607.08
668.459	4693.09
668.651	4572.26
668.842	4721.76
669.033	4379.75
669.224	4486.25
669.416	4596.84
669.607	4346.98
669.798	4576.36
669.989	4486.25
670.18	4441.19
670.371	4420.71
670.563	4271.21
670.754	4488.29
670.945	4351.08
671.136	4238.44
671.327	4250.73
671.518	4226.15
671.709	4377.7
671.9	4230.25
672.091	4332.65
672.282	4168.81
672.473	4095.08
672.664	4256.87
672.855	3994.73
673.046	4113.52
673.237	4217.96
673.428	4152.43
673.619	4191.34
673.809	4123.76
674	4152.43
674.191	4037.74
674.382	3949.68
674.573	4093.04
674.764	3890.29
674.954	4123.76
675.145	3755.12
675.336	3914.86
675.527	4009.07
675.717	4029.55
675.908	3867.76
676.099	3861.62
676.289	3984.49
676.48	3796.08
676.671	3918.96
676.861	3957.87
677.052	3834.99
677.243	3837.04
677.433	3875.95
677.624	3830.9
677.814	3771.51
678.005	3832.94
678.195	3896.43
678.386	3875.95
678.576	3748.98
678.767	3748.98
678.957	3818.61
679.148	3834.99
679.338	3685.49
679.529	3748.98
679.719	3654.77
679.909	3763.31
680.1	3724.4
680.29	3738.74
680.481	3681.39
680.671	3943.53
680.861	3669.11
681.052	3886.19
681.242	3654.77
681.432	3939.44
681.622	3669.11
681.813	3757.17
682.003	3849.33
682.193	3748.98
682.383	3755.12
682.573	3669.11
682.764	3685.49
682.954	3714.16
683.144	3695.73
683.334	3683.44
683.524	3720.31
683.714	3685.49
683.904	3644.53
684.094	3757.17
684.284	3613.81
684.474	3740.79
684.664	3832.94
684.854	3734.64
685.044	3708.02
685.234	3558.52
685.424	3693.68
685.614	3667.06
685.804	3757.17
685.994	3650.67
686.184	3585.14
686.374	3583.09
686.564	3527.8
686.753	3650.67
686.943	3458.17
687.133	3538.04
687.323	3650.67
687.513	3509.37
687.702	3701.87
687.892	3566.71
688.082	3544.18
688.272	3628.15
688.461	3501.17
688.651	3601.52
688.841	3554.42
689.03	3505.27
689.22	3474.55
689.41	3521.65
689.599	3495.03
689.789	3544.18
689.979	3570.8
690.168	3646.58
690.358	3570.8
690.547	3552.37
690.737	3632.24
690.926	3576.95
691.116	3372.15
691.305	3447.93
691.495	3546.23
691.684	3540.08
691.874	3495.03
692.063	3568.76
692.252	3531.89
692.442	3509.37
692.631	3562.61
692.82	3499.13
693.01	3482.74
693.199	3480.69
693.388	3441.78
693.578	3546.23
693.767	3685.49
693.956	3468.41
694.146	3613.81
694.335	3421.3
694.524	3462.26
694.713	3538.04
694.902	3517.56
695.092	3503.22
695.281	3402.87
695.47	3456.12
695.659	3511.41
695.848	3355.77
696.037	3550.32
696.226	3652.72
696.415	3564.66
696.604	3497.08
696.793	3624.05
696.982	3603.57
697.171	3722.35
697.36	3466.36
697.549	3466.36
697.738	3466.36
697.927	3628.15
698.116	3560.56
698.305	3556.47
698.494	3531.89
698.683	3495.03
698.872	3755.12
699.061	3568.76
699.25	3624.05
699.438	3568.76
699.627	3671.15
699.816	3642.48
700.005	3662.96
700.193	3632.24
700.382	3673.2
700.571	3597.43
700.76	3564.66
700.948	3763.31
701.137	3687.54
701.326	3673.2
701.514	3533.94
701.703	3724.4
701.892	3558.52
702.08	3683.44
702.269	3665.01
702.457	3568.76
702.646	3677.3
702.834	3665.01
703.023	3636.34
703.212	3632.24
703.4	3697.78
703.589	3624.05
703.777	3597.43
703.965	3574.9
704.154	3579
704.342	3687.54
704.531	3689.59
704.719	3527.8
704.907	3753.07
705.096	3548.28
705.284	3593.33
705.472	3624.05
705.661	3495.03
705.849	3548.28
706.037	3748.98
706.226	3585.14
706.414	3656.82
706.602	3644.53
706.79	3748.98
706.979	3601.52
707.167	3642.48
707.355	3495.03
707.543	3656.82
707.731	3615.86
707.919	3593.33
708.107	3585.14
708.296	3599.48
708.484	3681.39
708.672	3658.87
708.86	3538.04
709.048	3576.95
709.236	3581.04
709.424	3589.24
709.612	3671.15
709.8	3572.85
709.988	3632.24
710.176	3585.14
710.364	3681.39
710.551	3652.72
710.739	3503.22
710.927	3648.63
711.115	3613.81
711.303	3581.04
711.491	3617.91
711.679	3538.04
711.866	3529.84
712.054	3636.34
712.242	3572.85
712.43	3724.4
712.617	3480.69
712.805	3568.76
712.993	3550.32
713.181	3380.34
713.368	3511.41
713.556	3546.23
713.744	3527.8
713.931	3669.11
714.119	3562.61
714.306	3476.6
714.494	3648.63
714.682	3425.4
714.869	3390.58
715.057	3484.79
715.244	3421.3
715.432	3468.41
715.619	3495.03
715.807	3484.79
715.994	3474.55
716.182	3503.22
716.369	3411.06
716.556	3517.56
716.744	3454.07
716.931	3423.35
717.119	3482.74
717.306	3361.91
717.493	3591.28
717.681	3517.56
717.868	3376.25
718.055	3476.6
718.242	3372.15
718.43	3566.71
718.617	3499.13
718.804	3333.24
718.991	3421.3
719.179	3421.3
719.366	3343.48
719.553	3462.26
719.74	3398.77
719.927	3386.49
720.114	3411.06
720.301	3363.96
720.488	3353.72
720.676	3163.26
720.863	3466.36
721.05	3572.85
721.237	3423.35
721.424	3456.12
721.611	3404.92
721.798	3300.47
721.985	3204.22
722.172	3263.61
722.358	3286.14
722.545	3419.25
722.732	3167.35
722.919	3368.06
723.106	3417.21
723.293	3245.18
723.48	3337.34
723.667	3386.49
723.853	3279.99
724.04	3247.23
724.227	3292.28
724.414	3292.28
724.6	3234.94
724.787	3279.99
724.974	3353.72
725.161	3230.84
725.347	3140.73
725.534	3165.31
725.72	3234.94
725.907	3306.62
726.094	3169.4
726.28	3204.22
726.467	3024
726.653	3169.4
726.84	3185.79
727.027	3183.74
727.213	3187.83
727.4	3200.12
727.586	3253.37
727.773	3241.08
727.959	3105.92
728.145	3175.55
728.332	3159.16
728.518	3116.16
728.705	3073.15
728.891	3206.27
729.077	3218.55
729.264	3116.16
729.45	3163.26
729.636	3112.06
729.823	3177.59
730.009	3169.4
730.195	3073.15
730.382	3048.57
730.568	3118.2
730.754	3146.87
730.94	3060.86
731.126	3173.5
731.313	3056.76
731.499	3038.33
731.685	3052.67
731.871	3062.91
732.057	3089.53
732.243	3028.09
732.429	3157.11
732.615	3107.96
732.801	3011.71
732.987	2962.56
733.173	3009.66
733.359	2931.84
733.545	2962.56
733.731	2929.79
733.917	3132.54
734.103	3040.38
734.289	2989.18
734.475	2931.84
734.661	3026.04
734.847	2993.28
735.033	2954.37
735.219	2966.65
735.404	2905.21
735.59	2899.07
735.776	2831.49
735.962	2899.07
736.148	2888.83
736.333	2878.59
736.519	2940.03
736.705	2802.82
736.89	2802.82
737.076	2864.25
737.262	2755.71
737.447	2897.02
737.633	2866.3
737.819	2933.89
738.004	2831.49
738.19	2796.67
738.375	2882.69
738.561	2870.4
738.747	2798.72
738.932	2739.33
739.118	2784.38
739.303	2886.78
739.489	2747.52
739.674	2778.24
739.859	2772.1
740.045	2634.88
740.23	2647.17
740.416	2669.7
740.601	2745.47
740.786	2665.6
740.972	2583.68
741.157	2604.16
741.342	2409.61
741.528	2649.22
741.713	2591.88
741.898	2593.92
742.084	2575.49
742.269	2464.9
742.454	2542.72
742.639	2645.12
742.824	2593.92
743.01	2526.34
743.195	2587.78
743.38	2534.53
743.565	2460.81
743.75	2407.56
743.935	2473.09
744.12	2501.76
744.305	2292.87
744.49	2382.98
744.675	2370.69
744.86	2411.65
745.045	2413.7
745.23	2319.5
745.415	2483.33
745.6	2331.78
745.785	2475.14
745.97	2376.84
746.155	2329.74
746.34	2243.72
746.525	2282.63
746.71	2436.23
746.895	2210.95
747.079	2258.06
747.264	2270.34
747.449	2206.86
747.634	2253.96
747.819	2151.56
748.003	2092.17
748.188	2108.55
748.373	2159.75
748.557	2169.99
748.742	2233.48
748.927	2077.83
749.111	2102.41
749.296	2026.64
749.481	1973.39
749.665	2116.75
749.85	2092.17
750.034	2047.12
750.219	1995.92
750.404	2024.59
750.588	2036.88
750.773	1868.94
750.957	1959.05
751.141	1926.29
751.326	1897.61
751.51	1950.86
751.695	1930.38
751.879	1926.29
752.064	2022.54
752.248	1977.48
752.432	2006.16
752.617	1873.04
752.801	1782.93
752.985	1817.74
753.17	1887.37
753.354	1850.51
753.538	1709.2
753.722	1703.06
753.907	1797.26
754.091	1739.92
754.275	1698.96
754.459	1715.34
754.643	1754.26
754.828	1672.34
755.012	1604.75
755.196	1590.42
755.38	1617.04
755.564	1588.37
755.748	1629.33
755.932	1701.01
756.116	1586.32
756.3	1594.51
756.484	1565.84
756.668	1588.37
756.852	1514.64
757.036	1571.99
757.22	1504.4
757.404	1539.22
757.588	1496.21
757.772	1584.27
757.956	1512.6
758.14	1506.45
758.323	1459.35
758.507	1520.79
758.691	1402.01
758.875	1397.91
759.059	1614.99
759.242	1395.86
759.426	1440.92
759.61	1434.77
759.794	1385.62
759.977	1553.55
760.161	1512.6
760.345	1500.31
760.528	1526.93
760.712	1420.44
760.895	1322.13
761.079	1395.86
761.263	1328.28
761.446	1272.98
761.63	1363.09
761.813	1438.87
761.997	1303.7
762.18	1430.68
762.364	1338.52
762.547	1260.7
762.731	1279.13
762.914	1283.22
763.098	1246.36
763.281	1416.34
763.464	1240.22
763.648	1402.01
763.831	1213.59
764.015	1289.37
764.198	1301.65
764.381	1272.98
764.564	1289.37
764.748	1252.5
764.931	1162.39
765.114	1277.08
765.297	1211.54
765.481	1180.82
765.664	1254.55
765.847	1256.6
766.03	1287.32
766.213	1160.34
766.397	1158.3
766.58	1207.45
766.763	1227.93
766.946	1189.02
767.129	1182.87
767.312	1152.15
767.495	1146.01
767.678	1088.67
767.861	1096.86
768.044	1176.73
768.227	1090.71
768.41	1172.63
768.593	1113.24
768.776	1094.81
768.959	1199.26
769.142	1111.19
769.324	1037.47
769.507	1121.43
769.69	1066.14
769.873	1041.56
770.056	1172.63
770.239	1125.53
770.421	1156.25
770.604	1084.57
770.787	1174.68
770.97	1035.42
771.152	1029.27
771.335	1055.9
771.518	976.03
771.7	1131.67
771.883	1164.44
772.066	1053.85
772.248	1117.34
772.431	1002.65
772.613	1033.37
772.796	969.88
772.978	978.08
773.161	1074.33
773.343	984.22
773.526	1021.08
773.708	867.49
773.891	982.17
774.073	1027.23
774.256	965.79
774.438	1029.27
774.621	947.36
774.803	1014.94
774.985	883.87
775.168	969.88
775.35	998.56
775.532	982.17
775.715	885.92
775.897	941.21
776.079	959.64
776.261	943.26
776.444	939.16
776.626	902.3
776.808	892.06
776.99	773.28
777.173	881.82
777.355	760.99
777.537	859.29
777.719	847.01
777.901	875.68
778.083	916.64
778.265	849.05
778.447	838.81
778.629	767.13
778.811	738.46
778.993	818.33
779.175	844.96
779.357	857.25
779.539	677.02
779.721	824.48
779.903	840.86
780.085	748.7
780.267	765.09
780.449	799.9
780.631	787.61
780.812	771.23
780.994	748.7
781.176	752.8
781.358	703.65
781.54	707.74
781.721	752.8
781.903	726.18
782.085	711.84
782.267	760.99
782.448	648.35
782.63	623.78
782.812	607.39
782.993	742.56
783.175	695.46
783.357	619.68
783.538	595.11
783.72	603.3
783.901	611.49
784.083	670.88
784.264	724.13
784.446	654.5
784.627	582.82
784.809	654.5
784.99	627.87
785.172	658.59
785.353	664.74
785.535	687.26
785.716	638.11
785.897	572.58
786.079	717.98
786.26	576.67
786.441	625.83
786.623	576.67
786.804	521.38
786.985	562.34
787.167	578.72
787.348	576.67
787.529	511.14
787.71	660.64
787.891	504.99
788.073	433.32
788.254	582.82
788.435	601.25
788.616	578.72
788.797	484.52
788.978	619.68
789.159	513.19
789.34	529.57
789.522	437.41
789.703	492.71
789.884	496.8
790.065	543.91
790.246	556.19
790.427	455.84
790.607	486.56
790.788	466.08
790.969	367.78
791.15	500.9
791.331	459.94
791.512	421.03
791.693	318.63
791.874	451.75
792.054	513.19
792.235	429.22
792.416	408.74
792.597	447.65
792.778	380.07
792.958	455.84
793.139	384.16
793.32	400.55
793.5	355.49
793.681	451.75
793.862	410.79
794.042	408.74
794.223	246.95
794.404	500.9
794.584	337.06
794.765	437.41
794.945	384.16
795.126	406.69
795.306	365.73
795.487	386.21
795.667	443.56
795.848	418.98
796.028	394.4
796.209	380.07
796.389	490.66
796.57	304.29
796.75	386.21
796.93	357.54
797.111	353.45
797.291	271.53
797.471	466.08
797.652	392.36
797.832	384.16
798.012	367.78
798.192	369.83
798.373	298.15
798.553	271.53
798.733	386.21
798.913	312.49
799.093	306.34
799.274	261.29
799.454	298.15
799.634	320.68
799.814	365.73
799.994	314.53
800.174	408.74
800.354	283.81
800.534	322.73
800.714	326.82
800.894	246.95
801.074	236.71
801.254	341.16
801.434	353.45
801.614	228.52
801.794	257.19
801.974	1240.22
802.154	230.57
802.334	349.35
802.514	335.01
802.693	292.01
802.873	240.81
803.053	363.69
803.233	308.39
803.413	337.06
803.592	253.09
803.772	228.52
803.952	271.53
804.131	181.42
804.311	287.91
804.491	378.02
804.67	201.9
804.85	251.05
805.03	271.53
805.209	349.35
805.389	218.28
805.568	259.24
805.748	191.66
805.928	242.85
806.107	273.57
806.287	249
806.466	292.01
806.646	175.27
806.825	240.81
807.004	251.05
807.184	208.04
807.363	251.05
807.543	210.09
807.722	281.77
807.901	367.78
808.081	251.05
808.26	201.9
808.439	201.9
808.619	205.99
808.798	216.23
808.977	236.71
809.156	292.01
809.336	240.81
809.515	330.92
809.694	160.94
809.873	226.47
810.052	230.57
810.231	226.47
810.411	205.99
810.59	285.86
810.769	203.94
810.948	244.9
811.127	128.17
811.306	187.56
811.485	195.75
811.664	212.14
811.843	232.62
812.022	160.94
812.201	109.74
812.38	226.47
812.559	154.79
812.737	189.61
812.916	81.07
813.095	195.75
813.274	201.9
813.453	173.22
813.632	249
813.811	216.23
813.989	162.98
814.168	177.32
814.347	165.03
814.526	177.32
814.704	201.9
814.883	257.19
815.062	208.04
815.24	197.8
815.419	138.41
815.598	230.57
815.776	107.69
815.955	216.23
816.133	60.59
816.312	183.46
816.49	175.27
816.669	214.18
816.847	124.07
817.026	234.66
817.204	259.24
817.383	99.5
817.561	134.31
817.74	183.46
817.918	273.57
818.097	126.12
818.275	113.83
818.453	160.94
818.632	156.84
818.81	193.7
818.988	128.17
819.167	171.18
819.345	171.18
819.523	162.98
819.701	230.57
819.879	187.56
820.058	195.75
820.236	246.95
820.414	117.93
820.592	216.23
820.77	197.8
820.948	81.07
821.127	109.74
821.305	218.28
821.483	101.55
821.661	156.84
821.839	187.56
822.017	132.26
822.195	136.36
822.373	181.42
822.551	130.22
822.729	101.55
822.907	134.31
823.085	128.17
823.262	138.41
823.44	103.59
823.618	111.78
823.796	115.88
823.974	87.21
824.152	126.12
824.329	99.5
824.507	81.07
824.685	132.26
824.863	126.12
825.04	119.98
825.218	169.13
825.396	173.22
825.574	117.93
825.751	140.46
825.929	173.22
826.107	138.41
826.284	99.5
826.462	179.37
826.639	132.26
826.817	52.39
826.994	111.78
827.172	29.87
827.349	249
827.527	97.45
827.704	144.55
827.882	128.17
828.059	152.74
828.237	130.22
828.414	179.37
828.591	85.16
828.769	105.64
828.946	101.55
829.124	173.22
829.301	218.28
829.478	85.16
829.655	117.93
829.833	76.97
830.01	29.87
830.187	113.83
830.364	54.44
830.542	152.74
830.719	132.26
830.896	128.17
831.073	76.97
831.25	156.84
831.427	191.66
831.604	70.83
831.782	162.98
831.959	105.64
832.136	99.5
832.313	140.46
832.49	126.12
832.667	58.54
832.844	42.15
833.021	150.7
833.198	85.16
833.374	103.59
833.551	111.78
833.728	27.82
833.905	150.7
834.082	109.74
834.259	113.83
834.436	162.98
834.612	81.07
834.789	83.11
834.966	95.4
835.143	97.45
835.319	31.91
835.496	101.55
835.673	48.3
835.85	117.93
836.026	152.74
836.203	66.73
836.38	150.7
836.556	142.5
836.733	91.31
836.909	138.41
837.086	95.4
837.262	-64.34
837.439	93.35
837.616	54.44
837.792	124.07
837.968	42.15
838.145	105.64
838.321	52.39
838.498	76.97
838.674	115.88
838.851	122.02
839.027	117.93
839.203	179.37
839.38	142.5
839.556	50.35
839.732	115.88
839.909	97.45
840.085	122.02
840.261	29.87
840.437	109.74
840.614	13.48
840.79	107.69
840.966	124.07
841.142	83.11
841.318	72.87
841.494	72.87
841.671	74.92
841.847	83.11
842.023	89.26
842.199	15.53
842.375	126.12
842.551	-47.96
842.727	138.41
842.903	148.65
843.079	3.24
843.255	72.87
843.431	72.87
843.607	76.97
843.783	13.48
843.959	81.07
844.134	58.54
844.31	105.64
844.486	15.53
844.662	56.49
844.838	70.83
845.013	79.02
845.189	17.58
845.365	74.92
845.541	-45.91
845.716	15.53
845.892	154.79
846.068	-11.09
846.244	36.01
846.419	117.93
846.595	33.96
846.77	33.96
846.946	136.36
847.122	60.59
847.297	95.4
847.473	68.78
847.648	13.48
847.824	48.3
847.999	-39.76
848.175	62.63
848.35	64.68
848.526	140.46
848.701	142.5
848.876	101.55
849.052	48.3
849.227	122.02
849.403	46.25
849.578	72.87
849.753	68.78
849.929	46.25
850.104	-11.09
850.279	117.93
850.454	36.01
850.63	66.73
850.805	48.3
850.98	66.73
851.155	40.11
851.33	44.2
851.505	7.34
851.681	109.74
851.856	42.15
852.031	25.77
852.206	-0.85
852.381	-11.09
852.556	-27.48
852.731	70.83
852.906	76.97
853.081	54.44
853.256	105.64
853.431	36.01
853.606	48.3
853.781	-9.05
853.956	-39.76
854.131	99.5
854.305	46.25
854.48	-21.33
854.655	-17.24
854.83	-9.05
855.005	74.92
855.18	85.16
855.354	-13.14
855.529	58.54
855.704	70.83
855.879	74.92
856.053	-13.14
856.228	54.44
856.403	11.43
856.577	48.3
856.752	68.78
856.926	-9.05
857.101	79.02
857.276	-9.05
857.45	15.53
857.625	60.59
857.799	64.68
857.974	-0.85
858.148	-19.29
858.323	50.35
858.497	44.2
858.672	56.49
858.846	33.96
859.02	31.91
859.195	21.67
859.369	29.87
859.543	33.96
859.718	19.63
859.892	17.58
860.066	46.25
860.241	-13.14
860.415	13.48
860.589	7.34
860.763	-2.9
860.938	-25.43
861.112	13.48
861.286	107.69
861.46	11.43
861.634	46.25
861.808	42.15
861.982	70.83
862.157	-31.57
862.331	29.87
862.505	36.01
862.679	17.58
862.853	62.63
863.027	66.73
863.201	132.26
863.375	23.72
863.549	48.3
863.722	62.63
863.896	62.63
864.07	11.43
864.244	-9.05
864.418	68.78
864.592	66.73
864.766	-2.9
864.939	62.63
865.113	68.78
865.287	156.84
865.461	91.31
865.634	48.3
865.808	3.24
865.982	33.96
866.156	-56.15
866.329	-31.57
866.503	99.5
866.676	62.63
866.85	93.35
867.024	9.39
867.197	101.55
867.371	56.49
867.544	19.63
867.718	-45.91
867.891	97.45
868.065	-17.24
868.238	17.58
868.412	91.31
868.585	74.92
868.759	-64.34
868.932	-9.05
869.105	15.53
869.279	21.67
869.452	-0.85
869.625	81.07
869.799	48.3
869.972	1.19
870.145	15.53
870.319	-17.24
870.492	-43.86
870.665	15.53
870.838	7.34
871.011	-19.29
871.185	36.01
871.358	-4.95
871.531	56.49
871.704	-9.05
871.877	54.44
872.05	50.35
872.223	1.19
872.396	76.97
872.569	64.68
872.742	64.68
872.915	89.26
873.088	-27.48
873.261	5.29
873.434	38.06
873.607	62.63
873.78	156.84
873.953	-15.19
874.126	29.87
874.299	-11.09
874.471	-78.68
874.644	-2.9
874.817	93.35
874.99	50.35
875.163	-43.86
875.335	42.15
875.508	29.87
875.681	107.69
875.853	23.72
876.026	-0.85
876.199	60.59
876.371	44.2
876.544	-4.95
876.717	48.3
876.889	-39.76
877.062	87.21
877.234	1.19
877.407	23.72
877.579	17.58
877.752	-2.9
877.924	27.82
878.097	76.97
878.269	93.35
878.442	-74.58
878.614	132.26
878.786	5.29
878.959	-97.11
879.131	-9.05
879.303	-23.38
879.476	1.19
879.648	11.43
879.82	-33.62
879.993	11.43
880.165	-50
880.337	-43.86
880.509	21.67
880.681	33.96
880.854	-23.38
881.026	17.58
881.198	117.93
881.37	58.54
881.542	29.87
881.714	-2.9
881.886	48.3
882.058	27.82
882.23	83.11
882.402	13.48
882.574	3.24
882.746	7.34
882.918	46.25
883.09	50.35
883.262	-56.15
883.434	-0.85
883.606	-78.68
883.778	62.63
883.95	111.78
884.122	29.87
884.293	33.96
884.465	5.29
884.637	50.35
884.809	-29.52
884.98	-0.85
885.152	9.39
885.324	70.83
885.496	-9.05
885.667	-2.9
885.839	-23.38
886.011	119.98
886.182	7.34
886.354	33.96
886.525	29.87
886.697	17.58
886.869	48.3
887.04	21.67
887.212	13.48
887.383	165.03
887.555	42.15
887.726	-9.05
887.897	42.15
888.069	46.25
888.24	54.44
888.412	-35.67
888.583	-33.62
888.754	-4.95
888.926	-39.76
889.097	-17.24
889.268	15.53
889.44	29.87
889.611	-21.33
889.782	-45.91
889.953	-13.14
890.125	99.5
890.296	-64.34
890.467	-50
890.638	25.77
890.809	-4.95
890.98	-60.24
891.151	46.25
891.323	68.78
891.494	105.64
891.665	-7
891.836	70.83
892.007	40.11
892.178	7.34
892.349	7.34
892.52	-31.57
892.691	58.54
892.862	46.25
893.032	-4.95
893.203	-2.9
893.374	-2.9
893.545	72.87
893.716	21.67
893.887	50.35
894.057	-0.85
894.228	62.63
894.399	17.58
894.57	109.74
894.74	68.78
894.911	72.87
895.082	-2.9
895.253	19.63
895.423	3.24
895.594	19.63
895.764	29.87
895.935	-52.05
896.106	42.15
896.276	27.82
896.447	-2.9
896.617	44.2
896.788	-86.87
896.958	66.73
897.129	3.24
897.299	5.29
897.47	31.91
897.64	-11.09
897.81	15.53
897.981	70.83
898.151	42.15
898.322	36.01
898.492	76.97
898.662	1.19
898.832	9.39
899.003	25.77
899.173	-11.09
899.343	-72.53
899.513	7.34
