Data from USB4F104151__67__12-12-32-403.txt Node

Date: Fri Mar 14 12:12:32 EDT 2025
User: louis
Spectrometer: USB4F10415
Trigger mode: 4
Integration Time (sec): 5.000000E-2
Scans to average: 1
Electric dark correction enabled: true
Nonlinearity correction enabled: false
Boxcar width: 0
XAxis mode: Wavelengths
Number of Pixels in Spectrum: 3648
>>>>>Begin Spectral Data<<<<<
178.204	-202.07
178.424	-202.07
178.644	-202.07
178.864	-193.87
179.084	-206.16
179.304	58.03
179.524	-42.32
179.744	-79.19
179.964	64.17
180.184	-27.99
180.404	21.16
180.624	15.02
180.844	0.68
181.064	-5.46
181.283	4.78
181.503	-75.09
181.723	66.22
181.943	-42.32
182.163	127.66
182.383	25.26
182.602	88.75
182.822	76.46
183.042	96.94
183.262	-71
183.482	-27.99
183.701	19.11
183.921	70.31
184.141	43.69
184.361	111.27
184.58	-11.61
184.8	33.45
185.02	-44.37
185.239	62.12
185.459	19.11
185.679	76.46
185.898	39.59
186.118	78.51
186.338	84.65
186.557	35.5
186.777	84.65
186.997	-23.89
187.216	39.59
187.436	92.84
187.655	66.22
187.875	55.98
188.095	17.07
188.314	88.75
188.534	41.64
188.753	-34.13
188.973	129.7
189.192	98.99
189.412	25.26
189.631	39.59
189.851	37.55
190.07	174.76
190.29	-75.09
190.509	23.21
190.729	0.68
190.948	37.55
191.168	238.25
191.387	111.27
191.607	-15.7
191.826	39.59
192.045	6.83
192.265	29.35
192.484	41.64
192.704	45.74
192.923	-56.66
193.142	152.23
193.362	103.08
193.581	33.45
193.8	21.16
194.02	86.7
194.239	66.22
194.458	53.93
194.678	70.31
194.897	19.11
195.116	12.97
195.335	101.03
195.555	94.89
195.774	146.09
195.993	64.17
196.212	6.83
196.432	15.02
196.651	45.74
196.87	2.73
197.089	78.51
197.308	62.12
197.528	139.94
197.747	39.59
197.966	49.83
198.185	135.85
198.404	-1.37
198.623	6.83
198.842	47.79
199.062	90.79
199.281	6.83
199.5	92.84
199.719	27.31
199.938	154.28
200.157	60.07
200.376	82.6
200.595	80.55
200.814	51.88
201.033	29.35
201.252	115.37
201.471	45.74
201.69	70.31
201.909	45.74
202.128	12.97
202.347	21.16
202.566	2.73
202.785	-50.52
203.004	-9.56
203.223	137.9
203.442	47.79
203.661	21.16
203.879	70.31
204.098	105.13
204.317	31.4
204.536	72.36
204.755	94.89
204.974	55.98
205.193	51.88
205.411	176.81
205.63	58.03
205.849	103.08
206.068	49.83
206.287	45.74
206.505	101.03
206.724	-9.56
206.943	-17.75
207.162	62.12
207.381	90.79
207.599	43.69
207.818	68.27
208.037	-68.95
208.255	96.94
208.474	62.12
208.693	144.04
208.911	62.12
209.13	109.23
209.349	51.88
209.567	19.11
209.786	109.23
210.005	-1.37
210.223	82.6
210.442	-5.46
210.661	35.5
210.879	25.26
211.098	12.97
211.316	-30.04
211.535	45.74
211.753	121.51
211.972	66.22
212.191	-7.51
212.409	29.35
212.628	21.16
212.846	-87.38
213.065	47.79
213.283	119.46
213.502	53.93
213.72	43.69
213.938	58.03
214.157	10.92
214.375	17.07
214.594	12.97
214.812	78.51
215.031	-13.65
215.249	23.21
215.467	-15.7
215.686	37.55
215.904	170.66
216.122	58.03
216.341	86.7
216.559	8.87
216.778	-3.41
216.996	101.03
217.214	64.17
217.432	15.02
217.651	-50.52
217.869	88.75
218.087	45.74
218.306	58.03
218.524	94.89
218.742	-15.7
218.96	68.27
219.179	-23.89
219.397	62.12
219.615	90.79
219.833	6.83
220.051	33.45
220.27	64.17
220.488	141.99
220.706	29.35
220.924	10.92
221.142	35.5
221.36	62.12
221.578	-3.41
221.796	17.07
222.015	76.46
222.233	17.07
222.451	62.12
222.669	-3.41
222.887	88.75
223.105	-13.65
223.323	-3.41
223.541	-42.32
223.759	41.64
223.977	-66.9
224.195	62.12
224.413	84.65
224.631	82.6
224.849	19.11
225.067	90.79
225.285	23.21
225.503	-17.75
225.721	-9.56
225.939	-9.56
226.157	-15.7
226.375	113.32
226.592	-21.84
226.81	49.83
227.028	53.93
227.246	62.12
227.464	51.88
227.682	62.12
227.9	35.5
228.117	-19.8
228.335	17.07
228.553	4.78
228.771	-11.61
228.989	35.5
229.206	-3.41
229.424	86.7
229.642	-38.23
229.86	33.45
230.077	19.11
230.295	70.31
230.513	70.31
230.731	15.02
230.948	121.51
231.166	70.31
231.384	47.79
231.601	15.02
231.819	131.75
232.037	64.17
232.254	-15.7
232.472	31.4
232.689	-5.46
232.907	45.74
233.125	105.13
233.342	15.02
233.56	-19.8
233.777	23.21
233.995	37.55
234.213	55.98
234.43	17.07
234.648	68.27
234.865	25.26
235.083	49.83
235.3	94.89
235.518	58.03
235.735	82.6
235.953	86.7
236.17	-9.56
236.388	33.45
236.605	2.73
236.822	121.51
237.04	0.68
237.257	47.79
237.475	58.03
237.692	72.36
237.909	103.08
238.127	31.4
238.344	10.92
238.562	29.35
238.779	6.83
238.996	58.03
239.214	51.88
239.431	39.59
239.648	41.64
239.865	53.93
240.083	-21.84
240.3	29.35
240.517	58.03
240.735	23.21
240.952	125.61
241.169	66.22
241.386	129.7
241.603	12.97
241.821	-48.47
242.038	82.6
242.255	55.98
242.472	39.59
242.689	-13.65
242.907	115.37
243.124	-25.94
243.341	45.74
243.558	31.4
243.775	-7.51
243.992	-11.61
244.209	78.51
244.426	150.18
244.643	88.75
244.86	-19.8
245.078	29.35
245.295	96.94
245.512	47.79
245.729	-75.09
245.946	21.16
246.163	121.51
246.38	49.83
246.597	76.46
246.814	-19.8
247.031	39.59
247.248	6.83
247.464	94.89
247.681	111.27
247.898	37.55
248.115	47.79
248.332	25.26
248.549	49.83
248.766	80.55
248.983	55.98
249.2	31.4
249.417	135.85
249.633	-15.7
249.85	88.75
250.067	55.98
250.284	15.02
250.501	109.23
250.717	49.83
250.934	-3.41
251.151	-32.08
251.368	-9.56
251.585	96.94
251.801	12.97
252.018	19.11
252.235	68.27
252.451	-15.7
252.668	-21.84
252.885	12.97
253.102	10.92
253.318	62.12
253.535	31.4
253.752	33.45
253.968	109.23
254.185	12.97
254.401	86.7
254.618	-11.61
254.835	19.11
255.051	131.75
255.268	15.02
255.484	45.74
255.701	-5.46
255.917	64.17
256.134	-36.18
256.351	6.83
256.567	-42.32
256.784	-5.46
257	-38.23
257.217	51.88
257.433	76.46
257.65	27.31
257.866	148.14
258.082	-30.04
258.299	-54.61
258.515	55.98
258.732	15.02
258.948	2.73
259.165	25.26
259.381	-32.08
259.597	55.98
259.814	4.78
260.03	53.93
260.246	49.83
260.463	45.74
260.679	82.6
260.895	45.74
261.112	-40.28
261.328	12.97
261.544	-19.8
261.761	178.86
261.977	45.74
262.193	-60.76
262.409	55.98
262.626	37.55
262.842	-19.8
263.058	12.97
263.274	115.37
263.49	-9.56
263.707	51.88
263.923	64.17
264.139	-42.32
264.355	47.79
264.571	119.46
264.787	64.17
265.004	94.89
265.22	64.17
265.436	-48.47
265.652	-19.8
265.868	64.17
266.084	37.55
266.3	68.27
266.516	-25.94
266.732	37.55
266.948	41.64
267.164	-3.41
267.38	66.22
267.596	68.27
267.812	66.22
268.028	33.45
268.244	-79.19
268.46	-27.99
268.676	60.07
268.892	27.31
269.108	41.64
269.324	12.97
269.54	-15.7
269.756	119.46
269.972	0.68
270.188	-5.46
270.403	8.87
270.619	15.02
270.835	66.22
271.051	39.59
271.267	15.02
271.483	-9.56
271.698	33.45
271.914	68.27
272.13	90.79
272.346	19.11
272.562	8.87
272.777	64.17
272.993	-15.7
273.209	70.31
273.425	37.55
273.64	-1.37
273.856	86.7
274.072	86.7
274.287	10.92
274.503	2.73
274.719	37.55
274.934	35.5
275.15	-34.13
275.366	23.21
275.581	-50.52
275.797	45.74
276.012	45.74
276.228	-23.89
276.444	-1.37
276.659	90.79
276.875	62.12
277.09	62.12
277.306	70.31
277.521	-9.56
277.737	23.21
277.952	45.74
278.168	103.08
278.383	58.03
278.599	53.93
278.814	76.46
279.03	-25.94
279.245	39.59
279.461	2.73
279.676	49.83
279.892	-32.08
280.107	-42.32
280.322	31.4
280.538	117.42
280.753	-1.37
280.969	72.36
281.184	-9.56
281.399	150.18
281.615	33.45
281.83	55.98
282.045	-25.94
282.26	15.02
282.476	0.68
282.691	109.23
282.906	17.07
283.122	45.74
283.337	-5.46
283.552	33.45
283.767	-17.75
283.983	70.31
284.198	72.36
284.413	45.74
284.628	41.64
284.843	68.27
285.058	84.65
285.274	45.74
285.489	-75.09
285.704	96.94
285.919	-38.23
286.134	62.12
286.349	105.13
286.564	51.88
286.779	139.94
286.995	-54.61
287.21	25.26
287.425	119.46
287.64	12.97
287.855	78.51
288.07	-30.04
288.285	-11.61
288.5	86.7
288.715	55.98
288.93	64.17
289.145	0.68
289.36	-3.41
289.575	41.64
289.79	49.83
290.004	72.36
290.219	139.94
290.434	62.12
290.649	2.73
290.864	27.31
291.079	-21.84
291.294	60.07
291.509	19.11
291.724	68.27
291.938	25.26
292.153	94.89
292.368	-5.46
292.583	45.74
292.798	60.07
293.012	86.7
293.227	58.03
293.442	78.51
293.657	35.5
293.871	82.6
294.086	41.64
294.301	70.31
294.516	-32.08
294.73	94.89
294.945	-1.37
295.16	80.55
295.374	119.46
295.589	86.7
295.804	-5.46
296.018	8.87
296.233	53.93
296.447	111.27
296.662	-17.75
296.877	51.88
297.091	68.27
297.306	72.36
297.52	39.59
297.735	76.46
297.949	33.45
298.164	86.7
298.378	72.36
298.593	-25.94
298.807	17.07
299.022	64.17
299.236	37.55
299.451	33.45
299.665	-9.56
299.88	68.27
300.094	47.79
300.309	-34.13
300.523	80.55
300.737	-48.47
300.952	154.28
301.166	45.74
301.381	-27.99
301.595	4.78
301.809	-25.94
302.024	39.59
302.238	-50.52
302.452	170.66
302.667	66.22
302.881	119.46
303.095	107.18
303.309	45.74
303.524	49.83
303.738	-46.42
303.952	64.17
304.166	-1.37
304.381	-83.28
304.595	49.83
304.809	115.37
305.023	12.97
305.237	12.97
305.452	86.7
305.666	103.08
305.88	72.36
306.094	62.12
306.308	82.6
306.522	96.94
306.736	25.26
306.95	58.03
307.164	23.21
307.379	17.07
307.593	158.38
307.807	72.36
308.021	76.46
308.235	25.26
308.449	41.64
308.663	37.55
308.877	148.14
309.091	-7.51
309.305	70.31
309.519	10.92
309.733	53.93
309.947	12.97
310.161	76.46
310.374	21.16
310.588	23.21
310.802	39.59
311.016	-17.75
311.23	88.75
311.444	41.64
311.658	53.93
311.872	127.66
312.085	129.7
312.299	137.9
312.513	58.03
312.727	37.55
312.941	8.87
313.154	70.31
313.368	66.22
313.582	25.26
313.796	58.03
314.009	68.27
314.223	31.4
314.437	121.51
314.651	-1.37
314.864	-7.51
315.078	60.07
315.292	115.37
315.505	64.17
315.719	39.59
315.933	64.17
316.146	33.45
316.36	-48.47
316.573	21.16
316.787	35.5
317.001	37.55
317.214	-19.8
317.428	37.55
317.641	39.59
317.855	-40.28
318.068	41.64
318.282	68.27
318.495	107.18
318.709	135.85
318.922	-23.89
319.136	96.94
319.349	21.16
319.563	-21.84
319.776	98.99
319.99	-17.75
320.203	31.4
320.417	86.7
320.63	98.99
320.843	101.03
321.057	78.51
321.27	33.45
321.483	17.07
321.697	86.7
321.91	92.84
322.124	45.74
322.337	41.64
322.55	-7.51
322.763	21.16
322.977	15.02
323.19	6.83
323.403	39.59
323.617	37.55
323.83	82.6
324.043	21.16
324.256	23.21
324.469	-21.84
324.683	74.41
324.896	60.07
325.109	49.83
325.322	-30.04
325.535	107.18
325.748	66.22
325.962	-7.51
326.175	-5.46
326.388	62.12
326.601	31.4
326.814	58.03
327.027	60.07
327.24	117.42
327.453	53.93
327.666	94.89
327.879	23.21
328.092	17.07
328.305	72.36
328.518	45.74
328.731	31.4
328.944	35.5
329.157	74.41
329.37	23.21
329.583	150.18
329.796	168.62
330.009	-21.84
330.222	135.85
330.435	60.07
330.648	47.79
330.861	6.83
331.073	29.35
331.286	43.69
331.499	107.18
331.712	35.5
331.925	47.79
332.138	-30.04
332.35	74.41
332.563	8.87
332.776	55.98
332.989	-17.75
333.202	86.7
333.414	66.22
333.627	23.21
333.84	-1.37
334.053	80.55
334.265	-48.47
334.478	-5.46
334.691	82.6
334.903	43.69
335.116	37.55
335.329	-5.46
335.541	31.4
335.754	76.46
335.966	29.35
336.179	62.12
336.392	33.45
336.604	92.84
336.817	98.99
337.029	45.74
337.242	-15.7
337.454	131.75
337.667	-15.7
337.88	119.46
338.092	62.12
338.305	51.88
338.517	21.16
338.729	66.22
338.942	127.66
339.154	2.73
339.367	64.17
339.579	121.51
339.792	15.02
340.004	92.84
340.217	82.6
340.429	33.45
340.641	45.74
340.854	19.11
341.066	0.68
341.278	78.51
341.491	109.23
341.703	47.79
341.915	-23.89
342.128	70.31
342.34	105.13
342.552	0.68
342.764	25.26
342.977	84.65
343.189	72.36
343.401	86.7
343.613	12.97
343.826	29.35
344.038	-36.18
344.25	55.98
344.462	-19.8
344.674	94.89
344.886	144.04
345.099	60.07
345.311	33.45
345.523	37.55
345.735	66.22
345.947	84.65
346.159	0.68
346.371	-1.37
346.583	31.4
346.795	123.56
347.007	33.45
347.219	94.89
347.431	-1.37
347.643	82.6
347.855	-13.65
348.067	129.7
348.279	66.22
348.491	58.03
348.703	80.55
348.915	62.12
349.127	66.22
349.339	6.83
349.551	27.31
349.763	94.89
349.975	37.55
350.187	133.8
350.399	137.9
350.61	21.16
350.822	76.46
351.034	31.4
351.246	74.41
351.458	90.79
351.669	80.55
351.881	53.93
352.093	58.03
352.305	78.51
352.517	-3.41
352.728	113.32
352.94	47.79
353.152	2.73
353.363	6.83
353.575	62.12
353.787	121.51
353.999	35.5
354.21	29.35
354.422	-11.61
354.633	105.13
354.845	66.22
355.057	86.7
355.268	121.51
355.48	131.75
355.692	-13.65
355.903	27.31
356.115	15.02
356.326	-95.57
356.538	123.56
356.749	154.28
356.961	144.04
357.172	72.36
357.384	78.51
357.595	129.7
357.807	33.45
358.018	0.68
358.23	31.4
358.441	174.76
358.653	68.27
358.864	58.03
359.075	68.27
359.287	33.45
359.498	68.27
359.709	0.68
359.921	49.83
360.132	90.79
360.344	78.51
360.555	10.92
360.766	64.17
360.977	27.31
361.189	103.08
361.4	19.11
361.611	84.65
361.823	35.5
362.034	84.65
362.245	51.88
362.456	64.17
362.667	58.03
362.879	-50.52
363.09	80.55
363.301	37.55
363.512	49.83
363.723	70.31
363.935	74.41
364.146	121.51
364.357	19.11
364.568	78.51
364.779	78.51
364.99	160.42
365.201	45.74
365.412	62.12
365.623	-15.7
365.834	39.59
366.045	82.6
366.256	2.73
366.467	80.55
366.678	84.65
366.889	113.32
367.1	-50.52
367.311	31.4
367.522	53.93
367.733	6.83
367.944	49.83
368.155	-1.37
368.366	70.31
368.577	74.41
368.788	135.85
368.999	-9.56
369.209	84.65
369.42	215.72
369.631	162.47
369.842	19.11
370.053	72.36
370.264	74.41
370.474	39.59
370.685	37.55
370.896	27.31
371.107	78.51
371.317	29.35
371.528	21.16
371.739	86.7
371.95	72.36
372.16	12.97
372.371	43.69
372.582	107.18
372.792	144.04
373.003	43.69
373.214	74.41
373.424	129.7
373.635	70.31
373.846	94.89
374.056	94.89
374.267	47.79
374.477	53.93
374.688	41.64
374.898	109.23
375.109	43.69
375.319	74.41
375.53	88.75
375.74	129.7
375.951	21.16
376.161	19.11
376.372	168.62
376.582	-7.51
376.793	129.7
377.003	94.89
377.214	33.45
377.424	37.55
377.635	70.31
377.845	43.69
378.055	135.85
378.266	127.66
378.476	21.16
378.686	107.18
378.897	51.88
379.107	74.41
379.317	86.7
379.528	51.88
379.738	182.95
379.948	-13.65
380.158	45.74
380.369	41.64
380.579	139.94
380.789	72.36
380.999	109.23
381.21	43.69
381.42	129.7
381.63	4.78
381.84	43.69
382.05	115.37
382.261	113.32
382.471	49.83
382.681	74.41
382.891	119.46
383.101	-46.42
383.311	66.22
383.521	121.51
383.731	33.45
383.941	47.79
384.151	82.6
384.361	51.88
384.571	47.79
384.781	84.65
384.991	189.1
385.201	139.94
385.411	4.78
385.621	45.74
385.831	94.89
386.041	70.31
386.251	86.7
386.461	84.65
386.671	45.74
386.881	58.03
387.091	80.55
387.301	127.66
387.511	129.7
387.72	105.13
387.93	86.7
388.14	8.87
388.35	2.73
388.56	37.55
388.769	113.32
388.979	111.27
389.189	39.59
389.399	115.37
389.609	144.04
389.818	158.38
390.028	107.18
390.238	47.79
390.447	105.13
390.657	86.7
390.867	35.5
391.076	-1.37
391.286	103.08
391.496	66.22
391.705	55.98
391.915	144.04
392.125	144.04
392.334	96.94
392.544	170.66
392.753	105.13
392.963	113.32
393.172	33.45
393.382	-38.23
393.591	127.66
393.801	82.6
394.01	164.52
394.22	137.9
394.429	10.92
394.639	76.46
394.848	78.51
395.058	74.41
395.267	113.32
395.477	213.67
395.686	90.79
395.895	236.2
396.105	221.86
396.314	103.08
396.524	141.99
396.733	55.98
396.942	154.28
397.152	152.23
397.361	129.7
397.57	72.36
397.78	55.98
397.989	92.84
398.198	174.76
398.407	103.08
398.617	82.6
398.826	176.81
399.035	123.56
399.244	107.18
399.453	135.85
399.663	105.13
399.872	193.19
400.081	66.22
400.29	223.91
400.499	58.03
400.708	103.08
400.917	125.61
401.127	90.79
401.336	107.18
401.545	266.92
401.754	146.09
401.963	148.14
402.172	111.27
402.381	113.32
402.59	203.43
402.799	123.56
403.008	205.48
403.217	266.92
403.426	250.53
403.635	60.07
403.844	211.62
404.053	187.05
404.262	187.05
404.471	277.16
404.68	182.95
404.888	225.96
405.097	232.1
405.306	189.1
405.515	254.63
405.724	180.9
405.933	232.1
406.142	199.34
406.35	275.11
406.559	289.45
406.768	311.97
406.977	303.78
407.185	256.68
407.394	258.73
407.603	203.43
407.812	307.88
408.02	332.45
408.229	336.55
408.438	369.32
408.646	225.96
408.855	383.65
409.064	379.56
409.272	332.45
409.481	477.86
409.69	395.94
409.898	363.17
410.107	531.11
410.315	539.3
410.524	395.94
410.733	496.29
410.941	486.05
411.15	547.49
411.358	467.62
411.567	547.49
411.775	570.02
411.984	535.2
412.192	584.35
412.401	651.94
412.609	653.98
412.818	785.05
413.026	688.8
413.234	754.34
413.443	694.94
413.651	678.56
413.86	746.14
414.068	928.41
414.276	887.45
414.485	842.4
414.693	883.36
414.901	1039
415.11	1032.86
415.318	1014.43
415.526	1120.92
415.734	1084.06
415.943	1188.5
416.151	1307.29
416.359	1120.92
416.567	1180.31
416.776	1288.86
416.984	1338.01
417.192	1403.54
417.4	1372.82
417.608	1352.34
417.817	1448.6
418.025	1612.43
418.233	1688.21
418.441	1569.43
418.649	1641.11
418.857	1878.67
419.065	1946.25
419.273	1811.09
419.481	1999.5
419.689	2038.41
419.897	2183.82
420.105	2062.99
420.313	2130.57
420.521	2306.7
420.729	2325.13
420.937	2339.46
421.145	2378.37
421.353	2642.56
421.561	2683.52
421.769	2769.54
421.977	2863.74
422.185	2847.36
422.393	3086.97
422.601	3234.43
422.809	3099.26
423.017	3234.43
423.224	3408.5
423.432	3533.43
423.64	3390.07
423.848	3955.31
424.056	3664.5
424.263	4047.47
424.471	3879.54
424.679	4059.76
424.887	4213.35
425.094	4348.52
425.302	4299.37
425.51	4547.17
425.718	4768.35
425.925	4760.16
426.133	4983.39
426.341	5028.45
426.548	5186.14
426.756	5505.62
426.964	5374.55
427.171	5786.19
427.379	5798.48
427.586	5952.08
427.794	6058.57
428.001	6419.02
428.209	6345.29
428.417	6402.63
428.624	6869.57
428.832	6939.2
429.039	6908.48
429.247	6941.25
429.454	7670.33
429.662	8000.05
429.869	7422.52
430.076	8086.06
430.284	7817.78
430.491	8219.18
430.699	8718.89
430.906	8741.41
431.114	8628.77
431.321	9001.51
431.528	9187.87
431.736	9736.73
431.943	9914.9
432.15	9767.45
432.358	9906.71
432.565	10484.23
432.772	10441.23
432.979	10996.23
433.187	11155.97
433.394	11094.53
433.601	11964.92
433.808	11995.64
434.016	11917.81
434.223	12503.53
434.43	13113.83
434.637	12886.5
434.844	13619.67
435.052	13838.81
435.259	13611.48
435.466	13783.51
435.673	13664.73
435.88	14447.05
436.087	15053.25
436.294	15354.3
436.501	15024.58
436.708	15071.68
436.915	15518.14
437.122	16196.02
437.329	16017.85
437.537	16525.74
437.743	16810.41
437.95	16781.74
438.157	17930.65
438.364	17985.94
438.571	18080.15
438.778	18225.56
438.985	19984.76
439.192	19321.22
439.399	19575.17
439.606	18870.67
439.813	20130.17
440.02	21250.41
440.227	20992.36
440.433	20654.45
440.64	21416.29
440.847	21186.92
441.054	21694.82
441.261	23183.69
441.467	22581.59
441.674	23048.52
441.881	24043.84
442.088	23798.08
442.294	23220.55
442.501	24162.62
442.708	24678.71
442.914	25768.23
443.121	26730.77
443.328	25450.79
443.534	27832.58
443.741	26679.57
443.948	26265.88
444.154	28496.12
444.361	28037.37
444.568	28233.98
444.774	27889.92
444.981	28270.84
445.187	29112.56
445.394	30339.29
445.6	29843.68
445.807	32420.03
446.013	31060.18
446.22	31891.65
446.426	32692.41
446.633	33112.24
446.839	34042.02
447.046	32669.88
447.252	34177.19
447.459	34281.63
447.665	34277.54
447.871	35762.31
448.078	36970.61
448.284	35268.75
448.491	36241.54
448.697	37109.88
448.903	38088.81
449.11	38154.34
449.316	37148.79
449.522	37879.91
449.728	38801.5
449.935	39039.06
450.141	39243.86
450.347	39589.97
450.553	38541.41
450.76	39245.91
450.966	40001.61
451.172	39782.48
451.378	40706.11
451.584	39665.74
451.791	40865.85
451.997	40480.83
452.203	40900.67
452.409	41306.16
452.615	40867.9
452.821	39102.55
453.027	38275.17
453.233	40828.99
453.44	39051.35
453.646	39108.69
453.852	38864.99
454.058	40038.47
454.264	38858.84
454.47	39391.31
454.676	38357.09
454.882	39880.78
455.088	36036.74
455.294	36737.15
455.5	37329.01
455.705	37242.99
455.911	36061.32
456.117	35125.39
456.323	34250.91
456.529	33181.87
456.735	34048.16
456.941	33210.54
457.147	32952.5
457.352	31437
457.558	31217.87
457.764	30916.82
457.97	30619.86
458.176	29917.41
458.381	29544.68
458.587	28283.13
458.793	28090.62
458.999	26499.35
459.204	28709.11
459.41	27267.34
459.616	25723.17
459.821	25743.65
460.027	25784.61
460.233	25002.29
460.438	23738.69
460.644	24101.18
460.85	22980.94
461.055	22688.08
461.261	22346.07
461.466	20781.42
461.672	20070.78
461.878	21336.42
462.083	20119.93
462.289	19620.22
462.494	19435.91
462.7	18532.75
462.905	18094.49
463.111	18565.52
463.316	18850.19
463.522	18102.68
463.727	18104.73
463.932	18086.29
464.138	17920.41
464.343	17826.2
464.549	17461.66
464.754	17879.45
464.959	17521.06
465.165	17439.14
465.37	16722.35
465.575	16144.82
465.781	16931.24
465.986	16875.95
466.191	16527.79
466.397	15997.37
466.602	15348.16
466.807	15708.6
467.012	15870.39
467.218	15497.66
467.423	15606.2
467.628	15442.37
467.833	15937.98
468.038	15512
468.244	15086.02
468.449	15645.12
468.654	14926.28
468.859	14983.62
469.064	14789.06
469.269	14477.77
469.474	14275.02
469.679	14467.53
469.885	14074.32
470.09	14467.53
470.295	14375.38
470.5	13910.49
470.705	13801.94
470.91	13677.02
471.115	13388.25
471.32	13539.8
471.525	13570.52
471.73	13167.07
471.935	12913.13
472.139	12739.05
472.344	12718.57
472.549	12560.87
472.754	12603.88
472.959	12470.76
473.164	11911.67
473.369	11891.19
473.574	12368.37
473.778	12030.45
473.983	11880.95
474.188	11858.42
474.393	11268.61
474.598	11444.73
474.802	11280.89
475.007	11307.52
475.212	11112.96
475.417	10639.88
475.621	10717.7
475.826	10689.03
476.031	10439.18
476.235	10510.86
476.44	10297.87
476.645	10230.29
476.849	10256.91
477.054	10191.38
477.259	9855.51
477.463	9916.95
477.668	9814.55
477.872	9703.96
478.077	9806.36
478.282	9265.69
478.486	9230.88
478.691	9343.52
478.895	9364
479.1	9071.14
479.304	9163.29
479.509	9034.27
479.713	9171.49
479.918	8636.97
480.122	8522.28
480.326	8536.62
480.531	8643.11
480.735	8485.42
480.94	8430.12
481.144	8731.17
481.348	8522.28
481.553	8604.2
481.757	8262.19
481.961	8364.59
482.166	8630.82
482.37	8184.37
482.574	8352.3
482.778	8262.19
482.983	8436.27
483.187	8380.97
483.391	8399.4
483.595	8153.65
483.8	8186.41
484.004	8200.75
484.208	8331.82
484.412	8460.84
484.616	8213.04
484.821	8071.73
485.025	8122.93
485.229	8313.39
485.433	8186.41
485.637	8127.02
485.841	8200.75
486.045	8206.89
486.249	8028.72
486.453	8129.07
486.657	8149.55
486.861	8100.4
487.065	7729.72
487.269	7965.23
487.473	8032.82
487.677	7971.38
487.881	8161.84
488.085	7905.84
488.289	8077.87
488.493	7897.65
488.697	8100.4
488.901	8069.68
489.105	8002.1
489.309	8043.06
489.512	8086.06
489.716	8192.56
489.92	8067.63
490.124	8024.62
490.328	8313.39
490.531	8157.74
490.735	8354.35
490.939	8350.25
491.143	8149.55
491.346	8288.81
491.55	8256.04
491.754	8286.76
491.958	8458.79
492.161	8415.79
492.365	8456.75
492.569	8116.78
492.772	8204.85
492.976	8501.8
493.18	8426.03
493.383	8686.12
493.587	8596.01
493.79	8569.38
493.994	8464.94
494.197	8897.06
494.401	8692.26
494.605	8841.76
494.808	8798.76
495.012	9054.75
495.215	9081.38
495.419	9075.23
495.622	8899.11
495.825	9021.98
496.029	9003.55
496.232	9151.01
496.436	9085.47
496.639	9544.22
496.843	9409.05
497.046	9708.05
497.249	9587.22
497.453	9679.38
497.656	9726.49
497.859	9755.16
498.063	9880.08
498.266	10248.72
498.469	10035.73
498.673	10181.14
498.876	10340.88
499.079	10359.31
499.282	10369.55
499.485	11000.32
499.689	10660.36
499.892	10920.45
500.095	10848.77
500.298	10990.08
500.501	11139.58
500.705	11379.2
500.908	11332.09
501.111	11317.76
501.314	11532.79
501.517	11497.98
501.72	11803.13
501.923	11696.63
502.126	11981.3
502.329	12331.5
502.532	12069.36
502.735	12472.81
502.938	12571.11
503.141	12755.43
503.344	12784.1
503.547	12765.67
503.75	12980.71
503.953	13222.37
504.156	13044.2
504.359	13378.01
504.562	13382.11
504.765	13566.43
504.968	13685.21
505.17	13937.11
505.373	14033.36
505.576	14064.08
505.779	14485.97
505.982	14385.62
506.185	14617.04
506.387	14719.43
506.59	14680.52
506.793	15094.21
506.996	14920.13
507.198	15579.58
507.401	15331.78
507.604	15372.74
507.807	15655.36
508.009	15976.89
508.212	15985.08
508.415	16103.86
508.617	16257.46
508.82	16593.33
509.022	16275.89
509.225	16775.59
509.428	17056.17
509.63	17064.36
509.833	17062.31
510.035	17488.29
510.238	17416.61
510.44	17549.73
510.643	17641.89
510.845	18010.52
511.048	17770.91
511.25	18389.39
511.453	18354.58
511.655	18833.8
511.858	18782.6
512.06	19032.46
512.262	19075.46
512.465	18915.72
512.667	19337.6
512.87	19390.85
513.072	19696
513.274	19966.33
513.477	20056.44
513.679	19859.84
513.881	20240.76
514.084	20294
514.286	20687.22
514.488	20513.14
514.69	21115.24
514.893	21295.46
515.095	21092.71
515.297	21346.66
515.499	21371.24
515.701	21778.78
515.904	21786.97
516.106	22016.35
516.308	22032.73
516.51	22258.01
516.712	22358.36
516.914	22516.05
517.116	23052.62
517.318	22657.36
517.52	23021.9
517.722	22968.65
517.925	23275.85
518.127	23996.73
518.329	24033.6
518.531	23394.63
518.733	24250.68
518.935	24269.11
519.136	24375.61
519.338	24353.08
519.54	24758.58
519.742	24922.41
519.944	24897.84
520.146	25143.59
520.348	25057.58
520.55	25508.13
520.752	25585.96
520.954	25870.62
521.155	25893.15
521.357	26208.54
521.559	26278.17
521.761	26390.81
521.963	26738.96
522.164	26394.9
522.366	26521.88
522.568	27369.74
522.77	27250.95
522.971	27402.5
523.173	27160.84
523.375	27365.64
523.576	27199.76
523.778	27517.19
523.98	27816.19
524.181	27961.6
524.383	27988.22
524.584	27969.79
524.786	28242.17
524.988	27805.95
525.189	28109.05
525.391	28569.85
525.592	28563.7
525.794	28537.08
525.995	28899.57
526.197	28772.6
526.398	28580.09
526.6	28911.86
526.801	28750.07
527.003	28999.92
527.204	29186.29
527.406	29251.82
527.607	29087.98
527.808	29591.78
528.01	28780.79
528.211	29528.3
528.412	29802.72
528.614	29583.59
528.815	29380.84
529.016	30060.77
529.218	29589.74
529.419	29354.22
529.62	29579.5
529.822	29823.2
530.023	29616.36
530.224	29704.42
530.425	29755.62
530.626	29368.55
530.828	29573.35
531.029	30183.65
531.23	29898.98
531.431	29765.86
531.632	29827.3
531.833	29729
532.035	29843.68
532.236	29794.53
532.437	30005.47
532.638	30111.97
532.839	29909.22
533.04	30284
533.241	29708.52
533.442	30361.82
533.643	29884.64
533.844	30273.76
534.045	29898.98
534.246	29724.9
534.447	30337.24
534.648	30146.78
534.849	30202.08
535.05	29620.45
535.251	29948.13
535.451	29800.68
535.652	29999.33
535.853	29880.55
536.054	30044.38
536.255	30273.76
536.456	29997.28
536.657	30273.76
536.857	30167.26
537.058	29843.68
537.259	30146.78
537.46	30013.66
537.66	29966.56
537.861	30150.88
538.062	29972.71
538.263	30009.57
538.463	29778.15
538.664	29958.37
538.865	30091.49
539.065	30148.83
539.266	29960.42
539.466	29894.88
539.667	29479.14
539.868	30093.54
540.068	29712.61
540.269	29718.76
540.469	30054.62
540.67	29917.41
540.87	30097.63
541.071	30009.57
541.271	30122.21
541.472	29694.18
541.672	29952.23
541.873	29714.66
542.073	29180.14
542.274	29909.22
542.474	30052.58
542.675	29735.14
542.875	30097.63
543.075	29688.04
543.276	29540.58
543.476	30271.71
543.676	29620.45
543.877	29653.22
544.077	29819.11
544.277	29800.68
544.478	29542.63
544.678	29905.12
544.878	29532.39
545.078	29733.09
545.279	29579.5
545.479	29503.72
545.679	29679.85
545.879	29546.73
546.079	29421.8
546.28	29366.51
546.48	29391.08
546.68	29976.8
546.88	29821.16
547.08	29884.64
547.28	29817.06
547.48	29489.38
547.68	29628.65
547.88	29630.69
548.081	29620.45
548.281	29706.47
548.481	29522.15
548.681	29720.81
548.881	29638.89
549.081	29542.63
549.28	29458.67
549.48	29655.27
549.68	29569.26
549.88	29868.26
550.08	29341.93
550.28	29765.86
550.48	29526.25
550.68	30017.76
550.88	29317.36
551.08	29438.19
551.279	29563.11
551.479	29638.89
551.679	29485.29
551.879	29495.53
552.079	29499.62
552.278	29352.17
552.478	29618.41
552.678	29374.7
552.878	29624.55
553.077	29692.13
553.277	29231.34
553.477	29704.42
553.676	29276.4
553.876	29520.1
554.076	29337.83
554.275	29399.27
554.475	29194.48
554.674	29710.57
554.874	29751.52
555.074	29341.93
555.273	29841.64
555.473	29538.54
555.672	29321.45
555.872	29505.77
556.071	29464.81
556.271	29526.25
556.47	29411.56
556.67	28840.18
556.869	29208.81
557.068	29493.48
557.268	29202.67
557.467	29305.07
557.667	29372.65
557.866	29317.36
558.065	29305.07
558.265	29456.62
558.464	29296.88
558.663	29294.83
558.863	28911.86
559.062	29452.52
559.261	29542.63
559.461	29882.59
559.66	29305.07
559.859	29214.96
560.058	29548.78
560.258	29100.27
560.457	28932.34
560.656	29192.43
560.855	29053.17
561.054	29855.97
561.253	29126.89
561.453	29380.84
561.652	29481.19
561.851	29495.53
562.05	29231.34
562.249	28999.92
562.448	29530.34
562.647	29331.69
562.846	28815.6
563.045	29110.51
563.244	28963.06
563.443	29415.66
563.642	29210.86
563.841	29384.94
564.04	29333.74
564.239	29634.79
564.438	28758.26
564.637	29139.18
564.836	28940.53
565.035	28907.76
565.234	28856.56
565.432	29032.69
565.631	29174
565.83	29051.12
566.029	29061.36
566.228	28713.2
566.427	28938.48
566.625	28473.59
566.824	28657.91
567.023	29102.32
567.222	28696.82
567.42	28928.24
567.619	29137.13
567.818	28958.96
568.016	29188.33
568.215	29057.26
568.414	28756.21
568.612	28987.63
568.811	29022.45
569.01	28766.45
569.208	28647.67
569.407	28893.43
569.605	29020.4
569.804	28725.49
570.002	28600.57
570.201	28729.59
570.4	28635.38
570.598	28991.73
570.797	28659.96
570.995	28786.93
571.193	28483.83
571.392	29073.65
571.59	28547.32
571.789	28944.62
571.987	28610.81
572.186	29092.08
572.384	28614.9
572.582	28940.53
572.781	29124.85
572.979	28631.29
573.177	29102.32
573.376	29108.46
573.574	28459.26
573.772	28893.43
573.971	28655.86
574.169	28406.01
574.367	28401.91
574.565	28965.1
574.763	28799.22
574.962	28397.82
575.16	28682.48
575.358	28811.51
575.556	28436.73
575.754	28674.29
575.952	28262.65
576.151	28688.63
576.349	28100.86
576.547	28580.09
576.745	28465.4
576.943	28565.75
577.141	28672.25
577.339	28762.36
577.537	28713.2
577.735	28711.16
577.933	28031.23
578.131	28764.4
578.329	28410.11
578.527	28281.08
578.725	28217.6
578.923	28455.16
579.121	28315.9
579.319	28616.95
579.516	28446.97
579.714	28692.72
579.912	28592.37
580.11	28317.95
580.308	28541.18
580.506	28426.49
580.704	28262.65
580.901	28408.06
581.099	28684.53
581.297	28242.17
581.495	28268.8
581.692	28662.01
581.89	28389.63
582.088	28006.66
582.285	28018.94
582.483	28502.26
582.681	28254.46
582.878	28377.34
583.076	28020.99
583.274	28475.64
583.471	28082.43
583.669	28006.66
583.866	28166.4
584.064	28545.27
584.262	28004.61
584.459	28477.69
584.657	28291.32
584.854	28496.12
585.052	28166.4
585.249	28580.09
585.447	28715.25
585.644	28346.62
585.841	28545.27
586.039	28958.96
586.236	28023.04
586.434	28365.05
586.631	28303.61
586.828	28596.47
587.026	28135.68
587.223	28723.44
587.42	28332.28
587.618	28774.64
587.815	28637.43
588.012	28428.54
588.21	28524.79
588.407	28860.66
588.604	28645.62
588.801	28313.85
588.999	28559.61
589.196	28678.39
589.393	28786.93
589.59	28385.53
589.787	28477.69
589.984	28662.01
590.182	28496.12
590.379	28768.5
590.576	28434.68
590.773	28504.31
590.97	28625.14
591.167	28756.21
591.364	28625.14
591.561	28797.17
591.758	28631.29
591.955	29030.64
592.152	29126.89
592.349	28944.62
592.546	29034.74
592.743	29176.05
592.94	28987.63
593.137	29010.16
593.334	29341.93
593.531	28811.51
593.727	29253.87
593.924	29507.82
594.121	29245.68
594.318	29847.78
594.515	29491.43
594.712	29980.9
594.908	29391.08
595.105	29964.51
595.302	29475.05
595.499	30185.69
595.696	29755.62
595.892	29532.39
596.089	30107.87
596.286	29886.69
596.482	30138.59
596.679	30122.21
596.876	29997.28
597.072	30230.75
597.269	30093.54
597.466	30394.59
597.662	30488.79
597.859	30220.51
598.055	30800.08
598.252	30488.79
598.448	30865.62
598.645	30867.67
598.841	30826.71
599.038	30732.5
599.234	31232.21
599.431	30916.82
599.627	31447.24
599.824	31246.54
600.02	31664.33
600.217	31443.15
600.413	31611.08
600.609	31461.58
600.806	31496.39
601.002	31942.85
601.198	31838.4
601.395	31965.38
601.591	32164.03
601.787	32387.26
601.984	31887.56
602.18	32968.88
602.376	32389.31
602.572	32434.36
602.769	32895.16
602.965	32495.8
603.161	32991.41
603.357	32985.27
603.553	33013.94
603.75	33501.36
603.946	33231.02
604.142	33554.6
604.338	33218.74
604.534	34039.97
604.73	33730.73
604.926	34326.69
605.122	34328.73
605.318	34123.94
605.514	34037.92
605.71	34273.44
605.906	34773.14
606.102	34617.5
606.298	35018.9
606.494	35156.11
606.69	35426.45
606.886	35448.97
607.082	35295.38
607.278	35864.71
607.474	35278.99
607.67	36012.17
607.866	35451.02
608.062	36589.69
608.257	36503.68
608.453	36692.09
608.649	37030.01
608.845	37023.86
609.041	37402.74
609.236	37542
609.432	37388.4
609.628	37937.26
609.824	37965.93
610.019	37902.44
610.215	38387.81
610.411	38387.81
610.606	38242.4
610.802	39067.73
610.998	38527.07
611.193	39354.45
611.389	39301.2
611.584	39258.2
611.78	39399.51
611.976	39632.97
612.171	40392.77
612.367	40224.84
612.562	40054.86
612.758	40290.37
612.953	40048.71
613.149	40968.25
613.344	40917.05
613.539	41771.05
613.735	41627.7
613.93	41932.84
614.126	41855.02
614.321	42420.26
614.517	42420.26
614.712	42565.67
614.907	42821.66
615.103	43358.23
615.298	43288.6
615.493	43909.13
615.688	43192.34
615.884	44449.8
616.079	43792.4
616.274	44871.68
616.47	44273.67
616.665	44642.31
616.86	44441.6
617.055	44265.48
617.25	44886.01
617.445	45475.83
617.641	45031.42
617.836	45707.25
618.031	45527.03
618.226	46295.02
618.421	45703.15
618.616	46708.71
618.811	45725.68
619.006	46755.81
619.201	45789.17
619.396	46514.15
619.591	45987.82
619.786	46600.16
619.981	46272.49
620.176	46989.28
620.371	46694.37
620.566	46682.08
620.761	46413.8
620.956	47110.11
621.151	47099.87
621.346	47638.48
621.541	46956.51
621.735	47665.11
621.93	46858.21
622.125	47157.21
622.32	46575.59
622.515	47630.29
622.709	46913.5
622.904	47542.23
623.099	47097.82
623.294	47108.06
623.488	46895.07
623.683	47527.89
623.878	46823.39
624.072	47538.13
624.267	47189.98
624.462	47042.52
624.656	46583.78
624.851	47443.93
625.046	46395.37
625.24	46768.1
625.435	46749.67
625.629	46610.4
625.824	46823.39
626.018	47122.4
626.213	46327.78
626.407	46602.21
626.602	46174.19
626.796	46491.62
626.991	46333.93
627.185	46338.02
627.38	46149.61
627.574	46196.71
627.768	46254.06
627.963	46393.32
628.157	45987.82
628.352	46082.03
628.546	45641.71
628.74	46247.91
628.935	45621.23
629.129	46131.18
629.323	45187.07
629.517	45680.63
629.712	45357.05
629.906	45010.94
630.1	44658.69
630.294	45168.63
630.489	45088.76
630.683	45266.94
630.877	44670.98
631.071	44750.85
631.265	45076.47
631.459	44808.19
631.653	44603.39
631.848	44369.93
632.042	44210.18
632.236	44589.06
632.43	43819.02
632.624	44204.04
632.818	44060.68
633.012	43767.82
633.206	43790.35
633.4	43845.65
633.594	43546.64
633.788	43892.75
633.982	43358.23
634.176	43155.48
634.369	42717.21
634.563	42614.82
634.757	42866.72
634.951	43012.12
635.145	42469.41
635.339	42633.25
635.533	42170.41
635.726	42618.91
635.92	42262.57
636.114	42119.21
636.308	41635.89
636.501	41951.27
636.695	41656.37
636.889	41300.02
637.083	41328.69
637.276	41207.86
637.47	40988.73
637.664	40915
637.857	40980.54
638.051	40720.45
638.244	40462.4
638.438	40843.32
638.632	40290.37
638.825	40083.53
639.019	39960.65
639.212	39641.17
639.406	40085.58
639.599	39678.03
639.793	39530.58
639.986	38858.84
640.18	39057.49
640.373	38991.96
640.567	38572.13
640.76	38770.78
640.954	38379.62
641.147	38549.6
641.34	38350.95
641.534	38494.3
641.727	38166.63
641.92	37978.22
642.114	37711.98
642.307	37935.21
642.5	37474.41
642.694	36946.04
642.887	37019.77
643.08	37562.48
643.273	36982.9
643.467	37013.62
643.66	36268.16
643.853	36188.29
644.046	35989.64
644.239	36001.93
644.432	35940.49
644.626	36036.74
644.819	35274.9
645.012	35664.01
645.205	35188.88
645.398	34932.89
645.591	34912.41
645.784	34805.91
645.977	34652.31
646.17	34730.14
646.363	34429.09
646.556	33822.89
646.749	33757.35
646.942	34271.39
647.135	33951.91
647.328	33503.4
647.521	33722.54
647.714	32923.83
647.907	33120.43
648.099	32936.12
648.292	32989.36
648.485	32798.9
648.678	32311.49
648.871	32489.66
649.064	32489.66
649.256	32510.14
649.449	32252.09
649.642	31846.6
649.835	31396.04
650.027	31547.59
650.22	31011.03
650.413	30992.59
650.605	31150.29
650.798	30744.79
650.991	30492.89
651.183	30695.64
651.376	30286.04
651.568	30449.88
651.761	29960.42
651.954	30052.58
652.146	29792.48
652.339	29755.62
652.531	29595.88
652.724	29380.84
652.916	29069.55
653.109	29122.8
653.301	28934.39
653.494	28715.25
653.686	28608.76
653.879	28424.44
654.071	28360.95
654.263	27799.81
654.456	27912.45
654.648	28215.55
654.84	27435.27
655.033	27609.35
655.225	27513.09
655.417	27099.41
655.61	27042.06
655.802	26929.42
655.994	26794.26
656.186	26892.56
656.379	26700.05
656.571	26523.93
656.763	26165.53
656.955	25893.15
657.148	26052.89
657.34	25907.49
657.532	25686.31
657.724	25190.7
657.916	25637.16
658.108	25528.61
658.3	25090.35
658.492	25057.58
658.684	24389.94
658.876	24463.67
659.068	24385.85
659.26	24330.55
659.452	24301.88
659.644	24127.8
659.836	23959.87
660.028	23839.04
660.22	23513.41
660.412	23386.44
660.604	23288.14
660.796	23241.03
660.988	23234.89
661.18	22982.99
661.372	22817.1
661.563	22933.84
661.755	22325.59
661.947	22436.18
662.139	22376.79
662.331	22280.53
662.522	21694.82
662.714	22024.54
662.906	21735.77
663.097	21346.66
663.289	21535.07
663.481	21426.53
663.673	21109.1
663.864	21025.13
664.056	20781.42
664.247	20853.1
664.439	20478.32
664.631	20394.36
664.822	20558.19
665.014	20246.9
665.205	20205.94
665.397	20105.59
665.588	19888.51
665.78	19962.23
665.971	19552.64
666.163	19491.2
666.354	19235.21
666.546	19640.7
666.737	18870.67
666.929	19067.27
667.12	19118.47
667.311	18983.31
667.503	18647.44
667.694	18694.54
667.885	18399.63
668.077	18321.81
668.268	18063.77
668.459	18139.54
668.651	17785.24
668.842	18076.05
669.033	17654.17
669.224	17529.25
669.416	17734.04
669.607	17445.28
669.798	17256.87
669.989	17379.75
670.18	17269.16
670.371	17060.26
670.563	16984.49
670.754	16898.47
670.945	16683.44
671.136	16832.94
671.327	16875.95
671.518	16480.69
671.709	16443.82
671.9	16535.98
672.091	16290.23
672.282	16286.13
672.473	16105.91
672.664	16075.19
672.855	15966.65
673.046	15845.82
673.237	15747.51
673.428	15737.27
673.619	15393.22
673.809	15188.42
674	15321.54
674.191	15585.72
674.382	15077.83
674.573	15178.18
674.764	15034.82
674.954	15139.27
675.145	14733.77
675.336	14703.05
675.527	14694.86
675.717	14795.21
675.908	14389.71
676.099	14512.59
676.289	14522.83
676.48	14215.63
676.671	14383.57
676.861	14346.7
677.052	14019.03
677.243	13967.83
677.433	13943.25
677.624	13941.21
677.814	13873.62
678.005	13689.31
678.195	14016.98
678.386	13674.97
678.576	13357.53
678.767	13322.72
678.957	13527.52
679.148	13351.39
679.338	13343.2
679.529	13298.14
679.719	13124.07
679.909	13349.34
680.1	13056.48
680.29	13146.59
680.481	12868.07
680.671	13017.57
680.861	12784.1
681.052	13054.44
681.242	12589.55
681.432	12644.84
681.622	12390.89
681.813	12517.87
682.003	12368.37
682.193	12335.6
682.383	12497.39
682.573	12423.66
682.764	12333.55
682.954	12143.09
683.144	12237.3
683.334	12061.17
683.524	12083.7
683.714	12095.99
683.904	11893.24
684.094	11796.98
684.284	11829.75
684.474	12169.71
684.664	11788.79
684.854	11829.75
685.044	11635.19
685.234	11688.44
685.424	11479.55
685.614	11600.38
685.804	11631.1
685.994	11495.93
686.184	11532.79
686.374	11469.31
686.564	11229.7
686.753	11360.77
686.943	11307.52
687.133	11121.15
687.323	11217.41
687.513	11350.53
687.702	10992.13
687.892	11094.53
688.082	10916.36
688.272	11188.74
688.461	11043.33
688.651	11072
688.841	10922.5
689.03	10867.2
689.22	10684.94
689.41	10715.66
689.599	10611.21
689.789	10664.46
689.979	10707.46
690.168	10701.32
690.358	10562.06
690.547	10390.03
690.737	10461.71
690.926	10377.74
691.116	10392.08
691.305	10541.58
691.495	10283.53
691.684	10252.81
691.874	10289.68
692.063	10312.21
692.252	10146.32
692.442	10252.81
692.631	9970.19
692.82	9968.15
693.01	10041.87
693.199	9849.36
693.388	9785.88
693.578	9890.32
693.767	9804.31
693.956	9734.68
694.146	9665.05
694.335	9769.49
694.524	9841.17
694.713	9712.15
694.902	9536.03
695.092	9697.81
695.281	9525.79
695.47	9396.76
695.659	9361.95
695.848	9304.6
696.037	9458.2
696.226	9419.29
696.415	9251.36
696.604	9275.93
696.793	9167.39
696.982	9271.84
697.171	9198.11
697.36	9134.62
697.549	9030.18
697.738	9120.29
697.927	8935.97
698.116	8929.83
698.305	8794.66
698.494	8923.68
698.683	8780.32
698.872	8718.89
699.061	8788.52
699.25	8854.05
699.438	8722.98
699.627	8675.88
699.816	8645.16
700.005	8600.1
700.193	8610.34
700.382	8710.69
700.571	8436.27
700.76	8389.16
700.948	8360.49
701.137	8395.31
701.326	8329.77
701.514	8235.56
701.703	8139.31
701.892	8110.64
702.08	8348.2
702.269	8155.69
702.457	8192.56
702.646	8030.77
702.834	7776.82
703.023	8002.1
703.212	7862.83
703.4	7930.42
703.589	7903.79
703.777	7754.29
703.965	7801.4
704.154	7662.13
704.342	7672.37
704.531	7668.28
704.719	7604.79
704.907	7541.3
705.096	7551.54
705.284	7408.19
705.472	7397.95
705.661	7567.93
705.849	7303.74
706.037	7471.67
706.226	7084.61
706.414	7344.7
706.602	7189.05
706.79	7234.11
706.979	6963.78
707.167	7238.2
707.355	7021.12
707.543	7144
707.731	7096.89
707.919	6881.86
708.107	6939.2
708.296	6789.7
708.484	6951.49
708.672	6675.01
708.86	6779.46
709.048	6832.71
709.236	6699.59
709.424	6806.08
709.612	6658.63
709.8	6707.78
709.988	6574.66
710.176	6713.92
710.364	6586.95
710.551	6459.98
710.739	6310.47
710.927	6378.06
711.115	6314.57
711.303	6384.2
711.491	6337.1
711.679	6001.23
711.866	6306.38
712.054	6232.65
712.242	6050.38
712.43	6109.77
712.617	5990.99
712.805	5986.9
712.993	5993.04
713.181	6115.92
713.368	6060.62
713.556	5954.13
713.744	5630.55
713.931	5929.55
714.119	5939.79
714.306	5810.77
714.494	5790.29
714.682	5720.66
714.869	5577.3
715.057	5712.47
715.244	5524.05
715.432	5526.1
715.619	5632.6
715.807	5671.51
715.994	5440.09
716.182	5372.5
716.369	5489.24
716.556	5479
716.744	5210.72
716.931	5397.08
717.119	5349.98
717.306	5259.87
717.493	5229.15
717.681	5188.19
717.868	5194.33
718.055	5251.67
718.242	5216.86
718.43	5100.12
718.617	5028.45
718.804	5014.11
718.991	5104.22
719.179	5061.21
719.366	5010.01
719.553	4899.42
719.74	4819.55
719.927	4797.03
720.114	4733.54
720.301	4721.25
720.488	4729.44
720.676	4801.12
720.863	4809.31
721.05	4794.98
721.237	4784.74
721.424	4401.77
721.611	4473.45
721.798	4708.96
721.985	4635.24
722.172	4510.31
722.358	4483.69
722.545	4338.28
722.732	4407.91
722.919	4534.89
723.106	4369
723.293	4391.53
723.48	4448.87
723.667	4309.61
723.853	4293.23
724.04	4280.94
724.227	4260.46
724.414	4156.01
724.6	4110.96
724.787	4225.64
724.974	4244.07
725.161	4115.05
725.347	4084.33
725.534	4043.37
725.72	3965.55
725.907	3879.54
726.094	4160.11
726.28	3916.4
726.467	4000.37
726.653	3814
726.84	4016.75
727.027	3930.73
727.213	3811.95
727.4	3797.62
727.586	3910.26
727.773	3889.78
727.959	3668.59
728.145	3805.81
728.332	3719.79
728.518	3590.77
728.705	3879.54
728.891	3840.62
729.077	3635.83
729.264	3732.08
729.45	3709.55
729.636	3699.31
729.823	3455.61
730.009	3644.02
730.195	3494.52
730.382	3476.09
730.568	3416.69
730.754	3517.05
730.94	3367.54
731.126	3644.02
731.313	3564.15
731.499	3379.83
731.685	3535.48
731.871	3451.51
732.057	3461.75
732.243	3398.26
732.429	3336.82
732.615	3369.59
732.801	3279.48
732.987	3273.34
733.173	3347.06
733.359	3203.71
733.545	3291.77
733.731	3267.19
733.917	3207.8
734.103	3136.12
734.289	3078.78
734.475	2990.72
734.661	3211.9
734.847	3093.12
735.033	3023.48
735.219	3150.46
735.404	3003
735.59	3041.92
735.776	2929.28
735.962	2912.89
736.148	3089.02
736.333	2896.51
736.519	2919.04
736.705	3035.77
736.89	2992.77
737.076	2962.05
737.262	2837.12
737.447	2919.04
737.633	2861.7
737.819	2757.25
738.004	2843.26
738.19	2800.26
738.375	2720.39
738.561	2833.02
738.747	2687.62
738.932	2718.34
739.118	2722.43
739.303	2792.06
739.489	2679.43
739.674	2734.72
739.859	2601.6
740.045	2763.39
740.23	2691.71
740.416	2562.69
740.601	2589.32
740.786	2511.49
740.972	2513.54
741.157	2538.12
741.342	2468.49
741.528	2503.3
741.713	2570.88
741.898	2304.65
742.084	2398.85
742.269	2497.16
742.454	2429.57
742.639	2491.01
742.824	2325.13
743.01	2439.81
743.195	2466.44
743.38	2314.89
743.565	2370.18
743.75	2306.7
743.935	2398.85
744.12	2439.81
744.305	2251.4
744.49	2306.7
744.675	2357.89
744.86	2224.78
745.045	2181.77
745.23	2144.91
745.415	2259.59
745.6	2198.15
745.785	2144.91
745.97	2232.97
746.155	2144.91
746.34	2171.53
746.525	2058.89
746.71	2198.15
746.895	2046.6
747.079	2007.69
747.264	1981.07
747.449	2079.37
747.634	2062.99
747.819	2120.33
748.003	2015.88
748.188	1995.4
748.373	2015.88
748.557	2034.32
748.742	1933.97
748.927	1925.77
749.111	1878.67
749.296	1878.67
749.481	2005.64
749.665	1929.87
749.85	1901.2
750.034	1931.92
750.219	1845.9
750.404	1759.89
750.588	1958.54
750.773	1675.92
750.957	1792.66
751.141	1731.22
751.326	1763.98
751.51	1776.27
751.695	1725.07
751.879	1735.31
752.064	1800.85
752.248	1708.69
752.432	1741.46
752.617	1727.12
752.801	1763.98
752.985	1637.01
753.17	1798.8
753.354	1694.35
753.538	1563.28
753.722	1673.87
753.907	1591.95
754.091	1594
754.275	1637.01
754.459	1647.25
754.643	1544.85
754.828	1579.67
755.012	1610.39
755.196	1475.22
755.38	1534.61
755.564	1507.99
755.748	1579.67
755.932	1481.36
756.116	1528.47
756.3	1503.89
756.484	1475.22
756.668	1516.18
756.852	1559.19
757.036	1424.02
757.22	1428.12
757.404	1491.6
757.588	1469.08
757.772	1419.92
757.956	1485.46
758.14	1362.58
758.323	1356.44
758.507	1507.99
758.691	1409.69
758.875	1319.57
759.059	1438.36
759.242	1383.06
759.426	1374.87
759.61	1331.86
759.794	1342.1
759.977	1360.53
760.161	1413.78
760.345	1428.12
760.528	1327.77
760.712	1311.38
760.895	1217.18
761.079	1256.09
761.263	1192.6
761.446	1284.76
761.63	1280.66
761.813	1251.99
761.997	1204.89
762.18	1176.22
762.364	1270.42
762.547	1108.63
762.731	1229.46
762.914	1231.51
763.098	1270.42
763.281	1260.18
763.464	1221.27
763.648	1225.37
763.831	1278.62
764.015	1284.76
764.198	1340.05
764.381	1196.7
764.564	1280.66
764.748	1182.36
764.931	1219.22
765.114	1120.92
765.297	1163.93
765.481	1073.82
765.664	1176.22
765.847	1182.36
766.03	1229.46
766.213	1120.92
766.397	1032.86
766.58	1108.63
766.763	1282.71
766.946	1159.83
767.129	1188.5
767.312	1163.93
767.495	1139.35
767.678	1120.92
767.861	1188.5
768.044	1082.01
768.227	1143.45
768.41	1168.02
768.593	1108.63
768.776	1120.92
768.959	993.95
769.142	1098.39
769.324	1071.77
769.507	1092.25
769.69	1161.88
769.873	1084.06
770.056	1092.25
770.239	1217.18
770.421	1151.64
770.604	1049.24
770.787	1092.25
770.97	1063.58
771.152	1071.77
771.335	1057.43
771.518	1120.92
771.7	1143.45
771.883	1006.24
772.066	1010.33
772.248	1069.72
772.431	1120.92
772.613	991.9
772.796	1051.29
772.978	1030.81
773.161	1032.86
773.343	975.52
773.526	973.47
773.708	1030.81
773.891	914.08
774.073	1022.62
774.256	1008.28
774.438	1020.57
774.621	991.9
774.803	963.23
774.985	946.84
775.168	1061.53
775.35	979.61
775.532	1002.14
775.715	948.89
775.897	983.71
776.079	869.02
776.261	928.41
776.444	907.93
776.626	1008.28
776.808	930.46
776.99	930.46
777.173	862.88
777.355	887.45
777.537	955.04
777.719	871.07
777.901	838.3
778.083	846.49
778.265	803.49
778.447	895.65
778.629	866.97
778.811	881.31
778.993	907.93
779.175	889.5
779.357	780.96
779.539	742.05
779.721	754.34
779.903	854.69
780.085	750.24
780.267	881.31
780.449	807.58
780.631	842.4
780.812	922.27
780.994	752.29
781.176	899.74
781.358	791.2
781.54	656.03
781.721	793.25
781.903	723.62
782.085	717.47
782.267	807.58
782.448	678.56
782.63	770.72
782.812	740
782.993	834.21
783.175	793.25
783.357	696.99
783.538	684.7
783.72	752.29
783.901	608.93
784.083	754.34
784.264	606.88
784.446	658.08
784.627	602.79
784.809	696.99
784.99	668.32
785.172	678.56
785.353	643.74
785.535	590.5
785.716	643.74
785.897	635.55
786.079	553.63
786.26	662.18
786.441	580.26
786.623	594.59
786.804	557.73
786.985	561.83
787.167	484
787.348	502.44
787.529	541.35
787.71	699.04
787.891	553.63
788.073	584.35
788.254	518.82
788.435	559.78
788.616	475.81
788.797	516.77
788.978	545.44
789.159	473.76
789.34	565.92
789.522	518.82
789.703	510.63
789.884	598.69
790.065	473.76
790.246	586.4
790.427	496.29
790.607	455.33
790.788	490.15
790.969	449.19
791.15	557.73
791.331	504.48
791.512	518.82
791.693	354.98
791.874	524.96
792.054	613.03
792.235	383.65
792.416	449.19
792.597	426.66
792.778	465.57
792.958	434.85
793.139	520.87
793.32	434.85
793.5	469.67
793.681	533.15
793.862	465.57
794.042	389.8
794.223	359.08
794.404	389.8
794.584	422.56
794.765	473.76
794.945	387.75
795.126	443.04
795.306	443.04
795.487	393.89
795.667	381.6
795.848	471.72
796.028	383.65
796.209	385.7
796.389	453.28
796.57	379.56
796.75	342.69
796.93	348.84
797.111	414.37
797.291	473.76
797.471	389.8
797.652	283.3
797.832	275.11
798.012	428.71
798.192	352.93
798.373	318.12
798.553	379.56
798.733	365.22
798.913	322.21
799.093	334.5
799.274	330.41
799.454	281.25
799.634	365.22
799.814	344.74
799.994	340.65
800.174	342.69
800.354	391.84
800.534	279.21
800.714	322.21
800.894	381.6
801.074	332.45
801.254	334.5
801.434	383.65
801.614	443.04
801.794	266.92
801.974	1170.07
802.154	344.74
802.334	307.88
802.514	246.44
802.693	256.68
802.873	314.02
803.053	383.65
803.233	342.69
803.413	273.06
803.592	268.97
803.772	301.73
803.952	287.4
804.131	289.45
804.311	279.21
804.491	271.01
804.67	271.01
804.85	244.39
805.03	289.45
805.209	361.13
805.389	248.49
805.568	213.67
805.748	266.92
805.928	246.44
806.107	258.73
806.287	340.65
806.466	271.01
806.646	228.01
806.825	324.26
807.004	244.39
807.184	301.73
807.363	256.68
807.543	285.35
807.722	242.34
807.901	289.45
808.081	244.39
808.26	144.04
808.439	187.05
808.619	275.11
808.798	182.95
808.977	287.4
809.156	287.4
809.336	185
809.515	172.71
809.694	205.48
809.873	187.05
810.052	211.62
810.231	250.53
810.411	228.01
810.59	242.34
810.769	217.77
810.948	311.97
811.127	193.19
811.306	213.67
811.485	242.34
811.664	303.78
811.843	225.96
812.022	115.37
812.201	154.28
812.38	78.51
812.559	213.67
812.737	301.73
812.916	150.18
813.095	164.52
813.274	217.77
813.453	154.28
813.632	326.31
813.811	303.78
813.989	162.47
814.168	242.34
814.347	131.75
814.526	185
814.704	195.24
814.883	258.73
815.062	166.57
815.24	285.35
815.419	129.7
815.598	230.06
815.776	55.98
815.955	207.53
816.133	160.42
816.312	105.13
816.49	166.57
816.669	187.05
816.847	105.13
817.026	146.09
817.204	90.79
817.383	152.23
817.561	109.23
817.74	201.38
817.918	242.34
818.097	187.05
818.275	144.04
818.453	144.04
818.632	213.67
818.81	131.75
818.988	154.28
819.167	221.86
819.345	127.66
819.523	103.08
819.701	133.8
819.879	182.95
820.058	232.1
820.236	189.1
820.414	115.37
820.592	115.37
820.77	197.29
820.948	139.94
821.127	129.7
821.305	189.1
821.483	139.94
821.661	168.62
821.839	139.94
822.017	137.9
822.195	84.65
822.373	232.1
822.551	133.8
822.729	182.95
822.907	160.42
823.085	148.14
823.262	170.66
823.44	158.38
823.618	162.47
823.796	117.42
823.974	51.88
824.152	84.65
824.329	86.7
824.507	193.19
824.685	88.75
824.863	88.75
825.04	199.34
825.218	178.86
825.396	176.81
825.574	96.94
825.751	189.1
825.929	156.33
826.107	66.22
826.284	137.9
826.462	158.38
826.639	92.84
826.817	60.07
826.994	168.62
827.172	80.55
827.349	176.81
827.527	125.61
827.704	121.51
827.882	152.23
828.059	123.56
828.237	23.21
828.414	156.33
828.591	111.27
828.769	176.81
828.946	109.23
829.124	146.09
829.301	164.52
829.478	150.18
829.655	139.94
829.833	111.27
830.01	53.93
830.187	137.9
830.364	115.37
830.542	98.99
830.719	172.71
830.896	131.75
831.073	123.56
831.25	72.36
831.427	182.95
831.604	135.85
831.782	35.5
831.959	117.42
832.136	53.93
832.313	60.07
832.49	53.93
832.667	215.72
832.844	90.79
833.021	156.33
833.198	90.79
833.374	21.16
833.551	68.27
833.728	111.27
833.905	146.09
834.082	84.65
834.259	141.99
834.436	156.33
834.612	19.11
834.789	78.51
834.966	125.61
835.143	103.08
835.319	47.79
835.496	78.51
835.673	187.05
835.85	103.08
836.026	47.79
836.203	76.46
836.38	158.38
836.556	41.64
836.733	64.17
836.909	199.34
837.086	31.4
837.262	35.5
837.439	90.79
837.616	82.6
837.792	96.94
837.968	49.83
838.145	37.55
838.321	113.32
838.498	62.12
838.674	125.61
838.851	101.03
839.027	-30.04
839.203	123.56
839.38	94.89
839.556	55.98
839.732	76.46
839.909	121.51
840.085	146.09
840.261	39.59
840.437	119.46
840.614	80.55
840.79	141.99
840.966	182.95
841.142	49.83
841.318	35.5
841.494	27.31
841.671	74.41
841.847	23.21
842.023	-9.56
842.199	98.99
842.375	15.02
842.551	8.87
842.727	72.36
842.903	103.08
843.079	-3.41
843.255	168.62
843.431	-15.7
843.607	62.12
843.783	2.73
843.959	64.17
844.134	-40.28
844.31	101.03
844.486	58.03
844.662	43.69
844.838	55.98
845.013	144.04
845.189	66.22
845.365	41.64
845.541	15.02
845.716	70.31
845.892	21.16
846.068	33.45
846.244	12.97
846.419	94.89
846.595	-25.94
846.77	4.78
846.946	76.46
847.122	41.64
847.297	88.75
847.473	98.99
847.648	33.45
847.824	113.32
847.999	-19.8
848.175	35.5
848.35	15.02
848.526	127.66
848.701	49.83
848.876	207.53
849.052	123.56
849.227	101.03
849.403	23.21
849.578	37.55
849.753	105.13
849.929	10.92
850.104	-62.8
850.279	4.78
850.454	27.31
850.63	90.79
850.805	60.07
850.98	55.98
851.155	39.59
851.33	121.51
851.505	-38.23
851.681	166.57
851.856	12.97
852.031	72.36
852.206	88.75
852.381	47.79
852.556	103.08
852.731	23.21
852.906	64.17
853.081	35.5
853.256	53.93
853.431	160.42
853.606	43.69
853.781	-23.89
853.956	-111.96
854.131	103.08
854.305	23.21
854.48	-79.19
854.655	17.07
854.83	-60.76
855.005	64.17
855.18	62.12
855.354	39.59
855.529	21.16
855.704	-75.09
855.879	60.07
856.053	-52.56
856.228	125.61
856.403	-30.04
856.577	64.17
856.752	-7.51
856.926	33.45
857.101	68.27
857.276	-32.08
857.45	29.35
857.625	74.41
857.799	0.68
857.974	43.69
858.148	-62.8
858.323	23.21
858.497	47.79
858.672	17.07
858.846	15.02
859.02	70.31
859.195	-9.56
859.369	-50.52
859.543	15.02
859.718	25.26
859.892	129.7
860.066	68.27
860.241	25.26
860.415	39.59
860.589	72.36
860.763	-50.52
860.938	92.84
861.112	92.84
861.286	-56.66
861.46	66.22
861.634	31.4
861.808	92.84
861.982	43.69
862.157	45.74
862.331	33.45
862.505	-101.72
862.679	-56.66
862.853	-27.99
863.027	66.22
863.201	101.03
863.375	17.07
863.549	15.02
863.722	31.4
863.896	105.13
864.07	76.46
864.244	49.83
864.418	76.46
864.592	15.02
864.766	35.5
864.939	111.27
865.113	-3.41
865.287	49.83
865.461	-44.37
865.634	25.26
865.808	49.83
865.982	0.68
866.156	-21.84
866.329	31.4
866.503	55.98
866.676	45.74
866.85	53.93
867.024	21.16
867.197	105.13
867.371	45.74
867.544	-5.46
867.718	-19.8
867.891	37.55
868.065	25.26
868.238	70.31
868.412	10.92
868.585	17.07
868.759	31.4
868.932	-25.94
869.105	-66.9
869.279	-30.04
869.452	12.97
869.625	27.31
869.799	31.4
869.972	21.16
870.145	-48.47
870.319	49.83
870.492	-19.8
870.665	41.64
870.838	-7.51
871.011	-15.7
871.185	35.5
871.358	-13.65
871.531	55.98
871.704	23.21
871.877	47.79
872.05	-19.8
872.223	-99.67
872.396	-23.89
872.569	53.93
872.742	-50.52
872.915	39.59
873.088	-23.89
873.261	25.26
873.434	6.83
873.607	37.55
873.78	53.93
873.953	62.12
874.126	-11.61
874.299	35.5
874.471	41.64
874.644	-15.7
874.817	15.02
874.99	76.46
875.163	-11.61
875.335	47.79
875.508	66.22
875.681	123.56
875.853	-25.94
876.026	82.6
876.199	64.17
876.371	82.6
876.544	-32.08
876.717	-23.89
876.889	74.41
877.062	49.83
877.234	37.55
877.407	-11.61
877.579	25.26
877.752	12.97
877.924	39.59
878.097	-5.46
878.269	-27.99
878.442	60.07
878.614	15.02
878.786	2.73
878.959	-5.46
879.131	119.46
879.303	-52.56
879.476	6.83
879.648	72.36
879.82	15.02
879.993	-15.7
880.165	-7.51
880.337	8.87
880.509	-5.46
880.681	-42.32
880.854	-11.61
881.026	-58.71
881.198	96.94
881.37	-1.37
881.542	10.92
881.714	19.11
881.886	-30.04
882.058	-30.04
882.23	62.12
882.402	-23.89
882.574	33.45
882.746	43.69
882.918	43.69
883.09	39.59
883.262	41.64
883.434	39.59
883.606	2.73
883.778	-27.99
883.95	78.51
884.122	-23.89
884.293	76.46
884.465	70.31
884.637	-3.41
884.809	-15.7
884.98	35.5
885.152	-36.18
885.324	37.55
885.496	-38.23
885.667	55.98
885.839	4.78
886.011	103.08
886.182	43.69
886.354	2.73
886.525	41.64
886.697	19.11
886.869	64.17
887.04	55.98
887.212	12.97
887.383	156.33
887.555	45.74
887.726	-11.61
887.897	39.59
888.069	-34.13
888.24	4.78
888.412	2.73
888.583	-11.61
888.754	2.73
888.926	-38.23
889.097	2.73
889.268	-36.18
889.44	-58.71
889.611	-66.9
889.782	-46.42
889.953	-48.47
890.125	86.7
890.296	-46.42
890.467	45.74
890.638	49.83
890.809	-11.61
890.98	-44.37
891.151	-7.51
891.323	101.03
891.494	70.31
891.665	-30.04
891.836	-21.84
892.007	33.45
892.178	64.17
892.349	-5.46
892.52	37.55
892.691	53.93
892.862	21.16
893.032	-73.04
893.203	-50.52
893.374	-23.89
893.545	47.79
893.716	25.26
893.887	23.21
894.057	8.87
894.228	-1.37
894.399	17.07
894.57	107.18
894.74	17.07
894.911	74.41
895.082	-50.52
895.253	-11.61
895.423	-79.19
895.594	41.64
895.764	-58.71
895.935	19.11
896.106	10.92
896.276	2.73
896.447	23.21
896.617	-52.56
896.788	-48.47
896.958	-17.75
897.129	-38.23
897.299	-68.95
897.47	45.74
897.64	15.02
897.81	-9.56
897.981	17.07
898.151	0.68
898.322	43.69
898.492	35.5
898.662	-66.9
898.832	-17.75
899.003	17.07
899.173	86.7
899.343	25.26
899.513	-7.51
