Data from USB4F104151__84__12-12-59-701.txt Node

Date: Fri Mar 14 12:12:59 EDT 2025
User: louis
Spectrometer: USB4F10415
Trigger mode: 4
Integration Time (sec): 5.000000E-2
Scans to average: 1
Electric dark correction enabled: true
Nonlinearity correction enabled: false
Boxcar width: 0
XAxis mode: Wavelengths
Number of Pixels in Spectrum: 3648
>>>>>Begin Spectral Data<<<<<
178.204	-259.58
178.424	-259.58
178.644	-259.58
178.864	-241.15
179.084	-189.95
179.304	2.56
179.524	-19.97
179.744	-11.78
179.964	45.57
180.184	25.09
180.404	8.7
180.624	-36.35
180.844	-17.92
181.064	-46.59
181.283	25.09
181.503	12.8
181.723	12.8
181.943	-28.16
182.163	107.01
182.383	10.75
182.602	98.81
182.822	57.86
183.042	74.24
183.262	8.7
183.482	-40.45
183.701	64
183.921	51.71
184.141	-103.93
184.361	61.95
184.58	35.33
184.8	41.47
185.02	-105.98
185.239	27.14
185.459	0.51
185.679	49.66
185.898	-30.21
186.118	18.94
186.338	-50.69
186.557	49.66
186.777	53.76
186.997	-46.59
187.216	-3.58
187.436	74.24
187.655	57.86
187.875	-5.63
188.095	-15.87
188.314	55.81
188.534	29.18
188.753	-30.21
188.973	74.24
189.192	92.67
189.412	59.9
189.631	49.66
189.851	-1.54
190.07	107.01
190.29	14.85
190.509	10.75
190.729	14.85
190.948	115.2
191.168	213.5
191.387	59.9
191.607	14.85
191.826	43.52
192.045	-19.97
192.265	51.71
192.484	43.52
192.704	-48.64
192.923	-3.58
193.142	49.66
193.362	14.85
193.581	55.81
193.8	90.62
194.02	96.77
194.239	39.42
194.458	47.62
194.678	-48.64
194.897	47.62
195.116	80.38
195.335	74.24
195.555	33.28
195.774	39.42
195.993	-3.58
196.212	18.94
196.432	53.76
196.651	29.18
196.87	-5.63
197.089	152.06
197.308	4.61
197.528	29.18
197.747	31.23
197.966	94.72
198.185	72.19
198.404	4.61
198.623	74.24
198.842	68.09
199.062	180.73
199.281	86.53
199.5	-50.69
199.719	45.57
199.938	57.86
200.157	76.29
200.376	84.48
200.595	66.05
200.814	127.49
201.033	57.86
201.252	133.63
201.471	29.18
201.69	55.81
201.909	64
202.128	53.76
202.347	96.77
202.566	47.62
202.785	-42.5
203.004	82.43
203.223	123.39
203.442	16.9
203.661	-32.26
203.879	-36.35
204.098	92.67
204.317	39.42
204.536	27.14
204.755	43.52
204.974	64
205.193	-15.87
205.411	164.35
205.63	6.66
205.849	143.87
206.068	-13.82
206.287	-58.88
206.505	51.71
206.724	113.15
206.943	53.76
207.162	18.94
207.381	18.94
207.599	37.38
207.818	76.29
208.037	16.9
208.255	41.47
208.474	6.66
208.693	47.62
208.911	64
209.13	78.33
209.349	0.51
209.567	111.1
209.786	76.29
210.005	20.99
210.223	47.62
210.442	-5.63
210.661	29.18
210.879	18.94
211.098	-5.63
211.316	-52.74
211.535	43.52
211.753	20.99
211.972	45.57
212.191	4.61
212.409	84.48
212.628	133.63
212.846	-5.63
213.065	-11.78
213.283	107.01
213.502	-67.07
213.72	25.09
213.938	80.38
214.157	-71.17
214.375	96.77
214.594	-5.63
214.812	57.86
215.031	43.52
215.249	66.05
215.467	41.47
215.686	57.86
215.904	100.86
216.122	59.9
216.341	29.18
216.559	113.15
216.778	23.04
216.996	82.43
217.214	-22.02
217.432	51.71
217.651	-24.06
217.869	25.09
218.087	-28.16
218.306	-48.64
218.524	84.48
218.742	0.51
218.96	33.28
219.179	29.18
219.397	49.66
219.615	154.11
219.833	27.14
220.051	-15.87
220.27	41.47
220.488	64
220.706	2.56
220.924	-38.4
221.142	-26.11
221.36	8.7
221.578	107.01
221.796	-40.45
222.015	-36.35
222.233	14.85
222.451	55.81
222.669	23.04
222.887	0.51
223.105	82.43
223.323	84.48
223.541	-50.69
223.759	76.29
223.977	25.09
224.195	115.2
224.413	92.67
224.631	16.9
224.849	51.71
225.067	150.01
225.285	-15.87
225.503	86.53
225.721	-19.97
225.939	-5.63
226.157	49.66
226.375	184.83
226.592	-5.63
226.81	-15.87
227.028	107.01
227.246	90.62
227.464	16.9
227.682	113.15
227.9	29.18
228.117	-26.11
228.335	107.01
228.553	-15.87
228.771	49.66
228.989	51.71
229.206	33.28
229.424	14.85
229.642	-13.82
229.86	-105.98
230.077	61.95
230.295	61.95
230.513	129.53
230.731	66.05
230.948	43.52
231.166	188.93
231.384	-28.16
231.601	-52.74
231.819	78.33
232.037	-15.87
232.254	72.19
232.472	23.04
232.689	12.8
232.907	55.81
233.125	68.09
233.342	43.52
233.56	-91.65
233.777	-5.63
233.995	76.29
234.213	84.48
234.43	59.9
234.648	74.24
234.865	-83.45
235.083	49.66
235.3	123.39
235.518	33.28
235.735	131.58
235.953	43.52
236.17	29.18
236.388	-28.16
236.605	76.29
236.822	70.14
237.04	66.05
237.257	33.28
237.475	-34.3
237.692	-3.58
237.909	37.38
238.127	25.09
238.344	41.47
238.562	6.66
238.779	-32.26
238.996	33.28
239.214	74.24
239.431	117.25
239.648	41.47
239.865	80.38
240.083	100.86
240.3	37.38
240.517	53.76
240.735	55.81
240.952	86.53
241.169	10.75
241.386	-48.64
241.603	25.09
241.821	6.66
242.038	88.57
242.255	57.86
242.472	-7.68
242.689	94.72
242.907	43.52
243.124	23.04
243.341	92.67
243.558	-11.78
243.775	-87.55
243.992	-15.87
244.209	80.38
244.426	102.91
244.643	45.57
244.86	-36.35
245.078	96.77
245.295	57.86
245.512	25.09
245.729	16.9
245.946	59.9
246.163	6.66
246.38	27.14
246.597	43.52
246.814	47.62
247.031	14.85
247.248	53.76
247.464	98.81
247.681	8.7
247.898	76.29
248.115	49.66
248.332	-13.82
248.549	57.86
248.766	125.44
248.983	90.62
249.2	-46.59
249.417	92.67
249.633	45.57
249.85	35.33
250.067	0.51
250.284	10.75
250.501	68.09
250.717	107.01
250.934	-9.73
251.151	12.8
251.368	2.56
251.585	107.01
251.801	72.19
252.018	72.19
252.235	92.67
252.451	43.52
252.668	51.71
252.885	-58.88
253.102	29.18
253.318	43.52
253.535	-36.35
253.752	-1.54
253.968	51.71
254.185	-93.69
254.401	4.61
254.618	49.66
254.835	-9.73
255.051	43.52
255.268	47.62
255.484	86.53
255.701	156.16
255.917	8.7
256.134	-38.4
256.351	45.57
256.567	33.28
256.784	23.04
257	-48.64
257.217	59.9
257.433	107.01
257.65	55.81
257.866	76.29
258.082	-11.78
258.299	0.51
258.515	84.48
258.732	43.52
258.948	-54.78
259.165	-26.11
259.381	20.99
259.597	82.43
259.814	6.66
260.03	18.94
260.246	115.2
260.463	107.01
260.679	61.95
260.895	35.33
261.112	74.24
261.328	23.04
261.544	-42.5
261.761	68.09
261.977	8.7
262.193	61.95
262.409	10.75
262.626	86.53
262.842	8.7
263.058	-26.11
263.274	20.99
263.49	10.75
263.707	145.92
263.923	74.24
264.139	76.29
264.355	6.66
264.571	4.61
264.787	51.71
265.004	61.95
265.22	-13.82
265.436	57.86
265.652	-28.16
265.868	90.62
266.084	6.66
266.3	64
266.516	31.23
266.732	-28.16
266.948	43.52
267.164	57.86
267.38	127.49
267.596	35.33
267.812	92.67
268.028	76.29
268.244	27.14
268.46	35.33
268.676	-34.3
268.892	70.14
269.108	18.94
269.324	-3.58
269.54	2.56
269.756	135.68
269.972	0.51
270.188	-71.17
270.403	-5.63
270.619	109.05
270.835	10.75
271.051	43.52
271.267	14.85
271.483	-40.45
271.698	55.81
271.914	23.04
272.13	82.43
272.346	-9.73
272.562	6.66
272.777	64
272.993	18.94
273.209	76.29
273.425	-3.58
273.64	51.71
273.856	39.42
274.072	53.76
274.287	53.76
274.503	16.9
274.719	76.29
274.934	-5.63
275.15	-62.98
275.366	29.18
275.581	31.23
275.797	37.38
276.012	70.14
276.228	23.04
276.444	64
276.659	47.62
276.875	-56.83
277.09	2.56
277.306	-67.07
277.521	88.57
277.737	100.86
277.952	74.24
278.168	33.28
278.383	51.71
278.599	27.14
278.814	135.68
279.03	100.86
279.245	84.48
279.461	18.94
279.676	76.29
279.892	20.99
280.107	-71.17
280.322	41.47
280.538	82.43
280.753	-24.06
280.969	49.66
281.184	-11.78
281.399	25.09
281.615	98.81
281.83	31.23
282.045	-34.3
282.26	18.94
282.476	47.62
282.691	68.09
282.906	137.73
283.122	61.95
283.337	-71.17
283.552	41.47
283.767	66.05
283.983	25.09
284.198	-40.45
284.413	66.05
284.628	-91.65
284.843	18.94
285.058	20.99
285.274	47.62
285.489	-22.02
285.704	64
285.919	16.9
286.134	25.09
286.349	10.75
286.564	29.18
286.779	133.63
286.995	12.8
287.21	-62.98
287.425	61.95
287.64	41.47
287.855	20.99
288.07	41.47
288.285	90.62
288.5	0.51
288.715	113.15
288.93	6.66
289.145	-19.97
289.36	90.62
289.575	37.38
289.79	61.95
290.004	-34.3
290.219	76.29
290.434	35.33
290.649	-22.02
290.864	-1.54
291.079	18.94
291.294	23.04
291.509	96.77
291.724	10.75
291.938	-17.92
292.153	74.24
292.368	55.81
292.583	-13.82
292.798	88.57
293.012	82.43
293.227	78.33
293.442	-44.54
293.657	66.05
293.871	45.57
294.086	64
294.301	66.05
294.516	57.86
294.73	14.85
294.945	31.23
295.16	0.51
295.374	109.05
295.589	84.48
295.804	57.86
296.018	76.29
296.233	141.82
296.447	37.38
296.662	-5.63
296.877	74.24
297.091	-13.82
297.306	-32.26
297.52	41.47
297.735	70.14
297.949	49.66
298.164	143.87
298.378	29.18
298.593	-50.69
298.807	23.04
299.022	-5.63
299.236	72.19
299.451	12.8
299.665	-5.63
299.88	25.09
300.094	84.48
300.309	35.33
300.523	25.09
300.737	35.33
300.952	39.42
301.166	8.7
301.381	102.91
301.595	-13.82
301.809	102.91
302.024	12.8
302.238	-46.59
302.452	113.15
302.667	-7.68
302.881	31.23
303.095	72.19
303.309	115.2
303.524	-36.35
303.738	33.28
303.952	-56.83
304.166	64
304.381	-67.07
304.595	76.29
304.809	37.38
305.023	14.85
305.237	-1.54
305.452	135.68
305.666	92.67
305.88	51.71
306.094	20.99
306.308	80.38
306.522	29.18
306.736	78.33
306.95	25.09
307.164	10.75
307.379	51.71
307.593	57.86
307.807	35.33
308.021	16.9
308.235	88.57
308.449	-1.54
308.663	8.7
308.877	193.02
309.091	104.96
309.305	35.33
309.519	4.61
309.733	29.18
309.947	-38.4
310.161	80.38
310.374	72.19
310.588	82.43
310.802	-54.78
311.016	-22.02
311.23	49.66
311.444	16.9
311.658	-13.82
311.872	119.29
312.085	125.44
312.299	92.67
312.513	53.76
312.727	117.25
312.941	-30.21
313.154	-5.63
313.368	74.24
313.582	-3.58
313.796	25.09
314.009	-11.78
314.223	27.14
314.437	113.15
314.651	-9.73
314.864	-32.26
315.078	8.7
315.292	-38.4
315.505	27.14
315.719	39.42
315.933	45.57
316.146	-26.11
316.36	-7.68
316.573	92.67
316.787	-11.78
317.001	61.95
317.214	66.05
317.428	78.33
317.641	-11.78
317.855	8.7
318.068	14.85
318.282	59.9
318.495	96.77
318.709	27.14
318.922	51.71
319.136	-62.98
319.349	137.73
319.563	-50.69
319.776	51.71
319.99	16.9
320.203	35.33
320.417	27.14
320.63	59.9
320.843	90.62
321.057	6.66
321.27	53.76
321.483	29.18
321.697	121.34
321.91	72.19
322.124	70.14
322.337	-9.73
322.55	16.9
322.763	109.05
322.977	127.49
323.19	59.9
323.403	47.62
323.617	57.86
323.83	176.64
324.043	-48.64
324.256	6.66
324.469	61.95
324.683	152.06
324.896	-5.63
325.109	129.53
325.322	-19.97
325.535	16.9
325.748	61.95
325.962	96.77
326.175	51.71
326.388	29.18
326.601	111.1
326.814	43.52
327.027	14.85
327.24	76.29
327.453	-26.11
327.666	31.23
327.879	143.87
328.092	55.81
328.305	61.95
328.518	92.67
328.731	29.18
328.944	10.75
329.157	-26.11
329.37	41.47
329.583	121.34
329.796	125.44
330.009	-5.63
330.222	76.29
330.435	59.9
330.648	43.52
330.861	92.67
331.073	-13.82
331.286	102.91
331.499	74.24
331.712	57.86
331.925	43.52
332.138	29.18
332.35	88.57
332.563	80.38
332.776	33.28
332.989	10.75
333.202	25.09
333.414	18.94
333.627	76.29
333.84	-26.11
334.053	18.94
334.265	-36.35
334.478	12.8
334.691	49.66
334.903	-22.02
335.116	6.66
335.329	51.71
335.541	61.95
335.754	76.29
335.966	45.57
336.179	-9.73
336.392	39.42
336.604	10.75
336.817	68.09
337.029	109.05
337.242	8.7
337.454	139.77
337.667	49.66
337.88	152.06
338.092	0.51
338.305	111.1
338.517	-28.16
338.729	53.76
338.942	76.29
339.154	-40.45
339.367	47.62
339.579	18.94
339.792	-44.54
340.004	8.7
340.217	45.57
340.429	37.38
340.641	-28.16
340.854	-32.26
341.066	-11.78
341.278	31.23
341.491	141.82
341.703	64
341.915	-89.6
342.128	57.86
342.34	-1.54
342.552	16.9
342.764	55.81
342.977	33.28
343.189	64
343.401	109.05
343.613	-1.54
343.826	18.94
344.038	23.04
344.25	-13.82
344.462	-15.87
344.674	-15.87
344.886	-1.54
345.099	49.66
345.311	109.05
345.523	-19.97
345.735	-50.69
345.947	53.76
346.159	12.8
346.371	90.62
346.583	25.09
346.795	133.63
347.007	-32.26
347.219	131.58
347.431	6.66
347.643	104.96
347.855	84.48
348.067	143.87
348.279	0.51
348.491	113.15
348.703	72.19
348.915	6.66
349.127	-11.78
349.339	33.28
349.551	8.7
349.763	82.43
349.975	80.38
350.187	127.49
350.399	127.49
350.61	66.05
350.822	14.85
351.034	72.19
351.246	70.14
351.458	72.19
351.669	72.19
351.881	76.29
352.093	72.19
352.305	135.68
352.517	43.52
352.728	78.33
352.94	47.62
353.152	-11.78
353.363	39.42
353.575	111.1
353.787	61.95
353.999	37.38
354.21	68.09
354.422	33.28
354.633	23.04
354.845	-36.35
355.057	-3.58
355.268	8.7
355.48	49.66
355.692	31.23
355.903	4.61
356.115	-15.87
356.326	-44.54
356.538	47.62
356.749	82.43
356.961	121.34
357.172	-11.78
357.384	-3.58
357.595	80.38
357.807	14.85
358.018	6.66
358.23	10.75
358.441	92.67
358.653	90.62
358.864	33.28
359.075	-46.59
359.287	39.42
359.498	-52.74
359.709	72.19
359.921	23.04
360.132	59.9
360.344	51.71
360.555	68.09
360.766	92.67
360.977	88.57
361.189	137.73
361.4	70.14
361.611	90.62
361.823	49.66
362.034	29.18
362.245	-22.02
362.456	-1.54
362.667	-30.21
362.879	49.66
363.09	41.47
363.301	35.33
363.512	12.8
363.723	-36.35
363.935	-1.54
364.146	37.38
364.357	59.9
364.568	12.8
364.779	-15.87
364.99	137.73
365.201	10.75
365.412	27.14
365.623	10.75
365.834	18.94
366.045	92.67
366.256	16.9
366.467	90.62
366.678	8.7
366.889	6.66
367.1	-42.5
367.311	-7.68
367.522	35.33
367.733	25.09
367.944	68.09
368.155	59.9
368.366	72.19
368.577	94.72
368.788	150.01
368.999	-46.59
369.209	59.9
369.42	190.97
369.631	129.53
369.842	6.66
370.053	64
370.264	53.76
370.474	27.14
370.685	47.62
370.896	12.8
371.107	102.91
371.317	68.09
371.528	25.09
371.739	76.29
371.95	8.7
372.16	45.57
372.371	-15.87
372.582	-11.78
372.792	10.75
373.003	18.94
373.214	61.95
373.424	94.72
373.635	14.85
373.846	129.53
374.056	80.38
374.267	68.09
374.477	57.86
374.688	64
374.898	70.14
375.109	74.24
375.319	-13.82
375.53	119.29
375.74	43.52
375.951	31.23
376.161	39.42
376.372	49.66
376.582	16.9
376.793	2.56
377.003	70.14
377.214	51.71
377.424	25.09
377.635	59.9
377.845	27.14
378.055	57.86
378.266	27.14
378.476	31.23
378.686	59.9
378.897	78.33
379.107	109.05
379.317	23.04
379.528	43.52
379.738	80.38
379.948	-46.59
380.158	92.67
380.369	0.51
380.579	59.9
380.789	-15.87
380.999	156.16
381.21	53.76
381.42	92.67
381.63	-24.06
381.84	92.67
382.05	45.57
382.261	78.33
382.471	25.09
382.681	39.42
382.891	90.62
383.101	72.19
383.311	10.75
383.521	-38.4
383.731	55.81
383.941	80.38
384.151	64
384.361	76.29
384.571	45.57
384.781	72.19
384.991	102.91
385.201	111.1
385.411	55.81
385.621	18.94
385.831	20.99
386.041	4.61
386.251	16.9
386.461	41.47
386.671	41.47
386.881	78.33
387.091	29.18
387.301	96.77
387.511	12.8
387.72	64
387.93	78.33
388.14	-19.97
388.35	139.77
388.56	139.77
388.769	66.05
388.979	49.66
389.189	35.33
389.399	72.19
389.609	147.97
389.818	135.68
390.028	70.14
390.238	92.67
390.447	4.61
390.657	102.91
390.867	57.86
391.076	47.62
391.286	102.91
391.496	37.38
391.705	35.33
391.915	43.52
392.125	127.49
392.334	-5.63
392.544	113.15
392.753	107.01
392.963	29.18
393.172	8.7
393.382	59.9
393.591	92.67
393.801	70.14
394.01	23.04
394.22	29.18
394.429	113.15
394.639	74.24
394.848	64
395.058	0.51
395.267	80.38
395.477	41.47
395.686	174.59
395.895	119.29
396.105	154.11
396.314	43.52
396.524	57.86
396.733	39.42
396.942	127.49
397.152	98.81
397.361	123.39
397.57	125.44
397.78	133.63
397.989	47.62
398.198	219.64
398.407	104.96
398.617	107.01
398.826	57.86
399.035	84.48
399.244	82.43
399.453	113.15
399.663	96.77
399.872	109.05
400.081	119.29
400.29	199.16
400.499	55.81
400.708	84.48
400.917	125.44
401.127	141.82
401.336	-32.26
401.545	133.63
401.754	139.77
401.963	121.34
402.172	59.9
402.381	39.42
402.59	55.81
402.799	57.86
403.008	137.73
403.217	143.87
403.426	137.73
403.635	133.63
403.844	123.39
404.053	82.43
404.262	45.57
404.471	188.93
404.68	186.88
404.888	113.15
405.097	145.92
405.306	152.06
405.515	164.35
405.724	125.44
405.933	205.31
406.142	104.96
406.35	209.4
406.559	160.25
406.768	205.31
406.977	195.07
407.185	197.12
407.394	121.34
407.603	113.15
407.812	225.79
408.02	244.22
408.229	225.79
408.438	190.97
408.646	141.82
408.855	195.07
409.064	201.21
409.272	248.32
409.481	279.04
409.69	305.66
409.898	207.36
410.107	279.04
410.315	285.18
410.524	250.36
410.733	313.85
410.941	283.13
411.15	365.05
411.358	311.8
411.567	367.1
411.775	344.57
411.984	315.9
412.192	297.47
412.401	293.37
412.609	428.54
412.818	489.98
413.026	430.59
413.234	463.35
413.443	416.25
413.651	403.96
413.86	582.14
414.068	475.64
414.276	678.39
414.485	520.7
414.693	543.22
414.901	662.01
415.11	526.84
415.318	655.86
415.526	633.33
415.734	657.91
415.943	670.2
416.151	686.58
416.359	705.01
416.567	674.29
416.776	772.6
416.984	840.18
417.192	797.17
417.4	879.09
417.608	889.33
417.817	821.75
418.025	905.71
418.233	1044.98
418.441	932.34
418.649	1024.5
418.857	1008.11
419.065	1130.99
419.273	1061.36
419.481	1122.8
419.689	1221.1
419.897	1303.02
420.105	1325.55
420.313	1405.42
420.521	1380.84
420.729	1282.54
420.937	1360.36
421.145	1417.71
421.353	1536.49
421.561	1606.12
421.769	1604.07
421.977	1657.32
422.185	1712.61
422.393	1704.42
422.601	1815.01
422.809	1921.51
423.017	1847.78
423.224	2093.54
423.432	1993.19
423.64	2028
423.848	2175.45
424.056	2255.33
424.263	2187.74
424.471	2370.01
424.679	2449.88
424.887	2556.38
425.094	2603.48
425.302	2628.06
425.51	2687.45
425.718	2834.9
425.925	2761.17
426.133	2912.72
426.341	3187.15
426.548	3158.48
426.756	3350.99
426.964	3267.02
427.171	3334.61
427.379	3572.17
427.586	3586.51
427.794	3828.17
428.001	3963.33
428.209	4069.83
428.417	3989.96
428.624	4270.53
428.832	4352.45
429.039	4143.55
429.247	4288.96
429.454	4680.12
429.662	4899.25
429.869	4667.83
430.076	4915.64
430.284	4866.49
430.491	5032.37
430.699	5235.12
430.906	5372.33
431.114	5388.72
431.321	5646.76
431.528	5751.21
431.736	6136.23
431.943	6185.38
432.15	6115.75
432.358	6142.37
432.565	6621.59
432.772	6457.76
432.979	6875.54
433.187	7041.43
433.394	7041.43
433.601	7395.73
433.808	7469.45
434.016	7424.4
434.223	7725.45
434.43	8341.89
434.637	8020.36
434.844	8595.84
435.052	8706.43
435.259	8624.51
435.466	8937.85
435.673	8757.63
435.88	9439.6
436.087	9687.4
436.294	9517.42
436.501	9507.18
436.708	9750.89
436.915	10178.92
437.122	10535.26
437.329	10373.47
437.537	10701.15
437.743	10926.43
437.95	10754.4
438.157	11499.86
438.364	11831.63
438.571	11553.1
438.778	11938.12
438.985	12898.62
439.192	12233.03
439.399	12853.56
439.606	12691.77
439.813	13304.12
440.02	14172.46
440.227	13748.53
440.433	13777.2
440.64	14041.39
440.847	13988.14
441.054	14471.46
441.261	15401.24
441.467	15141.14
441.674	15194.39
441.881	16144.65
442.088	15773.97
442.294	15800.59
442.501	16308.49
442.708	16564.48
442.914	17205.5
443.121	18108.65
443.328	17424.63
443.534	18827.49
443.741	18165.99
443.948	18067.69
444.154	19292.38
444.361	19165.4
444.568	19364.06
444.774	19159.26
444.981	19366.1
445.187	20013.26
445.394	20582.6
445.6	20615.37
445.807	22544.55
446.013	21559.48
446.22	22100.14
446.426	22919.33
446.633	23034.02
446.839	24144.02
447.046	22818.98
447.252	24240.27
447.459	24250.51
447.665	24008.85
447.871	25305.21
448.078	26478.7
448.284	25096.32
448.491	25510.01
448.697	26490.99
448.903	27367.52
449.11	27400.29
449.316	27072.61
449.522	27072.61
449.728	27906.13
449.935	27961.43
450.141	28231.76
450.347	28770.38
450.553	27906.13
450.76	28254.29
450.966	29120.58
451.172	28870.73
451.378	29581.37
451.584	29034.56
451.791	29872.18
451.997	29345.86
452.203	30107.7
452.409	30199.86
452.615	30083.12
452.821	28766.28
453.027	28450.89
453.233	30019.64
453.44	28897.35
453.646	29241.41
453.852	29374.53
454.058	30017.59
454.264	28655.69
454.47	29431.87
454.676	28536.91
454.882	29491.26
455.088	27064.42
455.294	27201.63
455.5	27783.26
455.705	28498
455.911	27125.86
456.117	26556.52
456.323	26212.46
456.529	24983.68
456.735	25809.01
456.941	25118.85
457.147	24572.04
457.352	23910.55
457.558	23685.27
457.764	23959.7
457.97	23447.71
458.176	23146.65
458.381	22603.94
458.587	21780.66
458.793	21797.04
458.999	20574.41
459.204	22089.9
459.41	21342.39
459.616	19982.54
459.821	20162.76
460.027	19865.81
460.233	19345.62
460.438	18612.45
460.644	18673.89
460.85	17740.02
461.055	17746.16
461.261	17453.3
461.466	16195.85
461.672	15700.24
461.878	16705.79
462.083	15896.85
462.289	15335.7
462.494	15221.02
462.7	14481.7
462.905	14459.17
463.111	14805.28
463.316	14911.77
463.522	14391.59
463.727	14174.5
463.932	14227.75
464.138	14203.18
464.343	14295.33
464.549	13824.3
464.754	14358.82
464.959	14160.17
465.165	14135.59
465.37	13592.88
465.575	13326.64
465.781	13662.51
465.986	13697.33
466.191	13279.54
466.397	13146.42
466.602	12368.2
466.807	12654.91
467.012	13072.7
467.218	12650.81
467.423	12767.55
467.628	12794.17
467.833	13193.53
468.038	12837.18
468.244	12251.46
468.449	12869.95
468.654	12570.94
468.859	12292.42
469.064	12282.18
469.269	11860.3
469.474	11809.1
469.679	12243.27
469.885	11766.09
470.09	11950.41
470.295	11991.37
470.5	11596.11
470.705	11739.47
470.91	11430.23
471.115	11422.03
471.32	11479.38
471.525	11338.07
471.73	11237.72
471.935	11114.84
472.139	10731.87
472.344	10654.05
472.549	10621.28
472.754	10758.49
472.959	10352.99
473.164	10414.43
473.369	10146.15
473.574	10334.56
473.778	10250.6
473.983	10226.02
474.188	10129.77
474.393	9795.95
474.598	9720.17
474.802	9679.21
475.007	9621.87
475.212	9677.16
475.417	9228.66
475.621	9300.34
475.826	9238.9
476.031	9052.53
476.235	8970.62
476.44	8923.51
476.645	8941.94
476.849	8860.02
477.054	8638.84
477.259	8743.29
477.463	8518.01
477.668	8358.27
477.872	8534.4
478.077	8356.22
478.282	8186.24
478.486	7993.73
478.691	8114.56
478.895	8012.17
479.1	8151.43
479.304	7909.77
479.509	7719.31
479.713	7879.05
479.918	7848.33
480.122	7709.07
480.326	7768.46
480.531	7684.49
480.735	7758.22
480.94	7461.26
481.144	7784.84
481.348	7403.92
481.553	7629.2
481.757	7463.31
481.961	7514.51
482.166	7629.2
482.37	7530.89
482.574	7448.97
482.778	7475.6
482.983	7678.35
483.187	7553.42
483.391	7481.74
483.595	7522.7
483.8	7303.57
484.004	7436.69
484.208	7360.91
484.412	7578
484.616	7334.29
484.821	7365.01
485.025	7315.86
485.229	7328.14
485.433	7498.13
485.637	7375.25
485.841	7442.83
486.045	7356.82
486.249	7365.01
486.453	7348.62
486.657	7340.43
486.861	7195.03
487.065	7190.93
487.269	7473.55
487.473	7203.22
487.677	7436.69
487.881	7463.31
488.085	7451.02
488.289	7561.61
488.493	7389.58
488.697	7729.55
488.901	7399.82
489.105	7334.29
489.309	7571.85
489.512	7651.72
489.716	7512.46
489.92	7518.61
490.124	7328.14
490.328	7786.89
490.531	7604.62
490.735	7532.94
490.939	7694.73
491.143	7471.5
491.346	7727.5
491.55	7625.1
491.754	7559.56
491.958	7879.05
492.161	7686.54
492.365	7762.31
492.569	7852.42
492.772	7774.6
492.976	7940.49
493.18	7856.52
493.383	7838.09
493.587	8032.65
493.79	8030.6
493.994	7915.91
494.197	8176
494.401	8315.27
494.605	8137.09
494.808	8409.47
495.012	8409.47
495.215	8477.05
495.419	8520.06
495.622	8329.6
495.825	8563.07
496.029	8610.17
496.232	8634.75
496.436	8661.37
496.639	8880.5
496.843	8857.98
497.046	9128.31
497.249	9095.54
497.453	9085.3
497.656	9130.36
497.859	9257.33
498.063	9404.78
498.266	9785.71
498.469	9615.73
498.673	9425.26
498.876	9797.99
499.079	9795.95
499.282	9998.7
499.485	10494.3
499.689	10297.7
499.892	10545.5
500.095	10250.6
500.298	10752.35
500.501	10707.29
500.705	10791.26
500.908	10971.48
501.111	11118.93
501.314	11082.07
501.517	11215.19
501.72	11215.19
501.923	11266.39
502.126	11759.95
502.329	11700.56
502.532	11864.39
502.735	11962.7
502.938	12136.77
503.141	12036.42
503.344	12489.03
503.547	12384.58
503.75	12454.21
503.953	12663.1
504.156	12968.25
504.359	12927.29
504.562	12929.34
504.765	13134.14
504.968	13392.18
505.17	13291.83
505.373	13730.09
505.576	13676.85
505.779	13793.58
505.982	13902.12
506.185	14381.35
506.387	14207.27
506.59	14567.71
506.793	14608.67
506.996	14698.78
507.198	15196.44
507.401	15130.91
507.604	15221.02
507.807	15356.18
508.009	15452.44
508.212	15591.7
508.415	15761.68
508.617	15812.88
508.82	16009.48
509.022	16118.03
509.225	16515.33
509.428	16480.52
509.63	16652.55
509.833	16636.16
510.035	17176.83
510.238	17127.67
510.44	17291.51
510.643	17623.28
510.845	17883.38
511.048	17770.74
511.25	17582.32
511.453	17998.06
511.655	18555.11
511.858	18295.02
512.06	18503.91
512.262	18688.23
512.465	18811.1
512.667	18907.36
512.87	18966.75
513.072	19257.56
513.274	19671.25
513.477	19744.98
513.679	19708.12
513.881	20306.12
514.084	20130
514.286	20173
514.488	20314.31
514.69	20979.9
514.893	20969.66
515.095	20910.27
515.297	21295.29
515.499	21096.64
515.701	21575.86
515.904	21620.92
516.106	21878.96
516.308	22112.43
516.51	22386.86
516.712	22393
516.914	22395.05
517.116	22704.29
517.318	22694.05
517.52	23064.74
517.722	22980.77
517.925	23292.06
518.127	23537.82
518.329	23679.13
518.531	23074.98
518.733	24055.95
518.935	24285.33
519.136	24379.53
519.338	24481.93
519.54	24596.62
519.742	24588.42
519.944	24576.14
520.146	25219.2
520.348	25604.22
520.55	25337.98
520.752	25372.8
520.954	25892.98
521.155	25725.05
521.357	26067.06
521.559	26337.39
521.761	26675.3
521.963	26488.94
522.164	26392.69
522.366	26327.15
522.568	26697.83
522.77	26859.62
522.971	27402.33
523.173	27017.32
523.375	27435.1
523.576	27246.69
523.778	27332.7
523.98	27928.66
524.181	27863.13
524.383	27848.79
524.584	28315.73
524.786	28407.89
524.988	27756.63
525.189	28323.92
525.391	28526.67
525.592	28510.28
525.794	28846.15
525.995	28727.37
526.197	28602.44
526.398	28684.36
526.6	28876.87
526.801	28751.95
527.003	29288.51
527.204	29331.52
527.406	29290.56
527.607	29431.87
527.808	29532.22
528.01	28958.79
528.211	29433.92
528.412	29890.62
528.614	29491.26
528.815	29200.45
529.016	30109.75
529.218	29726.78
529.419	29915.19
529.62	29636.67
529.822	29896.76
530.023	29984.82
530.224	30015.54
530.425	29907
530.626	29671.48
530.828	29986.87
531.029	30304.31
531.23	29780.03
531.431	29634.62
531.632	29919.29
531.833	30109.75
532.035	30060.6
532.236	29804.6
532.437	30343.22
532.638	29990.97
532.839	30142.52
533.04	30218.29
533.241	29982.77
533.442	30378.03
533.643	29945.91
533.844	29980.73
534.045	30240.82
534.246	29892.66
534.447	30507.05
534.648	30171.19
534.849	29976.63
535.05	29800.51
535.251	29933.62
535.451	29753.4
535.652	29913.14
535.853	30181.43
536.054	29950.01
536.255	30093.36
536.456	29923.38
536.657	30410.8
536.857	30056.5
537.058	30122.04
537.259	30750.76
537.46	30128.18
537.66	30253.11
537.861	30314.55
538.062	30060.6
538.263	30089.27
538.463	29939.77
538.664	30046.26
538.865	30445.62
539.065	30318.64
539.266	29978.68
539.466	30226.48
539.667	29857.85
539.868	30361.65
540.068	29685.82
540.269	30107.7
540.469	30203.96
540.67	30165.04
540.87	30146.61
541.071	30017.59
541.271	30206
541.472	30124.08
541.672	29683.77
541.873	29665.34
542.073	29405.25
542.274	30330.93
542.474	29843.51
542.675	29530.17
542.875	29835.32
543.075	29827.13
543.276	29108.29
543.476	29995.06
543.676	29968.44
543.877	30244.91
544.077	29827.13
544.277	29866.04
544.478	29675.58
544.678	30167.09
544.878	29861.94
545.078	29890.62
545.279	29569.08
545.479	29636.67
545.679	29608
545.879	29614.14
546.079	29804.6
546.28	29818.94
546.48	29493.31
546.68	29771.83
546.88	29683.77
547.08	29601.85
547.28	29438.01
547.48	29249.6
547.68	29636.67
547.88	29167.68
548.081	30138.42
548.281	29462.59
548.481	29245.51
548.681	29872.18
548.881	29532.22
549.081	29866.04
549.28	29364.29
549.48	29751.35
549.68	29110.34
549.88	29489.21
550.08	29446.21
550.28	29507.65
550.48	29585.47
550.68	29687.87
550.88	29780.03
551.08	29569.08
551.279	29495.36
551.479	29313.09
551.679	29333.57
551.879	29294.66
552.079	29241.41
552.278	29196.35
552.478	29354.05
552.678	29495.36
552.878	29220.93
553.077	29229.12
553.277	29311.04
553.477	29411.39
553.676	29403.2
553.876	29612.09
554.076	29354.05
554.275	28934.21
554.475	28997.7
554.674	29220.93
554.874	29302.85
555.074	29098.05
555.273	29313.09
555.473	29558.84
555.672	28749.9
555.872	29044.8
556.071	29263.94
556.271	29370.43
556.47	29096
556.67	28883.02
556.869	28932.17
557.068	29022.28
557.268	28829.77
557.467	28966.98
557.667	28999.75
557.866	29136.96
558.065	29040.71
558.265	28981.32
558.464	29079.62
558.663	29149.25
558.863	28602.44
559.062	29317.18
559.261	29198.4
559.461	29253.7
559.66	28694.6
559.859	28909.64
560.058	28510.28
560.258	28844.1
560.457	28510.28
560.656	28672.07
560.855	28739.66
561.054	28766.28
561.253	28481.61
561.453	28485.71
561.652	28840.01
561.851	28964.93
562.05	28676.17
562.249	28454.99
562.448	29022.28
562.647	28428.37
562.846	28393.55
563.045	28702.79
563.244	28565.58
563.443	28715.08
563.642	28371.02
563.841	28334.16
564.04	28190.8
564.239	28719.18
564.438	28248.14
564.637	28405.84
564.836	28565.58
565.035	28235.86
565.234	28231.76
565.432	28149.84
565.631	28495.95
565.83	28182.61
566.029	28149.84
566.228	28094.55
566.427	28112.98
566.625	27895.89
566.824	27924.57
567.023	28137.55
567.222	27478.11
567.42	28186.71
567.619	27910.23
567.818	27617.37
568.016	28035.16
568.215	28037.2
568.414	28004.44
568.612	28260.43
568.811	27738.2
569.01	28043.35
569.208	27570.27
569.407	27586.65
569.605	27467.87
569.804	27547.74
570.002	27652.19
570.201	27539.55
570.4	27314.27
570.598	27187.3
570.797	27500.64
570.995	27613.27
571.193	27238.5
571.392	27674.71
571.59	27211.87
571.789	27459.68
571.987	27263.07
572.186	27512.92
572.384	27353.18
572.582	27146.34
572.781	27439.2
572.979	26933.35
573.177	27070.56
573.376	27517.02
573.574	27091.04
573.772	27181.15
573.971	26982.5
574.169	26871.91
574.367	26728.55
574.565	26919.01
574.763	26835.05
574.962	26884.2
575.16	26589.29
575.358	26706.02
575.556	26429.55
575.754	26552.43
575.952	26361.97
576.151	26800.23
576.349	26157.17
576.547	26376.3
576.745	26554.47
576.943	26138.74
577.141	26245.23
577.339	26198.13
577.537	26218.61
577.735	26196.08
577.933	26415.21
578.131	26208.37
578.329	26169.46
578.527	26232.94
578.725	26044.53
578.923	25950.32
579.121	26024.05
579.319	26083.44
579.516	26030.19
579.714	25935.99
579.912	25895.03
580.11	25507.96
580.308	25727.1
580.506	25634.94
580.704	25624.7
580.901	25622.65
581.099	25860.21
581.297	25450.62
581.495	25571.45
581.692	25657.46
581.89	25317.5
582.088	25475.2
582.285	25327.74
582.483	25469.05
582.681	25133.18
582.878	24975.49
583.076	24983.68
583.274	25016.45
583.471	24785.03
583.669	24879.24
583.866	24817.8
584.064	24799.37
584.262	24610.95
584.459	24281.23
584.657	24813.7
584.854	25223.3
585.052	24293.52
585.249	24520.84
585.447	24291.47
585.644	24455.31
585.841	24400.01
586.039	24629.38
586.236	24440.97
586.434	23951.51
586.631	24289.42
586.828	23963.79
587.026	24027.28
587.223	24072.34
587.42	24010.9
587.618	24041.62
587.815	23789.72
588.012	23965.84
588.21	23679.13
588.407	24051.86
588.604	23750.81
588.801	23576.73
588.999	23724.18
589.196	23511.19
589.393	23560.34
589.59	23122.08
589.787	23625.88
589.984	23517.34
590.182	23156.89
590.379	23414.94
590.576	23095.46
590.773	23165.09
590.97	22911.14
591.167	23347.36
591.364	22810.79
591.561	23216.29
591.758	22884.51
591.955	22689.96
592.152	23079.07
592.349	22917.28
592.546	22739.11
592.743	22708.39
592.94	22573.22
593.137	22714.53
593.334	22628.52
593.531	22364.33
593.727	22433.96
593.924	22483.11
594.121	22302.89
594.318	22468.78
594.515	21825.71
594.712	22716.58
594.908	22028.46
595.105	22354.09
595.302	21936.31
595.499	22151.34
595.696	21866.67
595.892	22102.19
596.089	22208.69
596.286	21799.09
596.482	22108.33
596.679	21885.11
596.876	21903.54
597.072	21633.21
597.269	21688.5
597.466	21395.64
597.662	21729.46
597.859	21852.34
598.055	21733.56
598.252	21483.7
598.448	21323.96
598.645	21575.86
598.841	21311.67
599.038	21334.2
599.234	21176.51
599.431	21004.48
599.627	21237.95
599.824	21184.7
600.02	21172.41
600.217	20977.86
600.413	21078.21
600.609	20891.84
600.806	20977.86
601.002	20951.23
601.198	20807.87
601.395	20572.36
601.591	20715.72
601.787	20562.12
601.984	20480.2
602.18	20832.45
602.376	20592.84
602.572	20234.44
602.769	20414.66
602.965	20205.77
603.161	20410.57
603.357	20392.14
603.553	20285.64
603.75	20152.52
603.946	19976.4
604.142	20181.2
604.338	19701.97
604.534	20060.37
604.73	19818.71
604.926	19945.68
605.122	20003.02
605.318	19744.98
605.514	19747.03
605.71	19749.07
605.906	19677.4
606.102	19871.95
606.298	19681.49
606.494	19691.73
606.69	19738.83
606.886	19706.07
607.082	19540.18
607.278	19765.46
607.474	19349.72
607.67	19536.09
607.866	19153.12
608.062	19552.47
608.257	19192.03
608.453	19742.93
608.649	19206.36
608.845	19337.43
609.041	19312.86
609.236	19218.65
609.432	19278.04
609.628	19437.78
609.824	19353.82
610.019	19441.88
610.215	19149.02
610.411	19220.7
610.606	19026.14
610.802	18987.23
610.998	19130.59
611.193	19552.47
611.389	19054.81
611.584	18950.37
611.78	18915.55
611.976	19112.16
612.171	19112.16
612.367	18745.57
612.562	19056.86
612.758	18927.84
612.953	18663.65
613.149	19112.16
613.344	18565.35
613.539	19200.22
613.735	18598.12
613.93	18737.38
614.126	18677.99
614.321	19110.11
614.517	18626.79
614.712	18551.01
614.907	18426.09
615.103	18890.98
615.298	18544.87
615.493	18786.53
615.688	18149.61
615.884	18704.61
616.079	18444.52
616.274	18743.52
616.47	18352.36
616.665	18428.13
616.86	18368.74
617.055	18471.14
617.25	18151.66
617.445	18637.03
617.641	18235.63
617.836	18409.7
618.031	18049.26
618.226	18120.94
618.421	18106.6
618.616	18364.65
618.811	17881.33
619.006	18155.75
619.201	18096.36
619.396	18112.75
619.591	17600.76
619.786	17905.9
619.981	17660.15
620.176	17852.66
620.371	17438.97
620.566	17676.53
620.761	17250.55
620.956	17623.28
621.151	17221.88
621.346	17273.08
621.541	17221.88
621.735	17084.67
621.93	17082.62
622.125	17090.81
622.32	16779.52
622.515	16990.46
622.709	16900.35
622.904	16804.1
623.099	16888.06
623.294	16584.96
623.488	16439.56
623.683	16650.5
623.878	16183.56
624.072	16320.77
624.267	16251.14
624.462	16214.28
624.656	15909.13
624.851	16109.83
625.046	15720.72
625.24	15808.78
625.435	15810.83
625.629	15982.86
625.824	15657.23
626.018	15706.38
626.213	15456.53
626.407	15442.2
626.602	15221.02
626.796	15245.59
626.991	15313.17
627.185	15085.85
627.38	15259.93
627.574	15038.75
627.768	14954.78
627.963	14985.5
628.157	14704.93
628.352	14819.61
628.546	14416.16
628.74	14704.93
628.935	14588.19
629.129	14512.42
629.323	14237.99
629.517	14213.42
629.712	14242.09
629.906	14199.08
630.1	13941.04
630.294	13754.67
630.489	13967.66
630.683	13906.22
630.877	13629.74
631.071	13680.94
631.265	13766.96
631.459	13703.47
631.653	13564.21
631.848	13383.99
632.042	13627.7
632.236	13465.91
632.43	13257.01
632.624	13545.78
632.818	13232.44
633.012	13072.7
633.206	13283.64
633.4	13084.98
633.594	13011.26
633.788	12765.5
633.982	13037.88
634.176	12781.88
634.369	12613.95
634.563	12667.2
634.757	12652.86
634.951	12691.77
635.145	12456.26
635.339	12544.32
635.533	12398.91
635.726	12464.45
635.92	12165.45
636.114	12364.1
636.308	12290.37
636.501	12218.69
636.695	11995.46
636.889	12054.86
637.083	12110.15
637.276	11823.44
637.47	11573.58
637.664	11690.32
637.857	11786.57
638.051	11663.69
638.244	11606.35
638.438	11606.35
638.632	11688.27
638.825	11407.7
639.019	11262.29
639.212	11239.76
639.406	11204.95
639.599	10867.03
639.793	11006.3
639.986	10674.53
640.18	10953.05
640.373	10881.37
640.567	10774.88
640.76	10897.75
640.954	10740.06
641.147	10498.4
641.34	10770.78
641.534	10674.53
641.727	10420.58
641.92	10580.32
642.114	10309.99
642.307	10477.92
642.5	10508.64
642.694	10285.41
642.887	10170.72
643.08	10271.08
643.273	10127.72
643.467	10103.14
643.66	9881.96
643.853	9992.55
644.046	10000.74
644.239	9836.91
644.432	9765.23
644.626	9750.89
644.819	9638.25
645.012	9757.04
645.205	9707.88
645.398	9650.54
645.591	9695.6
645.784	9494.9
645.977	9322.87
646.17	9501.04
646.363	9466.22
646.556	9222.52
646.749	9183.6
646.942	9089.4
647.135	9038.2
647.328	9079.16
647.521	8956.28
647.714	8771.96
647.907	8968.57
648.099	9021.81
648.292	8948.09
648.485	8835.45
648.678	8708.48
648.871	8774.01
649.064	8614.27
649.256	8532.35
649.449	8462.72
649.642	8432
649.835	8434.05
650.027	8350.08
650.22	8411.52
650.413	8298.88
650.605	8202.63
650.798	8384.9
650.991	8106.37
651.183	8190.34
651.376	8176
651.568	8266.11
651.761	7922.06
651.954	8143.24
652.146	7903.62
652.339	7887.24
652.531	7786.89
652.724	7752.07
652.916	7610.76
653.109	7692.68
653.301	7704.97
653.494	7770.51
653.686	7602.57
653.879	7637.39
654.071	7541.13
654.263	7520.65
654.456	7489.93
654.648	7537.04
654.84	7448.97
655.033	7496.08
655.225	7246.23
655.417	7199.12
655.61	7195.03
655.802	7299.47
655.994	7117.2
656.186	7055.76
656.379	7113.11
656.571	6959.51
656.763	6977.94
656.955	6928.79
657.148	7035.28
657.34	6926.74
657.532	6703.51
657.724	6613.4
657.916	6869.4
658.108	6621.59
658.3	6951.32
658.492	6689.18
658.684	6492.57
658.876	6648.22
659.068	6508.96
659.26	6422.94
659.452	6468
659.644	6474.14
659.836	6381.98
660.028	6498.72
660.22	6373.79
660.412	6138.27
660.604	6240.67
660.796	6136.23
660.988	6205.86
661.18	6082.98
661.372	6119.84
661.563	6191.52
661.755	6001.06
661.947	6060.45
662.139	5978.53
662.331	5865.89
662.522	5925.29
662.714	6105.51
662.906	5792.17
663.097	5745.06
663.289	5796.26
663.481	5841.32
663.673	5765.54
663.864	5759.4
664.056	5745.06
664.247	5704.1
664.439	5630.38
664.631	5638.57
664.822	5718.44
665.014	5530.03
665.205	5495.21
665.397	5550.51
665.588	5618.09
665.78	5675.43
665.971	5478.83
666.163	5554.6
666.354	5314.99
666.546	5382.57
666.737	5245.36
666.929	5222.83
667.12	5267.89
667.311	5300.66
667.503	5210.54
667.694	5241.26
667.885	5136.82
668.077	5251.5
668.268	5013.94
668.459	5126.58
668.651	5087.67
668.842	5151.15
669.033	4968.88
669.224	5032.37
669.416	5190.06
669.607	4950.45
669.798	5134.77
669.989	5007.8
670.18	4952.5
670.371	4956.6
670.563	4897.21
670.754	4905.4
670.945	4884.92
671.136	4934.07
671.327	4938.16
671.518	4956.6
671.709	4925.88
671.9	4942.26
672.091	4762.04
672.282	4729.27
672.473	4755.9
672.664	4735.42
672.855	4745.66
673.046	4788.66
673.237	4628.92
673.428	4630.97
673.619	4686.26
673.809	4647.35
674	4493.76
674.191	4653.5
674.382	4587.96
674.573	4731.32
674.764	4590.01
674.954	4698.55
675.145	4458.94
675.336	4544.95
675.527	4626.87
675.717	4547
675.908	4399.55
676.099	4465.08
676.289	4518.33
676.48	4430.27
676.671	4495.8
676.861	4487.61
677.052	4428.22
677.243	4252.1
677.433	4430.27
677.624	4477.37
677.814	4430.27
678.005	4325.82
678.195	4446.65
678.386	4497.85
678.576	4442.56
678.767	4348.35
678.957	4385.21
679.148	4540.86
679.338	4463.04
679.529	4581.82
679.719	4329.92
679.909	4508.09
680.1	4317.63
680.29	4428.22
680.481	4221.38
680.671	4346.3
680.861	4260.29
681.052	4207.04
681.242	4073.92
681.432	4397.5
681.622	4352.45
681.813	4248
682.003	4204.99
682.193	4209.09
682.383	4202.94
682.573	4303.29
682.764	4288.96
682.954	4323.77
683.144	4297.15
683.334	4194.75
683.524	4325.82
683.714	4276.67
683.904	4340.16
684.094	4180.42
684.284	4303.29
684.474	4217.28
684.664	4278.72
684.854	4188.61
685.044	4213.18
685.234	4229.57
685.424	4164.03
685.614	4065.73
685.804	4045.25
685.994	4217.28
686.184	4174.27
686.374	4088.26
686.564	3992
686.753	4067.78
686.943	3914.18
687.133	4055.49
687.323	4121.03
687.513	3981.76
687.702	4002.24
687.892	3934.66
688.082	4035.01
688.272	3949
688.461	4178.37
688.651	3967.43
688.841	4147.65
689.03	3992
689.22	3971.52
689.41	3916.23
689.599	3934.66
689.789	3791.3
689.979	3895.75
690.168	3955.14
690.358	3727.82
690.547	3772.87
690.737	3793.35
690.926	3850.69
691.116	3822.02
691.305	3914.18
691.495	3783.11
691.684	3684.81
691.874	3637.7
692.063	3656.14
692.252	3746.25
692.442	3668.42
692.631	3576.27
692.82	3664.33
693.01	3680.71
693.199	3641.8
693.388	3725.77
693.578	3619.27
693.767	3772.87
693.956	3596.75
694.146	3631.56
694.335	3697.1
694.524	3508.68
694.713	3635.66
694.902	3641.8
695.092	3570.12
695.281	3660.23
695.47	3596.75
695.659	3545.55
695.848	3660.23
696.037	3584.46
696.226	3785.16
696.415	3686.86
696.604	3586.51
696.793	3682.76
696.982	3525.07
697.171	3666.38
697.36	3613.13
697.549	3467.72
697.738	3494.35
697.927	3547.59
698.116	3518.92
698.305	3641.8
698.494	3574.22
698.683	3488.2
698.872	3606.98
699.061	3572.17
699.25	3518.92
699.438	3613.13
699.627	3512.78
699.816	3768.77
700.005	3613.13
700.193	3604.94
700.382	3686.86
700.571	3604.94
700.76	3664.33
700.948	3711.43
701.137	3680.71
701.326	3508.68
701.514	3606.98
701.703	3690.95
701.892	3631.56
702.08	3666.38
702.269	3703.24
702.457	3738.05
702.646	3676.62
702.834	3631.56
703.023	3637.7
703.212	3621.32
703.4	3625.42
703.589	3637.7
703.777	3729.86
703.965	3715.53
704.154	3666.38
704.342	3580.36
704.531	3660.23
704.719	3682.76
704.907	3682.76
705.096	3576.27
705.284	3742.15
705.472	3592.65
705.661	3654.09
705.849	3713.48
706.037	3752.39
706.226	3703.24
706.414	3703.24
706.602	3512.78
706.79	3772.87
706.979	3697.1
707.167	3582.41
707.355	3586.51
707.543	3727.82
707.731	3719.62
707.919	3766.73
708.107	3713.48
708.296	3676.62
708.484	3654.09
708.672	3729.86
708.86	3756.49
709.048	3664.33
709.236	3664.33
709.424	3846.6
709.612	3770.82
709.8	3803.59
709.988	3615.18
710.176	3770.82
710.364	3678.66
710.551	3768.77
710.739	3817.93
710.927	3897.8
711.115	3776.97
711.303	3748.29
711.491	3838.41
711.679	3695.05
711.866	3727.82
712.054	3889.6
712.242	3602.89
712.43	3922.37
712.617	3779.01
712.805	3826.12
712.993	3584.46
713.181	3684.81
713.368	3764.68
713.556	3846.6
713.744	3776.97
713.931	3901.89
714.119	3719.62
714.306	3647.94
714.494	3611.08
714.682	3783.11
714.869	3819.97
715.057	3846.6
715.244	3826.12
715.432	3701.19
715.619	3848.65
715.807	3713.48
715.994	3705.29
716.182	3676.62
716.369	3791.3
716.556	3828.17
716.744	3742.15
716.931	3766.73
717.119	3715.53
717.306	3604.94
717.493	3658.18
717.681	3656.14
717.868	3602.89
718.055	3760.58
718.242	3736.01
718.43	3697.1
718.617	3699.14
718.804	3715.53
718.991	3826.12
719.179	3795.4
719.366	3760.58
719.553	3901.89
719.74	3815.88
719.927	3883.46
720.114	3715.53
720.301	3707.34
720.488	3768.77
720.676	3736.01
720.863	3680.71
721.05	3738.05
721.237	3805.64
721.424	3856.84
721.611	3676.62
721.798	3766.73
721.985	3588.55
722.172	3547.59
722.358	3680.71
722.545	3856.84
722.732	3719.62
722.919	3854.79
723.106	3674.57
723.293	3715.53
723.48	3824.07
723.667	3819.97
723.853	3926.47
724.04	3725.77
724.227	3699.14
724.414	3736.01
724.6	3793.35
724.787	3633.61
724.974	3695.05
725.161	3729.86
725.347	3561.93
725.534	3772.87
725.72	3660.23
725.907	3776.97
726.094	3727.82
726.28	3617.22
726.467	3598.79
726.653	3672.52
726.84	3617.22
727.027	3815.88
727.213	3598.79
727.4	3840.45
727.586	3637.7
727.773	3584.46
727.959	3779.01
728.145	3494.35
728.332	3645.9
728.518	3719.62
728.705	3672.52
728.891	3553.74
729.077	3580.36
729.264	3670.47
729.45	3480.01
729.636	3815.88
729.823	3539.4
730.009	3672.52
730.195	3471.82
730.382	3635.66
730.568	3484.11
730.754	3733.96
730.94	3461.58
731.126	3699.14
731.313	3527.11
731.499	3846.6
731.685	3662.28
731.871	3625.42
732.057	3621.32
732.243	3619.27
732.429	3606.98
732.615	3586.51
732.801	3631.56
732.987	3512.78
733.173	3672.52
733.359	3492.3
733.545	3574.22
733.731	3576.27
733.917	3514.83
734.103	3518.92
734.289	3598.79
734.475	3437
734.661	3611.08
734.847	3490.25
735.033	3494.35
735.219	3580.36
735.404	3443.15
735.59	3506.63
735.776	3273.17
735.962	3523.02
736.148	3477.96
736.333	3535.31
736.519	3432.91
736.705	3482.06
736.89	3525.07
737.076	3539.4
737.262	3449.29
737.447	3451.34
737.633	3324.37
737.819	3391.95
738.004	3449.29
738.19	3437
738.375	3379.66
738.561	3441.1
738.747	3277.26
738.932	3316.17
739.118	3490.25
739.303	3322.32
739.489	3283.41
739.674	3240.4
739.859	3303.89
740.045	3389.9
740.23	3322.32
740.416	3144.14
740.601	3260.88
740.786	3320.27
740.972	3142.1
741.157	3203.54
741.342	3080.66
741.528	3154.38
741.713	3168.72
741.898	3146.19
742.084	3135.95
742.269	3176.91
742.454	3062.23
742.639	3193.3
742.824	3021.27
743.01	3166.67
743.195	3092.94
743.38	3228.11
743.565	2847.19
743.75	3135.95
743.935	2945.49
744.12	3033.55
744.305	3062.23
744.49	3029.46
744.675	2970.07
744.86	3000.79
745.045	2896.34
745.23	2886.1
745.415	2795.99
745.6	2949.59
745.785	2908.63
745.97	2873.81
746.155	2832.85
746.34	2871.76
746.525	2916.82
746.71	2818.52
746.895	2822.61
747.079	2773.46
747.264	2615.77
747.449	2804.18
747.634	2693.59
747.819	2750.93
748.003	2644.44
748.188	2654.68
748.373	2621.91
748.557	2642.39
748.742	2599.38
748.927	2562.52
749.111	2583
749.296	2677.21
749.481	2658.78
749.665	2488.79
749.85	2486.75
750.034	2449.88
750.219	2521.56
750.404	2458.07
750.588	2398.68
750.773	2490.84
750.957	2394.59
751.141	2337.24
751.326	2431.45
751.51	2339.29
751.695	2214.37
751.879	2308.57
752.064	2370.01
752.248	2359.77
752.432	2308.57
752.617	2320.86
752.801	2249.18
752.985	2308.57
753.17	2163.17
753.354	2302.43
753.538	2230.75
753.722	2189.79
753.907	2116.06
754.091	2193.89
754.275	2257.37
754.459	2058.72
754.643	1935.84
754.828	2013.67
755.012	2091.49
755.196	1939.94
755.38	1999.33
755.564	2034.14
755.748	1970.66
755.932	1933.79
756.116	1923.55
756.3	1968.61
756.484	1821.16
756.668	2028
756.852	1978.85
757.036	1933.79
757.22	1851.88
757.404	1720.81
757.588	1833.44
757.772	1915.36
757.956	1769.96
758.14	1835.49
758.323	1757.67
758.507	1878.5
758.691	1839.59
758.875	1810.92
759.059	1954.27
759.242	1683.94
759.426	1714.66
759.61	1737.19
759.794	1808.87
759.977	1763.81
760.161	1798.63
760.345	1780.2
760.528	1851.88
760.712	1645.03
760.895	1677.8
761.079	1702.37
761.263	1542.63
761.446	1610.22
761.63	1614.31
761.813	1751.53
761.997	1530.34
762.18	1714.66
762.364	1665.51
762.547	1679.85
762.731	1581.54
762.914	1671.65
763.098	1634.79
763.281	1485.29
763.464	1438.19
763.648	1546.73
763.831	1528.3
764.015	1608.17
764.198	1579.5
764.381	1483.24
764.564	1483.24
764.748	1491.43
764.931	1446.38
765.114	1507.82
765.297	1487.34
765.481	1497.58
765.664	1440.23
765.847	1415.66
766.03	1395.18
766.213	1487.34
766.397	1464.81
766.58	1477.1
766.763	1434.09
766.946	1534.44
767.129	1397.23
767.312	1362.41
767.495	1458.67
767.678	1395.18
767.861	1470.95
768.044	1300.97
768.227	1393.13
768.41	1436.14
768.593	1409.51
768.776	1368.56
768.959	1339.88
769.142	1489.39
769.324	1331.69
769.507	1296.88
769.69	1370.6
769.873	1315.31
770.056	1419.75
770.239	1360.36
770.421	1370.6
770.604	1362.41
770.787	1198.57
770.97	1319.4
771.152	1180.14
771.335	1305.07
771.518	1262.06
771.7	1282.54
771.883	1268.2
772.066	1294.83
772.248	1335.79
772.431	1346.03
772.613	1264.11
772.796	1188.33
772.978	1202.67
773.161	1231.34
773.343	1174
773.526	1200.62
773.708	1237.49
773.891	1114.61
774.073	1190.38
774.256	1128.94
774.438	1221.1
774.621	1085.94
774.803	1204.72
774.985	1112.56
775.168	1161.71
775.35	1167.85
775.532	1120.75
775.715	1128.94
775.897	1145.33
776.079	1096.18
776.261	1028.59
776.444	1028.59
776.626	1026.54
776.808	1055.22
776.99	948.72
777.173	1012.21
777.355	1032.69
777.537	1055.22
777.719	975.35
777.901	1028.59
778.083	1083.89
778.265	956.91
778.447	999.92
778.629	885.23
778.811	967.15
778.993	928.24
779.175	1022.45
779.357	903.67
779.539	967.15
779.721	932.34
779.903	920.05
780.085	872.95
780.267	991.73
780.449	995.82
780.631	942.58
780.812	903.67
780.994	868.85
781.176	924.15
781.358	885.23
781.54	850.42
781.721	856.56
781.903	860.66
782.085	834.04
782.267	819.7
782.448	764.4
782.63	784.88
782.812	870.9
782.993	961.01
783.175	842.23
783.357	727.54
783.538	780.79
783.72	774.64
783.901	643.57
784.083	858.61
784.264	756.21
784.446	836.08
784.627	662.01
784.809	801.27
784.99	696.82
785.172	688.63
785.353	737.78
785.535	782.84
785.716	686.58
785.897	586.23
786.079	590.33
786.26	719.35
786.441	750.07
786.623	547.32
786.804	662.01
786.985	633.33
787.167	588.28
787.348	584.18
787.529	625.14
787.71	729.59
787.891	631.29
788.073	586.23
788.254	616.95
788.435	639.48
788.616	643.57
788.797	580.09
788.978	610.81
789.159	518.65
789.34	547.32
789.522	518.65
789.703	602.61
789.884	596.47
790.065	616.95
790.246	573.94
790.427	561.66
790.607	608.76
790.788	692.73
790.969	532.98
791.15	610.81
791.331	633.33
791.512	539.13
791.693	471.54
791.874	561.66
792.054	606.71
792.235	528.89
792.416	479.74
792.597	508.41
792.778	586.23
792.958	506.36
793.139	449.02
793.32	526.84
793.5	487.93
793.681	524.79
793.862	526.84
794.042	489.98
794.223	473.59
794.404	449.02
794.584	391.67
794.765	408.06
794.945	561.66
795.126	457.21
795.306	496.12
795.487	365.05
795.667	442.87
795.848	563.7
796.028	393.72
796.209	498.17
796.389	492.02
796.57	432.63
796.75	436.73
796.93	471.54
797.111	504.31
797.291	393.72
797.471	473.59
797.652	436.73
797.832	326.14
798.012	487.93
798.192	373.24
798.373	410.11
798.553	379.39
798.733	442.87
798.913	389.63
799.093	467.45
799.274	446.97
799.454	416.25
799.634	371.19
799.814	399.87
799.994	479.74
800.174	315.9
800.354	395.77
800.534	291.32
800.714	371.19
800.894	332.28
801.074	262.65
801.254	377.34
801.434	399.87
801.614	348.67
801.794	348.67
801.974	1233.39
802.154	283.13
802.334	336.38
802.514	363
802.693	395.77
802.873	309.76
803.053	373.24
803.233	381.43
803.413	430.59
803.592	281.08
803.772	203.26
803.952	416.25
804.131	264.7
804.311	371.19
804.491	322.04
804.67	248.32
804.85	289.28
805.03	360.95
805.209	375.29
805.389	287.23
805.568	373.24
805.748	266.75
805.928	299.52
806.107	356.86
806.287	281.08
806.466	266.75
806.646	240.12
806.825	211.45
807.004	258.56
807.184	281.08
807.363	305.66
807.543	244.22
807.722	170.49
807.901	289.28
808.081	289.28
808.26	242.17
808.439	250.36
808.619	328.19
808.798	197.12
808.977	311.8
809.156	332.28
809.336	270.84
809.515	287.23
809.694	324.09
809.873	240.12
810.052	252.41
810.231	266.75
810.411	256.51
810.59	293.37
810.769	236.03
810.948	336.38
811.127	240.12
811.306	221.69
811.485	279.04
811.664	397.82
811.843	266.75
812.022	211.45
812.201	262.65
812.38	260.6
812.559	250.36
812.737	221.69
812.916	260.6
813.095	170.49
813.274	258.56
813.453	207.36
813.632	262.65
813.811	266.75
813.989	139.77
814.168	225.79
814.347	274.94
814.526	152.06
814.704	221.69
814.883	276.99
815.062	184.83
815.24	313.85
815.419	219.64
815.598	211.45
815.776	86.53
815.955	217.6
816.133	66.05
816.312	207.36
816.49	258.56
816.669	158.21
816.847	190.97
817.026	203.26
817.204	250.36
817.383	164.35
817.561	133.63
817.74	205.31
817.918	117.25
818.097	201.21
818.275	184.83
818.453	248.32
818.632	188.93
818.81	145.92
818.988	164.35
819.167	178.69
819.345	252.41
819.523	203.26
819.701	184.83
819.879	229.88
820.058	129.53
820.236	227.84
820.414	176.64
820.592	242.17
820.77	217.6
820.948	152.06
821.127	188.93
821.305	225.79
821.483	158.21
821.661	178.69
821.839	168.45
822.017	152.06
822.195	147.97
822.373	133.63
822.551	207.36
822.729	287.23
822.907	115.2
823.085	115.2
823.262	178.69
823.44	152.06
823.618	172.54
823.796	180.73
823.974	104.96
824.152	145.92
824.329	193.02
824.507	139.77
824.685	211.45
824.863	147.97
825.04	164.35
825.218	150.01
825.396	139.77
825.574	231.93
825.751	213.5
825.929	164.35
826.107	117.25
826.284	213.5
826.462	117.25
826.639	115.2
826.817	76.29
826.994	152.06
827.172	147.97
827.349	256.51
827.527	178.69
827.704	70.14
827.882	139.77
828.059	150.01
828.237	47.62
828.414	197.12
828.591	70.14
828.769	156.16
828.946	117.25
829.124	188.93
829.301	143.87
829.478	172.54
829.655	131.58
829.833	158.21
830.01	-3.58
830.187	49.66
830.364	92.67
830.542	135.68
830.719	113.15
830.896	156.16
831.073	125.44
831.25	102.91
831.427	88.57
831.604	113.15
831.782	10.75
831.959	180.73
832.136	90.62
832.313	160.25
832.49	96.77
832.667	102.91
832.844	74.24
833.021	141.82
833.198	90.62
833.374	123.39
833.551	100.86
833.728	70.14
833.905	135.68
834.082	2.56
834.259	66.05
834.436	209.4
834.612	72.19
834.789	182.78
834.966	100.86
835.143	127.49
835.319	-15.87
835.496	182.78
835.673	113.15
835.85	139.77
836.026	76.29
836.203	88.57
836.38	82.43
836.556	100.86
836.733	145.92
836.909	193.02
837.086	6.66
837.262	6.66
837.439	76.29
837.616	117.25
837.792	96.77
837.968	188.93
838.145	10.75
838.321	31.23
838.498	12.8
838.674	102.91
838.851	61.95
839.027	18.94
839.203	115.2
839.38	111.1
839.556	66.05
839.732	104.96
839.909	-19.97
840.085	123.39
840.261	23.04
840.437	131.58
840.614	64
840.79	78.33
840.966	131.58
841.142	84.48
841.318	78.33
841.494	96.77
841.671	104.96
841.847	102.91
842.023	29.18
842.199	123.39
842.375	174.59
842.551	61.95
842.727	80.38
842.903	107.01
843.079	76.29
843.255	156.16
843.431	82.43
843.607	68.09
843.783	55.81
843.959	100.86
844.134	150.01
844.31	100.86
844.486	61.95
844.662	49.66
844.838	72.19
845.013	37.38
845.189	113.15
845.365	55.81
845.541	102.91
845.716	100.86
845.892	102.91
846.068	84.48
846.244	4.61
846.419	135.68
846.595	-13.82
846.77	37.38
846.946	125.44
847.122	6.66
847.297	-11.78
847.473	184.83
847.648	-15.87
847.824	29.18
847.999	-7.68
848.175	68.09
848.35	74.24
848.526	102.91
848.701	94.72
848.876	117.25
849.052	150.01
849.227	115.2
849.403	59.9
849.578	35.33
849.753	133.63
849.929	25.09
850.104	-13.82
850.279	20.99
850.454	37.38
850.63	84.48
850.805	4.61
850.98	119.29
851.155	66.05
851.33	88.57
851.505	2.56
851.681	182.78
851.856	12.8
852.031	39.42
852.206	-26.11
852.381	55.81
852.556	-5.63
852.731	92.67
852.906	25.09
853.081	20.99
853.256	92.67
853.431	88.57
853.606	66.05
853.781	61.95
853.956	-22.02
854.131	59.9
854.305	39.42
854.48	51.71
854.655	-5.63
854.83	2.56
855.005	-15.87
855.18	31.23
855.354	-79.36
855.529	107.01
855.704	-30.21
855.879	100.86
856.053	107.01
856.228	39.42
856.403	43.52
856.577	57.86
856.752	-9.73
856.926	43.52
857.101	12.8
857.276	2.56
857.45	100.86
857.625	86.53
857.799	117.25
857.974	53.76
858.148	-7.68
858.323	-24.06
858.497	10.75
858.672	8.7
858.846	45.57
859.02	57.86
859.195	-17.92
859.369	29.18
859.543	16.9
859.718	29.18
859.892	68.09
860.066	39.42
860.241	-11.78
860.415	-1.54
860.589	29.18
860.763	35.33
860.938	-7.68
861.112	61.95
861.286	47.62
861.46	-32.26
861.634	80.38
861.808	29.18
861.982	-40.45
862.157	-83.45
862.331	37.38
862.505	27.14
862.679	47.62
862.853	-9.73
863.027	0.51
863.201	100.86
863.375	145.92
863.549	18.94
863.722	6.66
863.896	121.34
864.07	25.09
864.244	4.61
864.418	59.9
864.592	74.24
864.766	-1.54
864.939	12.8
865.113	20.99
865.287	51.71
865.461	-40.45
865.634	-5.63
865.808	-26.11
865.982	20.99
866.156	-3.58
866.329	-5.63
866.503	25.09
866.676	45.57
866.85	37.38
867.024	45.57
867.197	23.04
867.371	90.62
867.544	47.62
867.718	-5.63
867.891	39.42
868.065	-52.74
868.238	4.61
868.412	47.62
868.585	27.14
868.759	-19.97
868.932	-1.54
869.105	-34.3
869.279	47.62
869.452	2.56
869.625	10.75
869.799	-7.68
869.972	29.18
870.145	29.18
870.319	53.76
870.492	18.94
870.665	43.52
870.838	0.51
871.011	-54.78
871.185	8.7
871.358	31.23
871.531	49.66
871.704	-3.58
871.877	29.18
872.05	-1.54
872.223	4.61
872.396	55.81
872.569	131.58
872.742	-77.31
872.915	74.24
873.088	-48.64
873.261	-56.83
873.434	-17.92
873.607	53.76
873.78	47.62
873.953	-48.64
874.126	39.42
874.299	27.14
874.471	2.56
874.644	10.75
874.817	-32.26
874.99	164.35
875.163	8.7
875.335	16.9
875.508	-69.12
875.681	102.91
875.853	-40.45
876.026	29.18
876.199	23.04
876.371	18.94
876.544	76.29
876.717	51.71
876.889	-3.58
877.062	49.66
877.234	-87.55
877.407	14.85
877.579	27.14
877.752	51.71
877.924	78.33
878.097	20.99
878.269	64
878.442	39.42
878.614	-46.59
878.786	2.56
878.959	33.28
879.131	33.28
879.303	-17.92
879.476	59.9
879.648	41.47
879.82	51.71
879.993	37.38
880.165	43.52
880.337	-79.36
880.509	-38.4
880.681	-91.65
880.854	-1.54
881.026	68.09
881.198	182.78
881.37	-11.78
881.542	-3.58
881.714	-28.16
881.886	-3.58
882.058	-34.3
882.23	37.38
882.402	-5.63
882.574	64
882.746	39.42
882.918	25.09
883.09	-52.74
883.262	4.61
883.434	51.71
883.606	39.42
883.778	23.04
883.95	121.34
884.122	-7.68
884.293	20.99
884.465	27.14
884.637	84.48
884.809	10.75
884.98	6.66
885.152	-22.02
885.324	31.23
885.496	-54.78
885.667	27.14
885.839	6.66
886.011	86.53
886.182	37.38
886.354	53.76
886.525	-5.63
886.697	64
886.869	-36.35
887.04	-48.64
887.212	10.75
887.383	162.3
887.555	82.43
887.726	18.94
887.897	27.14
888.069	-34.3
888.24	45.57
888.412	12.8
888.583	4.61
888.754	-19.97
888.926	-9.73
889.097	16.9
889.268	-15.87
889.44	68.09
889.611	-65.02
889.782	-13.82
889.953	-9.73
890.125	8.7
890.296	33.28
890.467	72.19
890.638	-24.06
890.809	-44.54
890.98	-60.93
891.151	-19.97
891.323	70.14
891.494	-13.82
891.665	-46.59
891.836	35.33
892.007	35.33
892.178	68.09
892.349	74.24
892.52	-60.93
892.691	-17.92
892.862	-11.78
893.032	-69.12
893.203	-15.87
893.374	-3.58
893.545	45.57
893.716	-26.11
893.887	20.99
894.057	0.51
894.228	-1.54
894.399	-3.58
894.57	-3.58
894.74	-87.55
894.911	51.71
895.082	10.75
895.253	-40.45
895.423	39.42
895.594	64
895.764	2.56
895.935	-26.11
896.106	-40.45
896.276	27.14
896.447	55.81
896.617	-60.93
896.788	-19.97
896.958	-65.02
897.129	12.8
897.299	45.57
897.47	23.04
897.64	145.92
897.81	-42.5
897.981	10.75
898.151	4.61
898.322	61.95
898.492	0.51
898.662	23.04
898.832	-11.78
899.003	18.94
899.173	33.28
899.343	-7.68
899.513	-32.26
