Data from USB4F104151__82__12-12-51-801.txt Node

Date: Fri Mar 14 12:12:51 EDT 2025
User: louis
Spectrometer: USB4F10415
Trigger mode: 4
Integration Time (sec): 5.000000E-2
Scans to average: 1
Electric dark correction enabled: true
Nonlinearity correction enabled: false
Boxcar width: 0
XAxis mode: Wavelengths
Number of Pixels in Spectrum: 3648
>>>>>Begin Spectral Data<<<<<
178.204	-178.51
178.424	-178.51
178.644	-178.51
178.864	-242
179.084	-239.95
179.304	44.71
179.524	-6.49
179.744	20.14
179.964	65.19
180.184	-12.63
180.404	83.63
180.624	-39.25
180.844	-20.82
181.064	-78.16
181.283	-86.36
181.503	-14.68
181.723	44.71
181.943	-55.64
182.163	153.26
182.383	9.9
182.602	40.62
182.822	42.67
183.042	22.19
183.262	34.47
183.482	28.33
183.701	-2.39
183.921	-33.11
184.141	-20.82
184.361	42.67
184.58	20.14
184.8	-35.16
185.02	-102.74
185.239	36.52
185.459	32.43
185.679	22.19
185.898	-92.5
186.118	11.95
186.338	42.67
186.557	20.14
186.777	11.95
186.997	-22.87
187.216	-31.06
187.436	151.21
187.655	73.39
187.875	40.62
188.095	11.95
188.314	100.01
188.534	116.39
188.753	-39.25
188.973	13.99
189.192	87.72
189.412	61.1
189.631	44.71
189.851	-31.06
190.07	87.72
190.29	-106.84
190.509	5.8
190.729	20.14
190.948	36.52
191.168	286.37
191.387	83.63
191.607	-26.96
191.826	50.86
192.045	-22.87
192.265	36.52
192.484	75.43
192.704	63.15
192.923	-22.87
193.142	147.11
193.362	36.52
193.581	91.82
193.8	36.52
194.02	13.99
194.239	48.81
194.458	20.14
194.678	16.04
194.897	26.28
195.116	32.43
195.335	65.19
195.555	30.38
195.774	1.71
195.993	40.62
196.212	-72.02
196.432	-24.92
196.651	34.47
196.87	13.99
197.089	95.91
197.308	18.09
197.528	26.28
197.747	-49.49
197.966	18.09
198.185	44.71
198.404	-33.11
198.623	38.57
198.842	91.82
199.062	36.52
199.281	61.1
199.5	67.24
199.719	34.47
199.938	85.67
200.157	132.78
200.376	48.81
200.595	5.8
200.814	16.04
201.033	20.14
201.252	65.19
201.471	28.33
201.69	65.19
201.909	89.77
202.128	59.05
202.347	77.48
202.566	-29.01
202.785	20.14
203.004	-43.35
203.223	149.16
203.442	42.67
203.661	44.71
203.879	-22.87
204.098	114.34
204.317	-84.31
204.536	18.09
204.755	85.67
204.974	108.2
205.193	-20.82
205.411	79.53
205.63	48.81
205.849	-29.01
206.068	36.52
206.287	46.76
206.505	26.28
206.724	13.99
206.943	-6.49
207.162	-16.73
207.381	24.23
207.599	18.09
207.818	52.91
208.037	26.28
208.255	24.23
208.474	-14.68
208.693	57
208.911	16.04
209.13	34.47
209.349	91.82
209.567	40.62
209.786	83.63
210.005	59.05
210.223	-26.96
210.442	22.19
210.661	93.87
210.879	-22.87
211.098	69.29
211.316	85.67
211.535	71.34
211.753	24.23
211.972	-57.68
212.191	9.9
212.409	95.91
212.628	54.95
212.846	40.62
213.065	5.8
213.283	54.95
213.502	-12.63
213.72	20.14
213.938	26.28
214.157	100.01
214.375	1.71
214.594	-6.49
214.812	46.76
215.031	40.62
215.249	-2.39
215.467	13.99
215.686	9.9
215.904	75.43
216.122	52.91
216.341	108.2
216.559	-12.63
216.778	63.15
216.996	85.67
217.214	52.91
217.432	-26.96
217.651	-35.16
217.869	20.14
218.087	38.57
218.306	38.57
218.524	46.76
218.742	-78.16
218.96	34.47
219.179	-35.16
219.397	-6.49
219.615	130.73
219.833	7.85
220.051	30.38
220.27	26.28
220.488	44.71
220.706	-49.49
220.924	-10.58
221.142	-12.63
221.36	85.67
221.578	63.15
221.796	112.3
222.015	30.38
222.233	114.34
222.451	81.58
222.669	54.95
222.887	44.71
223.105	11.95
223.323	3.75
223.541	69.29
223.759	50.86
223.977	3.75
224.195	95.91
224.413	114.34
224.631	50.86
224.849	48.81
225.067	65.19
225.285	-8.53
225.503	-6.49
225.721	-12.63
225.939	26.28
226.157	7.85
226.375	171.69
226.592	7.85
226.81	-6.49
227.028	57
227.246	63.15
227.464	18.09
227.682	83.63
227.9	155.3
228.117	112.3
228.335	54.95
228.553	63.15
228.771	69.29
228.989	75.43
229.206	13.99
229.424	-24.92
229.642	-20.82
229.86	-65.88
230.077	65.19
230.295	-2.39
230.513	40.62
230.731	85.67
230.948	114.34
231.166	118.44
231.384	-6.49
231.601	3.75
231.819	91.82
232.037	-4.44
232.254	-12.63
232.472	69.29
232.689	22.19
232.907	24.23
233.125	32.43
233.342	3.75
233.56	-29.01
233.777	52.91
233.995	-31.06
234.213	16.04
234.43	128.68
234.648	28.33
234.865	-8.53
235.083	40.62
235.3	61.1
235.518	61.1
235.735	112.3
235.953	100.01
236.17	36.52
236.388	69.29
236.605	63.15
236.822	71.34
237.04	91.82
237.257	-45.4
237.475	13.99
237.692	67.24
237.909	-26.96
238.127	54.95
238.344	71.34
238.562	59.05
238.779	-43.35
238.996	-16.73
239.214	-2.39
239.431	136.87
239.648	106.15
239.865	57
240.083	44.71
240.3	16.04
240.517	26.28
240.735	59.05
240.952	89.77
241.169	-2.39
241.386	40.62
241.603	-2.39
241.821	-86.36
242.038	120.49
242.255	18.09
242.472	54.95
242.689	-6.49
242.907	73.39
243.124	42.67
243.341	5.8
243.558	16.04
243.775	1.71
243.992	22.19
244.209	34.47
244.426	73.39
244.643	95.91
244.86	34.47
245.078	-18.77
245.295	46.76
245.512	36.52
245.729	-24.92
245.946	61.1
246.163	26.28
246.38	44.71
246.597	-18.77
246.814	26.28
247.031	11.95
247.248	-4.44
247.464	-35.16
247.681	9.9
247.898	61.1
248.115	57
248.332	1.71
248.549	3.75
248.766	102.06
248.983	81.58
249.2	34.47
249.417	57
249.633	-39.25
249.85	89.77
250.067	-14.68
250.284	-22.87
250.501	93.87
250.717	18.09
250.934	-22.87
251.151	44.71
251.368	-12.63
251.585	30.38
251.801	63.15
252.018	-82.26
252.235	118.44
252.451	5.8
252.668	36.52
252.885	36.52
253.102	69.29
253.318	-0.34
253.535	-24.92
253.752	46.76
253.968	-14.68
254.185	-24.92
254.401	-14.68
254.618	30.38
254.835	26.28
255.051	52.91
255.268	36.52
255.484	-22.87
255.701	28.33
255.917	63.15
256.134	28.33
256.351	-37.2
256.567	28.33
256.784	-35.16
257	-121.17
257.217	44.71
257.433	-2.39
257.65	20.14
257.866	122.54
258.082	-0.34
258.299	32.43
258.515	26.28
258.732	48.81
258.948	-37.2
259.165	-14.68
259.381	-26.96
259.597	46.76
259.814	-45.4
260.03	7.85
260.246	69.29
260.463	95.91
260.679	32.43
260.895	59.05
261.112	57
261.328	-12.63
261.544	3.75
261.761	13.99
261.977	-26.96
262.193	9.9
262.409	81.58
262.626	63.15
262.842	50.86
263.058	-74.07
263.274	28.33
263.49	34.47
263.707	75.43
263.923	91.82
264.139	-18.77
264.355	9.9
264.571	7.85
264.787	46.76
265.004	81.58
265.22	30.38
265.436	54.95
265.652	-26.96
265.868	32.43
266.084	-61.78
266.3	-20.82
266.516	-51.54
266.732	42.67
266.948	50.86
267.164	9.9
267.38	67.24
267.596	9.9
267.812	91.82
268.028	42.67
268.244	-29.01
268.46	30.38
268.676	11.95
268.892	34.47
269.108	9.9
269.324	-63.83
269.54	9.9
269.756	57
269.972	-16.73
270.188	48.81
270.403	-72.02
270.619	20.14
270.835	69.29
271.051	11.95
271.267	32.43
271.483	-41.3
271.698	93.87
271.914	28.33
272.13	13.99
272.346	-6.49
272.562	22.19
272.777	44.71
272.993	63.15
273.209	48.81
273.425	40.62
273.64	-16.73
273.856	126.63
274.072	36.52
274.287	-10.58
274.503	63.15
274.719	57
274.934	38.57
275.15	-51.54
275.366	22.19
275.581	32.43
275.797	50.86
276.012	-35.16
276.228	13.99
276.444	50.86
276.659	24.23
276.875	3.75
277.09	7.85
277.306	-22.87
277.521	-26.96
277.737	52.91
277.952	-12.63
278.168	-35.16
278.383	61.1
278.599	20.14
278.814	26.28
279.03	-53.59
279.245	63.15
279.461	-10.58
279.676	91.82
279.892	-20.82
280.107	77.48
280.322	-29.01
280.538	73.39
280.753	26.28
280.969	-43.35
281.184	-6.49
281.399	-6.49
281.615	16.04
281.83	75.43
282.045	-63.83
282.26	-41.3
282.476	-24.92
282.691	32.43
282.906	-2.39
283.122	63.15
283.337	-22.87
283.552	69.29
283.767	34.47
283.983	-41.3
284.198	30.38
284.413	13.99
284.628	-65.88
284.843	40.62
285.058	22.19
285.274	61.1
285.489	-16.73
285.704	95.91
285.919	13.99
286.134	-31.06
286.349	-29.01
286.564	-53.59
286.779	61.1
286.995	16.04
287.21	-88.4
287.425	-2.39
287.64	22.19
287.855	30.38
288.07	-4.44
288.285	48.81
288.5	57
288.715	28.33
288.93	20.14
289.145	26.28
289.36	16.04
289.575	57
289.79	52.91
290.004	-14.68
290.219	85.67
290.434	32.43
290.649	20.14
290.864	30.38
291.079	-51.54
291.294	38.57
291.509	44.71
291.724	67.24
291.938	-20.82
292.153	9.9
292.368	24.23
292.583	36.52
292.798	65.19
293.012	65.19
293.227	48.81
293.442	52.91
293.657	24.23
293.871	57
294.086	22.19
294.301	159.4
294.516	97.96
294.73	97.96
294.945	52.91
295.16	11.95
295.374	67.24
295.589	9.9
295.804	-53.59
296.018	22.19
296.233	153.26
296.447	67.24
296.662	-2.39
296.877	81.58
297.091	93.87
297.306	46.76
297.52	81.58
297.735	20.14
297.949	-10.58
298.164	36.52
298.378	61.1
298.593	-76.12
298.807	-51.54
299.022	75.43
299.236	104.11
299.451	-12.63
299.665	48.81
299.88	38.57
300.094	52.91
300.309	65.19
300.523	5.8
300.737	38.57
300.952	30.38
301.166	16.04
301.381	65.19
301.595	-35.16
301.809	57
302.024	7.85
302.238	-22.87
302.452	42.67
302.667	67.24
302.881	118.44
303.095	57
303.309	24.23
303.524	24.23
303.738	20.14
303.952	-22.87
304.166	85.67
304.381	-22.87
304.595	106.15
304.809	-72.02
305.023	11.95
305.237	-8.53
305.452	11.95
305.666	95.91
305.88	71.34
306.094	5.8
306.308	28.33
306.522	48.81
306.736	54.95
306.95	26.28
307.164	13.99
307.379	87.72
307.593	69.29
307.807	77.48
308.021	77.48
308.235	36.52
308.449	48.81
308.663	-18.77
308.877	75.43
309.091	11.95
309.305	79.53
309.519	-57.68
309.733	67.24
309.947	-45.4
310.161	65.19
310.374	22.19
310.588	40.62
310.802	-39.25
311.016	28.33
311.23	-61.78
311.444	-2.39
311.658	-47.44
311.872	73.39
312.085	81.58
312.299	-16.73
312.513	5.8
312.727	48.81
312.941	7.85
313.154	83.63
313.368	38.57
313.582	11.95
313.796	63.15
314.009	61.1
314.223	97.96
314.437	44.71
314.651	73.39
314.864	42.67
315.078	-33.11
315.292	-18.77
315.505	73.39
315.719	61.1
315.933	-29.01
316.146	28.33
316.36	-6.49
316.573	44.71
316.787	42.67
317.001	11.95
317.214	-43.35
317.428	165.54
317.641	9.9
317.855	-35.16
318.068	7.85
318.282	40.62
318.495	104.11
318.709	91.82
318.922	-4.44
319.136	-20.82
319.349	79.53
319.563	36.52
319.776	-14.68
319.99	24.23
320.203	77.48
320.417	22.19
320.63	57
320.843	44.71
321.057	18.09
321.27	-20.82
321.483	28.33
321.697	149.16
321.91	-8.53
322.124	1.71
322.337	13.99
322.55	40.62
322.763	9.9
322.977	1.71
323.19	-6.49
323.403	61.1
323.617	-31.06
323.83	59.05
324.043	-14.68
324.256	38.57
324.469	30.38
324.683	93.87
324.896	52.91
325.109	63.15
325.322	-20.82
325.535	9.9
325.748	-45.4
325.962	7.85
326.175	-47.44
326.388	-10.58
326.601	67.24
326.814	-12.63
327.027	122.54
327.24	16.04
327.453	-59.73
327.666	83.63
327.879	122.54
328.092	48.81
328.305	20.14
328.518	48.81
328.731	-84.31
328.944	-14.68
329.157	69.29
329.37	75.43
329.583	48.81
329.796	134.82
330.009	-131.41
330.222	50.86
330.435	7.85
330.648	59.05
330.861	5.8
331.073	13.99
331.286	83.63
331.499	16.04
331.712	1.71
331.925	44.71
332.138	16.04
332.35	13.99
332.563	-125.27
332.776	106.15
332.989	-29.01
333.202	42.67
333.414	24.23
333.627	7.85
333.84	38.57
334.053	61.1
334.265	-8.53
334.478	48.81
334.691	-10.58
334.903	18.09
335.116	-43.35
335.329	-0.34
335.541	9.9
335.754	95.91
335.966	-51.54
336.179	-0.34
336.392	34.47
336.604	-0.34
336.817	61.1
337.029	20.14
337.242	73.39
337.454	16.04
337.667	-8.53
337.88	22.19
338.092	67.24
338.305	-4.44
338.517	-6.49
338.729	83.63
338.942	67.24
339.154	-33.11
339.367	-61.78
339.579	22.19
339.792	-2.39
340.004	40.62
340.217	18.09
340.429	57
340.641	-65.88
340.854	50.86
341.066	13.99
341.278	1.71
341.491	143.02
341.703	-37.2
341.915	-29.01
342.128	42.67
342.34	34.47
342.552	-29.01
342.764	38.57
342.977	57
343.189	93.87
343.401	57
343.613	-88.4
343.826	-51.54
344.038	7.85
344.25	-26.96
344.462	57
344.674	97.96
344.886	65.19
345.099	26.28
345.311	28.33
345.523	-29.01
345.735	-24.92
345.947	-24.92
346.159	-22.87
346.371	3.75
346.583	-18.77
346.795	93.87
347.007	28.33
347.219	52.91
347.431	5.8
347.643	50.86
347.855	20.14
348.067	128.68
348.279	-14.68
348.491	36.52
348.703	7.85
348.915	-22.87
349.127	-4.44
349.339	71.34
349.551	24.23
349.763	7.85
349.975	18.09
350.187	63.15
350.399	100.01
350.61	79.53
350.822	3.75
351.034	1.71
351.246	13.99
351.458	75.43
351.669	85.67
351.881	71.34
352.093	57
352.305	26.28
352.517	153.26
352.728	93.87
352.94	87.72
353.152	71.34
353.363	-20.82
353.575	87.72
353.787	116.39
353.999	54.95
354.21	102.06
354.422	95.91
354.633	59.05
354.845	3.75
355.057	3.75
355.268	30.38
355.48	87.72
355.692	-24.92
355.903	95.91
356.115	16.04
356.326	-84.31
356.538	100.01
356.749	65.19
356.961	93.87
357.172	24.23
357.384	-100.69
357.595	214.7
357.807	-24.92
358.018	-82.26
358.23	-39.25
358.441	140.97
358.653	13.99
358.864	75.43
359.075	-59.73
359.287	116.39
359.498	85.67
359.709	-14.68
359.921	57
360.132	38.57
360.344	18.09
360.555	-2.39
360.766	91.82
360.977	1.71
361.189	52.91
361.4	34.47
361.611	97.96
361.823	9.9
362.034	34.47
362.245	-51.54
362.456	-29.01
362.667	20.14
362.879	-18.77
363.09	71.34
363.301	97.96
363.512	-4.44
363.723	42.67
363.935	-16.73
364.146	83.63
364.357	24.23
364.568	-31.06
364.779	-12.63
364.99	61.1
365.201	-24.92
365.412	-10.58
365.623	-33.11
365.834	87.72
366.045	16.04
366.256	48.81
366.467	54.95
366.678	5.8
366.889	-22.87
367.1	-16.73
367.311	40.62
367.522	-0.34
367.733	20.14
367.944	13.99
368.155	-2.39
368.366	85.67
368.577	20.14
368.788	71.34
368.999	-35.16
369.209	-20.82
369.42	79.53
369.631	130.73
369.842	110.25
370.053	50.86
370.264	13.99
370.474	-6.49
370.685	-8.53
370.896	48.81
371.107	24.23
371.317	30.38
371.528	54.95
371.739	104.11
371.95	11.95
372.16	34.47
372.371	38.57
372.582	5.8
372.792	-33.11
373.003	71.34
373.214	34.47
373.424	126.63
373.635	5.8
373.846	71.34
374.056	59.05
374.267	143.02
374.477	65.19
374.688	44.71
374.898	28.33
375.109	54.95
375.319	79.53
375.53	69.29
375.74	102.06
375.951	13.99
376.161	20.14
376.372	81.58
376.582	-0.34
376.793	71.34
377.003	9.9
377.214	48.81
377.424	52.91
377.635	9.9
377.845	48.81
378.055	108.2
378.266	-35.16
378.476	7.85
378.686	-4.44
378.897	-39.25
379.107	54.95
379.317	42.67
379.528	-39.25
379.738	81.58
379.948	-2.39
380.158	75.43
380.369	97.96
380.579	40.62
380.789	54.95
380.999	65.19
381.21	73.39
381.42	73.39
381.63	1.71
381.84	52.91
382.05	48.81
382.261	16.04
382.471	42.67
382.681	5.8
382.891	79.53
383.101	1.71
383.311	-18.77
383.521	59.05
383.731	36.52
383.941	32.43
384.151	85.67
384.361	48.81
384.571	42.67
384.781	-16.73
384.991	134.82
385.201	30.38
385.411	28.33
385.621	7.85
385.831	48.81
386.041	-20.82
386.251	89.77
386.461	102.06
386.671	108.2
386.881	1.71
387.091	-18.77
387.301	108.2
387.511	85.67
387.72	46.76
387.93	44.71
388.14	-24.92
388.35	44.71
388.56	65.19
388.769	71.34
388.979	81.58
389.189	-8.53
389.399	38.57
389.609	16.04
389.818	77.48
390.028	124.58
390.238	50.86
390.447	57
390.657	77.48
390.867	65.19
391.076	1.71
391.286	18.09
391.496	77.48
391.705	-2.39
391.915	126.63
392.125	44.71
392.334	67.24
392.544	130.73
392.753	44.71
392.963	-24.92
393.172	75.43
393.382	38.57
393.591	130.73
393.801	95.91
394.01	179.88
394.22	116.39
394.429	48.81
394.639	65.19
394.848	36.52
395.058	52.91
395.267	71.34
395.477	83.63
395.686	52.91
395.895	104.11
396.105	69.29
396.314	83.63
396.524	71.34
396.733	3.75
396.942	83.63
397.152	97.96
397.361	42.67
397.57	145.06
397.78	24.23
397.989	91.82
398.198	126.63
398.407	-24.92
398.617	61.1
398.826	40.62
399.035	42.67
399.244	89.77
399.453	63.15
399.663	26.28
399.872	153.26
400.081	85.67
400.29	120.49
400.499	-12.63
400.708	26.28
400.917	81.58
401.127	81.58
401.336	67.24
401.545	138.92
401.754	91.82
401.963	87.72
402.172	5.8
402.381	5.8
402.59	73.39
402.799	114.34
403.008	157.35
403.217	36.52
403.426	132.78
403.635	-20.82
403.844	81.58
404.053	108.2
404.262	46.76
404.471	173.74
404.68	112.3
404.888	44.71
405.097	18.09
405.306	112.3
405.515	157.35
405.724	110.25
405.933	153.26
406.142	122.54
406.35	190.12
406.559	83.63
406.768	44.71
406.977	202.41
407.185	140.97
407.394	108.2
407.603	79.53
407.812	177.83
408.02	159.4
408.229	77.48
408.438	132.78
408.646	112.3
408.855	194.22
409.064	169.64
409.272	155.3
409.481	167.59
409.69	110.25
409.898	126.63
410.107	124.58
410.315	216.74
410.524	196.26
410.733	245.41
410.941	210.6
411.15	222.89
411.358	190.12
411.567	296.61
411.775	239.27
411.984	220.84
412.192	253.61
412.401	202.41
412.609	390.82
412.818	337.57
413.026	321.19
413.234	280.23
413.443	210.6
413.651	255.65
413.86	288.42
414.068	356.01
414.276	433.83
414.485	315.05
414.693	401.06
414.901	482.98
415.11	405.16
415.318	439.97
415.526	456.36
415.734	425.64
415.943	423.59
416.151	476.84
416.359	476.84
416.567	495.27
416.776	575.14
416.984	591.52
417.192	673.44
417.4	528.03
417.608	566.95
417.817	564.9
418.025	585.38
418.233	644.77
418.441	634.53
418.649	595.62
418.857	755.36
419.065	814.75
419.273	681.63
419.481	800.41
419.689	837.28
419.897	890.53
420.105	843.42
420.313	935.58
420.521	921.24
420.729	911
420.937	1060.51
421.145	949.92
421.353	1040.03
421.561	1203.86
421.769	1091.23
421.977	1132.19
422.185	1167
422.393	1134.23
422.601	1363.61
422.809	1291.93
423.017	1320.6
423.224	1271.45
423.432	1447.57
423.64	1396.37
423.848	1646.23
424.056	1474.2
424.263	1576.59
424.471	1685.14
424.679	1693.33
424.887	1668.75
425.094	1838.73
425.302	1711.76
425.51	1795.73
425.718	1932.94
425.925	1896.08
426.133	1996.43
426.341	2104.97
426.548	2233.99
426.756	2158.22
426.964	2260.62
427.171	2420.36
427.379	2406.02
427.586	2387.59
427.794	2444.93
428.001	2616.96
428.209	2725.51
428.417	2645.63
428.624	2848.38
428.832	2924.16
429.039	2868.86
429.247	2838.14
429.454	3079.8
429.662	3350.14
429.869	3188.35
430.076	3364.47
430.284	3247.74
430.491	3589.75
430.699	3542.64
430.906	3645.04
431.114	3548.79
431.321	3743.35
431.528	3841.65
431.736	3987.05
431.943	4238.95
432.15	4179.56
432.358	4232.81
432.565	4443.75
432.772	4290.15
432.979	4490.85
433.187	4646.5
433.394	4634.21
433.601	4990.56
433.808	5105.24
434.016	4884.06
434.223	5299.8
434.43	5451.35
434.637	5537.37
434.844	5764.69
435.052	5987.92
435.259	5897.81
435.466	5936.72
435.673	5854.8
435.88	6102.61
436.087	6565.45
436.294	6608.45
436.501	6422.09
436.708	6673.99
436.915	6778.44
437.122	7165.5
437.329	6993.47
437.537	7157.31
437.743	7327.29
437.95	7419.45
438.157	7829.04
438.364	8007.22
438.571	7829.04
438.778	8087.09
438.985	8572.46
439.192	8324.65
439.399	8789.54
439.606	8521.26
439.813	8910.37
440.02	9393.69
440.227	9297.44
440.433	9279.01
440.64	9471.51
440.847	9545.24
441.054	9700.89
441.261	10395.15
441.467	10206.73
441.674	10421.77
441.881	10585.61
442.088	10866.18
442.294	10724.87
442.501	10941.96
442.708	11212.29
442.914	11724.28
443.121	12035.57
443.328	11640.31
443.534	12355.05
443.741	12185.07
443.948	11918.84
444.154	12922.34
444.361	12828.13
444.568	12830.18
444.774	12856.81
444.981	12928.49
445.187	13272.54
445.394	13927.89
445.6	13837.78
445.807	15082.95
446.013	14480.85
446.22	14769.61
446.426	15420.86
446.633	15529.41
446.839	15992.25
447.046	15320.51
447.252	16205.24
447.459	15998.39
447.665	15740.35
447.871	16801.19
448.078	17427.87
448.284	16846.25
448.491	17120.68
448.697	17890.71
448.903	18210.2
449.11	18122.13
449.316	17855.9
449.522	18298.26
449.728	18681.23
449.935	18691.47
450.141	18824.59
450.347	19197.32
450.553	18785.68
450.76	19027.34
450.966	19604.86
451.172	19494.27
451.378	19834.24
451.584	19586.43
451.791	20022.65
451.997	19694.97
452.203	20419.96
452.409	20176.25
452.615	20417.91
452.821	19176.84
453.027	19029.38
453.233	20372.85
453.44	19418.5
453.646	19858.81
453.852	19713.41
454.058	20053.37
454.264	19416.45
454.47	19942.78
454.676	19357.06
454.882	20110.71
455.088	18156.95
455.294	18570.64
455.5	18916.75
455.705	19080.58
455.911	18394.51
456.117	18103.7
456.323	17374.63
456.529	16750
456.735	17585.57
456.941	17116.58
457.147	16905.64
457.352	16358.83
457.558	15934.9
457.764	15746.49
457.97	15695.29
458.176	15470.01
458.381	15465.92
458.587	14755.27
458.793	14892.49
458.999	14024.15
459.204	14749.13
459.41	14230.99
459.616	13577.69
459.821	13393.37
460.027	13235.68
460.233	13108.71
460.438	12475.88
460.644	12594.67
460.85	11988.47
461.055	11849.21
461.261	11824.63
461.466	10913.28
461.672	10624.52
461.878	11505.15
462.083	10579.47
462.289	10360.33
462.494	10518.03
462.7	9834
462.905	9743.89
463.111	10075.66
463.316	9911.83
463.522	9815.57
463.727	10042.9
463.932	9733.65
464.138	9776.66
464.343	9545.24
464.549	9512.47
464.754	9702.93
464.959	9805.33
465.165	9530.91
465.37	9203.23
465.575	8785.44
465.781	9184.8
465.986	9143.84
466.191	8949.28
466.397	8767.01
466.602	8390.19
466.807	8457.77
467.012	8633.89
467.218	8744.49
467.423	8529.45
467.628	8574.5
467.833	8648.23
468.038	8447.53
468.244	8425
468.449	8674.85
468.654	8388.14
468.859	8246.83
469.064	8140.33
469.269	7908.91
469.474	8029.74
469.679	8232.49
469.885	7816.76
470.09	7966.26
470.295	7827
470.5	7700.02
470.705	7790.13
470.91	7683.64
471.115	7810.61
471.32	7599.67
471.525	7538.23
471.73	7454.26
471.935	7136.83
472.139	7083.58
472.344	7321.15
472.549	7020.1
472.754	6858.31
472.959	6886.98
473.164	6762.05
473.369	6643.27
473.574	7005.76
473.778	6932.03
473.983	6751.81
474.188	6747.72
474.393	6512.2
474.598	6450.76
474.802	6473.29
475.007	6465.1
475.212	6411.85
475.417	6082.13
475.621	6084.17
475.826	6071.89
476.031	6139.47
476.235	5989.97
476.44	5987.92
476.645	5926.48
476.849	5838.42
477.054	5668.44
477.259	5623.38
477.463	5828.18
477.668	5791.31
477.872	5731.92
478.077	5518.93
478.282	5410.39
478.486	5475.93
478.691	5377.62
478.895	5381.72
479.1	5355.1
479.304	5471.83
479.509	5111.39
479.713	5326.43
479.918	5189.21
480.122	4955.74
480.326	5123.68
480.531	5119.58
480.735	5068.38
480.94	5074.53
481.144	5119.58
481.348	4851.3
481.553	5006.94
481.757	4744.8
481.961	4724.32
482.166	4996.7
482.37	5039.71
482.574	4759.14
482.778	4810.34
482.983	5031.52
483.187	5008.99
483.391	4980.32
483.595	4832.86
483.8	4849.25
484.004	5058.14
484.208	5037.66
484.412	4810.34
484.616	4908.64
484.821	4849.25
485.025	4845.15
485.229	4888.16
485.433	4816.48
485.637	4730.47
485.841	4822.63
486.045	4716.13
486.249	4861.54
486.453	4755.04
486.657	4767.33
486.861	4949.6
487.065	4673.12
487.269	4976.22
487.473	4679.27
487.677	4787.81
487.881	5008.99
488.085	4879.97
488.289	4830.82
488.493	4865.63
488.697	4853.34
488.901	4779.62
489.105	4925.02
489.309	4892.26
489.512	4871.78
489.716	4839.01
489.92	4884.06
490.124	4812.39
490.328	4922.98
490.531	4959.84
490.735	5056.09
490.939	5041.76
491.143	4820.58
491.346	4843.1
491.55	5037.66
491.754	5041.76
491.958	4992.61
492.161	4980.32
492.365	5035.61
492.569	5064.29
492.772	4978.27
492.976	5211.74
493.18	5101.15
493.383	5289.56
493.587	5322.33
493.79	5256.79
493.994	5277.27
494.197	5164.64
494.401	5428.82
494.605	5203.55
494.808	5381.72
495.012	5355.1
495.215	5484.12
495.419	5582.42
495.622	5447.26
495.825	5541.46
496.029	5529.17
496.232	5625.43
496.436	5590.61
496.639	5652.05
496.843	5781.07
497.046	5760.59
497.249	5932.62
497.453	5860.95
497.656	5930.58
497.859	5975.63
498.063	6055.5
498.266	6164.04
498.469	6094.41
498.673	6209.1
498.876	6178.38
499.079	6426.18
499.282	6368.84
499.485	6612.55
499.689	6524.49
499.892	6592.07
500.095	6485.58
500.298	6882.88
500.501	6782.53
500.705	6989.38
500.908	6944.32
501.111	6938.18
501.314	7020.1
501.517	7249.47
501.72	7054.91
501.923	6997.57
502.126	7464.5
502.329	7540.28
502.532	7499.32
502.735	7464.5
502.938	7781.94
503.141	7779.89
503.344	7661.11
503.547	7732.79
503.75	8209.97
503.953	7990.83
504.156	8347.18
504.359	8144.43
504.562	8381.99
504.765	8218.16
504.968	8384.04
505.17	8754.73
505.373	8515.11
505.576	8871.46
505.779	8807.97
505.982	8838.69
506.185	9025.06
506.387	9043.49
506.59	9240.09
506.793	9248.29
506.996	9408.03
507.198	9686.55
507.401	9508.38
507.604	9704.98
507.807	9997.84
508.009	9987.6
508.212	9760.28
508.415	10046.99
508.617	10014.23
508.82	10225.17
509.022	10159.63
509.225	10403.34
509.428	10542.6
509.63	10659.34
509.833	10630.66
510.035	10980.87
510.238	10978.82
510.44	10794.5
510.643	11181.57
510.845	11142.66
511.048	11214.34
511.25	11103.75
511.453	11408.89
511.655	11951.6
511.858	11668.98
512.06	11677.18
512.262	11793.91
512.465	11974.13
512.667	12248.56
512.87	11896.31
513.072	12146.16
513.274	12277.23
513.477	12486.12
513.679	12629.48
513.881	12668.39
514.084	12817.9
514.286	12897.77
514.488	12819.94
514.69	13073.89
514.893	13080.04
515.095	13413.85
515.297	13233.63
515.499	13440.48
515.701	13528.54
515.904	13766.1
516.106	13819.35
516.308	13864.41
516.51	14110.16
516.712	14321.1
516.914	14376.4
517.116	14267.86
517.318	14396.88
517.52	14661.07
517.722	14609.87
517.925	14745.03
518.127	14910.92
518.329	14931.4
518.531	14845.38
518.733	15566.27
518.935	15160.77
519.136	15257.03
519.338	15416.77
519.54	15697.34
519.742	15429.06
519.944	15906.23
520.146	15719.87
520.348	16025.01
520.55	16106.93
520.752	16151.99
520.954	16199.09
521.155	16383.41
521.357	16455.09
521.559	16504.24
521.761	16475.57
521.963	16803.24
522.164	16817.58
522.366	16913.83
522.568	16663.98
522.77	17122.73
522.971	17192.36
523.173	17194.4
523.375	17165.73
523.576	17239.46
523.778	17431.97
523.98	17274.28
524.181	17491.36
524.383	17585.57
524.584	17868.19
524.786	17964.44
524.988	17616.29
525.189	17655.2
525.391	17796.51
525.592	17925.53
525.794	17835.42
525.995	17900.95
526.197	18294.16
526.398	18181.53
526.6	18273.68
526.801	18568.59
527.003	18226.58
527.204	18322.84
527.406	18546.06
527.607	18570.64
527.808	18662.8
528.01	18095.51
528.211	18380.18
528.412	18746.76
528.614	18439.57
528.815	18759.05
529.016	18771.34
529.218	18480.53
529.419	18638.22
529.62	18859.4
529.822	18759.05
530.023	18789.77
530.224	18861.45
530.425	18748.81
530.626	18582.93
530.828	18900.36
531.029	18890.12
531.23	18857.35
531.431	18693.52
531.632	19185.03
531.833	18836.88
532.035	19060.1
532.236	19033.48
532.437	18929.03
532.638	18822.54
532.839	18843.02
533.04	19318.15
533.241	18857.35
533.442	19328.39
533.643	18859.4
533.844	18775.44
534.045	19160.45
534.246	18806.16
534.447	19031.43
534.648	18943.37
534.849	19006.86
535.05	18957.71
535.251	18900.36
535.451	18916.75
535.652	18961.8
535.853	18769.29
536.054	18961.8
536.255	18767.24
536.456	18703.76
536.657	19297.67
536.857	18822.54
537.058	18894.22
537.259	19033.48
537.46	19035.53
537.66	18826.64
537.861	18810.25
538.062	18853.26
538.263	18867.59
538.463	18779.53
538.664	18806.16
538.865	18992.52
539.065	18949.51
539.266	18675.09
539.466	18849.16
539.667	18935.18
539.868	19008.9
540.068	18881.93
540.269	18728.33
540.469	19133.83
540.67	18521.49
540.87	18732.43
541.071	18996.62
541.271	18933.13
541.472	18810.25
541.672	18859.4
541.873	18714
542.073	18498.96
542.274	18996.62
542.474	18924.94
542.675	18630.03
542.875	18982.28
543.075	18638.22
543.276	18703.76
543.476	18793.87
543.676	18619.79
543.877	18875.79
544.077	18529.68
544.277	18632.08
544.478	18748.81
544.678	18949.51
544.878	18462.1
545.078	18763.15
545.279	18621.84
545.479	18451.86
545.679	18613.65
545.879	18597.26
546.079	18779.53
546.28	18507.15
546.48	18550.16
546.68	18685.33
546.88	18496.91
547.08	18840.97
547.28	18662.8
547.48	18541.97
547.68	18466.19
547.88	18562.45
548.081	18644.37
548.281	18408.85
548.481	18494.86
548.681	18793.87
548.881	18349.46
549.081	18460.05
549.28	18584.98
549.48	18687.37
549.68	18759.05
549.88	18738.57
550.08	18331.03
550.28	18486.67
550.48	18582.93
550.68	18699.66
550.88	18361.75
551.08	18498.96
551.279	18386.32
551.479	18167.19
551.679	18787.72
551.879	18677.13
552.079	18451.86
552.278	18406.8
552.478	18613.65
552.678	18515.34
552.878	18716.05
553.077	18490.77
553.277	18247.06
553.477	18724.24
553.676	18460.05
553.876	18271.64
554.076	18279.83
554.275	18599.31
554.475	18347.41
554.674	18574.74
554.874	18435.47
555.074	18443.67
555.273	18322.84
555.473	18408.85
555.672	18382.23
555.872	18425.23
556.071	18417.04
556.271	18537.87
556.47	18611.6
556.67	18029.98
556.869	18363.79
557.068	18402.71
557.268	18097.56
557.467	18302.36
557.667	18013.59
557.866	18068.89
558.065	18369.94
558.265	18247.06
558.464	17921.43
558.663	18576.78
558.863	17989.02
559.062	18427.28
559.261	17950.1
559.461	18386.32
559.66	17868.19
559.859	18199.96
560.058	17872.28
560.258	17984.92
560.457	17929.63
560.656	18240.92
560.855	17986.97
561.054	18144.66
561.253	18087.32
561.453	17966.49
561.652	17939.86
561.851	18105.75
562.05	17696.16
562.249	17978.78
562.448	17935.77
562.647	18175.38
562.846	18101.65
563.045	18075.03
563.244	17823.13
563.443	17903
563.642	17663.39
563.841	18056.6
564.04	17882.52
564.239	18005.4
564.438	17816.99
564.637	17857.95
564.836	17984.92
565.035	17589.66
565.234	17380.77
565.432	17849.75
565.631	17550.75
565.83	17583.52
566.029	17601.95
566.228	17857.95
566.427	17900.95
566.625	17528.22
566.824	17216.93
567.023	17683.87
567.222	17372.58
567.42	17569.18
567.619	17739.16
567.818	17546.65
568.016	17591.71
568.215	17460.64
568.414	17528.22
568.612	17757.6
568.811	17294.75
569.01	17505.7
569.208	17202.6
569.407	17577.37
569.605	17513.89
569.804	17460.64
570.002	17436.06
570.201	17526.18
570.4	17399.2
570.598	17335.71
570.797	17067.43
570.995	17434.02
571.193	16897.45
571.392	17718.68
571.59	16997.8
571.789	17147.3
571.987	17216.93
572.186	17165.73
572.384	16958.89
572.582	17106.34
572.781	16995.75
572.979	16856.49
573.177	17112.49
573.376	17053.09
573.574	17049
573.772	16899.5
573.971	16928.17
574.169	16833.96
574.367	16700.84
574.565	16919.98
574.763	16909.74
574.962	16723.37
575.16	16698.8
575.358	16776.62
575.556	16821.67
575.754	16801.19
575.952	16596.4
576.151	16827.82
576.349	16713.13
576.547	16385.46
576.745	16580.01
576.943	16704.94
577.141	16682.41
577.339	16563.63
577.537	16500.14
577.735	16659.88
577.933	16446.9
578.131	16549.29
578.329	16620.97
578.527	16418.22
578.725	16276.91
578.923	16367.02
579.121	16309.68
579.319	16045.49
579.516	16143.8
579.714	16324.02
579.912	16412.08
580.11	16205.24
580.308	15990.2
580.506	15953.34
580.704	15535.55
580.901	16074.17
581.099	15988.15
581.297	15926.71
581.495	15965.62
581.692	15859.13
581.89	15691.2
582.088	16059.83
582.285	15742.39
582.483	16090.55
582.681	15519.17
582.878	15865.27
583.076	15689.15
583.274	15869.37
583.471	15617.47
583.669	15629.76
583.866	15398.34
584.064	15480.25
584.262	15144.39
584.459	15406.53
584.657	15492.54
584.854	15556.03
585.052	15449.53
585.249	15404.48
585.447	15478.21
585.644	15338.94
585.841	15463.87
586.039	15500.73
586.236	15162.82
586.434	15222.21
586.631	15177.16
586.828	15113.67
587.026	15048.13
587.223	15041.99
587.42	14953.93
587.618	15048.13
587.815	15068.61
588.012	14912.97
588.21	14749.13
588.407	14826.95
588.604	15009.22
588.801	14777.8
588.999	14722.51
589.196	14742.99
589.393	14878.15
589.59	14745.03
589.787	14704.07
589.984	14519.76
590.182	14501.33
590.379	14908.87
590.576	14499.28
590.773	14366.16
590.97	14431.69
591.167	14566.86
591.364	14296.53
591.561	14224.85
591.758	14257.62
591.955	14249.43
592.152	14013.91
592.349	14015.96
592.546	14460.37
592.743	14384.59
592.94	14026.2
593.137	14312.91
593.334	14116.31
593.531	14079.44
593.727	14104.02
593.924	14028.24
594.121	13835.74
594.318	14044.63
594.515	13798.87
594.712	14212.56
594.908	13782.49
595.105	13809.11
595.302	13651.42
595.499	13962.71
595.696	13905.37
595.892	13725.15
596.089	13655.51
596.286	13704.67
596.482	13620.7
596.679	13786.58
596.876	13475.29
597.072	13426.14
597.269	13620.7
597.466	13370.85
597.662	13348.32
597.859	13272.54
598.055	13299.17
598.252	13323.74
598.448	13295.07
598.645	13297.12
598.841	13432.29
599.038	13438.43
599.234	13100.51
599.431	13250.02
599.627	13018.6
599.824	13436.38
600.02	13063.65
600.217	13120.99
600.413	12998.12
600.609	12830.18
600.806	13022.69
601.002	12824.04
601.198	12842.47
601.395	13061.6
601.591	13028.84
601.787	12772.84
601.984	12735.98
602.18	12928.49
602.376	12617.19
602.572	12824.04
602.769	12899.81
602.965	12725.74
603.161	12522.99
603.357	12695.02
603.553	12611.05
603.75	12625.39
603.946	12500.46
604.142	12381.68
604.338	12379.63
604.534	12496.36
604.73	12496.36
604.926	12422.64
605.122	12625.39
605.318	12477.93
605.514	12301.81
605.71	12049.91
605.906	12228.08
606.102	12174.83
606.298	12410.35
606.494	12455.4
606.69	12258.8
606.886	12310
607.082	11984.37
607.278	12369.39
607.474	12242.42
607.67	12125.68
607.866	12068.34
608.062	12047.86
608.257	11996.66
608.453	12183.02
608.649	12056.05
608.845	11775.48
609.041	11998.71
609.236	12160.5
609.432	12049.91
609.628	12266.99
609.824	12092.91
610.019	11638.27
610.215	12035.57
610.411	11953.65
610.606	12078.58
610.802	12076.53
610.998	11818.49
611.193	11881.97
611.389	11777.53
611.584	11904.5
611.78	11578.87
611.976	11795.96
612.171	11732.47
612.367	11527.67
612.562	11791.86
612.758	11718.14
612.953	11392.51
613.149	11744.76
613.344	11718.14
613.539	11652.6
613.735	11716.09
613.93	11640.31
614.126	11394.56
614.321	11711.99
614.517	11642.36
614.712	11529.72
614.907	11466.24
615.103	11599.35
615.298	11345.41
615.493	11728.38
615.688	11310.59
615.884	11771.38
616.079	11204.1
616.274	11484.67
616.47	11548.15
616.665	11347.45
616.86	11197.95
617.055	11191.81
617.25	11228.67
617.445	11527.67
617.641	11197.95
617.836	11154.94
618.031	10980.87
618.226	11261.44
618.421	11111.94
618.616	11390.46
618.811	11044.35
619.006	11079.17
619.201	10864.13
619.396	11169.28
619.591	10810.89
619.786	10923.52
619.981	10792.45
620.176	11015.68
620.371	10821.13
620.566	10702.34
620.761	10657.29
620.956	10821.13
621.151	10716.68
621.346	10716.68
621.541	10552.84
621.735	10790.41
621.93	10487.31
622.125	10462.73
622.32	10264.08
622.515	10507.79
622.709	10401.29
622.904	10237.45
623.099	10317.33
623.294	10276.37
623.488	10194.45
623.683	10124.82
623.878	9850.39
624.072	10229.26
624.267	9924.12
624.462	9930.26
624.656	9872.92
624.851	9930.26
625.046	9817.62
625.24	9913.88
625.435	9735.7
625.629	9672.22
625.824	9727.51
626.018	9631.26
626.213	9430.55
626.407	9403.93
626.602	9457.18
626.796	9502.23
626.991	9455.13
627.185	9238.05
627.38	9203.23
627.574	9084.45
627.768	9213.47
627.963	9092.64
628.157	8855.08
628.352	8896.03
628.546	9000.48
628.74	9258.53
628.935	8885.8
629.129	8955.43
629.323	8726.05
629.517	8840.74
629.712	8793.64
629.906	8838.69
630.1	8619.56
630.294	8642.09
630.489	8502.82
630.683	8664.61
630.877	8597.03
631.071	8406.57
631.265	8474.15
631.459	8404.52
631.653	8343.08
631.848	8347.18
632.042	8212.01
632.236	8328.75
632.43	8009.26
632.624	8187.44
632.818	8095.28
633.012	8169.01
633.206	7976.5
633.4	8078.9
633.594	7925.3
633.788	8042.03
633.982	8015.41
634.176	7953.97
634.369	7904.82
634.563	7884.34
634.757	7743.03
634.951	7714.36
635.145	7712.31
635.339	7730.74
635.533	7681.59
635.726	7753.27
635.92	7413.31
636.114	7802.42
636.308	7388.73
636.501	7355.96
636.695	7421.5
636.889	7251.52
637.083	7196.22
637.276	7323.19
637.47	7091.77
637.664	7142.97
637.857	7190.08
638.051	7253.56
638.244	7020.1
638.438	7237.18
638.632	7079.49
638.825	6956.61
639.019	6972.99
639.212	6727.24
639.406	7042.62
639.599	6807.11
639.793	6680.13
639.986	6739.52
640.18	6800.96
640.373	6735.43
640.567	6714.95
640.76	6547.01
640.954	6583.88
641.147	6610.5
641.34	6551.11
641.534	6559.3
641.727	6536.77
641.92	6162
642.114	6399.56
642.307	6299.21
642.5	6231.63
642.694	6090.32
642.887	6209.1
643.08	6256.2
643.273	6272.59
643.467	6182.48
643.66	6018.64
643.853	6004.3
644.046	6022.73
644.239	6166.09
644.432	5877.33
644.626	5854.8
644.819	5928.53
645.012	5934.67
645.205	5846.61
645.398	5883.47
645.591	5801.55
645.784	5725.78
645.977	5539.41
646.17	5596.76
646.363	5652.05
646.556	5686.87
646.749	5772.88
646.942	5377.62
647.135	5459.54
647.328	5365.34
647.521	5494.36
647.714	5404.25
647.907	5357.14
648.099	5217.88
648.292	5391.96
648.485	5332.57
648.678	5174.88
648.871	5070.43
649.064	5277.27
649.256	5160.54
649.449	5256.79
649.642	5109.34
649.835	5011.04
650.027	4910.69
650.22	5228.12
650.413	4982.37
650.605	5021.28
650.798	4996.7
650.991	4943.46
651.183	4976.22
651.376	4974.17
651.568	4974.17
651.761	4886.11
651.954	4789.86
652.146	4793.95
652.339	4904.54
652.531	4830.82
652.724	4689.51
652.916	4664.93
653.109	4523.62
653.301	4650.6
653.494	4843.1
653.686	4580.96
653.879	4613.73
654.071	4580.96
654.263	4490.85
654.456	4402.79
654.648	4558.44
654.84	4486.76
655.033	4453.99
655.225	4509.29
655.417	4339.3
655.61	4376.17
655.802	4327.02
655.994	4288.11
656.186	4245.1
656.379	4406.89
656.571	4302.44
656.763	4253.29
656.955	4349.54
657.148	4277.87
657.34	4154.99
657.532	4015.73
657.724	4071.02
657.916	4210.28
658.108	4109.93
658.3	4062.83
658.492	4097.64
658.684	3958.38
658.876	3964.53
659.068	3966.57
659.26	4015.73
659.452	3784.3
659.644	3911.28
659.836	3880.56
660.028	3909.23
660.22	3778.16
660.412	3931.76
660.604	3628.66
660.796	3786.35
660.988	3757.68
661.18	3735.15
661.372	3800.69
661.563	3769.97
661.755	3804.78
661.947	3569.27
662.139	3567.22
662.331	3636.85
662.522	3612.28
662.714	3518.07
662.906	3530.36
663.097	3602.04
663.289	3559.03
663.481	3432.05
663.673	3597.94
663.864	3481.21
664.056	3440.25
664.247	3415.67
664.439	3409.53
664.631	3608.18
664.822	3374.71
665.014	3387
665.205	3296.89
665.397	3374.71
665.588	3434.1
665.78	3356.28
665.971	3243.64
666.163	3346.04
666.354	3294.84
666.546	3208.83
666.737	3192.44
666.929	3081.85
667.12	3149.43
667.311	3309.18
667.503	3217.02
667.694	3280.5
667.885	3118.72
668.077	3096.19
668.268	3085.95
668.459	3161.72
668.651	3104.38
668.842	3169.91
669.033	3028.6
669.224	3071.61
669.416	3174.01
669.607	3024.51
669.798	2989.69
669.989	3083.9
670.18	2858.62
670.371	3126.91
670.563	2975.36
670.754	3014.27
670.945	3075.71
671.136	3024.51
671.327	2866.81
671.518	2985.6
671.709	3042.94
671.9	3016.32
672.091	3008.12
672.282	2848.38
672.473	2930.3
672.664	2813.57
672.855	2942.59
673.046	2860.67
673.237	2961.02
673.428	2932.35
673.619	2758.27
673.809	2848.38
674	2840.19
674.191	2899.58
674.382	2735.74
674.573	2739.84
674.764	2756.22
674.954	2809.47
675.145	2750.08
675.336	2791.04
675.527	2793.09
675.717	2758.27
675.908	2588.29
676.099	2643.59
676.289	2702.98
676.48	2598.53
676.671	2629.25
676.861	2662.02
677.052	2637.44
677.243	2678.4
677.433	2625.15
677.624	2735.74
677.814	2672.26
678.005	2635.39
678.195	2741.89
678.386	2672.26
678.576	2682.5
678.767	2682.5
678.957	2653.83
679.148	2766.46
679.338	2705.03
679.529	2696.83
679.719	2547.33
679.909	2752.13
680.1	2778.75
680.29	2569.86
680.481	2662.02
680.671	2639.49
680.861	2576
681.052	2616.96
681.242	2573.96
681.432	2549.38
681.622	2543.24
681.813	2457.22
682.003	2508.42
682.193	2533
682.383	2686.59
682.573	2551.43
682.764	2533
682.954	2469.51
683.144	2686.59
683.334	2442.89
683.524	2504.32
683.714	2541.19
683.904	2602.63
684.094	2356.87
684.284	2358.92
684.474	2625.15
684.664	2506.37
684.854	2551.43
685.044	2553.48
685.234	2498.18
685.424	2649.73
685.614	2434.69
685.804	2463.37
685.994	2479.75
686.184	2555.52
686.374	2311.82
686.564	2397.83
686.753	2459.27
686.943	2303.62
687.133	2401.93
687.323	2430.6
687.513	2379.4
687.702	2389.64
687.892	2293.38
688.082	2453.13
688.272	2348.68
688.461	2471.56
688.651	2440.84
688.841	2399.88
689.03	2449.03
689.22	2369.16
689.41	2309.77
689.599	2360.97
689.789	2317.96
689.979	2297.48
690.168	2324.1
690.358	2344.58
690.547	2297.48
690.737	2266.76
690.926	2381.45
691.116	2170.51
691.305	2274.95
691.495	2233.99
691.684	2252.42
691.874	2287.24
692.063	2258.57
692.252	2287.24
692.442	2250.38
692.631	2207.37
692.82	2238.09
693.01	2248.33
693.199	2186.89
693.388	2291.34
693.578	2190.99
693.767	2184.84
693.956	2205.32
694.146	2172.55
694.335	2293.38
694.524	2217.61
694.713	2315.91
694.902	2172.55
695.092	2186.89
695.281	2104.97
695.47	2135.69
695.659	2123.4
695.848	2094.73
696.037	2209.42
696.226	2215.56
696.415	2301.58
696.604	2240.14
696.793	2303.62
696.982	2217.61
697.171	2344.58
697.36	2340.49
697.549	2326.15
697.738	2223.75
697.927	2317.96
698.116	2162.31
698.305	2197.13
698.494	2201.23
698.683	2299.53
698.872	2412.17
699.061	2281.1
699.25	2268.81
699.438	2274.95
699.627	2301.58
699.816	2461.32
700.005	2219.66
700.193	2274.95
700.382	2383.49
700.571	2250.38
700.76	2338.44
700.948	2356.87
701.137	2358.92
701.326	2363.01
701.514	2346.63
701.703	2363.01
701.892	2326.15
702.08	2436.74
702.269	2309.77
702.457	2401.93
702.646	2387.59
702.834	2446.98
703.023	2467.46
703.212	2320.01
703.4	2444.93
703.589	2227.85
703.777	2352.77
703.965	2307.72
704.154	2457.22
704.342	2406.02
704.531	2504.32
704.719	2510.47
704.907	2461.32
705.096	2498.18
705.284	2381.45
705.472	2420.36
705.661	2442.89
705.849	2473.6
706.037	2514.56
706.226	2426.5
706.414	2346.63
706.602	2332.3
706.79	2547.33
706.979	2346.63
707.167	2571.91
707.355	2395.78
707.543	2387.59
707.731	2610.82
707.919	2541.19
708.107	2467.46
708.296	2457.22
708.484	2623.11
708.672	2438.79
708.86	2537.09
709.048	2449.03
709.236	2313.86
709.424	2485.89
709.612	2516.61
709.8	2537.09
709.988	2469.51
710.176	2471.56
710.364	2438.79
710.551	2479.75
710.739	2516.61
710.927	2520.71
711.115	2639.49
711.303	2606.72
711.491	2559.62
711.679	2444.93
711.866	2688.64
712.054	2533
712.242	2449.03
712.43	2555.52
712.617	2573.96
712.805	2516.61
712.993	2463.37
713.181	2471.56
713.368	2608.77
713.556	2559.62
713.744	2426.5
713.931	2639.49
714.119	2614.91
714.306	2604.67
714.494	2487.94
714.682	2563.72
714.869	2481.8
715.057	2518.66
715.244	2504.32
715.432	2541.19
715.619	2559.62
715.807	2553.48
715.994	2619.01
716.182	2586.24
716.369	2586.24
716.556	2713.22
716.744	2537.09
716.931	2623.11
717.119	2614.91
717.306	2436.74
717.493	2418.31
717.681	2528.9
717.868	2477.7
718.055	2608.77
718.242	2518.66
718.43	2627.2
718.617	2510.47
718.804	2573.96
718.991	2606.72
719.179	2692.74
719.366	2473.6
719.553	2541.19
719.74	2477.7
719.927	2576
720.114	2539.14
720.301	2465.41
720.488	2596.48
720.676	2571.91
720.863	2619.01
721.05	2590.34
721.237	2508.42
721.424	2584.2
721.611	2551.43
721.798	2573.96
721.985	2510.47
722.172	2528.9
722.358	2514.56
722.545	2557.57
722.732	2541.19
722.919	2604.67
723.106	2520.71
723.293	2535.04
723.48	2606.72
723.667	2598.53
723.853	2692.74
724.04	2522.76
724.227	2637.44
724.414	2573.96
724.6	2543.24
724.787	2608.77
724.974	2616.96
725.161	2487.94
725.347	2586.24
725.534	2561.67
725.72	2500.23
725.907	2539.14
726.094	2612.87
726.28	2592.39
726.467	2588.29
726.653	2459.27
726.84	2571.91
727.027	2526.85
727.213	2598.53
727.4	2514.56
727.586	2533
727.773	2514.56
727.959	2569.86
728.145	2500.23
728.332	2547.33
728.518	2514.56
728.705	2651.78
728.891	2510.47
729.077	2479.75
729.264	2449.03
729.45	2614.91
729.636	2596.48
729.823	2393.73
730.009	2573.96
730.195	2510.47
730.382	2569.86
730.568	2381.45
730.754	2553.48
730.94	2580.1
731.126	2578.05
731.313	2477.7
731.499	2492.04
731.685	2475.65
731.871	2563.72
732.057	2422.41
732.243	2473.6
732.429	2512.52
732.615	2496.13
732.801	2477.7
732.987	2496.13
733.173	2444.93
733.359	2504.32
733.545	2350.73
733.731	2277
733.917	2444.93
734.103	2299.53
734.289	2418.31
734.475	2373.25
734.661	2619.01
734.847	2381.45
735.033	2428.55
735.219	2469.51
735.404	2481.8
735.59	2457.22
735.776	2379.4
735.962	2451.08
736.148	2500.23
736.333	2481.8
736.519	2373.25
736.705	2432.65
736.89	2317.96
737.076	2363.01
737.262	2381.45
737.447	2303.62
737.633	2315.91
737.819	2346.63
738.004	2217.61
738.19	2348.68
738.375	2358.92
738.561	2313.86
738.747	2326.15
738.932	2340.49
739.118	2401.93
739.303	2164.36
739.489	2367.11
739.674	2254.47
739.859	2338.44
740.045	2307.72
740.23	2215.56
740.416	2182.79
740.601	2256.52
740.786	2244.23
740.972	2055.82
741.157	2186.89
741.342	2064.01
741.528	2225.8
741.713	2195.08
741.898	2092.68
742.084	2113.16
742.269	2293.38
742.454	2096.78
742.639	2143.88
742.824	2109.07
743.01	2080.39
743.195	2174.6
743.38	2023.05
743.565	1975.95
743.75	2129.55
743.935	2033.29
744.12	2074.25
744.305	1980.04
744.49	2078.35
744.675	1984.14
744.86	1969.8
745.045	1961.61
745.23	1953.42
745.415	2031.24
745.6	1963.66
745.785	2006.67
745.97	1953.42
746.155	1908.37
746.34	2037.39
746.525	1896.08
746.71	1990.28
746.895	1885.84
747.079	1953.42
747.264	1969.8
747.449	1875.6
747.634	1830.54
747.819	1904.27
748.003	1853.07
748.188	1775.25
748.373	1879.69
748.557	1816.21
748.742	1681.04
748.927	1783.44
749.111	1828.49
749.296	1744.53
749.481	1797.78
749.665	1726.1
749.85	1818.25
750.034	1791.63
750.219	1689.23
750.404	1769.1
750.588	1787.54
750.773	1592.98
750.957	1615.51
751.141	1736.34
751.326	1697.42
751.51	1607.31
751.695	1621.65
751.879	1709.71
752.064	1681.04
752.248	1592.98
752.432	1607.31
752.617	1615.51
752.801	1582.74
752.985	1578.64
753.17	1560.21
753.354	1525.4
753.538	1574.55
753.722	1523.35
753.907	1416.85
754.091	1443.48
754.275	1478.29
754.459	1480.34
754.643	1388.18
754.828	1377.94
755.012	1478.29
755.196	1287.83
755.38	1355.41
755.564	1394.33
755.748	1476.24
755.932	1459.86
756.116	1355.41
756.3	1347.22
756.484	1357.46
756.668	1244.82
756.852	1328.79
757.036	1353.37
757.22	1353.37
757.404	1248.92
757.588	1195.67
757.772	1285.78
757.956	1201.82
758.14	1373.85
758.323	1277.59
758.507	1296.02
758.691	1261.21
758.875	1273.5
759.059	1242.78
759.242	1154.71
759.426	1212.06
759.61	1191.58
759.794	1085.08
759.977	1240.73
760.161	1384.09
760.345	1224.34
760.528	1226.39
760.712	1207.96
760.895	1103.51
761.079	1187.48
761.263	1074.84
761.446	1130.14
761.63	1150.62
761.813	1218.2
761.997	1066.65
762.18	1134.23
762.364	1197.72
762.547	966.3
762.731	1173.14
762.914	1056.41
763.098	1033.88
763.281	1052.31
763.464	1050.27
763.648	1101.47
763.831	1078.94
764.015	1083.03
764.198	1179.29
764.381	1121.95
764.564	1048.22
764.748	974.49
764.931	1107.61
765.114	1121.95
765.297	1027.74
765.481	1052.31
765.664	1007.26
765.847	1056.41
766.03	1029.79
766.213	994.97
766.397	958.11
766.58	1023.64
766.763	992.92
766.946	894.62
767.129	947.87
767.312	970.4
767.495	1021.6
767.678	984.73
767.861	962.2
768.044	1005.21
768.227	935.58
768.41	917.15
768.593	974.49
768.776	1035.93
768.959	902.81
769.142	1042.07
769.324	1009.31
769.507	913.05
769.69	814.75
769.873	925.34
770.056	1003.16
770.239	886.43
770.421	1009.31
770.604	929.44
770.787	986.78
770.97	818.85
771.152	812.7
771.335	814.75
771.518	863.9
771.7	982.68
771.883	999.07
772.066	853.66
772.248	931.48
772.431	956.06
772.613	876.19
772.796	880.29
772.978	927.39
773.161	906.91
773.343	902.81
773.526	790.17
773.708	839.33
773.891	790.17
774.073	870.05
774.256	741.02
774.438	796.32
774.621	784.03
774.803	814.75
774.985	800.41
775.168	833.18
775.35	753.31
775.532	749.22
775.715	728.74
775.897	835.23
776.079	777.89
776.261	827.04
776.444	704.16
776.626	775.84
776.808	695.97
776.99	716.45
777.173	695.97
777.355	689.82
777.537	777.89
777.719	798.37
777.901	753.31
778.083	677.54
778.265	675.49
778.447	743.07
778.629	726.69
778.811	689.82
778.993	708.26
779.175	689.82
779.357	685.73
779.539	618.15
779.721	687.78
779.903	644.77
780.085	624.29
780.267	595.62
780.449	560.8
780.631	628.39
780.812	663.2
780.994	687.78
781.176	601.76
781.358	599.71
781.54	638.62
781.721	556.71
781.903	521.89
782.085	534.18
782.267	632.48
782.448	583.33
782.63	579.23
782.812	554.66
782.993	573.09
783.175	519.84
783.357	505.51
783.538	538.27
783.72	446.12
783.901	548.51
784.083	511.65
784.264	632.48
784.446	419.49
784.627	476.84
784.809	472.74
784.99	493.22
785.172	509.6
785.353	489.12
785.535	525.99
785.716	472.74
785.897	499.36
786.079	528.03
786.26	501.41
786.441	474.79
786.623	427.68
786.804	433.83
786.985	528.03
787.167	497.32
787.348	411.3
787.529	501.41
787.71	476.84
787.891	468.64
788.073	472.74
788.254	429.73
788.435	505.51
788.616	415.4
788.797	409.25
788.978	421.54
789.159	452.26
789.34	452.26
789.522	442.02
789.703	386.72
789.884	409.25
790.065	452.26
790.246	517.79
790.427	317.09
790.607	444.07
790.788	413.35
790.969	366.25
791.15	460.45
791.331	364.2
791.512	317.09
791.693	396.96
791.874	265.89
792.054	472.74
792.235	378.53
792.416	360.1
792.597	290.47
792.778	353.96
792.958	339.62
793.139	362.15
793.32	360.1
793.5	341.67
793.681	411.3
793.862	284.33
794.042	372.39
794.223	276.13
794.404	274.09
794.584	349.86
794.765	331.43
794.945	329.38
795.126	315.05
795.306	229.03
795.487	331.43
795.667	308.9
795.848	323.24
796.028	308.9
796.209	274.09
796.389	331.43
796.57	358.05
796.75	265.89
796.93	292.52
797.111	290.47
797.291	276.13
797.471	333.48
797.652	253.61
797.832	267.94
798.012	255.65
798.192	243.37
798.373	190.12
798.553	306.85
798.733	327.33
798.913	179.88
799.093	229.03
799.274	335.53
799.454	313
799.634	335.53
799.814	278.18
799.994	272.04
800.174	239.27
800.354	222.89
800.534	210.6
800.714	272.04
800.894	208.55
801.074	226.98
801.254	210.6
801.434	335.53
801.614	298.66
801.794	196.26
801.974	1214.1
802.154	222.89
802.334	245.41
802.514	202.41
802.693	233.13
802.873	233.13
803.053	243.37
803.233	284.33
803.413	280.23
803.592	216.74
803.772	186.02
803.952	188.07
804.131	173.74
804.311	263.85
804.491	255.65
804.67	208.55
804.85	118.44
805.03	194.22
805.209	255.65
805.389	165.54
805.568	143.02
805.748	161.45
805.928	253.61
806.107	243.37
806.287	194.22
806.466	216.74
806.646	214.7
806.825	128.68
807.004	118.44
807.184	208.55
807.363	212.65
807.543	200.36
807.722	159.4
807.901	290.47
808.081	218.79
808.26	57
808.439	136.87
808.619	186.02
808.798	200.36
808.977	220.84
809.156	173.74
809.336	216.74
809.515	210.6
809.694	134.82
809.873	181.93
810.052	210.6
810.231	175.78
810.411	181.93
810.59	282.28
810.769	151.21
810.948	216.74
811.127	104.11
811.306	118.44
811.485	163.5
811.664	224.94
811.843	194.22
812.022	126.63
812.201	132.78
812.38	181.93
812.559	93.87
812.737	200.36
812.916	100.01
813.095	54.95
813.274	159.4
813.453	196.26
813.632	102.06
813.811	216.74
813.989	67.24
814.168	222.89
814.347	77.48
814.526	140.97
814.704	235.18
814.883	151.21
815.062	83.63
815.24	136.87
815.419	181.93
815.598	59.05
815.776	77.48
815.955	216.74
816.133	54.95
816.312	149.16
816.49	124.58
816.669	114.34
816.847	165.54
817.026	181.93
817.204	128.68
817.383	181.93
817.561	128.68
817.74	122.54
817.918	138.92
818.097	71.34
818.275	124.58
818.453	112.3
818.632	136.87
818.81	118.44
818.988	100.01
819.167	136.87
819.345	175.78
819.523	95.91
819.701	179.88
819.879	140.97
820.058	186.02
820.236	67.24
820.414	122.54
820.592	102.06
820.77	59.05
820.948	93.87
821.127	34.47
821.305	161.45
821.483	130.73
821.661	147.11
821.839	102.06
822.017	97.96
822.195	102.06
822.373	91.82
822.551	59.05
822.729	198.31
822.907	100.01
823.085	151.21
823.262	143.02
823.44	48.81
823.618	124.58
823.796	44.71
823.974	91.82
824.152	140.97
824.329	112.3
824.507	89.77
824.685	165.54
824.863	87.72
825.04	38.57
825.218	179.88
825.396	138.92
825.574	18.09
825.751	81.58
825.929	104.11
826.107	73.39
826.284	89.77
826.462	95.91
826.639	65.19
826.817	36.52
826.994	52.91
827.172	7.85
827.349	169.64
827.527	67.24
827.704	100.01
827.882	104.11
828.059	93.87
828.237	134.82
828.414	73.39
828.591	97.96
828.769	151.21
828.946	40.62
829.124	165.54
829.301	91.82
829.478	13.99
829.655	44.71
829.833	124.58
830.01	7.85
830.187	128.68
830.364	67.24
830.542	114.34
830.719	134.82
830.896	116.39
831.073	110.25
831.25	134.82
831.427	57
831.604	54.95
831.782	42.67
831.959	114.34
832.136	87.72
832.313	67.24
832.49	69.29
832.667	77.48
832.844	-29.01
833.021	28.33
833.198	-18.77
833.374	116.39
833.551	63.15
833.728	81.58
833.905	151.21
834.082	9.9
834.259	149.16
834.436	134.82
834.612	11.95
834.789	143.02
834.966	-35.16
835.143	128.68
835.319	46.76
835.496	149.16
835.673	73.39
835.85	28.33
836.026	71.34
836.203	132.78
836.38	36.52
836.556	134.82
836.733	9.9
836.909	110.25
837.086	130.73
837.262	46.76
837.439	97.96
837.616	104.11
837.792	67.24
837.968	36.52
838.145	-20.82
838.321	40.62
838.498	130.73
838.674	91.82
838.851	67.24
839.027	36.52
839.203	50.86
839.38	91.82
839.556	3.75
839.732	73.39
839.909	11.95
840.085	42.67
840.261	48.81
840.437	59.05
840.614	9.9
840.79	48.81
840.966	77.48
841.142	79.53
841.318	48.81
841.494	-20.82
841.671	85.67
841.847	46.76
842.023	22.19
842.199	69.29
842.375	108.2
842.551	-72.02
842.727	-6.49
842.903	85.67
843.079	-10.58
843.255	136.87
843.431	95.91
843.607	16.04
843.783	-0.34
843.959	97.96
844.134	-14.68
844.31	75.43
844.486	36.52
844.662	77.48
844.838	50.86
845.013	81.58
845.189	124.58
845.365	38.57
845.541	20.14
845.716	11.95
845.892	106.15
846.068	30.38
846.244	44.71
846.419	61.1
846.595	30.38
846.77	-14.68
846.946	63.15
847.122	-45.4
847.297	-41.3
847.473	65.19
847.648	3.75
847.824	11.95
847.999	65.19
848.175	87.72
848.35	24.23
848.526	65.19
848.701	79.53
848.876	93.87
849.052	73.39
849.227	5.8
849.403	-82.26
849.578	1.71
849.753	24.23
849.929	57
850.104	-4.44
850.279	73.39
850.454	22.19
850.63	91.82
850.805	-2.39
850.98	28.33
851.155	75.43
851.33	140.97
851.505	-67.92
851.681	57
851.856	16.04
852.031	75.43
852.206	22.19
852.381	46.76
852.556	50.86
852.731	-6.49
852.906	40.62
853.081	120.49
853.256	20.14
853.431	30.38
853.606	40.62
853.781	-2.39
853.956	18.09
854.131	13.99
854.305	5.8
854.48	34.47
854.655	-2.39
854.83	-31.06
855.005	-24.92
855.18	50.86
855.354	7.85
855.529	38.57
855.704	34.47
855.879	106.15
856.053	-24.92
856.228	97.96
856.403	-29.01
856.577	136.87
856.752	-53.59
856.926	34.47
857.101	-12.63
857.276	5.8
857.45	5.8
857.625	52.91
857.799	30.38
857.974	-63.83
858.148	-4.44
858.323	20.14
858.497	13.99
858.672	-18.77
858.846	18.09
859.02	83.63
859.195	-29.01
859.369	100.01
859.543	-51.54
859.718	11.95
859.892	-2.39
860.066	100.01
860.241	-35.16
860.415	36.52
860.589	52.91
860.763	9.9
860.938	-37.2
861.112	40.62
861.286	-4.44
861.46	34.47
861.634	-2.39
861.808	85.67
861.982	16.04
862.157	-6.49
862.331	26.28
862.505	-78.16
862.679	-22.87
862.853	-8.53
863.027	-8.53
863.201	67.24
863.375	-29.01
863.549	44.71
863.722	-55.64
863.896	30.38
864.07	-6.49
864.244	-55.64
864.418	79.53
864.592	22.19
864.766	1.71
864.939	-10.58
865.113	-47.44
865.287	69.29
865.461	-51.54
865.634	57
865.808	11.95
865.982	20.14
866.156	-55.64
866.329	-57.68
866.503	16.04
866.676	59.05
866.85	85.67
867.024	-8.53
867.197	65.19
867.371	36.52
867.544	24.23
867.718	18.09
867.891	16.04
868.065	-0.34
868.238	34.47
868.412	34.47
868.585	54.95
868.759	-72.02
868.932	48.81
869.105	-31.06
869.279	3.75
869.452	-37.2
869.625	26.28
869.799	3.75
869.972	-49.49
870.145	-12.63
870.319	50.86
870.492	-35.16
870.665	9.9
870.838	-49.49
871.011	-41.3
871.185	-35.16
871.358	-31.06
871.531	-24.92
871.704	-53.59
871.877	-24.92
872.05	-14.68
872.223	-26.96
872.396	5.8
872.569	118.44
872.742	-16.73
872.915	16.04
873.088	-43.35
873.261	-45.4
873.434	-0.34
873.607	-49.49
873.78	93.87
873.953	3.75
874.126	11.95
874.299	100.01
874.471	67.24
874.644	-51.54
874.817	5.8
874.99	5.8
875.163	-69.97
875.335	63.15
875.508	1.71
875.681	79.53
875.853	-104.79
876.026	18.09
876.199	20.14
876.371	85.67
876.544	26.28
876.717	28.33
876.889	-55.64
877.062	1.71
877.234	-80.21
877.407	-16.73
877.579	-63.83
877.752	7.85
877.924	95.91
878.097	3.75
878.269	16.04
878.442	42.67
878.614	52.91
878.786	24.23
878.959	-0.34
879.131	-22.87
879.303	-88.4
879.476	-41.3
879.648	20.14
879.82	13.99
879.993	-8.53
880.165	30.38
880.337	-76.12
880.509	7.85
880.681	-67.92
880.854	-20.82
881.026	28.33
881.198	136.87
881.37	32.43
881.542	-35.16
881.714	50.86
881.886	-61.78
882.058	1.71
882.23	-49.49
882.402	5.8
882.574	28.33
882.746	32.43
882.918	38.57
883.09	-8.53
883.262	16.04
883.434	22.19
883.606	-47.44
883.778	36.52
883.95	34.47
884.122	1.71
884.293	32.43
884.465	65.19
884.637	-12.63
884.809	-63.83
884.98	-26.96
885.152	50.86
885.324	18.09
885.496	-26.96
885.667	-78.16
885.839	-26.96
886.011	48.81
886.182	5.8
886.354	65.19
886.525	52.91
886.697	89.77
886.869	-65.88
887.04	-16.73
887.212	-39.25
887.383	85.67
887.555	-47.44
887.726	-16.73
887.897	7.85
888.069	-24.92
888.24	93.87
888.412	83.63
888.583	-45.4
888.754	-6.49
888.926	-20.82
889.097	-31.06
889.268	9.9
889.44	-76.12
889.611	-33.11
889.782	-45.4
889.953	-55.64
890.125	-51.54
890.296	-8.53
890.467	-20.82
890.638	-12.63
890.809	30.38
890.98	-47.44
891.151	30.38
891.323	102.06
891.494	36.52
891.665	-18.77
891.836	-39.25
892.007	-37.2
892.178	42.67
892.349	5.8
892.52	-51.54
892.691	1.71
892.862	7.85
893.032	-76.12
893.203	28.33
893.374	-10.58
893.545	95.91
893.716	-26.96
893.887	28.33
894.057	-51.54
894.228	77.48
894.399	-29.01
894.57	18.09
894.74	32.43
894.911	-80.21
895.082	-78.16
895.253	-4.44
895.423	7.85
895.594	28.33
895.764	75.43
895.935	-4.44
896.106	-51.54
896.276	-61.78
896.447	-20.82
896.617	-35.16
896.788	-47.44
896.958	13.99
897.129	-26.96
897.299	-14.68
897.47	87.72
897.64	34.47
897.81	-139.6
897.981	38.57
898.151	-26.96
898.322	28.33
898.492	-24.92
898.662	-100.69
898.832	-61.78
899.003	-82.26
899.173	20.14
899.343	-26.96
899.513	-39.25
