Data from USB4F104151__41__12-12-03-157.txt Node

Date: Fri Mar 14 12:12:03 EDT 2025
User: louis
Spectrometer: USB4F10415
Trigger mode: 4
Integration Time (sec): 5.000000E-2
Scans to average: 1
Electric dark correction enabled: true
Nonlinearity correction enabled: false
Boxcar width: 0
XAxis mode: Wavelengths
Number of Pixels in Spectrum: 3648
>>>>>Begin Spectral Data<<<<<
178.204	-283.13
178.424	-283.13
178.644	-283.13
178.864	-262.65
179.084	-287.23
179.304	-27.14
179.524	50.69
179.744	-27.14
179.964	95.74
180.184	-66.05
180.404	42.5
180.624	28.16
180.844	5.63
181.064	-121.34
181.283	-20.99
181.503	36.35
181.723	3.58
181.943	-37.38
182.163	130.56
182.383	69.12
182.602	38.4
182.822	22.02
183.042	9.73
183.262	-39.42
183.482	73.21
183.701	9.73
183.921	9.73
184.141	50.69
184.361	83.45
184.58	42.5
184.8	50.69
185.02	56.83
185.239	99.84
185.459	79.36
185.679	103.93
185.898	-35.33
186.118	130.56
186.338	30.21
186.557	42.5
186.777	42.5
186.997	5.63
187.216	19.97
187.436	116.22
187.655	46.59
187.875	108.03
188.095	73.21
188.314	36.35
188.534	142.85
188.753	40.45
188.973	34.3
189.192	136.7
189.412	1.54
189.631	30.21
189.851	22.02
190.07	122.37
190.29	-39.42
190.509	3.58
190.729	19.97
190.948	73.21
191.168	241.15
191.387	108.03
191.607	52.74
191.826	5.63
192.045	69.12
192.265	91.65
192.484	58.88
192.704	-16.9
192.923	-53.76
193.142	134.65
193.362	-18.94
193.581	110.08
193.8	134.65
194.02	99.84
194.239	54.78
194.458	58.88
194.678	54.78
194.897	-23.04
195.116	-4.61
195.335	81.41
195.555	87.55
195.774	60.93
195.993	65.02
196.212	9.73
196.432	83.45
196.651	48.64
196.87	56.83
197.089	58.88
197.308	89.6
197.528	34.3
197.747	-70.14
197.966	17.92
198.185	95.74
198.404	-41.47
198.623	38.4
198.842	101.89
199.062	48.64
199.281	142.85
199.5	42.5
199.719	105.98
199.938	-0.51
200.157	116.22
200.376	11.78
200.595	30.21
200.814	46.59
201.033	40.45
201.252	81.41
201.471	60.93
201.69	165.37
201.909	24.06
202.128	24.06
202.347	38.4
202.566	13.82
202.785	3.58
203.004	-29.18
203.223	124.41
203.442	83.45
203.661	-51.71
203.879	24.06
204.098	73.21
204.317	54.78
204.536	112.13
204.755	-2.56
204.974	56.83
205.193	83.45
205.411	142.85
205.63	75.26
205.849	54.78
206.068	40.45
206.287	75.26
206.505	71.17
206.724	73.21
206.943	-20.99
207.162	-37.38
207.381	112.13
207.599	28.16
207.818	54.78
208.037	34.3
208.255	79.36
208.474	52.74
208.693	142.85
208.911	-18.94
209.13	101.89
209.349	40.45
209.567	28.16
209.786	105.98
210.005	75.26
210.223	44.54
210.442	-16.9
210.661	-6.66
210.879	54.78
211.098	-12.8
211.316	46.59
211.535	103.93
211.753	54.78
211.972	52.74
212.191	83.45
212.409	60.93
212.628	87.55
212.846	-10.75
213.065	40.45
213.283	52.74
213.502	15.87
213.72	97.79
213.938	3.58
214.157	62.98
214.375	40.45
214.594	-43.52
214.812	112.13
215.031	34.3
215.249	3.58
215.467	83.45
215.686	-20.99
215.904	138.75
216.122	65.02
216.341	103.93
216.559	75.26
216.778	91.65
216.996	87.55
217.214	77.31
217.432	62.98
217.651	13.82
217.869	-14.85
218.087	85.5
218.306	52.74
218.524	46.59
218.742	67.07
218.96	19.97
219.179	3.58
219.397	101.89
219.615	42.5
219.833	91.65
220.051	-35.33
220.27	56.83
220.488	118.27
220.706	65.02
220.924	3.58
221.142	-49.66
221.36	44.54
221.578	38.4
221.796	83.45
222.015	26.11
222.233	91.65
222.451	136.7
222.669	83.45
222.887	60.93
223.105	75.26
223.323	67.07
223.541	-8.7
223.759	103.93
223.977	95.74
224.195	56.83
224.413	75.26
224.631	142.85
224.849	75.26
225.067	157.18
225.285	58.88
225.503	77.31
225.721	-45.57
225.939	44.54
226.157	36.35
226.375	208.38
226.592	87.55
226.81	65.02
227.028	124.41
227.246	112.13
227.464	71.17
227.682	122.37
227.9	58.88
228.117	103.93
228.335	1.54
228.553	28.16
228.771	71.17
228.989	69.12
229.206	122.37
229.424	38.4
229.642	26.11
229.86	-45.57
230.077	44.54
230.295	36.35
230.513	105.98
230.731	118.27
230.948	132.61
231.166	101.89
231.384	-4.61
231.601	54.78
231.819	108.03
232.037	28.16
232.254	-23.04
232.472	22.02
232.689	60.93
232.907	38.4
233.125	56.83
233.342	58.88
233.56	-25.09
233.777	1.54
233.995	62.98
234.213	171.52
234.43	81.41
234.648	-25.09
234.865	36.35
235.083	40.45
235.3	-18.94
235.518	126.46
235.735	50.69
235.953	105.98
236.17	73.21
236.388	42.5
236.605	93.69
236.822	108.03
237.04	75.26
237.257	-4.61
237.475	3.58
237.692	179.71
237.909	19.97
238.127	-68.09
238.344	134.65
238.562	46.59
238.779	48.64
238.996	9.73
239.214	69.12
239.431	67.07
239.648	11.78
239.865	44.54
240.083	85.5
240.3	42.5
240.517	11.78
240.735	15.87
240.952	175.61
241.169	103.93
241.386	50.69
241.603	58.88
241.821	-45.57
242.038	60.93
242.255	110.08
242.472	-57.86
242.689	77.31
242.907	62.98
243.124	73.21
243.341	9.73
243.558	5.63
243.775	-18.94
243.992	5.63
244.209	91.65
244.426	108.03
244.643	38.4
244.86	-2.56
245.078	83.45
245.295	50.69
245.512	-27.14
245.729	83.45
245.946	69.12
246.163	69.12
246.38	-0.51
246.597	32.26
246.814	112.13
247.031	-33.28
247.248	103.93
247.464	73.21
247.681	50.69
247.898	36.35
248.115	-2.56
248.332	-47.62
248.549	13.82
248.766	120.32
248.983	89.6
249.2	67.07
249.417	73.21
249.633	-37.38
249.85	108.03
250.067	-47.62
250.284	99.84
250.501	99.84
250.717	148.99
250.934	-20.99
251.151	19.97
251.368	44.54
251.585	73.21
251.801	91.65
252.018	38.4
252.235	105.98
252.451	69.12
252.668	54.78
252.885	126.46
253.102	79.36
253.318	32.26
253.535	17.92
253.752	73.21
253.968	87.55
254.185	7.68
254.401	30.21
254.618	58.88
254.835	95.74
255.051	65.02
255.268	79.36
255.484	105.98
255.701	62.98
255.917	136.7
256.134	-4.61
256.351	-33.28
256.567	75.26
256.784	15.87
257	11.78
257.217	67.07
257.433	108.03
257.65	58.88
257.866	79.36
258.082	-29.18
258.299	30.21
258.515	52.74
258.732	-33.28
258.948	-23.04
259.165	13.82
259.381	58.88
259.597	-0.51
259.814	97.79
260.03	60.93
260.246	7.68
260.463	46.59
260.679	142.85
260.895	40.45
261.112	77.31
261.328	40.45
261.544	26.11
261.761	110.08
261.977	-25.09
262.193	34.3
262.409	128.51
262.626	26.11
262.842	48.64
263.058	1.54
263.274	1.54
263.49	69.12
263.707	151.04
263.923	7.68
264.139	60.93
264.355	7.68
264.571	120.32
264.787	52.74
265.004	118.27
265.22	73.21
265.436	38.4
265.652	3.58
265.868	73.21
266.084	24.06
266.3	44.54
266.516	97.79
266.732	81.41
266.948	99.84
267.164	24.06
267.38	36.35
267.596	85.5
267.812	128.51
268.028	114.17
268.244	26.11
268.46	38.4
268.676	1.54
268.892	-2.56
269.108	58.88
269.324	-37.38
269.54	32.26
269.756	114.17
269.972	50.69
270.188	38.4
270.403	-53.76
270.619	32.26
270.835	71.17
271.051	-12.8
271.267	26.11
271.483	15.87
271.698	114.17
271.914	77.31
272.13	52.74
272.346	99.84
272.562	99.84
272.777	50.69
272.993	1.54
273.209	1.54
273.425	54.78
273.64	-29.18
273.856	77.31
274.072	28.16
274.287	-4.61
274.503	79.36
274.719	36.35
274.934	73.21
275.15	15.87
275.366	77.31
275.581	-61.95
275.797	58.88
276.012	38.4
276.228	-23.04
276.444	-0.51
276.659	120.32
276.875	32.26
277.09	44.54
277.306	-86.53
277.521	60.93
277.737	22.02
277.952	24.06
278.168	50.69
278.383	9.73
278.599	58.88
278.814	73.21
279.03	-25.09
279.245	11.78
279.461	97.79
279.676	110.08
279.892	50.69
280.107	58.88
280.322	17.92
280.538	69.12
280.753	36.35
280.969	11.78
281.184	62.98
281.399	62.98
281.615	75.26
281.83	17.92
282.045	3.58
282.26	42.5
282.476	-33.28
282.691	87.55
282.906	15.87
283.122	-4.61
283.337	42.5
283.552	67.07
283.767	79.36
283.983	128.51
284.198	97.79
284.413	85.5
284.628	3.58
284.843	26.11
285.058	52.74
285.274	56.83
285.489	1.54
285.704	62.98
285.919	48.64
286.134	60.93
286.349	9.73
286.564	17.92
286.779	97.79
286.995	-10.75
287.21	-61.95
287.425	-6.66
287.64	83.45
287.855	93.69
288.07	-41.47
288.285	130.56
288.5	50.69
288.715	77.31
288.93	36.35
289.145	-45.57
289.36	73.21
289.575	28.16
289.79	1.54
290.004	26.11
290.219	134.65
290.434	48.64
290.649	26.11
290.864	11.78
291.079	44.54
291.294	50.69
291.509	-6.66
291.724	-16.9
291.938	44.54
292.153	93.69
292.368	67.07
292.583	28.16
292.798	1.54
293.012	71.17
293.227	50.69
293.442	87.55
293.657	87.55
293.871	124.41
294.086	87.55
294.301	130.56
294.516	54.78
294.73	34.3
294.945	34.3
295.16	-14.85
295.374	77.31
295.589	77.31
295.804	-2.56
296.018	26.11
296.233	132.61
296.447	62.98
296.662	42.5
296.877	105.98
297.091	36.35
297.306	71.17
297.52	15.87
297.735	42.5
297.949	50.69
298.164	71.17
298.378	77.31
298.593	15.87
298.807	-23.04
299.022	-14.85
299.236	40.45
299.451	28.16
299.665	65.02
299.88	44.54
300.094	42.5
300.309	67.07
300.523	52.74
300.737	-4.61
300.952	65.02
301.166	58.88
301.381	69.12
301.595	22.02
301.809	79.36
302.024	60.93
302.238	11.78
302.452	132.61
302.667	73.21
302.881	26.11
303.095	101.89
303.309	105.98
303.524	42.5
303.738	52.74
303.952	87.55
304.166	65.02
304.381	42.5
304.595	73.21
304.809	11.78
305.023	32.26
305.237	7.68
305.452	122.37
305.666	77.31
305.88	-16.9
306.094	7.68
306.308	134.65
306.522	73.21
306.736	58.88
306.95	122.37
307.164	32.26
307.379	73.21
307.593	179.71
307.807	130.56
308.021	48.64
308.235	5.63
308.449	32.26
308.663	99.84
308.877	130.56
309.091	67.07
309.305	83.45
309.519	-2.56
309.733	77.31
309.947	24.06
310.161	97.79
310.374	85.5
310.588	65.02
310.802	48.64
311.016	24.06
311.23	50.69
311.444	-14.85
311.658	52.74
311.872	97.79
312.085	138.75
312.299	26.11
312.513	77.31
312.727	44.54
312.941	83.45
313.154	89.6
313.368	1.54
313.582	3.58
313.796	52.74
314.009	108.03
314.223	75.26
314.437	-4.61
314.651	99.84
314.864	11.78
315.078	40.45
315.292	-4.61
315.505	58.88
315.719	116.22
315.933	22.02
316.146	42.5
316.36	-8.7
316.573	87.55
316.787	87.55
317.001	95.74
317.214	40.45
317.428	48.64
317.641	9.73
317.855	71.17
318.068	56.83
318.282	112.13
318.495	85.5
318.709	97.79
318.922	87.55
319.136	97.79
319.349	71.17
319.563	52.74
319.776	48.64
319.99	9.73
320.203	81.41
320.417	79.36
320.63	89.6
320.843	114.17
321.057	83.45
321.27	140.8
321.483	75.26
321.697	148.99
321.91	95.74
322.124	105.98
322.337	28.16
322.55	42.5
322.763	120.32
322.977	24.06
323.19	36.35
323.403	155.13
323.617	17.92
323.83	112.13
324.043	99.84
324.256	81.41
324.469	-41.47
324.683	142.85
324.896	75.26
325.109	79.36
325.322	-43.52
325.535	120.32
325.748	99.84
325.962	9.73
326.175	67.07
326.388	112.13
326.601	157.18
326.814	32.26
327.027	110.08
327.24	79.36
327.453	-35.33
327.666	73.21
327.879	58.88
328.092	83.45
328.305	1.54
328.518	-27.14
328.731	19.97
328.944	83.45
329.157	93.69
329.37	-47.62
329.583	81.41
329.796	124.41
330.009	56.83
330.222	114.17
330.435	79.36
330.648	83.45
330.861	30.21
331.073	69.12
331.286	144.89
331.499	17.92
331.712	15.87
331.925	124.41
332.138	79.36
332.35	65.02
332.563	95.74
332.776	87.55
332.989	9.73
333.202	-23.04
333.414	54.78
333.627	9.73
333.84	50.69
334.053	112.13
334.265	44.54
334.478	42.5
334.691	7.68
334.903	48.64
335.116	34.3
335.329	73.21
335.541	56.83
335.754	60.93
335.966	42.5
336.179	40.45
336.392	65.02
336.604	32.26
336.817	114.17
337.029	73.21
337.242	-18.94
337.454	101.89
337.667	3.58
337.88	85.5
338.092	46.59
338.305	175.61
338.517	54.78
338.729	105.98
338.942	128.51
339.154	-4.61
339.367	54.78
339.579	83.45
339.792	-33.28
340.004	65.02
340.217	-14.85
340.429	42.5
340.641	22.02
340.854	73.21
341.066	17.92
341.278	126.46
341.491	120.32
341.703	17.92
341.915	-0.51
342.128	110.08
342.34	93.69
342.552	60.93
342.764	130.56
342.977	24.06
343.189	79.36
343.401	62.98
343.613	50.69
343.826	38.4
344.038	60.93
344.25	-20.99
344.462	46.59
344.674	69.12
344.886	54.78
345.099	165.37
345.311	71.17
345.523	42.5
345.735	-16.9
345.947	85.5
346.159	71.17
346.371	54.78
346.583	77.31
346.795	159.23
347.007	85.5
347.219	101.89
347.431	9.73
347.643	112.13
347.855	-31.23
348.067	85.5
348.279	99.84
348.491	48.64
348.703	99.84
348.915	40.45
349.127	62.98
349.339	101.89
349.551	85.5
349.763	85.5
349.975	52.74
350.187	124.41
350.399	126.46
350.61	81.41
350.822	-12.8
351.034	-10.75
351.246	85.5
351.458	75.26
351.669	22.02
351.881	62.98
352.093	9.73
352.305	46.59
352.517	75.26
352.728	105.98
352.94	69.12
353.152	108.03
353.363	81.41
353.575	126.46
353.787	52.74
353.999	56.83
354.21	110.08
354.422	15.87
354.633	17.92
354.845	11.78
355.057	67.07
355.268	58.88
355.48	146.94
355.692	30.21
355.903	101.89
356.115	62.98
356.326	-29.18
356.538	110.08
356.749	60.93
356.961	185.85
357.172	54.78
357.384	48.64
357.595	116.22
357.807	73.21
358.018	-0.51
358.23	38.4
358.441	132.61
358.653	89.6
358.864	17.92
359.075	34.3
359.287	67.07
359.498	110.08
359.709	-10.75
359.921	108.03
360.132	101.89
360.344	67.07
360.555	7.68
360.766	93.69
360.977	52.74
361.189	110.08
361.4	40.45
361.611	99.84
361.823	103.93
362.034	52.74
362.245	15.87
362.456	38.4
362.667	105.98
362.879	54.78
363.09	26.11
363.301	85.5
363.512	99.84
363.723	75.26
363.935	-0.51
364.146	83.45
364.357	95.74
364.568	-6.66
364.779	73.21
364.99	140.8
365.201	58.88
365.412	118.27
365.623	19.97
365.834	114.17
366.045	140.8
366.256	46.59
366.467	120.32
366.678	48.64
366.889	-16.9
367.1	85.5
367.311	69.12
367.522	130.56
367.733	87.55
367.944	140.8
368.155	56.83
368.366	71.17
368.577	85.5
368.788	93.69
368.999	7.68
369.209	71.17
369.42	171.52
369.631	138.75
369.842	79.36
370.053	40.45
370.264	118.27
370.474	-4.61
370.685	105.98
370.896	69.12
371.107	114.17
371.317	50.69
371.528	1.54
371.739	122.37
371.95	77.31
372.16	118.27
372.371	-12.8
372.582	48.64
372.792	97.79
373.003	130.56
373.214	99.84
373.424	99.84
373.635	9.73
373.846	91.65
374.056	65.02
374.267	48.64
374.477	146.94
374.688	75.26
374.898	91.65
375.109	101.89
375.319	140.8
375.53	163.33
375.74	93.69
375.951	112.13
376.161	73.21
376.372	108.03
376.582	24.06
376.793	116.22
377.003	34.3
377.214	62.98
377.424	83.45
377.635	81.41
377.845	42.5
378.055	116.22
378.266	97.79
378.476	40.45
378.686	7.68
378.897	75.26
379.107	157.18
379.317	89.6
379.528	110.08
379.738	97.79
379.948	-43.52
380.158	87.55
380.369	77.31
380.579	155.13
380.789	58.88
380.999	75.26
381.21	112.13
381.42	118.27
381.63	34.3
381.84	138.75
382.05	36.35
382.261	50.69
382.471	101.89
382.681	81.41
382.891	134.65
383.101	122.37
383.311	-18.94
383.521	56.83
383.731	24.06
383.941	67.07
384.151	91.65
384.361	62.98
384.571	95.74
384.781	132.61
384.991	122.37
385.201	138.75
385.411	65.02
385.621	89.6
385.831	105.98
386.041	-25.09
386.251	28.16
386.461	112.13
386.671	101.89
386.881	89.6
387.091	32.26
387.301	87.55
387.511	77.31
387.72	58.88
387.93	142.85
388.14	-14.85
388.35	157.18
388.56	50.69
388.769	140.8
388.979	81.41
389.189	-2.56
389.399	62.98
389.609	103.93
389.818	85.5
390.028	105.98
390.238	159.23
390.447	73.21
390.657	171.52
390.867	73.21
391.076	81.41
391.286	65.02
391.496	87.55
391.705	171.52
391.915	142.85
392.125	136.7
392.334	32.26
392.544	95.74
392.753	116.22
392.963	67.07
393.172	108.03
393.382	128.51
393.591	79.36
393.801	146.94
394.01	83.45
394.22	148.99
394.429	116.22
394.639	148.99
394.848	136.7
395.058	79.36
395.267	36.35
395.477	218.62
395.686	136.7
395.895	216.57
396.105	228.86
396.314	110.08
396.524	91.65
396.733	130.56
396.942	226.81
397.152	97.79
397.361	165.37
397.57	146.94
397.78	155.13
397.989	146.94
398.198	210.43
398.407	173.57
398.617	171.52
398.826	179.71
399.035	69.12
399.244	243.2
399.453	208.38
399.663	185.85
399.872	165.37
400.081	50.69
400.29	155.13
400.499	124.41
400.708	212.48
400.917	146.94
401.127	177.66
401.336	148.99
401.545	247.29
401.754	202.24
401.963	232.96
402.172	148.99
402.381	171.52
402.59	120.32
402.799	157.18
403.008	173.57
403.217	218.62
403.426	204.28
403.635	93.69
403.844	159.23
404.053	93.69
404.262	198.14
404.471	202.24
404.68	216.57
404.888	239.1
405.097	159.23
405.306	226.81
405.515	251.39
405.724	306.68
405.933	275.96
406.142	316.92
406.35	267.77
406.559	288.25
406.768	292.35
406.977	378.36
407.185	310.78
407.394	284.16
407.603	216.57
407.812	382.46
408.02	470.52
408.229	386.55
408.438	298.49
408.646	271.87
408.855	357.88
409.064	378.36
409.272	454.14
409.481	470.52
409.69	450.04
409.898	437.75
410.107	468.47
410.315	499.19
410.524	431.61
410.733	527.86
410.941	480.76
411.15	552.44
411.358	638.45
411.567	640.5
411.775	638.45
411.984	677.37
412.192	703.99
412.401	650.74
412.609	763.38
412.818	822.77
413.026	841.2
413.234	773.62
413.443	804.34
413.651	890.35
413.86	884.21
414.068	959.99
414.276	1000.94
414.485	974.32
414.693	1043.95
414.901	1084.91
415.11	1265.13
415.318	1076.72
415.526	1119.73
415.734	1261.04
415.943	1246.7
416.151	1359.34
416.359	1312.24
416.567	1338.86
416.776	1598.95
416.984	1424.87
417.192	1568.23
417.4	1549.8
417.608	1502.7
417.817	1705.45
418.025	1654.25
418.233	1793.51
418.441	1781.22
418.649	1863.14
418.857	2041.31
419.065	2104.8
419.273	2084.32
419.481	2104.8
419.689	2221.53
419.897	2414.04
420.105	2387.42
420.313	2514.39
420.521	2526.68
420.729	2563.54
420.937	2729.43
421.145	2747.86
421.353	2874.84
421.561	3122.64
421.769	3050.96
421.977	3323.34
422.185	3243.47
422.393	3431.88
422.601	3435.98
422.809	3698.12
423.017	3644.87
423.224	3847.62
423.432	3837.38
423.64	3904.96
423.848	4300.22
424.056	4148.67
424.263	4386.24
424.471	4306.37
424.679	4455.87
424.887	4828.6
425.094	4883.89
425.302	5025.2
425.51	5213.62
425.718	5264.82
425.925	5367.21
426.133	5524.91
426.341	5856.68
426.548	5893.54
426.756	6178.21
426.964	6167.97
427.171	6395.29
427.379	6569.37
427.586	6825.37
427.794	7064.98
428.001	7361.94
428.209	7730.57
428.417	7452.05
428.624	8091.01
428.832	8187.27
429.039	7886.22
429.247	7986.57
429.454	8717.69
429.662	9198.96
429.869	8635.77
430.076	9268.59
430.284	9164.15
430.491	9534.83
430.699	10059.11
430.906	10003.82
431.114	10093.93
431.321	10452.32
431.528	10601.82
431.736	11388.24
431.943	11808.08
432.15	11550.03
432.358	11597.14
432.565	12395.84
432.772	12125.51
432.979	12834.11
433.187	13038.91
433.394	12932.41
433.601	14003.5
433.808	14007.59
434.016	14066.99
434.223	14349.61
434.43	15228.18
434.637	15000.86
434.844	15914.25
435.052	16016.65
435.259	16160.01
435.466	16286.98
435.673	16121.1
435.88	17163.51
436.087	18093.29
436.294	18074.86
436.501	17446.13
436.708	17997.04
436.915	18392.3
437.122	19227.87
437.329	19219.67
437.537	20024.53
437.743	20180.17
437.95	19807.44
438.157	21116.09
438.364	21712.05
438.571	21619.89
438.778	21896.37
438.985	23766.17
439.192	22830.24
439.399	23344.28
439.606	22820
439.813	24114.32
440.02	25676.92
440.227	25275.52
440.433	24806.53
440.64	25838.71
440.847	25398.4
441.054	26113.14
441.261	27831.38
441.467	27395.17
441.674	27890.77
441.881	29277.25
442.088	29119.56
442.294	28726.35
442.501	29248.58
442.708	30030.9
442.914	30759.98
443.121	32494.61
443.328	31368.23
443.534	33752.06
443.741	32535.57
443.948	32181.27
444.154	34542.58
444.361	34243.57
444.568	34610.16
444.774	34454.51
444.981	34624.5
445.187	35681.25
445.394	37428.16
445.6	36797.39
445.807	40678.29
446.013	38630.32
446.22	39087.02
446.426	40842.13
446.633	40997.77
446.839	42378.11
447.046	40555.41
447.252	42656.63
447.459	42898.29
447.665	42693.49
447.871	44475.23
448.078	46207.81
448.284	43914.08
448.491	45058.9
448.697	46785.33
448.903	47653.67
449.11	47465.26
449.316	46848.82
449.522	47903.53
449.728	48956.18
449.935	49054.48
450.141	48620.31
450.347	49896.2
450.553	48540.44
450.76	48907.03
450.966	50569.98
451.172	49629.96
451.378	51024.63
451.584	49857.29
451.791	51348.21
451.997	50957.05
452.203	52013.8
452.409	51720.94
452.615	51292.91
452.821	49687.31
453.027	49083.16
453.233	51053.3
453.44	49101.59
453.646	49779.46
453.852	49853.19
454.058	50873.08
454.264	49232.66
454.47	50455.29
454.676	48530.2
454.882	50803.45
455.088	45910.85
455.294	46459.71
455.5	47594.28
455.705	48063.27
455.911	46363.45
456.117	45509.45
456.323	44333.92
456.529	42261.37
456.735	43854.69
456.941	42515.32
457.147	41898.88
457.352	40940.43
457.558	40055.71
457.764	40586.13
457.97	39658.4
458.176	38812.59
458.381	38372.28
458.587	36893.65
458.793	36492.24
458.999	34583.54
459.204	37168.07
459.41	36289.49
459.616	33596.42
459.821	33391.62
460.027	33391.62
460.233	32906.25
460.438	31425.57
460.644	31304.74
460.85	29787.19
461.055	29494.33
461.261	29209.67
461.466	27014.24
461.672	26129.52
461.878	28339.28
462.083	26461.29
462.289	25685.11
462.494	25422.97
462.7	24224.91
462.905	23614.62
463.111	24534.15
463.316	24507.53
463.522	24140.94
463.727	24044.69
463.932	23932.05
464.138	23567.51
464.343	23721.11
464.549	22928.55
464.754	23858.32
464.959	23469.21
465.165	23276.7
465.37	22297.77
465.575	21533.88
465.781	22506.66
465.986	22539.43
466.191	21773.49
466.397	21699.76
466.602	20319.43
466.807	21316.79
467.012	20831.43
467.218	20851.91
467.423	20757.7
467.628	20677.83
467.833	21468.34
468.038	20796.61
468.244	20108.49
468.449	21081.28
468.654	20200.65
468.859	20071.63
469.064	19942.61
469.269	19274.97
469.474	19371.22
469.679	19633.36
469.885	19137.76
470.09	19223.77
470.295	19180.76
470.5	18595.04
470.705	18945.25
470.91	18377.96
471.115	18273.51
471.32	18619.62
471.525	18265.32
471.73	17646.83
471.935	17591.54
472.139	17136.89
472.344	17491.19
472.549	17478.9
472.754	17091.84
472.959	16739.58
473.164	16139.53
473.369	16059.66
473.574	16676.1
473.778	16684.29
473.983	16327.94
474.188	16182.54
474.393	15531.28
474.598	15607.06
474.802	15318.29
475.007	15303.96
475.212	15310.1
475.417	14519.59
475.621	14583.07
475.826	14583.07
476.031	14351.65
476.235	14109.99
476.44	14384.42
476.645	13921.58
476.849	13933.87
477.054	13808.94
477.259	13518.13
477.463	13565.23
477.668	13380.92
477.872	13434.16
478.077	13227.32
478.282	12834.11
478.486	12840.25
478.691	12553.54
478.895	12752.19
479.1	12494.15
479.304	12621.12
479.509	12064.07
479.713	12637.5
479.918	12109.13
480.122	11908.43
480.326	12410.18
480.531	12356.93
480.735	11955.53
480.94	11838.8
481.144	12326.21
481.348	11541.84
481.553	11560.27
481.757	11525.46
481.961	11570.51
482.166	11773.26
482.37	11625.81
482.574	11607.37
482.778	11486.54
482.983	11707.73
483.187	11431.25
483.391	11687.25
483.595	11414.87
483.8	11388.24
484.004	11525.46
484.208	11627.85
484.412	11572.56
484.616	11488.59
484.821	11507.02
485.025	11244.88
485.229	11302.23
485.433	11158.87
485.637	11275.6
485.841	11312.47
486.045	11275.6
486.249	11433.3
486.453	11451.73
486.657	11306.32
486.861	11277.65
487.065	11042.14
487.269	11359.57
487.473	11111.77
487.677	11490.64
487.881	11517.26
488.085	11373.91
488.289	11273.56
488.493	11046.23
488.697	11318.61
488.901	11496.78
489.105	11335
489.309	11337.04
489.512	11339.09
489.716	11427.15
489.92	11701.58
490.124	11289.94
490.328	11668.81
490.531	11281.75
490.735	11803.98
490.939	11447.63
491.143	11298.13
491.346	11621.71
491.55	11488.59
491.754	11846.99
491.958	11816.27
492.161	11648.33
492.365	11885.9
492.569	11763.02
492.772	11941.19
492.976	12055.88
493.18	12160.33
493.383	12160.33
493.587	12170.57
493.79	12207.43
493.994	11986.25
494.197	12381.51
494.401	12488
494.605	12391.75
494.808	12479.81
495.012	12692.8
495.215	12696.89
495.419	12571.97
495.622	12834.11
495.825	12768.57
496.029	12911.93
496.232	13204.79
496.436	13045.05
496.639	13606.19
496.843	13391.16
497.046	13362.48
497.249	13985.07
497.453	13630.77
497.656	14071.08
497.859	13987.11
498.063	13974.83
498.266	14396.71
498.469	14306.6
498.673	14556.45
498.876	14648.61
499.079	14806.3
499.282	15023.39
499.485	15011.1
499.689	15320.34
499.892	15385.88
500.095	15580.43
500.298	15879.44
500.501	15656.21
500.705	16030.99
500.908	16395.53
501.111	16385.29
501.314	16710.91
501.517	16850.17
501.72	17028.35
501.923	16942.33
502.126	17446.13
502.329	17460.47
502.532	17423.61
502.735	17599.73
502.938	17988.85
503.141	18056.43
503.344	18367.72
503.547	18328.81
503.75	18605.28
503.953	18916.58
504.156	19021.02
504.359	19240.15
504.562	19154.14
504.765	19813.59
504.968	20079.82
505.17	20149.45
505.373	19965.14
505.576	20407.5
505.779	20540.61
505.982	20518.09
506.185	21077.18
506.387	21296.32
506.59	21128.38
506.793	21853.36
506.996	21664.95
507.198	22023.34
507.401	22119.6
507.604	22543.53
507.807	22654.12
508.009	22961.31
508.212	23032.99
508.415	23411.87
508.617	23692.44
508.82	23704.73
509.022	23510.17
509.225	24243.34
509.428	24302.73
509.63	24511.63
509.833	24595.59
510.035	25199.74
510.238	24982.66
510.44	25246.85
510.643	25769.08
510.845	26213.49
511.048	25760.89
511.25	26614.89
511.453	26369.13
511.655	27083.87
511.858	26770.54
512.06	27221.09
512.262	27481.18
512.465	27608.15
512.667	28095.57
512.87	28116.05
513.072	28173.39
513.274	28566.6
513.477	29144.13
513.679	28748.87
513.881	29369.41
514.084	29318.21
514.286	29555.77
514.488	29686.84
514.69	30512.17
514.893	30551.09
515.095	30555.18
515.297	30833.71
515.499	30796.84
515.701	31298.59
515.904	31446.05
516.106	31962.14
516.308	31794.2
516.51	32226.32
516.712	32115.73
516.914	32730.12
517.116	33174.53
517.318	33250.31
517.52	33522.69
517.722	33565.7
517.925	33688.57
518.127	33858.56
518.329	34192.37
518.531	34219
518.733	34847.72
518.935	35386.34
519.136	35230.69
519.338	35628
519.54	35601.38
519.742	35634.14
519.944	35843.04
520.146	36588.5
520.348	36586.45
520.55	36479.96
520.752	36647.89
520.954	37536.71
521.155	36932.56
521.357	37678.02
521.559	37934.01
521.761	38296.5
521.963	38300.6
522.164	38249.4
522.366	38446.01
522.568	38706.1
522.77	38769.58
522.971	39300.01
523.173	38816.69
523.375	39230.38
523.576	39291.82
523.778	39322.54
523.98	39521.19
524.181	39562.15
524.383	40037.28
524.584	40379.29
524.786	40432.54
524.988	39959.45
525.189	40543.13
525.391	40784.79
525.592	40635.28
525.794	41329.55
525.995	40962.96
526.197	41114.51
526.398	41327.5
526.6	41040.78
526.801	41325.45
527.003	41470.86
527.204	41673.6
527.406	41997.18
527.607	42242.94
527.808	42333.05
528.01	41438.09
528.211	41974.66
528.412	42531.7
528.614	42255.23
528.815	41948.03
529.016	42691.44
529.218	42451.83
529.419	42484.6
529.62	42206.08
529.822	42255.23
530.023	42623.86
530.224	42365.82
530.425	42460.02
530.626	42087.29
530.828	41982.85
531.029	43070.32
531.23	42429.3
531.431	42734.45
531.632	42933.1
531.833	42548.09
532.035	42642.29
532.236	42740.6
532.437	43015.02
532.638	42568.57
532.839	42963.82
533.04	43201.39
533.241	42242.94
533.442	43107.18
533.643	43086.7
533.844	42943.34
534.045	42959.73
534.246	42660.73
534.447	42904.43
534.648	42820.47
534.849	43107.18
535.05	42412.92
535.251	42806.13
535.451	42576.76
535.652	42638.2
535.853	43342.7
536.054	42789.75
536.255	42736.5
536.456	42218.36
536.657	43369.32
536.857	42591.09
537.058	42249.08
537.259	43029.36
537.46	42601.33
537.66	42615.67
537.861	42904.43
538.062	42724.21
538.263	42427.26
538.463	42169.21
538.664	42689.4
538.865	42543.99
539.065	42853.23
539.266	42705.78
539.466	42621.81
539.667	42066.81
539.868	43144.05
540.068	42476.41
540.269	42251.13
540.469	42488.7
540.67	42009.47
540.87	42699.64
541.071	42068.86
541.271	42339.19
541.472	42509.18
541.672	42085.25
541.873	41935.74
542.073	41567.11
542.274	42255.23
542.474	42120.06
542.675	41978.75
542.875	42795.89
543.075	42298.23
543.276	41917.31
543.476	42656.63
543.676	42118.01
543.877	42158.97
544.077	42048.38
544.277	42238.84
544.478	42173.31
544.678	42070.91
544.878	42046.33
545.078	42292.09
545.279	41706.37
545.479	41927.55
545.679	41882.5
545.879	42101.63
546.079	42077.05
546.28	42048.38
546.48	41733
546.68	42105.73
546.88	41941.89
547.08	41716.61
547.28	42122.11
547.48	41710.47
547.68	41933.7
547.88	41018.25
548.081	41915.26
548.281	41421.7
548.481	41661.32
548.681	42050.43
548.881	41945.98
549.081	41446.28
549.28	41714.56
549.48	41651.08
549.68	41415.56
549.88	42337.15
550.08	41540.49
550.28	41653.12
550.48	41446.28
550.68	42134.4
550.88	41108.36
551.08	41599.88
551.279	41597.83
551.479	41005.97
551.679	41259.91
551.879	41077.65
552.079	41472.9
552.278	41577.35
552.478	41444.23
552.678	41522.05
552.878	41780.1
553.077	41034.64
553.277	40981.39
553.477	41997.18
553.676	41030.54
553.876	41073.55
554.076	41081.74
554.275	41010.06
554.475	41053.07
554.674	41507.72
554.874	41091.98
555.074	41081.74
555.273	41436.04
555.473	41493.38
555.672	40721.3
555.872	41206.67
556.071	41433.99
556.271	41352.07
556.47	40749.97
556.67	40985.49
556.869	40805.27
557.068	41102.22
557.268	40694.68
557.467	40690.58
557.667	41030.54
557.866	40797.07
558.065	41051.02
558.265	40575.89
558.464	41137.04
558.663	40844.18
558.863	40629.14
559.062	41589.64
559.261	40823.7
559.461	41223.05
559.66	40604.56
559.859	40463.25
560.058	40496.02
560.258	40246.17
560.457	40453.01
560.656	41149.32
560.855	40833.94
561.054	40715.15
561.253	40530.84
561.453	40629.14
561.652	40555.41
561.851	40772.5
562.05	40627.09
562.249	40520.6
562.448	40821.65
562.647	40252.31
562.846	40688.53
563.045	40661.91
563.244	40102.81
563.443	40461.21
563.642	40434.58
563.841	40692.63
564.04	40018.85
564.239	40493.97
564.438	39863.2
564.637	40256.41
564.836	40446.87
565.035	40121.24
565.234	40121.24
565.432	40182.68
565.631	39773.09
565.83	40438.68
566.029	40115.1
566.228	40072.09
566.427	40037.28
566.625	39656.35
566.824	39261.1
567.023	40084.38
567.222	39367.59
567.42	40072.09
567.619	39719.84
567.818	40002.46
568.016	39574.44
568.215	39965.6
568.414	39596.96
568.612	39877.54
568.811	39457.7
569.01	39756.71
569.208	38994.86
569.407	39881.63
569.605	39441.32
569.804	39873.44
570.002	39246.76
570.201	39521.19
570.4	39273.38
570.598	39170.99
570.797	38716.34
570.995	39603.11
571.193	38677.43
571.392	39674.79
571.59	38831.02
571.789	39343.02
571.987	39127.98
572.186	38962.09
572.384	39199.66
572.582	39314.34
572.781	38781.87
572.979	38734.77
573.177	39025.58
573.376	38804.4
573.574	38595.51
573.772	38894.51
573.971	38835.12
574.169	38779.82
574.367	38562.74
574.565	38523.83
574.763	38210.49
574.962	38532.02
575.16	38359.99
575.358	38708.15
575.556	37882.81
575.754	38478.77
575.952	38206.39
576.151	38435.77
576.349	37915.58
576.547	38009.79
576.745	38325.18
576.943	38261.69
577.141	38159.29
577.339	38204.35
577.537	38151.1
577.735	38198.2
577.933	37798.85
578.131	38175.67
578.329	37856.19
578.527	37735.36
578.725	38067.13
578.923	37827.52
579.121	37714.88
579.319	37755.84
579.516	37409.73
579.714	37725.12
579.912	37327.81
580.11	37454.79
580.308	37303.24
580.506	37198.79
580.704	36883.41
580.901	37583.81
581.099	37702.59
581.297	37409.73
581.495	37118.92
581.692	37534.66
581.89	36979.66
582.088	37460.93
582.285	37129.16
582.483	37202.89
582.681	37194.7
582.878	36994
583.076	36946.89
583.274	37063.63
583.471	36502.48
583.669	36619.22
583.866	36418.52
584.064	37034.95
584.262	36357.08
584.459	36977.61
584.657	36406.23
584.854	37012.43
585.052	35902.43
585.249	35959.77
585.447	36578.26
585.644	36219.86
585.841	36307.93
586.039	36559.83
586.236	36522.96
586.434	36400.08
586.631	36152.28
586.828	36006.87
587.026	36230.1
587.223	35980.25
587.42	36058.07
587.618	35855.32
587.815	35939.29
588.012	35771.36
588.21	36269.01
588.407	36287.45
588.604	35822.56
588.801	35648.48
588.999	35433.44
589.196	35840.99
589.393	35785.69
589.59	35591.14
589.787	35453.92
589.984	35126.25
590.182	35029.99
590.379	35501.03
590.576	35400.68
590.773	35560.42
590.97	35242.98
591.167	35285.99
591.364	35238.89
591.561	35562.47
591.758	35169.26
591.955	35193.83
592.152	35546.08
592.349	34769.9
592.546	35167.21
592.743	34956.27
592.94	34614.26
593.137	35251.17
593.334	35318.76
593.531	34839.53
593.727	35177.45
593.924	35152.87
594.121	34903.02
594.318	35460.07
594.515	34673.65
594.712	35308.52
594.908	34792.43
595.105	34986.99
595.302	34763.76
595.499	34763.76
595.696	34647.02
595.892	34634.74
596.089	35218.41
596.286	34737.13
596.482	34665.46
596.679	34673.65
596.876	34704.37
597.072	34718.7
597.269	34907.12
597.466	34821.1
597.662	34767.85
597.859	34943.98
598.055	34618.35
598.252	34712.56
598.448	34726.89
598.645	34808.81
598.841	34395.12
599.038	34710.51
599.234	34851.82
599.431	34616.3
599.627	34585.58
599.824	34644.98
600.02	34778.09
600.217	34970.6
600.413	34798.57
600.609	34620.4
600.806	34737.13
601.002	34935.79
601.198	34507.76
601.395	34786.29
601.591	34864.11
601.787	35097.58
601.984	34989.03
602.18	35062.76
602.376	34647.02
602.572	34880.49
602.769	34958.31
602.965	34644.98
603.161	35392.48
603.357	34972.65
603.553	34636.78
603.75	35314.66
603.946	34896.88
604.142	35126.25
604.338	34997.23
604.534	35111.91
604.73	34716.65
604.926	35040.23
605.122	35333.09
605.318	35220.45
605.514	34880.49
605.71	35169.26
605.906	35245.03
606.102	35402.72
606.298	35490.79
606.494	35355.62
606.69	35673.06
606.886	35716.06
607.082	35388.39
607.278	36008.92
607.474	35664.86
607.67	36230.1
607.866	35642.34
608.062	35922.91
608.257	35931.1
608.453	35812.32
608.649	36154.33
608.845	36021.21
609.041	36537.3
609.236	36721.62
609.432	36113.37
609.628	36637.65
609.824	36639.7
610.019	36275.16
610.215	36697.04
610.411	36783.05
610.606	37069.77
610.802	37010.38
610.998	36965.32
611.193	37155.79
611.389	37301.19
611.584	37594.05
611.78	37075.91
611.976	37557.19
612.171	37786.56
612.367	37712.83
612.562	37581.76
612.758	37682.11
612.953	37743.55
613.149	38202.3
613.344	38036.41
613.539	38521.78
613.735	38273.98
613.93	38230.97
614.126	38390.71
614.321	39039.92
614.517	38661.04
614.712	38910.89
614.907	38914.99
615.103	39080.88
615.298	38755.25
615.493	39443.37
615.688	38810.54
615.884	39738.27
616.079	38884.27
616.274	39101.36
616.47	39199.66
616.665	39654.31
616.86	39281.58
617.055	39642.02
617.25	39891.87
617.445	40059.8
617.641	39605.16
617.836	40078.24
618.031	39488.42
618.226	40162.2
618.421	40022.94
618.616	40692.63
618.811	39728.03
619.006	40913.81
619.201	39902.11
619.396	40852.37
619.591	39660.45
619.786	40526.74
619.981	39867.3
620.176	40508.31
620.371	40131.48
620.566	40184.73
620.761	40158.11
620.956	40491.93
621.151	39762.85
621.346	40403.86
621.541	39472.04
621.735	40467.35
621.93	39414.69
622.125	40188.83
622.32	39535.52
622.515	40448.92
622.709	39787.42
622.904	39867.3
623.099	39934.88
623.294	40235.93
623.488	39418.79
623.683	39803.81
623.878	39273.38
624.072	39668.64
624.267	39558.05
624.462	39785.38
624.656	39070.64
624.851	39506.85
625.046	39164.84
625.24	38884.27
625.435	38884.27
625.629	38859.7
625.824	39021.48
626.018	38601.65
626.213	38149.05
626.407	38718.39
626.602	37997.5
626.796	38714.29
626.991	38630.32
627.185	38558.64
627.38	37972.92
627.574	37878.72
627.768	37727.17
627.963	37872.57
628.157	37817.28
628.352	37882.81
628.546	36905.93
628.74	37972.92
628.935	37323.72
629.129	37538.76
629.323	36893.65
629.517	37223.37
629.712	37182.41
629.906	36869.07
630.1	36586.45
630.294	36969.42
630.489	36365.27
630.683	36938.7
630.877	36326.36
631.071	36582.35
631.265	36447.19
631.459	36238.3
631.653	36111.32
631.848	36508.63
632.042	36008.92
632.236	36230.1
632.43	35333.09
632.624	36131.8
632.818	35392.48
633.012	35415.01
633.206	35398.63
633.4	35398.63
633.594	34661.36
633.788	35267.56
633.982	35386.34
634.176	34911.21
634.369	34778.09
634.563	34384.88
634.757	34747.37
634.951	34855.92
635.145	34657.26
635.339	34282.48
635.533	34225.14
635.726	34296.82
635.92	33559.55
636.114	34098.17
636.308	33686.53
636.501	33997.82
636.695	33807.36
636.889	33629.18
637.083	33559.55
637.276	33397.76
637.47	33115.14
637.664	32850.95
637.857	33201.16
638.051	32857.1
638.244	32551.95
638.438	32527.38
638.632	32381.97
638.825	31935.51
639.019	32316.43
639.212	32128.02
639.406	31990.81
639.599	31986.71
639.793	31910.94
639.986	31198.24
640.18	31607.84
640.373	31613.98
640.567	31126.57
640.76	31583.26
640.954	30780.46
641.147	30682.16
641.34	30706.73
641.534	30952.49
641.727	30456.88
641.92	30452.78
642.114	30317.62
642.307	30444.59
642.5	30092.34
642.694	29670.46
642.887	29500.48
643.08	30016.57
643.273	29527.1
643.467	29725.75
643.66	29092.93
643.853	29281.35
644.046	28644.43
644.239	29248.58
644.432	28593.23
644.626	28345.42
644.819	28402.77
645.012	28826.7
645.205	28339.28
645.398	28339.28
645.591	27860.05
645.784	27878.49
645.977	27677.79
646.17	27368.54
646.363	27370.59
646.556	27196.51
646.749	27102.31
646.942	27114.59
647.135	26686.57
647.328	26825.83
647.521	26700.9
647.714	26494.06
647.907	26469.48
648.099	26264.69
648.292	25984.12
648.485	26059.89
648.678	25566.33
648.871	25590.91
649.064	25658.49
649.256	25590.91
649.449	25052.29
649.642	25099.39
649.835	24992.9
650.027	25189.5
650.22	24804.49
650.413	24288.4
650.605	24464.52
650.798	24575.11
650.991	24001.68
651.183	23989.39
651.376	23784.6
651.568	24011.92
651.761	23762.07
651.954	23293.08
652.146	23467.16
652.339	23061.66
652.531	22987.94
652.724	23032.99
652.916	22756.52
653.109	22615.21
653.301	22588.58
653.494	22744.23
653.686	21922.99
653.879	22166.7
654.071	22142.13
654.263	21669.05
654.456	21886.13
654.648	21710
654.84	21181.63
655.033	21206.2
655.225	21255.36
655.417	21097.66
655.61	20933.82
655.802	21042.37
655.994	20505.8
656.186	20706.5
656.379	20702.4
656.571	20280.52
656.763	20120.78
656.955	20049.1
657.148	19991.76
657.34	19662.04
657.532	19346.65
657.724	19467.48
657.916	19436.76
658.108	19623.12
658.3	19027.17
658.492	18879.71
658.684	18472.17
658.876	18689.25
659.068	18494.69
659.26	18263.27
659.452	18306.28
659.644	18406.63
659.836	18142.44
660.028	17992.94
660.22	17618.16
660.412	17468.66
660.604	17270.01
660.796	17100.03
660.988	17196.28
661.18	17130.75
661.372	16850.17
661.563	17095.93
661.755	16719.1
661.947	16649.47
662.139	16471.3
662.331	16239.88
662.522	16295.18
662.714	16209.16
662.906	15742.22
663.097	15926.54
663.289	15738.13
663.481	15383.83
663.673	15453.46
663.864	15252.76
664.056	14896.41
664.247	15189.27
664.439	14994.72
664.631	15060.25
664.822	14683.42
665.014	14650.66
665.205	14411.04
665.397	14515.49
665.588	14314.79
665.78	14445.86
665.971	14415.14
666.163	14013.74
666.354	13972.78
666.546	14044.46
666.737	13937.96
666.929	13745.45
667.12	13583.66
667.311	13628.72
667.503	13229.37
667.694	13413.68
667.885	13307.19
668.077	13212.98
668.268	12746.05
668.459	12944.7
668.651	13051.19
668.842	13129.02
669.033	12531.01
669.224	12670.27
669.416	12705.09
669.607	12385.6
669.798	12393.79
669.989	12514.63
670.18	12215.62
670.371	12016.97
670.563	11810.12
670.754	12008.78
670.945	11846.99
671.136	11992.39
671.327	11736.4
671.518	11758.92
671.709	11634
671.9	11898.19
672.091	11695.44
672.282	11513.17
672.473	11482.45
672.664	11615.57
672.855	11140.44
673.046	11156.82
673.237	11224.4
673.428	11097.43
673.619	11083.09
673.809	11216.21
674	11021.66
674.191	11017.56
674.382	10884.44
674.573	10866.01
674.764	10646.88
674.954	11031.9
675.145	10478.94
675.336	10552.67
675.527	10548.58
675.717	10681.69
675.908	10413.41
676.099	10495.33
676.289	10378.59
676.48	10292.58
676.671	10184.04
676.861	10204.52
677.052	10038.63
677.243	10065.25
677.433	9897.32
677.624	10091.88
677.814	9893.23
678.005	9868.65
678.195	9858.41
678.386	9819.5
678.576	9858.41
678.767	9829.74
678.957	9725.29
679.148	10030.44
679.338	9952.62
679.529	9547.12
679.719	9444.72
679.909	9983.34
680.1	9571.69
680.29	9614.7
680.481	9590.13
680.671	9325.94
680.861	9338.23
681.052	9536.88
681.242	9213.3
681.432	9346.42
681.622	9213.3
681.813	9168.24
682.003	9186.68
682.193	9143.67
682.383	9141.62
682.573	9237.88
682.764	9061.75
682.954	9149.81
683.144	9258.35
683.334	8990.07
683.524	9203.06
683.714	9037.17
683.904	8938.87
684.094	9041.27
684.284	9031.03
684.474	9074.04
684.664	8865.14
684.854	9102.71
685.044	8908.15
685.234	8867.19
685.424	8924.54
685.614	9051.51
685.804	8914.3
685.994	8988.02
686.184	8856.95
686.374	8918.39
686.564	8861.05
686.753	8867.19
686.943	8643.96
687.133	8807.8
687.323	8883.58
687.513	8678.78
687.702	8611.2
687.892	8770.94
688.082	8684.92
688.272	8881.53
688.461	8799.61
688.651	8656.25
688.841	8652.16
689.03	8623.48
689.22	8639.87
689.41	8719.74
689.599	8727.93
689.789	8467.84
689.979	8766.84
690.168	8668.54
690.358	8676.73
690.547	8603
690.737	8582.53
690.926	8592.76
691.116	8537.47
691.305	8578.43
691.495	8578.43
691.684	8457.6
691.874	8570.24
692.063	8547.71
692.252	8496.51
692.442	8574.33
692.631	8484.22
692.82	8410.5
693.01	8103.3
693.199	8256.9
693.388	8308.1
693.578	8607.1
693.767	8390.02
693.956	8310.15
694.146	8150.4
694.335	8238.47
694.524	8158.6
694.713	8357.25
694.902	8295.81
695.092	8131.97
695.281	8177.03
695.47	8181.12
695.659	8078.72
695.848	8136.07
696.037	7955.85
696.226	8193.41
696.415	7947.65
696.604	8256.9
696.793	8037.77
696.982	8027.53
697.171	7951.75
697.36	7900.55
697.549	7687.56
697.738	7859.59
697.927	7871.88
698.116	7955.85
698.305	7753.1
698.494	7947.65
698.683	7898.5
698.872	7863.69
699.061	7804.3
699.25	7646.6
699.438	7712.14
699.627	7777.67
699.816	7816.58
700.005	7482.77
700.193	7644.56
700.382	7738.76
700.571	7742.86
700.76	7777.67
700.948	7652.75
701.137	7652.75
701.326	7677.32
701.514	7564.68
701.703	7497.1
701.892	7400.85
702.08	7460.24
702.269	7314.83
702.457	7396.75
702.646	7237.01
702.834	7208.34
703.023	7105.94
703.212	7177.62
703.4	7212.43
703.589	7161.23
703.777	7122.32
703.965	6929.81
704.154	7146.9
704.342	7058.84
704.531	7007.64
704.719	7028.12
704.907	7253.39
705.096	6946.2
705.284	6901.14
705.472	6909.33
705.661	6935.96
705.849	6935.96
706.037	6905.24
706.226	6970.77
706.414	6774.17
706.602	6917.53
706.79	6780.31
706.979	6682.01
707.167	6743.45
707.355	6614.43
707.543	6727.07
707.731	6753.69
707.919	6593.95
708.107	6522.27
708.296	6559.13
708.484	6647.19
708.672	6591.9
708.86	6368.67
709.048	6374.81
709.236	6331.81
709.424	6276.51
709.612	6567.32
709.8	6309.28
709.988	6141.35
710.176	6430.11
710.364	6290.85
710.551	6192.55
710.739	6114.72
710.927	6280.61
711.115	6145.44
711.303	6245.79
711.491	6041
711.679	6067.62
711.866	6086.05
712.054	5975.46
712.242	5940.65
712.43	6028.71
712.617	5948.84
712.805	5866.92
712.993	5903.78
713.181	5791.14
713.368	5877.16
713.556	5782.95
713.744	5836.2
713.931	5936.55
714.119	5717.42
714.306	5694.89
714.494	5623.21
714.682	5684.65
714.869	5498.28
715.057	5690.79
715.244	5572.01
715.432	5590.44
715.619	5547.44
715.807	5442.99
715.994	5326.25
716.182	5494.19
716.369	5359.02
716.556	5395.89
716.744	5363.12
716.931	5426.61
717.119	5424.56
717.306	5252.53
717.493	5322.16
717.681	5254.58
717.868	5236.14
718.055	5236.14
718.242	5129.65
718.43	5236.14
718.617	5041.59
718.804	5137.84
718.991	5053.87
719.179	4963.76
719.366	4943.28
719.553	4916.66
719.74	4990.39
719.927	5055.92
720.114	4922.8
720.301	4935.09
720.488	4761.02
720.676	4808.12
720.863	4996.53
721.05	4928.95
721.237	4599.23
721.424	4756.92
721.611	4840.89
721.798	4763.06
721.985	4797.88
722.172	4574.65
722.358	4492.73
722.545	4664.76
722.732	4718.01
722.919	4709.82
723.106	4597.18
723.293	4599.23
723.48	4541.88
723.667	4535.74
723.853	4580.79
724.04	4566.46
724.227	4384.19
724.414	4287.93
724.6	4361.66
724.787	4388.29
724.974	4449.72
725.161	4191.68
725.347	4400.57
725.534	4490.68
725.72	4490.68
725.907	4332.99
726.094	4255.17
726.28	4103.62
726.467	4183.49
726.653	4060.61
726.84	4158.91
727.027	4318.65
727.213	4093.38
727.4	4150.72
727.586	4087.23
727.773	4029.89
727.959	4021.7
728.145	4046.27
728.332	4005.31
728.518	3990.98
728.705	4070.85
728.891	3978.69
729.077	4109.76
729.264	3843.53
729.45	3917.25
729.636	3904.96
729.823	3732.94
730.009	3835.33
730.195	3730.89
730.382	3696.07
730.568	3808.71
730.754	3841.48
730.94	3794.37
731.126	3726.79
731.313	3823.05
731.499	3880.39
731.685	3747.27
731.871	3702.22
732.057	3716.55
732.243	3689.93
732.429	3644.87
732.615	3634.63
732.801	3694.02
732.987	3646.92
733.173	3528.14
733.359	3419.6
733.545	3429.84
733.731	3349.96
733.917	3528.14
734.103	3478.99
734.289	3458.51
734.475	3517.9
734.661	3562.95
734.847	3487.18
735.033	3433.93
735.219	3481.03
735.404	3298.77
735.59	3354.06
735.776	3470.8
735.962	3411.4
736.148	3360.2
736.333	3343.82
736.519	3280.33
736.705	3253.71
736.89	3229.13
737.076	3243.47
737.262	3278.29
737.447	3069.39
737.633	3200.46
737.819	3218.89
738.004	3194.32
738.19	3200.46
738.375	3136.98
738.561	3182.03
738.747	3106.26
738.932	3007.95
739.118	3171.79
739.303	3096.02
739.489	3089.87
739.674	2964.95
739.859	2971.09
740.045	2977.23
740.23	2993.62
740.416	2934.23
740.601	2930.13
740.786	2821.59
740.972	2829.78
741.157	2895.32
741.342	2856.4
741.528	2794.97
741.713	2842.07
741.898	2969.04
742.084	2774.49
742.269	2844.12
742.454	2819.54
742.639	2897.36
742.824	2817.49
743.01	2786.77
743.195	2883.03
743.38	2729.43
743.565	2680.28
743.75	2618.84
743.935	2657.75
744.12	2778.58
744.305	2641.37
744.49	2577.88
744.675	2637.27
744.86	2485.72
745.045	2557.4
745.23	2584.02
745.415	2510.3
745.6	2637.27
745.785	2487.77
745.97	2436.57
746.155	2379.23
746.34	2455
746.525	2469.34
746.71	2534.87
746.895	2379.23
747.079	2504.15
747.264	2467.29
747.449	2381.28
747.634	2287.07
747.819	2399.71
748.003	2348.51
748.188	2268.64
748.373	2368.99
748.557	2330.08
748.742	2350.56
748.927	2280.93
749.111	2356.7
749.296	2233.82
749.481	2254.3
749.665	2260.45
749.85	2201.05
750.034	2272.73
750.219	2227.68
750.404	2156
750.588	2192.86
750.773	2123.23
750.957	2147.81
751.141	2137.57
751.326	2067.94
751.51	1994.21
751.695	2137.57
751.879	1979.87
752.064	2088.42
752.248	1961.44
752.432	2074.08
752.617	2096.61
752.801	2043.36
752.985	1926.63
753.17	1906.15
753.354	2096.61
753.538	1977.83
753.722	1820.13
753.907	1875.43
754.091	1859.04
754.275	1981.92
754.459	1719.78
754.643	1764.84
754.828	1869.28
755.012	1824.23
755.196	1770.98
755.38	1824.23
755.564	1826.28
755.748	1760.74
755.932	1773.03
756.116	1719.78
756.3	1678.82
756.484	1781.22
756.668	1820.13
756.852	1656.29
757.036	1742.31
757.22	1646.05
757.404	1682.92
757.588	1682.92
757.772	1732.07
757.956	1695.21
758.14	1627.62
758.323	1502.7
758.507	1631.72
758.691	1527.27
758.875	1676.77
759.059	1641.96
759.242	1666.53
759.426	1525.22
759.61	1635.82
759.794	1537.51
759.977	1568.23
760.161	1658.34
760.345	1680.87
760.528	1572.33
760.712	1535.46
760.895	1461.74
761.079	1557.99
761.263	1514.98
761.446	1580.52
761.63	1517.03
761.813	1535.46
761.997	1463.79
762.18	1447.4
762.364	1465.83
762.547	1424.87
762.731	1398.25
762.914	1412.59
763.098	1408.49
763.281	1392.11
763.464	1330.67
763.648	1426.92
763.831	1345
764.015	1377.77
764.198	1404.39
764.381	1441.26
764.564	1361.39
764.748	1371.63
764.931	1377.77
765.114	1320.43
765.297	1402.35
765.481	1226.22
765.664	1388.01
765.847	1361.39
766.03	1379.82
766.213	1209.84
766.397	1226.22
766.58	1332.72
766.763	1338.86
766.946	1328.62
767.129	1271.28
767.312	1314.28
767.495	1273.32
767.678	1246.7
767.861	1273.32
768.044	1248.75
768.227	1265.13
768.41	1271.28
768.593	1428.97
768.776	1232.37
768.959	1250.8
769.142	1238.51
769.324	1211.89
769.507	1205.74
769.69	1244.65
769.873	1230.32
770.056	1398.25
770.239	1246.7
770.421	1250.8
770.604	1127.92
770.787	1279.47
770.97	1289.71
771.152	1189.36
771.335	1211.89
771.518	1187.31
771.7	1281.52
771.883	1244.65
772.066	1175.02
772.248	1168.88
772.431	1201.65
772.613	1215.98
772.796	1240.56
772.978	1127.92
773.161	1185.26
773.343	1134.06
773.526	1084.91
773.708	1144.3
773.891	1046
774.073	1125.87
774.256	1080.82
774.438	1156.59
774.621	1062.38
774.803	1054.19
774.985	1017.33
775.168	1111.54
775.35	1017.33
775.532	1031.66
775.715	1074.67
775.897	1136.11
776.079	1082.86
776.261	968.18
776.444	1056.24
776.626	1017.33
776.808	1002.99
776.99	1066.48
777.173	980.47
777.355	988.66
777.537	900.59
777.719	1021.42
777.901	916.98
778.083	943.6
778.265	894.45
778.447	1050.1
778.629	959.99
778.811	927.22
778.993	982.51
779.175	939.51
779.357	914.93
779.539	880.11
779.721	990.7
779.903	941.55
780.085	976.37
780.267	949.75
780.449	849.4
780.631	859.63
780.812	910.83
780.994	919.03
781.176	914.93
781.358	744.95
781.54	839.16
781.721	847.35
781.903	898.55
782.085	808.44
782.267	943.6
782.448	765.43
782.63	800.24
782.812	845.3
782.993	898.55
783.175	800.24
783.357	810.48
783.538	816.63
783.72	781.81
783.901	730.61
784.083	794.1
784.264	714.23
784.446	695.8
784.627	710.13
784.809	742.9
784.99	695.8
785.172	759.28
785.353	673.27
785.535	675.32
785.716	714.23
785.897	708.09
786.079	613.88
786.26	693.75
786.441	716.28
786.623	593.4
786.804	728.56
786.985	660.98
787.167	605.69
787.348	615.93
787.529	658.93
787.71	716.28
787.891	652.79
788.073	603.64
788.254	556.54
788.435	620.02
788.616	611.83
788.797	540.15
788.978	568.82
789.159	587.26
789.34	611.83
789.522	517.62
789.703	536.06
789.884	562.68
790.065	667.13
790.246	687.61
790.427	550.39
790.607	652.79
790.788	564.73
790.969	509.43
791.15	622.07
791.331	462.33
791.512	534.01
791.693	456.19
791.874	464.38
792.054	531.96
792.235	593.4
792.416	450.04
792.597	521.72
792.778	564.73
792.958	527.86
793.139	495.1
793.32	525.82
793.5	456.19
793.681	581.11
793.862	493.05
794.042	472.57
794.223	349.69
794.404	519.67
794.584	355.83
794.765	454.14
794.945	450.04
795.126	484.86
795.306	456.19
795.487	495.1
795.667	456.19
795.848	491
796.028	462.33
796.209	374.27
796.389	509.43
796.57	421.37
796.75	450.04
796.93	318.97
797.111	407.03
797.291	398.84
797.471	378.36
797.652	437.75
797.832	417.27
798.012	431.61
798.192	437.75
798.373	308.73
798.553	374.27
798.733	423.42
798.913	331.26
799.093	429.56
799.274	386.55
799.454	388.6
799.634	398.84
799.814	396.79
799.994	323.07
800.174	450.04
800.354	427.51
800.534	261.63
800.714	355.83
800.894	249.34
801.074	290.3
801.254	388.6
801.434	370.17
801.614	388.6
801.794	368.12
801.974	1406.44
802.154	331.26
802.334	398.84
802.514	343.55
802.693	359.93
802.873	314.88
803.053	339.45
803.233	327.16
803.413	312.83
803.592	349.69
803.772	304.64
803.952	368.12
804.131	257.53
804.311	376.31
804.491	357.88
804.67	308.73
804.85	273.92
805.03	341.5
805.209	372.22
805.389	314.88
805.568	284.16
805.748	226.81
805.928	335.35
806.107	310.78
806.287	300.54
806.466	327.16
806.646	288.25
806.825	384.51
807.004	249.34
807.184	271.87
807.363	345.59
807.543	298.49
807.722	208.38
807.901	300.54
808.081	329.21
808.26	171.52
808.439	280.06
808.619	212.48
808.798	368.12
808.977	302.59
809.156	314.88
809.336	298.49
809.515	339.45
809.694	251.39
809.873	189.95
810.052	275.96
810.231	364.03
810.411	202.24
810.59	296.44
810.769	284.16
810.948	235
811.127	105.98
811.306	204.28
811.485	284.16
811.664	296.44
811.843	286.2
812.022	261.63
812.201	151.04
812.38	192
812.559	175.61
812.737	294.4
812.916	214.52
813.095	189.95
813.274	284.16
813.453	218.62
813.632	257.53
813.811	294.4
813.989	202.24
814.168	148.99
814.347	196.09
814.526	206.33
814.704	253.44
814.883	271.87
815.062	212.48
815.24	226.81
815.419	157.18
815.598	171.52
815.776	157.18
815.955	187.9
816.133	105.98
816.312	271.87
816.49	183.81
816.669	214.52
816.847	148.99
817.026	198.14
817.204	247.29
817.383	208.38
817.561	173.57
817.74	224.76
817.918	208.38
818.097	171.52
818.275	83.45
818.453	136.7
818.632	169.47
818.81	210.43
818.988	65.02
819.167	136.7
819.345	167.42
819.523	177.66
819.701	214.52
819.879	237.05
820.058	132.61
820.236	118.27
820.414	134.65
820.592	235
820.77	187.9
820.948	93.69
821.127	210.43
821.305	163.33
821.483	130.56
821.661	255.48
821.839	194.05
822.017	198.14
822.195	132.61
822.373	185.85
822.551	138.75
822.729	169.47
822.907	210.43
823.085	189.95
823.262	124.41
823.44	146.94
823.618	192
823.796	136.7
823.974	177.66
824.152	175.61
824.329	208.38
824.507	153.09
824.685	151.04
824.863	93.69
825.04	120.32
825.218	132.61
825.396	140.8
825.574	87.55
825.751	103.93
825.929	200.19
826.107	169.47
826.284	187.9
826.462	173.57
826.639	110.08
826.817	54.78
826.994	144.89
827.172	77.31
827.349	235
827.527	108.03
827.704	99.84
827.882	175.61
828.059	148.99
828.237	75.26
828.414	200.19
828.591	97.79
828.769	122.37
828.946	62.98
829.124	142.85
829.301	167.42
829.478	69.12
829.655	173.57
829.833	116.22
830.01	-41.47
830.187	89.6
830.364	62.98
830.542	108.03
830.719	187.9
830.896	52.74
831.073	71.17
831.25	114.17
831.427	73.21
831.604	99.84
831.782	13.82
831.959	116.22
832.136	122.37
832.313	126.46
832.49	91.65
832.667	126.46
832.844	89.6
833.021	155.13
833.198	97.79
833.374	118.27
833.551	124.41
833.728	44.54
833.905	230.91
834.082	19.97
834.259	71.17
834.436	157.18
834.612	75.26
834.789	112.13
834.966	103.93
835.143	99.84
835.319	105.98
835.496	210.43
835.673	91.65
835.85	142.85
836.026	93.69
836.203	126.46
836.38	56.83
836.556	75.26
836.733	75.26
836.909	175.61
837.086	81.41
837.262	142.85
837.439	44.54
837.616	85.5
837.792	58.88
837.968	124.41
838.145	50.69
838.321	17.92
838.498	87.55
838.674	67.07
838.851	62.98
839.027	132.61
839.203	95.74
839.38	60.93
839.556	77.31
839.732	155.13
839.909	85.5
840.085	97.79
840.261	79.36
840.437	85.5
840.614	58.88
840.79	40.45
840.966	177.66
841.142	50.69
841.318	99.84
841.494	91.65
841.671	71.17
841.847	65.02
842.023	50.69
842.199	155.13
842.375	126.46
842.551	19.97
842.727	62.98
842.903	144.89
843.079	-6.66
843.255	146.94
843.431	87.55
843.607	112.13
843.783	-8.7
843.959	73.21
844.134	-12.8
844.31	132.61
844.486	24.06
844.662	-16.9
844.838	7.68
845.013	56.83
845.189	153.09
845.365	97.79
845.541	11.78
845.716	101.89
845.892	87.55
846.068	62.98
846.244	128.51
846.419	128.51
846.595	26.11
846.77	85.5
846.946	103.93
847.122	52.74
847.297	87.55
847.473	124.41
847.648	-8.7
847.824	81.41
847.999	34.3
848.175	75.26
848.35	159.23
848.526	50.69
848.701	108.03
848.876	140.8
849.052	67.07
849.227	-0.51
849.403	46.59
849.578	118.27
849.753	81.41
849.929	114.17
850.104	22.02
850.279	73.21
850.454	128.51
850.63	54.78
850.805	112.13
850.98	89.6
851.155	26.11
851.33	91.65
851.505	-14.85
851.681	130.56
851.856	87.55
852.031	19.97
852.206	99.84
852.381	58.88
852.556	56.83
852.731	108.03
852.906	-18.94
853.081	130.56
853.256	120.32
853.431	22.02
853.606	3.58
853.781	50.69
853.956	32.26
854.131	58.88
854.305	-47.62
854.48	13.82
854.655	-51.71
854.83	36.35
855.005	81.41
855.18	60.93
855.354	77.31
855.529	24.06
855.704	-4.61
855.879	67.07
856.053	-4.61
856.228	105.98
856.403	28.16
856.577	67.07
856.752	-57.86
856.926	32.26
857.101	5.63
857.276	-72.19
857.45	32.26
857.625	58.88
857.799	67.07
857.974	69.12
858.148	87.55
858.323	120.32
858.497	93.69
858.672	93.69
858.846	-31.23
859.02	79.36
859.195	13.82
859.369	9.73
859.543	40.45
859.718	24.06
859.892	42.5
860.066	120.32
860.241	-25.09
860.415	58.88
860.589	93.69
860.763	-10.75
860.938	3.58
861.112	120.32
861.286	91.65
861.46	75.26
861.634	-18.94
861.808	42.5
861.982	58.88
862.157	15.87
862.331	-0.51
862.505	-31.23
862.679	-88.57
862.853	3.58
863.027	-53.76
863.201	95.74
863.375	34.3
863.549	99.84
863.722	46.59
863.896	28.16
864.07	-45.57
864.244	-4.61
864.418	26.11
864.592	17.92
864.766	11.78
864.939	3.58
865.113	65.02
865.287	44.54
865.461	17.92
865.634	-8.7
865.808	67.07
865.982	32.26
866.156	24.06
866.329	17.92
866.503	22.02
866.676	52.74
866.85	60.93
867.024	34.3
867.197	138.75
867.371	-4.61
867.544	87.55
867.718	-70.14
867.891	60.93
868.065	-16.9
868.238	77.31
868.412	65.02
868.585	44.54
868.759	5.63
868.932	17.92
869.105	1.54
869.279	30.21
869.452	-14.85
869.625	67.07
869.799	26.11
869.972	-14.85
870.145	9.73
870.319	34.3
870.492	-16.9
870.665	54.78
870.838	-45.57
871.011	-4.61
871.185	19.97
871.358	-6.66
871.531	58.88
871.704	11.78
871.877	-8.7
872.05	9.73
872.223	-23.04
872.396	67.07
872.569	108.03
872.742	15.87
872.915	56.83
873.088	32.26
873.261	-12.8
873.434	-16.9
873.607	1.54
873.78	73.21
873.953	-88.57
874.126	-35.33
874.299	108.03
874.471	34.3
874.644	30.21
874.817	5.63
874.99	118.27
875.163	9.73
875.335	28.16
875.508	-27.14
875.681	67.07
875.853	-29.18
876.026	26.11
876.199	-16.9
876.371	1.54
876.544	-14.85
876.717	36.35
876.889	40.45
877.062	73.21
877.234	5.63
877.407	62.98
877.579	28.16
877.752	83.45
877.924	-4.61
878.097	5.63
878.269	48.64
878.442	60.93
878.614	60.93
878.786	77.31
878.959	60.93
879.131	15.87
879.303	-37.38
879.476	1.54
879.648	112.13
879.82	93.69
879.993	-8.7
880.165	-25.09
880.337	40.45
880.509	58.88
880.681	-8.7
880.854	7.68
881.026	112.13
881.198	245.24
881.37	-37.38
881.542	-47.62
881.714	58.88
881.886	-23.04
882.058	-74.24
882.23	13.82
882.402	5.63
882.574	19.97
882.746	73.21
882.918	13.82
883.09	26.11
883.262	-23.04
883.434	-2.56
883.606	-61.95
883.778	-35.33
883.95	153.09
884.122	-78.33
884.293	42.5
884.465	58.88
884.637	-10.75
884.809	-68.09
884.98	65.02
885.152	24.06
885.324	38.4
885.496	-35.33
885.667	26.11
885.839	38.4
886.011	50.69
886.182	30.21
886.354	17.92
886.525	15.87
886.697	-16.9
886.869	-33.28
887.04	67.07
887.212	5.63
887.383	3.58
887.555	-4.61
887.726	22.02
887.897	7.68
888.069	-6.66
888.24	48.64
888.412	-23.04
888.583	-31.23
888.754	71.17
888.926	-39.42
889.097	50.69
889.268	7.68
889.44	19.97
889.611	-29.18
889.782	-16.9
889.953	71.17
890.125	65.02
890.296	-78.33
890.467	62.98
890.638	32.26
890.809	-18.94
890.98	-6.66
891.151	91.65
891.323	15.87
891.494	58.88
891.665	-29.18
891.836	26.11
892.007	42.5
892.178	1.54
892.349	-10.75
892.52	28.16
892.691	22.02
892.862	-23.04
893.032	22.02
893.203	-27.14
893.374	65.02
893.545	54.78
893.716	46.59
893.887	77.31
894.057	42.5
894.228	67.07
894.399	11.78
894.57	62.98
894.74	30.21
894.911	17.92
895.082	-10.75
895.253	-0.51
895.423	-12.8
895.594	52.74
895.764	-35.33
895.935	-10.75
896.106	-35.33
896.276	30.21
896.447	-2.56
896.617	-4.61
896.788	-41.47
896.958	-23.04
897.129	5.63
897.299	-49.66
897.47	58.88
897.64	48.64
897.81	-2.56
897.981	52.74
898.151	-104.96
898.322	40.45
898.492	-8.7
898.662	13.82
898.832	28.16
899.003	34.3
899.173	44.54
899.343	-55.81
899.513	-12.8
