Data from USB4F104151__99__12-13-19-398.txt Node

Date: Fri Mar 14 12:13:19 EDT 2025
User: louis
Spectrometer: USB4F10415
Trigger mode: 4
Integration Time (sec): 5.000000E-2
Scans to average: 1
Electric dark correction enabled: true
Nonlinearity correction enabled: false
Boxcar width: 0
XAxis mode: Wavelengths
Number of Pixels in Spectrum: 3648
>>>>>Begin Spectral Data<<<<<
178.204	-178.69
178.424	-178.69
178.644	-178.69
178.864	-248.32
179.084	-166.4
179.304	-2.56
179.524	5.63
179.744	-39.42
179.964	44.54
180.184	5.63
180.404	13.82
180.624	30.21
180.844	36.35
181.064	-43.52
181.283	-20.99
181.503	-70.14
181.723	40.45
181.943	-86.53
182.163	58.88
182.383	-41.47
182.602	15.87
182.822	22.02
183.042	79.36
183.262	3.58
183.482	85.5
183.701	67.07
183.921	7.68
184.141	13.82
184.361	103.93
184.58	-29.18
184.8	56.83
185.02	5.63
185.239	24.06
185.459	36.35
185.679	56.83
185.898	-57.86
186.118	-20.99
186.338	-33.28
186.557	87.55
186.777	-84.48
186.997	42.5
187.216	-14.85
187.436	155.13
187.655	-12.8
187.875	110.08
188.095	15.87
188.314	85.5
188.534	24.06
188.753	1.54
188.973	19.97
189.192	24.06
189.412	1.54
189.631	15.87
189.851	22.02
190.07	89.6
190.29	-47.62
190.509	-10.75
190.729	-8.7
190.948	62.98
191.168	167.42
191.387	28.16
191.607	-0.51
191.826	36.35
192.045	75.26
192.265	71.17
192.484	38.4
192.704	-2.56
192.923	75.26
193.142	108.03
193.362	126.46
193.581	79.36
193.8	-33.28
194.02	138.75
194.239	56.83
194.458	93.69
194.678	-20.99
194.897	81.41
195.116	118.27
195.335	40.45
195.555	67.07
195.774	87.55
195.993	65.02
196.212	44.54
196.432	-76.29
196.651	-10.75
196.87	50.69
197.089	185.85
197.308	28.16
197.528	15.87
197.747	-35.33
197.966	30.21
198.185	89.6
198.404	52.74
198.623	71.17
198.842	19.97
199.062	69.12
199.281	89.6
199.5	22.02
199.719	114.17
199.938	83.45
200.157	77.31
200.376	85.5
200.595	13.82
200.814	50.69
201.033	-64
201.252	34.3
201.471	3.58
201.69	15.87
201.909	-4.61
202.128	138.75
202.347	93.69
202.566	65.02
202.785	-59.9
203.004	-59.9
203.223	116.22
203.442	69.12
203.661	-82.43
203.879	24.06
204.098	30.21
204.317	-4.61
204.536	89.6
204.755	32.26
204.974	56.83
205.193	19.97
205.411	22.02
205.63	7.68
205.849	1.54
206.068	-80.38
206.287	-39.42
206.505	136.7
206.724	22.02
206.943	-47.62
207.162	79.36
207.381	140.8
207.599	11.78
207.818	13.82
208.037	5.63
208.255	-2.56
208.474	-0.51
208.693	62.98
208.911	-16.9
209.13	48.64
209.349	62.98
209.567	77.31
209.786	99.84
210.005	69.12
210.223	36.35
210.442	-31.23
210.661	50.69
210.879	-2.56
211.098	1.54
211.316	-18.94
211.535	24.06
211.753	22.02
211.972	11.78
212.191	32.26
212.409	52.74
212.628	50.69
212.846	-88.57
213.065	34.3
213.283	77.31
213.502	50.69
213.72	13.82
213.938	-0.51
214.157	38.4
214.375	15.87
214.594	13.82
214.812	46.59
215.031	46.59
215.249	50.69
215.467	3.58
215.686	58.88
215.904	69.12
216.122	-57.86
216.341	-8.7
216.559	26.11
216.778	52.74
216.996	134.65
217.214	-25.09
217.432	9.73
217.651	-14.85
217.869	5.63
218.087	46.59
218.306	15.87
218.524	58.88
218.742	-25.09
218.96	-2.56
219.179	-2.56
219.397	15.87
219.615	161.28
219.833	1.54
220.051	11.78
220.27	75.26
220.488	105.98
220.706	40.45
220.924	-18.94
221.142	15.87
221.36	52.74
221.578	-29.18
221.796	13.82
222.015	-18.94
222.233	65.02
222.451	62.98
222.669	-41.47
222.887	28.16
223.105	30.21
223.323	-37.38
223.541	11.78
223.759	54.78
223.977	-47.62
224.195	-20.99
224.413	87.55
224.631	30.21
224.849	34.3
225.067	110.08
225.285	-29.18
225.503	-4.61
225.721	-4.61
225.939	-8.7
226.157	7.68
226.375	171.52
226.592	-70.14
226.81	-2.56
227.028	95.74
227.246	93.69
227.464	48.64
227.682	44.54
227.9	165.37
228.117	46.59
228.335	-0.51
228.553	-14.85
228.771	42.5
228.989	81.41
229.206	-2.56
229.424	-64
229.642	-55.81
229.86	-4.61
230.077	15.87
230.295	-14.85
230.513	7.68
230.731	67.07
230.948	122.37
231.166	52.74
231.384	-57.86
231.601	46.59
231.819	136.7
232.037	22.02
232.254	-39.42
232.472	-2.56
232.689	-10.75
232.907	65.02
233.125	3.58
233.342	79.36
233.56	-66.05
233.777	56.83
233.995	60.93
234.213	65.02
234.43	50.69
234.648	26.11
234.865	48.64
235.083	-6.66
235.3	15.87
235.518	52.74
235.735	73.21
235.953	42.5
236.17	73.21
236.388	17.92
236.605	-57.86
236.822	-10.75
237.04	30.21
237.257	124.41
237.475	-88.57
237.692	-82.43
237.909	7.68
238.127	15.87
238.344	-8.7
238.562	54.78
238.779	40.45
238.996	-33.28
239.214	-0.51
239.431	73.21
239.648	-29.18
239.865	85.5
240.083	91.65
240.3	122.37
240.517	-18.94
240.735	-37.38
240.952	91.65
241.169	58.88
241.386	17.92
241.603	13.82
241.821	-74.24
242.038	52.74
242.255	-23.04
242.472	-47.62
242.689	3.58
242.907	75.26
243.124	56.83
243.341	48.64
243.558	81.41
243.775	50.69
243.992	-37.38
244.209	17.92
244.426	163.33
244.643	122.37
244.86	30.21
245.078	38.4
245.295	60.93
245.512	52.74
245.729	1.54
245.946	17.92
246.163	1.54
246.38	36.35
246.597	-16.9
246.814	-14.85
247.031	-43.52
247.248	60.93
247.464	50.69
247.681	17.92
247.898	87.55
248.115	85.5
248.332	-16.9
248.549	79.36
248.766	177.66
248.983	36.35
249.2	3.58
249.417	54.78
249.633	-43.52
249.85	44.54
250.067	67.07
250.284	65.02
250.501	79.36
250.717	151.04
250.934	-39.42
251.151	-23.04
251.368	9.73
251.585	67.07
251.801	5.63
252.018	-29.18
252.235	44.54
252.451	50.69
252.668	-14.85
252.885	118.27
253.102	32.26
253.318	-0.51
253.535	19.97
253.752	5.63
253.968	30.21
254.185	-59.9
254.401	22.02
254.618	17.92
254.835	32.26
255.051	163.33
255.268	-2.56
255.484	73.21
255.701	-20.99
255.917	34.3
256.134	7.68
256.351	-16.9
256.567	-57.86
256.784	17.92
257	-96.77
257.217	97.79
257.433	71.17
257.65	13.82
257.866	34.3
258.082	1.54
258.299	13.82
258.515	105.98
258.732	11.78
258.948	-37.38
259.165	114.17
259.381	5.63
259.597	3.58
259.814	34.3
260.03	-2.56
260.246	50.69
260.463	-10.75
260.679	91.65
260.895	52.74
261.112	44.54
261.328	-0.51
261.544	-4.61
261.761	161.28
261.977	-4.61
262.193	-0.51
262.409	-4.61
262.626	-12.8
262.842	56.83
263.058	-70.14
263.274	36.35
263.49	58.88
263.707	77.31
263.923	30.21
264.139	-66.05
264.355	54.78
264.571	56.83
264.787	40.45
265.004	73.21
265.22	11.78
265.436	56.83
265.652	-8.7
265.868	-12.8
266.084	-74.24
266.3	-18.94
266.516	48.64
266.732	58.88
266.948	91.65
267.164	-8.7
267.38	83.45
267.596	48.64
267.812	50.69
268.028	-6.66
268.244	15.87
268.46	42.5
268.676	-18.94
268.892	34.3
269.108	36.35
269.324	32.26
269.54	-14.85
269.756	52.74
269.972	-12.8
270.188	11.78
270.403	28.16
270.619	-20.99
270.835	42.5
271.051	13.82
271.267	7.68
271.483	-41.47
271.698	65.02
271.914	71.17
272.13	-10.75
272.346	24.06
272.562	71.17
272.777	62.98
272.993	-16.9
273.209	-14.85
273.425	19.97
273.64	-12.8
273.856	54.78
274.072	-43.52
274.287	-43.52
274.503	50.69
274.719	60.93
274.934	50.69
275.15	-102.91
275.366	-8.7
275.581	-35.33
275.797	93.69
276.012	65.02
276.228	26.11
276.444	48.64
276.659	112.13
276.875	-39.42
277.09	3.58
277.306	5.63
277.521	38.4
277.737	75.26
277.952	46.59
278.168	13.82
278.383	50.69
278.599	-16.9
278.814	7.68
279.03	77.31
279.245	62.98
279.461	-33.28
279.676	15.87
279.892	22.02
280.107	3.58
280.322	-49.66
280.538	3.58
280.753	48.64
280.969	48.64
281.184	9.73
281.399	24.06
281.615	7.68
281.83	54.78
282.045	-31.23
282.26	36.35
282.476	-0.51
282.691	91.65
282.906	54.78
283.122	-10.75
283.337	30.21
283.552	34.3
283.767	26.11
283.983	-14.85
284.198	15.87
284.413	-2.56
284.628	44.54
284.843	62.98
285.058	9.73
285.274	40.45
285.489	17.92
285.704	56.83
285.919	44.54
286.134	67.07
286.349	1.54
286.564	26.11
286.779	157.18
286.995	-20.99
287.21	-37.38
287.425	7.68
287.64	11.78
287.855	-8.7
288.07	26.11
288.285	-29.18
288.5	54.78
288.715	97.79
288.93	-29.18
289.145	1.54
289.36	34.3
289.575	-43.52
289.79	77.31
290.004	9.73
290.219	-35.33
290.434	40.45
290.649	-25.09
290.864	-14.85
291.079	-2.56
291.294	15.87
291.509	34.3
291.724	36.35
291.938	24.06
292.153	40.45
292.368	52.74
292.583	-18.94
292.798	73.21
293.012	-12.8
293.227	30.21
293.442	-4.61
293.657	81.41
293.871	105.98
294.086	40.45
294.301	95.74
294.516	75.26
294.73	13.82
294.945	-0.51
295.16	36.35
295.374	89.6
295.589	130.56
295.804	-37.38
296.018	-45.57
296.233	77.31
296.447	110.08
296.662	7.68
296.877	81.41
297.091	87.55
297.306	28.16
297.52	48.64
297.735	62.98
297.949	-47.62
298.164	-10.75
298.378	30.21
298.593	42.5
298.807	-16.9
299.022	-2.56
299.236	40.45
299.451	36.35
299.665	15.87
299.88	7.68
300.094	34.3
300.309	32.26
300.523	67.07
300.737	-18.94
300.952	58.88
301.166	-12.8
301.381	-31.23
301.595	32.26
301.809	-14.85
302.024	40.45
302.238	-14.85
302.452	110.08
302.667	17.92
302.881	24.06
303.095	75.26
303.309	77.31
303.524	-29.18
303.738	-33.28
303.952	1.54
304.166	-0.51
304.381	-43.52
304.595	114.17
304.809	22.02
305.023	13.82
305.237	13.82
305.452	-20.99
305.666	24.06
305.88	3.58
306.094	103.93
306.308	26.11
306.522	62.98
306.736	75.26
306.95	3.58
307.164	-55.81
307.379	9.73
307.593	183.81
307.807	89.6
308.021	124.41
308.235	5.63
308.449	3.58
308.663	-23.04
308.877	83.45
309.091	65.02
309.305	-31.23
309.519	-107.01
309.733	42.5
309.947	-70.14
310.161	52.74
310.374	24.06
310.588	120.32
310.802	-74.24
311.016	36.35
311.23	-33.28
311.444	48.64
311.658	15.87
311.872	40.45
312.085	73.21
312.299	79.36
312.513	44.54
312.727	69.12
312.941	-49.66
313.154	13.82
313.368	87.55
313.582	30.21
313.796	73.21
314.009	-8.7
314.223	28.16
314.437	-31.23
314.651	71.17
314.864	87.55
315.078	-4.61
315.292	-45.57
315.505	-16.9
315.719	22.02
315.933	65.02
316.146	50.69
316.36	26.11
316.573	87.55
316.787	71.17
317.001	71.17
317.214	-59.9
317.428	-41.47
317.641	28.16
317.855	-0.51
318.068	-12.8
318.282	7.68
318.495	36.35
318.709	13.82
318.922	17.92
319.136	108.03
319.349	42.5
319.563	-6.66
319.776	22.02
319.99	-35.33
320.203	85.5
320.417	-2.56
320.63	44.54
320.843	142.85
321.057	-16.9
321.27	24.06
321.483	54.78
321.697	95.74
321.91	19.97
322.124	48.64
322.337	99.84
322.55	22.02
322.763	-10.75
322.977	11.78
323.19	-2.56
323.403	-4.61
323.617	-4.61
323.83	105.98
324.043	-12.8
324.256	58.88
324.469	19.97
324.683	11.78
324.896	7.68
325.109	-12.8
325.322	-27.14
325.535	56.83
325.748	50.69
325.962	36.35
326.175	56.83
326.388	1.54
326.601	48.64
326.814	13.82
327.027	46.59
327.24	118.27
327.453	-45.57
327.666	40.45
327.879	71.17
328.092	69.12
328.305	24.06
328.518	-8.7
328.731	46.59
328.944	34.3
329.157	44.54
329.37	-90.62
329.583	71.17
329.796	79.36
330.009	-27.14
330.222	62.98
330.435	11.78
330.648	-4.61
330.861	-4.61
331.073	85.5
331.286	89.6
331.499	44.54
331.712	62.98
331.925	-10.75
332.138	71.17
332.35	81.41
332.563	-6.66
332.776	93.69
332.989	1.54
333.202	46.59
333.414	62.98
333.627	-10.75
333.84	28.16
334.053	116.22
334.265	28.16
334.478	3.58
334.691	17.92
334.903	42.5
335.116	-14.85
335.329	28.16
335.541	50.69
335.754	120.32
335.966	40.45
336.179	69.12
336.392	-4.61
336.604	122.37
336.817	-80.38
337.029	60.93
337.242	9.73
337.454	62.98
337.667	-0.51
337.88	167.42
338.092	30.21
338.305	-12.8
338.517	5.63
338.729	95.74
338.942	77.31
339.154	-18.94
339.367	103.93
339.579	34.3
339.792	-25.09
340.004	93.69
340.217	-70.14
340.429	56.83
340.641	-27.14
340.854	5.63
341.066	-27.14
341.278	91.65
341.491	134.65
341.703	-4.61
341.915	99.84
342.128	79.36
342.34	83.45
342.552	5.63
342.764	85.5
342.977	-64
343.189	105.98
343.401	1.54
343.613	13.82
343.826	-23.04
344.038	-57.86
344.25	40.45
344.462	46.59
344.674	30.21
344.886	30.21
345.099	24.06
345.311	52.74
345.523	69.12
345.735	24.06
345.947	73.21
346.159	3.58
346.371	62.98
346.583	17.92
346.795	128.51
347.007	60.93
347.219	56.83
347.431	71.17
347.643	128.51
347.855	-27.14
348.067	71.17
348.279	-51.71
348.491	65.02
348.703	73.21
348.915	38.4
349.127	-47.62
349.339	99.84
349.551	36.35
349.763	108.03
349.975	73.21
350.187	97.79
350.399	89.6
350.61	58.88
350.822	34.3
351.034	50.69
351.246	122.37
351.458	77.31
351.669	40.45
351.881	26.11
352.093	7.68
352.305	118.27
352.517	44.54
352.728	118.27
352.94	-25.09
353.152	89.6
353.363	-31.23
353.575	56.83
353.787	110.08
353.999	112.13
354.21	65.02
354.422	30.21
354.633	11.78
354.845	-57.86
355.057	83.45
355.268	56.83
355.48	3.58
355.692	5.63
355.903	60.93
356.115	-10.75
356.326	-88.57
356.538	116.22
356.749	85.5
356.961	103.93
357.172	-8.7
357.384	-23.04
357.595	138.75
357.807	44.54
358.018	-57.86
358.23	95.74
358.441	103.93
358.653	46.59
358.864	-16.9
359.075	13.82
359.287	44.54
359.498	91.65
359.709	79.36
359.921	34.3
360.132	62.98
360.344	3.58
360.555	56.83
360.766	5.63
360.977	40.45
361.189	81.41
361.4	-2.56
361.611	71.17
361.823	30.21
362.034	30.21
362.245	5.63
362.456	5.63
362.667	40.45
362.879	15.87
363.09	73.21
363.301	30.21
363.512	44.54
363.723	46.59
363.935	73.21
364.146	38.4
364.357	5.63
364.568	67.07
364.779	-66.05
364.99	95.74
365.201	36.35
365.412	81.41
365.623	-51.71
365.834	32.26
366.045	3.58
366.256	75.26
366.467	52.74
366.678	38.4
366.889	79.36
367.1	-10.75
367.311	3.58
367.522	30.21
367.733	101.89
367.944	60.93
368.155	-0.51
368.366	75.26
368.577	89.6
368.788	91.65
368.999	56.83
369.209	91.65
369.42	108.03
369.631	163.33
369.842	112.13
370.053	22.02
370.264	13.82
370.474	15.87
370.685	40.45
370.896	11.78
371.107	136.7
371.317	122.37
371.528	46.59
371.739	108.03
371.95	48.64
372.16	34.3
372.371	-88.57
372.582	34.3
372.792	97.79
373.003	81.41
373.214	7.68
373.424	103.93
373.635	-27.14
373.846	44.54
374.056	62.98
374.267	32.26
374.477	71.17
374.688	54.78
374.898	99.84
375.109	75.26
375.319	67.07
375.53	62.98
375.74	130.56
375.951	13.82
376.161	40.45
376.372	56.83
376.582	17.92
376.793	30.21
377.003	52.74
377.214	50.69
377.424	81.41
377.635	-4.61
377.845	-2.56
378.055	103.93
378.266	7.68
378.476	34.3
378.686	30.21
378.897	103.93
379.107	83.45
379.317	-18.94
379.528	-2.56
379.738	116.22
379.948	-35.33
380.158	81.41
380.369	58.88
380.579	40.45
380.789	46.59
380.999	28.16
381.21	77.31
381.42	161.28
381.63	36.35
381.84	81.41
382.05	58.88
382.261	144.89
382.471	101.89
382.681	19.97
382.891	38.4
383.101	62.98
383.311	-25.09
383.521	-10.75
383.731	95.74
383.941	85.5
384.151	83.45
384.361	34.3
384.571	69.12
384.781	79.36
384.991	155.13
385.201	112.13
385.411	132.61
385.621	89.6
385.831	54.78
386.041	-20.99
386.251	-18.94
386.461	73.21
386.671	122.37
386.881	22.02
387.091	91.65
387.301	142.85
387.511	62.98
387.72	87.55
387.93	126.46
388.14	-8.7
388.35	34.3
388.56	112.13
388.769	62.98
388.979	-25.09
389.189	30.21
389.399	77.31
389.609	124.41
389.818	36.35
390.028	62.98
390.238	58.88
390.447	34.3
390.657	28.16
390.867	19.97
391.076	-8.7
391.286	97.79
391.496	-8.7
391.705	3.58
391.915	87.55
392.125	75.26
392.334	65.02
392.544	118.27
392.753	28.16
392.963	81.41
393.172	42.5
393.382	3.58
393.591	169.47
393.801	5.63
394.01	128.51
394.22	19.97
394.429	83.45
394.639	-45.57
394.848	122.37
395.058	89.6
395.267	77.31
395.477	114.17
395.686	146.94
395.895	97.79
396.105	183.81
396.314	83.45
396.524	138.75
396.733	36.35
396.942	136.7
397.152	112.13
397.361	79.36
397.57	50.69
397.78	120.32
397.989	95.74
398.198	112.13
398.407	77.31
398.617	75.26
398.826	79.36
399.035	32.26
399.244	142.85
399.453	136.7
399.663	110.08
399.872	132.61
400.081	110.08
400.29	120.32
400.499	11.78
400.708	118.27
400.917	60.93
401.127	120.32
401.336	40.45
401.545	181.76
401.754	155.13
401.963	122.37
402.172	56.83
402.381	42.5
402.59	116.22
402.799	134.65
403.008	122.37
403.217	103.93
403.426	103.93
403.635	146.94
403.844	71.17
404.053	165.37
404.262	118.27
404.471	241.15
404.68	134.65
404.888	130.56
405.097	132.61
405.306	103.93
405.515	198.14
405.724	120.32
405.933	132.61
406.142	183.81
406.35	198.14
406.559	151.04
406.768	159.23
406.977	235
407.185	259.58
407.394	181.76
407.603	214.52
407.812	228.86
408.02	288.25
408.229	226.81
408.438	282.11
408.646	161.28
408.855	247.29
409.064	247.29
409.272	300.54
409.481	282.11
409.69	316.92
409.898	208.38
410.107	364.03
410.315	316.92
410.524	341.5
410.733	341.5
410.941	339.45
411.15	415.23
411.358	441.85
411.567	450.04
411.775	359.93
411.984	400.89
412.192	521.72
412.401	439.8
412.609	488.95
412.818	515.58
413.026	531.96
413.234	458.23
413.443	540.15
413.651	548.34
413.86	554.49
414.068	691.7
414.276	665.08
414.485	648.69
414.693	617.97
414.901	749.04
415.11	706.04
415.318	703.99
415.526	824.82
415.734	798.2
415.943	787.96
416.151	873.97
416.359	873.97
416.567	921.07
416.776	947.7
416.984	931.31
417.192	1021.42
417.4	949.75
417.608	998.9
417.817	873.97
418.025	1144.3
418.233	1201.65
418.441	1177.07
418.649	1115.63
418.857	1357.29
419.065	1402.35
419.273	1338.86
419.481	1342.96
419.689	1390.06
419.897	1476.07
420.105	1510.89
420.313	1582.57
420.521	1713.64
420.729	1701.35
420.937	1797.6
421.145	1768.93
421.353	1918.43
421.561	1973.73
421.769	2004.45
421.977	2094.56
422.185	1969.63
422.393	2207.2
422.601	2291.17
422.809	2196.96
423.017	2235.87
423.224	2358.75
423.432	2569.69
423.64	2532.83
423.848	2819.54
424.056	2711
424.263	2942.42
424.471	2803.16
424.679	3050.96
424.887	3141.07
425.094	3192.27
425.302	3253.71
425.51	3327.44
425.718	3446.22
425.925	3421.64
426.133	3597.77
426.341	3898.82
426.548	3970.5
426.756	3945.92
426.964	4068.8
427.171	4234.69
427.379	4369.85
427.586	4451.77
427.794	4660.66
428.001	4881.85
428.209	5123.51
428.417	5062.07
428.624	5186.99
428.832	5453.23
429.039	5326.25
429.247	5252.53
429.454	5803.43
429.662	6235.55
429.869	5830.06
430.076	5987.75
430.284	6012.32
430.491	6288.8
430.699	6684.06
430.906	6559.13
431.114	6628.76
431.321	6829.46
431.528	7075.22
431.736	7380.37
431.943	7923.08
432.15	7587.21
432.358	7873.93
432.565	8224.13
432.772	8070.53
432.979	8643.96
433.187	8572.29
433.394	8607.1
433.601	9268.59
433.808	9313.65
434.016	9252.21
434.223	9704.81
434.43	10089.83
434.637	10095.97
434.844	10691.93
435.052	10968.41
435.259	10782.04
435.466	11173.21
435.673	10960.22
435.88	11324.76
436.087	11824.46
436.294	11992.39
436.501	11902.28
436.708	12152.13
436.915	12752.19
437.122	13006.14
437.329	12975.42
437.537	13411.64
437.743	13606.19
437.95	13757.74
438.157	14056.75
438.364	14605.6
438.571	15023.39
438.778	14998.81
438.985	16452.87
439.192	15519
439.399	16143.63
439.606	15887.63
439.813	16803.07
440.02	17698.03
440.227	17448.18
440.433	16942.33
440.64	17722.61
440.847	17650.93
441.054	17925.36
441.261	19561.69
441.467	19031.26
441.674	19344.6
441.881	20198.6
442.088	19973.33
442.294	20253.9
442.501	20411.59
442.708	21230.78
442.914	21728.44
443.121	22576.3
443.328	22064.3
443.534	23590.04
443.741	22723.75
443.948	22424.75
444.154	24020.11
444.361	24302.73
444.568	24263.82
444.774	24401.04
444.981	24382.6
445.187	25476.22
445.394	26371.18
445.6	25658.49
445.807	28351.57
446.013	27270.24
446.22	27743.32
446.426	28660.81
446.633	28789.83
446.839	30231.6
447.046	28818.5
447.252	30465.07
447.459	30372.91
447.665	30071.86
447.871	31722.52
448.078	33154.05
448.284	31726.62
448.491	32365.59
448.697	33567.74
448.903	34370.55
449.11	34282.48
449.316	33907.71
449.522	34907.12
449.728	35406.82
449.935	35580.9
450.141	35599.33
450.347	36451.28
450.553	35341.28
450.76	35748.83
450.966	37381.06
451.172	36680.66
451.378	37542.85
451.584	36625.36
451.791	37688.26
451.997	37600.19
452.203	38218.68
452.409	38214.58
452.615	37796.8
452.821	36570.07
453.027	36193.24
453.233	38425.53
453.44	36615.12
453.646	37071.82
453.852	37434.31
454.058	37950.4
454.264	36301.78
454.47	37376.97
454.676	36150.23
454.882	37690.3
455.088	34704.37
455.294	35382.24
455.5	35711.97
455.705	35769.31
455.911	34374.64
456.117	33813.5
456.323	33567.74
456.529	31712.28
456.735	32908.3
456.941	32031.77
457.147	31601.69
457.352	30630.96
457.558	30368.82
457.764	30590
457.97	29897.78
458.176	29215.81
458.381	28769.35
458.587	27931.73
458.793	27767.9
458.999	26078.32
459.204	28396.62
459.41	27079.78
459.616	25666.68
459.821	25986.16
460.027	25502.84
460.233	25076.87
460.438	23653.53
460.644	24118.42
460.85	22858.92
461.055	22598.82
461.261	22637.73
461.466	20892.87
461.672	20425.93
461.878	21976.24
462.083	20403.4
462.289	19864.78
462.494	19524.82
462.7	18689.25
462.905	18144.49
463.111	18922.72
463.316	18814.18
463.522	18658.53
463.727	18963.68
463.932	18846.94
464.138	18418.92
464.343	18642.15
464.549	17810.67
464.754	18341.1
464.959	18353.38
465.165	18296.04
465.37	17415.41
465.575	16989.44
465.781	17820.91
465.986	18011.37
466.191	17247.48
466.397	16866.56
466.602	15844.62
466.807	16825.6
467.012	16889.09
467.218	16631.04
467.423	16289.03
467.628	16381.19
467.833	17007.87
468.038	16409.86
468.244	15947.02
468.449	16628.99
468.654	16176.39
468.859	16057.61
469.064	15916.3
469.269	15289.62
469.474	15557.91
469.679	15848.72
469.885	15492.37
470.09	15656.21
470.295	15131.93
470.5	14882.08
470.705	15142.17
470.91	14855.45
471.115	14669.09
471.32	14886.17
471.525	14920.99
471.73	14427.43
471.935	14404.9
472.139	13843.76
472.344	13970.73
472.549	13997.35
472.754	13729.07
472.959	13464.88
473.164	13301.05
473.369	12948.79
473.574	13434.16
473.778	13419.83
473.983	13163.83
474.188	13251.89
474.393	12696.89
474.598	12995.9
474.802	12307.78
475.007	12350.79
475.212	12498.24
475.417	12064.07
475.621	12006.73
475.826	12125.51
476.031	11742.54
476.235	11715.92
476.44	11791.69
476.645	11486.54
476.849	11711.82
477.054	11308.37
477.259	11265.36
477.463	11122.01
477.668	11054.42
477.872	11056.47
478.077	10710.36
478.282	10761.56
478.486	10739.04
478.691	10464.61
478.895	10476.9
479.1	10472.8
479.304	10495.33
479.509	9942.38
479.713	10237.28
479.918	10057.06
480.122	9751.92
480.326	9979.24
480.531	9948.52
480.735	9837.93
480.94	9901.42
481.144	10063.21
481.348	9483.63
481.553	9880.94
481.757	9497.97
481.961	9852.27
482.166	10009.96
482.37	9817.45
482.574	9596.27
482.778	9639.28
482.983	9725.29
483.187	9635.18
483.391	9637.23
483.595	9534.83
483.8	9270.64
484.004	9651.56
484.208	9823.59
484.412	9821.55
484.616	9739.63
484.821	9551.21
485.025	9631.09
485.229	9882.99
485.433	9479.54
485.637	9555.31
485.841	9633.13
486.045	9647.47
486.249	9655.66
486.453	9602.41
486.657	9639.28
486.861	9682.28
487.065	9481.58
487.269	9524.59
487.473	9452.91
487.677	9692.52
487.881	9854.31
488.085	9504.11
488.289	9713
488.493	9561.45
488.697	9854.31
488.901	9614.7
489.105	9540.97
489.309	9649.52
489.512	9899.37
489.716	9811.31
489.92	9678.19
490.124	9870.7
490.328	9860.46
490.531	9768.3
490.735	9948.52
490.939	9860.46
491.143	9778.54
491.346	9995.62
491.55	9887.08
491.754	9928.04
491.958	10171.75
492.161	10126.69
492.365	10038.63
492.569	10171.75
492.772	10128.74
492.976	10239.33
493.18	10270.05
493.383	10474.85
493.587	10458.46
493.79	10437.98
493.994	10491.23
494.197	10620.25
494.401	10769.76
494.605	10655.07
494.808	10863.96
495.012	10749.28
495.215	11255.12
495.419	10909.02
495.622	11066.71
495.825	11171.16
496.029	11224.4
496.232	11580.75
496.436	11341.14
496.639	11879.75
496.843	11492.69
497.046	11816.27
497.249	11973.96
497.453	12049.74
497.656	12098.89
497.859	12141.89
498.063	12264.77
498.266	12825.92
498.469	12555.58
498.673	12393.79
498.876	12750.14
499.079	13108.54
499.282	13018.43
499.485	13385.01
499.689	13342
499.892	13389.11
500.095	13530.42
500.298	13923.63
500.501	13688.11
500.705	14062.89
500.908	14202.15
501.111	14335.27
501.314	14689.57
501.517	14662.94
501.72	14841.12
501.923	14597.41
502.126	15342.87
502.329	15328.53
502.532	15744.27
502.735	15711.5
502.938	16014.6
503.141	15955.21
503.344	16008.46
503.547	16221.45
503.75	16493.83
503.953	16665.86
504.156	16878.85
504.359	17071.36
504.562	17032.44
504.765	17345.78
504.968	17745.14
505.17	17648.88
505.373	17919.21
505.576	18205.93
505.779	18590.95
505.982	18420.97
506.185	18662.63
506.387	18900.19
506.59	18945.25
506.793	19360.98
506.996	19184.86
507.198	19997.9
507.401	19764.43
507.604	20116.69
507.807	20194.51
508.009	20413.64
508.212	20812.99
508.415	20831.43
508.617	21159.1
508.82	20858.05
509.022	21050.56
509.225	21652.66
509.428	21611.7
509.63	21847.22
509.833	21990.58
510.035	22846.63
510.238	22391.98
510.44	22652.07
510.643	23327.9
510.845	23563.42
511.048	23481.5
511.25	23878.8
511.453	23674.01
511.655	24560.78
511.858	23901.33
512.06	24337.55
512.262	24700.04
512.465	24575.11
512.667	25064.58
512.87	25334.91
513.072	25416.83
513.274	25764.98
513.477	26256.5
513.679	26221.68
513.881	26260.59
514.084	26477.68
514.286	26645.61
514.488	26743.91
514.69	27585.63
514.893	27575.39
515.095	28060.76
515.297	28140.63
515.499	28062.8
515.701	28570.7
515.904	28939.33
516.106	28673.1
516.308	29303.87
516.51	29064.26
516.712	29273.15
516.914	29617.21
517.116	30336.05
517.318	30491.69
517.52	30432.3
517.722	30297.14
517.925	31089.7
518.127	31364.13
518.329	31648.8
518.531	31267.87
518.733	31734.81
518.935	31810.59
519.136	31919.13
519.338	32384.02
519.54	32658.45
519.742	32785.42
519.944	32912.39
520.146	33395.71
520.348	33311.75
520.55	33846.27
520.752	33795.07
520.954	34577.39
521.155	34173.94
521.357	34501.62
521.559	34800.62
521.761	35034.09
521.963	35335.14
522.164	35189.74
522.366	35177.45
522.568	35857.37
522.77	35763.17
522.971	35927
523.173	35970.01
523.375	36410.32
523.576	36670.42
523.778	36262.87
523.98	36918.22
524.181	37067.72
524.383	37096.39
524.584	37309.38
524.786	37460.93
524.988	37032.91
525.189	37835.71
525.391	37665.73
525.592	38147
525.794	38429.62
525.995	38288.31
526.197	38245.3
526.398	38077.37
526.6	38685.62
526.801	38476.72
527.003	38783.92
527.204	38790.06
527.406	39066.54
527.607	39230.38
527.808	39486.37
528.01	39023.53
528.211	39189.42
528.412	39785.38
528.614	39486.37
528.815	39396.26
529.016	39865.25
529.218	39789.47
529.419	39740.32
529.62	39961.5
529.822	39639.97
530.023	39750.56
530.224	39818.14
530.425	39928.73
530.626	39508.9
530.828	39492.52
531.029	40256.41
531.23	39867.3
531.431	39809.95
531.632	40068
531.833	40340.38
532.035	40254.36
532.236	40446.87
532.437	40569.75
532.638	40336.28
532.839	40567.7
533.04	40367
533.241	39852.96
533.442	40893.33
533.643	40565.65
533.844	40569.75
534.045	40608.66
534.246	40012.7
534.447	40829.84
534.648	40352.66
534.849	40725.39
535.05	40262.55
535.251	40541.08
535.451	40829.84
535.652	40334.23
535.853	40694.68
536.054	40776.59
536.255	40231.83
536.456	40207.26
536.657	41083.79
536.857	40113.05
537.058	40399.77
537.259	40766.35
537.46	40760.21
537.66	40784.79
537.861	40328.09
538.062	40498.07
538.263	40704.91
538.463	40825.75
538.664	40555.41
538.865	40694.68
539.065	40956.82
539.266	40117.15
539.466	40807.31
539.667	40268.7
539.868	41014.16
540.068	40858.51
540.269	40571.8
540.469	40534.93
540.67	41102.22
540.87	40551.32
541.071	40315.8
541.271	40772.5
541.472	40399.77
541.672	40438.68
541.873	40416.15
542.073	39805.86
542.274	40881.04
542.474	40242.07
542.675	40090.52
542.875	40913.81
543.075	40465.3
543.276	39900.06
543.476	40680.34
543.676	40381.34
543.877	40598.42
544.077	40289.18
544.277	40420.25
544.478	40579.99
544.678	40504.21
544.878	40242.07
545.078	40569.75
545.279	40528.79
545.479	40375.19
545.679	40389.53
545.879	40825.75
546.079	40760.21
546.28	40242.07
546.48	39844.77
546.68	40334.23
546.88	40272.79
547.08	40639.38
547.28	40362.9
547.48	39920.54
547.68	40338.33
547.88	40117.15
548.081	40510.36
548.281	40106.91
548.481	40352.66
548.681	40600.47
548.881	40260.51
549.081	40344.47
549.28	40029.09
549.48	40401.82
549.68	40309.66
549.88	40797.07
550.08	40092.57
550.28	40338.33
550.48	40098.72
550.68	40428.44
550.88	39646.12
551.08	39857.06
551.279	40151.96
551.479	39998.37
551.679	39908.26
551.879	40385.43
552.079	40164.25
552.278	40194.97
552.478	40657.81
552.678	40274.84
552.878	40377.24
553.077	40268.7
553.277	39900.06
553.477	40563.61
553.676	40098.72
553.876	40156.06
554.076	39826.34
554.275	40229.79
554.475	39662.5
554.674	40422.3
554.874	40049.56
555.074	39807.9
555.273	40563.61
555.473	40295.32
555.672	39848.86
555.872	39693.22
556.071	39936.93
556.271	40121.24
556.47	40014.75
556.67	39893.92
556.869	40149.92
557.068	39934.88
557.268	39789.47
557.467	39934.88
557.667	39981.98
557.866	39855.01
558.065	39742.37
558.265	39576.48
558.464	39605.16
558.663	39873.44
558.863	39392.17
559.062	40338.33
559.261	39486.37
559.461	39949.21
559.66	39377.83
559.859	39730.08
560.058	39627.68
560.258	40115.1
560.457	39189.42
560.656	39375.78
560.855	39463.85
561.054	39605.16
561.253	39160.75
561.453	39396.26
561.652	39461.8
561.851	39691.17
562.05	39498.66
562.249	39216.04
562.448	39607.2
562.647	39445.41
562.846	39637.92
563.045	39451.56
563.244	39125.93
563.443	39513
563.642	39138.22
563.841	39316.39
564.04	39250.86
564.239	39639.97
564.438	39238.57
564.637	38994.86
564.836	39412.65
565.035	38792.11
565.234	38804.4
565.432	38855.6
565.631	38788.02
565.83	39564.2
566.029	38968.24
566.228	38921.13
566.427	38568.88
566.625	38624.18
566.824	38663.09
567.023	39097.26
567.222	38501.3
567.42	39011.24
567.619	38888.37
567.818	38679.47
568.016	38675.38
568.215	38775.73
568.414	38613.94
568.612	38763.44
568.811	38585.27
569.01	38855.6
569.208	38077.37
569.407	38284.22
569.605	38267.83
569.804	38550.45
570.002	38423.48
570.201	38476.72
570.4	38196.15
570.598	38321.08
570.797	38265.78
570.995	38345.65
571.193	37895.1
571.392	38611.89
571.59	37575.62
571.789	38175.67
571.987	37772.22
572.186	37784.51
572.384	37549
572.582	37915.58
572.781	38132.67
572.979	37440.45
573.177	37569.47
573.376	37913.53
573.574	38003.64
573.772	37557.19
573.971	37524.42
574.169	37381.06
574.367	37096.39
574.565	37557.19
574.763	37442.5
574.962	37297.09
575.16	36934.6
575.358	37053.39
575.556	36600.79
575.754	37217.22
575.952	36590.55
576.151	37401.54
576.349	36717.52
576.547	37061.58
576.745	36877.26
576.943	36869.07
577.141	36561.87
577.339	36867.02
577.537	36701.14
577.735	36709.33
577.933	36191.19
578.131	36934.6
578.329	36582.35
578.527	36326.36
578.725	36189.14
578.923	36330.45
579.121	36193.24
579.319	36066.27
579.516	36418.52
579.714	35990.49
579.912	36168.66
580.11	36064.22
580.308	35937.24
580.506	35644.38
580.704	35253.22
580.901	35326.95
581.099	35914.72
581.297	35601.38
581.495	35335.14
581.692	35648.48
581.89	35484.64
582.088	35472.35
582.285	35021.8
582.483	35300.33
582.681	35304.42
582.878	35206.12
583.076	34708.46
583.274	35255.27
583.471	34812.91
583.669	35257.32
583.866	34190.33
584.064	35218.41
584.262	34534.39
584.459	34655.22
584.657	34415.6
584.854	34743.28
585.052	34192.37
585.249	34266.1
585.447	34407.41
585.644	34292.72
585.841	34126.84
586.039	34143.22
586.236	33999.87
586.434	34094.07
586.631	33680.38
586.828	33993.72
587.026	34057.21
587.223	33557.5
587.42	33879.04
587.618	33469.44
587.815	33317.89
588.012	33352.71
588.21	33203.21
588.407	33653.76
588.604	33313.8
588.801	32943.11
588.999	32869.39
589.196	33152.01
589.393	33149.96
589.59	32670.73
589.787	32662.54
589.984	32545.81
590.182	32760.84
590.379	32945.16
590.576	32277.52
590.773	32719.88
590.97	32283.67
591.167	32486.42
591.364	31919.13
591.561	32515.09
591.758	31749.15
591.955	32314.39
592.152	32138.26
592.349	32224.28
592.546	31982.62
592.743	32388.11
592.94	31396.9
593.137	31947.8
593.334	31540.25
593.531	31663.13
593.727	31708.19
593.924	31673.37
594.121	31286.31
594.318	31894.55
594.515	31286.31
594.712	31798.3
594.908	31419.42
595.105	31521.82
595.302	31149.09
595.499	31163.43
595.696	30909.48
595.892	30802.99
596.089	30690.35
596.286	31108.13
596.482	30610.48
596.679	30868.52
596.876	30565.42
597.072	30467.12
597.269	30395.44
597.466	30653.48
597.662	30581.81
597.859	30452.78
598.055	30344.24
598.252	30180.4
598.448	30293.04
598.645	30280.75
598.841	29881.4
599.038	29944.89
599.234	29932.6
599.431	29932.6
599.627	29629.5
599.824	29944.89
600.02	29701.18
600.217	29637.69
600.413	29520.96
600.609	29453.37
600.806	29539.39
601.002	29572.16
601.198	29312.06
601.395	29164.61
601.591	29260.87
601.787	29414.46
601.984	29406.27
602.18	29652.03
602.376	28722.25
602.572	28662.86
602.769	29011.01
602.965	28847.18
603.161	28906.57
603.357	28775.5
603.553	28439.63
603.75	28775.5
603.946	28701.77
604.142	28449.87
604.338	28259.41
604.534	28263.5
604.73	28101.72
604.926	28388.43
605.122	28632.14
605.318	28036.18
605.514	28222.55
605.71	28068.95
605.906	27878.49
606.102	28320.85
606.298	28570.7
606.494	28064.85
606.69	27927.64
606.886	27933.78
607.082	27554.91
607.278	27956.31
607.474	27675.74
607.67	28003.41
607.866	27503.71
608.062	27974.74
608.257	27452.51
608.453	27589.72
608.649	27956.31
608.845	27550.81
609.041	27593.82
609.236	27374.69
609.432	27432.03
609.628	27501.66
609.824	27694.17
610.019	27253.86
610.215	27044.96
610.411	27438.17
610.606	27329.63
610.802	27255.9
610.998	27061.35
611.193	27008.1
611.389	26946.66
611.584	27018.34
611.78	26932.33
611.976	27085.92
612.171	26989.67
612.367	26926.18
612.562	26821.73
612.758	26508.4
612.953	26469.48
613.149	26967.14
613.344	26711.14
613.539	27366.49
613.735	26823.78
613.93	26842.21
614.126	26451.05
614.321	26737.77
614.517	26694.76
614.712	26338.41
614.907	26436.72
615.103	26717.29
615.298	26252.4
615.493	26694.76
615.688	26023.03
615.884	26649.71
616.079	26053.75
616.274	26428.52
616.47	26180.72
616.665	26434.67
616.86	26209.39
617.055	25984.12
617.25	25881.72
617.445	26221.68
617.641	25648.25
617.836	26094.71
618.031	25599.1
618.226	25949.3
618.421	25527.42
618.616	25957.49
618.811	25537.66
619.006	25627.77
619.201	24947.84
619.396	25347.2
619.591	24958.08
619.786	25275.52
619.981	24886.4
620.176	25193.6
620.371	24730.76
620.566	24921.22
620.761	24614.02
620.956	25060.48
621.151	24306.83
621.346	24530.06
621.541	24124.56
621.735	24601.74
621.93	24106.13
622.125	24136.85
622.32	23757.97
622.515	24284.3
622.709	24052.88
622.904	23669.91
623.099	23631
623.294	23784.6
623.488	23176.35
623.683	23487.64
623.878	23004.32
624.072	23405.72
624.267	23344.28
624.462	22811.81
624.656	22604.97
624.851	22756.52
625.046	22439.08
625.24	22660.26
625.435	22336.68
625.629	22340.78
625.824	22131.89
626.018	22158.51
626.213	21544.12
626.407	21531.83
626.602	21349.56
626.796	21535.93
626.991	21732.53
627.185	21427.39
627.38	21378.23
627.574	21103.81
627.768	20989.12
627.963	21019.84
628.157	20786.37
628.352	21036.22
628.546	20364.49
628.74	20624.58
628.935	20526.28
629.129	20387.02
629.323	20032.72
629.517	20137.16
629.712	19866.83
629.906	20114.64
630.1	19731.67
630.294	20014.29
630.489	19684.56
630.683	19952.85
630.877	19184.86
631.071	19600.6
631.265	19598.55
631.459	19176.67
631.653	19231.96
631.848	19133.66
632.042	19145.95
632.236	19072.22
632.43	18836.7
632.624	18853.09
632.818	18642.15
633.012	18466.02
633.206	18648.29
633.4	18523.37
633.594	18164.97
633.788	18255.08
633.982	18103.53
634.176	18242.79
634.369	17890.54
634.563	17689.84
634.757	17622.26
634.951	17722.61
635.145	17626.36
635.339	17589.49
635.533	17548.53
635.726	17196.28
635.92	17405.17
636.114	17474.81
636.308	17112.31
636.501	17077.5
636.695	17036.54
636.889	16815.36
637.083	16610.56
637.276	16678.15
637.47	16684.29
637.664	16364.81
637.857	16342.28
638.051	16581.89
638.244	16250.12
638.438	16080.14
638.632	15891.73
638.825	15901.97
639.019	16143.63
639.212	15852.81
639.406	15877.39
639.599	15559.95
639.793	15529.24
639.986	15381.78
640.18	15271.19
640.373	15203.61
640.567	15064.35
640.76	15246.62
640.954	15111.45
641.147	14728.48
641.34	14630.18
641.534	14712.1
641.727	14898.46
641.92	14742.82
642.114	14511.39
642.307	14624.03
642.5	14333.22
642.694	14419.24
642.887	14357.8
643.08	14028.07
643.273	14009.64
643.467	14030.12
643.66	13798.7
643.853	13782.32
644.046	13559.09
644.239	13632.82
644.432	13518.13
644.626	13393.2
644.819	13329.72
645.012	13317.43
645.205	13212.98
645.398	13530.42
645.591	12969.27
645.784	12948.79
645.977	12969.27
646.17	12803.39
646.363	12803.39
646.556	12574.02
646.749	12633.41
646.942	12449.09
647.135	12518.72
647.328	12496.19
647.521	12496.19
647.714	12162.37
647.907	12334.4
648.099	12092.74
648.292	12377.41
648.485	12152.13
648.678	12025.16
648.871	12113.22
649.064	11748.68
649.256	11857.23
649.449	11889.99
649.642	11816.27
649.835	11494.74
650.027	11494.74
650.22	11396.43
650.413	11373.91
650.605	11337.04
650.798	11150.68
650.991	11066.71
651.183	11052.38
651.376	10956.12
651.568	11253.08
651.761	11019.61
651.954	10964.31
652.146	10888.54
652.339	10685.79
652.531	10786.14
652.724	10696.03
652.916	10536.29
653.109	10497.38
653.301	10399.07
653.494	10636.64
653.686	10417.51
653.879	10454.37
654.071	10126.69
654.263	10276.2
654.456	10284.39
654.648	10261.86
654.84	10124.65
655.033	9882.99
655.225	9934.18
655.417	10018.15
655.61	10095.97
655.802	9778.54
655.994	9719.15
656.186	9655.66
656.379	9508.21
656.571	9606.51
656.763	9594.22
656.955	9536.88
657.148	9489.78
657.34	9500.02
657.532	9276.79
657.724	9368.95
657.916	9330.03
658.108	9180.53
658.3	9141.62
658.492	9182.58
658.684	9037.17
658.876	9106.81
659.068	8910.2
659.26	8893.82
659.452	9026.93
659.644	8789.37
659.836	8891.77
660.028	8859
660.22	8525.18
660.412	8684.92
660.604	8719.74
660.796	8435.07
660.988	8418.69
661.18	8332.67
661.372	8226.18
661.563	8459.65
661.755	8191.36
661.947	8152.45
662.139	8150.4
662.331	8299.91
662.522	8072.58
662.714	8027.53
662.906	7863.69
663.097	7945.61
663.289	7959.94
663.481	7867.78
663.673	7873.93
663.864	7712.14
664.056	7712.14
664.247	7658.89
664.439	7478.67
664.631	7683.47
664.822	7513.49
665.014	7835.02
665.205	7511.44
665.397	7386.51
665.588	7572.88
665.78	7310.74
665.971	7118.23
666.163	7511.44
666.354	7255.44
666.546	7251.35
666.737	7245.2
666.929	7312.78
667.12	7302.54
667.311	7263.63
667.503	6976.92
667.694	7128.47
667.885	6942.1
668.077	7103.89
668.268	6927.77
668.459	6981.01
668.651	6841.75
668.842	6821.27
669.033	6798.74
669.224	6682.01
669.416	6862.23
669.607	6741.4
669.798	6745.5
669.989	6718.87
670.18	6645.15
670.371	6708.63
670.563	6528.41
670.754	6469.02
670.945	6534.56
671.136	6460.83
671.327	6503.84
671.518	6581.66
671.709	6516.12
671.9	6491.55
672.091	6526.36
672.282	6352.29
672.473	6534.56
672.664	6327.71
672.855	6141.35
673.046	6233.5
673.237	6118.82
673.428	6346.14
673.619	6282.66
673.809	6204.83
674	6198.69
674.191	6077.86
674.382	6016.42
674.573	5961.13
674.764	6010.28
674.954	5971.36
675.145	6016.42
675.336	6028.71
675.527	5965.22
675.717	5993.89
675.908	5911.97
676.099	5932.45
676.289	5805.48
676.48	5825.96
676.671	5899.69
676.861	5791.14
677.052	5785
677.243	5764.52
677.433	5744.04
677.624	5719.46
677.814	5895.59
678.005	5721.51
678.195	5729.7
678.386	5799.34
678.576	5662.12
678.767	5727.66
678.957	5598.63
679.148	5780.9
679.338	5608.87
679.529	5524.91
679.719	5549.48
679.909	5569.96
680.1	5688.75
680.29	5488.04
680.481	5451.18
680.671	5514.67
680.861	5522.86
681.052	5670.31
681.242	5508.52
681.432	5469.61
681.622	5270.96
681.813	5395.89
682.003	5258.67
682.193	5406.13
682.383	5375.41
682.573	5451.18
682.764	5465.52
682.954	5266.86
683.144	5438.89
683.334	5277.1
683.524	5242.29
683.714	5244.34
683.904	5197.23
684.094	5180.85
684.284	5332.4
684.474	5348.78
684.664	5281.2
684.854	5193.14
685.044	5248.43
685.234	5227.95
685.424	5164.47
685.614	5266.86
685.804	5178.8
685.994	4998.58
686.184	5225.9
686.374	5049.78
686.564	5191.09
686.753	5090.74
686.943	4900.28
687.133	4920.76
687.323	4953.52
687.513	5148.08
687.702	5043.64
687.892	4992.44
688.082	4910.52
688.272	4928.95
688.461	4986.29
688.651	5125.55
688.841	4883.89
689.03	5002.68
689.22	4703.67
689.41	5055.92
689.599	4801.97
689.789	4840.89
689.979	4953.52
690.168	4801.97
690.358	4814.26
690.547	4746.68
690.737	4822.45
690.926	4806.07
691.116	4736.44
691.305	4890.04
691.495	4718.01
691.684	4672.95
691.874	4918.71
692.063	4601.27
692.252	4709.82
692.442	4771.26
692.631	4543.93
692.82	4625.85
693.01	4783.54
693.199	4687.29
693.388	4718.01
693.578	4652.47
693.767	4642.23
693.956	4634.04
694.146	4677.05
694.335	4591.03
694.524	4679.1
694.713	4808.12
694.902	4634.04
695.092	4779.45
695.281	4851.13
695.47	4576.7
695.659	4648.38
695.848	4763.06
696.037	4693.43
696.226	4752.82
696.415	4748.73
696.604	4707.77
696.793	4851.13
696.982	4736.44
697.171	4623.8
697.36	4595.13
697.549	4699.58
697.738	4634.04
697.927	4683.19
698.116	4648.38
698.305	4787.64
698.494	4824.5
698.683	4826.55
698.872	4797.88
699.061	4699.58
699.25	4795.83
699.438	4914.61
699.627	4857.27
699.816	4775.35
700.005	4713.91
700.193	4769.21
700.382	4900.28
700.571	4748.73
700.76	4730.3
700.948	4904.37
701.137	4871.61
701.326	4785.59
701.514	4726.2
701.703	4869.56
701.892	4746.68
702.08	4998.58
702.269	4924.85
702.457	4763.06
702.646	4847.03
702.834	4840.89
703.023	4887.99
703.212	4951.48
703.4	4931
703.589	4844.98
703.777	4900.28
703.965	4642.23
704.154	4859.32
704.342	4646.33
704.531	4939.19
704.719	4797.88
704.907	4935.09
705.096	4961.72
705.284	4793.78
705.472	4740.54
705.661	4740.54
705.849	4931
706.037	4818.36
706.226	4791.73
706.414	4836.79
706.602	4877.75
706.79	4943.28
706.979	4959.67
707.167	4840.89
707.355	4703.67
707.543	4842.93
707.731	4773.3
707.919	4873.65
708.107	4871.61
708.296	4675
708.484	4781.5
708.672	4873.65
708.86	4605.37
709.048	4801.97
709.236	4787.64
709.424	4820.41
709.612	4851.13
709.8	4722.1
709.988	4718.01
710.176	4828.6
710.364	4734.39
710.551	4615.61
710.739	4773.3
710.927	4689.34
711.115	4715.96
711.303	4722.1
711.491	4736.44
711.679	4679.1
711.866	4701.62
712.054	4761.02
712.242	4664.76
712.43	4799.93
712.617	4715.96
712.805	4679.1
712.993	4869.56
713.181	4541.88
713.368	4720.06
713.556	4603.32
713.744	4664.76
713.931	4779.45
714.119	4675
714.306	4449.72
714.494	4619.71
714.682	4631.99
714.869	4509.12
715.057	4660.66
715.244	4578.75
715.432	4722.1
715.619	4505.02
715.807	4539.83
715.994	4511.16
716.182	4531.64
716.369	4519.36
716.556	4605.37
716.744	4552.12
716.931	4455.87
717.119	4580.79
717.306	4603.32
717.493	4595.13
717.681	4466.11
717.868	4419
718.055	4558.27
718.242	4519.36
718.43	4599.23
718.617	4404.67
718.804	4349.37
718.991	4478.4
719.179	4490.68
719.366	4371.9
719.553	4533.69
719.74	4273.6
719.927	4320.7
720.114	4404.67
720.301	4373.95
720.488	4271.55
720.676	4265.41
720.863	4412.86
721.05	4449.72
721.237	4330.94
721.424	4398.52
721.611	4496.83
721.798	4396.48
721.985	4357.57
722.172	4300.22
722.358	4275.65
722.545	4300.22
722.732	4398.52
722.919	4419
723.106	4294.08
723.293	4138.43
723.48	4328.89
723.667	4251.07
723.853	4298.17
724.04	4134.34
724.227	4265.41
724.414	4115.91
724.6	4140.48
724.787	4234.69
724.974	4201.92
725.161	4107.71
725.347	4017.6
725.534	4068.8
725.72	4070.85
725.907	4220.35
726.094	4101.57
726.28	4048.32
726.467	4062.66
726.653	4120
726.84	4111.81
727.027	4052.42
727.213	3990.98
727.4	4120
727.586	3943.88
727.773	4031.94
727.959	3990.98
728.145	4042.18
728.332	4040.13
728.518	3904.96
728.705	4007.36
728.891	3968.45
729.077	3915.2
729.264	4025.79
729.45	3839.43
729.636	3941.83
729.823	3798.47
730.009	3888.58
730.195	3904.96
730.382	3804.61
730.568	3771.85
730.754	3818.95
730.94	3898.82
731.126	3771.85
731.313	3833.29
731.499	3728.84
731.685	3825.09
731.871	3798.47
732.057	3890.63
732.243	3821
732.429	3804.61
732.615	3857.86
732.801	3798.47
732.987	3808.71
733.173	3851.72
733.359	3714.5
733.545	3671.5
733.731	3567.05
733.917	3757.51
734.103	3704.26
734.289	3618.25
734.475	3565
734.661	3698.12
734.847	3632.58
735.033	3714.5
735.219	3694.02
735.404	3558.86
735.59	3624.39
735.776	3534.28
735.962	3585.48
736.148	3569.1
736.333	3519.95
736.519	3452.36
736.705	3620.3
736.89	3366.35
737.076	3464.65
737.262	3483.08
737.447	3476.94
737.633	3315.15
737.819	3497.42
738.004	3446.22
738.19	3290.57
738.375	3309.01
738.561	3497.42
738.747	3372.49
738.932	3296.72
739.118	3382.73
739.303	3286.48
739.489	3313.1
739.674	3315.15
739.859	3374.54
740.045	3227.09
740.23	3114.45
740.416	3175.89
740.601	3194.32
740.786	3171.79
740.972	3194.32
741.157	3153.36
741.342	3057.11
741.528	3136.98
741.713	3173.84
741.898	3010
742.084	3184.08
742.269	3130.83
742.454	3077.59
742.639	2987.47
742.824	3077.59
743.01	3096.02
743.195	3102.16
743.38	2948.56
743.565	2993.62
743.75	3022.29
743.935	2985.43
744.12	2979.28
744.305	2883.03
744.49	2713.05
744.675	2895.32
744.86	2895.32
745.045	2905.56
745.23	2821.59
745.415	2907.6
745.6	2844.12
745.785	2854.36
745.97	2950.61
746.155	2766.29
746.34	2876.88
746.525	2686.42
746.71	2686.42
746.895	2684.38
747.079	2797.01
747.264	2711
747.449	2612.7
747.634	2592.22
747.819	2661.85
748.003	2489.82
748.188	2487.77
748.373	2516.44
748.557	2606.55
748.742	2596.31
748.927	2584.02
749.111	2461.15
749.296	2534.87
749.481	2475.48
749.665	2500.06
749.85	2530.78
750.034	2436.57
750.219	2428.38
750.404	2338.27
750.588	2334.17
750.773	2477.53
750.957	2393.56
751.141	2305.5
751.326	2348.51
751.51	2270.69
751.695	2244.06
751.879	2252.25
752.064	2307.55
752.248	2188.77
752.432	2285.02
752.617	2282.97
752.801	2246.11
752.985	2166.24
753.17	2160.1
753.354	2268.64
753.538	2317.79
753.722	2112.99
753.907	2035.17
754.091	2029.03
754.275	2067.94
754.459	2115.04
754.643	2012.64
754.828	1998.31
755.012	2031.07
755.196	1971.68
755.38	1996.26
755.564	1990.11
755.748	1881.57
755.932	1949.15
756.116	1977.83
756.3	1914.34
756.484	1854.95
756.668	1885.67
756.852	1885.67
757.036	1891.81
757.22	1891.81
757.404	1822.18
757.588	1867.24
757.772	1834.47
757.956	1873.38
758.14	1869.28
758.323	1689.06
758.507	1756.65
758.691	1781.22
758.875	1750.5
759.059	1715.69
759.242	1725.93
759.426	1721.83
759.61	1816.04
759.794	1674.73
759.977	1711.59
760.161	1775.08
760.345	1644.01
760.528	1666.53
760.712	1629.67
760.895	1717.73
761.079	1568.23
761.263	1603.05
761.446	1592.81
761.63	1574.38
761.813	1572.33
761.997	1476.07
762.18	1609.19
762.364	1619.43
762.547	1533.42
762.731	1582.57
762.914	1572.33
763.098	1517.03
763.281	1609.19
763.464	1414.63
763.648	1590.76
763.831	1535.46
764.015	1447.4
764.198	1488.36
764.381	1543.66
764.564	1457.64
764.748	1418.73
764.931	1547.75
765.114	1478.12
765.297	1418.73
765.481	1451.5
765.664	1414.63
765.847	1375.72
766.03	1480.17
766.213	1416.68
766.397	1422.83
766.58	1367.53
766.763	1478.12
766.946	1451.5
767.129	1388.01
767.312	1338.86
767.495	1385.96
767.678	1289.71
767.861	1363.44
768.044	1336.81
768.227	1316.33
768.41	1408.49
768.593	1375.72
768.776	1324.52
768.959	1336.81
769.142	1400.3
769.324	1324.52
769.507	1340.91
769.69	1340.91
769.873	1254.89
770.056	1308.14
770.239	1252.84
770.421	1316.33
770.604	1293.8
770.787	1338.86
770.97	1242.61
771.152	1054.19
771.335	1226.22
771.518	1187.31
771.7	1371.63
771.883	1283.56
772.066	1283.56
772.248	1207.79
772.431	1203.69
772.613	1306.09
772.796	1248.75
772.978	1242.61
773.161	1211.89
773.343	1240.56
773.526	1105.39
773.708	1160.69
773.891	1048.05
774.073	1170.93
774.256	1123.82
774.438	1189.36
774.621	1125.87
774.803	1254.89
774.985	1226.22
775.168	1111.54
775.35	1148.4
775.532	1070.58
775.715	1050.1
775.897	1129.97
776.079	1089.01
776.261	1121.77
776.444	1013.23
776.626	1064.43
776.808	1091.06
776.99	1037.81
777.173	1064.43
777.355	1019.38
777.537	1048.05
777.719	1002.99
777.901	943.6
778.083	1002.99
778.265	873.97
778.447	1033.71
778.629	921.07
778.811	1015.28
778.993	906.74
779.175	910.83
779.357	935.41
779.539	912.88
779.721	933.36
779.903	876.02
780.085	912.88
780.267	861.68
780.449	980.47
780.631	888.31
780.812	962.03
780.994	806.39
781.176	861.68
781.358	865.78
781.54	914.93
781.721	921.07
781.903	894.45
782.085	740.85
782.267	753.14
782.448	777.72
782.63	810.48
782.812	767.48
782.993	761.33
783.175	841.2
783.357	759.28
783.538	765.43
783.72	683.51
783.901	843.25
784.083	763.38
784.264	824.82
784.446	730.61
784.627	736.76
784.809	755.19
784.99	646.65
785.172	800.24
785.353	796.15
785.535	701.94
785.716	630.26
785.897	675.32
786.079	671.22
786.26	738.8
786.441	691.7
786.623	550.39
786.804	597.49
786.985	660.98
787.167	660.98
787.348	669.17
787.529	660.98
787.71	689.65
787.891	738.8
788.073	615.93
788.254	525.82
788.435	632.31
788.616	687.61
788.797	589.3
788.978	585.21
789.159	638.45
789.34	544.25
789.522	691.7
789.703	542.2
789.884	585.21
790.065	624.12
790.246	605.69
790.427	517.62
790.607	620.02
790.788	511.48
790.969	529.91
791.15	581.11
791.331	517.62
791.512	511.48
791.693	482.81
791.874	558.58
792.054	634.36
792.235	523.77
792.416	525.82
792.597	456.19
792.778	509.43
792.958	558.58
793.139	491
793.32	491
793.5	384.51
793.681	560.63
793.862	499.19
794.042	482.81
794.223	376.31
794.404	458.23
794.584	355.83
794.765	407.03
794.945	400.89
795.126	421.37
795.306	509.43
795.487	366.07
795.667	486.9
795.848	456.19
796.028	398.84
796.209	429.56
796.389	480.76
796.57	390.65
796.75	443.9
796.93	447.99
797.111	378.36
797.291	419.32
797.471	423.42
797.652	364.03
797.832	366.07
798.012	437.75
798.192	351.74
798.373	370.17
798.553	390.65
798.733	400.89
798.913	339.45
799.093	327.16
799.274	419.32
799.454	351.74
799.634	425.47
799.814	443.9
799.994	427.51
800.174	345.59
800.354	308.73
800.534	351.74
800.714	398.84
800.894	263.68
801.074	202.24
801.254	331.26
801.434	411.13
801.614	282.11
801.794	359.93
801.974	1351.15
802.154	335.35
802.334	284.16
802.514	230.91
802.693	296.44
802.873	286.2
803.053	280.06
803.233	339.45
803.413	349.69
803.592	275.96
803.772	310.78
803.952	269.82
804.131	308.73
804.311	351.74
804.491	409.08
804.67	271.87
804.85	228.86
805.03	310.78
805.209	331.26
805.389	239.1
805.568	318.97
805.748	202.24
805.928	194.05
806.107	280.06
806.287	366.07
806.466	304.64
806.646	222.72
806.825	265.72
807.004	179.71
807.184	259.58
807.363	318.97
807.543	347.64
807.722	284.16
807.901	288.25
808.081	304.64
808.26	130.56
808.439	275.96
808.619	257.53
808.798	286.2
808.977	241.15
809.156	353.79
809.336	271.87
809.515	300.54
809.694	179.71
809.873	226.81
810.052	269.82
810.231	275.96
810.411	241.15
810.59	183.81
810.769	202.24
810.948	284.16
811.127	136.7
811.306	171.52
811.485	194.05
811.664	372.22
811.843	251.39
812.022	214.52
812.201	198.14
812.38	226.81
812.559	202.24
812.737	253.44
812.916	79.36
813.095	208.38
813.274	220.67
813.453	257.53
813.632	273.92
813.811	232.96
813.989	148.99
814.168	247.29
814.347	208.38
814.526	173.57
814.704	251.39
814.883	370.17
815.062	122.37
815.24	284.16
815.419	169.47
815.598	171.52
815.776	148.99
815.955	210.43
816.133	175.61
816.312	124.41
816.49	243.2
816.669	151.04
816.847	253.44
817.026	171.52
817.204	273.92
817.383	204.28
817.561	146.94
817.74	183.81
817.918	222.72
818.097	163.33
818.275	194.05
818.453	138.75
818.632	173.57
818.81	128.51
818.988	171.52
819.167	144.89
819.345	146.94
819.523	194.05
819.701	103.93
819.879	161.28
820.058	196.09
820.236	210.43
820.414	144.89
820.592	112.13
820.77	179.71
820.948	171.52
821.127	118.27
821.305	165.37
821.483	138.75
821.661	204.28
821.839	165.37
822.017	163.33
822.195	122.37
822.373	189.95
822.551	87.55
822.729	161.28
822.907	138.75
823.085	169.47
823.262	138.75
823.44	112.13
823.618	163.33
823.796	179.71
823.974	157.18
824.152	40.45
824.329	83.45
824.507	185.85
824.685	157.18
824.863	50.69
825.04	132.61
825.218	122.37
825.396	114.17
825.574	185.85
825.751	99.84
825.929	128.51
826.107	58.88
826.284	159.23
826.462	122.37
826.639	73.21
826.817	97.79
826.994	101.89
827.172	17.92
827.349	153.09
827.527	161.28
827.704	187.9
827.882	101.89
828.059	38.4
828.237	75.26
828.414	173.57
828.591	62.98
828.769	73.21
828.946	48.64
829.124	146.94
829.301	159.23
829.478	151.04
829.655	122.37
829.833	105.98
830.01	30.21
830.187	161.28
830.364	65.02
830.542	151.04
830.719	177.66
830.896	171.52
831.073	99.84
831.25	146.94
831.427	89.6
831.604	99.84
831.782	36.35
831.959	65.02
832.136	157.18
832.313	108.03
832.49	89.6
832.667	108.03
832.844	79.36
833.021	181.76
833.198	140.8
833.374	138.75
833.551	75.26
833.728	105.98
833.905	153.09
834.082	-31.23
834.259	136.7
834.436	171.52
834.612	103.93
834.789	136.7
834.966	17.92
835.143	153.09
835.319	-2.56
835.496	95.74
835.673	171.52
835.85	108.03
836.026	97.79
836.203	60.93
836.38	38.4
836.556	48.64
836.733	26.11
836.909	161.28
837.086	34.3
837.262	30.21
837.439	24.06
837.616	58.88
837.792	69.12
837.968	32.26
838.145	30.21
838.321	89.6
838.498	97.79
838.674	114.17
838.851	159.23
839.027	124.41
839.203	110.08
839.38	73.21
839.556	73.21
839.732	120.32
839.909	13.82
840.085	87.55
840.261	54.78
840.437	99.84
840.614	44.54
840.79	11.78
840.966	81.41
841.142	13.82
841.318	50.69
841.494	73.21
841.671	118.27
841.847	112.13
842.023	15.87
842.199	91.65
842.375	132.61
842.551	-64
842.727	-14.85
842.903	73.21
843.079	-45.57
843.255	56.83
843.431	24.06
843.607	97.79
843.783	-49.66
843.959	85.5
844.134	-25.09
844.31	30.21
844.486	67.07
844.662	103.93
844.838	-68.09
845.013	22.02
845.189	65.02
845.365	93.69
845.541	38.4
845.716	48.64
845.892	73.21
846.068	79.36
846.244	26.11
846.419	30.21
846.595	15.87
846.77	19.97
846.946	134.65
847.122	28.16
847.297	22.02
847.473	65.02
847.648	13.82
847.824	77.31
847.999	15.87
848.175	144.89
848.35	65.02
848.526	144.89
848.701	85.5
848.876	161.28
849.052	114.17
849.227	48.64
849.403	32.26
849.578	-0.51
849.753	17.92
849.929	58.88
850.104	26.11
850.279	42.5
850.454	87.55
850.63	81.41
850.805	28.16
850.98	13.82
851.155	-55.81
851.33	-31.23
851.505	30.21
851.681	105.98
851.856	-12.8
852.031	34.3
852.206	124.41
852.381	44.54
852.556	9.73
852.731	11.78
852.906	81.41
853.081	81.41
853.256	54.78
853.431	-12.8
853.606	-25.09
853.781	-10.75
853.956	-39.42
854.131	58.88
854.305	24.06
854.48	-27.14
854.655	46.59
854.83	-59.9
855.005	-23.04
855.18	71.17
855.354	-20.99
855.529	-10.75
855.704	9.73
855.879	62.98
856.053	-8.7
856.228	73.21
856.403	-53.76
856.577	19.97
856.752	-18.94
856.926	62.98
857.101	54.78
857.276	-39.42
857.45	87.55
857.625	3.58
857.799	9.73
857.974	7.68
858.148	-90.62
858.323	9.73
858.497	34.3
858.672	36.35
858.846	38.4
859.02	87.55
859.195	-12.8
859.369	26.11
859.543	-8.7
859.718	32.26
859.892	30.21
860.066	-45.57
860.241	-16.9
860.415	-0.51
860.589	-45.57
860.763	46.59
860.938	50.69
861.112	-16.9
861.286	50.69
861.46	7.68
861.634	3.58
861.808	26.11
861.982	9.73
862.157	-72.19
862.331	40.45
862.505	-10.75
862.679	22.02
862.853	71.17
863.027	13.82
863.201	36.35
863.375	19.97
863.549	17.92
863.722	-6.66
863.896	79.36
864.07	60.93
864.244	-66.05
864.418	3.58
864.592	-51.71
864.766	60.93
864.939	-4.61
865.113	-16.9
865.287	34.3
865.461	38.4
865.634	-16.9
865.808	26.11
865.982	15.87
866.156	56.83
866.329	-53.76
866.503	48.64
866.676	30.21
866.85	-14.85
867.024	-8.7
867.197	-51.71
867.371	54.78
867.544	13.82
867.718	9.73
867.891	30.21
868.065	17.92
868.238	-2.56
868.412	38.4
868.585	-16.9
868.759	46.59
868.932	60.93
869.105	19.97
869.279	85.5
869.452	-43.52
869.625	-2.56
869.799	-8.7
869.972	17.92
870.145	-25.09
870.319	-47.62
870.492	65.02
870.665	9.73
870.838	-70.14
871.011	-70.14
871.185	28.16
871.358	-53.76
871.531	46.59
871.704	-37.38
871.877	-47.62
872.05	-53.76
872.223	-39.42
872.396	44.54
872.569	22.02
872.742	-47.62
872.915	73.21
873.088	34.3
873.261	-18.94
873.434	75.26
873.607	-0.51
873.78	89.6
873.953	-8.7
874.126	-14.85
874.299	101.89
874.471	1.54
874.644	-14.85
874.817	5.63
874.99	93.69
875.163	-8.7
875.335	5.63
875.508	17.92
875.681	65.02
875.853	-4.61
876.026	-76.29
876.199	-25.09
876.371	-43.52
876.544	-16.9
876.717	26.11
876.889	34.3
877.062	3.58
877.234	-18.94
877.407	-18.94
877.579	24.06
877.752	22.02
877.924	85.5
878.097	85.5
878.269	-57.86
878.442	73.21
878.614	17.92
878.786	73.21
878.959	13.82
879.131	-6.66
879.303	-12.8
879.476	36.35
879.648	9.73
879.82	-107.01
879.993	-23.04
880.165	-0.51
880.337	-10.75
880.509	-0.51
880.681	-6.66
880.854	-51.71
881.026	69.12
881.198	22.02
881.37	9.73
881.542	22.02
881.714	-107.01
881.886	42.5
882.058	-14.85
882.23	75.26
882.402	-23.04
882.574	-6.66
882.746	89.6
882.918	62.98
883.09	-41.47
883.262	-8.7
883.434	62.98
883.606	-82.43
883.778	3.58
883.95	54.78
884.122	-88.57
884.293	-18.94
884.465	-12.8
884.637	5.63
884.809	-64
884.98	42.5
885.152	1.54
885.324	15.87
885.496	24.06
885.667	-18.94
885.839	-12.8
886.011	32.26
886.182	24.06
886.354	11.78
886.525	42.5
886.697	-2.56
886.869	-39.42
887.04	-8.7
887.212	44.54
887.383	54.78
887.555	48.64
887.726	-59.9
887.897	-80.38
888.069	-27.14
888.24	-27.14
888.412	46.59
888.583	1.54
888.754	77.31
888.926	-31.23
889.097	-94.72
889.268	-31.23
889.44	-18.94
889.611	-57.86
889.782	-14.85
889.953	-82.43
890.125	87.55
890.296	-70.14
890.467	24.06
890.638	-41.47
890.809	81.41
890.98	-12.8
891.151	-33.28
891.323	56.83
891.494	24.06
891.665	-8.7
891.836	30.21
892.007	-57.86
892.178	-2.56
892.349	48.64
892.52	40.45
892.691	15.87
892.862	-29.18
893.032	-53.76
893.203	15.87
893.374	-2.56
893.545	-12.8
893.716	-80.38
893.887	81.41
894.057	-20.99
894.228	-8.7
894.399	-70.14
894.57	24.06
894.74	-61.95
894.911	-31.23
895.082	-45.57
895.253	-61.95
895.423	-61.95
895.594	38.4
895.764	42.5
895.935	-90.62
896.106	24.06
896.276	-12.8
896.447	22.02
896.617	-6.66
896.788	-35.33
896.958	103.93
897.129	13.82
897.299	5.63
897.47	7.68
897.64	-4.61
897.81	-27.14
897.981	-10.75
898.151	-66.05
898.322	52.74
898.492	-37.38
898.662	-47.62
898.832	-0.51
899.003	-41.47
899.173	36.35
899.343	-57.86
899.513	-117.25
