Data from USB4F104151__77__12-12-48-690.txt Node

Date: Fri Mar 14 12:12:48 EDT 2025
User: louis
Spectrometer: USB4F10415
Trigger mode: 4
Integration Time (sec): 5.000000E-2
Scans to average: 1
Electric dark correction enabled: true
Nonlinearity correction enabled: false
Boxcar width: 0
XAxis mode: Wavelengths
Number of Pixels in Spectrum: 3648
>>>>>Begin Spectral Data<<<<<
178.204	-212.14
178.424	-212.14
178.644	-212.14
178.864	-179.37
179.084	-177.32
179.304	27.48
179.524	-52.39
179.744	-1.19
179.964	-17.58
180.184	62.29
180.404	54.1
180.624	-1.19
180.844	-38.06
181.064	-107.69
181.283	35.67
181.503	-46.25
181.723	84.82
181.943	-64.68
182.163	54.1
182.383	27.48
182.602	-1.19
182.822	115.54
183.042	-25.77
183.262	15.19
183.482	78.68
183.701	-17.58
183.921	82.77
184.141	17.24
184.361	74.58
184.58	70.48
184.8	84.82
185.02	23.38
185.239	84.82
185.459	15.19
185.679	58.2
185.898	2.9
186.118	56.15
186.338	-19.63
186.557	62.29
186.777	-19.63
186.997	-11.43
187.216	-3.24
187.436	97.11
187.655	27.48
187.875	88.92
188.095	41.81
188.314	117.59
188.534	90.96
188.753	-19.63
188.973	43.86
189.192	105.3
189.412	66.39
189.631	66.39
189.851	-9.39
190.07	66.39
190.29	-3.24
190.509	-9.39
190.729	-36.01
190.948	43.86
191.168	215.89
191.387	7
191.607	-33.96
191.826	129.88
192.045	60.24
192.265	58.2
192.484	-25.77
192.704	-33.96
192.923	15.19
193.142	136.02
193.362	27.48
193.581	43.86
193.8	62.29
194.02	41.81
194.239	27.48
194.458	111.44
194.678	-5.29
194.897	15.19
195.116	19.29
195.335	23.38
195.555	101.2
195.774	47.96
195.993	117.59
196.212	54.1
196.432	60.24
196.651	-7.34
196.87	25.43
197.089	129.88
197.308	58.2
197.528	86.87
197.747	41.81
197.966	72.53
198.185	105.3
198.404	4.95
198.623	90.96
198.842	76.63
199.062	27.48
199.281	58.2
199.5	-33.96
199.719	-1.19
199.938	39.76
200.157	43.86
200.376	-13.48
200.595	74.58
200.814	47.96
201.033	-21.67
201.252	27.48
201.471	43.86
201.69	74.58
201.909	37.72
202.128	31.57
202.347	146.26
202.566	21.33
202.785	23.38
203.004	-5.29
203.223	189.27
203.442	52.05
203.661	52.05
203.879	11.09
204.098	74.58
204.317	58.2
204.536	4.95
204.755	70.48
204.974	50
205.193	109.4
205.411	99.16
205.63	84.82
205.849	33.62
206.068	35.67
206.287	-54.44
206.505	123.73
206.724	11.09
206.943	-11.43
207.162	-25.77
207.381	35.67
207.599	-25.77
207.818	13.14
208.037	17.24
208.255	76.63
208.474	0.85
208.693	72.53
208.911	-31.91
209.13	19.29
209.349	52.05
209.567	150.36
209.786	117.59
210.005	43.86
210.223	-33.96
210.442	-40.11
210.661	47.96
210.879	62.29
211.098	74.58
211.316	-3.24
211.535	95.06
211.753	31.57
211.972	-13.48
212.191	103.25
212.409	-25.77
212.628	133.97
212.846	115.54
213.065	15.19
213.283	82.77
213.502	-11.43
213.72	80.72
213.938	105.3
214.157	74.58
214.375	133.97
214.594	15.19
214.812	76.63
215.031	74.58
215.249	15.19
215.467	31.57
215.686	15.19
215.904	13.14
216.122	-1.19
216.341	76.63
216.559	88.92
216.778	90.96
216.996	0.85
217.214	97.11
217.432	60.24
217.651	-60.59
217.869	29.52
218.087	-25.77
218.306	-3.24
218.524	33.62
218.742	-1.19
218.96	27.48
219.179	29.52
219.397	50
219.615	86.87
219.833	58.2
220.051	-25.77
220.27	88.92
220.488	35.67
220.706	50
220.924	17.24
221.142	9.05
221.36	-19.63
221.578	25.43
221.796	33.62
222.015	60.24
222.233	9.05
222.451	103.25
222.669	-58.54
222.887	27.48
223.105	-27.82
223.323	45.91
223.541	-33.96
223.759	50
223.977	39.76
224.195	64.34
224.413	21.33
224.631	-1.19
224.849	41.81
225.067	74.58
225.285	-11.43
225.503	9.05
225.721	-23.72
225.939	31.57
226.157	19.29
226.375	213.84
226.592	-21.67
226.81	17.24
227.028	70.48
227.246	99.16
227.464	-1.19
227.682	56.15
227.9	56.15
228.117	66.39
228.335	41.81
228.553	19.29
228.771	76.63
228.989	52.05
229.206	80.72
229.424	0.85
229.642	45.91
229.86	-79.02
230.077	80.72
230.295	52.05
230.513	129.88
230.731	76.63
230.948	97.11
231.166	154.45
231.384	-42.15
231.601	-3.24
231.819	23.38
232.037	37.72
232.254	-13.48
232.472	37.72
232.689	-48.3
232.907	-21.67
233.125	-1.19
233.342	2.9
233.56	-13.48
233.777	11.09
233.995	64.34
234.213	29.52
234.43	9.05
234.648	13.14
234.865	9.05
235.083	-7.34
235.3	-11.43
235.518	58.2
235.735	64.34
235.953	103.25
236.17	129.88
236.388	-21.67
236.605	45.91
236.822	82.77
237.04	15.19
237.257	45.91
237.475	-62.63
237.692	29.52
237.909	11.09
238.127	25.43
238.344	103.25
238.562	41.81
238.779	0.85
238.996	64.34
239.214	39.76
239.431	80.72
239.648	11.09
239.865	-17.58
240.083	50
240.3	2.9
240.517	45.91
240.735	11.09
240.952	70.48
241.169	99.16
241.386	19.29
241.603	27.48
241.821	-25.77
242.038	-1.19
242.255	23.38
242.472	-101.55
242.689	64.34
242.907	-25.77
243.124	17.24
243.341	31.57
243.558	-9.39
243.775	-40.11
243.992	-85.16
244.209	-5.29
244.426	136.02
244.643	50
244.86	-3.24
245.078	90.96
245.295	66.39
245.512	33.62
245.729	2.9
245.946	101.2
246.163	109.4
246.38	11.09
246.597	7
246.814	37.72
247.031	86.87
247.248	-13.48
247.464	4.95
247.681	54.1
247.898	74.58
248.115	133.97
248.332	-17.58
248.549	82.77
248.766	4.95
248.983	119.64
249.2	72.53
249.417	156.5
249.633	90.96
249.85	7
250.067	60.24
250.284	-60.59
250.501	115.54
250.717	140.12
250.934	13.14
251.151	-36.01
251.368	76.63
251.585	31.57
251.801	-13.48
252.018	-15.53
252.235	29.52
252.451	-58.54
252.668	17.24
252.885	37.72
253.102	15.19
253.318	-5.29
253.535	-52.39
253.752	-1.19
253.968	70.48
254.185	-19.63
254.401	146.26
254.618	78.68
254.835	2.9
255.051	113.49
255.268	2.9
255.484	68.44
255.701	19.29
255.917	88.92
256.134	4.95
256.351	47.96
256.567	-40.11
256.784	-9.39
257	27.48
257.217	62.29
257.433	9.05
257.65	13.14
257.866	111.44
258.082	23.38
258.299	-46.25
258.515	-7.34
258.732	84.82
258.948	-52.39
259.165	41.81
259.381	-89.26
259.597	37.72
259.814	-33.96
260.03	-19.63
260.246	52.05
260.463	47.96
260.679	82.77
260.895	-19.63
261.112	7
261.328	-40.11
261.544	-23.72
261.761	136.02
261.977	43.86
262.193	13.14
262.409	101.2
262.626	0.85
262.842	50
263.058	17.24
263.274	66.39
263.49	29.52
263.707	146.26
263.923	54.1
264.139	70.48
264.355	13.14
264.571	103.25
264.787	52.05
265.004	72.53
265.22	0.85
265.436	37.72
265.652	-38.06
265.868	103.25
266.084	19.29
266.3	47.96
266.516	29.52
266.732	60.24
266.948	11.09
267.164	-9.39
267.38	78.68
267.596	56.15
267.812	68.44
268.028	-5.29
268.244	-31.91
268.46	39.76
268.676	27.48
268.892	52.05
269.108	9.05
269.324	9.05
269.54	13.14
269.756	88.92
269.972	35.67
270.188	-5.29
270.403	-31.91
270.619	2.9
270.835	37.72
271.051	-5.29
271.267	129.88
271.483	-23.72
271.698	86.87
271.914	37.72
272.13	-95.4
272.346	50
272.562	27.48
272.777	82.77
272.993	-31.91
273.209	47.96
273.425	56.15
273.64	23.38
273.856	78.68
274.072	37.72
274.287	-25.77
274.503	88.92
274.719	78.68
274.934	-23.72
275.15	-44.2
275.366	54.1
275.581	-113.83
275.797	66.39
276.012	11.09
276.228	47.96
276.444	54.1
276.659	95.06
276.875	-9.39
277.09	29.52
277.306	-11.43
277.521	64.34
277.737	-25.77
277.952	-13.48
278.168	-27.82
278.383	25.43
278.599	7
278.814	31.57
279.03	27.48
279.245	101.2
279.461	17.24
279.676	105.3
279.892	4.95
280.107	-38.06
280.322	33.62
280.538	64.34
280.753	-31.91
280.969	4.95
281.184	-9.39
281.399	74.58
281.615	37.72
281.83	50
282.045	58.2
282.26	-9.39
282.476	11.09
282.691	-17.58
282.906	101.2
283.122	52.05
283.337	4.95
283.552	21.33
283.767	7
283.983	66.39
284.198	29.52
284.413	90.96
284.628	-85.16
284.843	39.76
285.058	2.9
285.274	-9.39
285.489	19.29
285.704	29.52
285.919	-5.29
286.134	-36.01
286.349	74.58
286.564	-27.82
286.779	31.57
286.995	25.43
287.21	0.85
287.425	11.09
287.64	-95.4
287.855	41.81
288.07	-91.31
288.285	117.59
288.5	95.06
288.715	43.86
288.93	31.57
289.145	11.09
289.36	123.73
289.575	60.24
289.79	58.2
290.004	52.05
290.219	80.72
290.434	-25.77
290.649	2.9
290.864	-72.87
291.079	144.21
291.294	58.2
291.509	54.1
291.724	47.96
291.938	33.62
292.153	-1.19
292.368	11.09
292.583	-54.44
292.798	2.9
293.012	146.26
293.227	66.39
293.442	35.67
293.657	64.34
293.871	80.72
294.086	158.55
294.301	95.06
294.516	45.91
294.73	-19.63
294.945	4.95
295.16	0.85
295.374	111.44
295.589	123.73
295.804	15.19
296.018	72.53
296.233	88.92
296.447	-17.58
296.662	21.33
296.877	90.96
297.091	-72.87
297.306	66.39
297.52	-5.29
297.735	72.53
297.949	21.33
298.164	-38.06
298.378	88.92
298.593	-33.96
298.807	17.24
299.022	113.49
299.236	158.55
299.451	-5.29
299.665	-13.48
299.88	2.9
300.094	11.09
300.309	-1.19
300.523	-23.72
300.737	23.38
300.952	39.76
301.166	7
301.381	-21.67
301.595	27.48
301.809	29.52
302.024	19.29
302.238	-36.01
302.452	150.36
302.667	41.81
302.881	64.34
303.095	33.62
303.309	31.57
303.524	56.15
303.738	-7.34
303.952	60.24
304.166	31.57
304.381	-9.39
304.595	62.29
304.809	7
305.023	-9.39
305.237	56.15
305.452	64.34
305.666	-15.53
305.88	43.86
306.094	41.81
306.308	13.14
306.522	64.34
306.736	76.63
306.95	31.57
307.164	-15.53
307.379	19.29
307.593	136.02
307.807	93.01
308.021	70.48
308.235	-27.82
308.449	-23.72
308.663	-23.72
308.877	101.2
309.091	25.43
309.305	47.96
309.519	-89.26
309.733	156.5
309.947	-52.39
310.161	-9.39
310.374	56.15
310.588	95.06
310.802	-13.48
311.016	-1.19
311.23	35.67
311.444	4.95
311.658	37.72
311.872	109.4
312.085	54.1
312.299	97.11
312.513	125.78
312.727	7
312.941	21.33
313.154	27.48
313.368	35.67
313.582	43.86
313.796	7
314.009	54.1
314.223	56.15
314.437	84.82
314.651	27.48
314.864	-1.19
315.078	62.29
315.292	0.85
315.505	-64.68
315.719	29.52
315.933	-3.24
316.146	-23.72
316.36	-23.72
316.573	107.35
316.787	72.53
317.001	25.43
317.214	4.95
317.428	31.57
317.641	68.44
317.855	31.57
318.068	17.24
318.282	39.76
318.495	37.72
318.709	90.96
318.922	7
319.136	101.2
319.349	35.67
319.563	76.63
319.776	68.44
319.99	-15.53
320.203	93.01
320.417	41.81
320.63	39.76
320.843	140.12
321.057	56.15
321.27	76.63
321.483	80.72
321.697	74.58
321.91	45.91
322.124	70.48
322.337	78.68
322.55	7
322.763	-7.34
322.977	64.34
323.19	9.05
323.403	107.35
323.617	160.59
323.83	76.63
324.043	35.67
324.256	47.96
324.469	4.95
324.683	56.15
324.896	27.48
325.109	-27.82
325.322	-38.06
325.535	133.97
325.748	62.29
325.962	19.29
326.175	-11.43
326.388	54.1
326.601	64.34
326.814	-48.3
327.027	-5.29
327.24	123.73
327.453	29.52
327.666	45.91
327.879	93.01
328.092	43.86
328.305	70.48
328.518	15.19
328.731	-46.25
328.944	-79.02
329.157	35.67
329.37	2.9
329.583	84.82
329.796	72.53
330.009	-44.2
330.222	64.34
330.435	78.68
330.648	7
330.861	39.76
331.073	43.86
331.286	-13.48
331.499	43.86
331.712	-7.34
331.925	39.76
332.138	15.19
332.35	131.92
332.563	27.48
332.776	113.49
332.989	-38.06
333.202	-17.58
333.414	-13.48
333.627	11.09
333.84	-29.87
334.053	21.33
334.265	-1.19
334.478	-40.11
334.691	60.24
334.903	50
335.116	-44.2
335.329	-23.72
335.541	56.15
335.754	154.45
335.966	-33.96
336.179	15.19
336.392	70.48
336.604	41.81
336.817	54.1
337.029	-17.58
337.242	45.91
337.454	45.91
337.667	47.96
337.88	82.77
338.092	4.95
338.305	45.91
338.517	-40.11
338.729	58.2
338.942	101.2
339.154	35.67
339.367	-21.67
339.579	93.01
339.792	-1.19
340.004	-21.67
340.217	60.24
340.429	7
340.641	35.67
340.854	2.9
341.066	11.09
341.278	-21.67
341.491	150.36
341.703	45.91
341.915	-23.72
342.128	66.39
342.34	64.34
342.552	-11.43
342.764	31.57
342.977	50
343.189	103.25
343.401	0.85
343.613	86.87
343.826	76.63
344.038	-5.29
344.25	21.33
344.462	0.85
344.674	103.25
344.886	-21.67
345.099	72.53
345.311	86.87
345.523	23.38
345.735	-48.3
345.947	-23.72
346.159	27.48
346.371	105.3
346.583	45.91
346.795	133.97
347.007	60.24
347.219	4.95
347.431	-11.43
347.643	113.49
347.855	11.09
348.067	86.87
348.279	-62.63
348.491	21.33
348.703	37.72
348.915	-40.11
349.127	19.29
349.339	0.85
349.551	15.19
349.763	76.63
349.975	88.92
350.187	19.29
350.399	15.19
350.61	95.06
350.822	-1.19
351.034	78.68
351.246	80.72
351.458	45.91
351.669	117.59
351.881	88.92
352.093	64.34
352.305	103.25
352.517	90.96
352.728	39.76
352.94	0.85
353.152	13.14
353.363	-25.77
353.575	-5.29
353.787	76.63
353.999	52.05
354.21	111.44
354.422	0.85
354.633	11.09
354.845	-25.77
355.057	68.44
355.268	54.1
355.48	99.16
355.692	-15.53
355.903	-27.82
356.115	-42.15
356.326	-68.78
356.538	68.44
356.749	93.01
356.961	72.53
357.172	11.09
357.384	-19.63
357.595	127.83
357.807	95.06
358.018	33.62
358.23	52.05
358.441	115.54
358.653	117.59
358.864	41.81
359.075	19.29
359.287	72.53
359.498	41.81
359.709	21.33
359.921	-1.19
360.132	80.72
360.344	21.33
360.555	21.33
360.766	76.63
360.977	56.15
361.189	88.92
361.4	25.43
361.611	113.49
361.823	86.87
362.034	-23.72
362.245	9.05
362.456	9.05
362.667	105.3
362.879	11.09
363.09	21.33
363.301	19.29
363.512	50
363.723	39.76
363.935	-7.34
364.146	41.81
364.357	29.52
364.568	-1.19
364.779	-33.96
364.99	93.01
365.201	2.9
365.412	43.86
365.623	-3.24
365.834	15.19
366.045	19.29
366.256	123.73
366.467	84.82
366.678	-1.19
366.889	11.09
367.1	60.24
367.311	90.96
367.522	-79.02
367.733	-5.29
367.944	52.05
368.155	93.01
368.366	90.96
368.577	45.91
368.788	111.44
368.999	9.05
369.209	2.9
369.42	90.96
369.631	187.22
369.842	156.5
370.053	29.52
370.264	78.68
370.474	25.43
370.685	50
370.896	-11.43
371.107	84.82
371.317	101.2
371.528	-15.53
371.739	52.05
371.95	115.54
372.16	7
372.371	-42.15
372.582	93.01
372.792	17.24
373.003	60.24
373.214	70.48
373.424	52.05
373.635	-9.39
373.846	7
374.056	33.62
374.267	64.34
374.477	4.95
374.688	-56.49
374.898	113.49
375.109	-46.25
375.319	45.91
375.53	56.15
375.74	-31.91
375.951	-29.87
376.161	74.58
376.372	58.2
376.582	-23.72
376.793	72.53
377.003	7
377.214	37.72
377.424	50
377.635	54.1
377.845	-54.44
378.055	113.49
378.266	-27.82
378.476	50
378.686	-33.96
378.897	90.96
379.107	64.34
379.317	-1.19
379.528	-3.24
379.738	142.16
379.948	39.76
380.158	123.73
380.369	23.38
380.579	62.29
380.789	4.95
380.999	66.39
381.21	113.49
381.42	64.34
381.63	101.2
381.84	47.96
382.05	72.53
382.261	146.26
382.471	41.81
382.681	-27.82
382.891	45.91
383.101	39.76
383.311	33.62
383.521	21.33
383.731	82.77
383.941	74.58
384.151	45.91
384.361	54.1
384.571	60.24
384.781	99.16
384.991	103.25
385.201	74.58
385.411	39.76
385.621	25.43
385.831	60.24
386.041	19.29
386.251	47.96
386.461	78.68
386.671	66.39
386.881	107.35
387.091	-29.87
387.301	113.49
387.511	78.68
387.72	9.05
387.93	62.29
388.14	-56.49
388.35	43.86
388.56	121.68
388.769	80.72
388.979	25.43
389.189	-7.34
389.399	7
389.609	-1.19
389.818	111.44
390.028	-52.39
390.238	23.38
390.447	47.96
390.657	58.2
390.867	31.57
391.076	17.24
391.286	95.06
391.496	52.05
391.705	13.14
391.915	97.11
392.125	97.11
392.334	0.85
392.544	99.16
392.753	9.05
392.963	13.14
393.172	33.62
393.382	31.57
393.591	136.02
393.801	19.29
394.01	80.72
394.22	27.48
394.429	56.15
394.639	39.76
394.848	13.14
395.058	45.91
395.267	60.24
395.477	84.82
395.686	25.43
395.895	158.55
396.105	90.96
396.314	107.35
396.524	86.87
396.733	0.85
396.942	90.96
397.152	82.77
397.361	101.2
397.57	125.78
397.78	25.43
397.989	78.68
398.198	115.54
398.407	13.14
398.617	68.44
398.826	72.53
399.035	156.5
399.244	58.2
399.453	-15.53
399.663	90.96
399.872	58.2
400.081	76.63
400.29	111.44
400.499	35.67
400.708	133.97
400.917	121.68
401.127	-25.77
401.336	68.44
401.545	131.92
401.754	117.59
401.963	146.26
402.172	86.87
402.381	50
402.59	62.29
402.799	82.77
403.008	21.33
403.217	119.64
403.426	127.83
403.635	21.33
403.844	152.4
404.053	66.39
404.262	97.11
404.471	199.51
404.68	66.39
404.888	109.4
405.097	60.24
405.306	88.92
405.515	138.07
405.724	84.82
405.933	129.88
406.142	166.74
406.35	228.18
406.559	88.92
406.768	123.73
406.977	84.82
407.185	111.44
407.394	121.68
407.603	60.24
407.812	199.51
408.02	205.65
408.229	136.02
408.438	103.25
408.646	164.69
408.855	78.68
409.064	213.84
409.272	150.36
409.481	125.78
409.69	205.65
409.898	226.13
410.107	246.61
410.315	211.79
410.524	127.83
410.733	148.31
410.941	213.84
411.15	240.47
411.358	166.74
411.567	369.49
411.775	230.23
411.984	203.6
412.192	301.9
412.401	275.28
412.609	297.81
412.818	408.4
413.026	289.62
413.234	297.81
413.443	299.86
413.651	256.85
413.86	248.66
414.068	365.39
414.276	338.77
414.485	359.25
414.693	426.83
414.901	551.76
415.11	402.26
415.318	447.31
415.526	478.03
415.734	478.03
415.943	418.64
416.151	545.61
416.359	449.36
416.567	518.99
416.776	527.18
416.984	625.48
417.192	590.67
417.4	539.47
417.608	566.09
417.817	514.89
418.025	633.68
418.233	740.17
418.441	629.58
418.649	615.24
418.857	721.74
419.065	795.47
419.273	815.94
419.481	631.63
419.689	887.62
419.897	789.32
420.105	742.22
420.313	961.35
420.521	979.78
420.729	928.58
420.937	910.15
421.145	983.88
421.353	1102.66
421.561	1069.89
421.769	1168.2
421.977	1162.05
422.185	1215.3
422.393	1270.59
422.601	1301.31
422.809	1229.63
423.017	1297.22
423.224	1381.18
423.432	1407.81
423.64	1420.1
423.848	1473.34
424.056	1456.96
424.263	1661.76
424.471	1563.45
424.679	1741.63
424.887	1661.76
425.094	1811.26
425.302	1860.41
425.51	1887.03
425.718	1925.94
425.925	1956.66
426.133	1938.23
426.341	2165.56
426.548	2270
426.756	2210.61
426.964	2224.95
427.171	2239.28
427.379	2380.59
427.586	2472.75
427.794	2509.62
428.001	2564.91
428.209	2687.79
428.417	2751.28
428.624	2855.72
428.832	2954.02
429.039	2888.49
429.247	2890.54
429.454	3111.72
429.662	3332.9
429.869	3056.42
430.076	3412.77
430.284	3300.13
430.491	3451.68
430.699	3703.58
430.906	3654.43
431.114	3734.3
431.321	3762.97
431.528	3707.68
431.736	3912.47
431.943	4176.66
432.15	4068.12
432.358	4111.13
432.565	4422.42
432.772	4363.03
432.979	4553.49
433.187	4578.06
433.394	4856.59
433.601	4875.02
433.808	5065.48
434.016	5169.93
434.223	5452.55
434.43	5485.31
434.637	5473.03
434.844	5743.36
435.052	5909.24
435.259	5722.88
435.466	5960.44
435.673	5823.23
435.88	6253.3
436.087	6507.25
436.294	6699.76
436.501	6335.22
436.708	6445.81
436.915	6660.85
437.122	7086.83
437.329	6976.23
437.537	7203.56
437.743	7359.21
437.95	7203.56
438.157	7674.59
438.364	7961.31
438.571	7949.02
438.778	8004.32
438.985	8639.19
439.192	8379.09
439.399	8714.96
439.606	8348.37
439.813	8968.91
440.02	9556.68
440.227	9417.41
440.433	9208.52
440.64	9429.7
440.847	9335.49
441.054	9687.75
441.261	10355.38
441.467	10083
441.674	10173.11
441.881	10822.32
442.088	10619.57
442.294	10566.32
442.501	10930.86
442.708	11293.35
442.914	11489.96
443.121	11977.37
443.328	11711.14
443.534	12309.15
443.741	12309.15
443.948	11995.81
444.154	12835.47
444.361	12946.06
444.568	13021.84
444.774	12901.01
444.981	13148.81
445.187	13474.44
445.394	13777.54
445.6	13777.54
445.807	15000.18
446.013	14488.18
446.22	14627.45
446.426	15121.01
446.633	15456.87
446.839	16085.6
447.046	15223.41
447.252	16032.35
447.459	15807.08
447.665	16079.46
447.871	16681.56
448.078	17259.09
448.284	16788.05
448.491	16972.37
448.697	17689.16
448.903	18160.19
449.11	18108.99
449.316	17842.76
449.522	18233.92
449.728	18659.9
449.935	19024.44
450.141	18954.8
450.347	19315.25
450.553	18707
450.76	18891.32
450.966	19317.29
451.172	19272.24
451.378	19655.21
451.584	19462.7
451.791	20029.99
451.997	20011.56
452.203	20027.94
452.409	20003.36
452.615	20156.96
452.821	19364.4
453.027	19036.72
453.233	19974.69
453.44	19378.73
453.646	19821.09
453.852	19708.46
454.058	19831.33
454.264	19298.86
454.47	19575.34
454.676	19204.66
454.882	19995.17
455.088	18369.09
455.294	18307.65
455.5	18823.73
455.705	19022.39
455.911	18106.95
456.117	17918.53
456.323	17406.54
456.529	16732.76
456.735	17574.47
456.941	17095.25
457.147	16841.3
457.352	16446.04
457.558	16030.3
457.764	16269.92
457.97	15979.11
458.176	15379.05
458.381	15225.45
458.587	14568.06
458.793	14555.77
458.999	13994.62
459.204	14735.99
459.41	14264.96
459.616	13335.18
459.821	13546.12
460.027	13269.64
460.233	13101.71
460.438	12647.06
460.644	12526.23
460.85	12055.2
461.055	12067.49
461.261	11764.39
461.466	10982.06
461.672	10504.89
461.878	11399.85
462.083	10607.28
462.289	10601.14
462.494	10283.7
462.7	9910.97
462.905	9579.2
463.111	9870.01
463.316	10017.47
463.522	9681.6
463.727	9882.3
463.932	9669.31
464.138	9679.55
464.343	9747.14
464.549	9251.53
464.754	9495.24
464.959	9624.26
465.165	9405.13
465.37	8872.65
465.575	8792.78
465.781	9224.9
465.986	9204.42
466.191	8753.87
466.397	8710.86
466.602	8145.63
466.807	8669.91
467.012	8641.23
467.218	8520.4
467.423	8375
467.628	8430.29
467.833	8575.7
468.038	8487.64
468.244	8237.78
468.449	8577.75
468.654	8258.26
468.859	8424.15
469.064	8194.78
469.269	7881.44
469.474	7922.4
469.679	8153.82
469.885	7891.68
470.09	7989.98
470.295	7799.52
470.5	7746.27
470.705	7797.47
470.91	7627.49
471.115	7361.25
471.32	7564
471.525	7639.78
471.73	7254.76
471.935	7453.41
472.139	7115.5
472.344	7021.29
472.549	7037.67
472.754	7064.3
472.959	6771.44
473.164	6699.76
473.369	6836.97
473.574	7183.08
473.778	6945.52
473.983	6851.31
474.188	6785.77
474.393	6550.26
474.598	6443.76
474.802	6478.58
475.007	6388.47
475.212	6482.67
475.417	6165.24
475.621	6146.81
475.826	6134.52
476.031	6134.52
476.235	5864.19
476.44	6091.51
476.645	5952.25
476.849	5839.61
477.054	5870.33
477.259	5767.93
477.463	5796.6
477.668	5686.01
477.872	5567.23
478.077	5643.01
478.282	5487.36
478.486	5430.02
478.691	5372.68
478.895	5358.34
479.1	5407.49
479.304	5454.59
479.509	5208.84
479.713	5233.41
479.918	5208.84
480.122	4995.85
480.326	5114.63
480.531	5192.45
480.735	4977.42
480.94	4997.9
481.144	5260.04
481.348	4983.56
481.553	5022.47
481.757	4875.02
481.961	4893.45
482.166	4870.92
482.37	4805.39
482.574	5014.28
482.778	4852.49
482.983	5055.24
483.187	4963.08
483.391	4883.21
483.595	4922.12
483.8	4807.44
484.004	4770.57
484.208	4836.11
484.412	4915.98
484.616	4891.4
484.821	4827.92
485.025	4774.67
485.229	4903.69
485.433	4852.49
485.637	4952.84
485.841	4733.71
486.045	4838.16
486.249	4762.38
486.453	4664.08
486.657	4862.73
486.861	4784.91
487.065	4807.44
487.269	4875.02
487.473	4860.68
487.677	4670.22
487.881	4918.03
488.085	4791.05
488.289	4852.49
488.493	4799.24
488.697	4922.12
488.901	4850.44
489.105	4756.24
489.309	4817.68
489.512	4928.27
489.716	5026.57
489.92	4825.87
490.124	4801.29
490.328	4946.7
490.531	4899.59
490.735	4858.64
490.939	4879.11
491.143	4856.59
491.346	5067.53
491.55	5059.34
491.754	5079.82
491.958	5106.44
492.161	5065.48
492.365	5065.48
492.569	4938.51
492.772	5028.62
492.976	4993.8
493.18	5092.1
493.383	5186.31
493.587	5167.88
493.79	5282.56
493.994	5155.59
494.197	5085.96
494.401	5335.81
494.605	5249.8
494.808	5235.46
495.012	5286.66
495.215	5307.14
495.419	5530.37
495.622	5294.85
495.825	5522.18
496.029	5436.16
496.232	5671.68
496.436	5600
496.639	5839.61
496.843	5710.59
497.046	5788.41
497.249	5933.82
497.453	5917.44
497.656	5767.93
497.859	5913.34
498.063	6005.5
498.266	6157.05
498.469	6128.38
498.673	6030.07
498.876	6304.5
499.079	6243.06
499.282	6345.46
499.485	6626.03
499.689	6540.02
499.892	6714.09
500.095	6535.92
500.298	6920.94
500.501	6654.7
500.705	6920.94
500.908	6931.18
501.111	6750.96
501.314	7142.12
501.517	7277.29
501.72	7291.62
501.923	7183.08
502.126	7400.16
502.329	7516.9
502.532	7641.82
502.735	7555.81
502.938	7770.85
503.141	7776.99
503.344	7729.89
503.547	7840.48
503.75	8041.18
503.953	8141.53
504.156	8088.28
504.359	8153.82
504.562	8274.65
504.765	8252.12
504.968	8381.14
505.17	8710.86
505.373	8821.45
505.576	8854.22
505.779	8676.05
505.982	8751.82
506.185	9210.57
506.387	9142.99
506.59	9147.08
506.793	9329.35
506.996	9272.01
507.198	9730.75
507.401	9646.79
507.604	9915.07
507.807	9837.25
508.009	9675.46
508.212	10035.9
508.415	9958.08
508.617	10019.52
508.82	10105.53
509.022	10295.99
509.225	10496.69
509.428	10502.84
509.63	10523.32
509.833	10666.67
510.035	10754.74
510.238	10764.98
510.44	11059.88
510.643	11023.02
510.845	11193
511.048	11084.46
511.25	11428.52
511.453	11276.97
511.655	11647.65
511.858	11653.8
512.06	11657.89
512.262	11852.45
512.465	11823.78
512.667	12051.1
512.87	12186.27
513.072	12128.92
513.274	12219.03
513.477	12372.63
513.679	12493.46
513.881	12700.31
514.084	12876.43
514.286	12894.86
514.488	12901.01
514.69	13228.68
514.893	13040.27
515.095	13261.45
515.297	13312.65
515.499	13683.33
515.701	13484.68
515.904	13738.63
516.106	13814.4
516.308	13931.14
516.51	13953.66
516.712	14107.26
516.914	14105.21
517.116	14414.46
517.318	14387.83
517.52	14652.02
517.722	14557.82
517.925	14656.12
518.127	15032.94
518.329	15053.42
518.531	14711.41
518.733	15088.24
518.935	15028.85
519.136	15297.13
519.338	15411.82
519.54	15436.39
519.742	15569.51
519.944	15864.42
520.146	16114.27
520.348	16030.3
520.55	15809.12
520.752	15753.83
520.954	16177.76
521.155	16210.53
521.357	16425.56
521.559	16532.06
521.761	16622.17
521.963	16687.7
522.164	16720.47
522.366	17039.95
522.568	17029.71
522.77	16988.75
522.971	17080.91
523.173	16882.26
523.375	17035.86
523.576	17097.3
523.778	17191.5
523.98	17488.46
524.181	17523.27
524.383	17470.03
524.584	17609.29
524.786	17556.04
524.988	17521.23
525.189	17769.03
525.391	17928.77
525.592	17891.91
525.794	17928.77
525.995	18168.38
526.197	17996.35
526.398	18281.02
526.6	18041.41
526.801	18278.97
527.003	18164.29
527.204	18061.89
527.406	18338.37
527.607	18362.94
527.808	18532.92
528.01	18178.62
528.211	18397.76
528.412	18690.62
528.614	19032.63
528.815	18702.9
529.016	18842.17
529.218	18690.62
529.419	18557.5
529.62	18782.77
529.822	18680.38
530.023	18625.08
530.224	18762.3
530.425	18631.23
530.626	18567.74
530.828	18737.72
531.029	19259.95
531.23	18760.25
531.431	18668.09
531.632	18850.36
531.833	19012.15
532.035	18936.37
532.236	18850.36
532.437	19026.48
532.638	18739.77
532.839	18891.32
533.04	19135.03
533.241	18836.02
533.442	19141.17
533.643	18799.16
533.844	19079.73
534.045	18946.61
534.246	19116.59
534.447	18946.61
534.648	19165.74
534.849	18905.65
535.05	19049.01
535.251	19135.03
535.451	18784.82
535.652	18946.61
535.853	18917.94
536.054	18881.08
536.255	18881.08
536.456	18815.54
536.657	19159.6
536.857	18784.82
537.058	19132.98
537.259	18907.7
537.46	19149.36
537.66	19034.67
537.861	18881.08
538.062	18958.9
538.263	18883.13
538.463	18594.36
538.664	18692.66
538.865	18795.06
539.065	18813.49
539.266	18674.23
539.466	19087.92
539.667	18588.22
539.868	19163.7
540.068	18919.99
540.269	18702.9
540.469	18971.19
540.67	18803.25
540.87	18451
541.071	18672.18
541.271	18965.04
541.472	18768.44
541.672	18408
541.873	18766.39
542.073	18723.38
542.274	18799.16
542.474	18582.07
542.675	18659.9
542.875	19059.25
543.075	18553.4
543.276	18631.23
543.476	18934.32
543.676	18651.7
543.877	18844.21
544.077	18643.51
544.277	18766.39
544.478	18663.99
544.678	18645.56
544.878	18610.75
545.078	18786.87
545.279	18389.56
545.479	18383.42
545.679	18629.18
545.879	18620.99
546.079	18649.66
546.28	18631.23
546.48	18563.64
546.68	18686.52
546.88	18655.8
547.08	18518.59
547.28	18438.72
547.48	18221.63
547.68	18663.99
547.88	18514.49
548.081	18842.17
548.281	18534.97
548.481	18303.55
548.681	18657.85
548.881	18696.76
549.081	18485.82
549.28	18135.62
549.48	18530.87
549.68	18387.52
549.88	18399.8
550.08	18430.52
550.28	18586.17
550.48	18291.26
550.68	18526.78
550.88	18195.01
551.08	18371.13
551.279	18436.67
551.479	18123.33
551.679	18496.06
551.879	18534.97
552.079	18545.21
552.278	18336.32
552.478	18461.24
552.678	18465.34
552.878	18405.95
553.077	18485.82
553.277	18537.02
553.477	18623.03
553.676	18360.89
553.876	18508.35
554.076	18213.44
554.275	18211.39
554.475	18317.89
554.674	18397.76
554.874	18444.86
555.074	18231.87
555.273	18137.66
555.473	18571.83
555.672	18041.41
555.872	18274.88
556.071	18530.87
556.271	18223.68
556.47	18104.9
556.67	18176.58
556.869	18131.52
557.068	18319.93
557.268	18127.42
557.467	18338.37
557.667	18487.87
557.866	18111.04
558.065	18477.63
558.265	18162.24
558.464	18197.06
558.663	18104.9
558.863	18082.37
559.062	18203.2
559.261	17789.51
559.461	18371.13
559.66	17998.4
559.859	17789.51
560.058	18156.1
560.258	18016.83
560.457	18049.6
560.656	18336.32
560.855	17809.99
561.054	18166.34
561.253	18125.38
561.453	17986.11
561.652	18053.7
561.851	18250.3
562.05	17848.9
562.249	17773.13
562.448	18117.18
562.647	17906.24
562.846	17648.2
563.045	18018.88
563.244	17902.15
563.443	18100.8
563.642	17730.12
563.841	18000.45
564.04	17795.65
564.239	17943.11
564.438	17734.21
564.637	17717.83
564.836	17562.19
565.035	17783.37
565.234	17805.89
565.432	17797.7
565.631	17738.31
565.83	17756.74
566.029	17719.88
566.228	17809.99
566.427	17508.94
566.625	17424.97
566.824	17394.25
567.023	17519.18
567.222	17533.51
567.42	17648.2
567.619	17517.13
567.818	17361.48
568.016	17601.1
568.215	17674.82
568.414	17404.49
568.612	17691.21
568.811	17357.39
569.01	17754.69
569.208	17044.05
569.407	17517.13
569.605	17291.85
569.804	17338.96
570.002	17291.85
570.201	17418.83
570.4	17328.72
570.598	17019.47
570.797	17314.38
570.995	17244.75
571.193	17068.62
571.392	17379.92
571.59	17306.19
571.789	17158.74
571.987	17175.12
572.186	17271.37
572.384	16706.13
572.582	17121.87
572.781	16992.85
572.979	16841.3
573.177	16958.03
573.376	17242.7
573.574	16980.56
573.772	17123.92
573.971	16894.55
574.169	16654.94
574.367	16507.48
574.565	16775.77
574.763	16638.55
574.962	16812.63
575.16	16466.52
575.358	16613.98
575.556	16376.41
575.754	16738.9
575.952	16525.91
576.151	16679.51
576.349	16480.86
576.547	16747.09
576.745	16642.65
576.943	16577.11
577.141	16542.3
577.339	16362.08
577.537	16329.31
577.735	16118.37
577.933	16409.18
578.131	16253.53
578.329	16476.76
578.527	16212.57
578.725	16304.73
578.923	16196.19
579.121	16114.27
579.319	16067.17
579.516	16456.28
579.714	16296.54
579.912	16183.9
580.11	16175.71
580.308	15989.35
580.506	16200.29
580.704	15772.26
580.901	16192.09
581.099	16255.58
581.297	15942.24
581.495	15837.8
581.692	15856.23
581.89	15719.01
582.088	16046.69
582.285	15725.16
582.483	15731.3
582.681	15610.47
582.878	15884.9
583.076	15700.58
583.274	15915.62
583.471	15645.29
583.669	15534.7
583.866	15403.63
584.064	15465.07
584.262	15194.73
584.459	15426.15
584.657	15497.83
584.854	15614.57
585.052	15118.96
585.249	15430.25
585.447	15174.25
585.644	15049.33
585.841	15667.81
586.039	15331.95
586.236	15139.44
586.434	15045.23
586.631	15104.62
586.828	15096.43
587.026	15086.19
587.223	15018.61
587.42	14844.53
587.618	15010.42
587.815	14795.38
588.012	14955.12
588.21	14582.39
588.407	15059.57
588.604	14633.59
588.801	14678.65
588.999	14955.12
589.196	14686.84
589.393	14541.43
589.59	14746.23
589.787	14824.05
589.984	14498.42
590.182	14613.11
590.379	14504.57
590.576	14625.4
590.773	14463.61
590.97	14443.13
591.167	14396.03
591.364	14436.99
591.561	14514.81
591.758	14230.14
591.955	14307.96
592.152	14172.8
592.349	14187.13
592.546	14170.75
592.743	14269.05
592.94	13984.38
593.137	14516.86
593.334	14203.52
593.531	13791.87
593.727	13970.05
593.924	13861.51
594.121	13861.51
594.318	13877.89
594.515	13681.28
594.712	14103.17
594.908	14002.82
595.105	13859.46
595.302	13861.51
595.499	13775.49
595.696	13855.36
595.892	13550.21
596.089	13871.75
596.286	13640.33
596.482	13351.56
596.679	13243.02
596.876	13574.79
597.072	13513.35
597.269	13644.42
597.466	13435.53
597.662	13460.1
597.859	13234.83
598.055	13423.24
598.252	13445.77
598.448	13509.26
598.645	13286.03
598.841	13146.76
599.038	13365.9
599.234	13406.86
599.431	13097.61
599.627	12974.74
599.824	13001.36
600.02	13073.04
600.217	13056.65
600.413	12968.59
600.609	13142.67
600.806	13109.9
601.002	13058.7
601.198	12933.78
601.395	12937.87
601.591	12892.82
601.787	13054.61
601.984	12843.67
602.18	12944.02
602.376	12802.71
602.572	12704.4
602.769	12808.85
602.965	12425.88
603.161	12767.89
603.357	12610.2
603.553	12739.22
603.75	12655.25
603.946	12409.5
604.142	12722.84
604.338	12270.23
604.534	12532.37
604.73	12092.06
604.926	12630.68
605.122	12483.22
605.318	12419.74
605.514	12216.99
605.71	12122.78
605.906	12292.76
606.102	12227.23
606.298	12069.53
606.494	12341.91
606.69	12206.75
606.886	12227.23
607.082	12100.25
607.278	12212.89
607.474	12071.58
607.67	12034.72
607.866	11874.98
608.062	12057.25
608.257	12032.67
608.453	12028.57
608.649	12069.53
608.845	11721.38
609.041	11950.75
609.236	11989.66
609.432	11958.94
609.628	12112.54
609.824	12069.53
610.019	11819.68
610.215	11960.99
610.411	11987.61
610.606	11948.7
610.802	11649.7
610.998	11713.19
611.193	11731.62
611.389	11774.63
611.584	11750.05
611.78	11678.37
611.976	11786.91
612.171	11868.83
612.367	11596.45
612.562	11793.06
612.758	11375.27
612.953	11578.02
613.149	11631.27
613.344	11575.97
613.539	11670.18
613.735	11612.84
613.93	11633.32
614.126	11389.61
614.321	11588.26
614.517	11504.29
614.712	11467.43
614.907	11516.58
615.103	11563.68
615.298	11387.56
615.493	11805.35
615.688	11502.25
615.884	11457.19
616.079	11420.33
616.274	11506.34
616.47	11313.83
616.665	11336.36
616.86	11266.73
617.055	11135.66
617.25	11197.1
617.445	11485.86
617.641	11129.52
617.836	11428.52
618.031	11168.43
618.226	11215.53
618.421	11250.35
618.616	11061.93
618.811	10859.18
619.006	11051.69
619.201	11068.08
619.396	11139.76
619.591	10732.21
619.786	11109.04
619.981	10672.82
620.176	10994.35
620.371	10640.05
620.566	10670.77
620.761	10812.08
620.956	10605.24
621.151	10427.06
621.346	10646.19
621.541	10377.91
621.735	10574.52
621.93	10465.97
622.125	10504.89
622.32	10345.14
622.515	10246.84
622.709	10281.66
622.904	10298.04
623.099	10117.82
623.294	10115.77
623.488	10140.35
623.683	10250.94
623.878	9976.51
624.072	10226.36
624.267	9876.16
624.462	9863.87
624.656	9863.87
624.851	9943.74
625.046	9808.58
625.24	9829.06
625.435	9745.09
625.629	9534.15
625.824	9550.53
626.018	9738.94
626.213	9347.78
626.407	9423.56
626.602	9554.63
626.796	9386.69
626.991	9542.34
627.185	9237.19
627.38	9112.27
627.574	9378.5
627.768	9097.93
627.963	9210.57
628.157	9048.78
628.352	9073.35
628.546	8970.96
628.74	9044.68
628.935	8798.93
629.129	8768.21
629.323	8602.32
629.517	8510.16
629.712	8690.38
629.906	8856.27
630.1	8604.37
630.294	8682.19
630.489	8323.8
630.683	8690.38
630.877	8485.59
631.071	8293.08
631.265	8315.61
631.459	8559.31
631.653	8260.31
631.848	8293.08
632.042	8303.32
632.236	8237.78
632.43	8168.15
632.624	8413.91
632.818	8153.82
633.012	8049.37
633.206	8188.63
633.4	8162.01
633.594	8037.08
633.788	7758.56
633.982	8123.1
634.176	8043.23
634.369	7764.7
634.563	7729.89
634.757	7789.28
634.951	7523.04
635.145	7703.26
635.339	7762.65
635.533	7588.58
635.726	7590.63
635.92	7537.38
636.114	7330.53
636.308	7387.88
636.501	7308.01
636.695	7398.12
636.889	7310.05
637.083	7260.9
637.276	7234.28
637.47	7277.29
637.664	7062.25
637.857	7095.02
638.051	7009
638.244	6978.28
638.438	7070.44
638.632	7066.35
638.825	6935.28
639.019	7060.2
639.212	6925.04
639.406	6849.26
639.599	6961.9
639.793	6763.25
639.986	6783.73
640.18	6793.97
640.373	6724.33
640.567	6707.95
640.76	6605.55
640.954	6634.22
641.147	6341.36
641.34	6589.17
641.534	6437.62
641.727	6544.11
641.92	6486.77
642.114	6306.55
642.307	6335.22
642.5	6462.19
642.694	6165.24
642.887	6091.51
643.08	6333.17
643.273	6169.34
643.467	6247.16
643.66	6058.74
643.853	6064.89
644.046	6023.93
644.239	5843.71
644.432	5868.28
644.626	5853.95
644.819	6099.7
645.012	5841.66
645.205	5833.47
645.398	5950.2
645.591	5837.56
645.784	5720.83
645.977	5796.6
646.17	5778.17
646.363	5622.53
646.556	5536.51
646.749	5411.59
646.942	5595.9
647.135	5356.29
647.328	5493.51
647.521	5432.07
647.714	5491.46
647.907	5276.42
648.099	5346.05
648.292	5272.32
648.485	5434.11
648.678	5239.56
648.871	5382.92
649.064	5184.26
649.256	5114.63
649.449	5194.5
649.642	5153.54
649.835	5212.93
650.027	5034.76
650.22	4989.71
650.413	4993.8
650.605	5051.14
650.798	4922.12
650.991	4991.75
651.183	4881.16
651.376	4909.83
651.568	4924.17
651.761	4793.1
651.954	4907.79
652.146	4811.53
652.339	4840.2
652.531	4858.64
652.724	4836.11
652.916	4686.61
653.109	4700.94
653.301	4670.22
653.494	4561.68
653.686	4748.04
653.879	4674.32
654.071	4616.97
654.263	4504.34
654.456	4459.28
654.648	4483.86
654.84	4379.41
655.033	4467.47
655.225	4287.25
655.417	4383.51
655.61	4496.14
655.802	4455.19
655.994	4264.72
656.186	4453.14
656.379	4346.64
656.571	4182.81
656.763	4221.72
656.955	4197.14
657.148	4291.35
657.34	4117.27
657.532	4104.98
657.724	3930.91
657.916	4078.36
658.108	4029.21
658.3	3988.25
658.492	4111.13
658.684	4002.58
658.876	4006.68
659.068	4029.21
659.26	3922.71
659.452	3904.28
659.644	3988.25
659.836	3906.33
660.028	3943.19
660.22	3832.6
660.412	3836.7
660.604	3662.62
660.796	3803.93
660.988	3805.98
661.18	3769.12
661.372	3822.36
661.563	3685.15
661.755	3687.2
661.947	3547.94
662.139	3627.81
662.331	3851.03
662.522	3506.98
662.714	3394.34
662.906	3525.41
663.097	3472.16
663.289	3541.79
663.481	3457.82
663.673	3574.56
663.864	3410.72
664.056	3476.26
664.247	3425.06
664.439	3599.13
664.631	3500.83
664.822	3535.65
665.014	3410.72
665.205	3373.86
665.397	3341.09
665.588	3400.48
665.78	3461.92
665.971	3375.91
666.163	3347.23
666.354	3310.37
666.546	3283.75
666.737	3384.1
666.929	3255.08
667.12	3322.66
667.311	3265.32
667.503	3199.78
667.694	3210.02
667.885	3195.68
668.077	3212.07
668.268	3072.81
668.459	3121.96
668.651	3248.93
668.842	3060.52
669.033	2976.55
669.224	2949.93
669.416	3144.49
669.607	3056.42
669.798	2986.79
669.989	3134.25
670.18	3132.2
670.371	3031.85
670.563	2921.26
670.754	3089.19
670.945	3085.09
671.136	2976.55
671.327	2874.15
671.518	3132.2
671.709	2958.12
671.9	3040.04
672.091	3070.76
672.282	2829.1
672.473	3013.42
672.664	2906.92
672.855	2931.5
673.046	3007.27
673.237	2870.06
673.428	2915.11
673.619	2980.65
673.809	2884.39
674	3064.61
674.191	2941.74
674.382	2802.47
674.573	2892.59
674.764	2863.91
674.954	2857.77
675.145	2706.22
675.336	2798.38
675.527	2863.91
675.717	2747.18
675.908	2704.17
676.099	2734.89
676.289	2818.86
676.48	2814.76
676.671	2757.42
676.861	2722.6
677.052	2808.62
677.243	2671.4
677.433	2683.69
677.624	2728.75
677.814	2691.88
678.005	2669.36
678.195	2732.84
678.386	2714.41
678.576	2720.56
678.767	2622.25
678.957	2765.61
679.148	2730.8
679.338	2798.38
679.529	2663.21
679.719	2702.12
679.909	2691.88
680.1	2702.12
680.29	2736.94
680.481	2661.16
680.671	2687.79
680.861	2765.61
681.052	2698.03
681.242	2679.6
681.432	2745.13
681.622	2683.69
681.813	2618.16
682.003	2566.96
682.193	2495.28
682.383	2675.5
682.573	2669.36
682.764	2579.25
682.954	2612.01
683.144	2603.82
683.334	2702.12
683.524	2695.98
683.714	2566.96
683.904	2581.29
684.094	2650.92
684.284	2612.01
684.474	2620.21
684.664	2759.47
684.854	2691.88
685.044	2679.6
685.234	2571.05
685.424	2698.03
685.614	2575.15
685.804	2532.14
685.994	2583.34
686.184	2603.82
686.374	2577.2
686.564	2523.95
686.753	2528.05
686.943	2517.81
687.133	2597.68
687.323	2532.14
687.513	2511.66
687.702	2534.19
687.892	2523.95
688.082	2552.62
688.272	2505.52
688.461	2505.52
688.651	2470.7
688.841	2407.22
689.03	2485.04
689.22	2427.7
689.41	2577.2
689.599	2413.36
689.789	2556.72
689.979	2399.02
690.168	2401.07
690.358	2423.6
690.547	2413.36
690.737	2384.69
690.926	2433.84
691.116	2356.02
691.305	2319.15
691.495	2321.2
691.684	2437.94
691.874	2358.07
692.063	2319.15
692.252	2368.31
692.442	2360.11
692.631	2282.29
692.82	2411.31
693.01	2247.48
693.199	2257.71
693.388	2194.23
693.578	2200.37
693.767	2351.92
693.956	2413.36
694.146	2196.28
694.335	2374.45
694.524	2253.62
694.713	2341.68
694.902	2437.94
695.092	2421.55
695.281	2251.57
695.47	2452.27
695.659	2304.82
695.848	2315.06
696.037	2282.29
696.226	2257.71
696.415	2233.14
696.604	2382.64
696.793	2323.25
696.982	2345.78
697.171	2376.5
697.36	2431.79
697.549	2321.2
697.738	2302.77
697.927	2382.64
698.116	2364.21
698.305	2286.39
698.494	2333.49
698.683	2323.25
698.872	2439.98
699.061	2335.54
699.25	2341.68
699.438	2353.97
699.627	2386.74
699.816	2384.69
700.005	2415.41
700.193	2388.78
700.382	2319.15
700.571	2423.6
700.76	2335.54
700.948	2415.41
701.137	2378.55
701.326	2425.65
701.514	2433.84
701.703	2485.04
701.892	2356.02
702.08	2575.15
702.269	2380.59
702.457	2399.02
702.646	2487.09
702.834	2407.22
703.023	2511.66
703.212	2562.86
703.4	2419.5
703.589	2462.51
703.777	2671.4
703.965	2476.85
704.154	2534.19
704.342	2419.5
704.531	2511.66
704.719	2470.7
704.907	2612.01
705.096	2460.46
705.284	2466.61
705.472	2595.63
705.661	2573.1
705.849	2534.19
706.037	2562.86
706.226	2577.2
706.414	2462.51
706.602	2466.61
706.79	2630.45
706.979	2452.27
707.167	2562.86
707.355	2562.86
707.543	2536.24
707.731	2616.11
707.919	2558.77
708.107	2499.38
708.296	2560.81
708.484	2540.33
708.672	2616.11
708.86	2569.01
709.048	2636.59
709.236	2564.91
709.424	2702.12
709.612	2683.69
709.8	2630.45
709.988	2450.22
710.176	2601.77
710.364	2614.06
710.551	2427.7
710.739	2616.11
710.927	2689.84
711.115	2632.49
711.303	2655.02
711.491	2521.9
711.679	2550.57
711.866	2550.57
712.054	2622.25
712.242	2720.56
712.43	2677.55
712.617	2517.81
712.805	2665.26
712.993	2667.31
713.181	2487.09
713.368	2732.84
713.556	2630.45
713.744	2589.49
713.931	2659.12
714.119	2716.46
714.306	2560.81
714.494	2571.05
714.682	2618.16
714.869	2579.25
715.057	2788.14
715.244	2509.62
715.432	2655.02
715.619	2560.81
715.807	2626.35
715.994	2644.78
716.182	2673.45
716.369	2657.07
716.556	2603.82
716.744	2663.21
716.931	2534.19
717.119	2685.74
717.306	2558.77
717.493	2593.58
717.681	2745.13
717.868	2671.4
718.055	2609.97
718.242	2612.01
718.43	2730.8
718.617	2677.55
718.804	2591.53
718.991	2704.17
719.179	2687.79
719.366	2597.68
719.553	2626.35
719.74	2640.69
719.927	2523.95
720.114	2669.36
720.301	2659.12
720.488	2622.25
720.676	2638.64
720.863	2581.29
721.05	2761.52
721.237	2618.16
721.424	2722.6
721.611	2808.62
721.798	2657.07
721.985	2612.01
722.172	2798.38
722.358	2630.45
722.545	2620.21
722.732	2624.3
722.919	2712.36
723.106	2734.89
723.293	2669.36
723.48	2736.94
723.667	2607.92
723.853	2640.69
724.04	2630.45
724.227	2710.32
724.414	2609.97
724.6	2528.05
724.787	2597.68
724.974	2579.25
725.161	2614.06
725.347	2497.33
725.534	2687.79
725.72	2593.58
725.907	2624.3
726.094	2577.2
726.28	2628.4
726.467	2673.45
726.653	2640.69
726.84	2552.62
727.027	2638.64
727.213	2513.71
727.4	2659.12
727.586	2616.11
727.773	2665.26
727.959	2724.65
728.145	2480.94
728.332	2585.39
728.518	2487.09
728.705	2599.73
728.891	2597.68
729.077	2538.29
729.264	2614.06
729.45	2569.01
729.636	2634.54
729.823	2532.14
730.009	2589.49
730.195	2585.39
730.382	2644.78
730.568	2612.01
730.754	2603.82
730.94	2433.84
731.126	2745.13
731.313	2595.63
731.499	2614.06
731.685	2634.54
731.871	2597.68
732.057	2700.08
732.243	2673.45
732.429	2655.02
732.615	2644.78
732.801	2562.86
732.987	2448.18
733.173	2487.09
733.359	2491.18
733.545	2519.85
733.731	2640.69
733.917	2589.49
734.103	2530.09
734.289	2519.85
734.475	2458.42
734.661	2603.82
734.847	2562.86
735.033	2532.14
735.219	2489.14
735.404	2507.57
735.59	2528.05
735.776	2452.27
735.962	2458.42
736.148	2384.69
736.333	2501.42
736.519	2534.19
736.705	2489.14
736.89	2538.29
737.076	2503.47
737.262	2411.31
737.447	2460.46
737.633	2433.84
737.819	2399.02
738.004	2523.95
738.19	2626.35
738.375	2464.56
738.561	2515.76
738.747	2239.28
738.932	2224.95
739.118	2560.81
739.303	2489.14
739.489	2392.88
739.674	2345.78
739.859	2360.11
740.045	2345.78
740.23	2360.11
740.416	2366.26
740.601	2241.33
740.786	2323.25
740.972	2239.28
741.157	2296.63
741.342	2241.33
741.528	2315.06
741.713	2409.26
741.898	2214.71
742.084	2288.43
742.269	2343.73
742.454	2147.12
742.639	2362.16
742.824	2188.08
743.01	2247.48
743.195	2280.24
743.38	2261.81
743.565	2171.7
743.75	2124.6
743.935	2218.8
744.12	2175.8
744.305	2147.12
744.49	2169.65
744.675	2054.97
744.86	2077.49
745.045	2130.74
745.23	2071.35
745.415	2054.97
745.6	2091.83
745.785	2034.49
745.97	2122.55
746.155	2001.72
746.34	2079.54
746.525	2100.02
746.71	2001.72
746.895	2050.87
747.079	1901.37
747.264	1907.51
747.449	2016.05
747.634	1979.19
747.819	1983.29
748.003	1913.66
748.188	1872.7
748.373	1932.09
748.557	1866.55
748.742	1932.09
748.927	1917.75
749.111	1872.7
749.296	1846.07
749.481	1848.12
749.665	1764.15
749.85	1956.66
750.034	1876.79
750.219	1751.87
750.404	1798.97
750.588	1788.73
750.773	1678.14
750.957	1735.48
751.141	1717.05
751.326	1801.02
751.51	1829.69
751.695	1731.39
751.879	1657.66
752.064	1743.67
752.248	1520.45
752.432	1725.24
752.617	1624.89
752.801	1596.22
752.985	1575.74
753.17	1637.18
753.354	1614.65
753.538	1532.73
753.722	1604.41
753.907	1602.36
754.091	1571.65
754.275	1598.27
754.459	1571.65
754.643	1563.45
754.828	1581.89
755.012	1499.97
755.196	1329.99
755.38	1495.87
755.564	1489.73
755.748	1477.44
755.932	1614.65
756.116	1385.28
756.3	1477.44
756.484	1467.2
756.668	1418.05
756.852	1354.56
757.036	1303.36
757.22	1350.46
757.404	1436.48
757.588	1379.14
757.772	1364.8
757.956	1356.61
758.14	1473.34
758.323	1354.56
758.507	1409.86
758.691	1305.41
758.875	1305.41
759.059	1325.89
759.242	1227.59
759.426	1319.75
759.61	1317.7
759.794	1168.2
759.977	1246.02
760.161	1426.24
760.345	1266.5
760.528	1231.68
760.712	1311.55
760.895	1295.17
761.079	1217.35
761.263	1182.53
761.446	1198.92
761.63	1270.59
761.813	1227.59
761.997	1143.62
762.18	1141.57
762.364	1153.86
762.547	1084.23
762.731	1194.82
762.914	1246.02
763.098	1174.34
763.281	1123.14
763.464	1098.56
763.648	1127.24
763.831	1094.47
764.015	1119.04
764.198	1121.09
764.381	1090.37
764.564	1106.76
764.748	1112.9
764.931	1121.09
765.114	1051.46
765.297	1086.28
765.481	1067.85
765.664	1012.55
765.847	1041.22
766.03	1123.14
766.213	1063.75
766.397	983.88
766.58	951.11
766.763	1108.8
766.946	987.97
767.129	1090.37
767.312	985.93
767.495	1012.55
767.678	879.43
767.861	994.12
768.044	1018.69
768.227	1129.28
768.41	955.21
768.593	992.07
768.776	928.58
768.959	1014.6
769.142	1004.36
769.324	998.21
769.507	922.44
769.69	990.02
769.873	990.02
770.056	1039.17
770.239	990.02
770.421	940.87
770.604	1080.13
770.787	959.3
770.97	932.68
771.152	924.49
771.335	1014.6
771.518	791.37
771.7	994.12
771.883	944.97
772.066	934.73
772.248	983.88
772.431	944.97
772.613	926.54
772.796	871.24
772.978	973.64
773.161	947.01
773.343	867.14
773.526	928.58
773.708	844.62
773.891	826.18
774.073	854.86
774.256	803.66
774.438	867.14
774.621	805.71
774.803	822.09
774.985	779.08
775.168	895.82
775.35	791.37
775.532	803.66
775.715	828.23
775.897	744.27
776.079	725.83
776.261	828.23
776.444	813.9
776.626	842.57
776.808	826.18
776.99	703.31
777.173	693.07
777.355	793.42
777.537	791.37
777.719	672.59
777.901	817.99
778.083	807.75
778.265	688.97
778.447	701.26
778.629	729.93
778.811	731.98
778.993	744.27
779.175	723.79
779.357	650.06
779.539	668.49
779.721	648.01
779.903	648.01
780.085	672.59
780.267	684.87
780.449	666.44
780.631	719.69
780.812	779.08
780.994	631.63
781.176	625.48
781.358	596.81
781.54	668.49
781.721	611.15
781.903	688.97
782.085	523.09
782.267	637.77
782.448	580.43
782.63	588.62
782.812	611.15
782.993	574.28
783.175	516.94
783.357	469.84
783.538	611.15
783.72	539.47
783.901	557.9
784.083	541.52
784.264	564.04
784.446	549.71
784.627	531.28
784.809	506.7
784.99	443.21
785.172	543.57
785.353	553.8
785.535	574.28
785.716	447.31
785.897	449.36
786.079	500.56
786.26	486.22
786.441	559.95
786.623	451.41
786.804	463.69
786.985	500.56
787.167	478.03
787.348	457.55
787.529	461.65
787.71	488.27
787.891	508.75
788.073	402.26
788.254	400.21
788.435	514.89
788.616	463.69
788.797	400.21
788.978	428.88
789.159	441.17
789.34	449.36
789.522	471.89
789.703	418.64
789.884	457.55
790.065	455.5
790.246	471.89
790.427	430.93
790.607	435.02
790.788	457.55
790.969	445.26
791.15	441.17
791.331	465.74
791.512	338.77
791.693	353.1
791.874	320.34
792.054	457.55
792.235	422.73
792.416	285.52
792.597	310.1
792.778	371.54
792.958	394.06
793.139	422.73
793.32	428.88
793.5	279.38
793.681	361.3
793.862	445.26
794.042	248.66
794.223	359.25
794.404	291.66
794.584	318.29
794.765	383.82
794.945	314.19
795.126	318.29
795.306	344.91
795.487	353.1
795.667	293.71
795.848	330.58
796.028	297.81
796.209	289.62
796.389	287.57
796.57	367.44
796.75	291.66
796.93	336.72
797.111	277.33
797.291	306
797.471	346.96
797.652	187.22
797.832	312.14
798.012	338.77
798.192	256.85
798.373	320.34
798.553	281.43
798.733	303.95
798.913	230.23
799.093	285.52
799.274	236.37
799.454	306
799.634	314.19
799.814	297.81
799.994	387.92
800.174	340.82
800.354	287.57
800.534	166.74
800.714	336.72
800.894	318.29
801.074	219.99
801.254	287.57
801.434	312.14
801.614	209.75
801.794	209.75
801.974	1225.54
802.154	185.17
802.334	236.37
802.514	271.19
802.693	240.47
802.873	199.51
803.053	344.91
803.233	209.75
803.413	172.88
803.592	234.32
803.772	176.98
803.952	224.08
804.131	215.89
804.311	273.23
804.491	285.52
804.67	146.26
804.85	211.79
805.03	258.9
805.209	324.43
805.389	228.18
805.568	150.36
805.748	179.03
805.928	150.36
806.107	222.03
806.287	289.62
806.466	191.31
806.646	213.84
806.825	222.03
807.004	162.64
807.184	154.45
807.363	238.42
807.543	207.7
807.722	95.06
807.901	242.51
808.081	258.9
808.26	111.44
808.439	224.08
808.619	242.51
808.798	168.79
808.977	211.79
809.156	244.56
809.336	217.94
809.515	211.79
809.694	162.64
809.873	234.32
810.052	252.75
810.231	146.26
810.411	164.69
810.59	172.88
810.769	236.37
810.948	174.93
811.127	150.36
811.306	123.73
811.485	129.88
811.664	250.71
811.843	105.3
812.022	125.78
812.201	170.83
812.38	185.17
812.559	86.87
812.737	256.85
812.916	146.26
813.095	105.3
813.274	199.51
813.453	144.21
813.632	129.88
813.811	213.84
813.989	144.21
814.168	201.55
814.347	144.21
814.526	207.7
814.704	211.79
814.883	238.42
815.062	101.2
815.24	185.17
815.419	158.55
815.598	95.06
815.776	70.48
815.955	168.79
816.133	82.77
816.312	140.12
816.49	154.45
816.669	146.26
816.847	127.83
817.026	174.93
817.204	142.16
817.383	101.2
817.561	13.14
817.74	152.4
817.918	103.25
818.097	148.31
818.275	127.83
818.453	170.83
818.632	148.31
818.81	101.2
818.988	97.11
819.167	121.68
819.345	148.31
819.523	129.88
819.701	205.65
819.879	197.46
820.058	105.3
820.236	129.88
820.414	152.4
820.592	80.72
820.77	125.78
820.948	101.2
821.127	107.35
821.305	105.3
821.483	43.86
821.661	31.57
821.839	131.92
822.017	158.55
822.195	211.79
822.373	215.89
822.551	156.5
822.729	166.74
822.907	68.44
823.085	131.92
823.262	82.77
823.44	50
823.618	19.29
823.796	107.35
823.974	101.2
824.152	129.88
824.329	125.78
824.507	97.11
824.685	136.02
824.863	136.02
825.04	97.11
825.218	119.64
825.396	172.88
825.574	64.34
825.751	9.05
825.929	68.44
826.107	39.76
826.284	123.73
826.462	131.92
826.639	97.11
826.817	90.96
826.994	136.02
827.172	13.14
827.349	138.07
827.527	90.96
827.704	105.3
827.882	60.24
828.059	107.35
828.237	119.64
828.414	150.36
828.591	-52.39
828.769	160.59
828.946	7
829.124	203.6
829.301	90.96
829.478	47.96
829.655	80.72
829.833	-9.39
830.01	-29.87
830.187	56.15
830.364	107.35
830.542	72.53
830.719	156.5
830.896	95.06
831.073	107.35
831.25	107.35
831.427	90.96
831.604	78.68
831.782	50
831.959	156.5
832.136	119.64
832.313	138.07
832.49	97.11
832.667	99.16
832.844	109.4
833.021	70.48
833.198	31.57
833.374	35.67
833.551	133.97
833.728	76.63
833.905	142.16
834.082	56.15
834.259	86.87
834.436	172.88
834.612	76.63
834.789	127.83
834.966	84.82
835.143	113.49
835.319	19.29
835.496	84.82
835.673	101.2
835.85	90.96
836.026	82.77
836.203	119.64
836.38	101.2
836.556	113.49
836.733	52.05
836.909	191.31
837.086	27.48
837.262	-7.34
837.439	41.81
837.616	78.68
837.792	90.96
837.968	41.81
838.145	25.43
838.321	111.44
838.498	-13.48
838.674	17.24
838.851	115.54
839.027	47.96
839.203	41.81
839.38	62.29
839.556	82.77
839.732	99.16
839.909	39.76
840.085	47.96
840.261	60.24
840.437	33.62
840.614	11.09
840.79	66.39
840.966	25.43
841.142	105.3
841.318	136.02
841.494	105.3
841.671	93.01
841.847	15.19
842.023	19.29
842.199	125.78
842.375	123.73
842.551	-1.19
842.727	21.33
842.903	199.51
843.079	0.85
843.255	125.78
843.431	164.69
843.607	142.16
843.783	76.63
843.959	39.76
844.134	62.29
844.31	74.58
844.486	62.29
844.662	4.95
844.838	95.06
845.013	76.63
845.189	58.2
845.365	47.96
845.541	-13.48
845.716	72.53
845.892	144.21
846.068	9.05
846.244	11.09
846.419	56.15
846.595	13.14
846.77	-17.58
846.946	154.45
847.122	101.2
847.297	-17.58
847.473	62.29
847.648	2.9
847.824	47.96
847.999	-109.74
848.175	9.05
848.35	95.06
848.526	90.96
848.701	125.78
848.876	90.96
849.052	109.4
849.227	11.09
849.403	60.24
849.578	13.14
849.753	93.01
849.929	11.09
850.104	39.76
850.279	86.87
850.454	50
850.63	68.44
850.805	2.9
850.98	17.24
851.155	56.15
851.33	58.2
851.505	9.05
851.681	101.2
851.856	-60.59
852.031	62.29
852.206	68.44
852.381	39.76
852.556	27.48
852.731	17.24
852.906	111.44
853.081	37.72
853.256	117.59
853.431	58.2
853.606	-21.67
853.781	29.52
853.956	-56.49
854.131	138.07
854.305	-52.39
854.48	68.44
854.655	45.91
854.83	-21.67
855.005	-9.39
855.18	140.12
855.354	11.09
855.529	-5.29
855.704	29.52
855.879	21.33
856.053	4.95
856.228	25.43
856.403	11.09
856.577	66.39
856.752	66.39
856.926	17.24
857.101	74.58
857.276	-25.77
857.45	2.9
857.625	82.77
857.799	97.11
857.974	64.34
858.148	37.72
858.323	62.29
858.497	76.63
858.672	25.43
858.846	4.95
859.02	62.29
859.195	-1.19
859.369	9.05
859.543	-9.39
859.718	90.96
859.892	84.82
860.066	33.62
860.241	21.33
860.415	39.76
860.589	9.05
860.763	-1.19
860.938	9.05
861.112	17.24
861.286	4.95
861.46	97.11
861.634	33.62
861.808	76.63
861.982	68.44
862.157	52.05
862.331	9.05
862.505	-48.3
862.679	-27.82
862.853	17.24
863.027	56.15
863.201	80.72
863.375	17.24
863.549	80.72
863.722	125.78
863.896	76.63
864.07	-44.2
864.244	0.85
864.418	54.1
864.592	43.86
864.766	19.29
864.939	7
865.113	95.06
865.287	15.19
865.461	-56.49
865.634	-1.19
865.808	-15.53
865.982	-44.2
866.156	-44.2
866.329	-31.91
866.503	-11.43
866.676	-52.39
866.85	45.91
867.024	35.67
867.197	117.59
867.371	-19.63
867.544	37.72
867.718	-25.77
867.891	146.26
868.065	-19.63
868.238	-3.24
868.412	82.77
868.585	45.91
868.759	4.95
868.932	-9.39
869.105	-17.58
869.279	-25.77
869.452	-11.43
869.625	11.09
869.799	95.06
869.972	-27.82
870.145	41.81
870.319	17.24
870.492	7
870.665	-85.16
870.838	64.34
871.011	-111.78
871.185	-13.48
871.358	31.57
871.531	56.15
871.704	-111.78
871.877	129.88
872.05	-46.25
872.223	-21.67
872.396	13.14
872.569	88.92
872.742	-9.39
872.915	33.62
873.088	29.52
873.261	-15.53
873.434	0.85
873.607	-9.39
873.78	-11.43
873.953	9.05
874.126	-50.35
874.299	4.95
874.471	4.95
874.644	-89.26
874.817	13.14
874.99	101.2
875.163	-17.58
875.335	35.67
875.508	23.38
875.681	47.96
875.853	0.85
876.026	43.86
876.199	15.19
876.371	56.15
876.544	-72.87
876.717	2.9
876.889	11.09
877.062	-7.34
877.234	-60.59
877.407	33.62
877.579	9.05
877.752	50
877.924	23.38
878.097	97.11
878.269	64.34
878.442	-5.29
878.614	27.48
878.786	15.19
878.959	13.14
879.131	9.05
879.303	-62.63
879.476	21.33
879.648	107.35
879.82	88.92
879.993	-52.39
880.165	43.86
880.337	-62.63
880.509	70.48
880.681	-42.15
880.854	-83.11
881.026	50
881.198	111.44
881.37	58.2
881.542	35.67
881.714	-70.83
881.886	33.62
882.058	37.72
882.23	66.39
882.402	-38.06
882.574	74.58
882.746	21.33
882.918	97.11
883.09	88.92
883.262	-50.35
883.434	-31.91
883.606	11.09
883.778	-31.91
883.95	62.29
884.122	17.24
884.293	82.77
884.465	27.48
884.637	90.96
884.809	-46.25
884.98	119.64
885.152	41.81
885.324	13.14
885.496	2.9
885.667	-40.11
885.839	60.24
886.011	95.06
886.182	11.09
886.354	62.29
886.525	-48.3
886.697	-3.24
886.869	-40.11
887.04	-46.25
887.212	27.48
887.383	15.19
887.555	21.33
887.726	-13.48
887.897	-3.24
888.069	4.95
888.24	41.81
888.412	90.96
888.583	-13.48
888.754	-52.39
888.926	-21.67
889.097	-7.34
889.268	-46.25
889.44	21.33
889.611	-23.72
889.782	-58.54
889.953	-40.11
890.125	-27.82
890.296	13.14
890.467	-33.96
890.638	-56.49
890.809	43.86
890.98	-27.82
891.151	15.19
891.323	-33.96
891.494	-31.91
891.665	45.91
891.836	64.34
892.007	11.09
892.178	54.1
892.349	50
892.52	-95.4
892.691	-21.67
892.862	17.24
893.032	-13.48
893.203	15.19
893.374	-31.91
893.545	23.38
893.716	-21.67
893.887	41.81
894.057	-15.53
894.228	39.76
894.399	-11.43
894.57	80.72
894.74	-3.24
894.911	72.53
895.082	60.24
895.253	35.67
895.423	39.76
895.594	-54.44
895.764	-3.24
895.935	-9.39
896.106	86.87
896.276	9.05
896.447	4.95
896.617	-27.82
896.788	-48.3
896.958	-68.78
897.129	11.09
897.299	-38.06
897.47	27.48
897.64	33.62
897.81	-42.15
897.981	21.33
898.151	-44.2
898.322	19.29
898.492	2.9
898.662	-70.83
898.832	45.91
899.003	-19.63
899.173	-25.77
899.343	13.14
899.513	-54.44
