Data from USB4F104151__72__12-12-40-253.txt Node

Date: Fri Mar 14 12:12:40 EDT 2025
User: louis
Spectrometer: USB4F10415
Trigger mode: 4
Integration Time (sec): 5.000000E-2
Scans to average: 1
Electric dark correction enabled: true
Nonlinearity correction enabled: false
Boxcar width: 0
XAxis mode: Wavelengths
Number of Pixels in Spectrum: 3648
>>>>>Begin Spectral Data<<<<<
178.204	-117.76
178.424	-117.76
178.644	-117.76
178.864	-136.19
179.084	-179.2
179.304	-7.17
179.524	-111.61
179.744	-15.36
179.964	27.65
180.184	1.02
180.404	54.27
180.624	13.31
180.844	-62.46
181.064	27.65
181.283	29.7
181.503	-44.03
181.723	87.04
181.943	-41.98
182.163	121.85
182.383	-9.22
182.602	72.7
182.822	37.89
183.042	99.33
183.262	-23.55
183.482	1.02
183.701	50.18
183.921	41.98
184.141	-39.94
184.361	60.42
184.58	11.26
184.8	80.89
185.02	-37.89
185.239	68.61
185.459	-5.12
185.679	99.33
185.898	15.36
186.118	62.46
186.338	-5.12
186.557	68.61
186.777	-13.31
186.997	60.42
187.216	-19.46
187.436	158.72
187.655	97.28
187.875	115.71
188.095	46.08
188.314	134.14
188.534	103.42
188.753	21.5
188.973	84.99
189.192	82.94
189.412	33.79
189.631	21.5
189.851	115.71
190.07	-13.31
190.29	-11.26
190.509	62.46
190.729	-9.22
190.948	66.56
191.168	226.3
191.387	82.94
191.607	62.46
191.826	56.32
192.045	62.46
192.265	93.18
192.484	68.61
192.704	117.76
192.923	-103.42
193.142	132.09
193.362	9.22
193.581	60.42
193.8	66.56
194.02	52.22
194.239	66.56
194.458	31.74
194.678	7.17
194.897	25.6
195.116	21.5
195.335	-13.31
195.555	39.94
195.774	91.13
195.993	19.46
196.212	50.18
196.432	7.17
196.651	23.55
196.87	33.79
197.089	177.15
197.308	109.57
197.528	50.18
197.747	-23.55
197.966	107.52
198.185	109.57
198.404	-80.89
198.623	82.94
198.842	99.33
199.062	27.65
199.281	39.94
199.5	41.98
199.719	52.22
199.938	64.51
200.157	-19.46
200.376	103.42
200.595	115.71
200.814	48.13
201.033	-35.84
201.252	82.94
201.471	-1.02
201.69	44.03
201.909	-37.89
202.128	58.37
202.347	68.61
202.566	52.22
202.785	5.12
203.004	-3.07
203.223	162.81
203.442	31.74
203.661	7.17
203.879	-25.6
204.098	21.5
204.317	-9.22
204.536	136.19
204.755	39.94
204.974	-33.79
205.193	89.09
205.411	68.61
205.63	142.33
205.849	21.5
206.068	80.89
206.287	-15.36
206.505	103.42
206.724	25.6
206.943	5.12
207.162	60.42
207.381	113.66
207.599	15.36
207.818	37.89
208.037	9.22
208.255	5.12
208.474	44.03
208.693	54.27
208.911	-7.17
209.13	70.65
209.349	13.31
209.567	46.08
209.786	87.04
210.005	56.32
210.223	19.46
210.442	-27.65
210.661	60.42
210.879	-3.07
211.098	37.89
211.316	35.84
211.535	-3.07
211.753	91.13
211.972	74.75
212.191	-39.94
212.409	44.03
212.628	-7.17
212.846	50.18
213.065	-41.98
213.283	142.33
213.502	3.07
213.72	70.65
213.938	97.28
214.157	68.61
214.375	44.03
214.594	72.7
214.812	66.56
215.031	64.51
215.249	48.13
215.467	56.32
215.686	60.42
215.904	121.85
216.122	35.84
216.341	50.18
216.559	48.13
216.778	48.13
216.996	78.85
217.214	7.17
217.432	46.08
217.651	35.84
217.869	62.46
218.087	84.99
218.306	-15.36
218.524	93.18
218.742	1.02
218.96	52.22
219.179	-39.94
219.397	5.12
219.615	68.61
219.833	1.02
220.051	31.74
220.27	60.42
220.488	11.26
220.706	66.56
220.924	60.42
221.142	91.13
221.36	54.27
221.578	160.77
221.796	50.18
222.015	72.7
222.233	11.26
222.451	173.05
222.669	1.02
222.887	54.27
223.105	-15.36
223.323	27.65
223.541	-44.03
223.759	82.94
223.977	35.84
224.195	160.77
224.413	46.08
224.631	15.36
224.849	35.84
225.067	91.13
225.285	-62.46
225.503	56.32
225.721	-48.13
225.939	5.12
226.157	-13.31
226.375	89.09
226.592	-15.36
226.81	11.26
227.028	54.27
227.246	95.23
227.464	33.79
227.682	70.65
227.9	64.51
228.117	50.18
228.335	62.46
228.553	31.74
228.771	9.22
228.989	11.26
229.206	64.51
229.424	11.26
229.642	-17.41
229.86	37.89
230.077	97.28
230.295	56.32
230.513	48.13
230.731	31.74
230.948	113.66
231.166	84.99
231.384	-7.17
231.601	13.31
231.819	87.04
232.037	15.36
232.254	-17.41
232.472	-13.31
232.689	-9.22
232.907	58.37
233.125	-7.17
233.342	-68.61
233.56	-5.12
233.777	-41.98
233.995	1.02
234.213	156.67
234.43	66.56
234.648	25.6
234.865	-44.03
235.083	103.42
235.3	37.89
235.518	70.65
235.735	33.79
235.953	109.57
236.17	-19.46
236.388	44.03
236.605	-11.26
236.822	84.99
237.04	130.05
237.257	-13.31
237.475	48.13
237.692	52.22
237.909	25.6
238.127	35.84
238.344	91.13
238.562	68.61
238.779	-60.42
238.996	50.18
239.214	-25.6
239.431	87.04
239.648	-80.89
239.865	1.02
240.083	11.26
240.3	44.03
240.517	1.02
240.735	15.36
240.952	37.89
241.169	64.51
241.386	72.7
241.603	50.18
241.821	-9.22
242.038	105.47
242.255	48.13
242.472	-7.17
242.689	56.32
242.907	58.37
243.124	-72.7
243.341	-31.74
243.558	95.23
243.775	-39.94
243.992	-54.27
244.209	50.18
244.426	158.72
244.643	70.65
244.86	-5.12
245.078	142.33
245.295	123.9
245.512	21.5
245.729	-5.12
245.946	109.57
246.163	31.74
246.38	17.41
246.597	87.04
246.814	64.51
247.031	-11.26
247.248	23.55
247.464	70.65
247.681	13.31
247.898	68.61
248.115	95.23
248.332	62.46
248.549	107.52
248.766	142.33
248.983	130.05
249.2	84.99
249.417	74.75
249.633	-1.02
249.85	48.13
250.067	31.74
250.284	19.46
250.501	19.46
250.717	62.46
250.934	70.65
251.151	-52.22
251.368	-17.41
251.585	35.84
251.801	50.18
252.018	-35.84
252.235	99.33
252.451	3.07
252.668	-46.08
252.885	109.57
253.102	123.9
253.318	50.18
253.535	-37.89
253.752	19.46
253.968	62.46
254.185	-84.99
254.401	3.07
254.618	17.41
254.835	21.5
255.051	115.71
255.268	39.94
255.484	35.84
255.701	-29.7
255.917	19.46
256.134	-31.74
256.351	19.46
256.567	-46.08
256.784	-23.55
257	21.5
257.217	74.75
257.433	66.56
257.65	99.33
257.866	99.33
258.082	56.32
258.299	25.6
258.515	33.79
258.732	48.13
258.948	-46.08
259.165	-17.41
259.381	-27.65
259.597	21.5
259.814	-11.26
260.03	115.71
260.246	-39.94
260.463	23.55
260.679	76.8
260.895	52.22
261.112	41.98
261.328	109.57
261.544	37.89
261.761	162.81
261.977	-5.12
262.193	-33.79
262.409	128
262.626	-29.7
262.842	23.55
263.058	50.18
263.274	-7.17
263.49	5.12
263.707	-1.02
263.923	44.03
264.139	-76.8
264.355	27.65
264.571	119.81
264.787	-31.74
265.004	41.98
265.22	-80.89
265.436	31.74
265.652	-9.22
265.868	-9.22
266.084	-29.7
266.3	-48.13
266.516	-95.23
266.732	3.07
266.948	41.98
267.164	27.65
267.38	52.22
267.596	27.65
267.812	105.47
268.028	9.22
268.244	31.74
268.46	48.13
268.676	-13.31
268.892	-9.22
269.108	39.94
269.324	-50.18
269.54	-23.55
269.756	41.98
269.972	-70.65
270.188	25.6
270.403	-31.74
270.619	76.8
270.835	41.98
271.051	101.37
271.267	23.55
271.483	11.26
271.698	25.6
271.914	50.18
272.13	46.08
272.346	93.18
272.562	39.94
272.777	87.04
272.993	50.18
273.209	-9.22
273.425	52.22
273.64	-46.08
273.856	60.42
274.072	-1.02
274.287	11.26
274.503	70.65
274.719	-1.02
274.934	29.7
275.15	-46.08
275.366	50.18
275.581	11.26
275.797	54.27
276.012	50.18
276.228	21.5
276.444	17.41
276.659	160.77
276.875	23.55
277.09	-17.41
277.306	54.27
277.521	82.94
277.737	23.55
277.952	58.37
278.168	60.42
278.383	107.52
278.599	-19.46
278.814	33.79
279.03	48.13
279.245	56.32
279.461	-17.41
279.676	68.61
279.892	-68.61
280.107	21.5
280.322	46.08
280.538	56.32
280.753	-27.65
280.969	29.7
281.184	41.98
281.399	95.23
281.615	-35.84
281.83	35.84
282.045	-11.26
282.26	-15.36
282.476	-39.94
282.691	72.7
282.906	33.79
283.122	52.22
283.337	13.31
283.552	35.84
283.767	48.13
283.983	117.76
284.198	56.32
284.413	-1.02
284.628	-9.22
284.843	64.51
285.058	91.13
285.274	29.7
285.489	-54.27
285.704	-1.02
285.919	-3.07
286.134	-3.07
286.349	66.56
286.564	23.55
286.779	128
286.995	-13.31
287.21	-80.89
287.425	-7.17
287.64	66.56
287.855	25.6
288.07	-9.22
288.285	50.18
288.5	66.56
288.715	64.51
288.93	13.31
289.145	44.03
289.36	39.94
289.575	-5.12
289.79	68.61
290.004	-76.8
290.219	107.52
290.434	-27.65
290.649	-39.94
290.864	58.37
291.079	-39.94
291.294	50.18
291.509	11.26
291.724	60.42
291.938	31.74
292.153	-1.02
292.368	19.46
292.583	21.5
292.798	33.79
293.012	-68.61
293.227	-39.94
293.442	3.07
293.657	54.27
293.871	111.61
294.086	35.84
294.301	78.85
294.516	74.75
294.73	52.22
294.945	27.65
295.16	-3.07
295.374	62.46
295.589	111.61
295.804	17.41
296.018	-31.74
296.233	44.03
296.447	17.41
296.662	1.02
296.877	150.53
297.091	76.8
297.306	78.85
297.52	50.18
297.735	66.56
297.949	7.17
298.164	74.75
298.378	115.71
298.593	27.65
298.807	37.89
299.022	19.46
299.236	41.98
299.451	-33.79
299.665	25.6
299.88	35.84
300.094	74.75
300.309	50.18
300.523	23.55
300.737	52.22
300.952	78.85
301.166	89.09
301.381	-1.02
301.595	-39.94
301.809	13.31
302.024	80.89
302.238	-3.07
302.452	21.5
302.667	-15.36
302.881	144.38
303.095	72.7
303.309	-5.12
303.524	-19.46
303.738	-5.12
303.952	-52.22
304.166	56.32
304.381	-58.37
304.595	27.65
304.809	31.74
305.023	9.22
305.237	-29.7
305.452	48.13
305.666	54.27
305.88	93.18
306.094	39.94
306.308	41.98
306.522	68.61
306.736	-5.12
306.95	101.37
307.164	72.7
307.379	31.74
307.593	95.23
307.807	91.13
308.021	89.09
308.235	46.08
308.449	-52.22
308.663	80.89
308.877	115.71
309.091	17.41
309.305	31.74
309.519	-13.31
309.733	54.27
309.947	39.94
310.161	84.99
310.374	39.94
310.588	-9.22
310.802	-1.02
311.016	-17.41
311.23	60.42
311.444	-37.89
311.658	91.13
311.872	35.84
312.085	56.32
312.299	91.13
312.513	128
312.727	-9.22
312.941	-64.51
313.154	54.27
313.368	13.31
313.582	9.22
313.796	50.18
314.009	52.22
314.223	31.74
314.437	-13.31
314.651	-13.31
314.864	21.5
315.078	-27.65
315.292	27.65
315.505	-11.26
315.719	121.85
315.933	62.46
316.146	74.75
316.36	13.31
316.573	99.33
316.787	68.61
317.001	113.66
317.214	25.6
317.428	-7.17
317.641	-3.07
317.855	35.84
318.068	128
318.282	64.51
318.495	142.33
318.709	68.61
318.922	39.94
319.136	109.57
319.349	72.7
319.563	37.89
319.776	17.41
319.99	19.46
320.203	35.84
320.417	27.65
320.63	78.85
320.843	93.18
321.057	9.22
321.27	25.6
321.483	54.27
321.697	50.18
321.91	3.07
322.124	82.94
322.337	48.13
322.55	25.6
322.763	-5.12
322.977	29.7
323.19	-5.12
323.403	33.79
323.617	89.09
323.83	113.66
324.043	-15.36
324.256	123.9
324.469	-33.79
324.683	58.37
324.896	-66.56
325.109	123.9
325.322	-7.17
325.535	72.7
325.748	78.85
325.962	13.31
326.175	50.18
326.388	27.65
326.601	130.05
326.814	-37.89
327.027	19.46
327.24	97.28
327.453	-41.98
327.666	111.61
327.879	111.61
328.092	99.33
328.305	41.98
328.518	-29.7
328.731	7.17
328.944	58.37
329.157	74.75
329.37	-1.02
329.583	179.2
329.796	87.04
330.009	-35.84
330.222	44.03
330.435	-11.26
330.648	-17.41
330.861	-5.12
331.073	41.98
331.286	107.52
331.499	-27.65
331.712	-46.08
331.925	52.22
332.138	29.7
332.35	105.47
332.563	27.65
332.776	52.22
332.989	68.61
333.202	5.12
333.414	70.65
333.627	-9.22
333.84	23.55
334.053	54.27
334.265	-35.84
334.478	66.56
334.691	87.04
334.903	84.99
335.116	60.42
335.329	-7.17
335.541	93.18
335.754	76.8
335.966	-19.46
336.179	-3.07
336.392	1.02
336.604	72.7
336.817	97.28
337.029	66.56
337.242	93.18
337.454	70.65
337.667	70.65
337.88	76.8
338.092	91.13
338.305	52.22
338.517	44.03
338.729	107.52
338.942	123.9
339.154	5.12
339.367	-66.56
339.579	109.57
339.792	37.89
340.004	44.03
340.217	-70.65
340.429	89.09
340.641	9.22
340.854	13.31
341.066	27.65
341.278	60.42
341.491	117.76
341.703	80.89
341.915	46.08
342.128	99.33
342.34	56.32
342.552	-1.02
342.764	48.13
342.977	84.99
343.189	140.29
343.401	60.42
343.613	56.32
343.826	7.17
344.038	89.09
344.25	50.18
344.462	46.08
344.674	44.03
344.886	5.12
345.099	66.56
345.311	29.7
345.523	52.22
345.735	11.26
345.947	93.18
346.159	31.74
346.371	41.98
346.583	15.36
346.795	132.09
347.007	-15.36
347.219	-5.12
347.431	15.36
347.643	99.33
347.855	-56.32
348.067	109.57
348.279	13.31
348.491	44.03
348.703	84.99
348.915	-17.41
349.127	-1.02
349.339	41.98
349.551	-17.41
349.763	44.03
349.975	-84.99
350.187	70.65
350.399	156.67
350.61	62.46
350.822	44.03
351.034	52.22
351.246	50.18
351.458	91.13
351.669	54.27
351.881	84.99
352.093	50.18
352.305	64.51
352.517	76.8
352.728	62.46
352.94	70.65
353.152	66.56
353.363	-21.5
353.575	70.65
353.787	171.01
353.999	68.61
354.21	158.72
354.422	1.02
354.633	15.36
354.845	23.55
355.057	19.46
355.268	115.71
355.48	68.61
355.692	5.12
355.903	7.17
356.115	-23.55
356.326	-23.55
356.538	95.23
356.749	50.18
356.961	93.18
357.172	-15.36
357.384	23.55
357.595	84.99
357.807	-23.55
358.018	39.94
358.23	19.46
358.441	46.08
358.653	68.61
358.864	60.42
359.075	70.65
359.287	74.75
359.498	134.14
359.709	58.37
359.921	64.51
360.132	48.13
360.344	23.55
360.555	13.31
360.766	105.47
360.977	62.46
361.189	17.41
361.4	5.12
361.611	105.47
361.823	123.9
362.034	17.41
362.245	29.7
362.456	-31.74
362.667	-33.79
362.879	-19.46
363.09	31.74
363.301	46.08
363.512	15.36
363.723	1.02
363.935	23.55
364.146	70.65
364.357	70.65
364.568	39.94
364.779	48.13
364.99	72.7
365.201	11.26
365.412	111.61
365.623	39.94
365.834	25.6
366.045	99.33
366.256	95.23
366.467	33.79
366.678	35.84
366.889	56.32
367.1	70.65
367.311	33.79
367.522	-37.89
367.733	91.13
367.944	-7.17
368.155	76.8
368.366	82.94
368.577	76.8
368.788	56.32
368.999	41.98
369.209	41.98
369.42	154.62
369.631	140.29
369.842	80.89
370.053	25.6
370.264	62.46
370.474	52.22
370.685	60.42
370.896	3.07
371.107	80.89
371.317	54.27
371.528	56.32
371.739	58.37
371.95	27.65
372.16	82.94
372.371	-66.56
372.582	-29.7
372.792	91.13
373.003	60.42
373.214	-3.07
373.424	101.37
373.635	-37.89
373.846	60.42
374.056	72.7
374.267	19.46
374.477	97.28
374.688	15.36
374.898	95.23
375.109	87.04
375.319	-74.75
375.53	50.18
375.74	58.37
375.951	48.13
376.161	72.7
376.372	115.71
376.582	-54.27
376.793	89.09
377.003	11.26
377.214	60.42
377.424	31.74
377.635	13.31
377.845	-27.65
378.055	62.46
378.266	-9.22
378.476	11.26
378.686	74.75
378.897	21.5
379.107	5.12
379.317	78.85
379.528	15.36
379.738	13.31
379.948	-3.07
380.158	89.09
380.369	11.26
380.579	117.76
380.789	54.27
380.999	27.65
381.21	84.99
381.42	87.04
381.63	-27.65
381.84	44.03
382.05	87.04
382.261	115.71
382.471	-31.74
382.681	-31.74
382.891	115.71
383.101	58.37
383.311	-60.42
383.521	-56.32
383.731	23.55
383.941	119.81
384.151	50.18
384.361	87.04
384.571	52.22
384.781	117.76
384.991	74.75
385.201	162.81
385.411	101.37
385.621	41.98
385.831	64.51
386.041	44.03
386.251	-13.31
386.461	82.94
386.671	76.8
386.881	82.94
387.091	-11.26
387.301	-1.02
387.511	50.18
387.72	31.74
387.93	56.32
388.14	1.02
388.35	95.23
388.56	44.03
388.769	72.7
388.979	60.42
389.189	29.7
389.399	60.42
389.609	50.18
389.818	11.26
390.028	78.85
390.238	48.13
390.447	11.26
390.657	103.42
390.867	58.37
391.076	70.65
391.286	48.13
391.496	11.26
391.705	29.7
391.915	44.03
392.125	82.94
392.334	17.41
392.544	50.18
392.753	-44.03
392.963	5.12
393.172	64.51
393.382	44.03
393.591	113.66
393.801	58.37
394.01	68.61
394.22	84.99
394.429	68.61
394.639	74.75
394.848	35.84
395.058	35.84
395.267	113.66
395.477	15.36
395.686	84.99
395.895	41.98
396.105	177.15
396.314	80.89
396.524	11.26
396.733	62.46
396.942	140.29
397.152	91.13
397.361	33.79
397.57	35.84
397.78	48.13
397.989	68.61
398.198	150.53
398.407	41.98
398.617	62.46
398.826	82.94
399.035	66.56
399.244	195.58
399.453	52.22
399.663	15.36
399.872	119.81
400.081	105.47
400.29	95.23
400.499	25.6
400.708	93.18
400.917	50.18
401.127	84.99
401.336	13.31
401.545	175.1
401.754	74.75
401.963	107.52
402.172	84.99
402.381	33.79
402.59	82.94
402.799	99.33
403.008	64.51
403.217	121.85
403.426	84.99
403.635	3.07
403.844	105.47
404.053	52.22
404.262	58.37
404.471	191.49
404.68	138.24
404.888	95.23
405.097	50.18
405.306	107.52
405.515	58.37
405.724	134.14
405.933	181.25
406.142	158.72
406.35	236.54
406.559	72.7
406.768	91.13
406.977	228.35
407.185	115.71
407.394	224.25
407.603	78.85
407.812	103.42
408.02	150.53
408.229	187.39
408.438	142.33
408.646	-11.26
408.855	99.33
409.064	171.01
409.272	187.39
409.481	164.86
409.69	119.81
409.898	117.76
410.107	171.01
410.315	320.51
410.524	152.57
410.733	173.05
410.941	236.54
411.15	191.49
411.358	273.4
411.567	293.88
411.775	244.73
411.984	324.6
412.192	248.83
412.401	265.21
412.609	345.08
412.818	316.41
413.026	349.18
413.234	283.64
413.443	302.08
413.651	355.32
413.86	300.03
414.068	427
414.276	402.43
414.485	359.42
414.693	408.57
414.901	496.63
415.11	394.23
415.318	470.01
415.526	461.82
415.734	484.34
415.943	490.49
416.151	459.77
416.359	523.26
416.567	488.44
416.776	582.65
416.984	633.85
417.192	656.37
417.4	562.17
417.608	564.22
417.817	596.98
418.025	619.51
418.233	736.24
418.441	709.62
418.649	635.89
418.857	715.77
419.065	756.72
419.273	734.2
419.481	783.35
419.689	809.97
419.897	869.36
420.105	809.97
420.313	906.23
420.521	1000.43
420.729	1047.54
420.937	961.52
421.145	975.86
421.353	1123.31
421.561	1098.74
421.769	1203.18
421.977	1092.59
422.185	1190.89
422.393	1254.38
422.601	1393.64
422.809	1381.35
423.017	1293.29
423.224	1426.41
423.432	1496.04
423.64	1543.14
423.848	1657.83
424.056	1446.89
424.263	1684.45
424.471	1659.88
424.679	1682.41
424.887	1735.65
425.094	1788.9
425.302	1801.19
425.51	1786.85
425.718	1958.88
425.925	1883.11
426.133	2026.47
426.341	2196.45
426.548	2304.99
426.756	2229.21
426.964	2337.76
427.171	2360.28
427.379	2515.93
427.586	2571.22
427.794	2606.04
428.001	2724.82
428.209	2870.23
428.417	2853.84
428.624	3066.83
428.832	3034.07
429.039	2941.91
429.247	3011.54
429.454	3324.88
429.662	3511.24
429.869	3263.44
430.076	3437.52
430.284	3267.53
430.491	3546.06
430.699	3757
430.906	3668.94
431.114	3677.13
431.321	3855.3
431.528	3949.51
431.736	4197.31
431.943	4473.79
432.15	4256.7
432.358	4316.09
432.565	4516.8
432.772	4463.55
432.979	4844.47
433.187	4766.65
433.394	4971.44
433.601	5256.11
433.808	5180.34
434.016	5252.02
434.223	5376.94
434.43	5587.88
434.637	5680.04
434.844	5747.62
435.052	6087.59
435.259	5927.85
435.466	6089.64
435.673	6058.92
435.88	6462.37
436.087	6734.75
436.294	6794.14
436.501	6529.95
436.708	6810.52
436.915	6742.94
437.122	7342.99
437.329	7091.09
437.537	7420.81
437.743	7523.21
437.95	7494.54
438.157	7879.56
438.364	8106.88
438.571	8076.16
438.778	8135.56
438.985	8874.87
439.192	8594.3
439.399	8729.47
439.606	8582.01
439.813	9098.1
440.02	9745.26
440.227	9585.52
440.433	9335.67
440.64	9892.71
440.847	9546.61
441.054	9735.02
441.261	10503.01
441.467	10136.42
441.674	10453.86
441.881	11019.1
442.088	10937.18
442.294	10988.38
442.501	11330.39
442.708	11223.89
442.914	11938.63
443.121	12243.78
443.328	11907.91
443.534	12890.94
443.741	12489.54
443.948	12200.77
444.154	13054.78
444.361	13222.71
444.568	13179.7
444.774	13349.68
444.981	13237.05
445.187	13871.92
445.394	14367.52
445.6	14103.34
445.807	15315.73
446.013	14795.55
446.22	14969.63
446.426	15305.49
446.633	15651.6
446.839	16431.88
447.046	15575.83
447.252	16403.21
447.459	16270.09
447.665	16309
447.871	16980.73
448.078	17906.41
448.284	17156.86
448.491	17558.26
448.697	18338.54
448.903	18477.8
449.11	18535.14
449.316	18256.62
449.522	18451.17
449.728	19106.52
449.935	19145.44
450.141	19194.59
450.347	19696.34
450.553	19210.97
450.76	19362.52
450.966	19647.19
451.172	19704.53
451.378	20243.15
451.584	19866.32
451.791	20320.97
451.997	20212.43
452.203	20386.5
452.409	20497.1
452.615	20495.05
452.821	19712.72
453.027	19464.92
453.233	20658.88
453.44	19565.27
453.646	19845.84
453.852	19962.58
454.058	20355.79
454.264	19827.41
454.47	20122.32
454.676	19933.9
454.882	20226.76
455.088	18428.65
455.294	18942.69
455.5	19020.51
455.705	19448.54
455.911	18461.41
456.117	18379.5
456.323	18010.86
456.529	17185.53
456.735	17693.43
456.941	17294.07
457.147	16945.92
457.352	16583.43
457.558	16225.03
457.764	16251.66
457.97	15989.52
458.176	15782.67
458.381	15733.52
458.587	15018.78
458.793	14934.81
458.999	13955.88
459.204	15141.66
459.41	14676.77
459.616	13910.83
459.821	13904.68
460.027	13493.04
460.233	13335.35
460.438	12866.36
460.644	12596.03
460.85	12172.1
461.055	12335.94
461.261	12006.22
461.466	11191.13
461.672	10654.56
461.878	11656.01
462.083	10945.37
462.289	10523.49
462.494	10414.95
462.7	10029.93
462.905	9677.68
463.111	10144.61
463.316	10027.88
463.522	9767.79
463.727	9870.19
463.932	9886.57
464.138	9620.33
464.343	9792.36
464.549	9558.89
464.754	9794.41
464.959	9681.77
465.165	9614.19
465.37	9268.08
465.575	9059.19
465.781	9280.37
465.986	9550.7
466.191	8881.02
466.397	8856.44
466.602	8342.4
466.807	8854.39
467.012	8676.22
467.218	8633.21
467.423	8594.3
467.628	8694.65
467.833	8995.7
468.038	8598.4
468.244	8391.55
468.449	8702.84
468.654	8471.42
468.859	8401.79
469.064	8543.1
469.269	8125.32
469.474	8135.56
469.679	8397.7
469.885	8121.22
470.09	8199.04
470.295	8059.78
470.5	7945.09
470.705	7961.48
470.91	7699.34
471.115	7746.44
471.32	7805.83
471.525	7908.23
471.73	7822.22
471.935	7555.98
472.139	7328.66
472.344	7469.97
472.549	7269.27
472.754	7463.82
472.959	7175.06
473.164	7023.51
473.369	7025.56
473.574	7308.18
473.778	7087
473.983	7050.13
474.188	6810.52
474.393	6810.52
474.598	6826.9
474.802	6661.02
475.007	6618.01
475.212	6562.72
475.417	6370.21
475.621	6345.63
475.826	6427.55
476.031	6259.62
476.235	5962.66
476.44	6220.71
476.645	6038.44
476.849	6134.69
477.054	5931.94
477.259	5809.06
477.463	6069.16
477.668	5929.89
477.872	5942.18
478.077	5651.37
478.282	5637.03
478.486	5551.02
478.691	5643.18
478.895	5508.01
479.1	5333.93
479.304	5409.71
479.509	5370.8
479.713	5548.97
479.918	5237.68
480.122	5084.08
480.326	5333.93
480.531	5395.37
480.735	5026.74
480.94	5391.28
481.144	5346.22
481.348	5049.27
481.553	5129.14
481.757	5127.09
481.961	5192.62
482.166	5106.61
482.37	5131.19
482.574	4998.07
482.778	5071.79
482.983	5073.84
483.187	5231.54
483.391	5163.95
483.595	5004.21
483.8	5053.36
484.004	5086.13
484.208	5223.34
484.412	5112.75
484.616	5174.19
484.821	5002.16
485.025	4856.76
485.229	5075.89
485.433	5047.22
485.637	4950.96
485.841	5108.66
486.045	5028.79
486.249	5067.7
486.453	5069.75
486.657	5104.56
486.861	5112.75
487.065	4975.54
487.269	5163.95
487.473	4953.01
487.677	5077.94
487.881	5178.29
488.085	5024.69
488.289	5059.51
488.493	5053.36
488.697	5018.55
488.901	5168.05
489.105	5051.31
489.309	5125.04
489.512	5157.81
489.716	5069.75
489.92	5059.51
490.124	5307.31
490.328	5104.56
490.531	5135.28
490.735	5100.47
490.939	5262.26
491.143	5104.56
491.346	5297.07
491.55	5278.64
491.754	5227.44
491.958	5391.28
492.161	5335.98
492.365	5370.8
492.569	5389.23
492.772	5317.55
492.976	5508.01
493.18	5286.83
493.383	5483.44
493.587	5569.45
493.79	5661.61
493.994	5432.24
494.197	5567.4
494.401	5557.16
494.605	5440.43
494.808	5725.1
495.012	5659.56
495.215	5741.48
495.419	5768.1
495.622	5587.88
495.825	5784.49
496.029	5700.52
496.232	5979.04
496.436	5784.49
496.639	6185.89
496.843	6024.1
497.046	6175.65
497.249	6284.19
497.453	6128.55
497.656	6325.15
497.859	6384.54
498.063	6353.82
498.266	6499.23
498.469	6355.87
498.673	6523.8
498.876	6636.44
499.079	6663.07
499.282	6704.03
499.485	6955.93
499.689	6906.77
499.892	6910.87
500.095	7099.28
500.298	7117.72
500.501	6904.73
500.705	7322.51
500.908	7193.49
501.111	7244.69
501.314	7596.94
501.517	7697.29
501.72	7592.84
501.923	7631.76
502.126	7746.44
502.329	8043.4
502.532	8012.68
502.735	7955.33
502.938	8186.76
503.141	8129.41
503.344	8301.44
503.547	8350.59
503.75	8428.42
503.953	8436.61
504.156	8618.88
504.359	8682.36
504.562	8676.22
504.765	8895.35
504.968	9012.09
505.17	8999.8
505.373	9005.94
505.576	9169.78
505.779	9286.51
505.982	9306.99
506.185	9800.55
506.387	9616.24
506.59	9644.91
506.793	9915.24
506.996	9960.3
507.198	10048.36
507.401	10179.43
507.604	10046.31
507.807	10410.85
508.009	10365.79
508.212	10453.86
508.415	10644.32
508.617	10570.59
508.82	10832.73
509.022	10687.32
509.225	11053.91
509.428	10953.56
509.63	11008.86
509.833	11477.84
510.035	11479.89
510.238	11434.83
510.44	11737.93
510.643	11649.87
510.845	11823.95
511.048	11713.36
511.25	12116.81
511.453	11973.45
511.655	12438.34
511.858	12266.31
512.06	12602.18
512.262	12516.16
512.465	12231.49
512.667	12479.3
512.87	12723.01
513.072	12837.69
513.274	13163.32
513.477	13085.5
513.679	13255.48
513.881	13388.6
514.084	13454.13
514.286	13613.87
514.488	13560.63
514.69	13880.11
514.893	13804.33
515.095	13722.41
515.297	13953.84
515.499	14007.08
515.701	14437.16
515.904	14525.22
516.106	14668.58
516.308	14439.2
516.51	14908.19
516.712	14607.14
516.914	14869.28
517.116	15237.91
517.318	15199
517.52	15328.02
517.722	15153.94
517.925	15608.59
518.127	15616.79
518.329	15559.44
518.531	15545.11
518.733	15975.18
518.935	15782.67
519.136	16112.39
519.338	16075.53
519.54	16302.86
519.742	16415.49
519.944	16595.71
520.146	16876.29
520.348	16866.05
520.55	16786.18
520.752	16775.94
520.954	17107.71
521.155	16925.44
521.357	17183.48
521.559	17206.01
521.761	17545.97
521.963	17523.44
522.164	17593.08
522.366	17355.51
522.568	17687.28
522.77	17890.03
522.971	18055.92
523.173	17861.36
523.375	18037.48
523.576	17871.6
523.778	17937.13
523.98	18223.85
524.181	18287.34
524.383	18072.3
524.584	18414.31
524.786	18647.78
524.988	18729.7
525.189	18733.79
525.391	18709.22
525.592	18813.66
525.794	18772.71
525.995	18881.25
526.197	18719.46
526.398	19069.66
526.6	19024.61
526.801	19258.07
527.003	18954.97
527.204	18688.74
527.406	19276.51
527.607	19086.04
527.808	19260.12
528.01	19141.34
528.211	19577.56
528.412	19739.35
528.614	19309.27
528.815	19307.23
529.016	19364.57
529.218	19395.29
529.419	19499.73
529.62	19460.82
529.822	19540.69
530.023	19516.12
530.224	19542.74
530.425	19657.43
530.626	19247.83
530.828	19329.75
531.029	19538.65
531.23	19421.91
531.431	19702.48
531.632	19841.75
531.833	19378.9
532.035	19587.8
532.236	19913.42
532.437	19972.82
532.638	19630.8
532.839	19374.81
533.04	19534.55
533.241	19512.02
533.442	20087.5
533.643	19479.25
533.844	19391.19
534.045	19573.46
534.246	19747.54
534.447	19682
534.648	19839.7
534.849	19751.63
535.05	19432.15
535.251	19843.79
535.451	19847.89
535.652	19290.84
535.853	19378.9
536.054	19450.58
536.255	19473.11
536.456	19473.11
536.657	19714.77
536.857	19710.68
537.058	19563.22
537.259	19854.03
537.46	19569.37
537.66	19567.32
537.861	19407.58
538.062	19509.97
538.263	19272.41
538.463	19632.85
538.664	19495.64
538.865	19649.24
539.065	19657.43
539.266	19460.82
539.466	19649.24
539.667	19434.2
539.868	19512.02
540.068	19249.88
540.269	19561.17
540.469	19598.04
540.67	19575.51
540.87	19462.87
541.071	19321.56
541.271	19682
541.472	19309.27
541.672	19583.7
541.873	19172.06
542.073	19159.77
542.274	19598.04
542.474	19333.85
542.675	19061.47
542.875	19598.04
543.075	19440.34
543.276	19118.81
543.476	19432.15
543.676	19428.06
543.877	19213.02
544.077	19317.47
544.277	19333.85
544.478	19237.59
544.678	19479.25
544.878	19374.81
545.078	19206.87
545.279	18754.27
545.479	18799.33
545.679	19579.61
545.879	19116.76
546.079	19016.41
546.28	18866.91
546.48	19215.07
546.68	19366.62
546.88	19352.28
547.08	19292.89
547.28	19288.79
547.48	18948.83
547.68	19262.17
547.88	18885.34
548.081	19262.17
548.281	19092.19
548.481	19049.18
548.681	19192.54
548.881	19135.2
549.081	19180.25
549.28	18926.3
549.48	19352.28
549.68	19104.48
549.88	19051.23
550.08	19002.08
550.28	18957.02
550.48	19002.08
550.68	18944.73
550.88	18993.89
551.08	18889.44
551.279	19075.8
551.479	18762.47
551.679	19219.16
551.879	18782.95
552.079	19034.85
552.278	18944.73
552.478	18997.98
552.678	19034.85
552.878	19290.84
553.077	18823.9
553.277	18848.48
553.477	18911.97
553.676	19020.51
553.876	19178.2
554.076	18914.02
554.275	18772.71
554.475	18719.46
554.674	18797.28
554.874	18944.73
555.074	18909.92
555.273	19065.57
555.473	18950.88
555.672	18676.45
555.872	18852.58
556.071	19016.41
556.271	19157.72
556.47	18961.12
556.67	18729.7
556.869	18584.29
557.068	18932.45
557.268	18719.46
557.467	18760.42
557.667	18723.55
557.866	18825.95
558.065	18805.47
558.265	18727.65
558.464	18461.41
558.663	18811.62
558.863	18518.76
559.062	18911.97
559.261	18479.85
559.461	18809.57
559.66	18338.54
559.859	18553.57
560.058	18490.09
560.258	18459.37
560.457	18776.8
560.656	18526.95
560.855	18328.3
561.054	18600.68
561.253	18481.89
561.453	18373.35
561.652	18539.24
561.851	18817.76
562.05	18379.5
562.249	18399.98
562.448	18703.07
562.647	18707.17
562.846	18514.66
563.045	18449.13
563.244	18244.33
563.443	18666.21
563.642	18115.31
563.841	18385.64
564.04	18369.26
564.239	18451.17
564.438	18287.34
564.637	18475.75
564.836	18512.61
565.035	18268.91
565.234	18236.14
565.432	18189.03
565.631	18211.56
565.83	18432.74
566.029	18229.99
566.228	18205.42
566.427	18412.26
566.625	18076.4
566.824	18062.06
567.023	18348.78
567.222	18041.58
567.42	18211.56
567.619	18420.45
567.818	18313.96
568.016	18049.77
568.215	18070.25
568.414	18299.62
568.612	18309.86
568.811	18098.92
569.01	17896.17
569.208	17967.85
569.407	18146.03
569.605	17826.54
569.804	17789.68
570.002	17976.05
570.201	18027.24
570.4	17965.81
570.598	17912.56
570.797	17947.37
570.995	17713.91
571.193	17531.64
571.392	17801.97
571.59	17783.54
571.789	17969.9
571.987	17822.45
572.186	17738.48
572.384	17881.84
572.582	17822.45
572.781	17943.28
572.979	17197.82
573.177	17933.04
573.376	17427.19
573.574	17656.56
573.772	17767.15
573.971	17783.54
574.169	17431.29
574.367	17531.64
574.565	17320.7
574.763	17445.62
574.962	17478.39
575.16	17220.35
575.358	17367.8
575.556	17220.35
575.754	17611.51
575.952	17228.54
576.151	17515.25
576.349	17306.36
576.547	17431.29
576.745	17036.03
576.943	17298.17
577.141	17386.23
577.339	17103.61
577.537	17187.58
577.735	17087.23
577.933	17244.92
578.131	17277.69
578.329	17206.01
578.527	16960.25
578.725	17115.9
578.923	17199.87
579.121	16847.61
579.319	16765.7
579.516	17101.56
579.714	17066.75
579.912	16620.29
580.11	16829.18
580.308	16917.25
580.506	16741.12
580.704	16667.39
580.901	16696.07
581.099	16820.99
581.297	16665.35
581.495	16773.89
581.692	16696.07
581.89	16653.06
582.088	16685.83
582.285	16497.41
582.483	16442.12
582.681	16466.69
582.878	16478.98
583.076	16403.21
583.274	16624.39
583.471	16364.29
583.669	16356.1
583.866	16132.87
584.064	16407.3
584.262	16102.15
584.459	16304.9
584.657	16198.41
584.854	16417.54
585.052	16077.58
585.249	16415.49
585.447	16106.25
585.644	15889.17
585.841	16415.49
586.039	15985.42
586.236	15899.41
586.434	15794.96
586.631	15823.63
586.828	15797.01
587.026	16053
587.223	16096.01
587.42	15721.23
587.618	15887.12
587.815	15584.02
588.012	15608.59
588.21	15504.15
588.407	15577.87
588.604	15614.74
588.801	15600.4
588.999	15678.22
589.196	15856.4
589.393	15575.83
589.59	15690.51
589.787	15498
589.984	15309.59
590.182	15311.64
590.379	15233.82
590.576	15258.39
590.773	15493.91
590.97	15332.12
591.167	15405.84
591.364	15305.49
591.561	15307.54
591.758	15098.65
591.955	15018.78
592.152	15260.44
592.349	15162.14
592.546	14926.62
592.743	15155.99
592.94	15002.4
593.137	15047.45
593.334	15151.9
593.531	14846.75
593.727	14945.05
593.924	14824.22
594.121	14830.37
594.318	14873.37
594.515	14670.62
594.712	14975.77
594.908	14666.53
595.105	14961.44
595.302	14654.24
595.499	14488.35
595.696	14449.44
595.892	14598.95
596.089	14529.31
596.286	14625.57
596.482	14428.96
596.679	14664.48
596.876	14347.05
597.072	14435.11
597.269	14443.3
597.466	14490.4
597.662	14398.24
597.859	14275.37
598.055	14402.34
598.252	14293.8
598.448	14158.63
598.645	14119.72
598.841	13974.31
599.038	14299.94
599.234	14175.02
599.431	13994.79
599.627	14310.18
599.824	14156.58
600.02	14013.23
600.217	14099.24
600.413	13882.16
600.609	14039.85
600.806	13757.23
601.002	13945.64
601.198	13837.1
601.395	13976.36
601.591	13751.09
601.787	13720.37
601.984	13757.23
602.18	13876.01
602.376	13654.83
602.572	13603.63
602.769	13869.87
602.965	13591.34
603.161	13632.3
603.357	13710.13
603.553	13632.3
603.75	13366.07
603.946	13357.88
604.142	13550.39
604.338	13318.96
604.534	13468.47
604.73	13275.96
604.926	13312.82
605.122	13458.23
605.318	13177.65
605.514	13101.88
605.71	13126.46
605.906	13306.68
606.102	12997.43
606.298	13312.82
606.494	13255.48
606.69	13253.43
606.886	13308.72
607.082	12852.03
607.278	13177.65
607.474	12931.9
607.67	13230.9
607.866	12829.5
608.062	13167.42
608.257	13142.84
608.453	13024.06
608.649	12686.14
608.845	12733.25
609.041	12905.28
609.236	12874.56
609.432	12860.22
609.628	12923.71
609.824	12757.82
610.019	12819.26
610.215	12878.65
610.411	12860.22
610.606	12888.89
610.802	12706.62
610.998	12716.86
611.193	12806.97
611.389	12649.28
611.584	12614.46
611.78	12540.74
611.976	12731.2
612.171	12700.48
612.367	12587.84
612.562	12507.97
612.758	12360.52
612.953	12282.69
613.149	12626.75
613.344	12417.86
613.539	12620.61
613.735	12553.02
613.93	12567.36
614.126	12442.43
614.321	12825.4
614.517	12354.37
614.712	12362.56
614.907	12272.45
615.103	12421.95
615.298	12145.48
615.493	12477.25
615.688	12141.38
615.884	12573.5
616.079	12104.52
616.274	12174.15
616.47	12057.42
616.665	12397.38
616.86	12266.31
617.055	12069.7
617.25	12192.58
617.445	12243.78
617.641	11989.83
617.836	12088.14
618.031	11799.37
618.226	12151.62
618.421	11998.02
618.616	12145.48
618.811	11950.92
619.006	12090.18
619.201	11813.71
619.396	11905.87
619.591	11397.97
619.786	11662.16
619.981	11727.69
620.176	11623.25
620.371	11613.01
620.566	11709.26
620.761	11473.74
620.956	11567.95
621.151	11318.1
621.346	11553.62
621.541	11320.15
621.735	11338.58
621.93	11197.27
622.125	11436.88
622.32	11080.53
622.515	11086.68
622.709	10924.89
622.904	11058.01
623.099	10865.5
623.294	11195.22
623.488	11000.66
623.683	10779.48
623.878	10742.62
624.072	10799.96
624.267	10672.99
624.462	10687.32
624.656	10382.18
624.851	10531.68
625.046	10480.48
625.24	10414.95
625.435	10359.65
625.629	10380.13
625.824	10255.2
626.018	10353.51
626.213	10158.95
626.407	10210.15
626.602	9970.54
626.796	10124.13
626.991	9943.91
627.185	9909.1
627.38	9890.67
627.574	10025.83
627.768	9720.68
627.963	9624.43
628.157	9773.93
628.352	9698.16
628.546	9534.32
628.74	9741.16
628.935	9618.29
629.129	9409.39
629.323	9395.06
629.517	9343.86
629.712	9393.01
629.906	9522.03
630.1	9374.58
630.294	9339.76
630.489	9130.87
630.683	9360.24
630.877	9192.31
631.071	9003.89
631.265	8938.36
631.459	9010.04
631.653	8909.69
631.848	8891.26
632.042	8807.29
632.236	8792.95
632.43	8641.4
632.624	8694.65
632.818	8596.35
633.012	8504.19
633.206	8405.89
633.4	8510.33
633.594	8522.62
633.788	8371.07
633.982	8491.9
634.176	8500.09
634.369	8278.91
634.563	8258.43
634.757	8301.44
634.951	8172.42
635.145	8078.21
635.339	7975.81
635.533	8227.71
635.726	7998.34
635.92	7869.32
636.114	8141.7
636.308	7922.57
636.501	7768.97
636.695	7891.85
636.889	7607.18
637.083	7820.17
637.276	7631.76
637.47	7646.09
637.664	7570.32
637.857	7648.14
638.051	7642
638.244	7449.49
638.438	7459.73
638.632	7445.39
638.825	7195.54
639.019	7412.62
639.212	7154.58
639.406	7357.33
639.599	7248.79
639.793	7293.84
639.986	7029.65
640.18	7132.05
640.373	7185.3
640.567	7027.6
640.76	6876.06
640.954	6945.69
641.147	6824.86
641.34	6874.01
641.534	6759.32
641.727	6859.67
641.92	6902.68
642.114	6941.59
642.307	6665.11
642.5	6634.39
642.694	6417.31
642.887	6687.64
643.08	6650.78
643.273	6374.3
643.467	6605.72
643.66	6575
643.853	6507.42
644.046	6306.72
644.239	6546.33
644.432	6163.36
644.626	6251.42
644.819	6245.28
645.012	6194.08
645.205	6159.27
645.398	6198.18
645.591	6089.64
645.784	6087.59
645.977	5950.37
646.17	6028.2
646.363	6069.16
646.556	5839.78
646.749	5880.74
646.942	5882.79
647.135	5911.46
647.328	5893.03
647.521	5880.74
647.714	5671.85
647.907	5628.84
648.099	5790.63
648.292	5702.57
648.485	5528.49
648.678	5579.69
648.871	5503.92
649.064	5503.92
649.256	5465
649.449	5483.44
649.642	5391.28
649.835	5360.56
650.027	5276.59
650.22	5415.85
650.413	5272.5
650.605	5276.59
650.798	5247.92
650.991	5116.85
651.183	5151.67
651.376	5301.17
651.568	5315.5
651.761	5092.27
651.954	5204.91
652.146	4912.05
652.339	5071.79
652.531	4948.92
652.724	4907.96
652.916	4897.72
653.109	4836.28
653.301	4953.01
653.494	4932.53
653.686	4889.53
653.879	5022.64
654.071	4860.85
654.263	4803.51
654.456	4750.26
654.648	4830.13
654.84	4723.64
655.033	4723.64
655.225	4713.4
655.417	4629.43
655.61	4654.01
655.802	4676.54
655.994	4584.38
656.186	4537.27
656.379	4635.58
656.571	4479.93
656.763	4400.06
656.955	4498.36
657.148	4451.26
657.34	4338.62
657.532	4176.83
657.724	4225.98
657.916	4279.23
658.108	4238.27
658.3	4309.95
658.492	4234.18
658.684	4172.74
658.876	4203.46
659.068	4103.11
659.26	4228.03
659.452	4127.68
659.644	4092.87
659.836	4010.95
660.028	3935.17
660.22	4121.54
660.412	4049.86
660.604	4039.62
660.796	3869.64
660.988	4002.75
661.18	3935.17
661.372	3976.13
661.563	3910.6
661.755	3877.83
661.947	3791.81
662.139	3785.67
662.331	3775.43
662.522	3699.66
662.714	3642.31
662.906	3840.97
663.097	3685.32
663.289	3492.81
663.481	3580.87
663.673	3732.42
663.864	3705.8
664.056	3648.46
664.247	3664.84
664.439	3572.68
664.631	3593.16
664.822	3662.79
665.014	3451.85
665.205	3535.82
665.397	3556.3
665.588	3558.35
665.78	3546.06
665.971	3496.91
666.163	3507.15
666.354	3376.08
666.546	3548.11
666.737	3431.37
666.929	3453.9
667.12	3333.07
667.311	3462.09
667.503	3335.12
667.694	3333.07
667.885	3337.17
668.077	3357.64
668.268	3236.81
668.459	3277.77
668.651	3238.86
668.842	3363.79
669.033	3048.4
669.224	3142.61
669.416	3369.93
669.607	3212.24
669.798	3044.31
669.989	3285.97
670.18	3245.01
670.371	3247.05
670.563	3144.66
670.754	3195.86
670.945	3142.61
671.136	3269.58
671.327	3187.66
671.518	3210.19
671.709	3171.28
671.9	3120.08
672.091	3206.1
672.282	3120.08
672.473	3052.5
672.664	3060.69
672.855	3122.13
673.046	3099.6
673.237	3072.98
673.428	2962.39
673.619	3101.65
673.809	3152.85
674	3087.31
674.191	3060.69
674.382	3158.99
674.573	3048.4
674.764	2995.15
674.954	3128.27
675.145	3052.5
675.336	2903
675.527	2900.95
675.717	2986.96
675.908	3042.26
676.099	2968.53
676.289	3064.79
676.48	2909.14
676.671	2972.63
676.861	3095.5
677.052	2950.1
677.243	3025.87
677.433	2913.24
677.624	2968.53
677.814	3023.83
678.005	2948.05
678.195	3085.26
678.386	2898.9
678.576	2989.01
678.767	3054.55
678.957	2843.6
679.148	3048.4
679.338	2931.67
679.529	2982.87
679.719	2989.01
679.909	3165.14
680.1	2978.77
680.29	3132.37
680.481	2999.25
680.671	3083.22
680.861	2915.28
681.052	3046.35
681.242	2943.96
681.432	3128.27
681.622	2976.72
681.813	2986.96
682.003	2958.29
682.193	2888.66
682.383	3079.12
682.573	3083.22
682.764	2886.61
682.954	3040.21
683.144	3072.98
683.334	2968.53
683.524	2976.72
683.714	2925.52
683.904	2972.63
684.094	2966.48
684.284	2925.52
684.474	3034.07
684.664	2821.08
684.854	3038.16
685.044	2958.29
685.234	2931.67
685.424	2956.24
685.614	2995.15
685.804	3081.17
685.994	2989.01
686.184	2903
686.374	2999.25
686.564	2966.48
686.753	2896.85
686.943	2837.46
687.133	2935.76
687.323	2948.05
687.513	2868.18
687.702	2841.56
687.892	3001.3
688.082	2798.55
688.272	2868.18
688.461	2941.91
688.651	2859.99
688.841	2745.3
689.03	2763.73
689.22	2814.93
689.41	2825.17
689.599	2616.28
689.789	2569.18
689.979	2694.1
690.168	2692.05
690.358	2726.87
690.547	2661.34
690.737	2667.48
690.926	2671.58
691.116	2620.38
691.305	2765.78
691.495	2644.95
691.684	2642.9
691.874	2759.64
692.063	2532.31
692.252	2716.63
692.442	2554.84
692.631	2556.89
692.82	2466.78
693.01	2620.38
693.199	2618.33
693.388	2593.75
693.578	2536.41
693.767	2481.11
693.956	2554.84
694.146	2638.81
694.335	2548.7
694.524	2593.75
694.713	2538.46
694.902	2538.46
695.092	2458.59
695.281	2513.88
695.47	2622.42
695.659	2581.46
695.848	2552.79
696.037	2513.88
696.226	2599.9
696.415	2567.13
696.604	2624.47
696.793	2565.08
696.982	2421.72
697.171	2526.17
697.36	2497.5
697.549	2495.45
697.738	2491.35
697.927	2571.22
698.116	2421.72
698.305	2712.53
698.494	2503.64
698.683	2548.7
698.872	2667.48
699.061	2583.51
699.25	2556.89
699.438	2597.85
699.627	2585.56
699.816	2659.29
700.005	2487.26
700.193	2587.61
700.382	2708.44
700.571	2579.42
700.76	2575.32
700.948	2624.47
701.137	2653.14
701.326	2608.09
701.514	2612.18
701.703	2632.66
701.892	2456.54
702.08	2679.77
702.269	2687.96
702.457	2462.68
702.646	2749.4
702.834	2634.71
703.023	2624.47
703.212	2640.86
703.4	2587.61
703.589	2601.94
703.777	2679.77
703.965	2694.1
704.154	2587.61
704.342	2610.14
704.531	2628.57
704.719	2733.01
704.907	2735.06
705.096	2622.42
705.284	2671.58
705.472	2675.67
705.661	2739.16
705.849	2728.92
706.037	2837.46
706.226	2730.97
706.414	2632.66
706.602	2634.71
706.79	2808.79
706.979	2708.44
707.167	2780.12
707.355	2796.5
707.543	2823.12
707.731	2868.18
707.919	2845.65
708.107	2735.06
708.296	2808.79
708.484	2737.11
708.672	2749.4
708.86	2870.23
709.048	2907.09
709.236	2685.91
709.424	2827.22
709.612	2837.46
709.8	2831.32
709.988	2931.67
710.176	2921.43
710.364	2866.13
710.551	2884.56
710.739	2730.97
710.927	2755.54
711.115	2825.17
711.303	2804.69
711.491	2780.12
711.679	2780.12
711.866	2855.89
712.054	2888.66
712.242	2800.6
712.43	2786.26
712.617	2808.79
712.805	2804.69
712.993	2921.43
713.181	2821.08
713.368	3025.87
713.556	2843.6
713.744	2780.12
713.931	2980.82
714.119	2976.72
714.306	2712.53
714.494	2857.94
714.682	2931.67
714.869	2976.72
715.057	2943.96
715.244	2796.5
715.432	3027.92
715.619	3001.3
715.807	2882.52
715.994	2862.04
716.182	2827.22
716.369	2847.7
716.556	2939.86
716.744	2876.37
716.931	2882.52
717.119	2845.65
717.306	2989.01
717.493	2927.57
717.681	2915.28
717.868	2921.43
718.055	2866.13
718.242	2986.96
718.43	2917.33
718.617	2866.13
718.804	2866.13
718.991	2972.63
719.179	2911.19
719.366	2884.56
719.553	3179.47
719.74	2917.33
719.927	2919.38
720.114	2890.71
720.301	2989.01
720.488	2933.72
720.676	2907.09
720.863	3019.73
721.05	3079.12
721.237	2974.67
721.424	2978.77
721.611	2993.11
721.798	2872.28
721.985	2943.96
722.172	2913.24
722.358	2993.11
722.545	2915.28
722.732	2909.14
722.919	3048.4
723.106	2970.58
723.293	2978.77
723.48	2989.01
723.667	2995.15
723.853	2952.15
724.04	3052.5
724.227	3081.17
724.414	3015.63
724.6	2900.95
724.787	3085.26
724.974	3032.02
725.161	2995.15
725.347	2948.05
725.534	2964.43
725.72	2864.08
725.907	2892.76
726.094	3046.35
726.28	2968.53
726.467	2937.81
726.653	2980.82
726.84	3079.12
727.027	3029.97
727.213	3003.35
727.4	3048.4
727.586	3044.31
727.773	2935.76
727.959	2954.19
728.145	3036.11
728.332	2946
728.518	3072.98
728.705	3029.97
728.891	2884.56
729.077	2929.62
729.264	2923.48
729.45	3007.44
729.636	3054.55
729.823	3001.3
730.009	2964.43
730.195	2929.62
730.382	2935.76
730.568	2974.67
730.754	2964.43
730.94	3017.68
731.126	2890.71
731.313	3097.55
731.499	2925.52
731.685	2964.43
731.871	2970.58
732.057	2978.77
732.243	2964.43
732.429	2991.06
732.615	3003.35
732.801	2948.05
732.987	2935.76
733.173	3005.39
733.359	3068.88
733.545	2806.74
733.731	2950.1
733.917	3038.16
734.103	2991.06
734.289	2962.39
734.475	2900.95
734.661	2921.43
734.847	2837.46
735.033	2976.72
735.219	2913.24
735.404	2896.85
735.59	2948.05
735.776	2882.52
735.962	2905.04
736.148	2986.96
736.333	2866.13
736.519	2917.33
736.705	2790.36
736.89	2849.75
737.076	2857.94
737.262	2821.08
737.447	2839.51
737.633	2819.03
737.819	2747.35
738.004	2982.87
738.19	2886.61
738.375	2757.59
738.561	2909.14
738.747	2767.83
738.932	2722.77
739.118	2814.93
739.303	2794.45
739.489	2778.07
739.674	2710.49
739.859	2640.86
740.045	2788.31
740.23	2749.4
740.416	2669.53
740.601	2753.49
740.786	2595.8
740.972	2591.7
741.157	2595.8
741.342	2601.94
741.528	2634.71
741.713	2745.3
741.898	2618.33
742.084	2716.63
742.269	2634.71
742.454	2722.77
742.639	2673.62
742.824	2659.29
743.01	2603.99
743.195	2640.86
743.38	2581.46
743.565	2501.59
743.75	2487.26
743.935	2434.01
744.12	2653.14
744.305	2499.55
744.49	2401.24
744.675	2425.82
744.86	2460.63
745.045	2409.44
745.23	2501.59
745.415	2542.55
745.6	2520.03
745.785	2481.11
745.97	2401.24
746.155	2399.2
746.34	2415.58
746.525	2352.09
746.71	2397.15
746.895	2321.37
747.079	2255.84
747.264	2360.28
747.449	2386.91
747.634	2405.34
747.819	2259.93
748.003	2182.11
748.188	2255.84
748.373	2280.41
748.557	2161.63
748.742	2208.73
748.927	2194.4
749.111	2175.97
749.296	2153.44
749.481	2186.21
749.665	2034.66
749.85	2210.78
750.034	2202.59
750.219	2026.47
750.404	2026.47
750.588	2116.58
750.773	2061.28
750.957	2077.66
751.141	1981.41
751.326	2055.14
751.51	1942.5
751.695	1919.97
751.879	2083.81
752.064	1977.31
752.248	2106.34
752.432	1950.69
752.617	1999.84
752.801	1917.92
752.985	1860.58
753.17	1999.84
753.354	1950.69
753.538	1905.63
753.722	1883.11
753.907	1821.67
754.091	1784.8
754.275	1831.91
754.459	1752.04
754.643	1827.81
754.828	1756.13
755.012	1770.47
755.196	1803.24
755.38	1737.7
755.564	1647.59
755.748	1733.61
755.932	1795.04
756.116	1696.74
756.3	1666.02
756.484	1610.73
756.668	1655.78
756.852	1588.2
757.036	1592.3
757.22	1625.06
757.404	1567.72
757.588	1522.66
757.772	1618.92
757.956	1582.06
758.14	1571.82
758.323	1444.84
758.507	1627.11
758.691	1498.09
758.875	1502.19
759.059	1528.81
759.242	1477.61
759.426	1455.08
759.61	1473.51
759.794	1477.61
759.977	1512.42
760.161	1653.73
760.345	1434.6
760.528	1510.38
760.712	1377.26
760.895	1442.79
761.079	1479.66
761.263	1418.22
761.446	1414.12
761.63	1412.07
761.813	1461.23
761.997	1299.44
762.18	1385.45
762.364	1426.41
762.547	1274.86
762.731	1336.3
762.914	1403.88
763.098	1295.34
763.281	1324.01
763.464	1379.31
763.648	1385.45
763.831	1299.44
764.015	1227.76
764.198	1295.34
764.381	1301.48
764.564	1297.39
764.748	1266.67
764.931	1276.91
765.114	1287.15
765.297	1201.13
765.481	1242.09
765.664	1336.3
765.847	1248.24
766.03	1291.24
766.213	1129.45
766.397	1305.58
766.58	1219.57
766.763	1307.63
766.946	1129.45
767.129	1201.13
767.312	1209.33
767.495	1260.52
767.678	1205.23
767.861	1131.5
768.044	1108.98
768.227	1088.5
768.41	1168.37
768.593	1205.23
768.776	1151.98
768.959	1184.75
769.142	1149.93
769.324	1108.98
769.507	1131.5
769.69	1096.69
769.873	1129.45
770.056	1246.19
770.239	1192.94
770.421	1127.41
770.604	1158.13
770.787	1092.59
770.97	1057.78
771.152	1041.39
771.335	1086.45
771.518	1072.11
771.7	1133.55
771.883	1137.65
772.066	1119.21
772.248	984.05
772.431	1131.5
772.613	1020.91
772.796	1016.82
772.978	1022.96
773.161	1080.3
773.343	1053.68
773.526	1104.88
773.708	912.37
773.891	996.34
774.073	1008.62
774.256	1037.3
774.438	945.14
774.621	930.8
774.803	994.29
774.985	957.43
775.168	930.8
775.35	908.27
775.532	922.61
775.715	869.36
775.897	924.66
776.079	885.75
776.261	908.27
776.444	816.12
776.626	898.03
776.808	820.21
776.99	875.51
777.173	932.85
777.355	910.32
777.537	822.26
777.719	934.9
777.901	785.4
778.083	803.83
778.265	699.38
778.447	893.94
778.629	812.02
778.811	818.16
778.993	826.36
779.175	873.46
779.357	861.17
779.539	742.39
779.721	885.75
779.903	797.68
780.085	766.96
780.267	836.6
780.449	728.05
780.631	719.86
780.812	789.49
780.994	826.36
781.176	793.59
781.358	709.62
781.54	713.72
781.721	713.72
781.903	754.68
782.085	740.34
782.267	779.25
782.448	605.17
782.63	617.46
782.812	662.52
782.993	650.23
783.175	824.31
783.357	680.95
783.538	678.9
783.72	543.74
783.901	588.79
784.083	650.23
784.264	621.56
784.446	588.79
784.627	568.31
784.809	564.22
784.99	558.07
785.172	697.33
785.353	639.99
785.535	508.92
785.716	551.93
785.897	519.16
786.079	537.59
786.26	680.95
786.441	525.3
786.623	504.82
786.804	515.06
786.985	562.17
787.167	570.36
787.348	492.54
787.529	521.21
787.71	527.35
787.891	590.84
788.073	363.51
788.254	457.72
788.435	558.07
788.616	533.5
788.797	470.01
788.978	549.88
789.159	484.34
789.34	529.4
789.522	345.08
789.703	498.68
789.884	553.98
790.065	472.06
790.246	465.91
790.427	457.72
790.607	556.02
790.788	488.44
790.969	371.71
791.15	490.49
791.331	463.86
791.512	467.96
791.693	484.34
791.874	424.95
792.054	488.44
792.235	523.26
792.416	443.39
792.597	324.6
792.778	455.67
792.958	459.77
793.139	488.44
793.32	508.92
793.5	437.24
793.681	482.3
793.862	500.73
794.042	398.33
794.223	336.89
794.404	427
794.584	320.51
794.765	410.62
794.945	328.7
795.126	320.51
795.306	435.19
795.487	418.81
795.667	275.45
795.848	414.71
796.028	406.52
796.209	291.84
796.389	388.09
796.57	386.04
796.75	338.94
796.93	402.43
797.111	330.75
797.291	359.42
797.471	420.86
797.652	361.47
797.832	283.64
798.012	379.9
798.192	283.64
798.373	289.79
798.553	246.78
798.733	363.51
798.913	234.49
799.093	310.27
799.274	326.65
799.454	369.66
799.634	345.08
799.814	363.51
799.994	320.51
800.174	265.21
800.354	291.84
800.534	275.45
800.714	367.61
800.894	273.4
801.074	263.16
801.254	267.26
801.434	271.36
801.614	285.69
801.794	205.82
801.974	1287.15
802.154	332.79
802.334	297.98
802.514	244.73
802.693	236.54
802.873	232.44
803.053	261.12
803.233	316.41
803.413	205.82
803.592	240.64
803.772	193.53
803.952	369.66
804.131	252.92
804.311	336.89
804.491	287.74
804.67	257.02
804.85	250.88
805.03	293.88
805.209	297.98
805.389	269.31
805.568	226.3
805.748	193.53
805.928	265.21
806.107	248.83
806.287	279.55
806.466	328.7
806.646	259.07
806.825	281.6
807.004	230.4
807.184	250.88
807.363	228.35
807.543	273.4
807.722	216.06
807.901	259.07
808.081	295.93
808.26	152.57
808.439	168.96
808.619	279.55
808.798	214.01
808.977	242.68
809.156	214.01
809.336	130.05
809.515	244.73
809.694	257.02
809.873	193.53
810.052	203.77
810.231	257.02
810.411	185.34
810.59	230.4
810.769	220.16
810.948	197.63
811.127	152.57
811.306	148.48
811.485	160.77
811.664	306.17
811.843	281.6
812.022	152.57
812.201	134.14
812.38	187.39
812.559	156.67
812.737	203.77
812.916	211.96
813.095	207.87
813.274	218.11
813.453	246.78
813.632	218.11
813.811	191.49
813.989	138.24
814.168	238.59
814.347	171.01
814.526	109.57
814.704	254.97
814.883	232.44
815.062	177.15
815.24	226.3
815.419	93.18
815.598	228.35
815.776	158.72
815.955	156.67
816.133	78.85
816.312	140.29
816.49	154.62
816.669	109.57
816.847	152.57
817.026	222.2
817.204	154.62
817.383	142.33
817.561	121.85
817.74	199.68
817.918	179.2
818.097	123.9
818.275	177.15
818.453	181.25
818.632	240.64
818.81	261.12
818.988	142.33
819.167	209.92
819.345	193.53
819.523	93.18
819.701	142.33
819.879	152.57
820.058	214.01
820.236	87.04
820.414	162.81
820.592	177.15
820.77	68.61
820.948	97.28
821.127	103.42
821.305	62.46
821.483	64.51
821.661	154.62
821.839	128
822.017	89.09
822.195	105.47
822.373	164.86
822.551	209.92
822.729	156.67
822.907	144.38
823.085	156.67
823.262	187.39
823.44	148.48
823.618	72.7
823.796	121.85
823.974	97.28
824.152	80.89
824.329	166.91
824.507	193.53
824.685	160.77
824.863	117.76
825.04	121.85
825.218	136.19
825.396	162.81
825.574	109.57
825.751	138.24
825.929	150.53
826.107	125.95
826.284	148.48
826.462	246.78
826.639	103.42
826.817	130.05
826.994	105.47
827.172	72.7
827.349	246.78
827.527	162.81
827.704	82.94
827.882	207.87
828.059	117.76
828.237	121.85
828.414	97.28
828.591	76.8
828.769	166.91
828.946	41.98
829.124	171.01
829.301	142.33
829.478	134.14
829.655	105.47
829.833	119.81
830.01	-5.12
830.187	150.53
830.364	93.18
830.542	80.89
830.719	220.16
830.896	97.28
831.073	89.09
831.25	146.43
831.427	115.71
831.604	134.14
831.782	46.08
831.959	113.66
832.136	103.42
832.313	177.15
832.49	17.41
832.667	136.19
832.844	7.17
833.021	84.99
833.198	109.57
833.374	58.37
833.551	105.47
833.728	54.27
833.905	119.81
834.082	46.08
834.259	140.29
834.436	99.33
834.612	62.46
834.789	117.76
834.966	84.99
835.143	105.47
835.319	31.74
835.496	109.57
835.673	109.57
835.85	115.71
836.026	113.66
836.203	119.81
836.38	97.28
836.556	107.52
836.733	62.46
836.909	207.87
837.086	54.27
837.262	33.79
837.439	111.61
837.616	91.13
837.792	-13.31
837.968	115.71
838.145	-27.65
838.321	19.46
838.498	87.04
838.674	136.19
838.851	60.42
839.027	78.85
839.203	64.51
839.38	27.65
839.556	78.85
839.732	115.71
839.909	52.22
840.085	72.7
840.261	-35.84
840.437	76.8
840.614	39.94
840.79	111.61
840.966	89.09
841.142	48.13
841.318	37.89
841.494	62.46
841.671	54.27
841.847	70.65
842.023	35.84
842.199	37.89
842.375	146.43
842.551	23.55
842.727	13.31
842.903	148.48
843.079	-1.02
843.255	183.29
843.431	82.94
843.607	15.36
843.783	11.26
843.959	111.61
844.134	-70.65
844.31	72.7
844.486	64.51
844.662	48.13
844.838	19.46
845.013	136.19
845.189	109.57
845.365	52.22
845.541	74.75
845.716	3.07
845.892	95.23
846.068	-23.55
846.244	-27.65
846.419	37.89
846.595	46.08
846.77	68.61
846.946	29.7
847.122	60.42
847.297	89.09
847.473	91.13
847.648	-23.55
847.824	52.22
847.999	-15.36
848.175	7.17
848.35	48.13
848.526	66.56
848.701	103.42
848.876	107.52
849.052	91.13
849.227	15.36
849.403	5.12
849.578	35.84
849.753	68.61
849.929	72.7
850.104	35.84
850.279	80.89
850.454	91.13
850.63	58.37
850.805	117.76
850.98	1.02
851.155	15.36
851.33	121.85
851.505	64.51
851.681	109.57
851.856	-76.8
852.031	87.04
852.206	87.04
852.381	-23.55
852.556	5.12
852.731	56.32
852.906	46.08
853.081	7.17
853.256	84.99
853.431	58.37
853.606	-5.12
853.781	-54.27
853.956	-76.8
854.131	82.94
854.305	-29.7
854.48	25.6
854.655	-56.32
854.83	-33.79
855.005	7.17
855.18	-5.12
855.354	-15.36
855.529	97.28
855.704	-11.26
855.879	82.94
856.053	15.36
856.228	-37.89
856.403	-74.75
856.577	107.52
856.752	-17.41
856.926	48.13
857.101	13.31
857.276	27.65
857.45	138.24
857.625	123.9
857.799	48.13
857.974	64.51
858.148	-39.94
858.323	62.46
858.497	-50.18
858.672	76.8
858.846	-5.12
859.02	101.37
859.195	64.51
859.369	-11.26
859.543	52.22
859.718	-13.31
859.892	46.08
860.066	27.65
860.241	-7.17
860.415	-1.02
860.589	115.71
860.763	1.02
860.938	78.85
861.112	44.03
861.286	62.46
861.46	140.29
861.634	-76.8
861.808	76.8
861.982	44.03
862.157	15.36
862.331	-60.42
862.505	5.12
862.679	3.07
862.853	17.41
863.027	-3.07
863.201	35.84
863.375	-29.7
863.549	72.7
863.722	5.12
863.896	119.81
864.07	-64.51
864.244	-35.84
864.418	56.32
864.592	15.36
864.766	-56.32
864.939	5.12
865.113	29.7
865.287	74.75
865.461	-23.55
865.634	29.7
865.808	-21.5
865.982	11.26
866.156	-54.27
866.329	-35.84
866.503	50.18
866.676	27.65
866.85	19.46
867.024	5.12
867.197	-35.84
867.371	62.46
867.544	15.36
867.718	-44.03
867.891	89.09
868.065	-76.8
868.238	-27.65
868.412	107.52
868.585	29.7
868.759	39.94
868.932	7.17
869.105	-27.65
869.279	60.42
869.452	50.18
869.625	-11.26
869.799	3.07
869.972	-33.79
870.145	87.04
870.319	31.74
870.492	-31.74
870.665	-52.22
870.838	-27.65
871.011	-46.08
871.185	33.79
871.358	-5.12
871.531	41.98
871.704	-27.65
871.877	50.18
872.05	-35.84
872.223	-21.5
872.396	76.8
872.569	-44.03
872.742	17.41
872.915	68.61
873.088	-13.31
873.261	-46.08
873.434	37.89
873.607	66.56
873.78	13.31
873.953	7.17
874.126	13.31
874.299	3.07
874.471	-58.37
874.644	41.98
874.817	80.89
874.99	11.26
875.163	-50.18
875.335	74.75
875.508	-39.94
875.681	19.46
875.853	-19.46
876.026	5.12
876.199	60.42
876.371	-5.12
876.544	-23.55
876.717	25.6
876.889	-11.26
877.062	-3.07
877.234	-19.46
877.407	-48.13
877.579	-37.89
877.752	-60.42
877.924	35.84
878.097	35.84
878.269	52.22
878.442	-1.02
878.614	25.6
878.786	46.08
878.959	72.7
879.131	17.41
879.303	-48.13
879.476	3.07
879.648	56.32
879.82	-13.31
879.993	56.32
880.165	46.08
880.337	-19.46
880.509	-76.8
880.681	5.12
880.854	-52.22
881.026	11.26
881.198	76.8
881.37	-1.02
881.542	-44.03
881.714	15.36
881.886	-21.5
882.058	25.6
882.23	-23.55
882.402	29.7
882.574	-33.79
882.746	37.89
882.918	125.95
883.09	39.94
883.262	35.84
883.434	9.22
883.606	-50.18
883.778	23.55
883.95	70.65
884.122	-39.94
884.293	60.42
884.465	-37.89
884.637	76.8
884.809	27.65
884.98	89.09
885.152	68.61
885.324	50.18
885.496	-33.79
885.667	17.41
885.839	-29.7
886.011	62.46
886.182	-37.89
886.354	117.76
886.525	-50.18
886.697	60.42
886.869	-9.22
887.04	-31.74
887.212	105.47
887.383	138.24
887.555	82.94
887.726	44.03
887.897	-21.5
888.069	35.84
888.24	35.84
888.412	17.41
888.583	39.94
888.754	-56.32
888.926	-80.89
889.097	-39.94
889.268	-66.56
889.44	-48.13
889.611	35.84
889.782	-54.27
889.953	-44.03
890.125	87.04
890.296	-60.42
890.467	1.02
890.638	3.07
890.809	-11.26
890.98	-33.79
891.151	1.02
891.323	93.18
891.494	52.22
891.665	19.46
891.836	-29.7
892.007	39.94
892.178	80.89
892.349	39.94
892.52	-48.13
892.691	5.12
892.862	-11.26
893.032	-72.7
893.203	-70.65
893.374	-62.46
893.545	39.94
893.716	-15.36
893.887	91.13
894.057	25.6
894.228	-25.6
894.399	11.26
894.57	44.03
894.74	-39.94
894.911	-72.7
895.082	17.41
895.253	-50.18
895.423	-33.79
895.594	-11.26
895.764	17.41
895.935	29.7
896.106	1.02
896.276	-54.27
896.447	11.26
896.617	-68.61
896.788	-27.65
896.958	-52.22
897.129	-44.03
897.299	68.61
897.47	78.85
897.64	91.13
897.81	19.46
897.981	13.31
898.151	-62.46
898.322	60.42
898.492	48.13
898.662	-21.5
898.832	31.74
899.003	-1.02
899.173	-13.31
899.343	-48.13
899.513	-1.02
