Data from USB4F104151__88__12-13-03-900.txt Node

Date: Fri Mar 14 12:13:03 EDT 2025
User: louis
Spectrometer: USB4F10415
Trigger mode: 4
Integration Time (sec): 5.000000E-2
Scans to average: 1
Electric dark correction enabled: true
Nonlinearity correction enabled: false
Boxcar width: 0
XAxis mode: Wavelengths
Number of Pixels in Spectrum: 3648
>>>>>Begin Spectral Data<<<<<
178.204	-178.86
178.424	-178.86
178.644	-178.86
178.864	-187.05
179.084	-193.19
179.304	-12.97
179.524	-53.93
179.744	3.41
179.964	32.08
180.184	-47.79
180.404	54.61
180.624	-29.35
180.844	15.7
181.064	-66.22
181.283	81.24
181.503	3.41
181.723	19.8
181.943	-27.31
182.163	167.25
182.383	-27.31
182.602	183.63
182.822	91.48
183.042	91.48
183.262	64.85
183.482	83.28
183.701	-55.98
183.921	-8.87
184.141	-6.83
184.361	116.05
184.58	44.37
184.8	-27.31
185.02	-35.5
185.239	142.68
185.459	46.42
185.679	42.32
185.898	17.75
186.118	152.91
186.338	79.19
186.557	116.05
186.777	15.7
186.997	21.85
187.216	9.56
187.436	77.14
187.655	48.47
187.875	89.43
188.095	25.94
188.314	64.85
188.534	163.15
188.753	46.42
188.973	99.67
189.192	50.52
189.412	11.61
189.631	134.48
189.851	87.38
190.07	142.68
190.29	-43.69
190.509	23.89
190.729	9.56
190.948	42.32
191.168	167.25
191.387	58.71
191.607	11.61
191.826	54.61
192.045	13.65
192.265	48.47
192.484	42.32
192.704	60.76
192.923	-10.92
193.142	114
193.362	44.37
193.581	83.28
193.8	19.8
194.02	91.48
194.239	52.56
194.458	142.68
194.678	36.18
194.897	54.61
195.116	75.09
195.335	23.89
195.555	60.76
195.774	34.13
195.993	27.99
196.212	85.33
196.432	9.56
196.651	34.13
196.87	-10.92
197.089	161.11
197.308	77.14
197.528	15.7
197.747	25.94
197.966	75.09
198.185	48.47
198.404	13.65
198.623	52.56
198.842	50.52
199.062	120.15
199.281	75.09
199.5	5.46
199.719	46.42
199.938	7.51
200.157	71
200.376	99.67
200.595	83.28
200.814	77.14
201.033	-51.88
201.252	120.15
201.471	11.61
201.69	58.71
201.909	99.67
202.128	85.33
202.347	64.85
202.566	13.65
202.785	-29.35
203.004	27.99
203.223	171.35
203.442	32.08
203.661	66.9
203.879	-0.68
204.098	81.24
204.317	40.28
204.536	116.05
204.755	-4.78
204.974	-4.78
205.193	109.91
205.411	159.06
205.63	44.37
205.849	146.77
206.068	56.66
206.287	27.99
206.505	107.86
206.724	-17.07
206.943	-21.16
207.162	-25.26
207.381	48.47
207.599	3.41
207.818	71
208.037	52.56
208.255	-35.5
208.474	64.85
208.693	21.85
208.911	60.76
209.13	87.38
209.349	64.85
209.567	-6.83
209.786	52.56
210.005	58.71
210.223	-0.68
210.442	-29.35
210.661	73.04
210.879	111.96
211.098	9.56
211.316	66.9
211.535	97.62
211.753	38.23
211.972	50.52
212.191	30.04
212.409	79.19
212.628	99.67
212.846	64.85
213.065	91.48
213.283	105.81
213.502	25.94
213.72	91.48
213.938	56.66
214.157	93.52
214.375	83.28
214.594	25.94
214.812	46.42
215.031	1.37
215.249	7.51
215.467	23.89
215.686	75.09
215.904	136.53
216.122	-25.26
216.341	52.56
216.559	66.9
216.778	64.85
216.996	44.37
217.214	48.47
217.432	46.42
217.651	-10.92
217.869	23.89
218.087	58.71
218.306	11.61
218.524	89.43
218.742	73.04
218.96	71
219.179	54.61
219.397	138.58
219.615	187.73
219.833	-0.68
220.051	27.99
220.27	48.47
220.488	93.52
220.706	34.13
220.924	19.8
221.142	56.66
221.36	89.43
221.578	17.75
221.796	85.33
222.015	30.04
222.233	-29.35
222.451	38.23
222.669	46.42
222.887	85.33
223.105	34.13
223.323	42.32
223.541	-41.64
223.759	-27.31
223.977	7.51
224.195	140.63
224.413	66.9
224.631	114
224.849	89.43
225.067	111.96
225.285	5.46
225.503	21.85
225.721	13.65
225.939	40.28
226.157	5.46
226.375	124.24
226.592	-8.87
226.81	32.08
227.028	134.48
227.246	167.25
227.464	50.52
227.682	101.72
227.9	62.8
228.117	114
228.335	13.65
228.553	42.32
228.771	64.85
228.989	38.23
229.206	68.95
229.424	40.28
229.642	25.94
229.86	27.99
230.077	77.14
230.295	79.19
230.513	50.52
230.731	-37.55
230.948	11.61
231.166	148.82
231.384	-19.11
231.601	11.61
231.819	89.43
232.037	-8.87
232.254	48.47
232.472	38.23
232.689	54.61
232.907	89.43
233.125	54.61
233.342	56.66
233.56	11.61
233.777	5.46
233.995	36.18
234.213	44.37
234.43	42.32
234.648	36.18
234.865	38.23
235.083	-33.45
235.3	128.34
235.518	52.56
235.735	56.66
235.953	150.87
236.17	46.42
236.388	52.56
236.605	71
236.822	93.52
237.04	75.09
237.257	103.76
237.475	23.89
237.692	85.33
237.909	21.85
238.127	-0.68
238.344	81.24
238.562	62.8
238.779	-19.11
238.996	-21.16
239.214	87.38
239.431	85.33
239.648	50.52
239.865	56.66
240.083	95.57
240.3	38.23
240.517	7.51
240.735	9.56
240.952	5.46
241.169	89.43
241.386	5.46
241.603	-27.31
241.821	7.51
242.038	44.37
242.255	-33.45
242.472	30.04
242.689	140.63
242.907	97.62
243.124	-6.83
243.341	73.04
243.558	46.42
243.775	44.37
243.992	40.28
244.209	30.04
244.426	124.24
244.643	91.48
244.86	34.13
245.078	99.67
245.295	34.13
245.512	48.47
245.729	42.32
245.946	71
246.163	56.66
246.38	54.61
246.597	23.89
246.814	87.38
247.031	25.94
247.248	32.08
247.464	85.33
247.681	-78.51
247.898	48.47
248.115	79.19
248.332	25.94
248.549	171.35
248.766	120.15
248.983	109.91
249.2	52.56
249.417	99.67
249.633	64.85
249.85	150.87
250.067	56.66
250.284	120.15
250.501	17.75
250.717	54.61
250.934	-27.31
251.151	5.46
251.368	-17.07
251.585	36.18
251.801	27.99
252.018	-12.97
252.235	105.81
252.451	-23.21
252.668	60.76
252.885	64.85
253.102	-78.51
253.318	79.19
253.535	71
253.752	-4.78
253.968	50.52
254.185	-4.78
254.401	30.04
254.618	91.48
254.835	48.47
255.051	122.2
255.268	38.23
255.484	9.56
255.701	9.56
255.917	97.62
256.134	-2.73
256.351	54.61
256.567	-29.35
256.784	118.1
257	-43.69
257.217	75.09
257.433	101.72
257.65	1.37
257.866	77.14
258.082	-43.69
258.299	-53.93
258.515	25.94
258.732	32.08
258.948	9.56
259.165	54.61
259.381	-21.16
259.597	87.38
259.814	19.8
260.03	25.94
260.246	75.09
260.463	81.24
260.679	91.48
260.895	54.61
261.112	93.52
261.328	38.23
261.544	36.18
261.761	60.76
261.977	25.94
262.193	-15.02
262.409	52.56
262.626	85.33
262.842	36.18
263.058	-2.73
263.274	71
263.49	64.85
263.707	167.25
263.923	60.76
264.139	-43.69
264.355	114
264.571	128.34
264.787	148.82
265.004	91.48
265.22	23.89
265.436	77.14
265.652	19.8
265.868	36.18
266.084	-70.31
266.3	99.67
266.516	21.85
266.732	64.85
266.948	52.56
267.164	48.47
267.38	11.61
267.596	64.85
267.812	169.3
268.028	101.72
268.244	66.9
268.46	32.08
268.676	13.65
268.892	154.96
269.108	1.37
269.324	27.99
269.54	-35.5
269.756	107.86
269.972	-72.36
270.188	5.46
270.403	21.85
270.619	46.42
270.835	77.14
271.051	58.71
271.267	3.41
271.483	62.8
271.698	97.62
271.914	-2.73
272.13	85.33
272.346	77.14
272.562	38.23
272.777	134.48
272.993	21.85
273.209	130.39
273.425	52.56
273.64	5.46
273.856	50.52
274.072	11.61
274.287	-41.64
274.503	13.65
274.719	136.53
274.934	68.95
275.15	-8.87
275.366	103.76
275.581	79.19
275.797	71
276.012	81.24
276.228	-23.21
276.444	58.71
276.659	120.15
276.875	5.46
277.09	17.75
277.306	11.61
277.521	62.8
277.737	5.46
277.952	52.56
278.168	36.18
278.383	-62.12
278.599	54.61
278.814	101.72
279.03	71
279.245	62.8
279.461	120.15
279.676	46.42
279.892	-68.27
280.107	27.99
280.322	42.32
280.538	93.52
280.753	44.37
280.969	50.52
281.184	30.04
281.399	79.19
281.615	25.94
281.83	77.14
282.045	-10.92
282.26	9.56
282.476	58.71
282.691	68.95
282.906	87.38
283.122	25.94
283.337	58.71
283.552	48.47
283.767	7.51
283.983	9.56
284.198	42.32
284.413	21.85
284.628	9.56
284.843	62.8
285.058	99.67
285.274	21.85
285.489	42.32
285.704	58.71
285.919	-10.92
286.134	34.13
286.349	-43.69
286.564	50.52
286.779	130.39
286.995	-49.83
287.21	75.09
287.425	66.9
287.64	48.47
287.855	87.38
288.07	3.41
288.285	58.71
288.5	83.28
288.715	128.34
288.93	27.99
289.145	-39.59
289.36	109.91
289.575	75.09
289.79	93.52
290.004	109.91
290.219	97.62
290.434	13.65
290.649	75.09
290.864	42.32
291.079	21.85
291.294	44.37
291.509	-25.26
291.724	-4.78
291.938	3.41
292.153	64.85
292.368	-41.64
292.583	101.72
292.798	89.43
293.012	13.65
293.227	157.01
293.442	19.8
293.657	-45.74
293.871	97.62
294.086	138.58
294.301	146.77
294.516	146.77
294.73	40.28
294.945	30.04
295.16	-21.16
295.374	89.43
295.589	56.66
295.804	-78.51
296.018	144.72
296.233	114
296.447	21.85
296.662	-74.41
296.877	120.15
297.091	101.72
297.306	30.04
297.52	75.09
297.735	109.91
297.949	52.56
298.164	95.57
298.378	114
298.593	-25.26
298.807	-8.87
299.022	68.95
299.236	40.28
299.451	50.52
299.665	79.19
299.88	-17.07
300.094	60.76
300.309	23.89
300.523	95.57
300.737	118.1
300.952	140.63
301.166	114
301.381	46.42
301.595	30.04
301.809	56.66
302.024	95.57
302.238	15.7
302.452	-27.31
302.667	40.28
302.881	95.57
303.095	136.53
303.309	101.72
303.524	32.08
303.738	105.81
303.952	52.56
304.166	87.38
304.381	-41.64
304.595	130.39
304.809	1.37
305.023	25.94
305.237	-15.02
305.452	91.48
305.666	23.89
305.88	40.28
306.094	77.14
306.308	83.28
306.522	11.61
306.736	-23.21
306.95	103.76
307.164	85.33
307.379	60.76
307.593	50.52
307.807	68.95
308.021	128.34
308.235	111.96
308.449	-33.45
308.663	105.81
308.877	169.3
309.091	9.56
309.305	32.08
309.519	-82.6
309.733	77.14
309.947	-19.11
310.161	111.96
310.374	83.28
310.588	-2.73
310.802	38.23
311.016	40.28
311.23	75.09
311.444	-17.07
311.658	60.76
311.872	136.53
312.085	62.8
312.299	171.35
312.513	130.39
312.727	52.56
312.941	27.99
313.154	64.85
313.368	73.04
313.582	13.65
313.796	87.38
314.009	105.81
314.223	68.95
314.437	34.13
314.651	50.52
314.864	44.37
315.078	40.28
315.292	77.14
315.505	71
315.719	40.28
315.933	56.66
316.146	30.04
316.36	7.51
316.573	130.39
316.787	126.29
317.001	13.65
317.214	-8.87
317.428	-23.21
317.641	54.61
317.855	34.13
318.068	89.43
318.282	66.9
318.495	157.01
318.709	114
318.922	62.8
319.136	152.91
319.349	126.29
319.563	-33.45
319.776	52.56
319.99	11.61
320.203	32.08
320.417	62.8
320.63	107.86
320.843	105.81
321.057	99.67
321.27	54.61
321.483	93.52
321.697	95.57
321.91	27.99
322.124	81.24
322.337	19.8
322.55	-15.02
322.763	71
322.977	25.94
323.19	73.04
323.403	3.41
323.617	34.13
323.83	159.06
324.043	-51.88
324.256	-2.73
324.469	81.24
324.683	111.96
324.896	81.24
325.109	75.09
325.322	-74.41
325.535	62.8
325.748	103.76
325.962	9.56
326.175	105.81
326.388	91.48
326.601	111.96
326.814	17.75
327.027	32.08
327.24	191.83
327.453	19.8
327.666	103.76
327.879	175.44
328.092	40.28
328.305	71
328.518	-2.73
328.731	38.23
328.944	38.23
329.157	99.67
329.37	7.51
329.583	177.49
329.796	109.91
330.009	-58.03
330.222	126.29
330.435	120.15
330.648	46.42
330.861	-17.07
331.073	42.32
331.286	157.01
331.499	81.24
331.712	103.76
331.925	15.7
332.138	21.85
332.35	103.76
332.563	42.32
332.776	130.39
332.989	34.13
333.202	44.37
333.414	99.67
333.627	71
333.84	-27.31
334.053	167.25
334.265	17.75
334.478	52.56
334.691	50.52
334.903	75.09
335.116	46.42
335.329	-21.16
335.541	91.48
335.754	50.52
335.966	68.95
336.179	-0.68
336.392	54.61
336.604	54.61
336.817	62.8
337.029	50.52
337.242	68.95
337.454	134.48
337.667	64.85
337.88	32.08
338.092	62.8
338.305	-0.68
338.517	50.52
338.729	50.52
338.942	91.48
339.154	-37.55
339.367	44.37
339.579	95.57
339.792	11.61
340.004	40.28
340.217	-8.87
340.429	60.76
340.641	40.28
340.854	77.14
341.066	50.52
341.278	103.76
341.491	154.96
341.703	132.44
341.915	7.51
342.128	87.38
342.34	103.76
342.552	-4.78
342.764	83.28
342.977	105.81
343.189	79.19
343.401	71
343.613	-37.55
343.826	50.52
344.038	-86.7
344.25	54.61
344.462	97.62
344.674	60.76
344.886	-29.35
345.099	161.11
345.311	68.95
345.523	-60.07
345.735	-8.87
345.947	105.81
346.159	85.33
346.371	109.91
346.583	79.19
346.795	142.68
347.007	75.09
347.219	60.76
347.431	-17.07
347.643	99.67
347.855	50.52
348.067	105.81
348.279	46.42
348.491	9.56
348.703	81.24
348.915	-12.97
349.127	34.13
349.339	46.42
349.551	42.32
349.763	126.29
349.975	-19.11
350.187	124.24
350.399	154.96
350.61	9.56
350.822	46.42
351.034	38.23
351.246	50.52
351.458	109.91
351.669	95.57
351.881	75.09
352.093	83.28
352.305	48.47
352.517	60.76
352.728	101.72
352.94	42.32
353.152	52.56
353.363	19.8
353.575	120.15
353.787	116.05
353.999	107.86
354.21	144.72
354.422	21.85
354.633	44.37
354.845	60.76
355.057	103.76
355.268	9.56
355.48	163.15
355.692	7.51
355.903	73.04
356.115	19.8
356.326	-19.11
356.538	93.52
356.749	52.56
356.961	17.75
357.172	19.8
357.384	-37.55
357.595	138.58
357.807	99.67
358.018	13.65
358.23	40.28
358.441	163.15
358.653	52.56
358.864	48.47
359.075	116.05
359.287	87.38
359.498	95.57
359.709	71
359.921	15.7
360.132	-17.07
360.344	75.09
360.555	-78.51
360.766	62.8
360.977	-23.21
361.189	130.39
361.4	-39.59
361.611	89.43
361.823	142.68
362.034	30.04
362.245	-53.93
362.456	52.56
362.667	73.04
362.879	52.56
363.09	103.76
363.301	91.48
363.512	118.1
363.723	21.85
363.935	15.7
364.146	134.48
364.357	15.7
364.568	62.8
364.779	52.56
364.99	177.49
365.201	27.99
365.412	17.75
365.623	32.08
365.834	124.24
366.045	62.8
366.256	95.57
366.467	15.7
366.678	66.9
366.889	40.28
367.1	128.34
367.311	126.29
367.522	30.04
367.733	-12.97
367.944	114
368.155	44.37
368.366	130.39
368.577	136.53
368.788	118.1
368.999	21.85
369.209	42.32
369.42	99.67
369.631	216.4
369.842	34.13
370.053	23.89
370.264	81.24
370.474	27.99
370.685	-27.31
370.896	36.18
371.107	87.38
371.317	75.09
371.528	56.66
371.739	128.34
371.95	11.61
372.16	46.42
372.371	62.8
372.582	50.52
372.792	103.76
373.003	25.94
373.214	66.9
373.424	101.72
373.635	44.37
373.846	87.38
374.056	60.76
374.267	60.76
374.477	138.58
374.688	54.61
374.898	85.33
375.109	30.04
375.319	79.19
375.53	148.82
375.74	134.48
375.951	44.37
376.161	77.14
376.372	154.96
376.582	42.32
376.793	83.28
377.003	60.76
377.214	85.33
377.424	71
377.635	167.25
377.845	7.51
378.055	93.52
378.266	124.24
378.476	19.8
378.686	161.11
378.897	50.52
379.107	46.42
379.317	118.1
379.528	46.42
379.738	103.76
379.948	21.85
380.158	103.76
380.369	23.89
380.579	36.18
380.789	27.99
380.999	60.76
381.21	91.48
381.42	93.52
381.63	-55.98
381.84	64.85
382.05	91.48
382.261	116.05
382.471	134.48
382.681	36.18
382.891	83.28
383.101	60.76
383.311	30.04
383.521	11.61
383.731	66.9
383.941	101.72
384.151	87.38
384.361	68.95
384.571	87.38
384.781	107.86
384.991	183.63
385.201	177.49
385.411	161.11
385.621	3.41
385.831	58.71
386.041	42.32
386.251	56.66
386.461	91.48
386.671	66.9
386.881	124.24
387.091	17.75
387.301	71
387.511	116.05
387.72	118.1
387.93	97.62
388.14	-4.78
388.35	109.91
388.56	114
388.769	142.68
388.979	19.8
389.189	42.32
389.399	71
389.609	134.48
389.818	50.52
390.028	122.2
390.238	101.72
390.447	56.66
390.657	105.81
390.867	111.96
391.076	44.37
391.286	85.33
391.496	1.37
391.705	109.91
391.915	126.29
392.125	46.42
392.334	75.09
392.544	120.15
392.753	19.8
392.963	27.99
393.172	148.82
393.382	40.28
393.591	101.72
393.801	107.86
394.01	208.21
394.22	83.28
394.429	107.86
394.639	93.52
394.848	32.08
395.058	89.43
395.267	73.04
395.477	95.57
395.686	171.35
395.895	130.39
396.105	144.72
396.314	111.96
396.524	171.35
396.733	134.48
396.942	77.14
397.152	187.73
397.361	62.8
397.57	152.91
397.78	81.24
397.989	140.63
398.198	195.92
398.407	140.63
398.617	38.23
398.826	52.56
399.035	60.76
399.244	234.83
399.453	154.96
399.663	111.96
399.872	99.67
400.081	85.33
400.29	103.76
400.499	124.24
400.708	152.91
400.917	44.37
401.127	91.48
401.336	122.2
401.545	167.25
401.754	140.63
401.963	169.3
402.172	132.44
402.381	81.24
402.59	91.48
402.799	85.33
403.008	85.33
403.217	191.83
403.426	152.91
403.635	91.48
403.844	116.05
404.053	77.14
404.262	91.48
404.471	183.63
404.68	277.84
404.888	134.48
405.097	206.16
405.306	167.25
405.515	202.07
405.724	128.34
405.933	218.45
406.142	189.78
406.35	230.74
406.559	148.82
406.768	218.45
406.977	202.07
407.185	257.36
407.394	208.21
407.603	118.1
407.812	283.99
408.02	310.61
408.229	210.26
408.438	118.1
408.646	179.54
408.855	224.59
409.064	236.88
409.272	261.46
409.481	363.86
409.69	261.46
409.898	290.13
410.107	304.46
410.315	271.7
410.524	296.27
410.733	376.14
410.941	308.56
411.15	410.96
411.358	302.42
411.567	431.44
411.775	345.42
411.984	388.43
412.192	386.38
412.401	417.1
412.609	517.45
412.818	529.74
413.026	511.31
413.234	443.73
413.443	474.45
413.651	478.54
413.86	562.51
414.068	646.48
414.276	507.21
414.485	572.75
414.693	664.91
414.901	699.72
415.11	599.37
415.318	664.91
415.526	677.19
415.734	634.19
415.943	650.57
416.151	908.62
416.359	769.35
416.567	742.73
416.776	898.38
416.984	884.04
417.192	955.72
417.4	888.14
417.608	853.32
417.817	877.9
418.025	1006.92
418.233	1215.81
418.441	1013.06
418.649	1080.64
418.857	1189.19
419.065	1250.63
419.273	1181
419.481	1275.2
419.689	1230.15
419.897	1387.84
420.105	1414.46
420.313	1482.05
420.521	1441.09
420.729	1553.73
420.937	1553.73
421.145	1553.73
421.353	1707.32
421.561	1758.52
421.769	1717.56
421.977	1951.03
422.185	1840.44
422.393	1983.8
422.601	2266.42
422.809	2049.33
423.017	2213.17
423.224	2198.84
423.432	2311.47
423.64	2245.94
423.848	2581.81
424.056	2401.58
424.263	2618.67
424.471	2719.02
424.679	2719.02
424.887	2827.56
425.094	2850.09
425.302	2987.3
425.51	3145
425.718	3110.18
425.925	3128.61
426.133	3167.53
426.341	3517.73
426.548	3685.66
426.756	3667.23
426.964	3761.44
427.171	3753.24
427.379	4025.62
427.586	4015.38
427.794	4193.56
428.001	4406.55
428.209	4521.23
428.417	4418.83
428.624	4726.03
428.832	4771.08
429.039	4766.99
429.247	4723.98
429.454	5227.78
429.662	5485.83
429.869	5184.77
430.076	5430.53
430.284	5530.88
430.491	5620.99
430.699	6024.44
430.906	5977.34
431.114	6087.93
431.321	6104.31
431.528	6407.41
431.736	6829.29
431.943	7085.29
432.15	6968.56
432.358	6843.63
432.565	7363.81
432.772	7369.96
432.979	7582.95
433.187	7705.82
433.394	7881.95
433.601	8240.34
433.808	8209.62
434.016	8439
434.223	8641.75
434.43	9270.47
434.637	9159.88
434.844	9514.18
435.052	9800.9
435.259	9718.98
435.466	9772.22
435.673	9921.73
435.88	10319.03
436.087	10798.26
436.294	11007.15
436.501	10540.21
436.708	10810.54
436.915	11314.34
437.122	11646.12
437.329	11472.04
437.537	12156.06
437.743	12569.75
437.95	12301.47
438.157	12805.27
438.364	13184.14
438.571	13178
438.778	13417.61
438.985	14429.31
439.192	13954.18
439.399	14386.3
439.606	14083.2
439.813	14765.17
440.02	15787.11
440.227	15653.99
440.433	15328.36
440.64	15860.84
440.847	15580.26
441.054	16168.03
441.261	17192.01
441.467	16807
441.674	17511.5
441.881	18293.82
442.088	18052.16
442.294	17892.42
442.501	18232.38
442.708	18818.1
442.914	19317.81
443.121	20089.89
443.328	19790.89
443.534	21218.32
443.741	20231.2
443.948	20296.74
444.154	21718.03
444.361	21505.04
444.568	21695.5
444.774	21920.77
444.981	21836.81
445.187	22539.26
445.394	23251.95
445.6	23327.73
445.807	25422.8
446.013	24370.15
446.22	24663
446.426	26024.9
446.633	25947.08
446.839	26880.96
447.046	25578.45
447.252	26823.61
447.459	27100.09
447.665	26747.84
447.871	28410.79
448.078	29670.29
448.284	28042.15
448.491	29166.49
448.697	29639.57
448.903	30395.27
449.11	30540.68
449.316	29985.68
449.522	30569.35
449.728	31671.15
449.935	31472.5
450.141	31789.94
450.347	32269.16
450.553	31218.55
450.76	31558.52
450.966	32713.57
451.172	32635.75
451.378	33278.81
451.584	32594.79
451.791	33188.7
451.997	33241.95
452.203	33626.96
452.409	34155.34
452.615	33540.95
452.821	32764.77
453.027	32074.6
453.233	33854.29
453.44	32594.79
453.646	32666.47
453.852	32938.85
454.058	33700.69
454.264	32592.74
454.47	32940.89
454.676	32250.73
454.882	33426.26
455.088	30780.29
455.294	31036.28
455.5	31314.81
455.705	31775.6
455.911	30585.73
456.117	29619.09
456.323	29240.22
456.529	27909.04
456.735	29025.18
456.941	28406.69
457.147	27743.15
457.352	26741.69
457.558	26704.83
457.764	26993.59
457.97	26041.29
458.176	25578.45
458.381	25697.23
458.587	24523.74
458.793	24581.09
458.999	23266.29
459.204	25050.07
459.41	24185.83
459.616	22660.09
459.821	22653.95
460.027	22352.9
460.233	21830.66
460.438	20872.21
460.644	21382.16
460.85	20374.56
461.055	19815.46
461.261	19881
461.466	18349.12
461.672	17777.73
461.878	18908.21
462.083	18017.35
462.289	17421.39
462.494	17071.18
462.7	16645.21
462.905	15969.38
463.111	16680.02
463.316	16745.56
463.522	16235.61
463.727	16415.83
463.932	16303.2
464.138	16151.65
464.343	16252
464.549	15729.77
464.754	16383.07
464.959	16407.64
465.165	16198.75
465.37	15469.67
465.575	14865.52
465.781	15680.61
465.986	15635.56
466.191	14990.45
466.397	14822.52
466.602	14294.14
466.807	14716.02
467.012	14662.77
467.218	14408.83
467.423	14500.98
467.628	14374.01
467.833	15187.05
468.038	14472.31
468.244	14048.38
468.449	14703.73
468.654	14044.29
468.859	14273.66
469.064	14124.16
469.269	13540.49
469.474	13808.77
469.679	13831.3
469.885	13221
470.09	13517.96
470.295	13444.23
470.5	13194.38
470.705	13323.4
470.91	13116.56
471.115	12854.42
471.32	13173.9
471.525	13110.41
471.73	12745.87
471.935	12758.16
472.139	12049.57
472.344	12242.07
472.549	12217.5
472.754	12184.73
472.959	11803.81
473.164	11799.71
473.369	11500.71
473.574	12082.33
473.778	11740.32
473.983	11689.12
474.188	11709.6
474.393	11152.56
474.598	11138.22
474.802	10988.72
475.007	10929.33
475.212	11293.86
475.417	10486.97
475.621	10712.24
475.826	10515.64
476.031	10579.12
476.235	10220.73
476.44	10417.33
476.645	10120.38
476.849	10214.59
477.054	9999.55
477.259	9854.14
477.463	9987.26
477.668	9604.29
477.872	9807.04
478.077	9696.45
478.282	9350.34
478.486	9557.19
478.691	9428.17
478.895	9225.42
479.1	9184.46
479.304	9090.25
479.509	8932.56
479.713	9080.01
479.918	9077.96
480.122	8627.41
480.326	8846.54
480.531	8936.65
480.735	8725.71
480.94	8572.11
481.144	8895.69
481.348	8506.58
481.553	8809.68
481.757	8453.33
481.961	8586.45
482.166	8795.34
482.37	8752.34
482.574	8178.9
482.778	8371.41
482.983	8738
483.187	8465.62
483.391	8799.44
483.595	8484.05
483.8	8701.14
484.004	8535.25
484.208	8623.31
484.412	8590.55
484.616	8467.67
484.821	8662.23
485.025	8275.16
485.229	8563.92
485.433	8461.52
485.637	8565.97
485.841	8506.58
486.045	8441.04
486.249	8420.56
486.453	8572.11
486.657	8518.87
486.861	8570.07
487.065	8156.38
487.269	8502.48
487.473	8332.5
487.677	8705.23
487.881	8672.47
488.085	8529.11
488.289	8651.99
488.493	8482
488.697	8760.53
488.901	8504.53
489.105	8594.64
489.309	8606.93
489.512	8641.75
489.716	8568.02
489.92	8656.08
490.124	8643.79
490.328	8901.84
490.531	8799.44
490.735	8877.26
490.939	8862.93
491.143	8682.7
491.346	8729.81
491.55	8961.23
491.754	8873.17
491.958	8922.32
492.161	8910.03
492.365	8897.74
492.569	9004.24
492.772	9102.54
492.976	9049.29
493.18	9299.14
493.383	9473.22
493.587	9342.15
493.79	9442.5
493.994	9182.41
494.197	9415.88
494.401	9452.74
494.605	9456.84
494.808	9606.34
495.012	9733.31
495.215	9700.55
495.419	9725.12
495.622	9778.37
495.825	9974.97
496.029	9878.72
496.232	10278.07
496.436	9993.4
496.639	10357.94
496.843	10409.14
497.046	10550.45
497.249	10658.99
497.453	10759.35
497.656	10792.11
497.859	10914.99
498.063	10859.7
498.266	11048.11
498.469	11015.34
498.673	11156.65
498.876	11588.77
499.079	11619.49
499.282	11441.32
499.485	11768.99
499.689	11699.36
499.892	11963.55
500.095	12022.94
500.298	12166.3
500.501	12078.24
500.705	12635.28
500.908	12733.59
501.111	12633.24
501.314	12872.85
501.517	13122.7
501.72	13270.15
501.923	13153.42
502.126	13362.31
502.329	13468.81
502.532	13845.63
502.735	13788.29
502.938	14075.01
503.141	14007.42
503.344	14312.57
503.547	14421.11
503.75	14642.29
503.953	14634.1
504.156	14984.3
504.359	14963.82
504.562	15076.46
504.765	15334.51
504.968	15500.39
505.17	15682.66
505.373	15676.52
505.576	16227.42
505.779	15985.76
505.982	16295
506.185	16682.07
506.387	16493.66
506.59	16829.52
506.793	16954.45
506.996	16897.11
507.198	17411.15
507.401	17376.33
507.604	17755.21
507.807	18005.06
508.009	17982.53
508.212	18170.94
508.415	18271.29
508.617	18590.78
508.82	18461.76
509.022	18762.81
509.225	18983.99
509.428	19270.7
509.63	19268.66
509.833	19711.02
510.035	20243.49
510.238	19538.99
510.44	20130.85
510.643	20065.32
510.845	20689.95
511.048	20329.5
511.25	20612.12
511.453	20720.67
511.655	21537.8
511.858	21304.34
512.06	21443.6
512.262	21785.61
512.465	21490.7
512.667	21951.49
512.87	22193.15
513.072	22178.82
513.274	22686.72
513.477	22987.77
513.679	23133.17
513.881	23403.5
514.084	23520.24
514.286	23391.22
514.488	23542.77
514.69	24474.59
514.893	24132.58
515.095	24230.88
515.297	24658.91
515.499	24656.86
515.701	25033.69
515.904	24986.58
516.106	25549.78
516.308	25660.37
516.51	25674.7
516.712	25926.6
516.914	26016.71
517.116	26532.8
517.318	26600.38
517.52	26348.48
517.722	26803.13
517.925	27468.72
518.127	27311.03
518.329	27792.3
518.531	27372.47
518.733	27847.6
518.935	28208.04
519.136	28083.11
519.338	28283.81
519.54	28455.84
519.742	28558.24
519.944	28965.79
520.146	29084.57
520.348	29348.76
520.55	29334.42
520.752	29205.4
520.954	30200.71
521.155	29889.42
521.357	30374.79
521.559	30382.98
521.761	30704.51
521.963	30876.54
522.164	30659.46
522.366	31038.33
522.568	31196.03
522.77	31062.91
522.971	31357.81
523.173	31511.41
523.375	31568.76
523.576	31755.12
523.778	31933.29
523.98	32410.47
524.181	32058.22
524.383	32002.92
524.584	32541.54
524.786	32725.86
524.988	32467.81
525.189	33033.05
525.391	33211.23
525.592	33051.48
525.794	33092.44
525.995	33446.74
526.197	33192.79
526.398	33526.61
526.6	33626.96
526.801	33651.54
527.003	33479.51
527.204	33866.58
527.406	34542.41
527.607	34044.75
527.808	34206.54
528.01	33708.88
528.211	33805.14
528.412	34609.99
528.614	34362.18
528.815	34448.2
529.016	34941.76
529.218	34339.66
529.419	34474.82
529.62	34487.11
529.822	34671.43
530.023	34302.79
530.224	34728.77
530.425	34870.08
530.626	34190.16
530.828	34460.49
531.029	34970.43
531.23	34581.32
531.431	34732.87
531.632	34704.2
531.833	34599.75
532.035	34999.1
532.236	35324.73
532.437	35081.02
532.638	34878.27
532.839	35318.59
533.04	35199.8
533.241	34614.09
533.442	35345.21
533.643	34876.23
533.844	34906.94
534.045	34927.42
534.246	34806.59
534.447	35224.38
534.648	34884.42
534.849	35005.25
535.05	35134.27
535.251	34782.02
535.451	34949.95
535.652	34810.69
535.853	34802.5
536.054	35154.75
536.255	35136.32
536.456	34548.55
536.657	35298.11
536.857	35072.83
537.058	34786.11
537.259	35025.73
537.46	34933.57
537.66	34982.72
537.861	35164.99
538.062	34837.31
538.263	34779.97
538.463	34802.5
538.664	34779.97
538.865	34825.03
539.065	35117.89
539.266	34433.86
539.466	35224.38
539.667	34657.09
539.868	34745.16
540.068	34857.79
540.269	34745.16
540.469	35175.23
540.67	34849.6
540.87	34827.07
541.071	34231.11
541.271	34837.31
541.472	34810.69
541.672	34683.72
541.873	34345.8
542.073	34237.26
542.274	34706.24
542.474	34644.8
542.675	34653
542.875	34706.24
543.075	34523.97
543.276	34528.07
543.476	34663.24
543.676	34538.31
543.877	34456.39
544.077	34429.77
544.277	34757.44
544.478	34204.49
544.678	34562.89
544.878	34255.69
545.078	34933.57
545.279	34368.33
545.479	34126.67
545.679	34599.75
545.879	34206.54
546.079	34579.27
546.28	34665.28
546.48	34126.67
546.68	34440.01
546.88	34564.93
547.08	34474.82
547.28	34394.95
547.48	34034.51
547.68	34530.12
547.88	34147.15
548.081	34718.53
548.281	34444.1
548.481	34560.84
548.681	34452.3
548.881	34138.96
549.081	34274.12
549.28	34210.64
549.48	34378.57
549.68	34304.84
549.88	34765.63
550.08	34300.75
550.28	34347.85
550.48	34044.75
550.68	34308.94
550.88	34306.89
551.08	34245.45
551.279	34323.27
551.479	34302.79
551.679	34069.33
551.879	34030.41
552.079	34700.1
552.278	33913.68
552.478	34413.38
552.678	33942.35
552.878	34007.89
553.077	34376.52
553.277	33829.71
553.477	34556.74
553.676	34114.38
553.876	34147.15
554.076	33901.39
554.275	33966.93
554.475	33821.52
554.674	34106.19
554.874	34194.25
555.074	33811.28
555.273	34011.98
555.473	34290.51
555.672	33663.83
555.872	33989.45
556.071	33856.34
556.271	34431.82
556.47	33659.73
556.67	33598.29
556.869	33872.72
557.068	33788.75
557.268	33411.93
557.467	33811.28
557.667	33868.62
557.866	33762.13
558.065	33596.24
558.265	33586
558.464	33631.06
558.663	33938.26
558.863	33393.5
559.062	34007.89
559.261	33493.85
559.461	34177.87
559.66	33379.16
559.859	33561.43
560.058	33602.39
560.258	33684.31
560.457	33483.61
560.656	33792.85
560.855	33223.51
561.054	33925.97
561.253	32955.23
561.453	33561.43
561.652	33651.54
561.851	33545.05
562.05	33139.55
562.249	33192.79
562.448	33499.99
562.647	33708.88
562.846	33692.5
563.045	33370.97
563.244	33082.2
563.443	33473.37
563.642	32858.98
563.841	32971.61
564.04	33045.34
564.239	33667.92
564.438	32965.47
564.637	32914.27
564.836	32963.42
565.035	33008.48
565.234	33037.15
565.432	33041.25
565.631	33121.12
565.83	32963.42
566.029	33051.48
566.228	32994.14
566.427	32824.16
566.625	32547.68
566.824	32717.67
567.023	32863.07
567.222	32273.26
567.42	33287
567.619	32887.65
567.818	32926.56
568.016	32729.95
568.215	32977.76
568.414	32205.67
568.612	33315.67
568.811	32813.92
569.01	32623.46
569.208	32197.48
569.407	32664.42
569.605	32193.39
569.804	32389.99
570.002	32529.25
570.201	32299.88
570.4	32308.07
570.598	32140.14
570.797	32170.86
570.995	32324.46
571.193	32279.4
571.392	32516.97
571.59	32076.65
571.789	32306.02
571.987	32291.69
572.186	32342.89
572.384	31878
572.582	32037.74
572.781	32449.38
572.979	31785.84
573.177	31970.16
573.376	32146.28
573.574	31624.05
573.772	31800.18
573.971	31791.98
574.169	31404.92
574.367	31370.1
574.565	32050.03
574.763	31529.84
574.962	31576.95
575.16	31425.4
575.358	31718.26
575.556	31157.11
575.754	31751.02
575.952	31222.65
576.151	31357.81
576.349	31357.81
576.547	31193.98
576.745	31308.66
576.943	31273.85
577.141	31218.55
577.339	31079.29
577.537	31144.83
577.735	31093.63
577.933	30528.39
578.131	30960.51
578.329	31030.14
578.527	30610.31
578.725	30598.02
578.923	30532.48
579.121	30700.42
579.319	30600.07
579.516	30716.8
579.714	30239.62
579.912	30622.59
580.11	30397.32
580.308	30464.9
580.506	30352.26
580.704	29971.34
580.901	30157.71
581.099	30346.12
581.297	29891.47
581.495	29772.69
581.692	29830.03
581.89	30020.49
582.088	30108.55
582.285	29815.69
582.483	30213
582.681	30088.07
582.878	29981.58
583.076	29617.04
583.274	29801.36
583.471	29309.85
583.669	29836.17
583.866	29320.09
584.064	29619.09
584.262	29256.6
584.459	29410.2
584.657	29135.77
584.854	29463.44
585.052	29137.82
585.249	29666.19
585.447	28877.72
585.644	29084.57
585.841	29318.04
586.039	29141.91
586.236	28717.98
586.434	28445.6
586.631	28355.49
586.828	28693.41
587.026	28556.19
587.223	28683.17
587.42	28298.15
587.618	28461.99
587.815	28353.44
588.012	28431.27
588.21	28214.18
588.407	28824.48
588.604	27995.05
588.801	27962.28
588.999	27923.37
589.196	28236.71
589.393	27775.92
589.59	27886.51
589.787	28154.79
589.984	27630.51
590.182	27888.56
590.379	27845.55
590.576	27597.74
590.773	27640.75
590.97	27485.11
591.167	27790.25
591.364	27110.33
591.561	27468.72
591.758	27118.52
591.955	27077.56
592.152	27435.95
592.349	27132.86
592.546	26962.87
592.743	27249.59
592.94	26653.63
593.137	26977.21
593.334	27087.8
593.531	26411.97
593.727	26786.75
593.924	26727.36
594.121	26608.58
594.318	26907.58
594.515	26475.46
594.712	26940.35
594.908	26340.29
595.105	26553.28
595.302	26256.32
595.499	26104.77
595.696	26004.42
595.892	25945.03
596.089	26203.08
596.286	26309.57
596.482	25740.24
596.679	26016.71
596.876	25715.66
597.072	25869.26
597.269	26135.49
597.466	25361.36
597.662	25435.09
597.859	25682.89
598.055	25707.47
598.252	25232.34
598.448	25656.27
598.645	25283.54
598.841	25138.13
599.038	25551.82
599.234	25367.51
599.431	25052.12
599.627	24996.82
599.824	25105.37
600.02	24585.18
600.217	24931.29
600.413	24806.36
600.609	24753.12
600.806	24466.4
601.002	24603.61
601.198	24302.56
601.395	24478.69
601.591	24726.49
601.787	24620
601.984	24443.87
602.18	24665.05
602.376	24327.14
602.572	24591.33
602.769	24388.58
602.965	24079.33
603.161	24046.57
603.357	24202.21
603.553	24232.93
603.75	24128.49
603.946	24042.47
604.142	24128.49
604.338	23626.73
604.534	23792.62
604.73	23407.6
604.926	23354.35
605.122	23917.54
605.318	23565.29
605.514	23587.82
605.71	23423.98
605.906	23432.18
606.102	23346.16
606.298	23669.74
606.494	23161.84
606.69	23380.98
606.886	23389.17
607.082	23139.32
607.278	23614.44
607.474	22858.74
607.67	23284.72
607.866	22873.08
608.062	23188.47
608.257	23104.5
608.453	23358.45
608.649	22955
608.845	22918.14
609.041	22848.5
609.236	22580.22
609.432	22721.53
609.628	22744.06
609.824	22643.71
610.019	22764.54
610.215	22506.49
610.411	22889.46
610.606	22434.81
610.802	22389.76
610.998	22191.11
611.193	22350.85
611.389	22428.67
611.584	22191.11
611.78	22287.36
611.976	22187.01
612.171	22418.43
612.367	22299.65
612.562	22072.32
612.758	21957.64
612.953	21957.64
613.149	22486.01
613.344	21617.68
613.539	22146.05
613.735	22109.19
613.93	21898.25
614.126	22025.22
614.321	22094.85
614.517	21804.04
614.712	22139.91
614.907	21611.53
615.103	22021.13
615.298	21365.78
615.493	21941.25
615.688	21490.7
615.884	21822.47
616.079	21558.28
616.274	21752.84
616.47	21615.63
616.665	21634.06
616.86	21343.25
617.055	21513.23
617.25	21421.07
617.445	21416.97
617.641	21206.03
617.836	21525.52
618.031	20933.65
618.226	21376.02
618.421	21120.02
618.616	21353.49
618.811	20691.99
619.006	21101.59
619.201	20585.5
619.396	20741.14
619.591	20720.67
619.786	20812.82
619.981	20462.62
620.176	20603.93
620.371	20266.02
620.566	20505.63
620.761	20302.88
620.956	20337.69
621.151	20061.22
621.346	20061.22
621.541	19555.37
621.735	19713.06
621.93	19565.61
622.125	19860.52
622.32	19631.15
622.515	19579.95
622.709	19239.98
622.904	19264.56
623.099	19133.49
623.294	19043.38
623.488	18703.42
623.683	19156.02
623.878	18504.76
624.072	18916.4
624.267	18558.01
624.462	18582.59
624.656	18132.03
624.851	18394.17
625.046	18275.39
625.24	18023.49
625.435	18089.03
625.629	18089.03
625.824	17896.52
626.018	17994.82
626.213	17624.14
626.407	17845.32
626.602	17538.12
626.796	17628.23
626.991	17468.49
627.185	17362
627.38	17390.67
627.574	17241.17
627.768	17265.74
627.963	16970.83
628.157	16790.61
628.352	17022.03
628.546	16598.1
628.74	16991.31
628.935	16503.9
629.129	16616.54
629.323	16247.9
629.517	16499.8
629.712	16223.33
629.906	16184.41
630.1	16145.5
630.294	16178.27
630.489	15889.51
630.683	15928.42
630.877	15684.71
631.071	15600.74
631.265	15715.43
631.459	15436.91
631.653	15651.94
631.848	15584.36
632.042	15408.23
632.236	15328.36
632.43	15619.18
632.624	15395.95
632.818	15101.04
633.012	14963.82
633.206	15043.7
633.4	14791.8
633.594	14599.29
633.788	14539.9
633.982	14683.25
634.176	14693.49
634.369	14632.05
634.563	14343.29
634.757	14500.98
634.951	14339.19
635.145	14292.09
635.339	14148.73
635.533	14193.79
635.726	14255.23
635.92	13972.61
636.114	13894.79
636.308	13638.79
636.501	13712.52
636.695	13921.41
636.889	13528.2
637.083	13708.42
637.276	13294.73
637.47	13409.42
637.664	13190.28
637.857	13282.44
638.051	13319.31
638.244	12850.32
638.438	12989.58
638.632	13157.52
638.825	12958.86
639.019	12760.21
639.212	12680.34
639.406	12795.03
639.599	12854.42
639.793	12600.47
639.986	12373.14
640.18	12418.2
640.373	12543.13
640.567	12307.61
640.76	12453.02
640.954	12164.25
641.147	12059.81
641.34	12022.94
641.534	12047.52
641.727	11988.13
641.92	11848.86
642.114	11750.56
642.307	11758.75
642.5	11654.31
642.694	11521.19
642.887	11322.54
643.08	11654.31
643.273	11297.96
643.467	11533.48
643.66	11248.81
643.853	11257
644.046	11017.39
644.239	11027.63
644.432	10982.57
644.626	11035.82
644.819	10990.77
645.012	10896.56
645.205	10914.99
645.398	10575.03
645.591	10841.26
645.784	10818.74
645.977	10601.65
646.17	10431.67
646.363	10425.53
646.556	10357.94
646.749	10405.05
646.942	10476.73
647.135	10140.86
647.328	10306.74
647.521	10351.8
647.714	10046.65
647.907	9983.16
648.099	10136.76
648.292	10126.52
648.485	9966.78
648.678	9909.44
648.871	9821.38
649.064	9594.05
649.256	9536.71
649.449	9831.62
649.642	9567.43
649.835	9608.39
650.027	9456.84
650.22	9522.37
650.413	9462.98
650.605	9286.86
650.798	9336.01
650.991	9217.22
651.183	9221.32
651.376	9166.03
651.568	9200.84
651.761	9032.91
651.954	8748.24
652.146	8856.78
652.339	9084.11
652.531	9110.73
652.724	8799.44
652.916	8662.23
653.109	8848.59
653.301	8936.65
653.494	8721.62
653.686	8398.04
653.879	8821.97
654.071	8701.14
654.263	8625.36
654.456	8512.72
654.648	8555.73
654.84	8363.22
655.033	8277.21
655.225	8312.02
655.417	8008.92
655.61	8381.65
655.802	8301.78
655.994	8150.23
656.186	8002.78
656.379	7943.39
656.571	8131.8
656.763	7806.17
656.955	7963.87
657.148	7871.71
657.34	8170.71
657.532	7828.7
657.724	7834.85
657.916	7775.45
658.108	7699.68
658.3	7646.43
658.492	7697.63
658.684	7580.9
658.876	7468.26
659.068	7548.13
659.26	7234.79
659.452	7521.51
659.644	7404.77
659.836	7447.78
660.028	7480.55
660.22	7177.45
660.412	7388.39
660.604	7060.71
660.796	7271.65
660.988	7175.4
661.18	7187.69
661.372	7013.61
661.563	7130.34
661.755	6905.07
661.947	7029.99
662.139	6986.99
662.331	6827.25
662.522	6837.49
662.714	6833.39
662.906	6769.9
663.097	6802.67
663.289	6900.97
663.481	6741.23
663.673	6700.27
663.864	6669.55
664.056	6520.05
664.247	6454.51
664.439	6452.47
664.631	6655.22
664.822	6345.97
665.014	6477.04
665.205	6448.37
665.397	6356.21
665.588	6540.53
665.78	6442.23
665.971	6388.98
666.163	6376.69
666.354	6223.09
666.546	6233.33
666.737	6114.55
666.929	6372.6
667.12	6282.49
667.311	6169.85
667.503	6227.19
667.694	6243.57
667.885	6036.73
668.077	6137.08
668.268	5963
668.459	6042.87
668.651	5911.8
668.842	5838.08
669.033	5979.39
669.224	5979.39
669.416	5979.39
669.607	5793.02
669.798	5942.52
669.989	5985.53
670.18	5895.42
670.371	5711.1
670.563	5762.3
670.754	5737.73
670.945	5674.24
671.136	5754.11
671.327	5571.84
671.518	5682.43
671.709	5676.29
671.9	5848.32
672.091	5584.13
672.282	5508.35
672.473	5680.38
672.664	5612.8
672.855	5569.79
673.046	5459.2
673.237	5586.18
673.428	5498.11
673.619	5504.26
673.809	5399.81
674	5399.81
674.191	5352.71
674.382	5311.75
674.573	5498.11
674.764	5229.83
674.954	5510.4
675.145	5276.93
675.336	5410.05
675.527	5233.93
675.717	5356.8
675.908	5174.53
676.099	5326.08
676.289	5369.09
676.48	5250.31
676.671	5147.91
676.861	5301.51
677.052	5197.06
677.243	5223.69
677.433	5291.27
677.624	5422.34
677.814	5201.16
678.005	5276.93
678.195	5346.56
678.386	5113.1
678.576	5143.81
678.767	5119.24
678.957	5158.15
679.148	5229.83
679.338	5272.84
679.529	5246.21
679.719	5201.16
679.909	5154.05
680.1	5072.14
680.29	5084.42
680.481	5033.22
680.671	5190.92
680.861	5100.81
681.052	5145.86
681.242	5012.74
681.432	5211.4
681.622	5141.77
681.813	4969.74
682.003	5010.7
682.193	4941.07
682.383	5227.78
682.573	5016.84
682.764	5063.94
682.954	5020.94
683.144	4955.4
683.334	5090.57
683.524	4826.38
683.714	5096.71
683.904	5065.99
684.094	4949.26
684.284	4928.78
684.474	5063.94
684.664	5029.13
684.854	4840.72
685.044	4826.38
685.234	4840.72
685.424	4791.56
685.614	4803.85
685.804	4961.55
685.994	4859.15
686.184	4775.18
686.374	4863.24
686.564	4756.75
686.753	4760.84
686.943	4691.21
687.133	4879.63
687.323	4644.11
687.513	4795.66
687.702	4619.53
687.892	4658.45
688.082	4668.69
688.272	4588.82
688.461	4732.17
688.651	4709.65
688.841	4560.14
689.03	4508.94
689.22	4572.43
689.41	4488.46
689.599	4525.33
689.789	4447.51
689.979	4420.88
690.168	4474.13
690.358	4420.88
690.547	4482.32
690.737	4345.11
690.926	4465.94
691.116	4332.82
691.305	4414.74
691.495	4295.96
691.684	4177.17
691.874	4146.45
692.063	4164.89
692.252	4136.21
692.442	4310.29
692.631	4099.35
692.82	4207.89
693.01	4259.09
693.199	4302.1
693.388	4148.5
693.578	3990.81
693.767	4054.3
693.956	4173.08
694.146	4181.27
694.335	4046.1
694.524	3996.95
694.713	4144.41
694.902	4072.73
695.092	4074.78
695.281	4070.68
695.47	4089.11
695.659	3845.4
695.848	3894.55
696.037	4027.67
696.226	4011.29
696.415	4107.54
696.604	4035.86
696.793	4078.87
696.982	3882.27
697.171	4062.49
697.36	3994.9
697.549	3962.14
697.738	3921.18
697.927	4015.38
698.116	4033.82
698.305	4021.53
698.494	4037.91
698.683	4134.17
698.872	4035.86
699.061	3978.52
699.25	4027.67
699.438	4066.58
699.627	4050.2
699.816	4148.5
700.005	4072.73
700.193	4003.1
700.382	4001.05
700.571	4027.67
700.76	3984.66
700.948	4087.06
701.137	4052.25
701.326	4154.65
701.514	4029.72
701.703	4093.21
701.892	3886.36
702.08	4189.46
702.269	4029.72
702.457	3822.88
702.646	3943.71
702.834	4033.82
703.023	4050.2
703.212	4119.83
703.4	4007.19
703.589	4074.78
703.777	3978.52
703.965	4056.34
704.154	4023.58
704.342	4078.87
704.531	4113.69
704.719	3945.75
704.907	4115.73
705.096	3951.9
705.284	4023.58
705.472	4125.97
705.661	4095.25
705.849	4037.91
706.037	4220.18
706.226	4048.15
706.414	4087.06
706.602	4064.54
706.79	4085.02
706.979	4031.77
707.167	4187.41
707.355	4095.25
707.543	4197.65
707.731	4013.34
707.919	3966.23
708.107	3978.52
708.296	4099.35
708.484	4044.06
708.672	4205.85
708.86	4267.28
709.048	4082.97
709.236	4062.49
709.424	4181.27
709.612	4107.54
709.8	4064.54
709.988	4078.87
710.176	4119.83
710.364	4121.88
710.551	4025.62
710.739	4089.11
710.927	4148.5
711.115	4132.12
711.303	4220.18
711.491	4164.89
711.679	4005.14
711.866	4068.63
712.054	4238.61
712.242	4011.29
712.43	4265.24
712.617	4265.24
712.805	4259.09
712.993	4011.29
713.181	4209.94
713.368	4273.43
713.556	4015.38
713.744	4158.74
713.931	4216.09
714.119	4121.88
714.306	4263.19
714.494	4134.17
714.682	4248.85
714.869	4183.32
715.057	4058.39
715.244	4119.83
715.432	4164.89
715.619	4117.78
715.807	4044.06
715.994	4199.7
716.182	4156.69
716.369	4279.57
716.556	4369.68
716.744	3982.62
716.931	4050.2
717.119	4236.56
717.306	4205.85
717.493	4361.49
717.681	4119.83
717.868	4207.89
718.055	4035.86
718.242	4220.18
718.43	4267.28
718.617	4189.46
718.804	4207.89
718.991	4130.07
719.179	4187.41
719.366	4179.22
719.553	4275.48
719.74	4189.46
719.927	4062.49
720.114	4357.39
720.301	4187.41
720.488	3974.42
720.676	4134.17
720.863	4248.85
721.05	4238.61
721.237	4117.78
721.424	4113.69
721.611	4179.22
721.798	3996.95
721.985	4179.22
722.172	4091.16
722.358	4259.09
722.545	4273.43
722.732	4076.82
722.919	4203.8
723.106	4240.66
723.293	4199.7
723.48	4058.39
723.667	4093.21
723.853	4011.29
724.04	4199.7
724.227	3970.33
724.414	3976.47
724.6	4089.11
724.787	4138.26
724.974	4111.64
725.161	4218.13
725.347	4078.87
725.534	4214.04
725.72	4209.94
725.907	4054.3
726.094	4277.52
726.28	4089.11
726.467	4195.61
726.653	4189.46
726.84	4209.94
727.027	4203.8
727.213	4068.63
727.4	4222.23
727.586	4242.71
727.773	4138.26
727.959	4111.64
728.145	4107.54
728.332	4097.3
728.518	4060.44
728.705	4060.44
728.891	4152.6
729.077	4121.88
729.264	4154.65
729.45	4111.64
729.636	4236.56
729.823	4105.49
730.009	4115.73
730.195	3964.18
730.382	4082.97
730.568	4017.43
730.754	3964.18
730.94	4013.34
731.126	4085.02
731.313	4119.83
731.499	4117.78
731.685	4076.82
731.871	4066.58
732.057	3972.38
732.243	3968.28
732.429	4048.15
732.615	3923.23
732.801	4078.87
732.987	3984.66
733.173	4025.62
733.359	3855.64
733.545	3880.22
733.731	4033.82
733.917	3937.56
734.103	3843.35
734.289	3892.51
734.475	3835.16
734.661	4056.34
734.847	3898.65
735.033	3933.47
735.219	3874.07
735.404	3802.4
735.59	3888.41
735.776	3888.41
735.962	3949.85
736.148	4037.91
736.333	4011.29
736.519	3872.03
736.705	3826.97
736.89	3851.55
737.076	3831.07
737.262	3626.27
737.447	3794.2
737.633	3802.4
737.819	3919.13
738.004	3796.25
738.19	3728.67
738.375	3738.91
738.561	3771.68
738.747	3687.71
738.932	3646.75
739.118	3822.88
739.303	3765.53
739.489	3804.44
739.674	3730.72
739.859	3546.4
740.045	3777.82
740.23	3757.34
740.416	3544.35
740.601	3636.51
740.786	3583.26
740.972	3513.63
741.157	3550.5
741.342	3491.1
741.528	3587.36
741.713	3652.89
741.898	3726.62
742.084	3577.12
742.269	3609.89
742.454	3419.43
742.639	3530.02
742.824	3331.36
743.01	3513.63
743.195	3591.45
743.38	3456.29
743.565	3554.59
743.75	3376.42
743.935	3339.55
744.12	3472.67
744.305	3349.79
744.49	3407.14
744.675	3286.31
744.86	3454.24
745.045	3302.69
745.23	3390.75
745.415	3226.92
745.6	3323.17
745.785	3214.63
745.97	3243.3
746.155	3202.34
746.34	3306.79
746.525	3183.91
746.71	3288.36
746.895	3028.26
747.079	3134.76
747.264	3112.23
747.449	3079.46
747.634	3130.66
747.819	3032.36
748.003	3097.89
748.188	3034.41
748.373	2880.81
748.557	2899.24
748.742	2960.68
748.927	2929.96
749.111	2917.67
749.296	2893.1
749.481	2936.1
749.665	2950.44
749.85	2782.51
750.034	2753.84
750.219	2913.58
750.404	2788.65
750.588	2704.68
750.773	2692.4
750.957	2788.65
751.141	2659.63
751.326	2682.16
751.51	2665.77
751.695	2622.77
751.879	2614.57
752.064	2696.49
752.248	2508.08
752.432	2633.01
752.617	2471.22
752.801	2596.14
752.985	2514.22
753.17	2659.63
753.354	2602.29
753.538	2444.59
753.722	2397.49
753.907	2479.41
754.091	2413.87
754.275	2417.97
754.459	2364.72
754.643	2405.68
754.828	2401.58
755.012	2487.6
755.196	2215.22
755.38	2458.93
755.564	2161.97
755.748	2280.75
755.932	2338.1
756.116	2305.33
756.3	2219.32
756.484	2184.5
756.668	2266.42
756.852	2131.25
757.036	2231.6
757.22	2164.02
757.404	2094.39
757.588	2116.92
757.772	2106.68
757.956	2086.2
758.14	2133.3
758.323	1953.08
758.507	2026.81
758.691	2073.91
758.875	2047.29
759.059	2108.73
759.242	1969.46
759.426	1973.56
759.61	1959.22
759.794	1953.08
759.977	1926.46
760.161	2108.73
760.345	1944.89
760.528	1899.83
760.712	1858.87
760.895	1867.06
761.079	1928.5
761.263	1817.91
761.446	1948.98
761.63	1887.54
761.813	1899.83
761.997	1824.06
762.18	1807.67
762.364	1850.68
762.547	1791.29
762.731	1727.8
762.914	1832.25
763.098	1776.95
763.281	1822.01
763.464	1660.22
763.648	1699.13
763.831	1658.17
764.015	1723.71
764.198	1729.85
764.381	1725.75
764.564	1678.65
764.748	1625.4
764.931	1725.75
765.114	1662.27
765.297	1744.19
765.481	1725.75
765.664	1613.12
765.847	1656.12
766.03	1690.94
766.213	1572.16
766.397	1633.6
766.58	1449.28
766.763	1606.97
766.946	1516.86
767.129	1561.92
767.312	1555.77
767.495	1584.45
767.678	1510.72
767.861	1580.35
768.044	1631.55
768.227	1568.06
768.41	1633.6
768.593	1568.06
768.776	1592.64
768.959	1647.93
769.142	1619.26
769.324	1422.66
769.507	1545.53
769.69	1447.23
769.873	1512.77
770.056	1576.25
770.239	1520.96
770.421	1469.76
770.604	1453.38
770.787	1484.09
770.97	1518.91
771.152	1402.18
771.335	1477.95
771.518	1363.26
771.7	1465.66
771.883	1465.66
772.066	1451.33
772.248	1537.34
772.431	1400.13
772.613	1426.75
772.796	1285.44
772.978	1465.66
773.161	1324.35
773.343	1387.84
773.526	1195.33
773.708	1301.83
773.891	1299.78
774.073	1330.5
774.256	1336.64
774.438	1355.07
774.621	1297.73
774.803	1221.95
774.985	1271.11
775.168	1281.35
775.35	1242.43
775.532	1267.01
775.715	1160.52
775.897	1279.3
776.079	1170.76
776.261	1248.58
776.444	1174.85
776.626	1285.44
776.808	1166.66
776.99	1070.4
777.173	1234.24
777.355	1105.22
777.537	1148.23
777.719	1166.66
777.901	1084.74
778.083	1015.11
778.265	1113.41
778.447	1189.19
778.629	1158.47
778.811	1082.69
778.993	1047.88
779.175	1119.56
779.357	1041.73
779.539	1060.17
779.721	1002.82
779.903	1008.97
780.085	1058.12
780.267	1135.94
780.449	982.34
780.631	1015.11
780.812	990.53
780.994	992.58
781.176	916.81
781.358	972.1
781.54	1031.49
781.721	986.44
781.903	908.62
782.085	996.68
782.267	1019.21
782.448	920.9
782.63	920.9
782.812	914.76
782.993	908.62
783.175	877.9
783.357	941.38
783.538	849.22
783.72	920.9
783.901	828.74
784.083	892.23
784.264	832.84
784.446	742.73
784.627	709.96
784.809	896.33
784.99	732.49
785.172	875.85
785.353	814.41
785.535	752.97
785.716	769.35
785.897	808.27
786.079	832.84
786.26	750.92
786.441	898.38
786.623	705.87
786.804	816.46
786.985	750.92
787.167	763.21
787.348	714.06
787.529	679.24
787.71	836.94
787.891	765.26
788.073	742.73
788.254	644.43
788.435	763.21
788.616	707.91
788.797	703.82
788.978	673.1
789.159	681.29
789.34	695.63
789.522	544.08
789.703	734.54
789.884	654.67
790.065	611.66
790.246	804.17
790.427	623.95
790.607	646.48
790.788	582.99
790.969	599.37
791.15	642.38
791.331	517.45
791.512	574.8
791.693	601.42
791.874	587.08
792.054	699.72
792.235	521.55
792.416	550.22
792.597	621.9
792.778	712.01
792.958	687.43
793.139	599.37
793.32	550.22
793.5	490.83
793.681	564.56
793.862	628.04
794.042	585.04
794.223	427.34
794.404	550.22
794.584	523.6
794.765	472.4
794.945	531.79
795.126	492.88
795.306	544.08
795.487	535.89
795.667	564.56
795.848	480.59
796.028	449.87
796.209	562.51
796.389	523.6
796.57	492.88
796.75	453.97
796.93	494.93
797.111	470.35
797.291	437.58
797.471	484.69
797.652	492.88
797.832	396.62
798.012	460.11
798.192	443.73
798.373	441.68
798.553	513.36
798.733	503.12
798.913	419.15
799.093	423.25
799.274	499.02
799.454	496.97
799.634	496.97
799.814	517.45
799.994	433.49
800.174	462.16
800.354	521.55
800.534	382.29
800.714	458.06
800.894	425.29
801.074	355.66
801.254	353.62
801.434	429.39
801.614	408.91
801.794	433.49
801.974	1428.8
802.154	312.66
802.334	441.68
802.514	421.2
802.693	447.82
802.873	351.57
803.053	453.97
803.233	384.34
803.413	470.35
803.592	386.38
803.772	380.24
803.952	380.24
804.131	290.13
804.311	361.81
804.491	386.38
804.67	326.99
804.85	404.82
805.03	382.29
805.209	451.92
805.389	322.9
805.568	304.46
805.748	324.94
805.928	392.53
806.107	398.67
806.287	370
806.466	314.7
806.646	363.86
806.825	316.75
807.004	345.42
807.184	370
807.363	394.58
807.543	312.66
807.722	286.03
807.901	359.76
808.081	376.14
808.26	277.84
808.439	267.6
808.619	329.04
808.798	333.14
808.977	361.81
809.156	363.86
809.336	310.61
809.515	275.79
809.694	267.6
809.873	331.09
810.052	326.99
810.231	296.27
810.411	238.93
810.59	374.1
810.769	288.08
810.948	398.67
811.127	206.16
811.306	249.17
811.485	238.93
811.664	333.14
811.843	261.46
812.022	314.7
812.201	296.27
812.38	197.97
812.559	279.89
812.737	304.46
812.916	271.7
813.095	271.7
813.274	347.47
813.453	265.55
813.632	374.1
813.811	314.7
813.989	163.15
814.168	304.46
814.347	218.45
814.526	234.83
814.704	283.99
814.883	294.22
815.062	251.22
815.24	314.7
815.419	216.4
815.598	290.13
815.776	187.73
815.955	251.22
816.133	212.31
816.312	310.61
816.49	200.02
816.669	300.37
816.847	257.36
817.026	329.04
817.204	228.69
817.383	294.22
817.561	257.36
817.74	165.2
817.918	187.73
818.097	189.78
818.275	243.03
818.453	230.74
818.632	277.84
818.81	216.4
818.988	177.49
819.167	189.78
819.345	204.11
819.523	193.87
819.701	210.26
819.879	228.69
820.058	214.35
820.236	202.07
820.414	224.59
820.592	214.35
820.77	177.49
820.948	118.1
821.127	200.02
821.305	191.83
821.483	116.05
821.661	251.22
821.839	165.2
822.017	165.2
822.195	120.15
822.373	277.84
822.551	163.15
822.729	316.75
822.907	159.06
823.085	218.45
823.262	208.21
823.44	189.78
823.618	111.96
823.796	183.63
823.974	93.52
824.152	134.48
824.329	228.69
824.507	159.06
824.685	122.2
824.863	200.02
825.04	171.35
825.218	263.51
825.396	167.25
825.574	230.74
825.751	212.31
825.929	130.39
826.107	120.15
826.284	159.06
826.462	228.69
826.639	163.15
826.817	81.24
826.994	105.81
827.172	128.34
827.349	279.89
827.527	218.45
827.704	234.83
827.882	163.15
828.059	185.68
828.237	204.11
828.414	165.2
828.591	19.8
828.769	126.29
828.946	140.63
829.124	208.21
829.301	189.78
829.478	148.82
829.655	177.49
829.833	134.48
830.01	116.05
830.187	128.34
830.364	171.35
830.542	130.39
830.719	154.96
830.896	197.97
831.073	243.03
831.25	120.15
831.427	159.06
831.604	130.39
831.782	99.67
831.959	99.67
832.136	95.57
832.313	128.34
832.49	111.96
832.667	185.68
832.844	109.91
833.021	179.54
833.198	179.54
833.374	89.43
833.551	118.1
833.728	150.87
833.905	159.06
834.082	105.81
834.259	148.82
834.436	189.78
834.612	109.91
834.789	163.15
834.966	116.05
835.143	163.15
835.319	30.04
835.496	71
835.673	103.76
835.85	118.1
836.026	93.52
836.203	202.07
836.38	103.76
836.556	114
836.733	138.58
836.909	183.63
837.086	91.48
837.262	128.34
837.439	122.2
837.616	97.62
837.792	148.82
837.968	105.81
838.145	-4.78
838.321	136.53
838.498	167.25
838.674	81.24
838.851	150.87
839.027	62.8
839.203	124.24
839.38	107.86
839.556	103.76
839.732	212.31
839.909	66.9
840.085	107.86
840.261	105.81
840.437	148.82
840.614	111.96
840.79	144.72
840.966	44.37
841.142	75.09
841.318	109.91
841.494	32.08
841.671	169.3
841.847	64.85
842.023	-23.21
842.199	169.3
842.375	191.83
842.551	-27.31
842.727	52.56
842.903	109.91
843.079	68.95
843.255	181.59
843.431	52.56
843.607	73.04
843.783	27.99
843.959	109.91
844.134	83.28
844.31	165.2
844.486	73.04
844.662	13.65
844.838	56.66
845.013	105.81
845.189	191.83
845.365	48.47
845.541	25.94
845.716	101.72
845.892	120.15
846.068	50.52
846.244	-10.92
846.419	97.62
846.595	66.9
846.77	77.14
846.946	42.32
847.122	58.71
847.297	83.28
847.473	159.06
847.648	-8.87
847.824	44.37
847.999	-53.93
848.175	95.57
848.35	159.06
848.526	56.66
848.701	42.32
848.876	101.72
849.052	163.15
849.227	89.43
849.403	23.89
849.578	9.56
849.753	62.8
849.929	66.9
850.104	30.04
850.279	114
850.454	83.28
850.63	120.15
850.805	126.29
850.98	75.09
851.155	23.89
851.33	73.04
851.505	9.56
851.681	195.92
851.856	21.85
852.031	87.38
852.206	130.39
852.381	-0.68
852.556	46.42
852.731	148.82
852.906	118.1
853.081	148.82
853.256	111.96
853.431	40.28
853.606	46.42
853.781	58.71
853.956	38.23
854.131	87.38
854.305	32.08
854.48	54.61
854.655	30.04
854.83	66.9
855.005	38.23
855.18	58.71
855.354	36.18
855.529	46.42
855.704	21.85
855.879	105.81
856.053	34.13
856.228	114
856.403	11.61
856.577	154.96
856.752	-37.55
856.926	25.94
857.101	101.72
857.276	-27.31
857.45	99.67
857.625	62.8
857.799	87.38
857.974	-27.31
858.148	48.47
858.323	21.85
858.497	38.23
858.672	81.24
858.846	19.8
859.02	68.95
859.195	58.71
859.369	1.37
859.543	89.43
859.718	-31.4
859.892	75.09
860.066	68.95
860.241	-43.69
860.415	85.33
860.589	17.75
860.763	83.28
860.938	3.41
861.112	68.95
861.286	36.18
861.46	48.47
861.634	30.04
861.808	85.33
861.982	3.41
862.157	7.51
862.331	71
862.505	38.23
862.679	-6.83
862.853	21.85
863.027	62.8
863.201	159.06
863.375	-55.98
863.549	11.61
863.722	73.04
863.896	128.34
864.07	42.32
864.244	68.95
864.418	89.43
864.592	93.52
864.766	66.9
864.939	75.09
865.113	-19.11
865.287	87.38
865.461	-45.74
865.634	-0.68
865.808	56.66
865.982	1.37
866.156	52.56
866.329	-0.68
866.503	52.56
866.676	89.43
866.85	30.04
867.024	21.85
867.197	89.43
867.371	54.61
867.544	126.29
867.718	-4.78
867.891	95.57
868.065	13.65
868.238	23.89
868.412	54.61
868.585	64.85
868.759	-19.11
868.932	-10.92
869.105	-12.97
869.279	89.43
869.452	17.75
869.625	83.28
869.799	36.18
869.972	-6.83
870.145	-21.16
870.319	122.2
870.492	21.85
870.665	42.32
870.838	-2.73
871.011	-53.93
871.185	25.94
871.358	25.94
871.531	27.99
871.704	17.75
871.877	50.52
872.05	42.32
872.223	1.37
872.396	132.44
872.569	21.85
872.742	-15.02
872.915	52.56
873.088	46.42
873.261	-4.78
873.434	36.18
873.607	58.71
873.78	23.89
873.953	-8.87
874.126	-15.02
874.299	3.41
874.471	-21.16
874.644	25.94
874.817	95.57
874.99	116.05
875.163	116.05
875.335	95.57
875.508	73.04
875.681	36.18
875.853	-19.11
876.026	11.61
876.199	118.1
876.371	42.32
876.544	60.76
876.717	77.14
876.889	30.04
877.062	68.95
877.234	-60.07
877.407	-4.78
877.579	25.94
877.752	11.61
877.924	1.37
878.097	27.99
878.269	-29.35
878.442	50.52
878.614	23.89
878.786	19.8
878.959	1.37
879.131	58.71
879.303	-19.11
879.476	21.85
879.648	111.96
879.82	17.75
879.993	-4.78
880.165	30.04
880.337	36.18
880.509	56.66
880.681	-43.69
880.854	-66.22
881.026	122.2
881.198	138.58
881.37	-2.73
881.542	-21.16
881.714	75.09
881.886	122.2
882.058	-31.4
882.23	19.8
882.402	-53.93
882.574	116.05
882.746	25.94
882.918	71
883.09	66.9
883.262	44.37
883.434	85.33
883.606	13.65
883.778	-31.4
883.95	103.76
884.122	32.08
884.293	-10.92
884.465	50.52
884.637	44.37
884.809	34.13
884.98	32.08
885.152	124.24
885.324	32.08
885.496	-15.02
885.667	44.37
885.839	79.19
886.011	89.43
886.182	52.56
886.354	60.76
886.525	79.19
886.697	50.52
886.869	-21.16
887.04	-37.55
887.212	93.52
887.383	85.33
887.555	-55.98
887.726	79.19
887.897	36.18
888.069	68.95
888.24	34.13
888.412	-27.31
888.583	-15.02
888.754	62.8
888.926	-17.07
889.097	-43.69
889.268	-2.73
889.44	75.09
889.611	-33.45
889.782	-29.35
889.953	-90.79
890.125	77.14
890.296	-27.31
890.467	-10.92
890.638	-25.26
890.809	40.28
890.98	-35.5
891.151	89.43
891.323	114
891.494	-23.21
891.665	-72.36
891.836	-23.21
892.007	17.75
892.178	15.7
892.349	1.37
892.52	30.04
892.691	-53.93
892.862	-49.83
893.032	-33.45
893.203	13.65
893.374	58.71
893.545	83.28
893.716	-78.51
893.887	109.91
894.057	11.61
894.228	-4.78
894.399	-17.07
894.57	68.95
894.74	21.85
894.911	13.65
895.082	19.8
895.253	-45.74
895.423	50.52
895.594	71
895.764	32.08
895.935	-6.83
896.106	64.85
896.276	1.37
896.447	17.75
896.617	64.85
896.788	-80.55
896.958	15.7
897.129	27.99
897.299	-103.08
897.47	44.37
897.64	97.62
897.81	3.41
897.981	52.56
898.151	15.7
898.322	21.85
898.492	89.43
898.662	-21.16
898.832	15.7
899.003	21.85
899.173	68.95
899.343	-21.16
899.513	-29.35
