Data from USB4F104151__64__12-12-27-854.txt Node

Date: Fri Mar 14 12:12:27 EDT 2025
User: louis
Spectrometer: USB4F10415
Trigger mode: 4
Integration Time (sec): 5.000000E-2
Scans to average: 1
Electric dark correction enabled: true
Nonlinearity correction enabled: false
Boxcar width: 0
XAxis mode: Wavelengths
Number of Pixels in Spectrum: 3648
>>>>>Begin Spectral Data<<<<<
178.204	-215.89
178.424	-215.89
178.644	-215.89
178.864	-224.08
179.084	-248.66
179.304	19.63
179.524	-99.16
179.744	5.29
179.964	62.63
180.184	40.11
180.404	9.39
180.624	-41.81
180.844	-58.2
181.064	27.82
181.283	31.91
181.503	-13.14
181.723	15.53
181.943	-93.01
182.163	132.26
182.383	-29.52
182.602	48.3
182.822	85.16
183.042	17.58
183.262	56.49
183.482	19.63
183.701	-33.62
183.921	29.87
184.141	-33.62
184.361	103.59
184.58	83.11
184.8	23.72
185.02	52.39
185.239	109.74
185.459	40.11
185.679	33.96
185.898	-64.34
186.118	52.39
186.338	27.82
186.557	58.54
186.777	-56.15
186.997	-23.38
187.216	25.77
187.436	140.46
187.655	50.35
187.875	56.49
188.095	70.83
188.314	-15.19
188.534	99.5
188.753	93.35
188.973	79.02
189.192	58.54
189.412	72.87
189.631	-0.85
189.851	21.67
190.07	101.55
190.29	-7
190.509	13.48
190.729	19.63
190.948	50.35
191.168	246.95
191.387	101.55
191.607	52.39
191.826	109.74
192.045	27.82
192.265	23.72
192.484	11.43
192.704	27.82
192.923	-13.14
193.142	126.12
193.362	31.91
193.581	91.31
193.8	115.88
194.02	23.72
194.239	79.02
194.458	70.83
194.678	11.43
194.897	25.77
195.116	74.92
195.335	40.11
195.555	23.72
195.774	31.91
195.993	-0.85
196.212	31.91
196.432	25.77
196.651	21.67
196.87	-0.85
197.089	205.99
197.308	76.97
197.528	-17.24
197.747	-19.29
197.966	9.39
198.185	97.45
198.404	11.43
198.623	99.5
198.842	58.54
199.062	58.54
199.281	15.53
199.5	23.72
199.719	68.78
199.938	3.24
200.157	85.16
200.376	-11.09
200.595	48.3
200.814	68.78
201.033	7.34
201.252	115.88
201.471	9.39
201.69	21.67
201.909	79.02
202.128	138.41
202.347	62.63
202.566	5.29
202.785	-37.72
203.004	-33.62
203.223	158.89
203.442	-21.33
203.661	46.25
203.879	107.69
204.098	64.68
204.317	-4.95
204.536	130.22
204.755	46.25
204.974	64.68
205.193	117.93
205.411	201.9
205.63	56.49
205.849	72.87
206.068	58.54
206.287	27.82
206.505	109.74
206.724	27.82
206.943	-45.91
207.162	-7
207.381	29.87
207.599	25.77
207.818	117.93
208.037	11.43
208.255	3.24
208.474	11.43
208.693	48.3
208.911	40.11
209.13	-13.14
209.349	64.68
209.567	-19.29
209.786	50.35
210.005	70.83
210.223	36.01
210.442	-2.9
210.661	29.87
210.879	40.11
211.098	-62.29
211.316	109.74
211.535	115.88
211.753	50.35
211.972	-19.29
212.191	52.39
212.409	109.74
212.628	64.68
212.846	48.3
213.065	122.02
213.283	33.96
213.502	38.06
213.72	115.88
213.938	68.78
214.157	31.91
214.375	44.2
214.594	-66.39
214.812	83.11
215.031	-9.05
215.249	66.73
215.467	107.69
215.686	83.11
215.904	126.12
216.122	58.54
216.341	17.58
216.559	83.11
216.778	87.21
216.996	85.16
217.214	44.2
217.432	68.78
217.651	-31.57
217.869	68.78
218.087	31.91
218.306	23.72
218.524	66.73
218.742	76.97
218.96	93.35
219.179	40.11
219.397	33.96
219.615	154.79
219.833	68.78
220.051	-9.05
220.27	113.83
220.488	103.59
220.706	29.87
220.924	66.73
221.142	62.63
221.36	33.96
221.578	36.01
221.796	68.78
222.015	38.06
222.233	72.87
222.451	107.69
222.669	46.25
222.887	23.72
223.105	25.77
223.323	-39.76
223.541	-23.38
223.759	56.49
223.977	-9.05
224.195	68.78
224.413	50.35
224.631	76.97
224.849	91.31
225.067	83.11
225.285	68.78
225.503	91.31
225.721	-66.39
225.939	27.82
226.157	36.01
226.375	101.55
226.592	-62.29
226.81	83.11
227.028	66.73
227.246	74.92
227.464	66.73
227.682	-9.05
227.9	29.87
228.117	19.63
228.335	83.11
228.553	13.48
228.771	-11.09
228.989	44.2
229.206	38.06
229.424	19.63
229.642	40.11
229.86	48.3
230.077	97.45
230.295	13.48
230.513	72.87
230.731	54.44
230.948	103.59
231.166	101.55
231.384	40.11
231.601	21.67
231.819	87.21
232.037	-2.9
232.254	-56.15
232.472	33.96
232.689	40.11
232.907	103.59
233.125	-58.2
233.342	62.63
233.56	40.11
233.777	85.16
233.995	7.34
234.213	46.25
234.43	19.63
234.648	-15.19
234.865	-109.4
235.083	44.2
235.3	58.54
235.518	97.45
235.735	38.06
235.953	85.16
236.17	31.91
236.388	29.87
236.605	62.63
236.822	95.4
237.04	76.97
237.257	5.29
237.475	9.39
237.692	64.68
237.909	1.19
238.127	1.19
238.344	62.63
238.562	40.11
238.779	-19.29
238.996	-70.48
239.214	46.25
239.431	87.21
239.648	-27.48
239.865	117.93
240.083	136.36
240.3	19.63
240.517	-25.43
240.735	89.26
240.952	46.25
241.169	46.25
241.386	109.74
241.603	54.44
241.821	-17.24
242.038	17.58
242.255	85.16
242.472	11.43
242.689	50.35
242.907	64.68
243.124	31.91
243.341	-15.19
243.558	44.2
243.775	-4.95
243.992	15.53
244.209	83.11
244.426	140.46
244.643	-2.9
244.86	13.48
245.078	40.11
245.295	-15.19
245.512	38.06
245.729	7.34
245.946	119.98
246.163	113.83
246.38	25.77
246.597	-4.95
246.814	33.96
247.031	-64.34
247.248	-9.05
247.464	40.11
247.681	21.67
247.898	13.48
248.115	42.15
248.332	-52.05
248.549	115.88
248.766	74.92
248.983	79.02
249.2	76.97
249.417	99.5
249.633	85.16
249.85	81.07
250.067	21.67
250.284	89.26
250.501	72.87
250.717	91.31
250.934	-15.19
251.151	48.3
251.368	-0.85
251.585	58.54
251.801	25.77
252.018	38.06
252.235	79.02
252.451	1.19
252.668	1.19
252.885	58.54
253.102	11.43
253.318	21.67
253.535	7.34
253.752	19.63
253.968	46.25
254.185	7.34
254.401	-0.85
254.618	79.02
254.835	72.87
255.051	50.35
255.268	66.73
255.484	25.77
255.701	21.67
255.917	48.3
256.134	1.19
256.351	46.25
256.567	1.19
256.784	29.87
257	-11.09
257.217	38.06
257.433	85.16
257.65	111.78
257.866	122.02
258.082	3.24
258.299	-2.9
258.515	27.82
258.732	17.58
258.948	31.91
259.165	23.72
259.381	3.24
259.597	25.77
259.814	-11.09
260.03	60.59
260.246	-7
260.463	52.39
260.679	85.16
260.895	15.53
261.112	115.88
261.328	-4.95
261.544	-31.57
261.761	132.26
261.977	62.63
262.193	31.91
262.409	25.77
262.626	79.02
262.842	52.39
263.058	-64.34
263.274	134.31
263.49	21.67
263.707	72.87
263.923	-29.52
264.139	27.82
264.355	70.83
264.571	136.36
264.787	70.83
265.004	132.26
265.22	13.48
265.436	-62.29
265.652	62.63
265.868	66.73
266.084	-66.39
266.3	113.83
266.516	-2.9
266.732	-62.29
266.948	79.02
267.164	46.25
267.38	85.16
267.596	23.72
267.812	79.02
268.028	-43.86
268.244	44.2
268.46	36.01
268.676	3.24
268.892	119.98
269.108	-7
269.324	48.3
269.54	-27.48
269.756	81.07
269.972	21.67
270.188	81.07
270.403	3.24
270.619	74.92
270.835	60.59
271.051	62.63
271.267	68.78
271.483	19.63
271.698	-2.9
271.914	119.98
272.13	58.54
272.346	13.48
272.562	70.83
272.777	99.5
272.993	3.24
273.209	15.53
273.425	66.73
273.64	-107.35
273.856	56.49
274.072	-23.38
274.287	-4.95
274.503	95.4
274.719	42.15
274.934	93.35
275.15	38.06
275.366	7.34
275.581	40.11
275.797	48.3
276.012	-2.9
276.228	15.53
276.444	17.58
276.659	54.44
276.875	-31.57
277.09	-13.14
277.306	-35.67
277.521	124.07
277.737	56.49
277.952	68.78
278.168	83.11
278.383	3.24
278.599	48.3
278.814	25.77
279.03	-0.85
279.245	46.25
279.461	25.77
279.676	48.3
279.892	3.24
280.107	1.19
280.322	-23.38
280.538	81.07
280.753	27.82
280.969	58.54
281.184	31.91
281.399	48.3
281.615	13.48
281.83	-0.85
282.045	-0.85
282.26	7.34
282.476	15.53
282.691	83.11
282.906	111.78
283.122	25.77
283.337	15.53
283.552	50.35
283.767	-70.48
283.983	103.59
284.198	27.82
284.413	33.96
284.628	-13.14
284.843	11.43
285.058	25.77
285.274	56.49
285.489	21.67
285.704	5.29
285.919	-25.43
286.134	-4.95
286.349	54.44
286.564	40.11
286.779	152.74
286.995	9.39
287.21	-58.2
287.425	107.69
287.64	-27.48
287.855	93.35
288.07	76.97
288.285	13.48
288.5	48.3
288.715	85.16
288.93	-29.52
289.145	-15.19
289.36	74.92
289.575	48.3
289.79	85.16
290.004	36.01
290.219	126.12
290.434	42.15
290.649	-19.29
290.864	21.67
291.079	-21.33
291.294	5.29
291.509	68.78
291.724	3.24
291.938	19.63
292.153	-0.85
292.368	60.59
292.583	74.92
292.798	156.84
293.012	62.63
293.227	56.49
293.442	44.2
293.657	113.83
293.871	58.54
294.086	62.63
294.301	119.98
294.516	113.83
294.73	-9.05
294.945	36.01
295.16	68.78
295.374	162.98
295.589	7.34
295.804	-68.44
296.018	15.53
296.233	46.25
296.447	109.74
296.662	23.72
296.877	42.15
297.091	158.89
297.306	5.29
297.52	33.96
297.735	58.54
297.949	33.96
298.164	58.54
298.378	56.49
298.593	15.53
298.807	-13.14
299.022	31.91
299.236	111.78
299.451	-25.43
299.665	-23.38
299.88	52.39
300.094	40.11
300.309	-0.85
300.523	111.78
300.737	68.78
300.952	85.16
301.166	19.63
301.381	66.73
301.595	-39.76
301.809	44.2
302.024	-11.09
302.238	66.73
302.452	85.16
302.667	62.63
302.881	93.35
303.095	136.36
303.309	54.44
303.524	52.39
303.738	132.26
303.952	36.01
304.166	72.87
304.381	-62.29
304.595	46.25
304.809	38.06
305.023	-17.24
305.237	5.29
305.452	3.24
305.666	89.26
305.88	83.11
306.094	130.22
306.308	58.54
306.522	54.44
306.736	60.59
306.95	97.45
307.164	81.07
307.379	54.44
307.593	89.26
307.807	152.74
308.021	113.83
308.235	83.11
308.449	-50
308.663	-37.72
308.877	148.65
309.091	107.69
309.305	91.31
309.519	-2.9
309.733	56.49
309.947	17.58
310.161	64.68
310.374	74.92
310.588	42.15
310.802	-50
311.016	5.29
311.23	66.73
311.444	-13.14
311.658	-4.95
311.872	140.46
312.085	111.78
312.299	95.4
312.513	56.49
312.727	83.11
312.941	21.67
313.154	72.87
313.368	81.07
313.582	19.63
313.796	-2.9
314.009	-0.85
314.223	31.91
314.437	81.07
314.651	66.73
314.864	-23.38
315.078	52.39
315.292	-45.91
315.505	48.3
315.719	87.21
315.933	85.16
316.146	17.58
316.36	-9.05
316.573	58.54
316.787	58.54
317.001	97.45
317.214	38.06
317.428	46.25
317.641	-33.62
317.855	38.06
318.068	54.44
318.282	11.43
318.495	117.93
318.709	62.63
318.922	-11.09
319.136	81.07
319.349	177.32
319.563	3.24
319.776	76.97
319.99	23.72
320.203	29.87
320.417	33.96
320.63	27.82
320.843	154.79
321.057	52.39
321.27	46.25
321.483	113.83
321.697	-9.05
321.91	72.87
322.124	17.58
322.337	1.19
322.55	31.91
322.763	29.87
322.977	91.31
323.19	-2.9
323.403	74.92
323.617	58.54
323.83	83.11
324.043	-0.85
324.256	105.64
324.469	15.53
324.683	91.31
324.896	-27.48
325.109	5.29
325.322	13.48
325.535	70.83
325.748	7.34
325.962	-13.14
326.175	23.72
326.388	132.26
326.601	40.11
326.814	46.25
327.027	79.02
327.24	97.45
327.453	17.58
327.666	103.59
327.879	107.69
328.092	52.39
328.305	44.2
328.518	-13.14
328.731	-27.48
328.944	11.43
329.157	5.29
329.37	5.29
329.583	91.31
329.796	56.49
330.009	-13.14
330.222	132.26
330.435	126.12
330.648	36.01
330.861	-11.09
331.073	23.72
331.286	136.36
331.499	85.16
331.712	33.96
331.925	113.83
332.138	60.59
332.35	195.75
332.563	3.24
332.776	181.42
332.989	72.87
333.202	-64.34
333.414	52.39
333.627	19.63
333.84	15.53
334.053	107.69
334.265	-41.81
334.478	60.59
334.691	72.87
334.903	5.29
335.116	46.25
335.329	5.29
335.541	74.92
335.754	105.64
335.966	27.82
336.179	44.2
336.392	44.2
336.604	89.26
336.817	109.74
337.029	-25.43
337.242	15.53
337.454	64.68
337.667	-27.48
337.88	21.67
338.092	36.01
338.305	52.39
338.517	21.67
338.729	42.15
338.942	58.54
339.154	29.87
339.367	36.01
339.579	52.39
339.792	-41.81
340.004	68.78
340.217	42.15
340.429	27.82
340.641	23.72
340.854	-4.95
341.066	64.68
341.278	85.16
341.491	50.35
341.703	54.44
341.915	21.67
342.128	115.88
342.34	25.77
342.552	29.87
342.764	-4.95
342.977	25.77
343.189	40.11
343.401	54.44
343.613	33.96
343.826	36.01
344.038	11.43
344.25	11.43
344.462	25.77
344.674	-2.9
344.886	19.63
345.099	99.5
345.311	74.92
345.523	9.39
345.735	9.39
345.947	54.44
346.159	68.78
346.371	17.58
346.583	101.55
346.795	109.74
347.007	85.16
347.219	81.07
347.431	-47.96
347.643	64.68
347.855	21.67
348.067	109.74
348.279	15.53
348.491	79.02
348.703	134.31
348.915	25.77
349.127	-0.85
349.339	-11.09
349.551	21.67
349.763	70.83
349.975	19.63
350.187	36.01
350.399	152.74
350.61	58.54
350.822	7.34
351.034	13.48
351.246	19.63
351.458	-15.19
351.669	66.73
351.881	89.26
352.093	85.16
352.305	36.01
352.517	89.26
352.728	148.65
352.94	25.77
353.152	25.77
353.363	40.11
353.575	42.15
353.787	203.94
353.999	68.78
354.21	132.26
354.422	9.39
354.633	72.87
354.845	52.39
355.057	74.92
355.268	66.73
355.48	-0.85
355.692	-31.57
355.903	136.36
356.115	-35.67
356.326	-17.24
356.538	101.55
356.749	83.11
356.961	74.92
357.172	46.25
357.384	79.02
357.595	128.17
357.807	48.3
358.018	54.44
358.23	46.25
358.441	124.07
358.653	74.92
358.864	21.67
359.075	17.58
359.287	68.78
359.498	95.4
359.709	95.4
359.921	36.01
360.132	62.63
360.344	142.5
360.555	-54.1
360.766	52.39
360.977	23.72
361.189	31.91
361.4	13.48
361.611	99.5
361.823	42.15
362.034	-17.24
362.245	-2.9
362.456	17.58
362.667	109.74
362.879	42.15
363.09	-13.14
363.301	85.16
363.512	23.72
363.723	76.97
363.935	89.26
364.146	48.3
364.357	-2.9
364.568	7.34
364.779	-72.53
364.99	54.44
365.201	-41.81
365.412	115.88
365.623	-31.57
365.834	54.44
366.045	62.63
366.256	5.29
366.467	54.44
366.678	19.63
366.889	68.78
367.1	15.53
367.311	89.26
367.522	1.19
367.733	95.4
367.944	109.74
368.155	5.29
368.366	72.87
368.577	29.87
368.788	93.35
368.999	-27.48
369.209	107.69
369.42	173.22
369.631	173.22
369.842	95.4
370.053	29.87
370.264	27.82
370.474	70.83
370.685	48.3
370.896	48.3
371.107	91.31
371.317	117.93
371.528	33.96
371.739	195.75
371.95	99.5
372.16	152.74
372.371	-25.43
372.582	7.34
372.792	62.63
373.003	126.12
373.214	76.97
373.424	97.45
373.635	-4.95
373.846	142.5
374.056	50.35
374.267	83.11
374.477	62.63
374.688	-15.19
374.898	85.16
375.109	91.31
375.319	40.11
375.53	62.63
375.74	122.02
375.951	29.87
376.161	93.35
376.372	113.83
376.582	36.01
376.793	9.39
377.003	27.82
377.214	62.63
377.424	111.78
377.635	17.58
377.845	19.63
378.055	122.02
378.266	44.2
378.476	79.02
378.686	-7
378.897	52.39
379.107	87.21
379.317	58.54
379.528	124.07
379.738	85.16
379.948	29.87
380.158	68.78
380.369	105.64
380.579	103.59
380.789	107.69
380.999	25.77
381.21	66.73
381.42	197.8
381.63	40.11
381.84	203.94
382.05	44.2
382.261	68.78
382.471	95.4
382.681	25.77
382.891	152.74
383.101	33.96
383.311	-45.91
383.521	-25.43
383.731	165.03
383.941	62.63
384.151	72.87
384.361	27.82
384.571	91.31
384.781	89.26
384.991	148.65
385.201	146.6
385.411	81.07
385.621	97.45
385.831	42.15
386.041	97.45
386.251	25.77
386.461	83.11
386.671	11.43
386.881	27.82
387.091	136.36
387.301	89.26
387.511	-4.95
387.72	48.3
387.93	83.11
388.14	-23.38
388.35	105.64
388.56	150.7
388.769	46.25
388.979	29.87
389.189	54.44
389.399	58.54
389.609	95.4
389.818	160.94
390.028	-21.33
390.238	-17.24
390.447	46.25
390.657	72.87
390.867	38.06
391.076	-35.67
391.286	109.74
391.496	36.01
391.705	36.01
391.915	150.7
392.125	134.31
392.334	76.97
392.544	105.64
392.753	76.97
392.963	76.97
393.172	105.64
393.382	-21.33
393.591	117.93
393.801	62.63
394.01	79.02
394.22	99.5
394.429	83.11
394.639	36.01
394.848	-4.95
395.058	99.5
395.267	152.74
395.477	107.69
395.686	101.55
395.895	195.75
396.105	76.97
396.314	70.83
396.524	119.98
396.733	103.59
396.942	64.68
397.152	130.22
397.361	152.74
397.57	62.63
397.78	185.51
397.989	111.78
398.198	220.33
398.407	185.51
398.617	101.55
398.826	64.68
399.035	97.45
399.244	122.02
399.453	109.74
399.663	50.35
399.872	195.75
400.081	103.59
400.29	93.35
400.499	44.2
400.708	181.42
400.917	179.37
401.127	179.37
401.336	115.88
401.545	142.5
401.754	146.6
401.963	162.98
402.172	87.21
402.381	95.4
402.59	101.55
402.799	113.83
403.008	259.24
403.217	199.85
403.426	130.22
403.635	85.16
403.844	105.64
404.053	117.93
404.262	173.22
404.471	253.09
404.68	138.41
404.888	158.89
405.097	150.7
405.306	199.85
405.515	183.46
405.724	175.27
405.933	220.33
406.142	197.8
406.35	246.95
406.559	136.36
406.768	242.85
406.977	308.39
407.185	234.66
407.394	326.82
407.603	253.09
407.812	244.9
408.02	236.71
408.229	277.67
408.438	238.76
408.646	171.18
408.855	255.14
409.064	382.12
409.272	335.01
409.481	335.01
409.69	304.29
409.898	236.71
410.107	343.21
410.315	425.12
410.524	380.07
410.733	392.36
410.941	337.06
411.15	447.65
411.358	556.19
411.567	466.08
411.775	412.84
411.984	478.37
412.192	509.09
412.401	402.6
412.609	578.72
412.818	627.87
413.026	478.37
413.234	560.29
413.443	591.01
413.651	541.86
413.86	576.67
414.068	631.97
414.276	662.69
414.485	674.98
414.693	720.03
414.901	836.77
415.11	726.18
415.318	670.88
415.526	849.05
415.734	781.47
415.943	832.67
416.151	914.59
416.359	908.44
416.567	1039.51
416.776	1023.13
416.984	1082.52
417.192	1105.05
417.4	941.21
417.608	1088.67
417.817	1205.4
418.025	1197.21
418.233	1301.65
418.441	1240.22
418.649	1342.61
418.857	1328.28
419.065	1420.44
419.273	1389.72
419.481	1406.1
419.689	1518.74
419.897	1608.85
420.105	1588.37
420.313	1498.26
420.521	1799.31
420.729	1754.26
420.937	1717.39
421.145	1936.53
421.353	1983.63
421.561	1997.96
421.769	2075.79
421.977	2198.67
422.185	2204.81
422.393	2344.07
422.601	2538.63
422.809	2366.6
423.017	2493.57
423.224	2524.29
423.432	2696.32
423.64	2657.41
423.848	2884.73
424.056	2892.93
424.263	3054.72
424.471	3161.21
424.679	3218.55
424.887	3257.46
425.094	3409.01
425.302	3335.29
425.51	3482.74
425.718	3591.28
425.925	3757.17
426.133	3847.28
426.341	4076.65
426.548	4152.43
426.756	4101.23
426.964	4177
427.171	4422.76
427.379	4484.2
427.586	4635.75
427.794	4807.78
428.001	4967.52
428.209	5102.68
428.417	5092.44
428.624	5389.4
428.832	5469.27
429.039	5532.76
429.247	5327.96
429.454	5942.35
429.662	6173.77
429.869	5952.59
430.076	6317.13
430.284	6196.3
430.491	6444.1
430.699	6911.04
430.906	6831.17
431.114	6722.63
431.321	7033.92
431.528	7226.43
431.736	7613.49
431.943	7988.27
432.15	7666.74
432.358	7965.75
432.565	8418.35
432.772	8256.56
432.979	8686.63
433.187	8553.51
433.394	8805.41
433.601	9327.64
433.808	9511.96
434.016	9354.27
434.223	9757.72
434.43	10144.78
434.637	10095.63
434.844	10941.44
435.052	10730.5
435.259	10765.32
435.466	11076.61
435.673	10685.45
435.88	11498.49
436.087	11963.38
436.294	12157.94
436.501	11736.06
436.708	12133.36
436.915	12379.12
437.122	12858.34
437.329	12983.27
437.537	13269.98
437.743	13509.6
437.95	13460.45
438.157	13966.29
438.364	14744.52
438.571	14386.13
438.778	14869.45
438.985	16104.37
439.192	15659.96
439.399	15696.83
439.606	15406.02
439.813	16374.7
440.02	17361.83
440.227	17148.84
440.433	16788.39
440.64	17429.41
440.847	17234.85
441.054	17382.31
441.261	18965.39
441.467	18477.97
441.674	18871.18
441.881	19555.2
442.088	19567.49
442.294	19608.45
442.501	20032.38
442.708	20302.71
442.914	20992.87
443.121	21615.46
443.328	21220.2
443.534	22645.59
443.741	22059.87
443.948	21703.52
444.154	23507.78
444.361	23108.43
444.568	23186.25
444.774	23614.27
444.981	23679.81
445.187	24306.49
445.394	25090.86
445.6	24851.25
445.807	27198.22
446.013	26022.69
446.22	26702.61
446.426	27683.59
446.633	27697.92
446.839	28662.52
447.046	27339.53
447.252	28732.15
447.459	29315.82
447.665	28750.58
447.871	30141.15
448.078	31589.06
448.284	29967.07
448.491	30823.12
448.697	31828.68
448.903	32799.41
449.11	32527.03
449.316	31738.57
449.522	32733.88
449.728	33385.13
449.935	33575.59
450.141	33399.47
450.347	34677.4
450.553	33268.4
450.76	33563.31
450.966	34917.01
451.172	34202.27
451.378	34917.01
451.584	34497.18
451.791	35465.87
451.997	35216.02
452.203	35803.78
452.409	35725.96
452.615	35312.27
452.821	34196.13
453.027	33784.49
453.233	35838.6
453.44	33921.7
453.646	34448.03
453.852	34794.14
454.058	35232.4
454.264	34400.93
454.47	34425.5
454.676	33993.38
454.882	35234.45
455.088	31447.75
455.294	32393.92
455.5	32656.06
455.705	33082.03
455.911	31716.04
456.117	31165.14
456.323	30776.02
456.529	29170.41
456.735	30458.59
456.941	29668.07
457.147	29235.95
457.352	28144.38
457.558	27955.97
457.764	28203.77
457.97	27591.43
458.176	26870.54
458.381	26651.41
458.587	25266.99
458.793	25561.89
458.999	24101.69
459.204	25602.85
459.41	24832.82
459.616	23464.77
459.821	23247.69
460.027	23137.1
460.233	22549.33
460.438	21719.9
460.644	21660.51
460.85	20722.54
461.055	20472.69
461.261	20237.17
461.466	19022.73
461.672	18195.35
461.878	19579.78
462.083	18264.98
462.289	17826.71
462.494	17965.98
462.7	16837.55
462.905	16456.62
463.111	17132.45
463.316	16941.99
463.522	16858.03
463.727	16559.02
463.932	16556.97
464.138	16419.76
464.343	16552.88
464.549	15952.82
464.754	16210.87
464.959	16237.49
465.165	16210.87
465.37	15494.08
465.575	15033.29
465.781	15459.26
465.986	15793.08
466.191	14982.09
466.397	14707.66
466.602	13982.68
466.807	14740.43
467.012	14650.32
467.218	14578.64
467.423	14210
467.628	14414.8
467.833	14760.91
468.038	14365.65
468.244	14207.95
468.449	14543.82
468.654	13954.01
468.859	13847.51
469.064	13704.15
469.269	13302.75
469.474	13501.4
469.679	13540.32
469.885	13153.25
470.09	13568.99
470.295	13323.23
470.5	13106.15
470.705	13102.05
470.91	12694.5
471.115	12671.98
471.32	12565.48
471.525	12782.57
471.73	12569.58
471.935	12430.32
472.139	11836.41
472.344	12241.9
472.549	11938.8
472.754	12026.87
472.959	11680.76
473.164	11404.28
473.369	11285.5
473.574	11617.27
473.778	11359.23
473.983	11432.96
474.188	11385.85
474.393	10843.14
474.598	10765.32
474.802	10722.31
475.007	10701.83
475.212	10773.51
475.417	10177.55
475.621	10241.04
475.826	10355.72
476.031	10069.01
476.235	10044.43
476.44	9997.33
476.645	9745.43
476.849	9790.49
477.054	9778.2
477.259	9706.52
477.463	9665.56
477.668	9372.7
477.872	9233.44
478.077	9155.61
478.282	8875.04
478.486	8922.15
478.691	8844.32
478.895	8973.35
479.1	8784.93
479.304	8836.13
479.509	8457.26
479.713	8584.23
479.918	8561.7
480.122	8219.69
480.326	8289.32
480.531	8293.42
480.735	8217.65
480.94	8180.78
481.144	8496.17
481.348	8018.99
481.553	8152.11
481.757	8070.19
481.961	8096.82
482.166	8090.67
482.37	8326.19
482.574	7910.45
482.778	8100.91
482.983	8246.32
483.187	8248.36
483.391	8068.14
483.595	7957.55
483.8	7857.2
484.004	7789.62
484.208	8023.09
484.412	7988.27
484.616	8072.24
484.821	8082.48
485.025	7851.06
485.229	7969.84
485.433	7988.27
485.637	7857.2
485.841	7869.49
486.045	7914.55
486.249	8150.06
486.453	7930.93
486.657	7869.49
486.861	7994.42
487.065	7593.01
487.269	7994.42
487.473	7713.84
487.677	7951.41
487.881	8141.87
488.085	7881.78
488.289	8033.33
488.493	7932.98
488.697	8195.12
488.901	7986.22
489.105	8041.52
489.309	8051.76
489.512	7892.02
489.716	7955.51
489.92	7990.32
490.124	7955.51
490.328	8297.52
490.531	7975.98
490.735	8186.93
490.939	8143.92
491.143	8039.47
491.346	7935.03
491.55	8217.65
491.754	8258.6
491.958	8098.86
492.161	8213.55
492.365	8191.02
492.569	8268.84
492.772	8268.84
492.976	8375.34
493.18	8266.8
493.383	8526.89
493.587	8459.31
493.79	8617
493.994	8619.05
494.197	8672.29
494.401	8684.58
494.605	8586.28
494.808	8786.98
495.012	8934.43
495.215	8889.38
495.419	8862.76
495.622	8739.88
495.825	8997.92
496.029	9051.17
496.232	9448.47
496.436	9176.09
496.639	9346.08
496.843	9284.64
497.046	9587.74
497.249	9640.98
497.453	9753.62
497.656	9710.61
497.859	9815.06
498.063	9905.17
498.266	10081.3
498.469	10085.39
498.673	10333.2
498.876	10333.2
499.079	10267.66
499.282	10456.08
499.485	10857.48
499.689	10703.88
499.892	10988.55
500.095	10685.45
500.298	11125.76
500.501	10902.53
500.705	11181.06
500.908	11295.74
501.111	11480.06
501.314	11512.83
501.517	11842.55
501.72	11959.28
501.923	11985.91
502.126	11891.7
502.329	12157.94
502.532	12579.82
502.735	12370.93
502.938	12614.63
503.141	12633.07
503.344	12905.45
503.547	12981.22
503.75	13073.38
503.953	13202.4
504.156	13413.34
504.359	13366.24
504.562	13517.79
504.765	13671.39
504.968	13945.81
505.17	13978.58
505.373	14169.04
505.576	14177.23
505.779	14435.28
505.982	14494.67
506.185	14889.93
506.387	14883.78
506.59	15154.12
506.793	15342.53
506.996	15320
507.198	15641.53
507.401	15516.61
507.604	15920.06
507.807	16378.8
508.009	16016.31
508.212	16276.4
508.415	16262.07
508.617	16534.45
508.82	16561.07
509.022	16503.73
509.225	17150.88
509.428	16956.33
509.63	17005.48
509.833	17431.46
510.035	17802.14
510.238	17765.28
510.44	17802.14
510.643	18201.49
510.845	18123.67
511.048	18387.86
511.25	18201.49
511.453	18600.85
511.655	19170.18
511.858	18928.52
512.06	19168.13
512.262	19200.9
512.465	19399.55
512.667	19407.75
512.87	19647.36
513.072	19766.14
513.274	20300.66
513.477	20392.82
513.679	20515.7
513.881	20974.44
514.084	20773.74
514.286	20507.51
514.488	21025.64
514.69	21498.72
514.893	21652.32
515.095	21644.13
515.297	21674.85
515.499	21959.52
515.701	21879.64
515.904	22457.17
516.106	22782.8
516.308	22885.2
516.51	22985.55
516.712	22917.96
516.914	23171.91
517.116	23116.62
517.318	23505.73
517.52	23257.93
517.722	23917.37
517.925	23960.38
518.127	23976.76
518.329	24279.86
518.531	24320.82
518.733	24836.91
518.935	24587.06
519.136	24853.3
519.338	25242.41
519.54	25176.87
519.742	25674.53
519.944	25568.04
520.146	25643.81
520.348	26049.31
520.55	26051.36
520.752	26137.37
520.954	26567.45
521.155	26120.99
521.357	26450.71
521.559	26950.42
521.761	27087.63
521.963	27001.61
522.164	27067.15
522.366	27247.37
522.568	27622.15
522.77	27521.8
522.971	27896.58
523.173	27458.31
523.375	28076.8
523.576	27855.62
523.778	28150.53
523.98	28238.59
524.181	28353.27
524.383	28300.03
524.584	28529.4
524.786	28760.82
524.988	28588.79
525.189	28730.1
525.391	29137.65
525.592	29139.69
525.794	29172.46
525.995	29149.93
526.197	29285.1
526.398	29524.71
526.6	29649.64
526.801	29661.93
527.003	29537
527.204	29324.01
527.406	29889.25
527.607	29651.69
527.808	29881.06
528.01	29420.27
528.211	29752.04
528.412	30044.9
528.614	30053.09
528.815	30227.17
529.016	30423.77
529.218	29942.5
529.419	30233.31
529.62	30517.98
529.822	30051.04
530.023	30206.69
530.224	30034.66
530.425	30264.03
530.626	30102.24
530.828	29747.94
531.029	30839.51
531.23	30268.12
531.431	29942.5
531.632	30300.89
531.833	30468.83
532.035	29965.03
532.236	30448.35
532.437	30644.95
532.638	30132.96
532.839	30472.92
533.04	30477.02
533.241	30407.39
533.442	30862.04
533.643	30454.49
533.844	30411.48
534.045	30491.35
534.246	30427.87
534.447	30649.05
534.648	30382.81
534.849	30784.21
535.05	30368.48
535.251	30278.36
535.451	30114.53
535.652	30595.8
535.853	30223.07
536.054	30677.72
536.255	30507.74
536.456	30096.1
536.657	30677.72
536.857	30513.88
537.058	30221.02
537.259	30507.74
537.46	30524.12
537.66	30399.19
537.861	30194.4
538.062	30438.11
538.263	30452.44
538.463	30114.53
538.664	30503.64
538.865	30364.38
539.065	30417.63
539.266	30104.29
539.466	30368.48
539.667	30022.37
539.868	30288.6
540.068	30030.56
540.269	30145.25
540.469	30276.32
540.67	30087.9
540.87	30161.63
541.071	30067.42
541.271	30364.38
541.472	30171.87
541.672	29944.55
541.873	29903.59
542.073	29580.01
542.274	30304.99
542.474	29842.15
542.675	29989.6
542.875	30290.65
543.075	29881.06
543.276	29637.35
543.476	30141.15
543.676	29948.64
543.877	30225.12
544.077	29838.05
544.277	29778.66
544.478	29606.63
544.678	29917.92
544.878	29833.96
545.078	29891.3
545.279	29637.35
545.479	29901.54
545.679	30096.1
545.879	29770.47
546.079	29829.86
546.28	29549.29
546.48	29823.72
546.68	30065.38
546.88	29905.63
547.08	29692.65
547.28	29919.97
547.48	29493.99
547.68	29993.7
547.88	29407.98
548.081	30184.16
548.281	29817.57
548.481	29573.86
548.681	29960.93
548.881	29369.07
549.081	29553.38
549.28	29360.87
549.48	29756.13
549.68	29631.21
549.88	29655.78
550.08	29520.62
550.28	30122.72
550.48	29565.67
550.68	29868.77
550.88	29555.43
551.08	29383.4
551.279	29766.37
551.479	29078.25
551.679	29512.42
551.879	29379.31
552.079	29397.74
552.278	29166.32
552.478	29430.51
552.678	29330.16
552.878	29403.88
553.077	29291.24
553.277	29336.3
553.477	29629.16
553.676	29201.13
553.876	29229.8
554.076	29410.03
554.275	29543.14
554.475	29100.78
554.674	29489.9
554.874	29307.63
555.074	29371.11
555.273	29565.67
555.473	29717.22
555.672	29170.41
555.872	29131.5
556.071	29442.79
556.271	29338.35
556.47	29166.32
556.67	28732.15
556.869	29256.43
557.068	29215.47
557.268	28850.93
557.467	29031.15
557.667	29147.89
557.866	29317.87
558.065	28895.99
558.265	29043.44
558.464	28769.01
558.663	29215.47
558.863	29074.16
559.062	29283.05
559.261	28701.43
559.461	29375.21
559.66	28832.5
559.859	28822.26
560.058	28947.18
560.258	28607.22
560.457	28879.6
560.656	28982
560.855	28715.76
561.054	29004.53
561.253	28414.71
561.453	29111.02
561.652	28666.61
561.851	28752.63
562.05	28906.23
562.249	28422.9
562.448	28764.92
562.647	28967.66
562.846	28570.36
563.045	28646.13
563.244	28246.78
563.443	29211.37
563.642	28201.72
563.841	28736.24
564.04	28297.98
564.239	28748.53
564.438	28209.92
564.637	28400.38
564.836	28453.62
565.035	28377.85
565.234	28414.71
565.432	28435.19
565.631	28560.12
565.83	28609.27
566.029	28195.58
566.228	28662.52
566.427	28470.01
566.625	28064.51
566.824	28306.17
567.023	28367.61
567.222	27775.75
567.42	28291.83
567.619	28359.42
567.818	28029.69
568.016	28508.92
568.215	28383.99
568.414	28130.05
568.612	28392.19
568.811	28146.43
569.01	28232.44
569.208	27941.63
569.407	28193.53
569.605	28019.46
569.804	28203.77
570.002	27777.79
570.201	28345.08
570.4	27994.88
570.598	27716.36
570.797	27679.49
570.995	27968.26
571.193	27736.84
571.392	27591.43
571.59	27396.87
571.789	27919.1
571.987	27529.99
572.186	28138.24
572.384	27675.4
572.582	27704.07
572.781	27781.89
572.979	27429.64
573.177	27650.82
573.376	27601.67
573.574	27341.58
573.772	27835.14
573.971	27353.87
574.169	27448.07
574.367	27652.87
574.565	27366.15
574.763	27263.75
574.962	27376.39
575.16	27065.1
575.358	26989.33
575.556	26942.22
575.754	27474.7
575.952	26983.18
576.151	27325.19
576.349	26934.03
576.547	26675.99
576.745	27122.44
576.943	27087.63
577.141	26893.07
577.339	26831.63
577.537	27142.92
577.735	26899.22
577.933	26684.18
578.131	26848.02
578.329	26837.78
578.527	26606.36
578.725	26690.32
578.923	26790.67
579.121	26714.9
579.319	26516.25
579.516	26710.8
579.714	26639.12
579.912	26274.59
580.11	26729.23
580.308	26651.41
580.506	26536.73
580.704	26309.4
580.901	26223.39
581.099	26751.76
581.297	26293.02
581.495	26145.56
581.692	26458.9
581.89	26077.98
582.088	26252.06
582.285	26366.74
582.483	26002.21
582.681	26686.23
582.878	25994.01
583.076	25963.29
583.274	26065.69
583.471	25897.76
583.669	25979.68
583.866	25889.57
584.064	26254.11
584.262	25475.88
584.459	25762.59
584.657	25590.56
584.854	26004.25
585.052	25221.93
585.249	26112.8
585.447	25899.81
585.644	25400.1
585.841	25578.28
586.039	25864.99
586.236	25367.34
586.434	25369.38
586.631	25305.9
586.828	25512.74
587.026	25709.35
587.223	25508.65
587.42	25287.46
587.618	25711.39
587.815	25322.28
588.012	25377.58
588.21	25000.75
588.407	25285.42
588.604	25385.77
588.801	25058.09
588.999	25168.68
589.196	25062.19
589.393	25119.53
589.59	24945.45
589.787	24884.01
589.984	24943.41
590.182	25058.09
590.379	25248.55
590.576	24824.62
590.773	24982.32
590.97	24679.22
591.167	24978.22
591.364	24478.52
591.561	25158.44
591.758	24736.56
591.955	24814.38
592.152	25019.18
592.349	24679.22
592.546	24832.82
592.743	24752.94
592.94	24546.1
593.137	24906.54
593.334	24703.79
593.531	24470.33
593.727	24654.64
593.924	24738.61
594.121	24449.85
594.318	24644.4
594.515	24494.9
594.712	24841.01
594.908	24656.69
595.105	24884.01
595.302	24576.82
595.499	24625.97
595.696	24533.81
595.892	24531.76
596.089	24806.19
596.286	24609.59
596.482	24226.62
596.679	24576.82
596.876	24650.55
597.072	24470.33
597.269	24597.3
597.466	24542
597.662	24202.04
597.859	24574.77
598.055	24519.48
598.252	24447.8
598.448	24255.29
598.645	24304.44
598.841	24499
599.038	24515.38
599.234	24693.55
599.431	24156.99
599.627	24290.1
599.824	24644.4
600.02	24484.66
600.217	24331.06
600.413	24341.3
600.609	24392.5
600.806	24525.62
601.002	24374.07
601.198	24075.07
601.395	24240.95
601.591	24419.13
601.787	24187.71
601.984	24240.95
602.18	24664.88
602.376	24404.79
602.572	24730.42
602.769	24525.62
602.965	24343.35
603.161	24433.46
603.357	24449.85
603.553	24783.66
603.75	24482.61
603.946	24290.1
604.142	24648.5
604.338	23966.52
604.534	24593.2
604.73	24515.38
604.926	24621.87
605.122	24707.89
605.318	24605.49
605.514	24339.26
605.71	24410.93
605.906	24486.71
606.102	24810.29
606.298	24589.11
606.494	24834.86
606.69	24947.5
606.886	24724.27
607.082	24636.21
607.278	25051.95
607.474	24738.61
607.67	24847.15
607.866	24443.7
608.062	25340.71
608.257	24865.58
608.453	25154.35
608.649	24941.36
608.845	24879.92
609.041	25082.67
609.236	25144.11
609.432	25189.16
609.628	25197.35
609.824	25453.35
610.019	25258.79
610.215	25240.36
610.411	25602.85
610.606	25361.19
610.802	25486.12
610.998	25729.83
611.193	25625.38
611.389	25359.14
611.584	25525.03
611.78	25350.95
611.976	25379.62
612.171	25768.74
612.367	25742.11
612.562	25449.25
612.758	25617.19
612.953	25441.06
613.149	25944.86
613.344	25961.25
613.539	26219.29
613.735	26049.31
613.93	26026.78
614.126	26006.3
614.321	26143.52
614.517	26288.92
614.712	26114.84
614.907	26280.73
615.103	26389.27
615.298	26155.8
615.493	26536.73
615.688	26049.31
615.884	27003.66
616.079	26102.56
616.274	26864.4
616.47	26448.66
616.665	26786.58
616.86	26463
617.055	26718.99
617.25	26413.85
617.445	26815.25
617.641	26221.34
617.836	26821.39
618.031	26559.25
618.226	26786.58
618.421	26835.73
618.616	26921.74
618.811	26266.39
619.006	26962.7
619.201	26348.31
619.396	26616.6
619.591	26348.31
619.786	26635.03
619.981	26286.87
620.176	26852.11
620.371	26577.69
620.566	26673.94
620.761	26614.55
620.956	26577.69
621.151	26082.08
621.346	26120.99
621.541	26088.22
621.735	26172.19
621.93	26022.69
622.125	26325.78
622.32	25893.66
622.515	26104.6
622.709	25649.96
622.904	25647.91
623.099	25809.7
623.294	25824.03
623.488	25672.48
623.683	25967.39
623.878	25410.34
624.072	25674.53
624.267	25479.97
624.462	25344.81
624.656	25148.2
624.851	25365.29
625.046	24941.36
625.24	25129.77
625.435	25215.79
625.629	25023.28
625.824	24992.56
626.018	24705.84
626.213	24578.87
626.407	24918.83
626.602	24531.76
626.796	24503.09
626.991	24681.27
627.185	24490.8
627.38	24081.21
627.574	24183.61
627.768	24077.12
627.963	24431.41
628.157	24040.25
628.352	24109.88
628.546	23898.94
628.74	24177.47
628.935	23716.67
629.129	23634.75
629.323	23419.72
629.517	23522.12
629.712	23524.16
629.906	23518.02
630.1	22985.55
630.294	23407.43
630.489	23243.59
630.683	23358.28
630.877	22653.78
631.071	22825.81
631.265	23036.75
631.459	22696.78
631.653	22901.58
631.848	22498.13
632.042	22537.04
632.236	22639.44
632.43	22354.77
632.624	22164.31
632.818	22248.28
633.012	22104.92
633.206	21928.8
633.4	22051.67
633.594	21803.87
633.788	21885.79
633.982	22014.81
634.176	21719.9
634.369	21535.59
634.563	21656.42
634.757	21238.63
634.951	21480.29
635.145	21277.54
635.339	21394.28
635.533	20900.72
635.726	20923.24
635.92	20691.82
636.114	20693.87
636.308	20489.07
636.501	20730.73
636.695	20867.95
636.889	20392.82
637.083	20509.55
637.276	20018.04
637.47	20226.93
637.664	19977.08
637.857	20282.23
638.051	19919.74
638.244	19645.31
638.438	19747.71
638.632	19938.17
638.825	19428.23
639.019	19547.01
639.212	19493.76
639.406	19434.37
639.599	19028.87
639.793	18989.96
639.986	19121.03
640.18	19231.62
640.373	18819.98
640.567	18594.7
640.76	18592.65
640.954	18496.4
641.147	18402.19
641.34	18418.58
641.534	18301.84
641.727	18193.3
641.92	18158.49
642.114	18035.61
642.307	18142.1
642.5	17994.65
642.694	17640.35
642.887	17365.92
643.08	17693.6
643.273	17445.79
643.467	17621.92
643.66	17333.15
643.853	17308.58
644.046	17142.69
644.239	16858.03
644.432	16980.9
644.626	16735.15
644.819	16499.63
645.012	16585.65
645.205	16786.35
645.398	16540.59
645.591	16587.69
645.784	16606.13
645.977	16266.16
646.17	16292.79
646.363	16186.29
646.556	15793.08
646.749	15840.18
646.942	15809.47
647.135	15690.68
647.328	15897.53
647.521	15698.88
647.714	15406.02
647.907	15502.27
648.099	15459.26
648.292	15532.99
648.485	15338.43
648.678	15092.68
648.871	14996.42
649.064	15027.14
649.256	14924.74
649.449	14797.77
649.642	14885.83
649.835	14728.14
650.027	14527.44
650.22	14273.49
650.413	14273.49
650.605	14341.07
650.798	14199.76
650.991	13966.29
651.183	14126.04
651.376	13802.46
651.568	13747.16
651.761	13824.98
651.954	13687.77
652.146	13603.8
652.339	13777.88
652.531	13546.46
652.724	13181.92
652.916	13239.26
653.109	12917.73
653.301	13163.49
653.494	13276.13
653.686	12956.64
653.879	13241.31
654.071	12923.88
654.263	12899.3
654.456	12854.25
654.648	12719.08
654.84	12434.41
655.033	12508.14
655.225	12549.1
655.417	12252.14
655.61	12338.16
655.802	12323.82
655.994	12096.5
656.186	12256.24
656.379	11840.5
656.571	11994.1
656.763	11799.54
656.955	11803.64
657.148	11652.09
657.34	11777.01
657.532	11609.08
657.724	11619.32
657.916	11613.18
658.108	11484.16
658.3	11373.57
658.492	11342.85
658.684	11209.73
658.876	11254.78
659.068	11142.14
659.26	11101.19
659.452	11029.51
659.644	10875.91
659.836	10779.65
660.028	10730.5
660.22	10517.51
660.412	10431.5
660.604	10427.4
660.796	10329.1
660.988	10683.4
661.18	10421.26
661.372	10351.63
661.563	10069.01
661.755	10058.77
661.947	10028.05
662.139	9899.03
662.331	9952.27
662.522	9620.5
662.714	9806.87
662.906	9774.1
663.097	9653.27
663.289	9649.18
663.481	9468.95
663.673	9593.88
663.864	9477.15
664.056	9370.65
664.247	9268.25
664.439	9108.51
664.631	9247.77
664.822	9088.03
665.014	9131.04
665.205	9079.84
665.397	8809.51
665.588	9036.83
665.78	8875.04
665.971	8889.38
666.163	8741.93
666.354	8598.57
666.546	8602.66
666.737	8662.05
666.929	8617
667.12	8614.95
667.311	8457.26
667.503	8379.43
667.694	8422.44
667.885	8569.9
668.077	8381.48
668.268	8244.27
668.459	8158.25
668.651	8096.82
668.842	8088.62
669.033	7836.72
669.224	7945.27
669.416	7842.87
669.607	8078.38
669.798	7695.41
669.989	7932.98
670.18	7904.31
670.371	7717.94
670.563	7822.39
670.754	7703.61
670.945	7629.88
671.136	7697.46
671.327	7685.17
671.518	7709.75
671.709	7607.35
671.9	7636.02
672.091	7511.1
672.282	7638.07
672.473	7195.71
672.664	7492.66
672.855	7263.29
673.046	7322.68
673.237	7406.65
673.428	7435.32
673.619	7255.1
673.809	7187.52
674	7066.69
674.191	7162.94
674.382	6978.62
674.573	7066.69
674.764	6958.14
674.954	7156.8
675.145	6935.62
675.336	6943.81
675.527	6908.99
675.717	6958.14
675.908	6736.96
676.099	6884.42
676.289	6874.18
676.48	6800.45
676.671	6759.49
676.861	6736.96
677.052	6751.3
677.243	6741.06
677.433	6630.47
677.624	6956.1
677.814	6593.61
678.005	6622.28
678.195	6591.56
678.386	6591.56
678.576	6579.27
678.767	6689.86
678.957	6411.34
679.148	6626.37
679.338	6550.6
679.529	6454.34
679.719	6413.38
679.909	6528.07
680.1	6536.26
680.29	6464.58
680.481	6356.04
680.671	6374.47
680.861	6499.4
681.052	6386.76
681.242	6323.27
681.432	6325.32
681.622	6222.92
681.813	6265.93
682.003	6313.03
682.193	6091.85
682.383	6386.76
682.573	6231.12
682.764	6218.83
682.954	6173.77
683.144	6212.68
683.334	6079.57
683.524	6110.29
683.714	5983.31
683.904	6136.91
684.094	6204.49
684.284	6071.37
684.474	6147.15
684.664	6007.89
684.854	6032.46
685.044	6112.33
685.234	6007.89
685.424	6128.72
685.614	6005.84
685.804	6069.33
685.994	5870.67
686.184	6057.04
686.374	6179.92
686.564	5991.5
686.753	5778.51
686.943	5835.86
687.133	5962.83
687.323	5844.05
687.513	5942.35
687.702	5915.73
687.892	5762.13
688.082	5966.93
688.272	5948.5
688.461	5819.47
688.651	5932.11
688.841	5678.16
689.03	5760.08
689.22	5772.37
689.41	5807.19
689.599	5663.83
689.789	5831.76
689.979	5727.32
690.168	5626.96
690.358	5725.27
690.547	5688.4
690.737	5706.84
690.926	5706.84
691.116	5573.72
691.305	5708.88
691.495	5641.3
691.684	5602.39
691.874	5710.93
692.063	5604.44
692.252	5702.74
692.442	5643.35
692.631	5491.8
692.82	5592.15
693.01	5649.49
693.199	5540.95
693.388	5547.09
693.578	5532.76
693.767	5583.96
693.956	5497.94
694.146	5516.37
694.335	5309.53
694.524	5442.65
694.713	5467.22
694.902	5536.85
695.092	5520.47
695.281	5387.35
695.47	5629.01
695.659	5463.13
695.848	5459.03
696.037	5430.36
696.226	5749.84
696.415	5495.89
696.604	5475.42
696.793	5413.98
696.982	5565.53
697.171	5604.44
697.36	5561.43
697.549	5489.75
697.738	5424.22
697.927	5446.74
698.116	5653.59
698.305	5481.56
698.494	5604.44
698.683	5424.22
698.872	5569.62
699.061	5452.89
699.25	5506.13
699.438	5637.2
699.627	5366.87
699.816	5479.51
700.005	5465.18
700.193	5461.08
700.382	5489.75
700.571	5499.99
700.76	5375.06
700.948	5459.03
701.137	5473.37
701.326	5444.7
701.514	5368.92
701.703	5579.86
701.892	5434.46
702.08	5569.62
702.269	5538.9
702.457	5356.63
702.646	5389.4
702.834	5252.19
703.023	5391.45
703.212	5434.46
703.4	5446.74
703.589	5375.06
703.777	5467.22
703.965	5350.49
704.154	5428.31
704.342	5330.01
704.531	5373.02
704.719	5311.58
704.907	5549.14
705.096	5241.95
705.284	5440.6
705.472	5385.3
705.661	5217.37
705.849	5287
706.037	5411.93
706.226	5209.18
706.414	5364.82
706.602	5264.47
706.79	5373.02
706.979	5168.22
707.167	5260.38
707.355	5092.44
707.543	5239.9
707.731	5082.21
707.919	5295.19
708.107	5299.29
708.296	5225.56
708.484	5037.15
708.672	5145.69
708.86	5186.65
709.048	5207.13
709.236	5235.8
709.424	5157.98
709.612	4875.36
709.8	5129.31
709.988	5074.01
710.176	5078.11
710.364	5227.61
710.551	4990.05
710.739	5078.11
710.927	5061.73
711.115	5112.92
711.303	5127.26
711.491	5061.73
711.679	5088.35
711.866	5071.97
712.054	5037.15
712.242	4963.42
712.43	5170.27
712.617	4854.88
712.805	4936.8
712.993	5020.77
713.181	4865.12
713.368	4856.93
713.556	5000.29
713.744	5022.81
713.931	4944.99
714.119	4834.4
714.306	4983.9
714.494	4764.77
714.682	4846.69
714.869	4779.11
715.057	4901.98
715.244	4811.87
715.432	4912.22
715.619	4697.19
715.807	4762.72
715.994	4805.73
716.182	4820.07
716.369	4858.98
716.556	4824.16
716.744	4727.91
716.931	4842.59
717.119	4850.78
717.306	4668.52
717.493	4689
717.681	4709.47
717.868	4793.44
718.055	4684.9
718.242	4617.32
718.43	4781.15
718.617	4699.23
718.804	4609.12
718.991	4676.71
719.179	4635.75
719.366	4592.74
719.553	4506.73
719.74	4496.49
719.927	4613.22
720.114	4609.12
720.301	4527.21
720.488	4385.9
720.676	4643.94
720.863	4385.9
721.05	4568.16
721.237	4410.47
721.424	4625.51
721.611	4502.63
721.798	4385.9
721.985	4441.19
722.172	4498.53
722.358	4433
722.545	4373.61
722.732	4377.7
722.919	4349.03
723.106	4486.25
723.293	4482.15
723.48	4418.66
723.667	4322.41
723.853	4320.36
724.04	4281.45
724.227	4383.85
724.414	4287.59
724.6	4279.4
724.787	4207.72
724.974	4416.62
725.161	4072.56
725.347	4037.74
725.534	4129.9
725.72	4289.64
725.907	4310.12
726.094	4287.59
726.28	4187.24
726.467	4207.72
726.653	4150.38
726.84	4228.2
727.027	4291.69
727.213	4068.46
727.4	4306.02
727.586	4064.36
727.773	3996.78
727.959	4164.72
728.145	4144.24
728.332	3925.1
728.518	3994.73
728.705	4201.58
728.891	4025.45
729.077	4066.41
729.264	4013.17
729.45	3931.25
729.636	4017.26
729.823	3902.58
730.009	4058.22
730.195	4035.69
730.382	3996.78
730.568	3996.78
730.754	3824.75
730.94	3892.34
731.126	3859.57
731.313	3916.91
731.499	3763.31
731.685	3834.99
731.871	3939.44
732.057	3855.47
732.243	3863.66
732.429	3814.51
732.615	3959.92
732.801	3845.23
732.987	3841.14
733.173	3832.94
733.359	3804.27
733.545	3808.37
733.731	3710.07
733.917	3810.42
734.103	3705.97
734.289	3742.83
734.475	3695.73
734.661	3882.1
734.847	3759.22
735.033	3546.23
735.219	3658.87
735.404	3693.68
735.59	3652.72
735.776	3544.18
735.962	3667.06
736.148	3671.15
736.333	3757.17
736.519	3568.76
736.705	3525.75
736.89	3687.54
737.076	3517.56
737.262	3470.45
737.447	3372.15
737.633	3372.15
737.819	3310.71
738.004	3544.18
738.19	3384.44
738.375	3386.49
738.561	3544.18
738.747	3331.19
738.932	3282.04
739.118	3413.11
739.303	3361.91
739.489	3386.49
739.674	3140.73
739.859	3353.72
740.045	3396.73
740.23	3265.66
740.416	3265.66
740.601	3331.19
740.786	3167.35
740.972	3271.8
741.157	3163.26
741.342	3171.45
741.528	3169.4
741.713	3183.74
741.898	3390.58
742.084	3247.23
742.269	3155.07
742.454	3284.09
742.639	3124.35
742.824	3089.53
743.01	3148.92
743.195	3234.94
743.38	3085.44
743.565	3085.44
743.75	3122.3
743.935	2974.85
744.12	3138.68
744.305	2974.85
744.49	2995.32
744.675	3013.76
744.86	2901.12
745.045	3013.76
745.23	2909.31
745.415	2956.41
745.6	2864.25
745.785	2886.78
745.97	3024
746.155	2886.78
746.34	2897.02
746.525	2784.38
746.71	2749.57
746.895	2679.94
747.079	2749.57
747.264	2706.56
747.449	2753.66
747.634	2610.31
747.819	2698.37
748.003	2602.11
748.188	2587.78
748.373	2598.02
748.557	2548.87
748.742	2567.3
748.927	2475.14
749.111	2559.11
749.296	2538.63
749.481	2514.05
749.665	2456.71
749.85	2489.48
750.034	2557.06
750.219	2489.48
750.404	2485.38
750.588	2288.78
750.773	2247.82
750.957	2294.92
751.141	2329.74
751.326	2354.31
751.51	2399.37
751.695	2335.88
751.879	2182.28
752.064	2337.93
752.248	2251.91
752.432	2339.97
752.617	2286.73
752.801	2352.26
752.985	2348.17
753.17	2268.3
753.354	2174.09
753.538	2075.79
753.722	2196.62
753.907	2049.16
754.091	2151.56
754.275	2043.02
754.459	2086.03
754.643	2075.79
754.828	2055.31
755.012	2061.45
755.196	1987.72
755.38	1932.43
755.564	2055.31
755.748	1957
755.932	2075.79
756.116	1979.53
756.3	2000.01
756.484	1932.43
756.668	1914
756.852	1940.62
757.036	1838.22
757.22	1850.51
757.404	1766.54
757.588	1897.61
757.772	1946.76
757.956	1819.79
758.14	1911.95
758.323	1733.78
758.507	1868.94
758.691	1803.41
758.875	1754.26
759.059	1832.08
759.242	1748.11
759.426	1760.4
759.61	1741.97
759.794	1780.88
759.977	1797.26
760.161	1879.18
760.345	1805.46
760.528	1658
760.712	1778.83
760.895	1668.24
761.079	1823.89
761.263	1627.28
761.446	1578.13
761.63	1703.06
761.813	1539.22
761.997	1471.64
762.18	1561.75
762.364	1647.76
762.547	1602.71
762.731	1565.84
762.914	1590.42
763.098	1645.71
763.281	1623.19
763.464	1600.66
763.648	1563.79
763.831	1580.18
764.015	1522.84
764.198	1565.84
764.381	1551.51
764.564	1506.45
764.748	1481.88
764.931	1551.51
765.114	1485.97
765.297	1526.93
765.481	1387.67
765.664	1397.91
765.847	1369.24
766.03	1590.42
766.213	1399.96
766.397	1496.21
766.58	1461.4
766.763	1457.3
766.946	1395.86
767.129	1475.73
767.312	1348.76
767.495	1397.91
767.678	1408.15
767.861	1459.35
768.044	1488.02
768.227	1465.49
768.41	1350.81
768.593	1494.16
768.776	1379.48
768.959	1332.37
769.142	1430.68
769.324	1340.57
769.507	1379.48
769.69	1289.37
769.873	1268.89
770.056	1416.34
770.239	1377.43
770.421	1367.19
770.604	1361.05
770.787	1340.57
770.97	1334.42
771.152	1354.9
771.335	1279.13
771.518	1211.54
771.7	1318.04
771.883	1223.83
772.066	1264.79
772.248	1393.81
772.431	1283.22
772.613	1213.59
772.796	1287.32
772.978	1277.08
773.161	1324.18
773.343	1246.36
773.526	1150.11
773.708	1109.15
773.891	1139.87
774.073	1229.98
774.256	1158.3
774.438	1219.74
774.621	1150.11
774.803	1197.21
774.985	1172.63
775.168	1184.92
775.35	1135.77
775.532	1287.32
775.715	1178.78
775.897	1162.39
776.079	1131.67
776.261	1103
776.444	1152.15
776.626	1113.24
776.808	1055.9
776.99	1012.89
777.173	1113.24
777.355	971.93
777.537	1090.71
777.719	1035.42
777.901	965.79
778.083	1047.71
778.265	957.6
778.447	920.73
778.629	1053.85
778.811	990.36
778.993	978.08
779.175	984.22
779.357	980.12
779.539	969.88
779.721	967.84
779.903	914.59
780.085	881.82
780.267	914.59
780.449	887.97
780.631	863.39
780.812	1002.65
780.994	984.22
781.176	937.12
781.358	935.07
781.54	867.49
781.721	892.06
781.903	890.01
782.085	908.44
782.267	926.88
782.448	763.04
782.63	883.87
782.812	855.2
782.993	824.48
783.175	892.06
783.357	697.5
783.538	820.38
783.72	853.15
783.901	763.04
784.083	847.01
784.264	742.56
784.446	744.61
784.627	758.94
784.809	771.23
784.99	748.7
785.172	732.32
785.353	744.61
785.535	736.42
785.716	705.7
785.897	717.98
786.079	658.59
786.26	677.02
786.441	791.71
786.623	593.06
786.804	652.45
786.985	703.65
787.167	754.85
787.348	728.22
787.529	642.21
787.71	728.22
787.891	699.55
788.073	591.01
788.254	691.36
788.435	650.4
788.616	642.21
788.797	654.5
788.978	611.49
789.159	613.54
789.34	695.46
789.522	566.43
789.703	646.3
789.884	548
790.065	574.63
790.246	652.45
790.427	595.11
790.607	640.16
790.788	613.54
790.969	601.25
791.15	609.44
791.331	531.62
791.512	568.48
791.693	568.48
791.874	607.39
792.054	638.11
792.235	556.19
792.416	433.32
792.597	416.93
792.778	548
792.958	457.89
793.139	533.67
793.32	494.76
793.5	490.66
793.681	531.62
793.862	554.15
794.042	570.53
794.223	492.71
794.404	447.65
794.584	437.41
794.765	482.47
794.945	498.85
795.126	601.25
795.306	537.76
795.487	453.8
795.667	339.11
795.848	365.73
796.028	445.6
796.209	439.46
796.389	478.37
796.57	445.6
796.75	486.56
796.93	511.14
797.111	418.98
797.291	429.22
797.471	500.9
797.652	423.08
797.832	433.32
798.012	560.29
798.192	429.22
798.373	292.01
798.553	373.92
798.733	470.18
798.913	416.93
799.093	371.88
799.274	396.45
799.454	492.71
799.634	404.64
799.814	367.78
799.994	449.7
800.174	423.08
800.354	343.21
800.534	349.35
800.714	421.03
800.894	386.21
801.074	367.78
801.254	392.36
801.434	451.75
801.614	335.01
801.794	359.59
801.974	1103
802.154	328.87
802.334	441.51
802.514	369.83
802.693	308.39
802.873	326.82
803.053	308.39
803.233	431.27
803.413	294.05
803.592	310.44
803.772	218.28
803.952	375.97
804.131	259.24
804.311	351.4
804.491	416.93
804.67	310.44
804.85	373.92
805.03	402.6
805.209	341.16
805.389	347.3
805.568	228.52
805.748	308.39
805.928	316.58
806.107	316.58
806.287	296.1
806.466	337.06
806.646	318.63
806.825	361.64
807.004	228.52
807.184	255.14
807.363	312.49
807.543	335.01
807.722	271.53
807.901	347.3
808.081	359.59
808.26	216.23
808.439	279.72
808.619	322.73
808.798	253.09
808.977	326.82
809.156	339.11
809.336	289.96
809.515	314.53
809.694	218.28
809.873	326.82
810.052	281.77
810.231	345.25
810.411	347.3
810.59	361.64
810.769	304.29
810.948	332.97
811.127	173.22
811.306	283.81
811.485	292.01
811.664	322.73
811.843	246.95
812.022	316.58
812.201	275.62
812.38	271.53
812.559	275.62
812.737	277.67
812.916	152.74
813.095	218.28
813.274	324.77
813.453	234.66
813.632	222.38
813.811	277.67
813.989	160.94
814.168	255.14
814.347	242.85
814.526	304.29
814.704	296.1
814.883	179.37
815.062	187.56
815.24	185.51
815.419	91.31
815.598	246.95
815.776	201.9
815.955	146.6
816.133	109.74
816.312	203.94
816.49	160.94
816.669	238.76
816.847	191.66
817.026	220.33
817.204	226.47
817.383	308.39
817.561	179.37
817.74	249
817.918	156.84
818.097	181.42
818.275	191.66
818.453	189.61
818.632	160.94
818.81	205.99
818.988	117.93
819.167	179.37
819.345	224.42
819.523	173.22
819.701	130.22
819.879	261.29
820.058	201.9
820.236	162.98
820.414	179.37
820.592	138.41
820.77	238.76
820.948	197.8
821.127	189.61
821.305	191.66
821.483	142.5
821.661	197.8
821.839	162.98
822.017	89.26
822.195	208.04
822.373	193.7
822.551	199.85
822.729	173.22
822.907	181.42
823.085	191.66
823.262	119.98
823.44	119.98
823.618	134.31
823.796	203.94
823.974	173.22
824.152	111.78
824.329	160.94
824.507	181.42
824.685	185.51
824.863	181.42
825.04	122.02
825.218	244.9
825.396	76.97
825.574	146.6
825.751	58.54
825.929	175.27
826.107	-7
826.284	126.12
826.462	119.98
826.639	81.07
826.817	58.54
826.994	183.46
827.172	42.15
827.349	246.95
827.527	150.7
827.704	146.6
827.882	134.31
828.059	91.31
828.237	185.51
828.414	220.33
828.591	85.16
828.769	134.31
828.946	113.83
829.124	173.22
829.301	175.27
829.478	158.89
829.655	105.64
829.833	93.35
830.01	64.68
830.187	175.27
830.364	130.22
830.542	128.17
830.719	230.57
830.896	124.07
831.073	54.44
831.25	46.25
831.427	158.89
831.604	132.26
831.782	138.41
831.959	95.4
832.136	33.96
832.313	162.98
832.49	60.59
832.667	136.36
832.844	58.54
833.021	224.42
833.198	148.65
833.374	146.6
833.551	79.02
833.728	150.7
833.905	140.46
834.082	56.49
834.259	171.18
834.436	220.33
834.612	83.11
834.789	140.46
834.966	117.93
835.143	68.78
835.319	150.7
835.496	128.17
835.673	203.94
835.85	173.22
836.026	195.75
836.203	122.02
836.38	70.83
836.556	101.55
836.733	68.78
836.909	232.62
837.086	60.59
837.262	-13.14
837.439	95.4
837.616	91.31
837.792	97.45
837.968	79.02
838.145	85.16
838.321	128.17
838.498	138.41
838.674	81.07
838.851	117.93
839.027	85.16
839.203	68.78
839.38	103.59
839.556	83.11
839.732	144.55
839.909	40.11
840.085	193.7
840.261	56.49
840.437	93.35
840.614	27.82
840.79	27.82
840.966	150.7
841.142	99.5
841.318	13.48
841.494	58.54
841.671	134.31
841.847	93.35
842.023	11.43
842.199	9.39
842.375	111.78
842.551	36.01
842.727	48.3
842.903	177.32
843.079	60.59
843.255	154.79
843.431	138.41
843.607	122.02
843.783	33.96
843.959	138.41
844.134	44.2
844.31	146.6
844.486	46.25
844.662	13.48
844.838	91.31
845.013	165.03
845.189	87.21
845.365	115.88
845.541	126.12
845.716	50.35
845.892	79.02
846.068	42.15
846.244	-4.95
846.419	101.55
846.595	46.25
846.77	124.07
846.946	27.82
847.122	15.53
847.297	42.15
847.473	136.36
847.648	50.35
847.824	13.48
847.999	-23.38
848.175	23.72
848.35	132.26
848.526	76.97
848.701	58.54
848.876	87.21
849.052	162.98
849.227	68.78
849.403	40.11
849.578	44.2
849.753	117.93
849.929	119.98
850.104	-31.57
850.279	50.35
850.454	122.02
850.63	93.35
850.805	-0.85
850.98	95.4
851.155	58.54
851.33	56.49
851.505	56.49
851.681	74.92
851.856	17.58
852.031	81.07
852.206	23.72
852.381	15.53
852.556	5.29
852.731	93.35
852.906	95.4
853.081	107.69
853.256	97.45
853.431	50.35
853.606	11.43
853.781	5.29
853.956	-11.09
854.131	-11.09
854.305	-21.33
854.48	-25.43
854.655	17.58
854.83	48.3
855.005	85.16
855.18	91.31
855.354	-15.19
855.529	79.02
855.704	64.68
855.879	62.63
856.053	81.07
856.228	83.11
856.403	-21.33
856.577	103.59
856.752	13.48
856.926	72.87
857.101	74.92
857.276	27.82
857.45	42.15
857.625	103.59
857.799	21.67
857.974	19.63
858.148	5.29
858.323	101.55
858.497	5.29
858.672	38.06
858.846	-23.38
859.02	56.49
859.195	-31.57
859.369	74.92
859.543	117.93
859.718	13.48
859.892	64.68
860.066	36.01
860.241	19.63
860.415	-35.67
860.589	91.31
860.763	9.39
860.938	-33.62
861.112	87.21
861.286	21.67
861.46	15.53
861.634	38.06
861.808	54.44
861.982	15.53
862.157	-27.48
862.331	-82.77
862.505	54.44
862.679	-35.67
862.853	25.77
863.027	7.34
863.201	83.11
863.375	-74.58
863.549	9.39
863.722	97.45
863.896	15.53
864.07	-29.52
864.244	87.21
864.418	25.77
864.592	36.01
864.766	25.77
864.939	-37.72
865.113	-50
865.287	81.07
865.461	-9.05
865.634	87.21
865.808	23.72
865.982	36.01
866.156	1.19
866.329	-0.85
866.503	29.87
866.676	105.64
866.85	1.19
867.024	3.24
867.197	64.68
867.371	38.06
867.544	21.67
867.718	-31.57
867.891	42.15
868.065	-2.9
868.238	25.77
868.412	95.4
868.585	5.29
868.759	-7
868.932	19.63
869.105	54.44
869.279	31.91
869.452	-15.19
869.625	3.24
869.799	44.2
869.972	46.25
870.145	-35.67
870.319	93.35
870.492	1.19
870.665	13.48
870.838	-35.67
871.011	-103.25
871.185	-19.29
871.358	3.24
871.531	-33.62
871.704	64.68
871.877	-37.72
872.05	9.39
872.223	9.39
872.396	46.25
872.569	36.01
872.742	9.39
872.915	48.3
873.088	29.87
873.261	-88.92
873.434	17.58
873.607	-52.05
873.78	70.83
873.953	-29.52
874.126	-41.81
874.299	42.15
874.471	-39.76
874.644	13.48
874.817	27.82
874.99	138.41
875.163	-41.81
875.335	-9.05
875.508	13.48
875.681	76.97
875.853	5.29
876.026	62.63
876.199	50.35
876.371	50.35
876.544	-4.95
876.717	25.77
876.889	42.15
877.062	-15.19
877.234	79.02
877.407	-23.38
877.579	-37.72
877.752	74.92
877.924	95.4
878.097	48.3
878.269	13.48
878.442	64.68
878.614	25.77
878.786	74.92
878.959	58.54
879.131	25.77
879.303	-93.01
879.476	-35.67
879.648	17.58
879.82	-35.67
879.993	23.72
880.165	-9.05
880.337	3.24
880.509	46.25
880.681	-29.52
880.854	-9.05
881.026	-23.38
881.198	165.03
881.37	33.96
881.542	-9.05
881.714	-9.05
881.886	83.11
882.058	54.44
882.23	40.11
882.402	13.48
882.574	-0.85
882.746	62.63
882.918	74.92
883.09	62.63
883.262	19.63
883.434	-27.48
883.606	1.19
883.778	-4.95
883.95	60.59
884.122	-68.44
884.293	81.07
884.465	31.91
884.637	87.21
884.809	1.19
884.98	42.15
885.152	42.15
885.324	40.11
885.496	-11.09
885.667	-37.72
885.839	-35.67
886.011	21.67
886.182	-23.38
886.354	-2.9
886.525	33.96
886.697	48.3
886.869	-62.29
887.04	21.67
887.212	89.26
887.383	91.31
887.555	29.87
887.726	19.63
887.897	-15.19
888.069	-7
888.24	9.39
888.412	52.39
888.583	52.39
888.754	48.3
888.926	-105.3
889.097	3.24
889.268	-39.76
889.44	-41.81
889.611	-29.52
889.782	-43.86
889.953	-39.76
890.125	-17.24
890.296	29.87
890.467	19.63
890.638	1.19
890.809	60.59
890.98	-25.43
891.151	29.87
891.323	64.68
891.494	87.21
891.665	-11.09
891.836	27.82
892.007	-15.19
892.178	60.59
892.349	-19.29
892.52	-60.24
892.691	-19.29
892.862	48.3
893.032	-50
893.203	7.34
893.374	33.96
893.545	68.78
893.716	21.67
893.887	72.87
894.057	-47.96
894.228	-35.67
894.399	19.63
894.57	68.78
894.74	-29.52
894.911	44.2
895.082	52.39
895.253	11.43
895.423	19.63
895.594	107.69
895.764	5.29
895.935	-31.57
896.106	66.73
896.276	25.77
896.447	-9.05
896.617	1.19
896.788	-37.72
896.958	13.48
897.129	-101.2
897.299	-7
897.47	33.96
897.64	48.3
897.81	13.48
897.981	97.45
898.151	-45.91
898.322	42.15
898.492	15.53
898.662	-21.33
898.832	-33.62
899.003	31.91
899.173	11.43
899.343	-56.15
899.513	-41.81
