Data from USB4F104151__53__12-12-18-805.txt Node

Date: Fri Mar 14 12:12:18 EDT 2025
User: louis
Spectrometer: USB4F10415
Trigger mode: 4
Integration Time (sec): 5.000000E-2
Scans to average: 1
Electric dark correction enabled: true
Nonlinearity correction enabled: false
Boxcar width: 0
XAxis mode: Wavelengths
Number of Pixels in Spectrum: 3648
>>>>>Begin Spectral Data<<<<<
178.204	-223.74
178.424	-223.74
178.644	-223.74
178.864	-272.89
179.084	-291.32
179.304	-70.14
179.524	-49.66
179.744	-10.75
179.964	95.74
180.184	19.97
180.404	-0.51
180.624	32.26
180.844	26.11
181.064	-27.14
181.283	-20.99
181.503	-59.9
181.723	65.02
181.943	-66.05
182.163	136.7
182.383	15.87
182.602	26.11
182.822	105.98
183.042	-18.94
183.262	-25.09
183.482	28.16
183.701	-18.94
183.921	-6.66
184.141	-45.57
184.361	44.54
184.58	44.54
184.8	-10.75
185.02	-6.66
185.239	112.13
185.459	15.87
185.679	24.06
185.898	-20.99
186.118	71.17
186.338	11.78
186.557	28.16
186.777	22.02
186.997	44.54
187.216	-23.04
187.436	40.45
187.655	60.93
187.875	126.46
188.095	-16.9
188.314	89.6
188.534	89.6
188.753	24.06
188.973	81.41
189.192	85.5
189.412	15.87
189.631	69.12
189.851	15.87
190.07	11.78
190.29	-16.9
190.509	-31.23
190.729	36.35
190.948	13.82
191.168	267.77
191.387	44.54
191.607	-59.9
191.826	58.88
192.045	-37.38
192.265	-37.38
192.484	-47.62
192.704	17.92
192.923	-31.23
193.142	192
193.362	79.36
193.581	116.22
193.8	60.93
194.02	56.83
194.239	5.63
194.458	-16.9
194.678	24.06
194.897	7.68
195.116	50.69
195.335	9.73
195.555	81.41
195.774	54.78
195.993	87.55
196.212	26.11
196.432	-14.85
196.651	-0.51
196.87	38.4
197.089	118.27
197.308	110.08
197.528	62.98
197.747	-66.05
197.966	87.55
198.185	79.36
198.404	-20.99
198.623	26.11
198.842	60.93
199.062	110.08
199.281	144.89
199.5	9.73
199.719	22.02
199.938	13.82
200.157	73.21
200.376	65.02
200.595	62.98
200.814	40.45
201.033	62.98
201.252	58.88
201.471	-2.56
201.69	97.79
201.909	87.55
202.128	103.93
202.347	60.93
202.566	26.11
202.785	-10.75
203.004	17.92
203.223	73.21
203.442	15.87
203.661	9.73
203.879	50.69
204.098	93.69
204.317	-41.47
204.536	69.12
204.755	71.17
204.974	118.27
205.193	24.06
205.411	93.69
205.63	7.68
205.849	81.41
206.068	110.08
206.287	-10.75
206.505	7.68
206.724	93.69
206.943	-8.7
207.162	42.5
207.381	95.74
207.599	48.64
207.818	34.3
208.037	-10.75
208.255	9.73
208.474	85.5
208.693	75.26
208.911	-94.72
209.13	38.4
209.349	71.17
209.567	85.5
209.786	32.26
210.005	50.69
210.223	36.35
210.442	-53.76
210.661	60.93
210.879	54.78
211.098	71.17
211.316	87.55
211.535	151.04
211.753	142.85
211.972	73.21
212.191	28.16
212.409	-10.75
212.628	32.26
212.846	30.21
213.065	99.84
213.283	93.69
213.502	-31.23
213.72	30.21
213.938	24.06
214.157	-8.7
214.375	71.17
214.594	-10.75
214.812	67.07
215.031	77.31
215.249	3.58
215.467	19.97
215.686	-45.57
215.904	69.12
216.122	32.26
216.341	87.55
216.559	-29.18
216.778	28.16
216.996	24.06
217.214	-12.8
217.432	69.12
217.651	54.78
217.869	38.4
218.087	54.78
218.306	32.26
218.524	36.35
218.742	54.78
218.96	48.64
219.179	-8.7
219.397	79.36
219.615	144.89
219.833	17.92
220.051	15.87
220.27	60.93
220.488	89.6
220.706	46.59
220.924	-84.48
221.142	-16.9
221.36	24.06
221.578	40.45
221.796	40.45
222.015	77.31
222.233	-8.7
222.451	69.12
222.669	-6.66
222.887	-18.94
223.105	-53.76
223.323	11.78
223.541	28.16
223.759	101.89
223.977	83.45
224.195	50.69
224.413	26.11
224.631	-4.61
224.849	19.97
225.067	108.03
225.285	-18.94
225.503	3.58
225.721	-49.66
225.939	13.82
226.157	15.87
226.375	83.45
226.592	-80.38
226.81	54.78
227.028	91.65
227.246	69.12
227.464	9.73
227.682	38.4
227.9	48.64
228.117	13.82
228.335	71.17
228.553	13.82
228.771	17.92
228.989	60.93
229.206	-20.99
229.424	36.35
229.642	-33.28
229.86	30.21
230.077	50.69
230.295	-10.75
230.513	95.74
230.731	69.12
230.948	103.93
231.166	77.31
231.384	1.54
231.601	1.54
231.819	93.69
232.037	44.54
232.254	54.78
232.472	87.55
232.689	-35.33
232.907	48.64
233.125	-82.43
233.342	17.92
233.56	15.87
233.777	97.79
233.995	71.17
234.213	87.55
234.43	-18.94
234.648	5.63
234.865	38.4
235.083	110.08
235.3	85.5
235.518	3.58
235.735	69.12
235.953	62.98
236.17	5.63
236.388	9.73
236.605	-18.94
236.822	110.08
237.04	71.17
237.257	71.17
237.475	11.78
237.692	42.5
237.909	28.16
238.127	-0.51
238.344	46.59
238.562	73.21
238.779	-12.8
238.996	-53.76
239.214	9.73
239.431	28.16
239.648	40.45
239.865	46.59
240.083	36.35
240.3	124.41
240.517	5.63
240.735	65.02
240.952	40.45
241.169	42.5
241.386	-14.85
241.603	71.17
241.821	-45.57
242.038	60.93
242.255	134.65
242.472	22.02
242.689	34.3
242.907	73.21
243.124	62.98
243.341	7.68
243.558	50.69
243.775	17.92
243.992	-70.14
244.209	15.87
244.426	136.7
244.643	28.16
244.86	30.21
245.078	105.98
245.295	65.02
245.512	13.82
245.729	-6.66
245.946	44.54
246.163	-2.56
246.38	28.16
246.597	19.97
246.814	13.82
247.031	58.88
247.248	32.26
247.464	42.5
247.681	34.3
247.898	87.55
248.115	87.55
248.332	71.17
248.549	87.55
248.766	44.54
248.983	89.6
249.2	73.21
249.417	83.45
249.633	48.64
249.85	87.55
250.067	40.45
250.284	97.79
250.501	77.31
250.717	52.74
250.934	5.63
251.151	67.07
251.368	-27.14
251.585	44.54
251.801	28.16
252.018	5.63
252.235	105.98
252.451	-10.75
252.668	-61.95
252.885	11.78
253.102	79.36
253.318	1.54
253.535	-4.61
253.752	44.54
253.968	32.26
254.185	38.4
254.401	-8.7
254.618	71.17
254.835	19.97
255.051	85.5
255.268	73.21
255.484	46.59
255.701	22.02
255.917	28.16
256.134	50.69
256.351	9.73
256.567	26.11
256.784	28.16
257	-59.9
257.217	26.11
257.433	75.26
257.65	42.5
257.866	165.37
258.082	-27.14
258.299	54.78
258.515	28.16
258.732	7.68
258.948	22.02
259.165	58.88
259.381	15.87
259.597	54.78
259.814	26.11
260.03	-12.8
260.246	-0.51
260.463	140.8
260.679	91.65
260.895	79.36
261.112	38.4
261.328	-0.51
261.544	-16.9
261.761	120.32
261.977	-2.56
262.193	-33.28
262.409	46.59
262.626	24.06
262.842	9.73
263.058	56.83
263.274	36.35
263.49	13.82
263.707	91.65
263.923	-14.85
264.139	-47.62
264.355	75.26
264.571	81.41
264.787	48.64
265.004	60.93
265.22	79.36
265.436	9.73
265.652	3.58
265.868	3.58
266.084	-27.14
266.3	85.5
266.516	9.73
266.732	71.17
266.948	-10.75
267.164	28.16
267.38	69.12
267.596	67.07
267.812	75.26
268.028	60.93
268.244	65.02
268.46	22.02
268.676	-51.71
268.892	62.98
269.108	58.88
269.324	26.11
269.54	-10.75
269.756	52.74
269.972	24.06
270.188	11.78
270.403	-55.81
270.619	130.56
270.835	24.06
271.051	36.35
271.267	69.12
271.483	3.58
271.698	97.79
271.914	-37.38
272.13	71.17
272.346	56.83
272.562	40.45
272.777	122.37
272.993	50.69
273.209	34.3
273.425	77.31
273.64	11.78
273.856	77.31
274.072	5.63
274.287	9.73
274.503	67.07
274.719	32.26
274.934	38.4
275.15	69.12
275.366	40.45
275.581	-31.23
275.797	11.78
276.012	-6.66
276.228	-0.51
276.444	9.73
276.659	52.74
276.875	40.45
277.09	54.78
277.306	-6.66
277.521	34.3
277.737	5.63
277.952	15.87
278.168	-25.09
278.383	17.92
278.599	-49.66
278.814	58.88
279.03	22.02
279.245	136.7
279.461	-23.04
279.676	136.7
279.892	-37.38
280.107	46.59
280.322	-51.71
280.538	-45.57
280.753	36.35
280.969	-12.8
281.184	40.45
281.399	30.21
281.615	22.02
281.83	-35.33
282.045	3.58
282.26	50.69
282.476	79.36
282.691	124.41
282.906	46.59
283.122	46.59
283.337	-47.62
283.552	52.74
283.767	56.83
283.983	95.74
284.198	9.73
284.413	3.58
284.628	-31.23
284.843	19.97
285.058	-16.9
285.274	44.54
285.489	-12.8
285.704	54.78
285.919	32.26
286.134	52.74
286.349	-16.9
286.564	11.78
286.779	144.89
286.995	26.11
287.21	-78.33
287.425	9.73
287.64	34.3
287.855	-14.85
288.07	-27.14
288.285	62.98
288.5	60.93
288.715	89.6
288.93	-4.61
289.145	11.78
289.36	42.5
289.575	112.13
289.79	95.74
290.004	75.26
290.219	-0.51
290.434	-31.23
290.649	5.63
290.864	-4.61
291.079	142.85
291.294	134.65
291.509	71.17
291.724	-49.66
291.938	11.78
292.153	120.32
292.368	13.82
292.583	34.3
292.798	87.55
293.012	-12.8
293.227	13.82
293.442	-27.14
293.657	5.63
293.871	85.5
294.086	48.64
294.301	148.99
294.516	62.98
294.73	17.92
294.945	-61.95
295.16	5.63
295.374	54.78
295.589	46.59
295.804	56.83
296.018	58.88
296.233	120.32
296.447	48.64
296.662	-6.66
296.877	126.46
297.091	7.68
297.306	26.11
297.52	144.89
297.735	22.02
297.949	101.89
298.164	15.87
298.378	65.02
298.593	13.82
298.807	-25.09
299.022	60.93
299.236	5.63
299.451	-29.18
299.665	32.26
299.88	28.16
300.094	44.54
300.309	5.63
300.523	48.64
300.737	26.11
300.952	11.78
301.166	50.69
301.381	-4.61
301.595	-12.8
301.809	38.4
302.024	54.78
302.238	28.16
302.452	-2.56
302.667	22.02
302.881	1.54
303.095	103.93
303.309	30.21
303.524	-14.85
303.738	13.82
303.952	-31.23
304.166	116.22
304.381	-53.76
304.595	46.59
304.809	17.92
305.023	19.97
305.237	28.16
305.452	50.69
305.666	114.17
305.88	50.69
306.094	69.12
306.308	22.02
306.522	108.03
306.736	95.74
306.95	3.58
307.164	19.97
307.379	32.26
307.593	103.93
307.807	93.69
308.021	38.4
308.235	99.84
308.449	19.97
308.663	38.4
308.877	101.89
309.091	85.5
309.305	155.13
309.519	-47.62
309.733	38.4
309.947	-33.28
310.161	24.06
310.374	95.74
310.588	60.93
310.802	30.21
311.016	-35.33
311.23	42.5
311.444	19.97
311.658	1.54
311.872	67.07
312.085	73.21
312.299	34.3
312.513	83.45
312.727	71.17
312.941	1.54
313.154	11.78
313.368	58.88
313.582	71.17
313.796	5.63
314.009	-8.7
314.223	48.64
314.437	48.64
314.651	40.45
314.864	-6.66
315.078	42.5
315.292	26.11
315.505	-2.56
315.719	52.74
315.933	7.68
316.146	17.92
316.36	-47.62
316.573	24.06
316.787	77.31
317.001	40.45
317.214	3.58
317.428	15.87
317.641	-61.95
317.855	69.12
318.068	99.84
318.282	91.65
318.495	159.23
318.709	73.21
318.922	32.26
319.136	89.6
319.349	148.99
319.563	1.54
319.776	87.55
319.99	40.45
320.203	67.07
320.417	79.36
320.63	7.68
320.843	79.36
321.057	38.4
321.27	58.88
321.483	46.59
321.697	34.3
321.91	69.12
322.124	108.03
322.337	19.97
322.55	46.59
322.763	81.41
322.977	17.92
323.19	7.68
323.403	46.59
323.617	89.6
323.83	93.69
324.043	30.21
324.256	-23.04
324.469	69.12
324.683	83.45
324.896	-8.7
325.109	11.78
325.322	-45.57
325.535	28.16
325.748	79.36
325.962	-14.85
326.175	140.8
326.388	73.21
326.601	81.41
326.814	114.17
327.027	65.02
327.24	42.5
327.453	19.97
327.666	93.69
327.879	65.02
328.092	110.08
328.305	50.69
328.518	-35.33
328.731	15.87
328.944	-37.38
329.157	77.31
329.37	-0.51
329.583	110.08
329.796	181.76
330.009	28.16
330.222	11.78
330.435	73.21
330.648	83.45
330.861	46.59
331.073	73.21
331.286	42.5
331.499	38.4
331.712	15.87
331.925	15.87
332.138	77.31
332.35	13.82
332.563	-41.47
332.776	58.88
332.989	-25.09
333.202	69.12
333.414	34.3
333.627	38.4
333.84	99.84
334.053	54.78
334.265	-43.52
334.478	-20.99
334.691	19.97
334.903	60.93
335.116	-6.66
335.329	48.64
335.541	116.22
335.754	140.8
335.966	9.73
336.179	101.89
336.392	52.74
336.604	-0.51
336.817	60.93
337.029	22.02
337.242	77.31
337.454	28.16
337.667	48.64
337.88	114.17
338.092	54.78
338.305	99.84
338.517	26.11
338.729	26.11
338.942	165.37
339.154	-53.76
339.367	26.11
339.579	54.78
339.792	-31.23
340.004	85.5
340.217	-104.96
340.429	69.12
340.641	-31.23
340.854	-33.28
341.066	5.63
341.278	132.61
341.491	89.6
341.703	73.21
341.915	65.02
342.128	99.84
342.34	9.73
342.552	24.06
342.764	56.83
342.977	9.73
343.189	19.97
343.401	44.54
343.613	-59.9
343.826	40.45
344.038	-53.76
344.25	155.13
344.462	-27.14
344.674	1.54
344.886	58.88
345.099	36.35
345.311	75.26
345.523	24.06
345.735	-39.42
345.947	3.58
346.159	73.21
346.371	28.16
346.583	-0.51
346.795	155.13
347.007	19.97
347.219	26.11
347.431	38.4
347.643	114.17
347.855	17.92
348.067	97.79
348.279	52.74
348.491	5.63
348.703	1.54
348.915	-27.14
349.127	15.87
349.339	24.06
349.551	5.63
349.763	65.02
349.975	89.6
350.187	159.23
350.399	142.85
350.61	75.26
350.822	32.26
351.034	50.69
351.246	24.06
351.458	81.41
351.669	30.21
351.881	67.07
352.093	91.65
352.305	134.65
352.517	87.55
352.728	87.55
352.94	75.26
353.152	60.93
353.363	73.21
353.575	38.4
353.787	77.31
353.999	81.41
354.21	173.57
354.422	54.78
354.633	91.65
354.845	99.84
355.057	46.59
355.268	83.45
355.48	60.93
355.692	99.84
355.903	69.12
356.115	-6.66
356.326	-8.7
356.538	44.54
356.749	-6.66
356.961	83.45
357.172	1.54
357.384	-23.04
357.595	136.7
357.807	65.02
358.018	73.21
358.23	26.11
358.441	122.37
358.653	101.89
358.864	30.21
359.075	-10.75
359.287	-0.51
359.498	73.21
359.709	120.32
359.921	52.74
360.132	85.5
360.344	40.45
360.555	58.88
360.766	185.85
360.977	-10.75
361.189	81.41
361.4	-8.7
361.611	144.89
361.823	124.41
362.034	103.93
362.245	73.21
362.456	87.55
362.667	73.21
362.879	36.35
363.09	17.92
363.301	54.78
363.512	108.03
363.723	30.21
363.935	-4.61
364.146	28.16
364.357	38.4
364.568	93.69
364.779	22.02
364.99	105.98
365.201	52.74
365.412	114.17
365.623	11.78
365.834	46.59
366.045	22.02
366.256	15.87
366.467	71.17
366.678	44.54
366.889	-14.85
367.1	-16.9
367.311	-10.75
367.522	54.78
367.733	89.6
367.944	144.89
368.155	11.78
368.366	95.74
368.577	54.78
368.788	177.66
368.999	-31.23
369.209	48.64
369.42	247.29
369.631	167.42
369.842	19.97
370.053	-6.66
370.264	95.74
370.474	-45.57
370.685	38.4
370.896	-10.75
371.107	71.17
371.317	52.74
371.528	-12.8
371.739	95.74
371.95	89.6
372.16	32.26
372.371	-4.61
372.582	28.16
372.792	-25.09
373.003	79.36
373.214	32.26
373.424	67.07
373.635	38.4
373.846	169.47
374.056	46.59
374.267	48.64
374.477	32.26
374.688	114.17
374.898	81.41
375.109	30.21
375.319	-6.66
375.53	146.94
375.74	87.55
375.951	36.35
376.161	99.84
376.372	108.03
376.582	60.93
376.793	22.02
377.003	42.5
377.214	-31.23
377.424	99.84
377.635	3.58
377.845	50.69
378.055	101.89
378.266	-31.23
378.476	69.12
378.686	-12.8
378.897	62.98
379.107	60.93
379.317	110.08
379.528	24.06
379.738	97.79
379.948	-4.61
380.158	5.63
380.369	60.93
380.579	62.98
380.789	38.4
380.999	95.74
381.21	50.69
381.42	83.45
381.63	50.69
381.84	95.74
382.05	114.17
382.261	32.26
382.471	97.79
382.681	36.35
382.891	60.93
383.101	87.55
383.311	-29.18
383.521	34.3
383.731	56.83
383.941	110.08
384.151	24.06
384.361	11.78
384.571	126.46
384.781	71.17
384.991	89.6
385.201	81.41
385.411	56.83
385.621	83.45
385.831	48.64
386.041	142.85
386.251	52.74
386.461	163.33
386.671	26.11
386.881	42.5
387.091	-2.56
387.301	126.46
387.511	-27.14
387.72	83.45
387.93	220.67
388.14	19.97
388.35	7.68
388.56	114.17
388.769	79.36
388.979	48.64
389.189	17.92
389.399	-6.66
389.609	34.3
389.818	120.32
390.028	77.31
390.238	77.31
390.447	30.21
390.657	71.17
390.867	-6.66
391.076	-14.85
391.286	79.36
391.496	77.31
391.705	50.69
391.915	32.26
392.125	130.56
392.334	112.13
392.544	108.03
392.753	32.26
392.963	-18.94
393.172	87.55
393.382	7.68
393.591	206.33
393.801	42.5
394.01	97.79
394.22	71.17
394.429	46.59
394.639	110.08
394.848	130.56
395.058	134.65
395.267	138.75
395.477	97.79
395.686	136.7
395.895	126.46
396.105	142.85
396.314	83.45
396.524	122.37
396.733	81.41
396.942	110.08
397.152	134.65
397.361	128.51
397.57	50.69
397.78	161.28
397.989	142.85
398.198	155.13
398.407	75.26
398.617	65.02
398.826	93.69
399.035	83.45
399.244	179.71
399.453	56.83
399.663	118.27
399.872	210.43
400.081	60.93
400.29	108.03
400.499	77.31
400.708	179.71
400.917	118.27
401.127	73.21
401.336	69.12
401.545	142.85
401.754	91.65
401.963	138.75
402.172	124.41
402.381	65.02
402.59	116.22
402.799	159.23
403.008	155.13
403.217	126.46
403.426	175.61
403.635	122.37
403.844	183.81
404.053	146.94
404.262	163.33
404.471	212.48
404.68	110.08
404.888	103.93
405.097	83.45
405.306	177.66
405.515	148.99
405.724	148.99
405.933	210.43
406.142	138.75
406.35	202.24
406.559	177.66
406.768	212.48
406.977	300.54
407.185	179.71
407.394	235
407.603	208.38
407.812	253.44
408.02	208.38
408.229	165.37
408.438	300.54
408.646	235
408.855	235
409.064	261.63
409.272	331.26
409.481	316.92
409.69	341.5
409.898	402.94
410.107	269.82
410.315	374.27
410.524	325.12
410.733	450.04
410.941	302.59
411.15	368.12
411.358	386.55
411.567	431.61
411.775	427.51
411.984	341.5
412.192	507.38
412.401	482.81
412.609	531.96
412.818	568.82
413.026	560.63
413.234	525.82
413.443	568.82
413.651	556.54
413.86	577.02
414.068	650.74
414.276	703.99
414.485	687.61
414.693	722.42
414.901	785.91
415.11	828.92
415.318	775.67
415.526	736.76
415.734	904.69
415.943	867.83
416.151	914.93
416.359	892.4
416.567	982.51
416.776	1017.33
416.984	1041.9
417.192	1084.91
417.4	1015.28
417.608	1052.14
417.817	1009.14
418.025	1115.63
418.233	1324.52
418.441	1224.17
418.649	1248.75
418.857	1342.96
419.065	1527.27
419.273	1428.97
419.481	1469.93
419.689	1517.03
419.897	1568.23
420.105	1615.34
420.313	1652.2
420.521	1789.41
420.729	1770.98
420.937	1891.81
421.145	1981.92
421.353	2002.4
421.561	2147.81
421.769	2026.98
421.977	2217.44
422.185	2246.11
422.393	2256.35
422.601	2491.87
422.809	2457.05
423.017	2461.15
423.224	2633.18
423.432	2776.53
423.64	2749.91
423.848	2911.7
424.056	2973.14
424.263	3055.06
424.471	3030.48
424.679	3136.98
424.887	3280.33
425.094	3464.65
425.302	3470.8
425.51	3587.53
425.718	3694.02
425.925	3765.7
426.133	3882.44
426.341	4117.95
426.548	4120
426.756	4201.92
426.964	4396.48
427.171	4357.57
427.379	4699.58
427.586	4707.77
427.794	4980.15
428.001	5211.57
428.209	5326.25
428.417	5256.62
428.624	5574.06
428.832	5754.28
429.039	5664.17
429.247	5629.35
429.454	6213.03
429.662	6579.61
429.869	6051.24
430.076	6630.81
430.284	6215.07
430.491	6534.56
430.699	7083.41
430.906	6915.48
431.114	7050.64
431.321	7214.48
431.528	7460.24
431.736	7869.83
431.943	8387.97
432.15	8066.44
432.358	8224.13
432.565	8629.63
432.772	8629.63
432.979	9139.57
433.187	9166.2
433.394	9391.47
433.601	9854.31
433.808	9782.63
434.016	9700.72
434.223	10263.91
434.43	10818.91
434.637	10689.88
434.844	11171.16
435.052	11378
435.259	11220.31
435.466	11402.58
435.673	11418.96
435.88	12133.7
436.087	12565.82
436.294	12692.8
436.501	12633.41
436.708	12651.84
436.915	13243.7
437.122	13755.69
437.329	13657.39
437.537	14038.31
437.743	14259.49
437.95	14085.42
438.157	14871.84
438.364	15453.46
438.571	15666.45
438.778	15437.08
438.985	16950.53
439.192	16147.72
439.399	16860.41
439.606	16278.79
439.813	17429.75
440.02	18367.72
440.227	17949.93
440.433	17775.86
440.64	18433.25
440.847	18431.21
441.054	18785.51
441.261	20169.93
441.467	19547.35
441.674	20010.19
441.881	20907.2
442.088	20970.69
442.294	20669.64
442.501	21091.52
442.708	21804.21
442.914	22561.96
443.121	23311.52
443.328	22879.39
443.534	24362.12
443.741	23846.04
443.948	23409.82
444.154	25242.75
444.361	24986.75
444.568	25148.54
444.774	25033.86
444.981	25402.49
445.187	26094.71
445.394	27014.24
445.6	26477.68
445.807	29215.81
446.013	28025.94
446.22	28841.03
446.426	29934.65
446.633	30233.65
446.839	30759.98
447.046	29707.32
447.252	31599.65
447.459	31214.63
447.665	31206.44
447.871	32760.84
448.078	33774.59
448.284	32191.51
448.491	33510.4
448.697	34554.86
448.903	34997.23
449.11	35150.82
449.316	34522.1
449.522	34903.02
449.728	36400.08
449.935	36174.81
450.141	36725.71
450.347	37432.26
450.553	36053.98
450.76	36277.21
450.966	37526.47
451.172	37118.92
451.378	38181.82
451.584	37225.42
451.791	37997.5
451.997	37878.72
452.203	38785.97
452.409	38640.56
452.615	38415.29
452.821	37047.24
453.027	36961.23
453.233	38513.59
453.44	36768.72
453.646	37354.44
453.852	37393.35
454.058	38073.28
454.264	36666.32
454.47	37835.71
454.676	36752.34
454.882	38046.65
455.088	34941.93
455.294	35242.98
455.5	35634.14
455.705	36232.15
455.911	34774
456.117	33717.25
456.323	33635.33
456.529	31980.57
456.735	33010.7
456.941	32304.15
457.147	31890.46
457.352	30964.78
457.558	30448.69
457.764	30395.44
457.97	30078.01
458.176	29076.55
458.381	28589.13
458.587	27835.48
458.793	27569.24
458.999	26274.93
459.204	28027.99
459.41	27188.32
459.616	25480.32
459.821	25572.47
460.027	25273.47
460.233	24808.58
460.438	23547.03
460.644	23940.24
460.85	22742.18
461.055	22453.42
461.261	22469.8
461.466	20636.87
461.672	19838.16
461.878	21296.32
462.083	19866.83
462.289	19438.81
462.494	19449.05
462.7	18615.52
462.905	17861.87
463.111	18803.94
463.316	18914.53
463.522	18459.88
463.727	18148.59
463.932	18205.93
464.138	18087.15
464.343	18017.52
464.549	17585.4
464.754	18214.12
464.959	18003.18
465.165	17607.92
465.37	16950.53
465.575	16655.62
465.781	17546.48
465.986	17501.43
466.191	16858.37
466.397	16243.98
466.602	15590.67
466.807	16258.31
467.012	16024.84
467.218	16037.13
467.423	15957.26
467.628	16051.47
467.833	16592.13
468.038	15893.77
468.244	15439.12
468.449	16336.13
468.654	15688.98
468.859	15453.46
469.064	15158.55
469.269	14841.12
469.474	15105.31
469.679	15086.87
469.885	14527.78
470.09	15172.89
470.295	14630.18
470.5	14396.71
470.705	14699.81
470.91	14095.66
471.115	14212.39
471.32	14353.7
471.525	14230.82
471.73	13757.74
471.935	13677.87
472.139	13299
472.344	13258.04
472.549	13481.27
472.754	13321.52
472.959	13028.67
473.164	12741.95
473.369	12430.66
473.574	12811.58
473.778	12791.1
473.983	12649.79
474.188	12422.47
474.393	12141.89
474.598	12051.78
474.802	12070.22
475.007	11887.95
475.212	11785.55
475.417	11320.66
475.621	11335
475.826	11453.78
476.031	11216.21
476.235	10855.77
476.44	11216.21
476.645	10757.47
476.849	10818.91
477.054	10757.47
477.259	10384.74
477.463	10616.16
477.668	10454.37
477.872	10460.51
478.077	10343.78
478.282	9835.88
478.486	9854.31
478.691	9901.42
478.895	9643.37
479.1	9934.18
479.304	10030.44
479.509	9434.48
479.713	9796.97
479.918	9432.43
480.122	9352.56
480.326	9309.55
480.531	9424.24
480.735	9315.7
480.94	9233.78
481.144	9510.25
481.348	9063.8
481.553	9176.44
481.757	9020.79
481.961	9266.55
482.166	9104.76
482.37	9076.09
482.574	8699.26
482.778	8947.06
482.983	9162.1
483.187	8881.53
483.391	8953.21
483.595	8887.67
483.8	8799.61
484.004	8758.65
484.208	8918.39
484.412	8983.93
484.616	8828.28
484.821	8947.06
485.025	8783.23
485.229	8981.88
485.433	8693.12
485.637	8809.85
485.841	8811.9
486.045	8844.67
486.249	8893.82
486.453	8725.88
486.657	8883.58
486.861	8672.64
487.065	8639.87
487.269	8824.19
487.473	8703.36
487.677	8850.81
487.881	9133.43
488.085	8809.85
488.289	8768.89
488.493	9020.79
488.697	8732.03
488.901	8828.28
489.105	8826.23
489.309	8772.99
489.512	8951.16
489.716	8859
489.92	8865.14
490.124	8787.32
490.328	9074.04
490.531	8887.67
490.735	8879.48
490.939	8942.97
491.143	8844.67
491.346	8897.91
491.55	9043.32
491.754	9028.98
491.958	9158
492.161	8955.26
492.365	9071.99
492.569	9194.87
492.772	9037.17
492.976	9370.99
493.18	9227.64
493.383	9405.81
493.587	9473.39
493.79	9612.65
493.994	9317.75
494.197	9624.94
494.401	9586.03
494.605	9624.94
494.808	9551.21
495.012	9672.04
495.215	9858.41
495.419	9932.14
495.622	9880.94
495.825	9954.66
496.029	10157.41
496.232	10265.96
496.436	10032.49
496.639	10538.34
496.843	10386.79
497.046	10468.7
497.249	10603.87
497.453	10610.01
497.656	10909.02
497.859	10687.84
498.063	10923.35
498.266	11091.29
498.469	11035.99
498.673	11234.64
498.876	11470.16
499.079	11582.8
499.282	11425.11
499.485	11740.49
499.689	11656.53
499.892	12041.54
500.095	11943.24
500.298	11976.01
500.501	12201.29
500.705	12391.75
500.908	12531.01
501.111	12612.93
501.314	12717.37
501.517	12981.56
501.72	12928.31
501.923	12868.92
502.126	13090.1
502.329	13509.94
502.532	13440.31
502.735	13526.32
502.938	13550.9
503.141	13901.1
503.344	13845.8
503.547	14144.81
503.75	14347.56
503.953	14701.86
504.156	14716.19
504.359	14834.97
504.562	14769.44
504.765	14824.73
504.968	15363.35
505.17	15557.91
505.373	15459.6
505.576	15750.42
505.779	15705.36
505.982	15854.86
506.185	16104.71
506.387	16248.07
506.59	16364.81
506.793	16737.54
506.996	16592.13
507.198	17177.85
507.401	16907.52
507.604	17329.4
507.807	17360.12
508.009	17802.48
508.212	17679.6
508.415	17917.17
508.617	17976.56
508.82	18113.77
509.022	18248.94
509.225	18695.39
509.428	18883.81
509.63	18580.71
509.833	19041.5
510.035	19176.67
510.238	19252.44
510.44	19461.34
510.643	19768.53
510.845	19981.52
511.048	19565.78
511.25	20155.6
511.453	20032.72
511.655	20812.99
511.858	20481.22
512.06	20653.25
512.262	20847.81
512.465	20688.07
512.667	21175.48
512.87	21437.62
513.072	21578.93
513.274	21859.51
513.477	21798.07
513.679	22076.59
513.881	22516.9
514.084	22631.59
514.286	22334.64
514.488	22455.47
514.69	23366.81
514.893	23110.82
515.095	23114.91
515.297	23413.91
515.499	23506.07
515.701	23717.01
515.904	24013.97
516.106	24198.29
516.308	24390.8
516.51	24528.01
516.712	24603.78
516.914	24722.57
517.116	25205.89
517.318	24876.16
517.52	25083.01
517.722	25506.94
517.925	25496.7
518.127	26113.14
518.329	25918.58
518.531	25644.15
518.733	26242.16
518.935	26686.57
519.136	26340.46
519.338	26582.12
519.54	26989.67
519.742	26827.88
519.944	27139.17
520.146	27460.7
520.348	27585.63
520.55	27843.67
520.752	27745.37
520.954	28243.03
521.155	27747.42
521.357	28759.11
521.559	28550.22
521.761	28707.91
521.963	28689.48
522.164	28810.31
522.366	28734.54
522.568	29105.22
522.77	29537.34
522.971	29656.12
523.173	29580.35
523.375	29350.98
523.576	29269.06
523.778	29393.98
523.98	29871.16
524.181	30012.47
524.383	30321.71
524.584	30305.33
524.786	30245.94
524.988	30086.2
525.189	30655.53
525.391	30411.82
525.592	30776.36
525.794	30823.47
525.995	30993.45
526.197	30747.69
526.398	30897.19
526.6	30633
526.801	31198.24
527.003	31228.96
527.204	31734.81
527.406	31454.24
527.607	31005.73
527.808	31566.88
528.01	31210.53
528.211	31437.86
528.412	31908.89
528.614	31628.32
528.815	31476.77
529.016	31929.37
529.218	31294.5
529.419	31976.47
529.62	31910.94
529.822	31841.31
530.023	31824.92
530.224	31806.49
530.425	31796.25
530.626	31306.79
530.828	31673.37
531.029	32101.4
531.23	31958.04
531.431	32005.14
531.632	31835.16
531.833	31945.75
532.035	31597.6
532.236	32095.25
532.437	32349.2
532.638	31693.85
532.839	31966.23
533.04	32027.67
533.241	31441.95
533.442	32240.66
533.643	31761.44
533.844	31751.2
534.045	32062.49
534.246	31665.18
534.447	32140.31
534.648	31716.38
534.849	32013.34
535.05	31487.01
535.251	31859.74
535.451	31484.96
535.652	31796.25
535.853	32117.78
536.054	31724.57
536.255	31548.45
536.456	31661.08
536.657	32123.93
536.857	31710.24
537.058	31704.09
537.259	31573.02
537.46	31869.98
537.66	31738.91
537.861	31661.08
538.062	31458.34
538.263	31665.18
538.463	31423.52
538.664	31190.05
538.865	31370.27
539.065	31437.86
539.266	31364.13
539.466	31411.23
539.667	31198.24
539.868	31624.22
540.068	31333.41
540.269	31130.66
540.469	31499.3
540.67	30956.58
540.87	31052.84
541.071	31183.91
541.271	31101.99
541.472	30821.42
541.672	31237.16
541.873	31446.05
542.073	30667.82
542.274	31224.87
542.474	31044.65
542.675	30841.9
542.875	30993.45
543.075	30837.8
543.276	30465.07
543.476	31333.41
543.676	31151.14
543.877	30882.86
544.077	30938.15
544.277	30735.4
544.478	30587.95
544.678	30866.47
544.878	30544.94
545.078	31003.69
545.279	30641.2
545.479	30237.75
545.679	30805.03
545.879	30727.21
546.079	30714.92
546.28	30446.64
546.48	30553.13
546.68	31069.22
546.88	30567.47
547.08	30469.17
547.28	30661.68
547.48	30264.37
547.68	30680.11
547.88	30696.49
548.081	30651.44
548.281	30274.61
548.481	30565.42
548.681	30624.81
548.881	30225.46
549.081	30098.48
549.28	30168.12
549.48	30743.59
549.68	30497.84
549.88	30612.52
550.08	30073.91
550.28	30204.98
550.48	29981.75
550.68	30202.93
550.88	30151.73
551.08	30018.61
551.279	30288.95
551.479	30102.58
551.679	30350.38
551.879	30192.69
552.079	30213.17
552.278	30075.96
552.478	30192.69
552.678	30374.96
552.878	30131.25
553.077	29979.7
553.277	29617.21
553.477	30141.49
553.676	30106.68
553.876	29963.32
554.076	29342.78
554.275	29930.55
554.475	29865.02
554.674	29918.26
554.874	30106.68
555.074	29895.74
555.273	29770.81
555.473	30000.18
555.672	29475.9
555.872	29643.84
556.071	29987.89
556.271	29918.26
556.47	29533.25
556.67	29467.71
556.869	29461.57
557.068	29572.16
557.268	29547.58
557.467	29559.87
557.667	29742.14
557.866	29580.35
558.065	29684.8
558.265	29342.78
558.464	29176.9
558.663	29447.23
558.863	29305.92
559.062	29862.97
559.261	29205.57
559.461	29512.77
559.66	29185.09
559.859	28859.46
560.058	28961.86
560.258	29469.76
560.457	28816.46
560.656	29174.85
560.855	29166.66
561.054	29240.39
561.253	28943.43
561.453	29090.88
561.652	29350.98
561.851	29144.13
562.05	29019.21
562.249	28867.66
562.448	29023.3
562.647	29105.22
562.846	29207.62
563.045	28865.61
563.244	28539.98
563.443	29146.18
563.642	28507.21
563.841	28771.4
564.04	28494.93
564.239	28914.76
564.438	28621.9
564.637	28783.69
564.836	28859.46
565.035	28531.79
565.234	28554.32
565.432	28271.7
565.631	28296.27
565.83	28742.73
566.029	28236.88
566.228	28568.65
566.427	28462.16
566.625	28441.68
566.824	28048.47
567.023	28646.47
567.222	28116.05
567.42	28517.45
567.619	28193.87
567.818	28087.38
568.016	27896.92
568.215	28335.18
568.414	27866.2
568.612	27956.31
568.811	27931.73
569.01	28001.36
569.208	27837.53
569.407	28146.77
569.605	28021.84
569.804	28206.16
570.002	27919.45
570.201	28234.83
570.4	27704.41
570.598	27933.78
570.797	27511.9
570.995	27808.86
571.193	27477.08
571.392	27700.31
571.59	27376.73
571.789	27675.74
571.987	27505.76
572.186	27497.56
572.384	27612.25
572.582	27561.05
572.781	27456.61
572.979	27382.88
573.177	27257.95
573.376	27595.87
573.574	26948.71
573.772	27341.92
573.971	26928.23
574.169	26846.31
574.367	26917.99
574.565	26952.8
574.763	26776.68
574.962	27118.69
575.16	26643.56
575.358	27022.44
575.556	26416.24
575.754	26780.78
575.952	26659.95
576.151	26811.49
576.349	26229.87
576.547	26756.2
576.745	26485.87
576.943	26721.38
577.141	26596.46
577.339	26578.03
577.537	26391.66
577.735	26612.84
577.933	26096.75
578.131	26549.35
578.329	26166.38
578.527	25922.68
578.725	26354.8
578.923	26174.58
579.121	26106.99
579.319	26020.98
579.516	26184.82
579.714	26180.72
579.912	25988.21
580.11	25676.92
580.308	25482.36
580.506	25904.24
580.704	25371.77
580.901	25982.07
581.099	26233.97
581.297	25666.68
581.495	25652.34
581.692	25646.2
581.89	25406.59
582.088	25134.21
582.285	25310.33
582.483	25488.51
582.681	25078.91
582.878	25461.88
583.076	25207.94
583.274	25242.75
583.471	25224.32
583.669	25330.81
583.866	24872.07
584.064	25289.85
584.262	24949.89
584.459	25017.47
584.657	24677.51
584.854	25150.59
585.052	24591.5
585.249	24927.36
585.447	24925.32
585.644	24458.38
585.841	24685.7
586.039	24988.8
586.236	24312.97
586.434	24306.83
586.631	24497.29
586.828	24638.6
587.026	24841.35
587.223	24106.13
587.42	24106.13
587.618	24167.57
587.815	24050.83
588.012	23993.49
588.21	24192.14
588.407	24028.31
588.604	23901.33
588.801	23504.03
588.999	23780.5
589.196	24013.97
589.393	23903.38
589.59	23975.06
589.787	23987.35
589.984	23893.14
590.182	23540.89
590.379	23764.12
590.576	23409.82
590.773	23723.16
590.97	23663.77
591.167	23405.72
591.364	22961.31
591.561	23495.83
591.758	23157.92
591.955	23293.08
592.152	23266.46
592.349	23162.01
592.546	23325.85
592.743	23076
592.94	22846.63
593.137	23317.66
593.334	23000.23
593.531	22537.38
593.727	23106.72
593.924	22926.5
594.121	22965.41
594.318	22879.39
594.515	22455.47
594.712	22416.55
594.908	22457.51
595.105	22498.47
595.302	22408.36
595.499	22297.77
595.696	22512.81
595.892	22154.41
596.089	22697.13
596.286	22281.39
596.482	22342.83
596.679	22222
596.876	22148.27
597.072	22328.49
597.269	22154.41
597.466	21968.05
597.662	22164.65
597.859	21877.94
598.055	22072.5
598.252	21906.61
598.448	21744.82
598.645	22121.65
598.841	21609.65
599.038	21771.44
599.234	21912.75
599.431	21638.33
599.627	21828.79
599.824	21648.57
600.02	21605.56
600.217	21572.79
600.413	21623.99
600.609	21437.62
600.806	21712.05
601.002	21652.66
601.198	21279.93
601.395	21454.01
601.591	21255.36
601.787	21408.95
601.984	21425.34
602.18	21521.59
602.376	21271.74
602.572	21165.25
602.769	21443.77
602.965	21032.13
603.161	21279.93
603.357	20901.06
603.553	21185.72
603.75	21060.8
603.946	20784.32
604.142	21292.22
604.338	20896.96
604.534	20931.78
604.73	20716.74
604.926	20729.03
605.122	20690.12
605.318	20753.6
605.514	20528.33
605.71	20540.61
605.906	20552.9
606.102	20571.33
606.298	20927.68
606.494	20870.34
606.69	20970.69
606.886	20802.75
607.082	20597.96
607.278	20683.97
607.474	20567.24
607.67	20718.79
607.866	20104.4
608.062	20552.9
608.257	20423.88
608.453	20485.32
608.649	20688.07
608.845	20360.39
609.041	20565.19
609.236	20507.85
609.432	20602.05
609.628	20356.3
609.824	20448.46
610.019	20372.68
610.215	20286.67
610.411	20524.23
610.606	20370.63
610.802	20352.2
610.998	20294.86
611.193	20450.5
611.389	20290.76
611.584	20268.23
611.78	20212.94
611.976	20569.29
612.171	20196.56
612.367	20239.56
612.562	20182.22
612.758	20206.8
612.953	20151.5
613.149	20448.46
613.344	20325.58
613.539	20733.12
613.735	20186.32
613.93	20524.23
614.126	20020.43
614.321	20677.83
614.517	20126.92
614.712	20276.43
614.907	20307.15
615.103	20311.24
615.298	20268.23
615.493	20446.41
615.688	19872.98
615.884	20610.25
616.079	19801.3
616.274	20008.14
616.47	19936.46
616.665	20055.25
616.86	19993.81
617.055	20034.77
617.25	20051.15
617.445	20040.91
617.641	19811.54
617.836	20247.76
618.031	19588.31
618.226	19961.04
618.421	19954.9
618.616	19954.9
618.811	19514.58
619.006	19997.9
619.201	19596.5
619.396	20053.2
619.591	19320.03
619.786	20108.49
619.981	19524.82
620.176	19797.2
620.371	19408.09
620.566	19487.96
620.761	19377.37
620.956	19356.89
621.151	19029.21
621.346	19246.3
621.541	18869.47
621.735	19277.02
621.93	18926.82
622.125	18912.48
622.32	18756.83
622.515	19070.17
622.709	18494.69
622.904	18871.52
623.099	18433.25
623.294	18701.54
623.488	18322.66
623.683	18443.49
623.878	17958.13
624.072	18435.3
624.267	18402.54
624.462	18187.5
624.656	18113.77
624.851	18369.77
625.046	17724.66
625.24	18099.44
625.435	17579.25
625.629	17679.6
625.824	17628.4
626.018	17738.99
626.213	17454.33
626.407	17353.98
626.602	17222.91
626.796	17372.41
626.991	17251.58
627.185	17282.3
627.38	17106.17
627.574	17143.03
627.768	17022.2
627.963	16825.6
628.157	16755.97
628.352	16760.06
628.546	16538.88
628.74	16911.61
628.935	16473.35
629.129	16440.58
629.323	16413.96
629.517	16182.54
629.712	16229.64
629.906	16248.07
630.1	15813.9
630.294	16108.81
630.489	16076.04
630.683	15957.26
630.877	15695.12
631.071	15701.26
631.265	15709.46
631.459	15641.87
631.653	15682.83
631.848	15504.66
632.042	15379.73
632.236	15482.13
632.43	15213.85
632.624	15252.76
632.818	15047.96
633.012	14941.47
633.206	15023.39
633.4	14767.39
633.594	14830.88
633.788	15004.96
633.982	14961.95
634.176	14726.43
634.369	14593.31
634.563	14505.25
634.757	14685.47
634.951	14744.86
635.145	14349.61
635.339	14609.7
635.533	14566.69
635.726	14232.87
635.92	14071.08
636.114	14064.94
636.308	14085.42
636.501	13927.72
636.695	14007.59
636.889	13686.06
637.083	13849.9
637.276	13663.54
637.47	13608.24
637.664	13759.79
637.857	13727.02
638.051	13374.77
638.244	13303.09
638.438	13268.28
638.632	13548.85
638.825	12952.89
639.019	12877.12
639.212	13024.57
639.406	13032.76
639.599	12922.17
639.793	12799.29
639.986	12657.98
640.18	12715.33
640.373	12621.12
640.567	12694.85
640.76	12719.42
640.954	12483.91
641.147	12277.06
641.34	12305.73
641.534	12498.24
641.727	12346.69
641.92	12291.4
642.114	12148.04
642.307	11885.9
642.5	12004.68
642.694	11849.04
642.887	11740.49
643.08	12000.58
643.273	11728.21
643.467	11619.66
643.66	11615.57
643.853	11494.74
644.046	11507.02
644.239	11466.07
644.432	11314.52
644.626	11400.53
644.819	11371.86
645.012	11173.21
645.205	11277.65
645.398	11193.69
645.591	10857.82
645.784	10958.17
645.977	10943.83
646.17	10853.72
646.363	10933.59
646.556	10571.1
646.749	10745.18
646.942	10650.97
647.135	10796.38
647.328	10546.53
647.521	10399.07
647.714	10255.72
647.907	10435.94
648.099	10288.48
648.292	10237.28
648.485	10106.21
648.678	10165.6
648.871	10134.89
649.064	10089.83
649.256	9977.19
649.449	9784.68
649.642	9823.59
649.835	9758.06
650.027	9811.31
650.22	9553.26
650.413	9508.21
650.605	9514.35
650.798	9454.96
650.991	9442.67
651.183	9479.54
651.376	9311.6
651.568	9303.41
651.761	9178.48
651.954	9305.46
652.146	9362.8
652.339	9223.54
652.531	9121.14
652.724	9071.99
652.916	8746.36
653.109	8877.43
653.301	8811.9
653.494	8861.05
653.686	8750.46
653.879	8863.1
654.071	8633.72
654.263	8715.64
654.456	8578.43
654.648	8650.11
654.84	8459.65
655.033	8484.22
655.225	8412.54
655.417	8312.19
655.61	8338.82
655.802	8365.44
655.994	8396.16
656.186	8236.42
656.379	8158.6
656.571	8226.18
656.763	7916.94
656.955	7966.09
657.148	7955.85
657.34	7818.63
657.532	7804.3
657.724	7644.56
657.916	7820.68
658.108	7540.11
658.3	7642.51
658.492	7501.2
658.684	7298.45
658.876	7427.47
659.068	7665.04
659.26	7398.8
659.452	7349.65
659.644	7226.77
659.836	7173.52
660.028	7087.51
660.22	7134.61
660.412	7165.33
660.604	6964.63
660.796	6927.77
660.988	7136.66
661.18	6938.01
661.372	6899.09
661.563	6897.05
661.755	6794.65
661.947	6792.6
662.139	6630.81
662.331	6671.77
662.522	6534.56
662.714	6493.6
662.906	6477.21
663.097	6565.28
663.289	6405.53
663.481	6456.73
663.673	6411.68
663.864	6174.11
664.056	6237.6
664.247	6344.1
664.439	6317.47
664.631	6170.02
664.822	6288.8
665.014	6182.31
665.205	6077.86
665.397	6122.91
665.588	6100.39
665.78	5922.21
665.971	5819.82
666.163	6071.72
666.354	5875.11
666.546	5774.76
666.737	5707.18
666.929	5883.3
667.12	5750.18
667.311	5875.11
667.503	5739.94
667.694	5823.91
667.885	5639.59
668.077	5688.75
668.268	5610.92
668.459	5486
668.651	5508.52
668.842	5533.1
669.033	5393.84
669.224	5506.48
669.416	5576.11
669.607	5338.54
669.798	5197.23
669.989	5256.62
670.18	5363.12
670.371	5270.96
670.563	5176.75
670.754	5262.77
670.945	5217.71
671.136	5277.1
671.327	5258.67
671.518	5170.61
671.709	5184.94
671.9	5180.85
672.091	5074.35
672.282	5184.94
672.473	5041.59
672.664	5041.59
672.855	4912.57
673.046	4959.67
673.237	4937.14
673.428	5004.72
673.619	4918.71
673.809	4912.57
674	4963.76
674.191	4984.24
674.382	4804.02
674.573	4730.3
674.764	4949.43
674.954	4902.33
675.145	4720.06
675.336	4836.79
675.527	4818.36
675.717	4631.99
675.908	4769.21
676.099	4801.97
676.289	4791.73
676.48	4613.56
676.671	4650.43
676.861	4584.89
677.052	4578.75
677.243	4486.59
677.433	4517.31
677.624	4576.7
677.814	4552.12
678.005	4636.09
678.195	4492.73
678.386	4449.72
678.576	4486.59
678.767	4457.92
678.957	4462.01
679.148	4478.4
679.338	4656.57
679.529	4486.59
679.719	4308.41
679.909	4537.79
680.1	4548.03
680.29	4521.4
680.481	4359.61
680.671	4371.9
680.861	4355.52
681.052	4294.08
681.242	4302.27
681.432	4478.4
681.622	4197.82
681.813	4416.96
682.003	4378.05
682.193	4163.01
682.383	4470.2
682.573	4242.88
682.764	4328.89
682.954	4349.37
683.144	4380.09
683.334	4300.22
683.524	4263.36
683.714	4351.42
683.904	4140.48
684.094	4181.44
684.284	4224.45
684.474	4404.67
684.664	4140.48
684.854	4263.36
685.044	4216.26
685.234	4148.67
685.424	4212.16
685.614	4187.58
685.804	4173.25
685.994	4220.35
686.184	4120
686.374	4093.38
686.564	4132.29
686.753	4091.33
686.943	4025.79
687.133	4214.21
687.323	4052.42
687.513	4021.7
687.702	3976.64
687.892	3954.12
688.082	3884.48
688.272	4048.32
688.461	4091.33
688.651	4036.03
688.841	3943.88
689.03	3868.1
689.22	3730.89
689.41	4017.6
689.599	3841.48
689.789	3915.2
689.979	4003.27
690.168	3734.98
690.358	3808.71
690.547	3790.28
690.737	3933.64
690.926	3782.09
691.116	3782.09
691.305	3788.23
691.495	3732.94
691.684	3706.31
691.874	3872.2
692.063	3780.04
692.252	3786.18
692.442	3802.57
692.631	3677.64
692.82	3712.46
693.01	3782.09
693.199	3550.67
693.388	3548.62
693.578	3552.71
693.767	3794.37
693.956	3653.06
694.146	3659.21
694.335	3716.55
694.524	3519.95
694.713	3773.89
694.902	3579.34
695.092	3653.06
695.281	3665.35
695.47	3425.74
695.659	3569.1
695.848	3517.9
696.037	3528.14
696.226	3708.36
696.415	3519.95
696.604	3675.59
696.793	3501.51
696.982	3534.28
697.171	3739.08
697.36	3683.78
697.549	3716.55
697.738	3630.54
697.927	3556.81
698.116	3683.78
698.305	3599.82
698.494	3485.13
698.683	3573.19
698.872	3724.74
699.061	3661.26
699.25	3487.18
699.438	3726.79
699.627	3657.16
699.816	3509.71
700.005	3620.3
700.193	3513.8
700.382	3444.17
700.571	3648.97
700.76	3581.39
700.948	3540.43
701.137	3528.14
701.326	3683.78
701.514	3601.87
701.703	3601.87
701.892	3595.72
702.08	3642.82
702.269	3511.75
702.457	3511.75
702.646	3646.92
702.834	3583.43
703.023	3605.96
703.212	3591.63
703.4	3481.03
703.589	3403.21
703.777	3552.71
703.965	3284.43
704.154	3612.1
704.342	3442.12
704.531	3540.43
704.719	3517.9
704.907	3632.58
705.096	3487.18
705.284	3521.99
705.472	3417.55
705.661	3534.28
705.849	3579.34
706.037	3663.3
706.226	3599.82
706.414	3483.08
706.602	3532.23
706.79	3573.19
706.979	3538.38
707.167	3636.68
707.355	3395.02
707.543	3491.27
707.731	3548.62
707.919	3603.91
708.107	3526.09
708.296	3456.46
708.484	3382.73
708.672	3501.51
708.86	3460.56
709.048	3485.13
709.236	3464.65
709.424	3597.77
709.612	3536.33
709.8	3444.17
709.988	3364.3
710.176	3538.38
710.364	3544.52
710.551	3456.46
710.739	3476.94
710.927	3462.6
711.115	3519.95
711.303	3478.99
711.491	3315.15
711.679	3581.39
711.866	3419.6
712.054	3575.24
712.242	3358.16
712.43	3573.19
712.617	3446.22
712.805	3448.27
712.993	3380.68
713.181	3417.55
713.368	3399.12
713.556	3347.92
713.744	3341.77
713.931	3501.51
714.119	3257.81
714.306	3374.54
714.494	3364.3
714.682	3349.96
714.869	3349.96
715.057	3435.98
715.244	3323.34
715.432	3397.07
715.619	3405.26
715.807	3364.3
715.994	3464.65
716.182	3347.92
716.369	3454.41
716.556	3536.33
716.744	3302.86
716.931	3333.58
717.119	3343.82
717.306	3395.02
717.493	3276.24
717.681	3356.11
717.868	3241.42
718.055	3358.16
718.242	3239.37
718.43	3341.77
718.617	3354.06
718.804	3270.09
718.991	3263.95
719.179	3311.05
719.366	3343.82
719.553	3366.35
719.74	3270.09
719.927	3214.8
720.114	3329.49
720.301	3227.09
720.488	3282.38
720.676	3208.66
720.863	3309.01
721.05	3212.75
721.237	3337.68
721.424	3272.14
721.611	3296.72
721.798	3149.26
721.985	3304.91
722.172	3182.03
722.358	3188.18
722.545	3241.42
722.732	3210.7
722.919	3169.74
723.106	3229.13
723.293	3182.03
723.48	3167.7
723.667	3048.91
723.853	3282.38
724.04	3241.42
724.227	3214.8
724.414	3104.21
724.6	3118.54
724.787	3165.65
724.974	3345.87
725.161	3126.74
725.347	3073.49
725.534	3288.53
725.72	3208.66
725.907	3165.65
726.094	3157.46
726.28	2969.04
726.467	3065.3
726.653	3167.7
726.84	3100.11
727.027	3231.18
727.213	3061.2
727.4	3143.12
727.586	2964.95
727.773	3057.11
727.959	3155.41
728.145	3077.59
728.332	3059.15
728.518	3188.18
728.705	3102.16
728.891	2966.99
729.077	2983.38
729.264	2913.75
729.45	3065.3
729.636	3120.59
729.823	3114.45
730.009	3118.54
730.195	2899.41
730.382	3096.02
730.568	2911.7
730.754	2981.33
730.94	3112.4
731.126	2954.71
731.313	2938.32
731.499	3003.86
731.685	3102.16
731.871	2915.8
732.057	2915.8
732.243	3034.58
732.429	3012.05
732.615	2969.04
732.801	2960.85
732.987	2969.04
733.173	2868.69
733.359	2983.38
733.545	2913.75
733.731	2831.83
733.917	2981.33
734.103	2921.94
734.289	2903.51
734.475	2860.5
734.661	3001.81
734.847	2874.84
735.033	2921.94
735.219	2762.2
735.404	2885.08
735.59	2788.82
735.776	2737.62
735.962	2758.1
736.148	2969.04
736.333	2797.01
736.519	2754.01
736.705	2745.81
736.89	2772.44
737.076	2784.73
737.262	2813.4
737.447	2762.2
737.633	2866.64
737.819	2717.14
738.004	2725.33
738.19	2715.09
738.375	2856.4
738.561	2864.6
738.747	2729.43
738.932	2661.85
739.118	2704.85
739.303	2780.63
739.489	2672.09
739.674	2610.65
739.859	2694.61
740.045	2627.03
740.23	2538.97
740.416	2567.64
740.601	2692.57
740.786	2653.66
740.972	2381.28
741.157	2481.63
741.342	2432.47
741.528	2491.87
741.713	2614.74
741.898	2573.78
742.084	2495.96
742.269	2504.15
742.454	2436.57
742.639	2565.59
742.824	2502.11
743.01	2510.3
743.195	2516.44
743.38	2465.24
743.565	2516.44
743.75	2571.74
743.935	2426.33
744.12	2487.77
744.305	2346.46
744.49	2330.08
744.675	2336.22
744.86	2272.73
745.045	2397.66
745.23	2489.82
745.415	2338.27
745.6	2346.46
745.785	2145.76
745.97	2393.56
746.155	2260.45
746.34	2383.32
746.525	2119.14
746.71	2440.67
746.895	2092.51
747.079	2082.27
747.264	2256.35
747.449	2162.14
747.634	2151.9
747.819	2082.27
748.003	2133.47
748.188	2104.8
748.373	2143.71
748.557	2123.23
748.742	2166.24
748.927	2102.75
749.111	2086.37
749.296	1992.16
749.481	2131.42
749.665	2029.03
749.85	1996.26
750.034	2072.03
750.219	1988.07
750.404	1758.69
750.588	1979.87
750.773	1975.78
750.957	1932.77
751.141	1969.63
751.326	1908.19
751.51	1953.25
751.695	1805.8
751.879	1809.89
752.064	1883.62
752.248	1850.85
752.432	1930.72
752.617	1951.2
752.801	1748.45
752.985	1824.23
753.17	1809.89
753.354	1883.62
753.538	1742.31
753.722	1668.58
753.907	1703.4
754.091	1658.34
754.275	1641.96
754.459	1662.44
754.643	1691.11
754.828	1795.56
755.012	1670.63
755.196	1594.86
755.38	1629.67
755.564	1654.25
755.748	1676.77
755.932	1598.95
756.116	1670.63
756.3	1617.38
756.484	1480.17
756.668	1601
756.852	1512.94
757.036	1463.79
757.22	1551.85
757.404	1502.7
757.588	1394.15
757.772	1584.62
757.956	1467.88
758.14	1566.18
758.323	1379.82
758.507	1469.93
758.691	1494.51
758.875	1478.12
759.059	1547.75
759.242	1431.02
759.426	1351.15
759.61	1431.02
759.794	1334.76
759.977	1377.77
760.161	1414.63
760.345	1361.39
760.528	1461.74
760.712	1332.72
760.895	1340.91
761.079	1295.85
761.263	1306.09
761.446	1293.8
761.63	1261.04
761.813	1426.92
761.997	1160.69
762.18	1332.72
762.364	1355.24
762.547	1197.55
762.731	1187.31
762.914	1281.52
763.098	1295.85
763.281	1197.55
763.464	1248.75
763.648	1197.55
763.831	1224.17
764.015	1166.83
764.198	1258.99
764.381	1236.46
764.564	1232.37
764.748	1218.03
764.931	1332.72
765.114	1265.13
765.297	1261.04
765.481	1175.02
765.664	1265.13
765.847	1185.26
766.03	1086.96
766.213	1154.54
766.397	1150.45
766.58	1261.04
766.763	1215.98
766.946	1242.61
767.129	1111.54
767.312	1089.01
767.495	1179.12
767.678	1093.1
767.861	1207.79
768.044	1111.54
768.227	1076.72
768.41	1105.39
768.593	1074.67
768.776	1136.11
768.959	1105.39
769.142	1222.13
769.324	1082.86
769.507	1062.38
769.69	1080.82
769.873	1093.1
770.056	1168.88
770.239	1129.97
770.421	1111.54
770.604	1109.49
770.787	1029.62
770.97	1123.82
771.152	937.46
771.335	1123.82
771.518	937.46
771.7	1209.84
771.883	1078.77
772.066	1097.2
772.248	892.4
772.431	1015.28
772.613	1117.68
772.796	1029.62
772.978	986.61
773.161	1097.2
773.343	964.08
773.526	947.7
773.708	970.23
773.891	896.5
774.073	863.73
774.256	992.75
774.438	1009.14
774.621	962.03
774.803	986.61
774.985	947.7
775.168	1002.99
775.35	966.13
775.532	937.46
775.715	945.65
775.897	941.55
776.079	828.92
776.261	869.87
776.444	949.75
776.626	876.02
776.808	927.22
776.99	822.77
777.173	865.78
777.355	853.49
777.537	898.55
777.719	869.87
777.901	884.21
778.083	849.4
778.265	808.44
778.447	861.68
778.629	773.62
778.811	802.29
778.993	867.83
779.175	822.77
779.357	802.29
779.539	785.91
779.721	744.95
779.903	777.72
780.085	703.99
780.267	720.37
780.449	699.89
780.631	914.93
780.812	650.74
780.994	695.8
781.176	734.71
781.358	728.56
781.54	693.75
781.721	765.43
781.903	681.46
782.085	695.8
782.267	742.9
782.448	611.83
782.63	636.41
782.812	710.13
782.993	749.04
783.175	742.9
783.357	673.27
783.538	722.42
783.72	617.97
783.901	607.73
784.083	607.73
784.264	572.92
784.446	542.2
784.627	562.68
784.809	634.36
784.99	529.91
785.172	716.28
785.353	583.16
785.535	689.65
785.716	611.83
785.897	583.16
786.079	548.34
786.26	591.35
786.441	615.93
786.623	579.06
786.804	583.16
786.985	570.87
787.167	536.06
787.348	568.82
787.529	546.3
787.71	642.55
787.891	544.25
788.073	482.81
788.254	507.38
788.435	550.39
788.616	564.73
788.797	452.09
788.978	550.39
789.159	474.62
789.34	597.49
789.522	450.04
789.703	435.71
789.884	495.1
790.065	452.09
790.246	466.42
790.427	486.9
790.607	531.96
790.788	450.04
790.969	390.65
791.15	503.29
791.331	499.19
791.512	392.7
791.693	435.71
791.874	437.75
792.054	523.77
792.235	462.33
792.416	345.59
792.597	388.6
792.778	433.66
792.958	435.71
793.139	474.62
793.32	349.69
793.5	357.88
793.681	409.08
793.862	384.51
794.042	359.93
794.223	400.89
794.404	423.42
794.584	343.55
794.765	359.93
794.945	345.59
795.126	439.8
795.306	382.46
795.487	321.02
795.667	341.5
795.848	355.83
796.028	357.88
796.209	398.84
796.389	343.55
796.57	378.36
796.75	275.96
796.93	386.55
797.111	353.79
797.291	351.74
797.471	345.59
797.652	312.83
797.832	308.73
798.012	376.31
798.192	347.64
798.373	261.63
798.553	353.79
798.733	390.65
798.913	364.03
799.093	321.02
799.274	318.97
799.454	355.83
799.634	347.64
799.814	341.5
799.994	296.44
800.174	353.79
800.354	261.63
800.534	212.48
800.714	359.93
800.894	273.92
801.074	294.4
801.254	247.29
801.434	390.65
801.614	300.54
801.794	239.1
801.974	1144.3
802.154	245.24
802.334	351.74
802.514	153.09
802.693	230.91
802.873	228.86
803.053	372.22
803.233	337.4
803.413	267.77
803.592	323.07
803.772	327.16
803.952	251.39
804.131	216.57
804.311	232.96
804.491	345.59
804.67	202.24
804.85	251.39
805.03	292.35
805.209	359.93
805.389	226.81
805.568	241.15
805.748	337.4
805.928	245.24
806.107	284.16
806.287	341.5
806.466	212.48
806.646	284.16
806.825	241.15
807.004	243.2
807.184	214.52
807.363	273.92
807.543	187.9
807.722	218.62
807.901	278.01
808.081	278.01
808.26	218.62
808.439	212.48
808.619	210.43
808.798	146.94
808.977	185.85
809.156	235
809.336	232.96
809.515	280.06
809.694	224.76
809.873	146.94
810.052	282.11
810.231	216.57
810.411	171.52
810.59	269.82
810.769	136.7
810.948	243.2
811.127	79.36
811.306	269.82
811.485	224.76
811.664	237.05
811.843	204.28
812.022	220.67
812.201	200.19
812.38	165.37
812.559	132.61
812.737	220.67
812.916	163.33
813.095	128.51
813.274	134.65
813.453	265.72
813.632	257.53
813.811	189.95
813.989	91.65
814.168	165.37
814.347	118.27
814.526	224.76
814.704	269.82
814.883	212.48
815.062	146.94
815.24	257.53
815.419	144.89
815.598	177.66
815.776	122.37
815.955	134.65
816.133	169.47
816.312	167.42
816.49	99.84
816.669	171.52
816.847	134.65
817.026	183.81
817.204	194.05
817.383	214.52
817.561	89.6
817.74	136.7
817.918	134.65
818.097	171.52
818.275	97.79
818.453	151.04
818.632	189.95
818.81	110.08
818.988	116.22
819.167	108.03
819.345	185.85
819.523	151.04
819.701	128.51
819.879	177.66
820.058	175.61
820.236	138.75
820.414	148.99
820.592	185.85
820.77	148.99
820.948	134.65
821.127	95.74
821.305	159.23
821.483	132.61
821.661	243.2
821.839	99.84
822.017	128.51
822.195	140.8
822.373	93.69
822.551	169.47
822.729	122.37
822.907	140.8
823.085	247.29
823.262	208.38
823.44	108.03
823.618	46.59
823.796	101.89
823.974	89.6
824.152	112.13
824.329	87.55
824.507	95.74
824.685	81.41
824.863	151.04
825.04	71.17
825.218	151.04
825.396	114.17
825.574	95.74
825.751	112.13
825.929	185.85
826.107	85.5
826.284	169.47
826.462	83.45
826.639	42.5
826.817	73.21
826.994	120.32
827.172	87.55
827.349	167.42
827.527	67.07
827.704	99.84
827.882	67.07
828.059	46.59
828.237	103.93
828.414	126.46
828.591	-12.8
828.769	95.74
828.946	-0.51
829.124	159.23
829.301	159.23
829.478	65.02
829.655	105.98
829.833	42.5
830.01	38.4
830.187	110.08
830.364	85.5
830.542	153.09
830.719	175.61
830.896	142.85
831.073	165.37
831.25	118.27
831.427	87.55
831.604	65.02
831.782	52.74
831.959	103.93
832.136	73.21
832.313	157.18
832.49	116.22
832.667	62.98
832.844	85.5
833.021	138.75
833.198	73.21
833.374	103.93
833.551	34.3
833.728	73.21
833.905	167.42
834.082	-2.56
834.259	120.32
834.436	173.57
834.612	38.4
834.789	204.28
834.966	48.64
835.143	50.69
835.319	56.83
835.496	112.13
835.673	97.79
835.85	134.65
836.026	91.65
836.203	108.03
836.38	32.26
836.556	120.32
836.733	-10.75
836.909	103.93
837.086	-4.61
837.262	52.74
837.439	-49.66
837.616	32.26
837.792	58.88
837.968	99.84
838.145	38.4
838.321	105.98
838.498	71.17
838.674	114.17
838.851	89.6
839.027	52.74
839.203	44.54
839.38	89.6
839.556	81.41
839.732	105.98
839.909	81.41
840.085	69.12
840.261	-35.33
840.437	-16.9
840.614	28.16
840.79	28.16
840.966	93.69
841.142	134.65
841.318	19.97
841.494	58.88
841.671	77.31
841.847	44.54
842.023	15.87
842.199	112.13
842.375	140.8
842.551	-20.99
842.727	-4.61
842.903	93.69
843.079	22.02
843.255	122.37
843.431	91.65
843.607	62.98
843.783	81.41
843.959	140.8
844.134	38.4
844.31	120.32
844.486	60.93
844.662	83.45
844.838	124.41
845.013	36.35
845.189	89.6
845.365	87.55
845.541	17.92
845.716	22.02
845.892	130.56
846.068	85.5
846.244	1.54
846.419	69.12
846.595	-6.66
846.77	1.54
846.946	73.21
847.122	-0.51
847.297	15.87
847.473	161.28
847.648	7.68
847.824	17.92
847.999	-10.75
848.175	28.16
848.35	120.32
848.526	5.63
848.701	65.02
848.876	89.6
849.052	26.11
849.227	28.16
849.403	19.97
849.578	-6.66
849.753	11.78
849.929	56.83
850.104	-23.04
850.279	71.17
850.454	101.89
850.63	85.5
850.805	52.74
850.98	77.31
851.155	87.55
851.33	54.78
851.505	-57.86
851.681	73.21
851.856	-2.56
852.031	65.02
852.206	28.16
852.381	-47.62
852.556	26.11
852.731	69.12
852.906	83.45
853.081	48.64
853.256	114.17
853.431	91.65
853.606	-57.86
853.781	-14.85
853.956	-70.14
854.131	77.31
854.305	-10.75
854.48	19.97
854.655	-16.9
854.83	-0.51
855.005	19.97
855.18	58.88
855.354	13.82
855.529	52.74
855.704	28.16
855.879	83.45
856.053	42.5
856.228	36.35
856.403	3.58
856.577	34.3
856.752	-74.24
856.926	40.45
857.101	54.78
857.276	-18.94
857.45	-12.8
857.625	58.88
857.799	26.11
857.974	42.5
858.148	-78.33
858.323	52.74
858.497	13.82
858.672	30.21
858.846	19.97
859.02	79.36
859.195	-39.42
859.369	69.12
859.543	-10.75
859.718	52.74
859.892	15.87
860.066	-4.61
860.241	95.74
860.415	71.17
860.589	13.82
860.763	-74.24
860.938	-12.8
861.112	91.65
861.286	-18.94
861.46	124.41
861.634	28.16
861.808	81.41
861.982	-14.85
862.157	-18.94
862.331	30.21
862.505	-4.61
862.679	38.4
862.853	38.4
863.027	22.02
863.201	38.4
863.375	-45.57
863.549	9.73
863.722	58.88
863.896	71.17
864.07	28.16
864.244	58.88
864.418	97.79
864.592	62.98
864.766	93.69
864.939	71.17
865.113	-16.9
865.287	30.21
865.461	-45.57
865.634	56.83
865.808	22.02
865.982	36.35
866.156	-55.81
866.329	13.82
866.503	22.02
866.676	77.31
866.85	-20.99
867.024	38.4
867.197	-14.85
867.371	15.87
867.544	-12.8
867.718	50.69
867.891	85.5
868.065	-59.9
868.238	56.83
868.412	69.12
868.585	17.92
868.759	-4.61
868.932	56.83
869.105	30.21
869.279	79.36
869.452	19.97
869.625	65.02
869.799	-45.57
869.972	5.63
870.145	-41.47
870.319	81.41
870.492	36.35
870.665	11.78
870.838	11.78
871.011	-66.05
871.185	48.64
871.358	-4.61
871.531	148.99
871.704	-20.99
871.877	-23.04
872.05	26.11
872.223	-41.47
872.396	85.5
872.569	79.36
872.742	-29.18
872.915	58.88
873.088	-45.57
873.261	-35.33
873.434	24.06
873.607	13.82
873.78	89.6
873.953	-27.14
874.126	-14.85
874.299	-29.18
874.471	-39.42
874.644	-10.75
874.817	44.54
874.99	71.17
875.163	11.78
875.335	15.87
875.508	-37.38
875.681	62.98
875.853	-27.14
876.026	-16.9
876.199	124.41
876.371	22.02
876.544	-14.85
876.717	-12.8
876.889	-33.28
877.062	89.6
877.234	46.59
877.407	5.63
877.579	-20.99
877.752	15.87
877.924	32.26
878.097	-4.61
878.269	28.16
878.442	13.82
878.614	54.78
878.786	-41.47
878.959	7.68
879.131	73.21
879.303	-59.9
879.476	22.02
879.648	30.21
879.82	32.26
879.993	9.73
880.165	-18.94
880.337	7.68
880.509	3.58
880.681	-49.66
880.854	11.78
881.026	79.36
881.198	148.99
881.37	7.68
881.542	-14.85
881.714	-10.75
881.886	65.02
882.058	-59.9
882.23	-74.24
882.402	-41.47
882.574	42.5
882.746	93.69
882.918	44.54
883.09	40.45
883.262	24.06
883.434	-25.09
883.606	-55.81
883.778	28.16
883.95	48.64
884.122	-23.04
884.293	13.82
884.465	3.58
884.637	-100.86
884.809	-8.7
884.98	11.78
885.152	44.54
885.324	38.4
885.496	15.87
885.667	13.82
885.839	-18.94
886.011	19.97
886.182	24.06
886.354	46.59
886.525	-31.23
886.697	-12.8
886.869	-12.8
887.04	60.93
887.212	122.37
887.383	122.37
887.555	30.21
887.726	-31.23
887.897	-49.66
888.069	3.58
888.24	15.87
888.412	-0.51
888.583	9.73
888.754	30.21
888.926	-33.28
889.097	3.58
889.268	-37.38
889.44	-74.24
889.611	-47.62
889.782	-43.52
889.953	-49.66
890.125	110.08
890.296	-27.14
890.467	-10.75
890.638	65.02
890.809	-18.94
890.98	-27.14
891.151	24.06
891.323	81.41
891.494	15.87
891.665	-18.94
891.836	-18.94
892.007	-53.76
892.178	-8.7
892.349	-14.85
892.52	54.78
892.691	-2.56
892.862	-25.09
893.032	-18.94
893.203	-90.62
893.374	40.45
893.545	56.83
893.716	1.54
893.887	-37.38
894.057	-45.57
894.228	50.69
894.399	-31.23
894.57	79.36
894.74	32.26
894.911	44.54
895.082	-102.91
895.253	11.78
895.423	24.06
895.594	-4.61
895.764	36.35
895.935	-4.61
896.106	-33.28
896.276	40.45
896.447	19.97
896.617	15.87
896.788	-74.24
896.958	-14.85
897.129	-29.18
897.299	-111.1
897.47	-0.51
897.64	44.54
897.81	36.35
897.981	19.97
898.151	44.54
898.322	-8.7
898.492	-35.33
898.662	-10.75
898.832	17.92
899.003	79.36
899.173	-10.75
899.343	7.68
899.513	-14.85
