Data from USB4F104151__15__12-11-37-360.txt Node

Date: Fri Mar 14 12:11:37 EDT 2025
User: louis
Spectrometer: USB4F10415
Trigger mode: 4
Integration Time (sec): 5.000000E-2
Scans to average: 1
Electric dark correction enabled: true
Nonlinearity correction enabled: false
Boxcar width: 0
XAxis mode: Wavelengths
Number of Pixels in Spectrum: 3648
>>>>>Begin Spectral Data<<<<<
178.204	-277.84
178.424	-277.84
178.644	-277.84
178.864	-263.51
179.084	-251.22
179.304	-17.75
179.524	-50.52
179.744	-40.28
179.964	109.22
180.184	21.16
180.404	17.07
180.624	8.87
180.844	31.4
181.064	-83.28
181.283	-1.37
181.503	-25.94
181.723	31.4
181.943	-89.43
182.163	43.69
182.383	31.4
182.602	51.88
182.822	80.55
183.042	-34.13
183.262	2.73
183.482	-1.37
183.701	64.17
183.921	6.83
184.141	-44.37
184.361	25.26
184.58	6.83
184.8	70.31
185.02	6.83
185.239	62.12
185.459	60.07
185.679	76.46
185.898	-21.85
186.118	29.35
186.338	66.22
186.557	27.31
186.777	4.78
186.997	21.16
187.216	-46.42
187.436	86.7
187.655	35.5
187.875	84.65
188.095	45.74
188.314	58.03
188.534	66.22
188.753	-36.18
188.973	101.03
189.192	105.13
189.412	-21.85
189.631	25.26
189.851	-19.8
190.07	103.08
190.29	25.26
190.509	-42.32
190.729	-21.85
190.948	10.92
191.168	223.91
191.387	64.17
191.607	15.02
191.826	66.22
192.045	-13.65
192.265	-38.23
192.484	-9.56
192.704	76.46
192.923	-101.72
193.142	127.66
193.362	86.7
193.581	152.23
193.8	37.55
194.02	2.73
194.239	2.73
194.458	29.35
194.678	10.92
194.897	41.64
195.116	-60.76
195.335	37.55
195.555	98.99
195.774	23.21
195.993	62.12
196.212	4.78
196.432	23.21
196.651	-50.52
196.87	49.83
197.089	90.79
197.308	64.17
197.528	8.87
197.747	-87.38
197.966	0.68
198.185	39.59
198.404	23.21
198.623	17.07
198.842	12.97
199.062	31.4
199.281	92.84
199.5	27.31
199.719	-1.37
199.938	72.36
200.157	62.12
200.376	58.03
200.595	12.97
200.814	92.84
201.033	31.4
201.252	60.07
201.471	33.45
201.69	88.75
201.909	25.26
202.128	62.12
202.347	39.59
202.566	-23.89
202.785	25.26
203.004	-38.23
203.223	105.13
203.442	-21.85
203.661	-23.89
203.879	-71
204.098	64.17
204.317	-56.66
204.536	12.97
204.755	55.98
204.974	49.83
205.193	-11.61
205.411	150.18
205.63	17.07
205.849	88.75
206.068	-13.65
206.287	2.73
206.505	43.69
206.724	53.93
206.943	27.31
207.162	25.26
207.381	-32.08
207.599	4.78
207.818	29.35
208.037	33.45
208.255	2.73
208.474	-11.61
208.693	127.66
208.911	2.73
209.13	66.22
209.349	72.36
209.567	58.03
209.786	31.4
210.005	-11.61
210.223	-52.56
210.442	2.73
210.661	10.92
210.879	35.5
211.098	4.78
211.316	2.73
211.535	-3.41
211.753	-3.41
211.972	19.11
212.191	-5.46
212.409	29.35
212.628	37.55
212.846	43.69
213.065	29.35
213.283	88.75
213.502	-5.46
213.72	55.98
213.938	10.92
214.157	10.92
214.375	70.31
214.594	15.02
214.812	25.26
215.031	51.88
215.249	-23.89
215.467	6.83
215.686	23.21
215.904	101.03
216.122	76.46
216.341	58.03
216.559	21.16
216.778	8.87
216.996	64.17
217.214	107.18
217.432	41.64
217.651	-19.8
217.869	-11.61
218.087	8.87
218.306	12.97
218.524	6.83
218.742	-40.28
218.96	25.26
219.179	-44.37
219.397	51.88
219.615	137.9
219.833	58.03
220.051	31.4
220.27	4.78
220.488	-5.46
220.706	0.68
220.924	47.79
221.142	-30.04
221.36	8.87
221.578	15.02
221.796	-7.51
222.015	-46.42
222.233	-30.04
222.451	58.03
222.669	31.4
222.887	8.87
223.105	4.78
223.323	-27.99
223.541	2.73
223.759	94.89
223.977	-36.18
224.195	39.59
224.413	62.12
224.631	-13.65
224.849	0.68
225.067	45.74
225.285	-66.9
225.503	31.4
225.721	-109.91
225.939	43.69
226.157	27.31
226.375	141.99
226.592	-25.94
226.81	29.35
227.028	72.36
227.246	105.13
227.464	37.55
227.682	25.26
227.9	45.74
228.117	8.87
228.335	-17.75
228.553	55.98
228.771	-5.46
228.989	37.55
229.206	105.13
229.424	76.46
229.642	-48.47
229.86	-42.32
230.077	113.32
230.295	47.79
230.513	78.51
230.731	-23.89
230.948	49.83
231.166	37.55
231.384	2.73
231.601	-36.18
231.819	115.37
232.037	-19.8
232.254	-13.65
232.472	-5.46
232.689	-64.85
232.907	103.08
233.125	-48.47
233.342	8.87
233.56	45.74
233.777	-15.7
233.995	-58.71
234.213	127.66
234.43	37.55
234.648	49.83
234.865	2.73
235.083	41.64
235.3	-7.51
235.518	19.11
235.735	-3.41
235.953	55.98
236.17	88.75
236.388	49.83
236.605	-34.13
236.822	98.99
237.04	55.98
237.257	-44.37
237.475	39.59
237.692	80.55
237.909	27.31
238.127	-23.89
238.344	37.55
238.562	31.4
238.779	-21.85
238.996	27.31
239.214	39.59
239.431	37.55
239.648	-1.37
239.865	49.83
240.083	117.42
240.3	-52.56
240.517	19.11
240.735	49.83
240.952	101.03
241.169	58.03
241.386	-25.94
241.603	-36.18
241.821	15.02
242.038	101.03
242.255	37.55
242.472	-77.14
242.689	2.73
242.907	45.74
243.124	74.41
243.341	-7.51
243.558	8.87
243.775	-27.99
243.992	-116.05
244.209	45.74
244.426	43.69
244.643	88.75
244.86	-48.47
245.078	51.88
245.295	74.41
245.512	68.27
245.729	43.69
245.946	19.11
246.163	17.07
246.38	-50.52
246.597	37.55
246.814	-19.8
247.031	72.36
247.248	27.31
247.464	62.12
247.681	-32.08
247.898	55.98
248.115	15.02
248.332	-36.18
248.549	-25.94
248.766	41.64
248.983	37.55
249.2	31.4
249.417	-17.75
249.633	72.36
249.85	113.32
250.067	10.92
250.284	43.69
250.501	-3.41
250.717	70.31
250.934	-3.41
251.151	-30.04
251.368	27.31
251.585	4.78
251.801	41.64
252.018	-13.65
252.235	88.75
252.451	-48.47
252.668	0.68
252.885	-1.37
253.102	-30.04
253.318	27.31
253.535	-25.94
253.752	-23.89
253.968	4.78
254.185	-25.94
254.401	27.31
254.618	8.87
254.835	-34.13
255.051	66.22
255.268	53.93
255.484	53.93
255.701	-52.56
255.917	86.7
256.134	6.83
256.351	2.73
256.567	-21.85
256.784	-1.37
257	-52.56
257.217	25.26
257.433	31.4
257.65	76.46
257.866	31.4
258.082	-3.41
258.299	-56.66
258.515	6.83
258.732	-19.8
258.948	-44.37
259.165	4.78
259.381	-95.57
259.597	0.68
259.814	-17.75
260.03	-15.7
260.246	23.21
260.463	92.84
260.679	29.35
260.895	39.59
261.112	53.93
261.328	45.74
261.544	-54.61
261.761	98.99
261.977	-27.99
262.193	-3.41
262.409	78.51
262.626	27.31
262.842	53.93
263.058	27.31
263.274	-7.51
263.49	64.17
263.707	55.98
263.923	31.4
264.139	-13.65
264.355	31.4
264.571	37.55
264.787	4.78
265.004	53.93
265.22	27.31
265.436	21.16
265.652	76.46
265.868	-32.08
266.084	-25.94
266.3	23.21
266.516	25.26
266.732	92.84
266.948	19.11
267.164	10.92
267.38	45.74
267.596	-7.51
267.812	72.36
268.028	-11.61
268.244	0.68
268.46	-3.41
268.676	-62.8
268.892	-17.75
269.108	29.35
269.324	2.73
269.54	10.92
269.756	51.88
269.972	-46.42
270.188	6.83
270.403	58.03
270.619	62.12
270.835	70.31
271.051	-40.28
271.267	-46.42
271.483	37.55
271.698	-50.52
271.914	31.4
272.13	12.97
272.346	0.68
272.562	17.07
272.777	90.79
272.993	43.69
273.209	-1.37
273.425	55.98
273.64	-68.95
273.856	88.75
274.072	10.92
274.287	-38.23
274.503	4.78
274.719	58.03
274.934	-46.42
275.15	-19.8
275.366	98.99
275.581	-52.56
275.797	19.11
276.012	-15.7
276.228	-11.61
276.444	-9.56
276.659	31.4
276.875	-75.09
277.09	-36.18
277.306	-21.85
277.521	47.79
277.737	-27.99
277.952	31.4
278.168	-38.23
278.383	-5.46
278.599	21.16
278.814	4.78
279.03	-21.85
279.245	47.79
279.461	58.03
279.676	27.31
279.892	4.78
280.107	-62.8
280.322	35.5
280.538	-3.41
280.753	-68.95
280.969	88.75
281.184	-48.47
281.399	117.42
281.615	-56.66
281.83	35.5
282.045	-1.37
282.26	-17.75
282.476	19.11
282.691	68.27
282.906	23.21
283.122	-13.65
283.337	-19.8
283.552	-38.23
283.767	-11.61
283.983	25.26
284.198	-42.32
284.413	33.45
284.628	-9.56
284.843	119.46
285.058	-1.37
285.274	-48.47
285.489	35.5
285.704	15.02
285.919	0.68
286.134	23.21
286.349	-32.08
286.564	-27.99
286.779	109.22
286.995	21.16
287.21	-60.76
287.425	4.78
287.64	-5.46
287.855	12.97
288.07	-56.66
288.285	58.03
288.5	35.5
288.715	27.31
288.93	-50.52
289.145	39.59
289.36	-30.04
289.575	-13.65
289.79	115.37
290.004	21.16
290.219	45.74
290.434	80.55
290.649	-25.94
290.864	31.4
291.079	17.07
291.294	-15.7
291.509	68.27
291.724	-13.65
291.938	-58.71
292.153	37.55
292.368	-19.8
292.583	2.73
292.798	105.13
293.012	29.35
293.227	39.59
293.442	-120.15
293.657	39.59
293.871	58.03
294.086	-3.41
294.301	72.36
294.516	-9.56
294.73	-11.61
294.945	4.78
295.16	31.4
295.374	37.55
295.589	70.31
295.804	29.35
296.018	82.6
296.233	115.37
296.447	4.78
296.662	-34.13
296.877	68.27
297.091	64.17
297.306	23.21
297.52	41.64
297.735	-56.66
297.949	15.02
298.164	2.73
298.378	27.31
298.593	31.4
298.807	-46.42
299.022	27.31
299.236	10.92
299.451	23.21
299.665	-3.41
299.88	12.97
300.094	6.83
300.309	64.17
300.523	37.55
300.737	-13.65
300.952	12.97
301.166	92.84
301.381	-62.8
301.595	-32.08
301.809	51.88
302.024	4.78
302.238	-11.61
302.452	25.26
302.667	-34.13
302.881	78.51
303.095	35.5
303.309	76.46
303.524	19.11
303.738	-17.75
303.952	-48.47
304.166	55.98
304.381	-52.56
304.595	82.6
304.809	-30.04
305.023	-15.7
305.237	43.69
305.452	-60.76
305.666	94.89
305.88	43.69
306.094	62.12
306.308	31.4
306.522	27.31
306.736	96.94
306.95	62.12
307.164	58.03
307.379	-17.75
307.593	47.79
307.807	60.07
308.021	76.46
308.235	70.31
308.449	-71
308.663	4.78
308.877	43.69
309.091	2.73
309.305	47.79
309.519	2.73
309.733	103.08
309.947	-38.23
310.161	10.92
310.374	15.02
310.588	19.11
310.802	29.35
311.016	-15.7
311.23	-19.8
311.444	-56.66
311.658	47.79
311.872	82.6
312.085	8.87
312.299	60.07
312.513	4.78
312.727	10.92
312.941	-23.89
313.154	58.03
313.368	-11.61
313.582	10.92
313.796	12.97
314.009	15.02
314.223	35.5
314.437	55.98
314.651	43.69
314.864	-7.51
315.078	8.87
315.292	-11.61
315.505	-3.41
315.719	23.21
315.933	51.88
316.146	15.02
316.36	45.74
316.573	135.85
316.787	43.69
317.001	37.55
317.214	-13.65
317.428	-71
317.641	-60.76
317.855	-50.52
318.068	37.55
318.282	47.79
318.495	101.03
318.709	6.83
318.922	29.35
319.136	17.07
319.349	47.79
319.563	47.79
319.776	-5.46
319.99	-60.76
320.203	74.41
320.417	45.74
320.63	19.11
320.843	86.7
321.057	68.27
321.27	21.16
321.483	-42.32
321.697	105.13
321.91	55.98
322.124	-81.24
322.337	-1.37
322.55	21.16
322.763	17.07
322.977	15.02
323.19	-9.56
323.403	10.92
323.617	2.73
323.83	86.7
324.043	-23.89
324.256	-7.51
324.469	-11.61
324.683	115.37
324.896	33.45
325.109	90.79
325.322	-48.47
325.535	12.97
325.748	0.68
325.962	-64.85
326.175	37.55
326.388	43.69
326.601	66.22
326.814	-54.61
327.027	45.74
327.24	45.74
327.453	-54.61
327.666	45.74
327.879	121.51
328.092	37.55
328.305	96.94
328.518	-48.47
328.731	-73.04
328.944	64.17
329.157	6.83
329.37	29.35
329.583	74.41
329.796	82.6
330.009	-48.47
330.222	86.7
330.435	62.12
330.648	12.97
330.861	-1.37
331.073	-13.65
331.286	23.21
331.499	107.18
331.712	-13.65
331.925	-19.8
332.138	33.45
332.35	41.64
332.563	2.73
332.776	33.45
332.989	8.87
333.202	49.83
333.414	-38.23
333.627	-1.37
333.84	41.64
334.053	60.07
334.265	-36.18
334.478	17.07
334.691	47.79
334.903	-5.46
335.116	-7.51
335.329	12.97
335.541	45.74
335.754	68.27
335.966	-7.51
336.179	-13.65
336.392	-46.42
336.604	62.12
336.817	66.22
337.029	21.16
337.242	4.78
337.454	37.55
337.667	-3.41
337.88	66.22
338.092	53.93
338.305	19.11
338.517	27.31
338.729	21.16
338.942	101.03
339.154	-48.47
339.367	-36.18
339.579	-48.47
339.792	-17.75
340.004	103.08
340.217	25.26
340.429	64.17
340.641	74.41
340.854	17.07
341.066	66.22
341.278	101.03
341.491	64.17
341.703	92.84
341.915	-23.89
342.128	31.4
342.34	4.78
342.552	-68.95
342.764	51.88
342.977	25.26
343.189	-3.41
343.401	25.26
343.613	-21.85
343.826	92.84
344.038	-40.28
344.25	39.59
344.462	-50.52
344.674	33.45
344.886	41.64
345.099	49.83
345.311	-3.41
345.523	-27.99
345.735	51.88
345.947	21.16
346.159	-46.42
346.371	41.64
346.583	8.87
346.795	53.93
347.007	-21.85
347.219	2.73
347.431	2.73
347.643	111.27
347.855	27.31
348.067	139.94
348.279	-30.04
348.491	111.27
348.703	27.31
348.915	10.92
349.127	-7.51
349.339	49.83
349.551	-52.56
349.763	-40.28
349.975	45.74
350.187	53.93
350.399	19.11
350.61	10.92
350.822	-25.94
351.034	21.16
351.246	58.03
351.458	55.98
351.669	37.55
351.881	15.02
352.093	0.68
352.305	15.02
352.517	53.93
352.728	64.17
352.94	-7.51
353.152	0.68
353.363	23.21
353.575	37.55
353.787	86.7
353.999	12.97
354.21	111.27
354.422	70.31
354.633	29.35
354.845	12.97
355.057	41.64
355.268	41.64
355.48	92.84
355.692	-36.18
355.903	-9.56
356.115	-32.08
356.326	-15.7
356.538	105.13
356.749	51.88
356.961	4.78
357.172	-17.75
357.384	-68.95
357.595	121.51
357.807	-71
358.018	55.98
358.23	-15.7
358.441	90.79
358.653	-15.7
358.864	2.73
359.075	-9.56
359.287	25.26
359.498	19.11
359.709	55.98
359.921	58.03
360.132	23.21
360.344	58.03
360.555	27.31
360.766	53.93
360.977	27.31
361.189	45.74
361.4	29.35
361.611	25.26
361.823	129.7
362.034	35.5
362.245	-25.94
362.456	-36.18
362.667	82.6
362.879	37.55
363.09	0.68
363.301	103.08
363.512	35.5
363.723	10.92
363.935	12.97
364.146	25.26
364.357	-32.08
364.568	15.02
364.779	29.35
364.99	55.98
365.201	76.46
365.412	60.07
365.623	-75.09
365.834	45.74
366.045	-21.85
366.256	10.92
366.467	62.12
366.678	45.74
366.889	-44.37
367.1	-52.56
367.311	64.17
367.522	-19.8
367.733	4.78
367.944	33.45
368.155	45.74
368.366	90.79
368.577	127.66
368.788	80.55
368.999	-19.8
369.209	2.73
369.42	113.32
369.631	113.32
369.842	21.16
370.053	-21.85
370.264	64.17
370.474	45.74
370.685	6.83
370.896	27.31
371.107	98.99
371.317	2.73
371.528	17.07
371.739	10.92
371.95	0.68
372.16	6.83
372.371	-5.46
372.582	-25.94
372.792	41.64
373.003	17.07
373.214	-21.85
373.424	37.55
373.635	-56.66
373.846	47.79
374.056	29.35
374.267	49.83
374.477	15.02
374.688	-34.13
374.898	47.79
375.109	12.97
375.319	8.87
375.53	12.97
375.74	17.07
375.951	-7.51
376.161	41.64
376.372	72.36
376.582	10.92
376.793	29.35
377.003	12.97
377.214	-9.56
377.424	117.42
377.635	-48.47
377.845	-42.32
378.055	70.31
378.266	-36.18
378.476	-21.85
378.686	2.73
378.897	-13.65
379.107	66.22
379.317	84.65
379.528	35.5
379.738	51.88
379.948	-73.04
380.158	4.78
380.369	10.92
380.579	82.6
380.789	43.69
380.999	74.41
381.21	47.79
381.42	76.46
381.63	8.87
381.84	47.79
382.05	2.73
382.261	80.55
382.471	58.03
382.681	-38.23
382.891	115.37
383.101	84.65
383.311	-62.8
383.521	23.21
383.731	41.64
383.941	86.7
384.151	-1.37
384.361	19.11
384.571	66.22
384.781	35.5
384.991	39.59
385.201	103.08
385.411	60.07
385.621	41.64
385.831	62.12
386.041	49.83
386.251	-15.7
386.461	72.36
386.671	-60.76
386.881	25.26
387.091	62.12
387.301	94.89
387.511	78.51
387.72	8.87
387.93	60.07
388.14	-81.24
388.35	43.69
388.56	111.27
388.769	58.03
388.979	-71
389.189	-44.37
389.399	0.68
389.609	80.55
389.818	103.08
390.028	-3.41
390.238	31.4
390.447	12.97
390.657	72.36
390.867	23.21
391.076	107.18
391.286	29.35
391.496	-32.08
391.705	19.11
391.915	96.94
392.125	88.75
392.334	51.88
392.544	94.89
392.753	92.84
392.963	-30.04
393.172	37.55
393.382	21.16
393.591	144.04
393.801	4.78
394.01	35.5
394.22	-23.89
394.429	35.5
394.639	47.79
394.848	76.46
395.058	31.4
395.267	-21.85
395.477	80.55
395.686	-36.18
395.895	129.7
396.105	205.48
396.314	-9.56
396.524	37.55
396.733	53.93
396.942	86.7
397.152	70.31
397.361	68.27
397.57	25.26
397.78	-21.85
397.989	62.12
398.198	105.13
398.407	35.5
398.617	96.94
398.826	41.64
399.035	33.45
399.244	74.41
399.453	35.5
399.663	43.69
399.872	70.31
400.081	39.59
400.29	80.55
400.499	-19.8
400.708	64.17
400.917	76.46
401.127	68.27
401.336	84.65
401.545	148.14
401.754	117.42
401.963	19.11
402.172	47.79
402.381	43.69
402.59	-3.41
402.799	-11.61
403.008	131.75
403.217	51.88
403.426	154.28
403.635	64.17
403.844	21.16
404.053	78.51
404.262	60.07
404.471	98.99
404.68	127.66
404.888	47.79
405.097	51.88
405.306	53.93
405.515	195.24
405.724	82.6
405.933	150.18
406.142	70.31
406.35	141.99
406.559	125.61
406.768	123.56
406.977	213.67
407.185	185
407.394	82.6
407.603	150.18
407.812	225.96
408.02	135.85
408.229	111.27
408.438	172.71
408.646	68.27
408.855	119.46
409.064	150.18
409.272	154.28
409.481	201.38
409.69	137.9
409.898	141.99
410.107	221.86
410.315	223.91
410.524	191.14
410.733	170.66
410.941	234.15
411.15	311.97
411.358	293.54
411.567	322.21
411.775	303.78
411.984	240.29
412.192	250.53
412.401	193.19
412.609	326.31
412.818	326.31
413.026	359.08
413.234	279.21
413.443	207.53
413.651	303.78
413.86	385.7
414.068	352.93
414.276	506.53
414.485	389.8
414.693	424.61
414.901	490.15
415.11	348.84
415.318	445.09
415.526	436.9
415.734	537.25
415.943	524.96
416.151	481.96
416.359	436.9
416.567	582.31
416.776	527.01
416.984	645.79
417.192	613.03
417.4	582.31
417.608	494.24
417.817	621.22
418.025	647.84
418.233	813.73
418.441	664.22
418.649	711.33
418.857	780.96
419.065	799.39
419.273	819.87
419.481	854.69
419.689	912.03
419.897	856.73
420.105	895.64
420.313	1045.15
420.521	1030.81
420.729	1043.1
420.937	973.47
421.145	1049.24
421.353	1108.63
421.561	1192.6
421.769	1188.5
421.977	1241.75
422.185	1235.61
422.393	1397.4
422.601	1460.88
422.809	1424.02
423.017	1426.07
423.224	1553.04
423.432	1553.04
423.64	1538.71
423.848	1747.6
424.056	1604.24
424.263	1696.4
424.471	1704.59
424.679	1860.24
424.887	1817.23
425.094	2017.93
425.302	1950.35
425.51	2030.22
425.718	2067.08
425.925	2136.71
426.133	2169.48
426.341	2407.05
426.548	2388.61
426.756	2423.43
426.964	2372.23
427.171	2482.82
427.379	2718.34
427.586	2648.71
427.794	2740.86
428.001	2892.41
428.209	3052.16
428.417	2970.24
428.624	3256.95
428.832	3086.97
429.039	3224.19
429.247	3064.44
429.454	3443.32
429.662	3566.2
429.869	3334.78
430.076	3572.34
430.284	3553.91
430.491	3793.52
430.699	3906.16
430.906	3940.97
431.114	3924.59
431.321	4100.72
431.528	4055.66
431.736	4315.75
431.943	4569.7
432.15	4489.83
432.358	4510.31
432.565	4936.29
432.772	4715.11
432.979	5028.45
433.187	4938.34
433.394	5210.72
433.601	5569.11
433.808	5495.38
434.016	5552.73
434.223	5655.12
434.43	5902.93
434.637	5980.75
434.844	6128.21
435.052	6416.97
435.259	6263.37
435.466	6574.66
435.673	6382.15
435.88	6718.02
436.087	6996.54
436.294	7182.91
436.501	7174.72
436.708	7117.37
436.915	7213.63
437.122	7723.57
437.329	7662.13
437.537	7901.75
437.743	7922.23
437.95	8038.96
438.157	8391.21
438.364	8774.18
438.571	8745.51
438.778	8843.81
438.985	9519.64
439.192	9288.22
439.399	9384.48
439.606	9136.67
439.813	9669.14
440.02	10277.39
440.227	10121.74
440.433	10101.26
440.64	10557.96
440.847	10187.28
441.054	10502.67
441.261	11430.4
441.467	11035.14
441.674	11188.74
441.881	11690.49
442.088	11819.51
442.294	11758.07
442.501	12030.45
442.708	12259.82
442.914	12517.87
443.121	13113.83
443.328	12931.56
443.534	13752.79
443.741	13484.51
443.948	13093.35
444.154	14053.84
444.361	14244.31
444.568	14203.35
444.774	14141.91
444.981	14453.2
445.187	14932.42
445.394	15438.27
445.6	15102.4
445.807	16751.02
446.013	15790.52
446.22	15946.17
446.426	16705.96
446.633	17050.02
446.839	17742.24
447.046	16849.32
447.252	17918.36
447.459	17703.32
447.665	17830.3
447.871	18676.11
448.078	19362.18
448.284	18553.23
448.491	18987.4
448.697	19616.13
448.903	20148.6
449.11	20038.01
449.316	19855.74
449.522	20304.24
449.728	20705.65
449.935	20654.45
450.141	20820.33
450.347	21582.18
450.553	20578.67
450.76	20969.83
450.966	21602.66
451.172	21320.04
451.378	21856.61
451.584	21352.8
451.791	22083.93
451.997	21903.71
452.203	22395.22
452.409	22624.59
452.615	22069.59
452.821	21420.39
453.027	20990.31
453.233	22528.34
453.44	21670.24
453.646	21655.9
453.852	21846.37
454.058	22389.08
454.264	21246.31
454.47	21776.73
454.676	21432.68
454.882	22079.83
455.088	20013.43
455.294	20470.13
455.5	20773.23
455.705	21061.99
455.911	20463.99
456.117	19726.72
456.323	19372.42
456.529	18516.37
456.735	19253.64
456.941	19005.83
457.147	18293.14
457.352	17797.53
457.558	17551.77
457.764	17727.9
457.97	17357.22
458.176	16986.54
458.381	16867.75
458.587	15929.78
458.793	16368.05
458.999	15346.11
459.204	16441.78
459.41	15724.99
459.616	14823.88
459.821	15155.65
460.027	14735.82
460.233	14565.84
460.438	13679.07
460.644	13937.11
460.85	13580.76
461.055	13033.96
461.261	12831.21
461.466	12167.66
461.672	11688.44
461.878	12446.19
462.083	11782.65
462.289	11549.18
462.494	11551.23
462.7	10906.12
462.905	10492.43
463.111	10951.17
463.316	11035.14
463.522	10496.52
463.727	10639.88
463.932	10527.24
464.138	10621.45
464.343	10533.39
464.549	10381.84
464.754	10625.54
464.959	10568.2
465.165	10625.54
465.37	10080.78
465.575	9843.22
465.781	10109.46
465.986	10455.56
466.191	9775.64
466.397	9462.3
466.602	9296.41
466.807	9724.44
467.012	9570.84
467.218	9327.13
467.423	9456.15
467.628	9511.45
467.833	9742.87
468.038	9486.87
468.244	9030.18
468.449	9488.92
468.654	9237.02
468.859	9216.54
469.064	9048.61
469.269	8815.14
469.474	8819.24
469.679	9052.7
469.885	8657.45
470.09	8911.39
470.295	8852
470.5	8737.32
470.705	8606.25
470.91	8423.98
471.115	8294.96
471.32	8395.31
471.525	8452.65
471.73	8348.2
471.935	8167.98
472.139	7762.48
472.344	7862.83
472.549	8002.1
472.754	7860.79
472.959	7774.77
473.164	7582.26
473.369	7586.36
473.574	7770.68
473.778	7615.03
473.983	7592.5
474.188	7633.46
474.393	7162.43
474.598	7307.84
474.802	7023.17
475.007	7006.78
475.212	7152.19
475.417	6826.56
475.621	6814.27
475.826	6826.56
476.031	6883.91
476.235	6537.8
476.44	6629.96
476.645	6582.85
476.849	6507.08
477.054	6539.85
477.259	6429.26
477.463	6359.63
477.668	6341.19
477.872	6339.15
478.077	6296.14
478.282	6070.86
478.486	6169.16
478.691	5954.13
478.895	6060.62
479.1	5849.68
479.304	5962.32
479.509	5722.71
479.713	5960.27
479.918	5700.18
480.122	5677.65
480.326	5743.19
480.531	5743.19
480.735	5399.13
480.94	5755.47
481.144	5667.41
481.348	5497.43
481.553	5513.81
481.757	5329.5
481.961	5444.18
482.166	5532.25
482.37	5417.56
482.574	5323.35
482.778	5423.7
482.983	5423.7
483.187	5485.14
483.391	5581.4
483.595	5474.9
483.8	5546.58
484.004	5466.71
484.208	5622.36
484.412	5390.94
484.616	5431.9
484.821	5440.09
485.025	5382.74
485.229	5360.22
485.433	5220.95
485.637	5370.46
485.841	5317.21
486.045	5446.23
486.249	5444.18
486.453	5382.74
486.657	5501.53
486.861	5360.22
487.065	5335.64
487.269	5313.11
487.473	5452.38
487.677	5374.55
487.881	5550.68
488.085	5472.86
488.289	5339.74
488.493	5411.42
488.697	5397.08
488.901	5388.89
489.105	5362.26
489.309	5419.61
489.512	5573.21
489.716	5474.9
489.92	5517.91
490.124	5505.62
490.328	5509.72
490.531	5550.68
490.735	5483.09
490.939	5616.21
491.143	5556.82
491.346	5620.31
491.55	5675.6
491.754	5612.12
491.958	5489.24
492.161	5530.2
492.365	5626.45
492.569	5786.19
492.772	5788.24
492.976	5755.47
493.18	5677.65
493.383	5927.5
493.587	5784.15
493.79	6040.14
493.994	5960.27
494.197	5874.26
494.401	5911.12
494.605	5939.79
494.808	6214.22
495.012	5993.04
495.215	6093.39
495.419	6283.85
495.622	6177.36
495.825	6095.44
496.029	6189.64
496.232	6556.23
496.436	6412.87
496.639	6523.46
496.843	6453.83
497.046	6640.2
497.249	6842.95
497.453	6791.75
497.656	6881.86
497.859	6851.14
498.063	6885.95
498.266	7221.82
498.469	7066.17
498.673	7127.61
498.876	7131.71
499.079	7275.07
499.282	7250.49
499.485	7576.12
499.689	7408.19
499.892	7600.69
500.095	7543.35
500.298	7817.78
500.501	7717.43
500.705	7957.04
500.908	8254
501.111	8106.54
501.314	8071.73
501.517	8210.99
501.72	8241.71
501.923	8245.8
502.126	8528.42
502.329	8733.22
502.532	8647.21
502.735	8688.17
502.938	8905.25
503.141	8903.2
503.344	9048.61
503.547	9167.39
503.75	9304.6
503.953	9224.73
504.156	9576.98
504.359	9382.43
504.562	9638.42
504.765	9658.9
504.968	9927.19
505.17	9841.17
505.373	9871.89
505.576	10041.87
505.779	10193.42
505.982	10222.09
506.185	10347.02
506.387	10314.25
506.59	10555.91
506.793	10979.84
506.996	10936.84
507.198	11010.56
507.401	10979.84
507.604	11137.54
507.807	11282.94
508.009	11311.61
508.212	11571.71
508.415	11661.82
508.617	11614.71
508.82	11852.28
509.022	11620.86
509.225	12147.19
509.428	12042.74
509.63	12417.52
509.833	12272.11
510.035	12642.79
510.238	12655.08
510.44	12585.45
510.643	12702.18
510.845	13017.57
511.048	13017.57
511.25	13173.22
511.453	13148.64
511.655	13654.49
511.858	13556.19
512.06	13504.99
512.262	13640.15
512.465	13744.6
512.667	14023.12
512.87	13984.21
513.072	13980.12
513.274	14541.26
513.477	14455.25
513.679	14537.16
513.881	14580.17
514.084	14950.85
514.286	14934.47
514.488	14965.19
514.69	15348.16
514.893	15149.51
515.095	15360.45
515.297	15624.64
515.499	15729.08
515.701	15819.19
515.904	15843.77
516.106	16204.21
516.308	16044.47
516.51	16329.14
516.712	16202.16
516.914	16492.97
517.116	16626.09
517.318	16814.51
517.52	16691.63
517.722	16966.06
517.925	17142.18
518.127	17101.22
518.329	17416.61
518.531	17160.61
518.733	17598.88
518.935	17564.06
519.136	17551.77
519.338	18020.76
519.54	17879.45
519.742	18151.83
519.944	18127.25
520.146	18370.96
520.348	18667.92
520.55	18428.31
520.752	18622.86
520.954	18885
521.155	18940.3
521.357	19001.74
521.559	19210.63
521.761	19157.38
521.963	19493.25
522.164	19532.16
522.366	19511.68
522.568	19777.92
522.77	19581.31
522.971	20056.44
523.173	19972.47
523.375	20027.77
523.576	20031.86
523.778	20152.7
523.98	20214.13
524.181	20504.95
524.383	20466.03
524.584	20670.83
524.786	20472.18
524.988	20453.75
525.189	20543.86
525.391	20996.46
525.592	21182.82
525.794	21272.93
525.995	21236.07
526.197	21105
526.398	21270.89
526.6	21100.9
526.801	21277.03
527.003	21191.02
527.204	21107.05
527.406	21625.18
527.607	21365.09
527.808	21721.44
528.01	21608.8
528.211	21195.11
528.412	21995.87
528.614	21940.57
528.815	21410.15
529.016	22092.12
529.218	21508.45
529.419	21614.94
529.62	21600.61
529.822	21698.91
530.023	21766.49
530.224	22053.21
530.425	21866.84
530.626	21723.49
530.828	21520.74
531.029	22202.71
531.23	21797.21
531.431	21719.39
531.632	22018.39
531.833	22147.42
532.035	21979.48
532.236	21985.63
532.437	21969.24
532.638	21897.56
532.839	21854.56
533.04	22202.71
533.241	21883.23
533.442	22618.45
533.643	22313.3
533.844	21999.96
534.045	22208.86
534.246	21973.34
534.447	21899.61
534.648	22036.83
534.849	22116.7
535.05	21948.76
535.251	22075.74
535.451	22120.79
535.652	22051.16
535.853	21860.7
536.054	21768.54
536.255	22028.63
536.456	21971.29
536.657	22481.24
536.857	21860.7
537.058	21838.17
537.259	22313.3
537.46	21911.9
537.66	21885.28
537.861	21977.44
538.062	21959
538.263	21983.58
538.463	21991.77
538.664	21893.47
538.865	22085.98
539.065	21954.91
539.266	21528.93
539.466	21770.59
539.667	22159.7
539.868	22219.1
540.068	21696.86
540.269	21852.51
540.469	22137.18
540.67	21860.7
540.87	22229.34
541.071	21713.25
541.271	21981.53
541.472	21739.87
541.672	21735.77
541.873	21844.32
542.073	21668.19
542.274	21811.55
542.474	21899.61
542.675	21780.83
542.875	21852.51
543.075	21737.82
543.276	21678.43
543.476	21813.6
543.676	21981.53
543.877	22067.55
544.077	21829.98
544.277	21696.86
544.478	21698.91
544.678	21907.8
544.878	21635.42
545.078	21866.84
545.279	21487.97
545.479	21637.47
545.679	21737.82
545.879	21703.01
546.079	21782.88
546.28	21541.22
546.48	21631.33
546.68	21932.38
546.88	21664.1
547.08	21686.62
547.28	21703.01
547.48	21367.14
547.68	21846.37
547.88	21365.09
548.081	21567.84
548.281	21885.28
548.481	21735.77
548.681	21797.21
548.881	21741.92
549.081	21647.71
549.28	21168.49
549.48	21586.27
549.68	21408.1
549.88	21608.8
550.08	21211.49
550.28	21737.82
550.48	21776.73
550.68	22196.57
550.88	21420.39
551.08	21522.79
551.279	21453.16
551.479	21178.73
551.679	21729.63
551.879	21627.23
552.079	21801.31
552.278	21311.85
552.478	21670.24
552.678	21606.75
552.878	21442.92
553.077	21557.6
553.277	21328.23
553.477	21559.65
553.676	21365.09
553.876	21301.61
554.076	21348.71
554.275	21195.11
554.475	21287.27
554.674	21311.85
554.874	21576.03
555.074	21311.85
555.273	21234.02
555.473	21594.47
555.672	21246.31
555.872	21303.65
556.071	21412.2
556.271	21864.8
556.47	21150.06
556.67	21264.74
556.869	21463.4
557.068	21524.83
557.268	21352.8
557.467	21440.87
557.667	21354.85
557.866	21336.42
558.065	21174.63
558.265	21100.9
558.464	21264.74
558.663	21313.89
558.863	21219.69
559.062	21250.41
559.261	21258.6
559.461	21401.96
559.66	21148.01
559.859	21285.22
560.058	20926.83
560.258	21096.81
560.457	21168.49
560.656	21438.82
560.855	21027.18
561.054	21137.77
561.253	21115.24
561.453	21268.84
561.652	21283.17
561.851	21160.3
562.05	20894.06
562.249	21246.31
562.448	21363.04
562.647	20754.8
562.846	21055.85
563.045	20922.73
563.244	21074.28
563.443	21154.15
563.642	20806
563.841	20799.85
564.04	20996.46
564.239	20986.22
564.438	21012.84
564.637	20959.59
564.836	20975.98
565.035	20791.66
565.234	21070.19
565.432	20799.85
565.631	20949.35
565.83	20865.39
566.029	20744.56
566.228	20808.05
566.427	20867.44
566.625	20562.29
566.824	20697.45
567.023	20914.54
567.222	20504.95
567.42	20859.24
567.619	20781.42
567.818	20742.51
568.016	20705.65
568.215	20877.68
568.414	20457.84
568.612	20777.33
568.811	20455.79
569.01	20810.09
569.208	19990.91
569.407	20578.67
569.605	20486.51
569.804	20701.55
570.002	20564.34
570.201	20599.15
570.4	20558.19
570.598	20552.05
570.797	20179.32
570.995	20511.09
571.193	20283.77
571.392	20488.56
571.59	20111.74
571.789	20341.11
571.987	20259.19
572.186	20412.79
572.384	20033.91
572.582	20058.49
572.781	20046.2
572.979	19980.67
573.177	20396.4
573.376	20341.11
573.574	19892.6
573.772	20103.54
573.971	20265.33
574.169	20107.64
574.367	19767.68
574.565	19863.93
574.763	19956.09
574.962	19503.49
575.16	19739.01
575.358	19763.58
575.556	19603.84
575.754	20087.16
575.952	19683.71
576.151	20029.82
576.349	19863.93
576.547	19698.05
576.745	19724.67
576.943	20025.72
577.141	19718.53
577.339	19777.92
577.537	19431.81
577.735	19722.62
577.933	19233.16
578.131	19636.61
578.329	19396.99
578.527	19282.31
578.725	19532.16
578.923	19399.04
579.121	19612.03
579.319	19093.9
579.516	19222.92
579.714	19208.58
579.912	19448.19
580.11	19120.52
580.308	19388.8
580.506	19173.77
580.704	18833.8
580.901	18870.67
581.099	19198.34
581.297	19210.63
581.495	19079.56
581.692	18903.43
581.89	19175.81
582.088	18839.95
582.285	19093.9
582.483	19097.99
582.681	18925.96
582.878	18842
583.076	18778.51
583.274	18743.69
583.471	18735.5
583.669	18737.55
583.866	18674.06
584.064	18680.21
584.262	18364.82
584.459	18784.65
584.657	18606.48
584.854	18801.04
585.052	18227.6
585.249	18618.77
585.447	18641.29
585.644	18057.62
585.841	18467.22
586.039	18413.97
586.236	18151.83
586.434	18268.56
586.631	18413.97
586.828	18342.29
587.026	18262.42
587.223	18350.48
587.42	18182.55
587.618	18039.19
587.815	17973.66
588.012	17928.6
588.21	17910.17
588.407	18076.05
588.604	17772.96
588.801	17830.3
588.999	18063.77
589.196	17850.78
589.393	17830.3
589.59	17871.26
589.787	17592.73
589.984	17643.93
590.182	17867.16
590.379	17705.37
590.576	17533.34
590.773	17803.67
590.97	17559.97
591.167	17457.57
591.364	17385.89
591.561	17332.64
591.758	17430.94
591.955	17267.11
592.152	17633.69
592.349	17338.79
592.546	17465.76
592.743	17387.94
592.94	17086.89
593.137	17205.67
593.334	17375.65
593.531	16964.01
593.727	17174.95
593.924	17070.5
594.121	16857.51
594.318	17416.61
594.515	16912.81
594.712	17136.04
594.908	17109.41
595.105	16857.51
595.302	16814.51
595.499	16884.14
595.696	16976.3
595.892	16714.16
596.089	16775.59
596.286	16787.88
596.482	16677.29
596.679	16779.69
596.876	16861.61
597.072	16798.12
597.269	16605.61
597.466	16720.3
597.662	16529.84
597.859	16474.54
598.055	16624.04
598.252	16261.55
598.448	16568.75
598.645	16482.74
598.841	16175.54
599.038	16347.57
599.234	16366
599.431	16406.96
599.627	16296.37
599.824	16159.16
600.02	16085.43
600.217	16292.27
600.413	16124.34
600.609	16079.29
600.806	16308.66
601.002	16325.04
601.198	16200.12
601.395	16028.09
601.591	16003.51
601.787	16077.24
601.984	16048.57
602.18	15927.74
602.376	16095.67
602.572	15833.53
602.769	15739.32
602.965	15692.22
603.161	15817.15
603.357	15808.95
603.553	15794.62
603.75	15718.84
603.946	15681.98
604.142	15788.47
604.338	15665.6
604.534	15600.06
604.73	15743.42
604.926	15489.47
605.122	15569.34
605.318	15446.46
605.514	15618.49
605.71	15362.5
605.906	15567.29
606.102	15690.17
606.298	15630.78
606.494	15636.92
606.69	15557.05
606.886	15374.78
607.082	15137.22
607.278	15421.89
607.474	15163.84
607.67	15092.16
607.866	15186.37
608.062	15436.22
608.257	15092.16
608.453	14973.38
608.649	15243.71
608.845	15239.62
609.041	15147.46
609.236	15442.37
609.432	15043.01
609.628	15186.37
609.824	14981.57
610.019	15208.9
610.215	15032.77
610.411	15389.12
610.606	15018.44
610.802	15014.34
610.998	14924.23
611.193	15096.26
611.389	14821.83
611.584	15120.84
611.78	14830.02
611.976	14985.67
612.171	15073.73
612.367	14854.6
612.562	15094.21
612.758	14750.15
612.953	14807.5
613.149	14969.29
613.344	14606.8
613.539	14897.61
613.735	14649.8
613.93	14787.02
614.126	14711.24
614.321	15131.08
614.517	14905.8
614.712	14729.67
614.907	14707.15
615.103	14660.04
615.298	14662.09
615.493	14735.82
615.688	14516.69
615.884	14846.41
616.079	14608.84
616.274	14852.55
616.47	14543.31
616.665	14627.28
616.86	14698.95
617.055	14627.28
617.25	14563.79
617.445	14717.39
617.641	14283.22
617.836	14631.37
618.031	14389.71
618.226	14569.93
618.421	14170.58
618.616	14508.49
618.811	14111.19
619.006	14471.63
619.201	14166.48
619.396	14279.12
619.591	13816.28
619.786	14291.41
619.981	13914.58
620.176	14045.65
620.371	13904.34
620.566	13973.97
620.761	14045.65
620.956	13877.72
621.151	13646.3
621.346	14051.8
621.541	13664.73
621.735	13687.26
621.93	13400.54
622.125	13791.7
622.32	13310.43
622.515	13574.62
622.709	13251.04
622.904	13341.15
623.099	13363.68
623.294	13335.01
623.488	13128.16
623.683	13388.25
623.878	13007.33
624.072	12988.9
624.267	13150.69
624.462	12933.61
624.656	12601.83
624.851	12720.62
625.046	12603.88
625.24	12884.45
625.435	12364.27
625.629	12521.96
625.824	12485.1
626.018	12337.65
626.213	12161.52
626.407	12524.01
626.602	12143.09
626.796	12235.25
626.991	12354.03
627.185	12009.97
627.38	11913.72
627.574	11921.91
627.768	11981.3
627.963	11973.11
628.157	11764.22
628.352	11860.47
628.546	11483.64
628.74	11801.08
628.935	11432.44
629.129	11553.27
629.323	11405.82
629.517	11471.36
629.712	11547.13
629.906	11401.72
630.1	11221.5
630.294	11340.29
630.489	10977.8
630.683	11121.15
630.877	10914.31
631.071	10883.59
631.265	11133.44
631.459	10791.43
631.653	10973.7
631.848	10555.91
632.042	10555.91
632.236	10635.78
632.43	10553.87
632.624	10609.16
632.818	10578.44
633.012	10433.04
633.206	10289.68
633.4	10498.57
633.594	10277.39
633.788	10238.48
633.982	10392.08
634.176	10277.39
634.369	10146.32
634.563	10207.76
634.757	10033.68
634.951	10148.37
635.145	10093.07
635.339	9849.36
635.533	10017.3
635.726	9929.24
635.92	9742.87
636.114	9789.97
636.308	9673.24
636.501	9595.42
636.695	9507.35
636.889	9490.97
637.083	9613.85
637.276	9271.84
637.47	9316.89
637.664	9495.07
637.857	9243.17
638.051	9390.62
638.244	9310.75
638.438	9091.62
638.632	9241.12
638.825	8909.35
639.019	9048.61
639.212	9095.71
639.406	9021.98
639.599	8763.94
639.793	8825.38
639.986	8532.52
640.18	8690.21
640.373	8639.01
640.567	8688.17
640.76	8561.19
640.954	8550.95
641.147	8446.51
641.34	8227.37
641.534	8499.75
641.727	8217.13
641.92	8466.99
642.114	8167.98
642.307	8163.89
642.5	8278.57
642.694	8151.6
642.887	8034.86
643.08	8057.39
643.273	7860.79
643.467	8018.48
643.66	7707.19
643.853	7725.62
644.046	7625.27
644.239	7871.03
644.432	7623.22
644.626	7438.91
644.819	7578.17
645.012	7782.96
645.205	7782.96
645.398	7647.8
645.591	7535.16
645.784	7606.84
645.977	7303.74
646.17	7289.4
646.363	7197.24
646.556	7217.72
646.749	7205.44
646.942	7289.4
647.135	6984.26
647.328	7041.6
647.521	7123.52
647.714	6810.18
647.907	6908.48
648.099	6853.19
648.292	7025.22
648.485	6715.97
648.678	6629.96
648.871	6545.99
649.064	6713.92
649.256	6609.48
649.449	6552.13
649.642	6394.44
649.835	6607.43
650.027	6492.74
650.22	6402.63
650.413	6359.63
650.605	6392.39
650.798	6390.35
650.991	6206.03
651.183	6376.01
651.376	6181.45
651.568	6392.39
651.761	6228.56
651.954	6034
652.146	6187.6
652.339	6115.92
652.531	6017.61
652.724	5999.18
652.916	5827.15
653.109	5866.07
653.301	5917.26
653.494	5909.07
653.686	5843.54
653.879	5931.6
654.071	5808.72
654.263	5718.61
654.456	5917.26
654.648	5890.64
654.84	5737.04
655.033	5628.5
655.225	5786.19
655.417	5605.97
655.61	5720.66
655.802	5599.83
655.994	5653.08
656.186	5427.8
656.379	5661.27
656.571	5448.28
656.763	5376.6
656.955	5466.71
657.148	5261.91
657.34	5233.24
657.532	5235.29
657.724	5136.99
657.916	5225.05
658.108	5263.96
658.3	5130.84
658.492	5122.65
658.684	5059.17
658.876	5087.84
659.068	5028.45
659.26	4878.94
659.452	4887.14
659.644	4901.47
659.836	4876.9
660.028	4956.77
660.22	4741.73
660.412	4817.51
660.604	4835.94
660.796	4803.17
660.988	4840.03
661.18	4616.8
661.372	4639.33
661.563	4592.23
661.755	4600.42
661.947	4680.29
662.139	4754.02
662.331	4551.27
662.522	4444.77
662.714	4528.74
662.906	4633.19
663.097	4463.21
663.289	4420.2
663.481	4500.07
663.673	4356.71
663.864	4387.43
664.056	4274.79
664.247	4338.28
664.439	4289.13
664.631	4248.17
664.822	4344.42
665.014	4405.86
665.205	4276.84
665.397	4192.87
665.588	4305.51
665.78	4180.59
665.971	4039.28
666.163	4180.59
666.354	4119.15
666.546	4092.52
666.737	4008.56
666.929	4172.39
667.12	4149.87
667.311	4143.72
667.503	3986.03
667.694	4014.7
667.885	4090.48
668.077	4061.8
668.268	4004.46
668.459	3887.73
668.651	4026.99
668.842	4153.96
669.033	3963.5
669.224	3836.53
669.416	3963.5
669.607	3730.03
669.798	3893.87
669.989	3975.79
670.18	3838.58
670.371	3854.96
670.563	3859.06
670.754	3840.62
670.945	3881.58
671.136	3934.83
671.327	3775.09
671.518	3801.71
671.709	3930.73
671.9	3807.86
672.091	3848.82
672.282	3768.95
672.473	3639.92
672.664	3797.62
672.855	3873.39
673.046	3820.14
673.237	3736.18
673.428	3684.98
673.619	3781.23
673.809	3803.76
674	3670.64
674.191	3644.02
674.382	3625.59
674.573	3615.35
674.764	3658.35
674.954	3791.47
675.145	3664.5
675.336	3664.5
675.527	3650.16
675.717	3723.89
675.908	3693.17
676.099	3715.7
676.289	3558
676.48	3584.63
676.671	3699.31
676.861	3605.11
677.052	3814
677.243	3637.88
677.433	3684.98
677.624	3703.41
677.814	3705.46
678.005	3568.24
678.195	3695.22
678.386	3662.45
678.576	3586.68
678.767	3541.62
678.957	3701.36
679.148	3799.66
679.338	3668.59
679.529	3633.78
679.719	3783.28
679.909	3701.36
680.1	3740.27
680.29	3656.31
680.481	3709.55
680.671	3758.71
680.861	3752.56
681.052	3777.14
681.242	3699.31
681.432	3807.86
681.622	3719.79
681.813	3594.87
682.003	3758.71
682.193	3687.03
682.383	3773.04
682.573	3682.93
682.764	3721.84
682.954	3674.74
683.144	3842.67
683.334	3703.41
683.524	3797.62
683.714	3852.91
683.904	3654.26
684.094	3768.95
684.284	3672.69
684.474	3816.05
684.664	3766.9
684.854	3715.7
685.044	3695.22
685.234	3605.11
685.424	3691.12
685.614	3789.42
685.804	3820.14
685.994	3762.8
686.184	3641.97
686.374	3723.89
686.564	3707.51
686.753	3664.5
686.943	3562.1
687.133	3668.59
687.323	3680.88
687.513	3695.22
687.702	3621.49
687.892	3615.35
688.082	3619.44
688.272	3689.07
688.461	3594.87
688.651	3699.31
688.841	3601.01
689.03	3613.3
689.22	3562.1
689.41	3605.11
689.599	3480.18
689.789	3506.81
689.979	3664.5
690.168	3385.97
690.358	3574.39
690.547	3314.3
690.737	3496.57
690.926	3635.83
691.116	3203.71
691.305	3512.95
691.495	3396.21
691.684	3342.97
691.874	3402.36
692.063	3525.24
692.252	3357.3
692.442	3416.69
692.631	3314.3
692.82	3332.73
693.01	3355.26
693.199	3334.78
693.388	3353.21
693.578	3426.93
693.767	3291.77
693.956	3287.67
694.146	3400.31
694.335	3203.71
694.524	3222.14
694.713	3369.59
694.902	3357.3
695.092	3189.37
695.281	3252.86
695.47	3238.52
695.659	3238.52
695.848	3226.23
696.037	3297.91
696.226	3340.92
696.415	3211.9
696.604	3312.25
696.793	3226.23
696.982	3310.2
697.171	3254.9
697.36	3320.44
697.549	3226.23
697.738	3107.45
697.927	3242.62
698.116	3195.51
698.305	3242.62
698.494	3259
698.683	3218.04
698.872	3474.04
699.061	3234.43
699.25	3273.34
699.438	3295.86
699.627	3480.18
699.816	3308.15
700.005	3338.87
700.193	3322.49
700.382	3392.12
700.571	3422.84
700.76	3453.56
700.948	3449.46
701.137	3420.79
701.326	3351.16
701.514	3283.58
701.703	3453.56
701.892	3435.13
702.08	3586.68
702.269	3424.89
702.457	3377.78
702.646	3471.99
702.834	3420.79
703.023	3439.22
703.212	3431.03
703.4	3314.3
703.589	3390.07
703.777	3408.5
703.965	3445.37
704.154	3463.8
704.342	3345.02
704.531	3357.3
704.719	3398.26
704.907	3439.22
705.096	3406.45
705.284	3322.49
705.472	3558
705.661	3428.98
705.849	3463.8
706.037	3598.96
706.226	3568.24
706.414	3525.24
706.602	3465.85
706.79	3576.44
706.979	3609.2
707.167	3469.94
707.355	3496.57
707.543	3568.24
707.731	3504.76
707.919	3517.05
708.107	3500.66
708.296	3580.53
708.484	3414.65
708.672	3572.34
708.86	3523.19
709.048	3494.52
709.236	3508.85
709.424	3633.78
709.612	3650.16
709.8	3455.61
709.988	3412.6
710.176	3594.87
710.364	3539.57
710.551	3547.76
710.739	3644.02
710.927	3568.24
711.115	3641.97
711.303	3660.4
711.491	3568.24
711.679	3553.91
711.866	3578.48
712.054	3592.82
712.242	3584.63
712.43	3715.7
712.617	3654.26
712.805	3664.5
712.993	3625.59
713.181	3652.21
713.368	3635.83
713.556	3613.3
713.744	3627.64
713.931	3697.27
714.119	3631.73
714.306	3635.83
714.494	3545.72
714.682	3580.53
714.869	3598.96
715.057	3684.98
715.244	3592.82
715.432	3547.76
715.619	3633.78
715.807	3705.46
715.994	3777.14
716.182	3633.78
716.369	3646.07
716.556	3727.99
716.744	3580.53
716.931	3558
717.119	3785.33
717.306	3795.57
717.493	3666.55
717.681	3842.67
717.868	3680.88
718.055	3811.95
718.242	3682.93
718.43	3795.57
718.617	3900.02
718.804	3699.31
718.991	3809.9
719.179	3967.6
719.366	3768.95
719.553	3766.9
719.74	3650.16
719.927	3701.36
720.114	3717.75
720.301	3635.83
720.488	3826.29
720.676	3742.32
720.863	3863.15
721.05	3793.52
721.237	3783.28
721.424	3637.88
721.611	3732.08
721.798	3629.68
721.985	3787.38
722.172	3840.62
722.358	3740.27
722.545	3969.65
722.732	3818.1
722.919	3865.2
723.106	3703.41
723.293	3779.18
723.48	3713.65
723.667	3768.95
723.853	3727.99
724.04	3779.18
724.227	3736.18
724.414	3830.38
724.6	3768.95
724.787	3826.29
724.974	3762.8
725.161	3740.27
725.347	3754.61
725.534	3936.88
725.72	3779.18
725.907	3832.43
726.094	3904.11
726.28	3766.9
726.467	3885.68
726.653	3787.38
726.84	3824.24
727.027	3969.65
727.213	3693.17
727.4	3750.51
727.586	3844.72
727.773	3809.9
727.959	3887.73
728.145	3889.78
728.332	3785.33
728.518	3803.76
728.705	3981.93
728.891	3693.17
729.077	3775.09
729.264	3924.59
729.45	3775.09
729.636	4008.56
729.823	3738.23
730.009	3768.95
730.195	3699.31
730.382	3787.38
730.568	3693.17
730.754	3777.14
730.94	3814
731.126	3951.21
731.313	3875.44
731.499	3797.62
731.685	3897.97
731.871	3938.93
732.057	3846.77
732.243	3689.07
732.429	3721.84
732.615	4022.89
732.801	3799.66
732.987	3906.16
733.173	3859.06
733.359	3693.17
733.545	3816.05
733.731	3766.9
733.917	3879.54
734.103	3828.34
734.289	3725.94
734.475	3836.53
734.661	3834.48
734.847	3754.61
735.033	3713.65
735.219	3760.75
735.404	3852.91
735.59	3727.99
735.776	3648.11
735.962	3805.81
736.148	3908.21
736.333	3889.78
736.519	3764.85
736.705	3570.29
736.89	3742.32
737.076	3594.87
737.262	3664.5
737.447	3625.59
737.633	3656.31
737.819	3580.53
738.004	3646.07
738.19	3498.61
738.375	3693.17
738.561	3750.51
738.747	3658.35
738.932	3574.39
739.118	3658.35
739.303	3656.31
739.489	3535.48
739.674	3553.91
739.859	3404.41
740.045	3635.83
740.23	3586.68
740.416	3365.5
740.601	3400.31
740.786	3433.08
740.972	3400.31
741.157	3498.61
741.342	3349.11
741.528	3455.61
741.713	3449.46
741.898	3447.41
742.084	3435.13
742.269	3433.08
742.454	3357.3
742.639	3416.69
742.824	3523.19
743.01	3340.92
743.195	3418.74
743.38	3428.98
743.565	3283.58
743.75	3304.06
743.935	3312.25
744.12	3357.3
744.305	3183.23
744.49	3328.63
744.675	3215.99
744.86	3134.07
745.045	3259
745.23	3076.73
745.415	3129.98
745.6	3060.35
745.785	3084.92
745.97	3209.85
746.155	3080.83
746.34	3140.22
746.525	3066.49
746.71	3105.4
746.895	3031.68
747.079	3009.15
747.264	2947.71
747.449	3041.92
747.634	3082.88
747.819	2960
748.003	2970.24
748.188	2935.42
748.373	2939.52
748.557	2871.93
748.742	2861.69
748.927	3029.63
749.111	2937.47
749.296	2810.5
749.481	2849.41
749.665	2818.69
749.85	2730.62
750.034	2906.75
750.219	2660.99
750.404	2599.55
750.588	2667.14
750.773	2577.03
750.957	2579.08
751.141	2613.89
751.326	2650.75
751.51	2556.55
751.695	2529.92
751.879	2669.19
752.064	2511.49
752.248	2632.32
752.432	2505.35
752.617	2538.12
752.801	2505.35
752.985	2347.65
753.17	2491.01
753.354	2486.92
753.538	2337.41
753.722	2378.37
753.907	2331.27
754.091	2292.36
754.275	2318.98
754.459	2335.37
754.643	2222.73
754.828	2380.42
755.012	2273.93
755.196	2134.67
755.38	2286.22
755.564	2155.15
755.748	2130.57
755.932	2235.02
756.116	2126.47
756.3	2097.8
756.484	2245.26
756.668	2116.23
756.852	2108.04
757.036	2054.8
757.22	2089.61
757.404	2011.79
757.588	1999.5
757.772	2099.85
757.956	1952.4
758.14	2275.98
758.323	1954.44
758.507	1995.4
758.691	1997.45
758.875	2071.18
759.059	1944.2
759.242	1893.01
759.426	1915.53
759.61	1938.06
759.794	1864.33
759.977	1956.49
760.161	2060.94
760.345	1942.16
760.528	1856.14
760.712	1927.82
760.895	1903.25
761.079	1763.98
761.263	1813.13
761.446	1751.7
761.63	1886.86
761.813	1727.12
761.997	1698.45
762.18	1706.64
762.364	1823.37
762.547	1673.87
762.731	1751.7
762.914	1815.18
763.098	1639.06
763.281	1690.26
763.464	1774.22
763.648	1583.76
763.831	1637.01
764.015	1700.5
764.198	1733.26
764.381	1591.95
764.564	1684.11
764.748	1698.45
764.931	1579.67
765.114	1581.71
765.297	1706.64
765.481	1659.54
765.664	1628.82
765.847	1526.42
766.03	1550.99
766.213	1458.84
766.397	1571.47
766.58	1516.18
766.763	1561.23
766.946	1624.72
767.129	1571.47
767.312	1579.67
767.495	1641.11
767.678	1518.23
767.861	1528.47
768.044	1510.04
768.227	1532.56
768.41	1520.28
768.593	1561.23
768.776	1489.56
768.959	1467.03
769.142	1516.18
769.324	1440.4
769.507	1391.25
769.69	1409.69
769.873	1510.04
770.056	1591.95
770.239	1481.36
770.421	1421.97
770.604	1419.92
770.787	1317.53
770.97	1432.21
771.152	1309.33
771.335	1393.3
771.518	1421.97
771.7	1403.54
771.883	1368.73
772.066	1354.39
772.248	1348.25
772.431	1368.73
772.613	1366.68
772.796	1286.81
772.978	1391.25
773.161	1391.25
773.343	1356.44
773.526	1256.09
773.708	1159.83
773.891	1237.66
774.073	1237.66
774.256	1235.61
774.438	1329.81
774.621	1237.66
774.803	1350.29
774.985	1135.26
775.168	1284.76
775.35	1215.13
775.532	1237.66
775.715	1264.28
775.897	1145.5
776.079	1053.34
776.261	1213.08
776.444	1194.65
776.626	1239.7
776.808	1204.89
776.99	1028.76
777.173	1096.35
777.355	1139.35
777.537	1219.22
777.719	1055.39
777.901	987.8
778.083	1079.96
778.265	981.66
778.447	1032.86
778.629	1041.05
778.811	1102.49
778.993	1125.02
779.175	1039
779.357	1004.19
779.539	928.41
779.721	971.42
779.903	1053.34
780.085	1041.05
780.267	948.89
780.449	1024.67
780.631	1034.91
780.812	1020.57
780.994	903.84
781.176	903.84
781.358	965.28
781.54	930.46
781.721	918.17
781.903	1002.14
782.085	830.11
782.267	893.6
782.448	793.25
782.63	899.74
782.812	856.73
782.993	909.98
783.175	836.25
783.357	778.91
783.538	811.68
783.72	846.49
783.901	842.4
784.083	797.34
784.264	813.73
784.446	711.33
784.627	776.86
784.809	756.38
784.99	748.19
785.172	836.25
785.353	701.09
785.535	756.38
785.716	682.66
785.897	729.76
786.079	725.66
786.26	778.91
786.441	733.86
786.623	770.72
786.804	590.5
786.985	707.23
787.167	725.66
787.348	643.74
787.529	656.03
787.71	789.15
787.891	688.8
788.073	647.84
788.254	574.11
788.435	711.33
788.616	621.22
788.797	696.99
788.978	598.69
789.159	604.83
789.34	676.51
789.522	576.16
789.703	660.13
789.884	563.87
790.065	615.07
790.246	686.75
790.427	567.97
790.607	699.04
790.788	623.27
790.969	588.45
791.15	619.17
791.331	604.83
791.512	531.11
791.693	559.78
791.874	561.83
792.054	699.04
792.235	580.26
792.416	436.9
792.597	555.68
792.778	557.73
792.958	527.01
793.139	539.3
793.32	516.77
793.5	510.63
793.681	531.11
793.862	557.73
794.042	443.04
794.223	522.91
794.404	494.24
794.584	467.62
794.765	545.44
794.945	471.72
795.126	500.39
795.306	537.25
795.487	504.48
795.667	436.9
795.848	477.86
796.028	506.53
796.209	488.1
796.389	492.2
796.57	350.89
796.75	549.54
796.93	410.28
797.111	383.65
797.291	443.04
797.471	393.89
797.652	481.96
797.832	344.74
798.012	535.2
798.192	406.18
798.373	414.37
798.553	481.96
798.733	422.56
798.913	391.84
799.093	391.84
799.274	479.91
799.454	502.43
799.634	418.47
799.814	436.9
799.994	408.23
800.174	393.89
800.354	418.47
800.534	314.02
800.714	383.65
800.894	334.5
801.074	336.55
801.254	393.89
801.434	443.04
801.614	389.8
801.794	322.21
801.974	1374.87
802.154	391.84
802.334	342.69
802.514	328.36
802.693	357.03
802.873	271.01
803.053	377.51
803.233	375.46
803.413	369.32
803.592	307.88
803.772	338.6
803.952	297.64
804.131	285.35
804.311	354.98
804.491	367.27
804.67	334.5
804.85	348.84
805.03	381.6
805.209	490.15
805.389	217.77
805.568	322.21
805.748	318.12
805.928	404.13
806.107	287.4
806.287	404.13
806.466	234.15
806.646	219.82
806.825	256.68
807.004	258.73
807.184	404.13
807.363	354.98
807.543	285.35
807.722	271.01
807.901	268.97
808.081	334.5
808.26	223.91
808.439	197.29
808.619	334.5
808.798	279.21
808.977	332.45
809.156	344.74
809.336	219.82
809.515	332.45
809.694	182.95
809.873	256.68
810.052	285.35
810.231	328.36
810.411	297.64
810.59	330.41
810.769	234.15
810.948	307.88
811.127	228.01
811.306	246.44
811.485	205.48
811.664	256.68
811.843	279.21
812.022	211.62
812.201	150.18
812.38	283.3
812.559	207.53
812.737	232.1
812.916	172.71
813.095	197.29
813.274	258.73
813.453	240.29
813.632	244.39
813.811	201.38
813.989	199.34
814.168	191.14
814.347	287.4
814.526	174.76
814.704	283.3
814.883	332.45
815.062	160.42
815.24	236.2
815.419	164.52
815.598	232.1
815.776	203.43
815.955	242.34
816.133	164.52
816.312	172.71
816.49	209.58
816.669	256.68
816.847	187.05
817.026	201.38
817.204	174.76
817.383	205.48
817.561	176.81
817.74	250.53
817.918	178.86
818.097	182.95
818.275	213.67
818.453	303.78
818.632	154.28
818.81	152.23
818.988	152.23
819.167	232.1
819.345	137.9
819.523	90.79
819.701	135.85
819.879	139.94
820.058	170.66
820.236	172.71
820.414	176.81
820.592	201.38
820.77	201.38
820.948	68.27
821.127	137.9
821.305	248.49
821.483	111.27
821.661	260.77
821.839	152.23
822.017	119.46
822.195	139.94
822.373	201.38
822.551	154.28
822.729	121.51
822.907	221.86
823.085	219.82
823.262	121.51
823.44	164.52
823.618	76.46
823.796	174.76
823.974	129.7
824.152	154.28
824.329	98.99
824.507	158.38
824.685	203.43
824.863	156.33
825.04	121.51
825.218	158.38
825.396	62.12
825.574	225.96
825.751	127.66
825.929	150.18
826.107	125.61
826.284	123.56
826.462	139.94
826.639	62.12
826.817	15.02
826.994	129.7
827.172	96.94
827.349	205.48
827.527	164.52
827.704	66.22
827.882	105.13
828.059	211.62
828.237	64.17
828.414	98.99
828.591	68.27
828.769	144.04
828.946	123.56
829.124	176.81
829.301	187.05
829.478	137.9
829.655	215.72
829.833	137.9
830.01	137.9
830.187	105.13
830.364	80.55
830.542	98.99
830.719	182.95
830.896	129.7
831.073	152.23
831.25	133.8
831.427	70.31
831.604	92.84
831.782	109.22
831.959	166.57
832.136	125.61
832.313	197.29
832.49	96.94
832.667	146.09
832.844	127.66
833.021	180.9
833.198	94.89
833.374	60.07
833.551	86.7
833.728	107.18
833.905	109.22
834.082	51.88
834.259	68.27
834.436	139.94
834.612	78.51
834.789	111.27
834.966	121.51
835.143	119.46
835.319	45.74
835.496	101.03
835.673	121.51
835.85	101.03
836.026	109.22
836.203	125.61
836.38	4.78
836.556	-36.18
836.733	17.07
836.909	125.61
837.086	80.55
837.262	105.13
837.439	88.75
837.616	78.51
837.792	111.27
837.968	76.46
838.145	23.21
838.321	103.08
838.498	70.31
838.674	107.18
838.851	25.26
839.027	84.65
839.203	90.79
839.38	88.75
839.556	27.31
839.732	119.46
839.909	94.89
840.085	78.51
840.261	45.74
840.437	-5.46
840.614	-15.7
840.79	72.36
840.966	123.56
841.142	49.83
841.318	49.83
841.494	31.4
841.671	119.46
841.847	0.68
842.023	60.07
842.199	60.07
842.375	125.61
842.551	21.16
842.727	-68.95
842.903	150.18
843.079	6.83
843.255	121.51
843.431	123.56
843.607	49.83
843.783	43.69
843.959	66.22
844.134	31.4
844.31	121.51
844.486	117.42
844.662	-19.8
844.838	49.83
845.013	96.94
845.189	82.6
845.365	80.55
845.541	55.98
845.716	19.11
845.892	123.56
846.068	55.98
846.244	-27.99
846.419	109.22
846.595	12.97
846.77	53.93
846.946	55.98
847.122	6.83
847.297	-7.51
847.473	146.09
847.648	10.92
847.824	43.69
847.999	-52.56
848.175	41.64
848.35	35.5
848.526	141.99
848.701	45.74
848.876	111.27
849.052	117.42
849.227	-11.61
849.403	94.89
849.578	74.41
849.753	90.79
849.929	-9.56
850.104	-11.61
850.279	-3.41
850.454	82.6
850.63	70.31
850.805	4.78
850.98	68.27
851.155	10.92
851.33	45.74
851.505	10.92
851.681	144.04
851.856	-5.46
852.031	0.68
852.206	103.08
852.381	49.83
852.556	23.21
852.731	45.74
852.906	94.89
853.081	86.7
853.256	123.56
853.431	0.68
853.606	-38.23
853.781	4.78
853.956	-36.18
854.131	64.17
854.305	27.31
854.48	27.31
854.655	6.83
854.83	6.83
855.005	10.92
855.18	43.69
855.354	33.45
855.529	64.17
855.704	-19.8
855.879	70.31
856.053	2.73
856.228	51.88
856.403	-42.32
856.577	101.03
856.752	-25.94
856.926	-1.37
857.101	60.07
857.276	-71
857.45	33.45
857.625	31.4
857.799	47.79
857.974	98.99
858.148	-15.7
858.323	2.73
858.497	10.92
858.672	-58.71
858.846	-17.75
859.02	62.12
859.195	-42.32
859.369	-13.65
859.543	12.97
859.718	51.88
859.892	29.35
860.066	27.31
860.241	31.4
860.415	41.64
860.589	70.31
860.763	-23.89
860.938	12.97
861.112	-9.56
861.286	4.78
861.46	25.26
861.634	-17.75
861.808	-9.56
861.982	-9.56
862.157	41.64
862.331	-107.86
862.505	-97.62
862.679	-27.99
862.853	37.55
863.027	-3.41
863.201	129.7
863.375	-52.56
863.549	41.64
863.722	58.03
863.896	49.83
864.07	39.59
864.244	-60.76
864.418	115.37
864.592	66.22
864.766	8.87
864.939	-40.28
865.113	10.92
865.287	19.11
865.461	-3.41
865.634	45.74
865.808	-30.04
865.982	-1.37
866.156	-46.42
866.329	-77.14
866.503	98.99
866.676	-5.46
866.85	-1.37
867.024	19.11
867.197	51.88
867.371	8.87
867.544	25.26
867.718	2.73
867.891	76.46
868.065	-85.33
868.238	55.98
868.412	33.45
868.585	-32.08
868.759	15.02
868.932	-38.23
869.105	-38.23
869.279	41.64
869.452	27.31
869.625	53.93
869.799	2.73
869.972	-107.86
870.145	-17.75
870.319	39.59
870.492	-44.37
870.665	19.11
870.838	-11.61
871.011	-107.86
871.185	17.07
871.358	-17.75
871.531	31.4
871.704	-9.56
871.877	-34.13
872.05	6.83
872.223	-64.85
872.396	2.73
872.569	68.27
872.742	-52.56
872.915	-3.41
873.088	-17.75
873.261	-79.19
873.434	70.31
873.607	4.78
873.78	78.51
873.953	-7.51
874.126	-30.04
874.299	21.16
874.471	-62.8
874.644	-42.32
874.817	17.07
874.99	121.51
875.163	10.92
875.335	35.5
875.508	43.69
875.681	-1.37
875.853	-56.66
876.026	-77.14
876.199	-13.65
876.371	62.12
876.544	-27.99
876.717	-42.32
876.889	-7.51
877.062	-3.41
877.234	-21.85
877.407	-1.37
877.579	23.21
877.752	70.31
877.924	43.69
878.097	10.92
878.269	-30.04
878.442	12.97
878.614	47.79
878.786	37.55
878.959	8.87
879.131	31.4
879.303	-21.85
879.476	15.02
879.648	33.45
879.82	2.73
879.993	4.78
880.165	-9.56
880.337	-30.04
880.509	-30.04
880.681	-64.85
880.854	17.07
881.026	10.92
881.198	88.75
881.37	17.07
881.542	41.64
881.714	-1.37
881.886	-23.89
882.058	-3.41
882.23	-5.46
882.402	-40.28
882.574	-44.37
882.746	37.55
882.918	74.41
883.09	39.59
883.262	-11.61
883.434	37.55
883.606	-50.52
883.778	35.5
883.95	60.07
884.122	-19.8
884.293	55.98
884.465	-23.89
884.637	31.4
884.809	6.83
884.98	25.26
885.152	25.26
885.324	12.97
885.496	-7.51
885.667	45.74
885.839	-38.23
886.011	39.59
886.182	-64.85
886.354	78.51
886.525	25.26
886.697	53.93
886.869	-52.56
887.04	15.02
887.212	55.98
887.383	41.64
887.555	-11.61
887.726	-56.66
887.897	19.11
888.069	-30.04
888.24	25.26
888.412	-54.61
888.583	-7.51
888.754	23.21
888.926	-15.7
889.097	-66.9
889.268	-66.9
889.44	-34.13
889.611	-9.56
889.782	-54.61
889.953	-95.57
890.125	78.51
890.296	-89.43
890.467	10.92
890.638	-11.61
890.809	-64.85
890.98	-7.51
891.151	15.02
891.323	39.59
891.494	19.11
891.665	-7.51
891.836	-126.29
892.007	-3.41
892.178	-5.46
892.349	25.26
892.52	35.5
892.691	19.11
892.862	-99.67
893.032	-25.94
893.203	-52.56
893.374	-32.08
893.545	25.26
893.716	-79.19
893.887	-3.41
894.057	-32.08
894.228	-40.28
894.399	-44.37
894.57	41.64
894.74	-56.66
894.911	-58.71
895.082	-3.41
895.253	-13.65
895.423	6.83
895.594	-75.09
895.764	15.02
895.935	-40.28
896.106	49.83
896.276	-54.61
896.447	21.16
896.617	-9.56
896.788	-44.37
896.958	6.83
897.129	-81.24
897.299	-62.8
897.47	58.03
897.64	19.11
897.81	-25.94
897.981	-50.52
898.151	-89.43
898.322	47.79
898.492	6.83
898.662	-36.18
898.832	-21.85
899.003	-38.23
899.173	-36.18
899.343	-93.52
899.513	-60.76
