Data from USB4F104151__10__12-11-30-111.txt Node

Date: Fri Mar 14 12:11:30 EDT 2025
User: louis
Spectrometer: USB4F10415
Trigger mode: 4
Integration Time (sec): 5.000000E-2
Scans to average: 1
Electric dark correction enabled: true
Nonlinearity correction enabled: false
Boxcar width: 0
XAxis mode: Wavelengths
Number of Pixels in Spectrum: 3648
>>>>>Begin Spectral Data<<<<<
178.204	-189.95
178.424	-189.95
178.644	-189.95
178.864	-196.09
179.084	-282.11
179.304	4.61
179.524	-42.5
179.744	-30.21
179.964	74.24
180.184	-15.87
180.404	45.57
180.624	25.09
180.844	25.09
181.064	-48.64
181.283	39.42
181.503	-112.13
181.723	35.33
181.943	-118.27
182.163	94.72
182.383	20.99
182.602	70.14
182.822	68.09
183.042	53.76
183.262	0.51
183.482	-17.92
183.701	35.33
183.921	41.47
184.141	-11.78
184.361	80.38
184.58	18.94
184.8	-44.54
185.02	43.52
185.239	25.09
185.459	31.23
185.679	78.33
185.898	-46.59
186.118	57.86
186.338	8.7
186.557	61.95
186.777	25.09
186.997	-17.92
187.216	8.7
187.436	90.62
187.655	0.51
187.875	143.87
188.095	96.77
188.314	51.71
188.534	72.19
188.753	27.14
188.973	96.77
189.192	47.62
189.412	74.24
189.631	-13.82
189.851	57.86
190.07	129.53
190.29	10.75
190.509	43.52
190.729	37.38
190.948	35.33
191.168	233.98
191.387	47.62
191.607	-13.82
191.826	37.38
192.045	31.23
192.265	47.62
192.484	39.42
192.704	47.62
192.923	-60.93
193.142	113.15
193.362	47.62
193.581	88.57
193.8	49.66
194.02	74.24
194.239	115.2
194.458	27.14
194.678	76.29
194.897	2.56
195.116	25.09
195.335	-24.06
195.555	33.28
195.774	-13.82
195.993	0.51
196.212	-11.78
196.432	14.85
196.651	-54.78
196.87	-22.02
197.089	88.57
197.308	-24.06
197.528	86.53
197.747	-22.02
197.966	66.05
198.185	141.82
198.404	-40.45
198.623	41.47
198.842	45.57
199.062	41.47
199.281	27.14
199.5	16.9
199.719	57.86
199.938	0.51
200.157	96.77
200.376	53.76
200.595	121.34
200.814	84.48
201.033	18.94
201.252	53.76
201.471	8.7
201.69	88.57
201.909	70.14
202.128	70.14
202.347	96.77
202.566	53.76
202.785	4.61
203.004	14.85
203.223	219.64
203.442	121.34
203.661	59.9
203.879	-11.78
204.098	121.34
204.317	-60.93
204.536	27.14
204.755	102.91
204.974	-13.82
205.193	-3.58
205.411	199.16
205.63	78.33
205.849	-3.58
206.068	-34.3
206.287	-11.78
206.505	100.86
206.724	61.95
206.943	0.51
207.162	-17.92
207.381	92.67
207.599	12.8
207.818	27.14
208.037	10.75
208.255	47.62
208.474	37.38
208.693	45.57
208.911	12.8
209.13	61.95
209.349	29.18
209.567	102.91
209.786	29.18
210.005	53.76
210.223	57.86
210.442	25.09
210.661	-1.54
210.879	102.91
211.098	23.04
211.316	100.86
211.535	-28.16
211.753	23.04
211.972	20.99
212.191	-11.78
212.409	29.18
212.628	-13.82
212.846	55.81
213.065	100.86
213.283	88.57
213.502	45.57
213.72	78.33
213.938	10.75
214.157	53.76
214.375	113.15
214.594	-19.97
214.812	137.73
215.031	80.38
215.249	59.9
215.467	27.14
215.686	-1.54
215.904	88.57
216.122	55.81
216.341	115.2
216.559	64
216.778	86.53
216.996	37.38
217.214	4.61
217.432	49.66
217.651	27.14
217.869	61.95
218.087	72.19
218.306	-48.64
218.524	64
218.742	-28.16
218.96	35.33
219.179	117.25
219.397	14.85
219.615	176.64
219.833	88.57
220.051	0.51
220.27	121.34
220.488	96.77
220.706	37.38
220.924	53.76
221.142	-65.02
221.36	61.95
221.578	-28.16
221.796	18.94
222.015	68.09
222.233	57.86
222.451	127.49
222.669	2.56
222.887	61.95
223.105	18.94
223.323	72.19
223.541	2.56
223.759	23.04
223.977	-17.92
224.195	123.39
224.413	33.28
224.631	90.62
224.849	51.71
225.067	133.63
225.285	-11.78
225.503	-52.74
225.721	-79.36
225.939	14.85
226.157	29.18
226.375	152.06
226.592	41.47
226.81	59.9
227.028	70.14
227.246	90.62
227.464	12.8
227.682	29.18
227.9	80.38
228.117	39.42
228.335	-34.3
228.553	27.14
228.771	39.42
228.989	84.48
229.206	37.38
229.424	-60.93
229.642	-44.54
229.86	113.15
230.077	86.53
230.295	76.29
230.513	61.95
230.731	-1.54
230.948	98.81
231.166	37.38
231.384	20.99
231.601	-32.26
231.819	162.3
232.037	70.14
232.254	-62.98
232.472	78.33
232.689	-32.26
232.907	66.05
233.125	14.85
233.342	-73.21
233.56	-9.73
233.777	-36.35
233.995	102.91
234.213	82.43
234.43	74.24
234.648	23.04
234.865	53.76
235.083	4.61
235.3	-13.82
235.518	68.09
235.735	129.53
235.953	55.81
236.17	49.66
236.388	39.42
236.605	20.99
236.822	8.7
237.04	68.09
237.257	37.38
237.475	-62.98
237.692	2.56
237.909	-9.73
238.127	29.18
238.344	102.91
238.562	61.95
238.779	-11.78
238.996	-48.64
239.214	18.94
239.431	61.95
239.648	49.66
239.865	23.04
240.083	90.62
240.3	20.99
240.517	64
240.735	39.42
240.952	88.57
241.169	18.94
241.386	70.14
241.603	66.05
241.821	37.38
242.038	96.77
242.255	86.53
242.472	-3.58
242.689	45.57
242.907	111.1
243.124	2.56
243.341	23.04
243.558	4.61
243.775	-69.12
243.992	-17.92
244.209	80.38
244.426	193.02
244.643	29.18
244.86	-7.68
245.078	117.25
245.295	66.05
245.512	20.99
245.729	55.81
245.946	115.2
246.163	59.9
246.38	0.51
246.597	27.14
246.814	68.09
247.031	55.81
247.248	98.81
247.464	-17.92
247.681	-17.92
247.898	68.09
248.115	61.95
248.332	49.66
248.549	88.57
248.766	66.05
248.983	76.29
249.2	119.29
249.417	102.91
249.633	-1.54
249.85	96.77
250.067	31.23
250.284	14.85
250.501	51.71
250.717	94.72
250.934	-24.06
251.151	41.47
251.368	2.56
251.585	43.52
251.801	16.9
252.018	14.85
252.235	53.76
252.451	-11.78
252.668	29.18
252.885	35.33
253.102	20.99
253.318	64
253.535	0.51
253.752	47.62
253.968	90.62
254.185	-52.74
254.401	66.05
254.618	47.62
254.835	-38.4
255.051	107.01
255.268	10.75
255.484	41.47
255.701	25.09
255.917	94.72
256.134	-65.02
256.351	41.47
256.567	-9.73
256.784	-15.87
257	-40.45
257.217	74.24
257.433	39.42
257.65	-26.11
257.866	86.53
258.082	10.75
258.299	-13.82
258.515	49.66
258.732	47.62
258.948	-32.26
259.165	45.57
259.381	-60.93
259.597	127.49
259.814	-7.68
260.03	18.94
260.246	-17.92
260.463	117.25
260.679	12.8
260.895	-7.68
261.112	96.77
261.328	6.66
261.544	74.24
261.761	84.48
261.977	2.56
262.193	-30.21
262.409	27.14
262.626	72.19
262.842	76.29
263.058	-17.92
263.274	27.14
263.49	61.95
263.707	90.62
263.923	29.18
264.139	-62.98
264.355	29.18
264.571	162.3
264.787	29.18
265.004	98.81
265.22	76.29
265.436	8.7
265.652	33.28
265.868	37.38
266.084	14.85
266.3	92.67
266.516	-1.54
266.732	33.28
266.948	-17.92
267.164	-11.78
267.38	70.14
267.596	139.77
267.812	164.35
268.028	39.42
268.244	45.57
268.46	51.71
268.676	-17.92
268.892	25.09
269.108	2.56
269.324	-24.06
269.54	47.62
269.756	100.86
269.972	37.38
270.188	39.42
270.403	-24.06
270.619	33.28
270.835	33.28
271.051	14.85
271.267	98.81
271.483	49.66
271.698	47.62
271.914	37.38
272.13	25.09
272.346	2.56
272.562	-5.63
272.777	102.91
272.993	-32.26
273.209	18.94
273.425	96.77
273.64	-9.73
273.856	55.81
274.072	55.81
274.287	51.71
274.503	37.38
274.719	115.2
274.934	59.9
275.15	0.51
275.366	35.33
275.581	59.9
275.797	10.75
276.012	4.61
276.228	-34.3
276.444	61.95
276.659	82.43
276.875	-13.82
277.09	-7.68
277.306	41.47
277.521	160.25
277.737	53.76
277.952	66.05
278.168	39.42
278.383	12.8
278.599	-11.78
278.814	23.04
279.03	-1.54
279.245	74.24
279.461	45.57
279.676	88.57
279.892	-58.88
280.107	-58.88
280.322	-34.3
280.538	107.01
280.753	-40.45
280.969	55.81
281.184	100.86
281.399	127.49
281.615	88.57
281.83	78.33
282.045	-44.54
282.26	18.94
282.476	33.28
282.691	37.38
282.906	61.95
283.122	78.33
283.337	-24.06
283.552	10.75
283.767	18.94
283.983	94.72
284.198	27.14
284.413	98.81
284.628	14.85
284.843	31.23
285.058	33.28
285.274	98.81
285.489	14.85
285.704	92.67
285.919	8.7
286.134	49.66
286.349	55.81
286.564	-50.69
286.779	84.48
286.995	47.62
287.21	-130.56
287.425	18.94
287.64	16.9
287.855	41.47
288.07	55.81
288.285	129.53
288.5	92.67
288.715	115.2
288.93	43.52
289.145	-46.59
289.36	74.24
289.575	-3.58
289.79	123.39
290.004	53.76
290.219	68.09
290.434	23.04
290.649	31.23
290.864	-1.54
291.079	107.01
291.294	20.99
291.509	72.19
291.724	29.18
291.938	61.95
292.153	90.62
292.368	2.56
292.583	70.14
292.798	35.33
293.012	-42.5
293.227	45.57
293.442	14.85
293.657	61.95
293.871	129.53
294.086	111.1
294.301	127.49
294.516	35.33
294.73	2.56
294.945	-40.45
295.16	70.14
295.374	64
295.589	84.48
295.804	39.42
296.018	59.9
296.233	92.67
296.447	82.43
296.662	-26.11
296.877	76.29
297.091	66.05
297.306	12.8
297.52	20.99
297.735	74.24
297.949	82.43
298.164	86.53
298.378	27.14
298.593	20.99
298.807	6.66
299.022	35.33
299.236	82.43
299.451	37.38
299.665	-65.02
299.88	82.43
300.094	49.66
300.309	41.47
300.523	41.47
300.737	0.51
300.952	82.43
301.166	66.05
301.381	59.9
301.595	61.95
301.809	8.7
302.024	57.86
302.238	66.05
302.452	88.57
302.667	90.62
302.881	47.62
303.095	66.05
303.309	88.57
303.524	0.51
303.738	-1.54
303.952	-3.58
304.166	57.86
304.381	86.53
304.595	64
304.809	-52.74
305.023	12.8
305.237	10.75
305.452	4.61
305.666	59.9
305.88	64
306.094	98.81
306.308	86.53
306.522	61.95
306.736	-1.54
306.95	-9.73
307.164	94.72
307.379	27.14
307.593	90.62
307.807	158.21
308.021	-40.45
308.235	57.86
308.449	0.51
308.663	-1.54
308.877	123.39
309.091	115.2
309.305	55.81
309.519	33.28
309.733	51.71
309.947	-24.06
310.161	88.57
310.374	37.38
310.588	78.33
310.802	37.38
311.016	-11.78
311.23	23.04
311.444	-1.54
311.658	-13.82
311.872	59.9
312.085	90.62
312.299	100.86
312.513	100.86
312.727	78.33
312.941	35.33
313.154	68.09
313.368	4.61
313.582	47.62
313.796	72.19
314.009	16.9
314.223	84.48
314.437	61.95
314.651	104.96
314.864	12.8
315.078	51.71
315.292	-28.16
315.505	-26.11
315.719	115.2
315.933	86.53
316.146	-36.35
316.36	-24.06
316.573	115.2
316.787	51.71
317.001	31.23
317.214	4.61
317.428	88.57
317.641	-26.11
317.855	-36.35
318.068	35.33
318.282	23.04
318.495	92.67
318.709	55.81
318.922	41.47
319.136	170.49
319.349	57.86
319.563	-42.5
319.776	102.91
319.99	-9.73
320.203	53.76
320.417	-1.54
320.63	51.71
320.843	176.64
321.057	-3.58
321.27	-34.3
321.483	51.71
321.697	156.16
321.91	-1.54
322.124	18.94
322.337	55.81
322.55	-17.92
322.763	113.15
322.977	8.7
323.19	20.99
323.403	25.09
323.617	39.42
323.83	64
324.043	27.14
324.256	59.9
324.469	-38.4
324.683	168.45
324.896	96.77
325.109	35.33
325.322	18.94
325.535	68.09
325.748	102.91
325.962	-22.02
326.175	27.14
326.388	82.43
326.601	117.25
326.814	53.76
327.027	-36.35
327.24	131.58
327.453	-77.31
327.666	96.77
327.879	61.95
328.092	78.33
328.305	98.81
328.518	-17.92
328.731	23.04
328.944	20.99
329.157	33.28
329.37	16.9
329.583	137.73
329.796	84.48
330.009	-28.16
330.222	119.29
330.435	119.29
330.648	96.77
330.861	74.24
331.073	47.62
331.286	72.19
331.499	6.66
331.712	-3.58
331.925	29.18
332.138	68.09
332.35	123.39
332.563	-56.83
332.776	-1.54
332.989	-28.16
333.202	43.52
333.414	20.99
333.627	78.33
333.84	18.94
334.053	45.57
334.265	53.76
334.478	59.9
334.691	-24.06
334.903	68.09
335.116	2.56
335.329	-9.73
335.541	117.25
335.754	115.2
335.966	0.51
336.179	43.52
336.392	-1.54
336.604	129.53
336.817	80.38
337.029	41.47
337.242	53.76
337.454	92.67
337.667	55.81
337.88	178.69
338.092	49.66
338.305	115.2
338.517	-32.26
338.729	59.9
338.942	39.42
339.154	-19.97
339.367	2.56
339.579	86.53
339.792	88.57
340.004	76.29
340.217	-36.35
340.429	98.81
340.641	-22.02
340.854	47.62
341.066	-19.97
341.278	41.47
341.491	154.11
341.703	29.18
341.915	25.09
342.128	84.48
342.34	33.28
342.552	-34.3
342.764	14.85
342.977	59.9
343.189	33.28
343.401	78.33
343.613	4.61
343.826	51.71
344.038	51.71
344.25	39.42
344.462	-28.16
344.674	74.24
344.886	41.47
345.099	64
345.311	14.85
345.523	-28.16
345.735	-62.98
345.947	31.23
346.159	29.18
346.371	82.43
346.583	92.67
346.795	141.82
347.007	78.33
347.219	78.33
347.431	-40.45
347.643	78.33
347.855	-13.82
348.067	88.57
348.279	37.38
348.491	-26.11
348.703	41.47
348.915	43.52
349.127	131.58
349.339	123.39
349.551	2.56
349.763	102.91
349.975	20.99
350.187	86.53
350.399	147.97
350.61	68.09
350.822	59.9
351.034	57.86
351.246	86.53
351.458	27.14
351.669	-3.58
351.881	47.62
352.093	84.48
352.305	84.48
352.517	-7.68
352.728	127.49
352.94	68.09
353.152	76.29
353.363	14.85
353.575	33.28
353.787	102.91
353.999	74.24
354.21	92.67
354.422	29.18
354.633	-1.54
354.845	-13.82
355.057	-3.58
355.268	-11.78
355.48	45.57
355.692	-36.35
355.903	16.9
356.115	-7.68
356.326	-11.78
356.538	156.16
356.749	41.47
356.961	78.33
357.172	35.33
357.384	-15.87
357.595	107.01
357.807	2.56
358.018	59.9
358.23	14.85
358.441	82.43
358.653	111.1
358.864	37.38
359.075	12.8
359.287	37.38
359.498	35.33
359.709	64
359.921	29.18
360.132	61.95
360.344	-15.87
360.555	2.56
360.766	64
360.977	74.24
361.189	61.95
361.4	45.57
361.611	57.86
361.823	125.44
362.034	47.62
362.245	2.56
362.456	-11.78
362.667	123.39
362.879	70.14
363.09	25.09
363.301	64
363.512	-40.45
363.723	74.24
363.935	29.18
364.146	29.18
364.357	33.28
364.568	49.66
364.779	-54.78
364.99	68.09
365.201	6.66
365.412	76.29
365.623	10.75
365.834	27.14
366.045	59.9
366.256	27.14
366.467	45.57
366.678	88.57
366.889	47.62
367.1	86.53
367.311	-11.78
367.522	49.66
367.733	111.1
367.944	70.14
368.155	141.82
368.366	64
368.577	107.01
368.788	23.04
368.999	4.61
369.209	43.52
369.42	68.09
369.631	104.96
369.842	39.42
370.053	-9.73
370.264	109.05
370.474	-17.92
370.685	53.76
370.896	31.23
371.107	139.77
371.317	37.38
371.528	43.52
371.739	137.73
371.95	72.19
372.16	51.71
372.371	33.28
372.582	-28.16
372.792	59.9
373.003	8.7
373.214	29.18
373.424	55.81
373.635	0.51
373.846	88.57
374.056	51.71
374.267	61.95
374.477	37.38
374.688	0.51
374.898	70.14
375.109	47.62
375.319	61.95
375.53	102.91
375.74	27.14
375.951	8.7
376.161	16.9
376.372	102.91
376.582	-5.63
376.793	64
377.003	-19.97
377.214	0.51
377.424	35.33
377.635	64
377.845	-17.92
378.055	88.57
378.266	-1.54
378.476	-26.11
378.686	61.95
378.897	96.77
379.107	133.63
379.317	53.76
379.528	31.23
379.738	45.57
379.948	-81.41
380.158	94.72
380.369	84.48
380.579	111.1
380.789	45.57
380.999	64
381.21	80.38
381.42	70.14
381.63	31.23
381.84	-7.68
382.05	94.72
382.261	53.76
382.471	82.43
382.681	53.76
382.891	94.72
383.101	98.81
383.311	-11.78
383.521	53.76
383.731	160.25
383.941	96.77
384.151	-9.73
384.361	74.24
384.571	6.66
384.781	-11.78
384.991	180.73
385.201	178.69
385.411	47.62
385.621	109.05
385.831	72.19
386.041	88.57
386.251	88.57
386.461	64
386.671	-30.21
386.881	59.9
387.091	2.56
387.301	141.82
387.511	66.05
387.72	25.09
387.93	33.28
388.14	33.28
388.35	53.76
388.56	45.57
388.769	84.48
388.979	64
389.189	-40.45
389.399	31.23
389.609	80.38
389.818	68.09
390.028	111.1
390.238	45.57
390.447	29.18
390.657	31.23
390.867	39.42
391.076	45.57
391.286	10.75
391.496	102.91
391.705	-26.11
391.915	127.49
392.125	64
392.334	86.53
392.544	205.31
392.753	37.38
392.963	12.8
393.172	78.33
393.382	-11.78
393.591	131.58
393.801	-24.06
394.01	37.38
394.22	-15.87
394.429	96.77
394.639	10.75
394.848	61.95
395.058	68.09
395.267	102.91
395.477	57.86
395.686	0.51
395.895	147.97
396.105	213.5
396.314	74.24
396.524	72.19
396.733	113.15
396.942	70.14
397.152	59.9
397.361	92.67
397.57	2.56
397.78	98.81
397.989	25.09
398.198	143.87
398.407	88.57
398.617	131.58
398.826	55.81
399.035	121.34
399.244	129.53
399.453	68.09
399.663	90.62
399.872	16.9
400.081	-1.54
400.29	129.53
400.499	74.24
400.708	109.05
400.917	41.47
401.127	115.2
401.336	92.67
401.545	107.01
401.754	117.25
401.963	139.77
402.172	154.11
402.381	57.86
402.59	115.2
402.799	92.67
403.008	107.01
403.217	82.43
403.426	119.29
403.635	82.43
403.844	117.25
404.053	102.91
404.262	64
404.471	195.07
404.68	203.26
404.888	137.73
405.097	164.35
405.306	160.25
405.515	143.87
405.724	125.44
405.933	139.77
406.142	145.92
406.35	264.7
406.559	172.54
406.768	88.57
406.977	254.46
407.185	156.16
407.394	205.31
407.603	135.68
407.812	215.55
408.02	150.01
408.229	217.6
408.438	111.1
408.646	162.3
408.855	225.79
409.064	262.65
409.272	178.69
409.481	156.16
409.69	156.16
409.898	147.97
410.107	160.25
410.315	236.03
410.524	223.74
410.733	211.45
410.941	207.36
411.15	266.75
411.358	295.42
411.567	244.22
411.775	272.89
411.984	233.98
412.192	301.56
412.401	301.56
412.609	406.01
412.818	406.01
413.026	408.06
413.234	358.91
413.443	311.8
413.651	367.1
413.86	338.43
414.068	483.83
414.276	543.22
414.485	426.49
414.693	485.88
414.901	489.98
415.11	512.5
415.318	434.68
415.526	520.7
415.734	557.56
415.943	510.46
416.151	551.42
416.359	532.98
416.567	512.5
416.776	616.95
416.984	680.44
417.192	717.3
417.4	627.19
417.608	645.62
417.817	672.25
418.025	786.93
418.233	866.8
418.441	733.68
418.649	778.74
418.857	842.23
419.065	848.37
419.273	852.47
419.481	930.29
419.689	924.15
419.897	950.77
420.105	981.49
420.313	1008.11
420.521	1036.78
420.729	1130.99
420.937	1069.55
421.145	1104.37
421.353	1253.87
421.561	1307.12
421.769	1321.45
421.977	1335.79
422.185	1321.45
422.393	1397.23
422.601	1485.29
422.809	1452.52
423.017	1532.39
423.224	1561.06
423.432	1624.55
423.64	1554.92
423.848	1804.77
424.056	1735.14
424.263	1853.92
424.471	1821.16
424.679	2003.43
424.887	1970.66
425.094	2068.96
425.302	2071.01
425.51	2130.4
425.718	2277.85
425.925	2243.04
426.133	2333.15
426.341	2443.74
426.548	2548.19
426.756	2439.64
426.964	2490.84
427.171	2623.96
427.379	2806.23
427.586	2759.13
427.794	2863.57
428.001	2990.55
428.209	3252.69
428.417	3148.24
428.624	3396.04
428.832	3330.51
429.039	3355.08
429.247	3226.06
429.454	3674.57
429.662	3854.79
429.869	3637.7
430.076	3969.48
430.284	3815.88
430.491	3969.48
430.699	4121.03
430.906	4082.11
431.114	4254.14
431.321	4420.03
431.528	4448.7
431.736	4743.61
431.943	4759.99
432.15	4725.18
432.358	4729.27
432.565	5249.46
432.772	5015.99
432.979	5257.65
433.187	5204.4
433.394	5312.94
433.601	5681.58
433.808	5751.21
434.016	5640.62
434.223	5933.48
434.43	6273.44
434.637	6427.04
434.844	6597.02
435.052	6750.62
435.259	6576.54
435.466	6719.9
435.673	6588.83
435.88	7027.09
436.087	7446.93
436.294	7434.64
436.501	7303.57
436.708	7582.09
436.915	7752.07
437.122	8161.67
437.329	8059.27
437.537	8098.18
437.743	8399.23
437.95	8401.28
438.157	8634.75
438.364	8896.89
438.571	9007.48
438.778	9261.43
438.985	9961.83
439.192	9558.38
439.399	9580.91
439.606	9505.13
439.813	10287.46
440.02	10877.27
440.227	10684.76
440.433	10471.78
440.64	10668.38
440.847	10660.19
441.054	11088.21
441.261	11786.57
441.467	11440.47
441.674	11862.35
441.881	12308.8
442.088	12185.93
442.294	12079.43
442.501	12327.24
442.708	12704.06
442.914	12964.15
443.121	13629.74
443.328	13257.01
443.534	14014.76
443.741	13642.03
443.948	13463.86
444.154	14719.26
444.361	14299.43
444.568	14541.09
444.774	14444.84
444.981	14438.69
445.187	14876.96
445.394	15739.15
445.6	15407.38
445.807	16806.14
446.013	16206.09
446.22	16412.93
446.426	17389.81
446.633	17324.28
446.839	17862.9
447.046	16963.84
447.252	18069.74
447.459	18243.82
447.665	18010.35
447.871	18774.24
448.078	19687.64
448.284	18604.26
448.491	19316.95
448.697	19775.7
448.903	20259.02
449.11	20121.8
449.316	19777.75
449.522	20605.13
449.728	20846.79
449.935	20914.37
450.141	21078.21
450.347	21397.69
450.553	20506.82
450.76	20963.52
450.966	21733.56
451.172	21733.56
451.378	22235.31
451.584	21469.37
451.791	22167.73
451.997	21659.83
452.203	22339.76
452.409	22153.39
452.615	22069.42
452.821	21350.59
453.027	21115.07
453.233	22108.33
453.44	21311.67
453.646	21364.92
453.852	21481.66
454.058	21776.56
454.264	21014.72
454.47	21530.81
454.676	20885.7
454.882	21629.11
455.088	19970.26
455.294	20056.27
455.5	20345.03
455.705	20936.9
455.911	19693.78
456.117	19255.51
456.323	19063.01
456.529	18043.12
456.735	18954.46
456.941	18333.93
457.147	18168.04
457.352	17656.05
457.558	17285.37
457.764	17438.97
457.97	17051.9
458.176	16634.11
458.381	16455.94
458.587	15941.9
458.793	15847.69
458.999	15036.7
459.204	15776.02
459.41	15399.19
459.616	14352.68
459.821	14463.27
460.027	14321.96
460.233	14127.4
460.438	13381.94
460.644	13633.84
460.85	13041.98
461.055	12906.81
461.261	12917.05
461.466	11798.86
461.672	11645.26
461.878	12243.27
462.083	11514.19
462.289	11108.69
462.494	10676.57
462.7	10539.36
462.905	10183.01
463.111	10510.69
463.316	10514.78
463.522	10309.99
463.727	10262.88
463.932	10279.27
464.138	10361.19
464.343	10240.36
464.549	9959.78
464.754	10383.71
464.959	9976.17
465.165	10338.66
465.37	9521.52
465.575	9410.93
465.781	9783.66
465.986	9933.16
466.191	9441.65
466.397	9392.5
466.602	9001.33
466.807	9238.9
467.012	9374.06
467.218	9236.85
467.423	9199.99
467.628	9120.12
467.833	9345.39
468.038	9011.57
468.244	8688
468.449	9173.36
468.654	8991.09
468.859	8913.27
469.064	8714.62
469.269	8339.84
469.474	8454.53
469.679	8659.32
469.885	8376.7
470.09	8509.82
470.295	8612.22
470.5	8354.18
470.705	8053.13
470.91	7924.1
471.115	8010.12
471.32	8192.39
471.525	8104.32
471.73	7960.97
471.935	7752.07
472.139	7610.76
472.344	7803.27
472.549	7641.48
472.754	7502.22
472.959	7393.68
473.164	7092.63
473.369	7166.35
473.574	7385.49
473.778	7174.55
473.983	7401.87
474.188	7229.84
474.393	6916.5
474.598	6996.37
474.802	6893.97
475.007	6701.47
475.212	6832.54
475.417	6525.34
475.621	6611.36
475.826	6345.12
476.031	6427.04
476.235	6302.11
476.44	6281.63
476.645	6152.61
476.849	6093.22
477.054	6099.36
477.259	6052.26
477.463	6150.56
477.668	5970.34
477.872	5923.24
478.077	5962.15
478.282	5833.13
478.486	5816.74
478.691	5564.84
478.895	5552.56
479.1	5681.58
479.304	5657
479.509	5304.75
479.713	5472.68
479.918	5267.89
480.122	5376.43
480.326	5611.95
480.531	5495.21
480.735	5261.74
480.94	5462.44
481.144	5581.23
481.348	5226.93
481.553	5339.57
481.757	5122.48
481.961	5185.97
482.166	5224.88
482.37	5220.78
482.574	5216.69
482.778	5136.82
482.983	5233.07
483.187	5235.12
483.391	5181.87
483.595	5097.91
483.8	5069.23
484.004	5108.15
484.208	5241.26
484.412	5155.25
484.616	5091.76
484.821	5134.77
485.025	4872.63
485.229	5190.06
485.433	5120.43
485.637	5167.54
485.841	5065.14
486.045	5061.04
486.249	5079.47
486.453	5013.94
486.657	5042.61
486.861	5185.97
487.065	5003.7
487.269	5036.47
487.473	5001.65
487.677	5124.53
487.881	5222.83
488.085	5235.12
488.289	5220.78
488.493	5036.47
488.697	5249.46
488.901	5116.34
489.105	5142.96
489.309	5046.71
489.512	5147.06
489.716	5120.43
489.92	5026.23
490.124	5300.66
490.328	5134.77
490.531	5032.37
490.735	5163.44
490.939	5181.87
491.143	5204.4
491.346	5310.89
491.55	5192.11
491.754	5288.37
491.958	5329.33
492.161	5251.5
492.365	5380.53
492.569	5329.33
492.772	5335.47
492.976	5435.82
493.18	5386.67
493.383	5636.52
493.587	5480.88
493.79	5464.49
493.994	5413.29
494.197	5388.72
494.401	5755.3
494.605	5792.17
494.808	5790.12
495.012	5829.03
495.215	5831.08
495.419	5788.07
495.622	5726.63
495.825	5974.44
496.029	5847.46
496.232	6203.81
496.436	5937.57
496.639	6156.71
496.843	6023.59
497.046	6105.51
497.249	6181.28
497.453	6173.09
497.656	6343.07
497.859	6197.67
498.063	6396.32
498.266	6732.19
498.469	6521.24
498.673	6523.29
498.876	6748.57
499.079	6683.03
499.282	6631.83
499.485	7100.82
499.689	7125.4
499.892	7180.69
500.095	7238.03
500.298	7088.53
500.501	7139.73
500.705	7346.58
500.908	7471.5
501.111	7453.07
501.314	7557.52
501.517	7780.75
501.72	7594.38
501.923	7496.08
502.126	7715.21
502.329	8180.1
502.532	7784.84
502.735	8032.65
502.938	8216.96
503.141	8163.72
503.344	8364.42
503.547	8427.9
503.75	8491.39
503.953	8661.37
504.156	8589.69
504.359	8688
504.562	8716.67
504.765	9085.3
504.968	9132.4
505.17	9042.29
505.373	9187.7
505.576	9308.53
505.779	9378.16
505.982	9634.16
506.185	9599.34
506.387	9507.18
506.59	9812.33
506.793	10000.74
506.996	9728.36
507.198	10236.26
507.401	10017.13
507.604	10205.54
507.807	10338.66
508.009	10428.77
508.212	10557.79
508.415	10543.46
508.617	10815.83
508.82	10864.99
509.022	10787.16
509.225	11014.49
509.428	11188.57
509.63	11069.78
509.833	11239.76
510.035	11551.06
510.238	11614.54
510.44	11608.4
510.643	11794.76
510.845	11860.3
511.048	11725.13
511.25	11942.22
511.453	12058.95
511.655	12499.27
511.858	12204.36
512.06	12298.56
512.262	12579.14
512.465	12568.9
512.667	12796.22
512.87	12872
513.072	12923.19
513.274	13179.19
513.477	13396.28
513.679	13252.92
513.881	13248.82
514.084	13631.79
514.286	13517.11
514.488	13603.12
514.69	13981.99
514.893	14012.71
515.095	13963.56
515.297	14088.49
515.499	13994.28
515.701	14319.91
515.904	14512.42
516.106	14592.29
516.308	14602.53
516.51	14635.3
516.712	14829.85
516.914	14946.59
517.116	15071.51
517.318	15399.19
517.52	15216.92
517.722	15257.88
517.925	15579.41
518.127	15542.55
518.329	15622.42
518.531	15765.78
518.733	15902.99
518.935	15978.76
519.136	16058.63
519.338	16537.86
519.54	16441.61
519.742	16640.26
519.944	16519.43
520.146	16963.84
520.348	16746.75
520.55	17035.52
520.752	16693.51
520.954	17148.15
521.155	16773.38
521.357	17352.95
521.559	17379.57
521.761	17512.69
521.963	17551.6
522.164	17803.5
522.366	17639.67
522.568	17615.09
522.77	17912.05
522.971	17985.77
523.173	17821.94
523.375	17883.38
523.576	18180.33
523.778	18051.31
523.98	18125.04
524.181	18579.68
524.383	18389.22
524.584	18600.16
524.786	18573.54
524.988	18667.75
525.189	18501.86
525.391	18766.05
525.592	18991.33
525.794	19128.54
525.995	18815.2
526.197	18835.68
526.398	18995.42
526.6	18976.99
526.801	19028.19
527.003	19075.29
527.204	19296.47
527.406	19419.35
527.607	19425.5
527.808	19372.25
528.01	19124.44
528.211	19230.94
528.412	19607.76
528.614	19575
528.815	19736.79
529.016	19708.12
529.218	19511.51
529.419	19472.6
529.62	19509.46
529.822	19646.68
530.023	19572.95
530.224	19726.55
530.425	19560.66
530.626	19484.89
530.828	19529.94
531.029	19894.48
531.23	19579.09
531.431	19534.04
531.632	19644.63
531.833	19865.81
532.035	19874
532.236	19751.12
532.437	19917.01
532.638	19603.67
532.839	19718.36
533.04	19611.86
533.241	19527.89
533.442	19988.69
533.643	19734.74
533.844	19843.28
534.045	19714.26
534.246	19601.62
534.447	19951.82
534.648	19790.03
534.849	19462.36
535.05	19572.95
535.251	19845.33
535.451	19624.15
535.652	19374.3
535.853	19853.52
536.054	19531.99
536.255	19802.32
536.456	19445.98
536.657	19841.23
536.857	19843.28
537.058	19488.98
537.259	19951.82
537.46	19620.05
537.66	19407.06
537.861	19697.88
538.062	19519.7
538.263	19488.98
538.463	19761.36
538.664	19491.03
538.865	19792.08
539.065	19812.56
539.266	19239.13
539.466	19744.98
539.667	19441.88
539.868	19839.19
540.068	19419.35
540.269	19673.3
540.469	19646.68
540.67	19261.66
540.87	19658.96
541.071	19501.27
541.271	19507.41
541.472	19362.01
541.672	19052.77
541.873	19378.39
542.073	19001.57
542.274	19534.04
542.474	19394.78
542.675	19331.29
542.875	19407.06
543.075	19454.17
543.276	19232.99
543.476	19427.54
543.676	19259.61
543.877	19208.41
544.077	19441.88
544.277	19302.62
544.478	19448.02
544.678	19189.98
544.878	19683.54
545.078	19536.09
545.279	19323.1
545.479	19169.5
545.679	19214.55
545.879	19443.93
546.079	19034.33
546.28	18917.6
546.48	19415.26
546.68	19175.64
546.88	19175.64
547.08	19235.03
547.28	19114.2
547.48	19089.63
547.68	19089.63
547.88	19036.38
548.081	19089.63
548.281	19077.34
548.481	19034.33
548.681	19261.66
548.881	19278.04
549.081	18905.31
549.28	18839.78
549.48	19222.75
549.68	19101.92
549.88	19232.99
550.08	18985.18
550.28	19003.61
550.48	19030.24
550.68	19146.97
550.88	18880.74
551.08	19042.53
551.279	19282.14
551.479	18860.26
551.679	18968.8
551.879	19042.53
552.079	19214.55
552.278	19013.85
552.478	18933.98
552.678	19173.6
552.878	19013.85
553.077	18821.34
553.277	18759.91
553.477	19128.54
553.676	19048.67
553.876	18780.39
554.076	18911.46
554.275	19015.9
554.475	18880.74
554.674	18964.7
554.874	18780.39
555.074	18694.37
555.273	18989.28
555.473	18911.46
555.672	18888.93
555.872	18878.69
556.071	18626.79
556.271	19005.66
556.47	18620.64
556.67	18559.2
556.869	18589.92
557.068	18841.82
557.268	18608.36
557.467	18557.16
557.667	18692.32
557.866	18497.77
558.065	18815.2
558.265	18641.12
558.464	18807.01
558.663	18567.4
558.863	18616.55
559.062	19030.24
559.261	18393.32
559.461	18688.23
559.66	18440.42
559.859	18677.99
560.058	18450.66
560.258	18569.44
560.457	18452.71
560.656	18774.24
560.855	18551.01
561.054	18688.23
561.253	18532.58
561.453	18483.43
561.652	18555.11
561.851	18847.97
562.05	18516.2
562.249	18426.09
562.448	18589.92
562.647	18329.83
562.846	18403.56
563.045	18497.77
563.244	18483.43
563.443	18503.91
563.642	18561.25
563.841	18526.44
564.04	18368.74
564.239	18612.45
564.438	18419.94
564.637	18544.87
564.836	18596.07
565.035	18135.28
565.234	18188.52
565.432	18225.39
565.631	18245.87
565.83	18239.72
566.029	18258.15
566.228	18110.7
566.427	18313.45
566.625	17924.33
566.824	17996.01
567.023	18077.93
567.222	17996.01
567.42	18047.21
567.619	18018.54
567.818	18020.59
568.016	17869.04
568.215	18192.62
568.414	18024.68
568.612	18020.59
568.811	17823.98
569.01	18045.16
569.208	17922.29
569.407	17914.09
569.605	17858.8
569.804	17948.91
570.002	18098.41
570.201	17957.1
570.4	17746.16
570.598	17721.59
570.797	17729.78
570.995	17586.42
571.193	17529.08
571.392	17742.07
571.59	17535.22
571.789	17838.32
571.987	17817.84
572.186	17686.77
572.384	17504.5
572.582	17772.78
572.781	17819.89
572.979	17283.32
573.177	17586.42
573.376	17803.5
573.574	17856.75
573.772	17694.96
573.971	17684.72
574.169	17217.79
574.367	17355
574.565	17461.49
574.763	17365.24
574.962	17348.86
575.16	17010.94
575.358	17510.64
575.556	17393.91
575.754	17533.17
575.952	17062.14
576.151	17309.94
576.349	17408.25
576.547	17035.52
576.745	17355
576.943	17203.45
577.141	17027.32
577.339	17285.37
577.537	17000.7
577.735	17346.81
577.933	16939.26
578.131	17015.04
578.329	17090.81
578.527	17035.52
578.725	17070.33
578.923	17051.9
579.121	16896.25
579.319	16931.07
579.516	16922.88
579.714	17004.8
579.912	17029.37
580.11	16916.73
580.308	16969.98
580.506	16826.62
580.704	16668.93
580.901	16933.12
581.099	16990.46
581.297	16748.8
581.495	16582.91
581.692	16589.06
581.89	16699.65
582.088	16791.81
582.285	16646.4
582.483	16619.78
582.681	16617.73
582.878	16611.59
583.076	16386.31
583.274	16558.34
583.471	16470.28
583.669	16748.8
583.866	16400.65
584.064	16468.23
584.262	16089.35
584.459	16433.41
584.657	16427.27
584.854	16361.73
585.052	16230.66
585.249	16339.21
585.447	16333.06
585.644	15946
585.841	16392.45
586.039	16222.47
586.236	16095.5
586.434	15978.76
586.631	16232.71
586.828	16142.6
587.026	16083.21
587.223	16105.74
587.42	15974.67
587.618	16226.57
587.815	15837.45
588.012	16124.17
588.21	15667.47
588.407	16093.45
588.604	16025.87
588.801	15845.65
588.999	16021.77
589.196	15839.5
589.393	15780.11
589.59	16236.81
589.787	15907.09
589.984	15595.79
590.182	15612.18
590.379	15649.04
590.576	16023.82
590.773	15673.62
590.97	15626.51
591.167	15642.9
591.364	15462.68
591.561	15513.88
591.758	15700.24
591.955	15694.1
592.152	15479.06
592.349	15669.52
592.546	15651.09
592.743	15671.57
592.94	15276.31
593.137	15450.39
593.334	15886.61
593.531	15288.6
593.727	15788.3
593.924	15391
594.121	15341.85
594.318	15606.03
594.515	15395.09
594.712	15315.22
594.908	15524.12
595.105	15444.24
595.302	15378.71
595.499	15319.32
595.696	15507.73
595.892	15071.51
596.089	15356.18
596.286	15005.98
596.482	15315.22
596.679	15368.47
596.876	15343.89
597.072	15130.91
597.269	15317.27
597.466	15098.14
597.662	15358.23
597.859	15098.14
598.055	15360.28
598.252	15266.07
598.448	15223.06
598.645	15192.34
598.841	15010.07
599.038	15309.08
599.234	15255.83
599.431	15255.83
599.627	15171.86
599.824	15180.06
600.02	15026.46
600.217	15231.26
600.413	15042.84
600.609	15104.28
600.806	15098.14
601.002	15028.51
601.198	15182.1
601.395	14958.88
601.591	15159.58
601.787	15175.96
601.984	15159.58
602.18	15094.04
602.376	15206.68
602.572	15034.65
602.769	14862.62
602.965	15077.66
603.161	15255.83
603.357	14831.9
603.553	15051.03
603.75	15102.23
603.946	15161.62
604.142	15489.3
604.338	15165.72
604.534	15382.81
604.73	15038.75
604.926	15077.66
605.122	15313.17
605.318	14928.16
605.514	15055.13
605.71	14928.16
605.906	15055.13
606.102	15122.71
606.298	15147.29
606.494	15339.8
606.69	15194.39
606.886	15347.99
607.082	15094.04
607.278	15311.13
607.474	15091.99
607.67	15268.12
607.866	15268.12
608.062	15618.32
608.257	15376.66
608.453	15300.89
608.649	15386.9
608.845	15352.09
609.041	15608.08
609.236	15511.83
609.432	15456.53
609.628	15462.68
609.824	15407.38
610.019	15345.94
610.215	15438.1
610.411	15479.06
610.606	15466.77
610.802	15776.02
610.998	15421.72
611.193	15493.4
611.389	15696.14
611.584	15610.13
611.78	15720.72
611.976	15577.36
612.171	15929.61
612.367	15653.14
612.562	15730.96
612.758	15550.74
612.953	15546.64
613.149	15757.58
613.344	15511.83
613.539	15870.22
613.735	15657.23
613.93	16066.83
614.126	15767.82
614.321	15931.66
614.517	15933.71
614.712	15874.32
614.907	15894.8
615.103	15847.69
615.298	15790.35
615.493	16144.65
615.688	15995.15
615.884	16040.2
616.079	15898.89
616.274	16126.22
616.47	15919.37
616.665	15993.1
616.86	16128.27
617.055	15814.93
617.25	16201.99
617.445	16214.28
617.641	15943.95
617.836	16158.99
618.031	15790.35
618.226	16447.75
618.421	16032.01
618.616	16128.27
618.811	15837.45
619.006	16232.71
619.201	15833.36
619.396	16216.33
619.591	15962.38
619.786	16105.74
619.981	15888.65
620.176	16081.16
620.371	15776.02
620.566	15921.42
620.761	15735.06
620.956	15853.84
621.151	15913.23
621.346	15982.86
621.541	15679.76
621.735	15839.5
621.93	15614.23
622.125	15679.76
622.32	15462.68
622.515	15825.17
622.709	15593.75
622.904	15646.99
623.099	15583.51
623.294	15450.39
623.488	15608.08
623.683	15497.49
623.878	15145.24
624.072	15173.91
624.267	15470.87
624.462	15288.6
624.656	15012.12
624.851	15212.82
625.046	15124.76
625.24	15036.7
625.435	14813.47
625.629	14954.78
625.824	14868.77
626.018	14917.92
626.213	14563.62
626.407	14772.51
626.602	14440.74
626.796	14752.03
626.991	14809.37
627.185	14496.03
627.38	14584.1
627.574	14201.13
627.768	14356.77
627.963	14281
628.157	14426.4
628.352	14305.57
628.546	14076.2
628.74	14405.92
628.935	13986.09
629.129	14078.25
629.323	13859.12
629.517	13867.31
629.712	13682.99
629.906	13920.56
630.1	13717.81
630.294	13738.29
630.489	13635.89
630.683	13670.7
630.877	13676.85
631.071	13357.36
631.265	13369.65
631.459	13449.52
631.653	13310.26
631.848	13627.7
632.042	13293.88
632.236	13377.84
632.43	13306.16
632.624	13275.45
632.818	13121.85
633.012	13146.42
633.206	13101.37
633.4	13076.79
633.594	12818.75
633.788	12669.25
633.982	12861.76
634.176	12958.01
634.369	12765.5
634.563	12861.76
634.757	12646.72
634.951	12577.09
635.145	12640.58
635.339	12599.62
635.533	12593.47
635.726	12374.34
635.92	12446.02
636.114	12276.04
636.308	12230.98
636.501	12212.55
636.695	12015.94
636.889	12106.06
637.083	12138.82
637.276	12040.52
637.47	12040.52
637.664	11911.5
637.857	12015.94
638.051	11811.15
638.244	11721.04
638.438	11589.97
638.632	11538.77
638.825	11481.42
639.019	11549.01
639.212	11321.68
639.406	11403.6
639.599	11207
639.793	11297.11
639.986	11278.68
640.18	11393.36
640.373	11102.55
640.567	10803.55
640.76	11118.93
640.954	10922.33
641.147	10885.47
641.34	10854.75
641.534	10735.96
641.727	10807.64
641.92	10643.81
642.114	10776.92
642.307	10588.51
642.5	10365.28
642.694	10350.95
642.887	10443.1
643.08	10283.36
643.273	10490.21
643.467	10215.78
643.66	10092.9
643.853	10113.38
644.046	10010.98
644.239	10056.04
644.432	10006.89
644.626	9660.78
644.819	10019.18
645.012	9945.45
645.205	9609.58
645.398	9791.85
645.591	9632.11
645.784	9556.33
645.977	9460.08
646.17	9468.27
646.363	9329.01
646.556	9156.98
646.749	9265.52
646.942	9304.43
647.135	9126.26
647.328	9171.32
647.521	9005.43
647.714	8978.81
647.907	9062.77
648.099	8835.45
648.292	8968.57
648.485	8839.55
648.678	8667.52
648.871	8655.23
649.064	8632.7
649.256	8702.33
649.449	8456.57
649.642	8608.12
649.835	8345.98
650.027	8313.22
650.22	8442.24
650.413	8327.55
650.605	8272.26
650.798	8329.6
650.991	8219.01
651.183	8044.93
651.376	8008.07
651.568	8139.14
651.761	7897.48
651.954	7848.33
652.146	7686.54
652.339	7969.16
652.531	7885.19
652.724	7651.72
652.916	7631.24
653.109	7549.32
653.301	7715.21
653.494	7797.13
653.686	7367.06
653.879	7545.23
654.071	7412.11
654.263	7272.85
654.456	7399.82
654.648	7270.8
654.84	7309.71
655.033	7113.11
655.225	7281.04
655.417	7016.85
655.61	7180.69
655.802	7049.62
655.994	6867.35
656.186	6801.82
656.379	7000.47
656.571	6934.93
656.763	6672.79
656.955	6863.26
657.148	6844.82
657.34	6654.36
657.532	6635.93
657.724	6543.77
657.916	6461.85
658.108	6351.26
658.3	6572.44
658.492	6420.89
658.684	6175.14
658.876	6314.4
659.068	6379.93
659.26	6298.02
659.452	6181.28
659.644	6273.44
659.836	6121.89
660.028	6265.25
660.22	6003.11
660.412	6185.38
660.604	6123.94
660.796	6017.44
660.988	5820.84
661.18	5765.54
661.372	5865.89
661.563	5806.5
661.755	5663.15
661.947	5718.44
662.139	5657
662.331	5607.85
662.522	5587.37
662.714	5599.66
662.906	5433.77
663.097	5353.9
663.289	5456.3
663.481	5351.85
663.673	5368.24
663.864	5327.28
664.056	5263.79
664.247	5175.73
664.439	5097.91
664.631	5190.06
664.822	5206.45
665.014	5087.67
665.205	5061.04
665.397	5018.04
665.588	5155.25
665.78	4948.4
665.971	5120.43
666.163	4948.4
666.354	4862.39
666.546	4938.16
666.737	4837.81
666.929	4864.44
667.12	4788.66
667.311	4759.99
667.503	4665.78
667.694	4766.14
667.885	4661.69
668.077	4596.15
668.268	4637.11
668.459	4561.34
668.651	4624.83
668.842	4444.6
669.033	4501.95
669.224	4510.14
669.416	4526.52
669.607	4553.15
669.798	4387.26
669.989	4479.42
670.18	4393.4
670.371	4291.01
670.563	4344.25
670.754	4217.28
670.945	4338.11
671.136	4411.84
671.327	4213.18
671.518	4307.39
671.709	4309.44
671.9	4159.94
672.091	4272.57
672.282	4207.04
672.473	4106.69
672.664	4161.98
672.855	4049.35
673.046	4217.28
673.237	4161.98
673.428	4006.34
673.619	4102.59
673.809	3981.76
674	4131.26
674.191	4002.24
674.382	3975.62
674.573	4082.11
674.764	3942.85
674.954	4020.67
675.145	3928.52
675.336	4010.43
675.527	4037.06
675.717	3897.8
675.908	3897.8
676.099	3807.69
676.289	3967.43
676.48	3951.04
676.671	3897.8
676.861	3822.02
677.052	3793.35
677.243	3905.99
677.433	3789.25
677.624	3967.43
677.814	3811.78
678.005	3693
678.195	3836.36
678.386	3809.73
678.576	3752.39
678.767	3764.68
678.957	3709.38
679.148	3791.3
679.338	3822.02
679.529	3860.93
679.719	3733.96
679.909	3824.07
680.1	3758.53
680.29	3693
680.481	3758.53
680.671	3715.53
680.861	3600.84
681.052	3768.77
681.242	3615.18
681.432	3815.88
681.622	3668.42
681.813	3537.35
682.003	3615.18
682.193	3559.88
682.383	3592.65
682.573	3686.86
682.764	3600.84
682.954	3621.32
683.144	3668.42
683.334	3725.77
683.524	3697.1
683.714	3637.7
683.904	3660.23
684.094	3682.76
684.284	3447.24
684.474	3578.31
684.664	3635.66
684.854	3664.33
685.044	3555.79
685.234	3617.22
685.424	3611.08
685.614	3451.34
685.804	3621.32
685.994	3695.05
686.184	3529.16
686.374	3574.22
686.564	3559.88
686.753	3588.55
686.943	3408.33
687.133	3439.05
687.323	3613.13
687.513	3600.84
687.702	3563.98
687.892	3492.3
688.082	3613.13
688.272	3494.35
688.461	3615.18
688.651	3535.31
688.841	3373.52
689.03	3439.05
689.22	3439.05
689.41	3445.2
689.599	3488.2
689.789	3494.35
689.979	3453.39
690.168	3475.91
690.358	3453.39
690.547	3453.39
690.737	3307.98
690.926	3449.29
691.116	3437
691.305	3447.24
691.495	3559.88
691.684	3361.23
691.874	3516.87
692.063	3488.2
692.252	3453.39
692.442	3469.77
692.631	3443.15
692.82	3400.14
693.01	3439.05
693.199	3332.56
693.388	3314.13
693.578	3492.3
693.767	3602.89
693.956	3408.33
694.146	3496.39
694.335	3502.54
694.524	3381.71
694.713	3459.53
694.902	3340.75
695.092	3346.89
695.281	3441.1
695.47	3447.24
695.659	3510.73
695.848	3582.41
696.037	3506.63
696.226	3516.87
696.415	3480.01
696.604	3606.98
696.793	3508.68
696.982	3465.68
697.171	3494.35
697.36	3520.97
697.549	3551.69
697.738	3559.88
697.927	3412.43
698.116	3512.78
698.305	3598.79
698.494	3424.72
698.683	3439.05
698.872	3561.93
699.061	3606.98
699.25	3535.31
699.438	3553.74
699.627	3590.6
699.816	3590.6
700.005	3482.06
700.193	3486.15
700.382	3561.93
700.571	3621.32
700.76	3535.31
700.948	3568.07
701.137	3570.12
701.326	3539.4
701.514	3549.64
701.703	3709.38
701.892	3574.22
702.08	3525.07
702.269	3443.15
702.457	3496.39
702.646	3721.67
702.834	3451.34
703.023	3633.61
703.212	3674.57
703.4	3701.19
703.589	3602.89
703.777	3641.8
703.965	3578.31
704.154	3633.61
704.342	3486.15
704.531	3596.75
704.719	3586.51
704.907	3652.04
705.096	3518.92
705.284	3486.15
705.472	3578.31
705.661	3584.46
705.849	3762.63
706.037	3500.49
706.226	3666.38
706.414	3604.94
706.602	3617.22
706.79	3699.14
706.979	3473.87
707.167	3629.51
707.355	3547.59
707.543	3475.91
707.731	3680.71
707.919	3596.75
708.107	3561.93
708.296	3508.68
708.484	3389.9
708.672	3631.56
708.86	3533.26
709.048	3559.88
709.236	3586.51
709.424	3453.39
709.612	3658.18
709.8	3437
709.988	3604.94
710.176	3576.27
710.364	3619.27
710.551	3584.46
710.739	3563.98
710.927	3461.58
711.115	3531.21
711.303	3604.94
711.491	3731.91
711.679	3502.54
711.866	3543.5
712.054	3412.43
712.242	3561.93
712.43	3455.44
712.617	3437
712.805	3484.11
712.993	3541.45
713.181	3471.82
713.368	3555.79
713.556	3486.15
713.744	3424.72
713.931	3654.09
714.119	3477.96
714.306	3471.82
714.494	3457.48
714.682	3594.7
714.869	3553.74
715.057	3563.98
715.244	3295.69
715.432	3520.97
715.619	3535.31
715.807	3441.1
715.994	3520.97
716.182	3348.94
716.369	3383.76
716.556	3531.21
716.744	3471.82
716.931	3371.47
717.119	3326.41
717.306	3328.46
717.493	3437
717.681	3400.14
717.868	3342.8
718.055	3527.11
718.242	3418.57
718.43	3492.3
718.617	3531.21
718.804	3443.15
718.991	3305.93
719.179	3432.91
719.366	3410.38
719.553	3385.8
719.74	3230.16
719.927	3398.09
720.114	3340.75
720.301	3391.95
720.488	3258.83
720.676	3269.07
720.863	3459.53
721.05	3473.87
721.237	3287.5
721.424	3430.86
721.611	3297.74
721.798	3334.61
721.985	3285.45
722.172	3287.5
722.358	3434.96
722.545	3334.61
722.732	3244.49
722.919	3523.02
723.106	3318.22
723.293	3238.35
723.48	3285.45
723.667	3125.71
723.853	3273.17
724.04	3271.12
724.227	3221.97
724.414	3240.4
724.6	3191.25
724.787	3156.43
724.974	3322.32
725.161	3244.49
725.347	3230.16
725.534	3084.75
725.72	3232.21
725.907	3199.44
726.094	3064.27
726.28	3078.61
726.467	3078.61
726.653	3088.85
726.84	3197.39
727.027	3181.01
727.213	3090.9
727.4	3320.27
727.586	3260.88
727.773	3228.11
727.959	3158.48
728.145	3193.3
728.332	3162.58
728.518	3086.8
728.705	3176.91
728.891	3170.77
729.077	3156.43
729.264	3066.32
729.45	3004.88
729.636	3248.59
729.823	3054.03
730.009	3160.53
730.195	3174.86
730.382	3047.89
730.568	2998.74
730.754	3080.66
730.94	2935.25
731.126	3047.89
731.313	3058.13
731.499	3109.33
731.685	3004.88
731.871	3027.41
732.057	2947.54
732.243	3064.27
732.429	2970.07
732.615	3084.75
732.801	3035.6
732.987	2902.48
733.173	2941.4
733.359	3113.42
733.545	3033.55
733.731	2802.13
733.917	3027.41
734.103	2951.63
734.289	2902.48
734.475	2853.33
734.661	2992.59
734.847	2949.59
735.033	2896.34
735.219	2841.04
735.404	2847.19
735.59	2947.54
735.776	2822.61
735.962	2865.62
736.148	2750.93
736.333	2849.24
736.519	2916.82
736.705	2773.46
736.89	2793.94
737.076	2884.05
737.262	2765.27
737.447	2705.88
737.633	2798.04
737.819	2849.24
738.004	2744.79
738.19	2761.17
738.375	2689.49
738.561	2816.47
738.747	2843.09
738.932	2664.92
739.118	2822.61
739.303	2689.49
739.489	2628.06
739.674	2662.87
739.859	2566.62
740.045	2673.11
740.23	2673.11
740.416	2490.84
740.601	2484.7
740.786	2656.73
740.972	2628.06
741.157	2558.42
741.342	2501.08
741.528	2603.48
741.713	2660.82
741.898	2599.38
742.084	2570.71
742.269	2511.32
742.454	2595.29
742.639	2488.79
742.824	2490.84
743.01	2404.83
743.195	2499.03
743.38	2333.15
743.565	2496.99
743.75	2439.64
743.935	2376.16
744.12	2400.73
744.305	2363.87
744.49	2361.82
744.675	2308.57
744.86	2308.57
745.045	2281.95
745.23	2335.2
745.415	2324.96
745.6	2367.96
745.785	2322.91
745.97	2298.33
746.155	2294.24
746.34	2357.72
746.525	2284
746.71	2204.13
746.895	2169.31
747.079	2357.72
747.264	2169.31
747.449	2202.08
747.634	2265.57
747.819	2259.42
748.003	2114.02
748.188	2079.2
748.373	2111.97
748.557	2148.83
748.742	2095.58
748.927	2101.73
749.111	2013.67
749.296	2038.24
749.481	1968.61
749.665	2183.65
749.85	1956.32
750.034	2124.26
750.219	2056.67
750.404	1937.89
750.588	1948.13
750.773	1929.7
750.957	1960.42
751.141	1958.37
751.326	1894.88
751.51	1860.07
751.695	1800.68
751.879	1964.51
752.064	1915.36
752.248	1776.1
752.432	1876.45
752.617	1790.44
752.801	1823.2
752.985	1821.16
753.17	1792.48
753.354	1776.1
753.538	1913.31
753.722	1735.14
753.907	1726.95
754.091	1698.28
754.275	1845.73
754.459	1745.38
754.643	1653.22
754.828	1694.18
755.012	1610.22
755.196	1718.76
755.38	1655.27
755.564	1618.41
755.748	1677.8
755.932	1636.84
756.116	1638.89
756.3	1653.22
756.484	1602.02
756.668	1530.34
756.852	1554.92
757.036	1546.73
757.22	1513.96
757.404	1581.54
757.588	1575.4
757.772	1520.1
757.956	1536.49
758.14	1464.81
758.323	1423.85
758.507	1493.48
758.691	1520.1
758.875	1532.39
759.059	1520.1
759.242	1464.81
759.426	1370.6
759.61	1401.32
759.794	1395.18
759.977	1368.56
760.161	1585.64
760.345	1470.95
760.528	1352.17
760.712	1364.46
760.895	1395.18
761.079	1321.45
761.263	1268.2
761.446	1231.34
761.63	1288.68
761.813	1309.16
761.997	1274.35
762.18	1335.79
762.364	1268.2
762.547	1210.86
762.731	1292.78
762.914	1364.46
763.098	1292.78
763.281	1190.38
763.464	1092.08
763.648	1245.68
763.831	1268.2
764.015	1219.05
764.198	1358.32
764.381	1202.67
764.564	1274.35
764.748	1161.71
764.931	1243.63
765.114	1149.42
765.297	1153.52
765.481	1210.86
765.664	1188.33
765.847	1270.25
766.03	1188.33
766.213	1108.46
766.397	1184.24
766.58	1126.89
766.763	1241.58
766.946	1085.94
767.129	1167.85
767.312	1135.09
767.495	1184.24
767.678	1184.24
767.861	1192.43
768.044	1190.38
768.227	1081.84
768.41	1085.94
768.593	1092.08
768.776	1176.05
768.959	1087.98
769.142	1151.47
769.324	1075.7
769.507	1077.74
769.69	1096.18
769.873	1030.64
770.056	1143.28
770.239	1042.93
770.421	1104.37
770.604	1163.76
770.787	958.96
770.97	1130.99
771.152	1122.8
771.335	1010.16
771.518	954.87
771.7	1067.5
771.883	1145.33
772.066	1083.89
772.248	989.68
772.431	1026.54
772.613	1063.41
772.796	1049.07
772.978	1055.22
773.161	1051.12
773.343	948.72
773.526	866.8
773.708	879.09
773.891	850.42
774.073	997.87
774.256	915.95
774.438	1079.79
774.621	877.04
774.803	926.19
774.985	979.44
775.168	899.57
775.35	831.99
775.532	989.68
775.715	1014.26
775.897	946.67
776.079	862.71
776.261	862.71
776.444	913.91
776.626	850.42
776.808	879.09
776.99	825.84
777.173	868.85
777.355	901.62
777.537	881.14
777.719	885.23
777.901	831.99
778.083	813.56
778.265	819.7
778.447	825.84
778.629	776.69
778.811	856.56
778.993	807.41
779.175	782.84
779.357	838.13
779.539	772.6
779.721	778.74
779.903	811.51
780.085	719.35
780.267	801.27
780.449	758.26
780.631	752.12
780.812	756.21
780.994	780.79
781.176	735.73
781.358	696.82
781.54	758.26
781.721	723.44
781.903	610.81
782.085	678.39
782.267	797.17
782.448	553.46
782.63	676.34
782.812	659.96
782.993	664.05
783.175	653.81
783.357	639.48
783.538	678.39
783.72	567.8
783.901	637.43
784.083	641.53
784.264	623.09
784.446	629.24
784.627	555.51
784.809	633.33
784.99	567.8
785.172	608.76
785.353	539.13
785.535	649.72
785.716	612.85
785.897	563.7
786.079	608.76
786.26	592.37
786.441	586.23
786.623	457.21
786.804	657.91
786.985	457.21
787.167	496.12
787.348	537.08
787.529	530.94
787.71	659.96
787.891	522.74
788.073	510.46
788.254	412.15
788.435	565.75
788.616	537.08
788.797	475.64
788.978	524.79
789.159	528.89
789.34	492.02
789.522	500.22
789.703	463.35
789.884	430.59
790.065	459.26
790.246	555.51
790.427	414.2
790.607	557.56
790.788	555.51
790.969	408.06
791.15	469.5
791.331	496.12
791.512	393.72
791.693	510.46
791.874	457.21
792.054	590.33
792.235	487.93
792.416	367.1
792.597	348.67
792.778	502.26
792.958	449.02
793.139	455.16
793.32	356.86
793.5	414.2
793.681	473.59
793.862	426.49
794.042	373.24
794.223	385.53
794.404	389.63
794.584	422.39
794.765	391.67
794.945	430.59
795.126	379.39
795.306	451.07
795.487	391.67
795.667	328.19
795.848	426.49
796.028	381.43
796.209	358.91
796.389	436.73
796.57	494.07
796.75	358.91
796.93	369.15
797.111	299.52
797.291	410.11
797.471	383.48
797.652	322.04
797.832	315.9
798.012	342.52
798.192	270.84
798.373	307.71
798.553	422.39
798.733	440.83
798.913	299.52
799.093	326.14
799.274	324.09
799.454	371.19
799.634	293.37
799.814	399.87
799.994	389.63
800.174	332.28
800.354	281.08
800.534	250.36
800.714	348.67
800.894	252.41
801.074	246.27
801.254	272.89
801.434	309.76
801.614	276.99
801.794	326.14
801.974	1280.49
802.154	356.86
802.334	336.38
802.514	272.89
802.693	274.94
802.873	248.32
803.053	285.18
803.233	258.56
803.413	289.28
803.592	246.27
803.772	330.23
803.952	162.3
804.131	141.82
804.311	231.93
804.491	262.65
804.67	231.93
804.85	246.27
805.03	279.04
805.209	385.53
805.389	238.08
805.568	268.8
805.748	299.52
805.928	303.61
806.107	305.66
806.287	223.74
806.466	211.45
806.646	238.08
806.825	236.03
807.004	223.74
807.184	158.21
807.363	285.18
807.543	236.03
807.722	285.18
807.901	315.9
808.081	274.94
808.26	123.39
808.439	223.74
808.619	227.84
808.798	244.22
808.977	281.08
809.156	356.86
809.336	254.46
809.515	252.41
809.694	227.84
809.873	182.78
810.052	283.13
810.231	254.46
810.411	291.32
810.59	252.41
810.769	139.77
810.948	287.23
811.127	137.73
811.306	164.35
811.485	215.55
811.664	254.46
811.843	184.83
812.022	209.4
812.201	213.5
812.38	193.02
812.559	156.16
812.737	276.99
812.916	111.1
813.095	135.68
813.274	231.93
813.453	252.41
813.632	225.79
813.811	195.07
813.989	137.73
814.168	180.73
814.347	174.59
814.526	162.3
814.704	287.23
814.883	227.84
815.062	231.93
815.24	209.4
815.419	119.29
815.598	139.77
815.776	123.39
815.955	205.31
816.133	186.88
816.312	109.05
816.49	86.53
816.669	174.59
816.847	125.44
817.026	147.97
817.204	190.97
817.383	162.3
817.561	172.54
817.74	170.49
817.918	137.73
818.097	242.17
818.275	131.58
818.453	229.88
818.632	207.36
818.81	176.64
818.988	96.77
819.167	201.21
819.345	156.16
819.523	90.62
819.701	102.91
819.879	184.83
820.058	229.88
820.236	227.84
820.414	33.28
820.592	188.93
820.77	193.02
820.948	49.66
821.127	111.1
821.305	115.2
821.483	164.35
821.661	174.59
821.839	82.43
822.017	80.38
822.195	123.39
822.373	201.21
822.551	121.34
822.729	143.87
822.907	125.44
823.085	150.01
823.262	147.97
823.44	59.9
823.618	61.95
823.796	117.25
823.974	94.72
824.152	96.77
824.329	113.15
824.507	111.1
824.685	170.49
824.863	158.21
825.04	104.96
825.218	199.16
825.396	158.21
825.574	158.21
825.751	139.77
825.929	102.91
826.107	45.57
826.284	197.12
826.462	109.05
826.639	104.96
826.817	20.99
826.994	113.15
827.172	68.09
827.349	186.88
827.527	96.77
827.704	109.05
827.882	182.78
828.059	80.38
828.237	66.05
828.414	143.87
828.591	47.62
828.769	160.25
828.946	139.77
829.124	92.67
829.301	98.81
829.478	88.57
829.655	160.25
829.833	33.28
830.01	76.29
830.187	78.33
830.364	119.29
830.542	154.11
830.719	166.4
830.896	168.45
831.073	174.59
831.25	125.44
831.427	98.81
831.604	86.53
831.782	98.81
831.959	107.01
832.136	53.76
832.313	143.87
832.49	74.24
832.667	88.57
832.844	64
833.021	176.64
833.198	143.87
833.374	121.34
833.551	102.91
833.728	-38.4
833.905	53.76
834.082	70.14
834.259	70.14
834.436	137.73
834.612	55.81
834.789	92.67
834.966	35.33
835.143	6.66
835.319	61.95
835.496	84.48
835.673	109.05
835.85	152.06
836.026	102.91
836.203	96.77
836.38	152.06
836.556	4.61
836.733	43.52
836.909	170.49
837.086	-36.35
837.262	57.86
837.439	92.67
837.616	57.86
837.792	41.47
837.968	45.57
838.145	23.04
838.321	35.33
838.498	82.43
838.674	41.47
838.851	64
839.027	68.09
839.203	66.05
839.38	115.2
839.556	98.81
839.732	137.73
839.909	4.61
840.085	57.86
840.261	37.38
840.437	80.38
840.614	45.57
840.79	145.92
840.966	160.25
841.142	45.57
841.318	86.53
841.494	78.33
841.671	152.06
841.847	51.71
842.023	39.42
842.199	84.48
842.375	150.01
842.551	23.04
842.727	61.95
842.903	139.77
843.079	74.24
843.255	102.91
843.431	123.39
843.607	178.69
843.783	57.86
843.959	68.09
844.134	51.71
844.31	92.67
844.486	61.95
844.662	43.52
844.838	70.14
845.013	18.94
845.189	119.29
845.365	86.53
845.541	68.09
845.716	96.77
845.892	117.25
846.068	-26.11
846.244	-15.87
846.419	129.53
846.595	6.66
846.77	23.04
846.946	102.91
847.122	64
847.297	61.95
847.473	152.06
847.648	23.04
847.824	125.44
847.999	109.05
848.175	82.43
848.35	35.33
848.526	137.73
848.701	72.19
848.876	72.19
849.052	156.16
849.227	68.09
849.403	74.24
849.578	4.61
849.753	64
849.929	102.91
850.104	-62.98
850.279	-30.21
850.454	57.86
850.63	68.09
850.805	76.29
850.98	131.58
851.155	33.28
851.33	37.38
851.505	43.52
851.681	86.53
851.856	2.56
852.031	94.72
852.206	29.18
852.381	35.33
852.556	66.05
852.731	80.38
852.906	45.57
853.081	49.66
853.256	84.48
853.431	70.14
853.606	14.85
853.781	-11.78
853.956	10.75
854.131	55.81
854.305	-34.3
854.48	-5.63
854.655	-15.87
854.83	45.57
855.005	29.18
855.18	92.67
855.354	107.01
855.529	57.86
855.704	82.43
855.879	102.91
856.053	23.04
856.228	27.14
856.403	-50.69
856.577	100.86
856.752	16.9
856.926	84.48
857.101	12.8
857.276	-116.22
857.45	53.76
857.625	37.38
857.799	43.52
857.974	20.99
858.148	2.56
858.323	119.29
858.497	10.75
858.672	18.94
858.846	41.47
859.02	78.33
859.195	-36.35
859.369	-9.73
859.543	82.43
859.718	25.09
859.892	2.56
860.066	25.09
860.241	-44.54
860.415	41.47
860.589	20.99
860.763	23.04
860.938	33.28
861.112	66.05
861.286	-19.97
861.46	47.62
861.634	68.09
861.808	59.9
861.982	45.57
862.157	-38.4
862.331	64
862.505	-9.73
862.679	-17.92
862.853	-22.02
863.027	18.94
863.201	141.82
863.375	-46.59
863.549	18.94
863.722	64
863.896	70.14
864.07	-40.45
864.244	-15.87
864.418	16.9
864.592	29.18
864.766	29.18
864.939	45.57
865.113	14.85
865.287	121.34
865.461	0.51
865.634	47.62
865.808	-30.21
865.982	25.09
866.156	25.09
866.329	-15.87
866.503	12.8
866.676	31.23
866.85	35.33
867.024	8.7
867.197	72.19
867.371	25.09
867.544	47.62
867.718	-58.88
867.891	92.67
868.065	-46.59
868.238	20.99
868.412	82.43
868.585	31.23
868.759	-17.92
868.932	-26.11
869.105	-114.17
869.279	57.86
869.452	-7.68
869.625	29.18
869.799	66.05
869.972	-32.26
870.145	16.9
870.319	82.43
870.492	27.14
870.665	57.86
870.838	25.09
871.011	-28.16
871.185	-26.11
871.358	-40.45
871.531	29.18
871.704	-44.54
871.877	72.19
872.05	-62.98
872.223	6.66
872.396	14.85
872.569	68.09
872.742	-7.68
872.915	35.33
873.088	-1.54
873.261	-5.63
873.434	27.14
873.607	12.8
873.78	33.28
873.953	8.7
874.126	18.94
874.299	-28.16
874.471	72.19
874.644	-26.11
874.817	12.8
874.99	49.66
875.163	35.33
875.335	86.53
875.508	10.75
875.681	76.29
875.853	-28.16
876.026	16.9
876.199	111.1
876.371	-60.93
876.544	12.8
876.717	16.9
876.889	66.05
877.062	82.43
877.234	-99.84
877.407	29.18
877.579	66.05
877.752	78.33
877.924	66.05
878.097	-13.82
878.269	98.81
878.442	31.23
878.614	16.9
878.786	-28.16
878.959	45.57
879.131	41.47
879.303	-28.16
879.476	-7.68
879.648	59.9
879.82	53.76
879.993	-11.78
880.165	-9.73
880.337	-28.16
880.509	100.86
880.681	57.86
880.854	0.51
881.026	96.77
881.198	72.19
881.37	10.75
881.542	14.85
881.714	-1.54
881.886	10.75
882.058	80.38
882.23	-34.3
882.402	12.8
882.574	72.19
882.746	-1.54
882.918	6.66
883.09	59.9
883.262	-24.06
883.434	-7.68
883.606	-75.26
883.778	-24.06
883.95	92.67
884.122	37.38
884.293	102.91
884.465	-40.45
884.637	57.86
884.809	8.7
884.98	8.7
885.152	78.33
885.324	82.43
885.496	-19.97
885.667	20.99
885.839	-30.21
886.011	98.81
886.182	29.18
886.354	145.92
886.525	-1.54
886.697	27.14
886.869	-5.63
887.04	-89.6
887.212	125.44
887.383	139.77
887.555	10.75
887.726	20.99
887.897	-44.54
888.069	-5.63
888.24	61.95
888.412	-15.87
888.583	2.56
888.754	-3.58
888.926	-17.92
889.097	6.66
889.268	-54.78
889.44	-34.3
889.611	-79.36
889.782	-38.4
889.953	-24.06
890.125	31.23
890.296	-40.45
890.467	-52.74
890.638	12.8
890.809	82.43
890.98	-40.45
891.151	37.38
891.323	129.53
891.494	25.09
891.665	41.47
891.836	39.42
892.007	2.56
892.178	18.94
892.349	-48.64
892.52	-54.78
892.691	68.09
892.862	-40.45
893.032	-38.4
893.203	10.75
893.374	57.86
893.545	33.28
893.716	98.81
893.887	66.05
894.057	-3.58
894.228	64
894.399	-77.31
894.57	113.15
894.74	16.9
894.911	-1.54
895.082	-42.5
895.253	-5.63
895.423	109.05
895.594	-26.11
895.764	-7.68
895.935	-73.21
896.106	16.9
896.276	59.9
896.447	-52.74
896.617	-67.07
896.788	-15.87
896.958	-26.11
897.129	10.75
897.299	-38.4
897.47	117.25
897.64	80.38
897.81	12.8
897.981	-22.02
898.151	41.47
898.322	33.28
898.492	-40.45
898.662	25.09
898.832	-79.36
899.003	6.66
899.173	2.56
899.343	10.75
899.513	0.51
