Data from USB4F104151__15__11-56-17-518.txt Node

Date: Wed Feb 19 11:56:17 EST 2025
User: louis
Spectrometer: USB4F10415
Trigger mode: 4
Integration Time (sec): 2.250200E-1
Scans to average: 1
Electric dark correction enabled: true
Nonlinearity correction enabled: false
Boxcar width: 0
XAxis mode: Wavelengths
Number of Pixels in Spectrum: 3648
>>>>>Begin Spectral Data<<<<<
178.204	-789.32
178.424	-789.32
178.644	-789.32
178.864	-826.18
179.084	-822.09
179.304	193.7
179.524	46.25
179.744	-68.44
179.964	-203.6
180.184	193.7
180.404	150.7
180.624	-201.55
180.844	-80.72
181.064	-54.1
181.283	210.09
181.503	-105.3
181.723	-80.72
181.943	-109.4
182.163	453.8
182.383	-215.89
182.602	-236.37
182.822	396.45
183.042	234.66
183.262	-150.36
183.482	-170.83
183.701	173.22
183.921	296.1
184.141	-129.88
184.361	-95.06
184.58	244.9
184.8	203.94
185.02	-193.36
185.239	17.58
185.459	273.57
185.679	439.46
185.898	-170.83
186.118	-271.19
186.338	218.28
186.557	328.87
186.777	-265.04
186.997	-211.79
187.216	234.66
187.436	445.6
187.655	-150.36
187.875	1.19
188.095	199.85
188.314	394.4
188.534	-68.44
188.753	-250.71
188.973	375.97
189.192	414.88
189.412	-258.9
189.631	-93.01
189.851	347.3
190.07	412.84
190.29	-113.49
190.509	-209.75
190.729	228.52
190.948	418.98
191.168	-35.67
191.387	-125.78
191.607	203.94
191.826	320.68
192.045	-23.38
192.265	-203.6
192.484	369.83
192.704	169.13
192.923	-144.21
193.142	-0.85
193.362	242.85
193.581	337.06
193.8	-115.54
194.02	-103.25
194.239	271.53
194.458	339.11
194.678	-129.88
194.897	-250.71
195.116	214.18
195.335	275.62
195.555	-109.4
195.774	-260.95
195.993	412.84
196.212	203.94
196.432	-66.39
196.651	-181.07
196.87	240.81
197.089	568.48
197.308	-123.73
197.528	-103.25
197.747	115.88
197.966	244.9
198.185	-15.19
198.404	-133.97
198.623	367.78
198.842	406.69
199.062	-88.92
199.281	-74.58
199.5	220.33
199.719	314.53
199.938	-136.02
200.157	-101.2
200.376	435.36
200.595	396.45
200.814	-23.38
201.033	-109.4
201.252	375.97
201.471	263.33
201.69	-170.83
201.909	-187.22
202.128	314.53
202.347	222.38
202.566	-127.83
202.785	-330.58
203.004	132.26
203.223	560.29
203.442	-199.51
203.661	-187.22
203.879	335.01
204.098	369.83
204.317	-203.6
204.536	-72.53
204.755	363.69
204.974	308.39
205.193	-279.38
205.411	-50
205.63	435.36
205.849	355.49
206.068	-164.69
206.287	-187.22
206.505	459.94
206.724	234.66
206.943	-236.37
207.162	-181.07
207.381	273.57
207.599	179.37
207.818	-58.2
208.037	-244.56
208.255	205.99
208.474	212.14
208.693	-158.55
208.911	-152.4
209.13	298.15
209.349	296.1
209.567	29.87
209.786	-144.21
210.005	361.64
210.223	191.66
210.442	-381.78
210.661	-260.95
210.879	304.29
211.098	158.89
211.316	-60.24
211.535	-107.35
211.753	255.14
211.972	388.26
212.191	-88.92
212.409	-103.25
212.628	267.43
212.846	126.12
213.065	-174.93
213.283	-68.44
213.502	210.09
213.72	249
213.938	-238.42
214.157	-203.6
214.375	265.38
214.594	230.57
214.812	-78.68
215.031	-95.06
215.249	230.57
215.467	234.66
215.686	-136.02
215.904	-154.45
216.122	257.19
216.341	367.78
216.559	89.26
216.778	-56.15
216.996	398.5
217.214	142.5
217.432	-111.44
217.651	-256.85
217.869	212.14
218.087	242.85
218.306	-176.98
218.524	-154.45
218.742	185.51
218.96	353.45
219.179	-168.79
219.397	-248.66
219.615	525.47
219.833	390.31
220.051	-138.07
220.27	-52.05
220.488	437.41
220.706	246.95
220.924	-285.52
221.142	-189.27
221.36	226.47
221.578	341.16
221.796	-119.64
222.015	-117.59
222.233	267.43
222.451	396.45
222.669	-105.3
222.887	-41.81
223.105	197.8
223.323	181.42
223.541	-133.97
223.759	-84.82
223.977	222.38
224.195	353.45
224.413	-150.36
224.631	-226.13
224.849	222.38
225.067	486.56
225.285	-93.01
225.503	-191.31
225.721	-64.34
225.939	216.23
226.157	-176.98
226.375	117.93
226.592	87.21
226.81	205.99
227.028	42.15
227.246	-74.58
227.464	294.05
227.682	347.3
227.9	-82.77
228.117	-52.05
228.335	273.57
228.553	199.85
228.771	-195.41
228.989	-140.12
229.206	324.77
229.424	21.67
229.642	-136.02
229.86	-156.5
230.077	414.88
230.295	193.7
230.513	-56.15
230.731	-127.83
230.948	392.36
231.166	390.31
231.384	-17.24
231.601	-185.17
231.819	490.66
232.037	83.11
232.254	-68.44
232.472	-113.49
232.689	117.93
232.907	273.57
233.125	-162.64
233.342	-191.31
233.56	126.12
233.777	113.83
233.995	-105.3
234.213	1.19
234.43	265.38
234.648	191.66
234.865	-199.51
235.083	-31.57
235.3	240.81
235.518	339.11
235.735	-103.25
235.953	-144.21
236.17	271.53
236.388	126.12
236.605	60.59
236.822	-97.11
237.04	318.63
237.257	238.76
237.475	-158.55
237.692	-105.3
237.909	353.45
238.127	105.64
238.344	38.06
238.562	-113.49
238.779	89.26
238.996	21.67
239.214	-119.64
239.431	-113.49
239.648	130.22
239.865	191.66
240.083	-99.16
240.3	-258.9
240.517	205.99
240.735	150.7
240.952	68.78
241.169	-197.46
241.386	238.76
241.603	162.98
241.821	-107.35
242.038	-95.06
242.255	392.36
242.472	68.78
242.689	-88.92
242.907	-193.36
243.124	230.57
243.341	238.76
243.558	-144.21
243.775	-146.26
243.992	5.29
244.209	298.15
244.426	62.63
244.643	-154.45
244.86	236.71
245.078	330.92
245.295	-103.25
245.512	-109.4
245.729	91.31
245.946	271.53
246.163	-172.88
246.38	-213.84
246.597	203.94
246.814	230.57
247.031	-84.82
247.248	-213.84
247.464	345.25
247.681	165.03
247.898	-162.64
248.115	25.77
248.332	132.26
248.549	427.17
248.766	-23.38
248.983	-185.17
249.2	289.96
249.417	380.07
249.633	-80.72
249.85	44.2
250.067	158.89
250.284	281.77
250.501	-111.44
250.717	-82.77
250.934	128.17
251.151	216.23
251.368	-80.72
251.585	-144.21
251.801	267.43
252.018	-39.76
252.235	31.91
252.451	-228.18
252.668	238.76
252.885	271.53
253.102	-113.49
253.318	-76.63
253.535	154.79
253.752	165.03
253.968	-39.76
254.185	-252.75
254.401	279.72
254.618	371.88
254.835	-45.91
255.051	-27.48
255.268	277.67
255.484	249
255.701	-52.05
255.917	-88.92
256.134	-13.14
256.351	228.52
256.567	-166.74
256.784	44.2
257	13.48
257.217	375.97
257.433	132.26
257.65	-138.07
257.866	312.49
258.082	27.82
258.299	-109.4
258.515	-90.96
258.732	173.22
258.948	124.07
259.165	-13.14
259.381	-222.03
259.597	298.15
259.814	183.46
260.03	-129.88
260.246	-107.35
260.463	316.58
260.679	408.74
260.895	46.25
261.112	-35.67
261.328	216.23
261.544	36.01
261.761	-66.39
261.977	-127.83
262.193	60.59
262.409	298.15
262.626	5.29
262.842	-105.3
263.058	97.45
263.274	265.38
263.49	-58.2
263.707	-148.31
263.923	326.82
264.139	19.63
264.355	-21.33
264.571	-56.15
264.787	304.29
265.004	349.35
265.22	-88.92
265.436	-68.44
265.652	160.94
265.868	246.95
266.084	-170.83
266.3	-62.29
266.516	117.93
266.732	261.29
266.948	15.53
267.164	-181.07
267.38	337.06
267.596	222.38
267.812	5.29
268.028	-37.72
268.244	261.29
268.46	249
268.676	-27.48
268.892	1.19
269.108	3.24
269.324	64.68
269.54	-158.55
269.756	-47.96
269.972	48.3
270.188	271.53
270.403	-154.45
270.619	-58.2
270.835	265.38
271.051	238.76
271.267	-80.72
271.483	-195.41
271.698	261.29
271.914	234.66
272.13	7.34
272.346	-29.52
272.562	203.94
272.777	404.64
272.993	9.39
273.209	-222.03
273.425	345.25
273.64	-4.95
273.856	-21.33
274.072	-228.18
274.287	130.22
274.503	306.34
274.719	36.01
274.934	-158.55
275.15	-107.35
275.366	99.5
275.581	-93.01
275.797	9.39
276.012	169.13
276.228	107.69
276.444	-56.15
276.659	79.02
276.875	46.25
277.09	95.4
277.306	-15.19
277.521	-11.09
277.737	224.42
277.952	232.62
278.168	-146.26
278.383	-37.72
278.599	95.4
278.814	322.73
279.03	-86.87
279.245	-17.24
279.461	162.98
279.676	222.38
279.892	-125.78
280.107	-64.34
280.322	87.21
280.538	246.95
280.753	-45.91
280.969	-113.49
281.184	173.22
281.399	339.11
281.615	-15.19
281.83	91.31
282.045	15.53
282.26	150.7
282.476	-52.05
282.691	99.5
282.906	240.81
283.122	144.55
283.337	-68.44
283.552	-45.91
283.767	191.66
283.983	230.57
284.198	-88.92
284.413	-84.82
284.628	17.58
284.843	255.14
285.058	-7
285.274	-37.72
285.489	99.5
285.704	199.85
285.919	-56.15
286.134	-45.91
286.349	232.62
286.564	58.54
286.779	115.88
286.995	36.01
287.21	-62.29
287.425	167.08
287.64	-66.39
287.855	126.12
288.07	56.49
288.285	269.48
288.5	38.06
288.715	-4.95
288.93	191.66
289.145	109.74
289.36	-9.05
289.575	-62.29
289.79	341.16
290.004	136.36
290.219	68.78
290.434	-84.82
290.649	156.84
290.864	160.94
291.079	-35.67
291.294	29.87
291.509	261.29
291.724	117.93
291.938	-2.9
292.153	-45.91
292.368	81.07
292.583	244.9
292.798	33.96
293.012	9.39
293.227	210.09
293.442	126.12
293.657	144.55
293.871	1.19
294.086	298.15
294.301	373.92
294.516	79.02
294.73	130.22
294.945	103.59
295.16	132.26
295.374	76.97
295.589	58.54
295.804	165.03
296.018	60.59
296.233	-93.01
296.447	42.15
296.662	99.5
296.877	363.69
297.091	11.43
297.306	-45.91
297.52	126.12
297.735	205.99
297.949	126.12
298.164	-131.92
298.378	165.03
298.593	38.06
298.807	-64.34
299.022	9.39
299.236	406.69
299.451	40.11
299.665	38.06
299.88	-2.9
300.094	249
300.309	150.7
300.523	54.44
300.737	-78.68
300.952	259.24
301.166	283.81
301.381	-39.76
301.595	-140.12
301.809	210.09
302.024	179.37
302.238	-56.15
302.452	119.98
302.667	214.18
302.881	251.05
303.095	7.34
303.309	36.01
303.524	179.37
303.738	93.35
303.952	42.15
304.166	44.2
304.381	-111.44
304.595	326.82
304.809	-9.05
305.023	-19.29
305.237	50.35
305.452	160.94
305.666	33.96
305.88	52.39
306.094	314.53
306.308	199.85
306.522	-31.57
306.736	66.73
306.95	326.82
307.164	52.39
307.379	5.29
307.593	93.35
307.807	271.53
308.021	255.14
308.235	132.26
308.449	-86.87
308.663	226.47
308.877	570.53
309.091	60.59
309.305	156.84
309.519	-127.83
309.733	265.38
309.947	-97.11
310.161	1.19
310.374	201.9
310.588	330.92
310.802	-78.68
311.016	-35.67
311.23	214.18
311.444	17.58
311.658	91.31
311.872	230.57
312.085	326.82
312.299	320.68
312.513	154.79
312.727	-56.15
312.941	50.35
313.154	220.33
313.368	-23.38
313.582	15.53
313.796	173.22
314.009	126.12
314.223	249
314.437	117.93
314.651	226.47
314.864	58.54
315.078	-13.14
315.292	-35.67
315.505	167.08
315.719	214.18
315.933	68.78
316.146	-97.11
316.36	3.24
316.573	220.33
316.787	165.03
317.001	122.02
317.214	-4.95
317.428	160.94
317.641	15.53
317.855	7.34
318.068	224.42
318.282	171.18
318.495	156.84
318.709	3.24
318.922	150.7
319.136	283.81
319.349	150.7
319.563	-93.01
319.776	193.7
319.99	-121.68
320.203	3.24
320.417	33.96
320.63	212.14
320.843	322.73
321.057	140.46
321.27	19.63
321.483	302.25
321.697	162.98
321.91	-70.48
322.124	-0.85
322.337	189.61
322.55	44.2
322.763	19.63
322.977	27.82
323.19	68.78
323.403	111.78
323.617	66.73
323.83	201.9
324.043	185.51
324.256	228.52
324.469	-142.16
324.683	226.47
324.896	226.47
325.109	183.46
325.322	-64.34
325.535	152.74
325.748	269.48
325.962	105.64
326.175	29.87
326.388	-27.48
326.601	224.42
326.814	36.01
327.027	64.68
327.24	56.49
327.453	-52.05
327.666	300.2
327.879	208.04
328.092	25.77
328.305	222.38
328.518	33.96
328.731	-4.95
328.944	-90.96
329.157	152.74
329.37	99.5
329.583	134.31
329.796	93.35
330.009	-21.33
330.222	189.61
330.435	119.98
330.648	1.19
330.861	240.81
331.073	101.55
331.286	115.88
331.499	124.07
331.712	156.84
331.925	195.75
332.138	9.39
332.35	5.29
332.563	171.18
332.776	320.68
332.989	-78.68
333.202	-109.4
333.414	220.33
333.627	201.9
333.84	-0.85
334.053	9.39
334.265	42.15
334.478	11.43
334.691	36.01
334.903	89.26
335.116	171.18
335.329	140.46
335.541	87.21
335.754	173.22
335.966	144.55
336.179	208.04
336.392	-4.95
336.604	40.11
336.817	205.99
337.029	277.67
337.242	9.39
337.454	68.78
337.667	214.18
337.88	312.49
338.092	27.82
338.305	91.31
338.517	42.15
338.729	220.33
338.942	21.67
339.154	-60.24
339.367	66.73
339.579	193.7
339.792	-125.78
340.004	19.63
340.217	68.78
340.429	316.58
340.641	-95.06
340.854	-43.86
341.066	275.62
341.278	287.91
341.491	136.36
341.703	19.63
341.915	50.35
342.128	251.05
342.34	109.74
342.552	-76.63
342.764	271.53
342.977	132.26
343.189	95.4
343.401	54.44
343.613	66.73
343.826	249
344.038	-21.33
344.25	136.36
344.462	167.08
344.674	144.55
344.886	54.44
345.099	87.21
345.311	244.9
345.523	-7
345.735	-103.25
345.947	117.93
346.159	224.42
346.371	251.05
346.583	64.68
346.795	150.7
347.007	74.92
347.219	140.46
347.431	44.2
347.643	173.22
347.855	72.87
348.067	330.92
348.279	19.63
348.491	-19.29
348.703	257.19
348.915	119.98
349.127	19.63
349.339	19.63
349.551	128.17
349.763	169.13
349.975	74.92
350.187	140.46
350.399	380.07
350.61	177.32
350.822	-82.77
351.034	42.15
351.246	261.29
351.458	154.79
351.669	1.19
351.881	68.78
352.093	357.54
352.305	308.39
352.517	-23.38
352.728	115.88
352.94	124.07
353.152	271.53
353.363	-93.01
353.575	7.34
353.787	406.69
353.999	224.42
354.21	189.61
354.422	-127.83
354.633	158.89
354.845	183.46
355.057	93.35
355.268	40.11
355.48	191.66
355.692	-21.33
355.903	9.39
356.115	-29.52
356.326	-31.57
356.538	361.64
356.749	3.24
356.961	134.31
357.172	208.04
357.384	44.2
357.595	257.19
357.807	-47.96
358.018	91.31
358.23	115.88
358.441	7.34
358.653	-35.67
358.864	122.02
359.075	29.87
359.287	81.07
359.498	91.31
359.709	214.18
359.921	216.23
360.132	29.87
360.344	-2.9
360.555	17.58
360.766	167.08
360.977	-107.35
361.189	44.2
361.4	134.31
361.611	249
361.823	56.49
362.034	1.19
362.245	1.19
362.456	162.98
362.667	165.03
362.879	-119.64
363.09	249
363.301	189.61
363.512	48.3
363.723	-19.29
363.935	165.03
364.146	312.49
364.357	66.73
364.568	72.87
364.779	31.91
364.99	326.82
365.201	50.35
365.412	162.98
365.623	-41.81
365.834	240.81
366.045	27.82
366.256	40.11
366.467	304.29
366.678	138.41
366.889	50.35
367.1	-62.29
367.311	369.83
367.522	99.5
367.733	128.17
367.944	95.4
368.155	152.74
368.366	226.47
368.577	148.65
368.788	169.13
368.999	134.31
369.209	154.79
369.42	74.92
369.631	382.12
369.842	195.75
370.053	130.22
370.264	36.01
370.474	-58.2
370.685	232.62
370.896	111.78
371.107	68.78
371.317	31.91
371.528	212.14
371.739	287.91
371.95	83.11
372.16	5.29
372.371	-25.43
372.582	40.11
372.792	23.72
373.003	111.78
373.214	214.18
373.424	230.57
373.635	-13.14
373.846	107.69
374.056	128.17
374.267	165.03
374.477	79.02
374.688	31.91
374.898	341.16
375.109	154.79
375.319	5.29
375.53	-25.43
375.74	294.05
375.951	74.92
376.161	64.68
376.372	42.15
376.582	203.94
376.793	169.13
377.003	50.35
377.214	11.43
377.424	328.87
377.635	181.42
377.845	111.78
378.055	66.73
378.266	68.78
378.476	126.12
378.686	87.21
378.897	36.01
379.107	246.95
379.317	150.7
379.528	-60.24
379.738	85.16
379.948	79.02
380.158	228.52
380.369	109.74
380.579	58.54
380.789	152.74
380.999	175.27
381.21	115.88
381.42	251.05
381.63	156.84
381.84	251.05
382.05	50.35
382.261	128.17
382.471	257.19
382.681	95.4
382.891	119.98
383.101	177.32
383.311	66.73
383.521	109.74
383.731	48.3
383.941	165.03
384.151	191.66
384.361	72.87
384.571	7.34
384.781	29.87
384.991	328.87
385.201	380.07
385.411	226.47
385.621	29.87
385.831	197.8
386.041	263.33
386.251	101.55
386.461	115.88
386.671	257.19
386.881	158.89
387.091	-4.95
387.301	124.07
387.511	70.83
387.72	167.08
387.93	142.5
388.14	17.58
388.35	197.8
388.56	339.11
388.769	99.5
388.979	64.68
389.189	140.46
389.399	193.7
389.609	68.78
389.818	44.2
390.028	255.14
390.238	199.85
390.447	23.72
390.657	93.35
390.867	210.09
391.076	13.48
391.286	36.01
391.496	42.15
391.705	214.18
391.915	443.56
392.125	21.67
392.334	52.39
392.544	402.6
392.753	193.7
392.963	9.39
393.172	66.73
393.382	199.85
393.591	412.84
393.801	1.19
394.01	60.59
394.22	234.66
394.429	271.53
394.639	9.39
394.848	158.89
395.058	148.65
395.267	142.5
395.477	156.84
395.686	93.35
395.895	572.58
396.105	398.5
396.314	7.34
396.524	21.67
396.733	138.41
396.942	386.21
397.152	-9.05
397.361	148.65
397.57	232.62
397.78	201.9
397.989	99.5
398.198	249
398.407	226.47
398.617	179.37
398.826	107.69
399.035	19.63
399.244	236.71
399.453	220.33
399.663	25.77
399.872	-29.52
400.081	38.06
400.29	359.59
400.499	-13.14
400.708	158.89
400.917	203.94
401.127	208.04
401.336	97.45
401.545	304.29
401.754	351.4
401.963	320.68
402.172	89.26
402.381	19.63
402.59	210.09
402.799	214.18
403.008	115.88
403.217	165.03
403.426	253.09
403.635	19.63
403.844	38.06
404.053	66.73
404.262	189.61
404.471	394.4
404.68	128.17
404.888	107.69
405.097	136.36
405.306	212.14
405.515	128.17
405.724	44.2
405.933	300.2
406.142	210.09
406.35	107.69
406.559	117.93
406.768	226.47
406.977	484.52
407.185	62.63
407.394	148.65
407.603	-21.33
407.812	210.09
408.02	154.79
408.229	97.45
408.438	251.05
408.646	-31.57
408.855	11.43
409.064	5.29
409.272	111.78
409.481	265.38
409.69	-29.52
409.898	21.67
410.107	195.75
410.315	349.35
410.524	81.07
410.733	138.41
410.941	249
411.15	386.21
411.358	93.35
411.567	246.95
411.775	216.23
411.984	269.48
412.192	167.08
412.401	81.07
412.609	502.95
412.818	390.31
413.026	126.12
413.234	115.88
413.443	289.96
413.651	126.12
413.86	-23.38
414.068	384.16
414.276	439.46
414.485	289.96
414.693	181.42
414.901	312.49
415.11	337.06
415.318	283.81
415.526	208.04
415.734	246.95
415.943	359.59
416.151	472.23
416.359	181.42
416.567	216.23
416.776	404.64
416.984	427.17
417.192	281.77
417.4	124.07
417.608	185.51
417.817	115.88
418.025	271.53
418.233	263.33
418.441	228.52
418.649	117.93
418.857	253.09
419.065	236.71
419.273	255.14
419.481	363.69
419.689	306.34
419.897	230.57
420.105	230.57
420.313	468.13
420.521	242.85
420.729	390.31
420.937	230.57
421.145	205.99
421.353	210.09
421.561	384.16
421.769	445.6
421.977	326.82
422.185	384.16
422.393	294.05
422.601	421.03
422.809	494.76
423.017	384.16
423.224	263.33
423.432	638.11
423.64	468.13
423.848	269.48
424.056	300.2
424.263	705.7
424.471	451.75
424.679	492.71
424.887	357.54
425.094	748.7
425.302	541.86
425.51	359.59
425.718	445.6
425.925	597.15
426.133	459.94
426.341	613.54
426.548	429.22
426.756	494.76
426.964	705.7
427.171	591.01
427.379	558.24
427.586	648.35
427.794	726.18
428.001	699.55
428.209	625.83
428.417	947.36
428.624	906.4
428.832	734.37
429.039	765.09
429.247	769.18
429.454	902.3
429.662	844.96
429.869	763.04
430.076	1000.6
430.284	982.17
430.491	857.25
430.699	836.77
430.906	1107.1
431.114	986.27
431.321	965.79
431.528	1008.8
431.736	1014.94
431.943	1170.58
432.15	933.02
432.358	984.22
432.565	1442.96
432.772	951.45
432.979	1334.42
433.187	1107.1
433.394	1477.78
433.601	1381.53
433.808	1305.75
434.016	1356.95
434.223	1432.72
434.43	1559.7
434.637	1379.48
434.844	1557.65
435.052	1748.11
435.259	1694.86
435.466	1567.89
435.673	1469.59
435.88	1862.8
436.087	1967.24
436.294	1991.82
436.501	1780.88
436.708	2016.4
436.915	2000.01
437.122	2086.03
437.329	1928.33
437.537	2163.85
437.743	2272.39
437.95	2327.69
438.157	2264.2
438.364	2321.54
438.571	2469
438.778	2346.12
438.985	2641.03
439.192	2589.83
439.399	2552.96
439.606	2368.65
439.813	2737.28
440.02	3140.73
440.227	3316.86
440.433	2892.93
440.64	2960.51
440.847	2851.97
441.054	3155.07
441.261	3234.94
441.467	3087.48
441.674	3370.1
441.881	3656.82
442.088	3298.42
442.294	3515.51
442.501	3712.11
442.708	3785.84
442.914	3687.54
443.121	3923.05
443.328	4113.52
443.534	4394.09
443.741	3964.01
443.948	4052.08
444.154	4433
444.361	4770.91
444.568	4303.98
444.774	4375.66
444.981	4320.36
445.187	5028.96
445.394	4715.62
445.6	4703.33
445.807	5538.9
446.013	4992.09
446.22	4910.18
446.426	5612.63
446.633	5760.08
446.839	6046.8
447.046	5411.93
447.252	5936.21
447.459	6106.19
447.665	6098
447.871	6128.72
448.078	6827.07
448.284	6577.22
448.491	6992.96
448.697	7136.32
448.903	7126.08
449.11	7414.84
449.316	7187.52
449.522	7603.25
449.728	7763
449.935	7937.07
450.141	8092.72
450.347	8211.5
450.553	8168.49
450.76	8676.39
450.966	8885.28
451.172	9063.46
451.378	9096.22
451.584	9399.32
451.791	9815.06
451.997	9735.19
452.203	9923.6
452.409	10480.65
452.615	10533.9
452.821	10058.77
453.027	10177.55
453.233	11019.27
453.44	10912.77
453.646	10904.58
453.852	11375.61
454.058	11959.28
454.264	11699.19
454.47	12151.79
454.676	12256.24
454.882	12766.18
455.088	12047.35
455.294	12248.05
455.5	12954.6
455.705	13339.62
455.911	12960.74
456.117	13018.08
456.323	12815.34
456.529	12534.76
456.735	13485.02
456.941	13173.73
457.147	13513.69
457.352	13321.18
457.558	13220.83
457.764	13532.12
457.97	13552.6
458.176	13495.26
458.381	14033.88
458.587	13536.22
458.793	13601.76
458.999	13093.86
459.204	14298.06
459.41	13929.43
459.616	13409.25
459.821	13568.99
460.027	13616.09
460.233	13540.32
460.438	13100
460.644	13564.89
460.85	13044.71
461.055	12721.13
461.261	12831.72
461.466	12088.31
461.672	11928.56
461.878	12710.89
462.083	12012.53
462.289	11746.3
462.494	11721.72
462.7	11363.33
462.905	11176.96
463.111	11879.41
463.316	11584.51
463.522	11443.2
463.727	11244.54
463.932	11375.61
464.138	11389.95
464.343	11412.48
464.549	10853.38
464.754	11533.31
464.959	11568.12
465.165	11193.34
465.37	10755.08
465.575	10707.98
465.781	11105.28
465.986	10959.88
466.191	10384.4
466.397	10441.74
466.602	10282
466.807	10427.4
467.012	10425.36
467.218	10644.49
467.423	10284.05
467.628	10415.12
467.833	10800.13
468.038	10638.34
468.244	10060.82
468.449	10535.95
468.654	10249.23
468.859	10320.91
469.064	10460.17
469.269	9921.56
469.474	10077.2
469.679	10781.7
469.885	10376.2
470.09	10050.58
470.295	10378.25
470.5	10279.95
470.705	10652.68
470.91	10275.85
471.115	10107.92
471.32	10630.15
471.525	10765.32
471.73	10181.65
471.935	10413.07
472.139	10214.41
472.344	10275.85
472.549	10333.2
472.754	10468.36
472.959	10384.4
473.164	10220.56
473.369	10073.1
473.574	10439.69
473.778	10728.45
473.983	10542.09
474.188	10757.13
474.393	10148.88
474.598	10355.72
474.802	10292.24
475.007	10238.99
475.212	10374.16
475.417	10023.95
475.621	10347.53
475.826	10146.83
476.031	10161.17
476.235	10288.14
476.44	10363.92
476.645	10398.73
476.849	10224.65
477.054	10146.83
477.259	10220.56
477.463	10200.08
477.668	9993.23
477.872	10509.32
478.077	10152.98
478.282	9843.73
478.486	9915.41
478.691	10011.67
478.895	10005.52
479.1	10206.22
479.304	9921.56
479.509	9800.73
479.713	10298.38
479.918	9841.68
480.122	9839.64
480.326	10150.93
480.531	9935.89
480.735	9907.22
480.94	9688.09
481.144	10441.74
481.348	9946.13
481.553	9845.78
481.757	9610.26
481.961	9907.22
482.166	10216.46
482.37	9874.45
482.574	9841.68
482.778	9956.37
482.983	10097.68
483.187	9911.32
483.391	10101.78
483.595	10005.52
483.8	10128.4
484.004	10138.64
484.208	10163.22
484.412	10406.92
484.616	10365.96
484.821	10241.04
485.025	10077.2
485.229	10306.57
485.433	10597.38
485.637	10431.5
485.841	10224.65
486.045	10593.29
486.249	10570.76
486.453	10451.98
486.657	10404.88
486.861	10380.3
487.065	10503.18
487.269	10636.3
487.473	10294.29
487.677	11013.12
487.881	11299.84
488.085	10765.32
488.289	11013.12
488.493	10896.39
488.697	11291.65
488.901	11193.34
489.105	10757.13
489.309	11248.64
489.512	11285.5
489.716	11236.35
489.92	11138.05
490.124	11512.83
490.328	11736.06
490.531	11420.67
490.735	11551.74
490.939	11891.7
491.143	11684.86
491.346	11525.11
491.55	11817.97
491.754	11881.46
491.958	11817.97
492.161	11697.14
492.365	11953.14
492.569	11764.73
492.772	12127.22
492.976	12006.39
493.18	12045.3
493.383	12182.51
493.587	12354.54
493.79	12291.06
493.994	11883.51
494.197	12229.62
494.401	12297.2
494.605	12094.45
494.808	12639.21
495.012	12530.67
495.215	12817.38
495.419	12628.97
495.622	12475.37
495.825	12602.35
496.029	12512.24
496.232	12729.32
496.436	12594.15
496.639	13110.24
496.843	12743.66
497.046	12866.53
497.249	13048.8
497.453	13038.56
497.656	13433.82
497.859	13233.12
498.063	13386.72
498.266	13501.4
498.469	13323.23
498.673	13394.91
498.876	13673.43
499.079	13323.23
499.282	13423.58
499.485	13589.47
499.689	13767.64
499.892	13843.42
500.095	13874.13
500.298	13818.84
500.501	13712.35
500.705	14304.21
500.908	14373.84
501.111	14160.85
501.314	14267.34
501.517	14484.43
501.72	14568.4
501.923	14316.5
502.126	14724.04
502.329	14902.22
502.532	14853.06
502.735	14678.99
502.938	14945.22
503.141	15213.51
503.344	14996.42
503.547	15326.14
503.75	15053.76
503.953	15567.81
504.156	15768.51
504.359	15389.63
504.562	15553.47
504.765	15813.56
504.968	16022.45
505.17	15854.52
505.373	15969.21
505.576	16182.2
505.779	16300.98
505.982	16251.83
506.185	16331.7
506.387	16421.81
506.59	16833.45
506.793	16575.41
506.996	16868.27
507.198	17046.44
507.401	17236.9
507.604	17068.97
507.807	17503.14
508.009	17720.22
508.212	17429.41
508.415	17728.41
508.617	17761.18
508.82	17853.34
509.022	17595.29
509.225	18183.06
509.428	18219.92
509.63	18340.75
509.833	18633.61
510.035	18965.39
510.238	18901.9
510.44	18697.1
510.643	19149.7
510.845	19317.64
511.048	19084.17
511.25	19309.44
511.453	19297.16
511.655	20190.07
511.858	19907.45
512.06	20335.48
512.262	20347.76
512.465	20040.57
512.667	20683.63
512.87	20648.82
513.072	20976.49
513.274	20929.39
513.477	21087.08
513.679	21408.61
513.881	21599.07
514.084	21441.38
514.286	21814.11
514.488	22096.73
514.69	22813.52
514.893	22514.52
515.095	22682.45
515.297	22723.41
515.499	22846.29
515.701	23176.01
515.904	23259.98
516.106	24077.12
516.308	23900.99
516.51	24318.78
516.712	23888.7
516.914	24400.69
517.116	24859.44
517.318	24767.28
517.52	24865.58
517.722	25410.34
517.925	25350.95
518.127	25625.38
518.329	25752.35
518.531	25697.06
518.733	26305.31
518.935	26178.33
519.136	26581.78
519.338	26823.44
519.54	27597.57
519.742	27474.7
519.944	27728.64
520.146	27976.45
520.348	28273.4
520.55	28308.22
520.752	28717.81
520.954	28721.91
521.155	28697.33
521.357	29100.78
521.559	29565.67
521.761	30026.46
521.963	30051.04
522.164	30167.77
522.366	30274.27
522.568	30425.82
522.77	30687.96
522.971	31498.95
523.173	30733.01
523.375	31326.92
523.576	31417.04
523.778	31691.46
523.98	32234.17
524.181	32619.19
524.383	32287.42
524.584	32768.69
524.786	32592.57
524.988	32686.78
525.189	33303.21
525.391	33624.75
525.592	33471.15
525.794	33460.91
525.995	33850.02
526.197	33757.86
526.398	34054.82
526.6	34466.46
526.801	34896.53
527.003	34701.98
527.204	34845.33
527.406	35091.09
527.607	35091.09
527.808	35248.78
528.01	34652.83
528.211	35551.88
528.412	35840.65
528.614	36049.54
528.815	35883.66
529.016	36416.13
529.218	36209.28
529.419	36371.07
529.62	35965.57
529.822	36786.81
530.023	36508.29
530.224	36434.56
530.425	36743.8
530.626	36729.47
530.828	36358.78
531.029	37188.21
531.23	36989.56
531.431	36848.25
531.632	37354.1
531.833	37384.82
532.035	37364.34
532.236	37741.16
532.437	37448.3
532.638	37374.58
532.839	37290.61
533.04	37827.18
533.241	37442.16
533.442	38161
533.643	37796.46
533.844	37775.98
534.045	37962.34
534.246	37706.35
534.447	38253.15
534.648	38011.49
534.849	38474.34
535.05	38165.09
535.251	38228.58
535.451	38189.67
535.652	38345.31
535.853	38318.69
536.054	38038.12
536.255	38449.76
536.456	38267.49
536.657	38836.83
536.857	38396.51
537.058	38509.15
537.259	38410.85
537.46	38609.5
537.66	38460
537.861	38421.09
538.062	38445.66
538.263	38378.08
538.463	38474.34
538.664	38724.19
538.865	39101.01
539.065	39035.48
539.266	38646.36
539.466	38785.63
539.667	38259.3
539.868	39250.52
540.068	38652.51
540.269	38783.58
540.469	39311.95
540.67	38488.67
540.87	38761.05
541.071	38842.97
541.271	39336.53
541.472	38879.83
541.672	38777.43
541.873	38716
542.073	38435.42
542.274	39594.57
542.474	38822.49
542.675	38857.31
542.875	38933.08
543.075	38460
543.276	38730.33
543.476	39260.76
543.676	38836.83
543.877	39111.25
544.077	39113.3
544.277	39178.84
544.478	38863.45
544.678	38926.94
544.878	39314
545.078	39180.88
545.279	38955.61
545.479	39025.24
545.679	39469.65
545.879	38826.59
546.079	39158.36
546.28	39158.36
546.48	38826.59
546.68	39365.2
546.88	39641.68
547.08	39156.31
547.28	39332.43
547.48	38814.3
547.68	39746.12
547.88	39279.19
548.081	39770.7
548.281	39588.43
548.481	39082.58
548.681	39739.98
548.881	39692.88
549.081	39699.02
549.28	39531.09
549.48	39447.12
549.68	39604.81
549.88	39672.4
550.08	39471.7
550.28	39604.81
550.48	39445.07
550.68	40086.09
550.88	39455.31
551.08	39295.57
551.279	39864.91
551.479	39271
551.679	39987.78
551.879	39363.15
552.079	39879.24
552.278	39662.16
552.478	39436.88
552.678	39451.22
552.878	39916.11
553.077	39205.46
553.277	39193.17
553.477	39899.72
553.676	39807.56
553.876	39770.7
554.076	39490.13
554.275	39445.07
554.475	38756.96
554.674	39914.06
554.874	39909.96
555.074	38974.04
555.273	39750.22
555.473	39746.12
555.672	39692.88
555.872	39572.05
556.071	39576.14
556.271	40245.83
556.47	39672.4
556.67	39230.04
556.869	39414.35
557.068	39656.01
557.268	39346.77
557.467	39307.86
557.667	39436.88
557.866	39531.09
558.065	39119.45
558.265	38773.34
558.464	38625.89
558.663	39535.18
558.863	38777.43
559.062	39182.93
559.261	38425.18
559.461	39625.29
559.66	38333.03
559.859	39015
560.058	38642.27
560.258	38836.83
560.457	38326.88
560.656	38724.19
560.855	38421.09
561.054	38957.66
561.253	38369.89
561.453	38355.55
561.652	38474.34
561.851	38613.6
562.05	38015.59
562.249	37853.8
562.448	38494.82
562.647	38017.64
562.846	37589.61
563.045	38101.61
563.244	37190.26
563.443	38021.73
563.642	37229.17
563.841	37345.9
564.04	37163.64
564.239	37360.24
564.438	37442.16
564.637	37208.69
564.836	37390.96
565.035	36881.02
565.234	36807.29
565.432	36688.51
565.631	36749.95
565.83	36782.71
566.029	36350.59
566.228	36156.03
566.427	36221.57
566.625	35926.66
566.824	35734.15
567.023	35820.17
567.222	35474.06
567.42	35840.65
567.619	35959.43
567.818	35226.26
568.016	35621.52
568.215	35791.5
568.414	35392.14
568.612	35265.17
568.811	35050.13
569.01	35285.65
569.208	34443.93
569.407	35043.99
569.605	34466.46
569.804	34452.12
570.002	34095.78
570.201	34308.77
570.4	33870.5
570.598	34114.21
570.797	33936.04
570.995	33628.84
571.193	33536.68
571.392	33774.25
571.59	33252.02
571.789	33692.33
571.987	33190.58
572.186	33264.3
572.384	32936.63
572.582	33012.4
572.781	33217.2
572.979	32172.74
573.177	32547.51
573.376	32864.95
573.574	32242.37
573.772	32531.13
573.971	32240.32
574.169	31988.42
574.367	32142.02
574.565	32484.03
574.763	31896.26
574.962	31412.94
575.16	31187.66
575.358	31505.1
575.556	31509.19
575.754	31654.6
575.952	30866.13
576.151	32051.91
576.349	31015.63
576.547	30876.37
576.745	31064.78
576.943	31228.62
577.141	30782.16
577.339	30753.49
577.537	30468.83
577.735	30622.42
577.933	30382.81
578.131	30556.89
578.329	30472.92
578.527	30171.87
578.725	30388.95
578.923	30272.22
579.121	29864.67
579.319	29938.4
579.516	30100.19
579.714	29934.31
579.912	29737.7
580.11	29676.26
580.308	29637.35
580.506	29459.18
580.704	29129.45
580.901	29463.27
581.099	29991.65
581.297	29319.92
581.495	28893.94
581.692	29412.07
581.89	29172.46
582.088	28945.14
582.285	28793.59
582.483	29094.64
582.681	29160.17
582.878	28621.56
583.076	28914.42
583.274	29139.69
583.471	29053.68
583.669	28877.55
583.866	27988.74
584.064	28613.37
584.262	28066.56
584.459	28285.69
584.657	28300.03
584.854	29143.79
585.052	27939.58
585.249	28052.22
585.447	28246.78
585.644	27861.76
585.841	28248.83
586.039	28035.84
586.236	27652.87
586.434	27972.35
586.631	27599.62
586.828	27835.14
587.026	27771.65
587.223	27718.4
587.42	27589.38
587.618	27595.53
587.815	27333.39
588.012	27589.38
588.21	27308.81
588.407	27693.83
588.604	27284.23
588.801	27398.92
588.999	27327.24
589.196	27376.39
589.393	27294.47
589.59	27388.68
589.787	27040.53
589.984	27343.63
590.182	27030.29
590.379	27349.77
590.576	26917.65
590.773	26841.87
590.97	26757.91
591.167	27224.84
591.364	26600.21
591.561	26913.55
591.758	26747.67
591.955	26762
592.152	26944.27
592.349	26839.83
592.546	26655.51
592.743	26667.8
592.94	26526.49
593.137	26448.66
593.334	26862.35
593.531	26491.67
593.727	26653.46
593.924	26340.12
594.121	26172.19
594.318	26413.85
594.515	26446.62
594.712	26829.59
594.908	26415.9
595.105	26221.34
595.302	26247.96
595.499	26051.36
595.696	26639.12
595.892	26151.71
596.089	26667.8
596.286	25869.09
596.482	26120.99
596.679	26454.81
596.876	25955.1
597.072	25944.86
597.269	26147.61
597.466	26188.57
597.662	26006.3
597.859	26018.59
598.055	26344.22
598.252	25977.63
598.448	26104.6
598.645	25854.75
598.841	25897.76
599.038	26268.44
599.234	26272.54
599.431	25852.7
599.627	25609
599.824	25858.85
600.02	25920.29
600.217	25527.08
600.413	25813.79
600.609	25647.91
600.806	25981.73
601.002	25772.83
601.198	25453.35
601.395	25723.68
601.591	25760.55
601.787	25725.73
601.984	25645.86
602.18	26022.69
602.376	25725.73
602.572	25482.02
602.769	26172.19
602.965	25662.24
603.161	26047.26
603.357	25557.8
603.553	25762.59
603.75	25738.02
603.946	25387.82
604.142	25695.01
604.338	25520.93
604.534	25479.97
604.73	25473.83
604.926	25234.22
605.122	25613.09
605.318	25207.59
605.514	25705.25
605.71	25156.39
605.906	25326.38
606.102	25908
606.298	25660.2
606.494	25590.56
606.69	25666.34
606.886	25807.65
607.082	25297.7
607.278	25353
607.474	25248.55
607.67	25791.27
607.866	25201.45
608.062	25705.25
608.257	25422.63
608.453	25285.42
608.649	25647.91
608.845	25350.95
609.041	25119.53
609.236	25641.76
609.432	25387.82
609.628	25502.5
609.824	25144.11
610.019	25303.85
610.215	25410.34
610.411	25678.63
610.606	25279.27
610.802	25406.25
610.998	25398.06
611.193	25330.47
611.389	25115.44
611.584	25559.84
611.78	25066.28
611.976	25226.03
612.171	25588.52
612.367	25445.16
612.562	25410.34
612.758	25297.7
612.953	25092.91
613.149	25570.08
613.344	25137.96
613.539	25709.35
613.735	24992.56
613.93	25475.88
614.126	25260.84
614.321	25385.77
614.517	25396.01
614.712	25703.2
614.907	25439.01
615.103	25527.08
615.298	25264.94
615.493	25332.52
615.688	25004.85
615.884	25418.53
616.079	25340.71
616.274	25449.25
616.47	25295.66
616.665	25269.03
616.86	25291.56
617.055	25353
617.25	25342.76
617.445	25537.32
617.641	24984.37
617.836	25115.44
618.031	24953.65
618.226	25357.1
618.421	24992.56
618.616	25568.04
618.811	25152.3
619.006	25207.59
619.201	24597.3
619.396	25332.52
619.591	24744.75
619.786	24941.36
619.981	24924.97
620.176	25144.11
620.371	24802.1
620.566	24922.93
620.761	24949.55
620.956	25170.73
621.151	24759.09
621.346	24881.97
621.541	24193.85
621.735	25051.95
621.93	24503.09
622.125	24539.96
622.32	24111.93
622.515	24507.19
622.709	24245.05
622.904	24357.69
623.099	24005.44
623.294	24130.36
623.488	24345.4
623.683	24165.18
623.878	23780.16
624.072	23976.76
624.267	23884.61
624.462	23722.82
624.656	23515.97
624.851	23966.52
625.046	23374.66
625.24	23563.08
625.435	23495.49
625.629	23720.77
625.824	23534.4
626.018	23694.15
626.213	22956.88
626.407	23432.01
626.602	23194.44
626.796	23112.52
626.991	23028.56
627.185	23180.1
627.38	22979.4
627.574	22872.91
627.768	22578
627.963	22678.35
628.157	22616.91
628.352	22520.66
628.546	22051.67
628.74	22618.96
628.935	22203.22
629.129	22444.88
629.323	22041.43
629.517	22408.02
629.712	22047.58
629.906	22127.45
630.1	22102.87
630.294	21926.75
630.489	21857.12
630.683	22016.86
630.877	21656.42
631.071	21863.26
631.265	21996.38
631.459	21635.94
631.653	21576.55
631.848	21685.09
632.042	21531.49
632.236	21564.26
632.43	21291.88
632.624	21140.33
632.818	21123.94
633.012	21128.04
633.206	21005.16
633.4	21308.26
633.594	20747.12
633.788	20917.1
633.982	20820.84
634.176	21048.17
634.369	20421.49
634.563	20826.99
634.757	20401.01
634.951	20798.32
635.145	20464.5
635.339	20460.4
635.533	20265.85
635.726	20509.55
635.92	20149.11
636.114	19903.35
636.308	19833.72
636.501	19903.35
636.695	19940.22
636.889	19356.55
637.083	19549.06
637.276	19370.88
637.47	19303.3
637.664	19223.43
637.857	18983.82
638.051	19184.52
638.244	19170.18
638.438	18604.94
638.632	18660.24
638.825	18437.01
639.019	18697.1
639.212	18291.6
639.406	18299.8
639.599	18074.52
639.793	18084.76
639.986	17669.02
640.18	17945.5
640.373	17843.1
640.567	17382.31
640.76	17425.31
640.954	17298.34
641.147	17275.81
641.34	17335.2
641.534	17105.83
641.727	16843.69
641.92	17138.6
642.114	16985
642.307	16589.74
642.5	16628.65
642.694	16313.27
642.887	16714.67
643.08	16491.44
643.273	15920.06
643.467	16194.48
643.66	16040.89
643.853	15659.96
644.046	15553.47
644.239	15578.04
644.432	15119.3
644.626	15141.83
644.819	15018.95
645.012	15186.88
645.205	15522.75
645.398	15053.76
645.591	14934.98
645.784	14627.79
645.977	14652.36
646.17	14615.5
646.363	14300.11
646.556	14390.22
646.749	14275.54
646.942	14263.25
647.135	14283.73
647.328	14033.88
647.521	14222.29
647.714	13765.59
647.907	13935.57
648.099	13835.22
648.292	14072.79
648.485	13888.47
648.678	13661.15
648.871	13396.96
649.064	13485.02
649.256	13247.46
649.449	13005.8
649.642	12884.97
649.835	13124.58
650.027	12858.34
650.22	13022.18
650.413	12923.88
650.605	12903.4
650.798	12848.1
650.991	12641.26
651.183	12833.77
651.376	12792.81
651.568	12690.41
651.761	12297.2
651.954	12755.94
652.146	12497.9
652.339	12338.16
652.531	12362.73
652.724	12305.39
652.916	12153.84
653.109	11795.45
653.301	12258.29
653.494	12323.82
653.686	12043.25
653.879	12268.53
654.071	11934.71
654.263	12071.92
654.456	11903.99
654.648	11789.3
654.84	11762.68
655.033	11670.52
655.225	11897.85
655.417	11340.8
655.61	11623.42
655.802	11650.04
655.994	11709.43
656.186	11418.62
656.379	11387.9
656.571	11340.8
656.763	11439.1
656.955	11037.7
657.148	11021.31
657.34	11334.65
657.532	11191.3
657.724	10873.86
657.916	11101.19
658.108	11355.13
658.3	11084.8
658.492	10998.79
658.684	10638.34
658.876	11078.66
659.068	10859.52
659.26	10464.27
659.452	10413.07
659.644	10480.65
659.836	10732.55
660.028	10564.62
660.22	10165.26
660.412	10531.85
660.604	10415.12
660.796	10251.28
660.988	9890.84
661.18	10161.17
661.372	10290.19
661.563	10001.43
661.755	9925.65
661.947	10013.71
662.139	9890.84
662.331	9819.16
662.522	9700.37
662.714	9659.42
662.906	9735.19
663.097	9856.02
663.289	9307.16
663.481	9522.2
663.673	9538.59
663.864	9610.26
664.056	9532.44
664.247	9321.5
664.439	9335.84
664.631	9229.34
664.822	9215.01
665.014	9442.33
665.205	9282.59
665.397	9045.02
665.588	9085.98
665.78	9028.64
665.971	8954.91
666.163	8893.47
666.354	8834.08
666.546	8860.71
666.737	8680.49
666.929	8688.68
667.12	8676.39
667.311	8817.7
667.503	8655.91
667.694	8600.62
667.885	8305.71
668.077	8475.69
668.268	8358.96
668.459	8621.1
668.651	8301.61
668.842	8610.86
669.033	8320.04
669.224	8234.03
669.416	8733.73
669.607	8447.02
669.798	8254.51
669.989	8217.65
670.18	8021.04
670.371	8109.1
670.563	7920.69
670.754	8277.04
670.945	8160.3
671.136	8260.65
671.327	8107.05
671.518	7967.79
671.709	7810.1
671.9	8221.74
672.091	8285.23
672.282	7982.13
672.473	7691.32
672.664	7828.53
672.855	7894.07
673.046	8037.42
673.237	7785.52
673.428	7873.59
673.619	7832.63
673.809	7781.43
674	7783.48
674.191	7967.79
674.382	7750.71
674.573	7636.02
674.764	7881.78
674.954	8027.18
675.145	7543.86
675.336	7701.56
675.527	7502.9
675.717	7773.24
675.908	7705.65
676.099	7701.56
676.289	7709.75
676.48	7609.4
676.671	7572.54
676.861	7597.11
677.052	7705.65
677.243	7674.93
677.433	7648.31
677.624	7494.71
677.814	7439.42
678.005	7783.48
678.195	7849.01
678.386	7554.1
678.576	7562.3
678.767	7451.7
678.957	7595.06
679.148	7656.5
679.338	7681.08
679.529	7730.23
679.719	7435.32
679.909	7717.94
680.1	7416.89
680.29	7674.93
680.481	7392.31
680.671	7498.81
680.861	7328.83
681.052	7660.6
681.242	7535.67
681.432	7660.6
681.622	7613.49
681.813	7466.04
682.003	7670.84
682.193	7531.58
682.383	7636.02
682.573	7763
682.764	7584.82
682.954	7627.83
683.144	7566.39
683.334	7719.99
683.524	7687.22
683.714	7767.09
683.904	7650.36
684.094	7668.79
684.284	7674.93
684.474	7709.75
684.664	7738.42
684.854	7719.99
685.044	7699.51
685.234	7558.2
685.424	7722.04
685.614	7535.67
685.804	7932.98
685.994	7763
686.184	7842.87
686.374	7840.82
686.564	7681.08
686.753	7855.15
686.943	7642.17
687.133	7633.97
687.323	7820.34
687.513	7892.02
687.702	7814.2
687.892	7754.8
688.082	8078.38
688.272	7849.01
688.461	7930.93
688.651	8102.96
688.841	7988.27
689.03	7654.45
689.22	7916.59
689.41	8242.22
689.599	8313.9
689.789	8016.94
689.979	8162.35
690.168	8367.15
690.358	8361
690.547	8176.69
690.737	8203.31
690.926	8487.98
691.116	8391.72
691.305	8459.31
691.495	8324.14
691.684	8277.04
691.874	8479.79
692.063	8334.38
692.252	8246.32
692.442	8846.37
692.631	8709.16
692.82	8442.92
693.01	8741.93
693.199	8934.43
693.388	8913.95
693.578	8809.51
693.767	8989.73
693.956	9151.52
694.146	9100.32
694.335	8971.3
694.524	9069.6
694.713	9573.4
694.902	9499.67
695.092	9227.29
695.281	9204.77
695.47	9653.27
695.659	9471
695.848	9438.23
696.037	9503.77
696.226	9731.09
696.415	9825.3
696.604	9915.41
696.793	9858.07
696.982	10017.81
697.171	10142.74
697.36	9907.22
697.549	9698.33
697.738	9927.7
697.927	9950.23
698.116	10052.63
698.305	10290.19
698.494	10474.51
698.683	10462.22
698.872	10482.7
699.061	10167.31
699.25	10638.34
699.438	10738.69
699.627	10542.09
699.816	10691.59
700.005	10380.3
700.193	10658.82
700.382	10902.53
700.571	10730.5
700.76	10937.35
700.948	10902.53
701.137	10750.98
701.326	10978.31
701.514	10980.36
701.703	11158.53
701.892	10882.05
702.08	11303.93
702.269	11299.84
702.457	11076.61
702.646	11289.6
702.834	10982.4
703.023	11531.26
703.212	11611.13
703.4	11258.88
703.589	11248.64
703.777	11359.23
703.965	11283.45
704.154	11377.66
704.342	11437.05
704.531	11662.33
704.719	11412.48
704.907	11478.01
705.096	11412.48
705.284	11762.68
705.472	11332.61
705.661	11385.85
705.849	11441.15
706.037	11844.6
706.226	11437.05
706.414	11705.34
706.602	11502.59
706.79	11799.54
706.979	11592.7
707.167	11656.18
707.355	11475.96
707.543	11609.08
707.731	11791.35
707.919	11600.89
708.107	11502.59
708.296	11766.78
708.484	11654.14
708.672	11635.71
708.86	11385.85
709.048	11586.55
709.236	11463.68
709.424	11764.73
709.612	11650.04
709.8	11650.04
709.988	11693.05
710.176	11463.68
710.364	11639.8
710.551	11510.78
710.739	11609.08
710.927	11291.65
711.115	11367.42
711.303	11908.08
711.491	11676.66
711.679	11437.05
711.866	11539.45
712.054	11607.03
712.242	11824.12
712.43	11701.24
712.617	11447.29
712.805	11523.07
712.993	11484.16
713.181	11131.9
713.368	11326.46
713.556	11508.73
713.744	11420.67
713.931	11396.09
714.119	11193.34
714.306	11709.43
714.494	11344.89
714.682	11496.44
714.869	11074.56
715.057	11174.91
715.244	10955.78
715.432	11248.64
715.619	11058.18
715.807	11576.31
715.994	11260.93
716.182	10986.5
716.369	11181.06
716.556	11211.78
716.744	10753.03
716.931	10894.34
717.119	10959.88
717.306	10802.18
717.493	11017.22
717.681	11064.32
717.868	10935.3
718.055	11035.65
718.242	10925.06
718.43	10869.76
718.617	10859.52
718.804	10765.32
718.991	10785.8
719.179	10884.1
719.366	10654.73
719.553	10935.3
719.74	10699.78
719.927	10671.11
720.114	10460.17
720.301	10382.35
720.488	10548.23
720.676	10417.16
720.863	10619.91
721.05	11004.93
721.237	10587.15
721.424	10581
721.611	10560.52
721.798	10519.56
721.985	10429.45
722.172	10402.83
722.358	10255.37
722.545	10585.1
722.732	10515.47
722.919	10402.83
723.106	10191.89
723.293	10421.26
723.48	10325.01
723.667	9972.75
723.853	9968.66
724.04	10372.11
724.227	10292.24
724.414	10050.58
724.6	9919.51
724.787	10433.55
724.974	10402.83
725.161	10093.58
725.347	9776.15
725.534	10097.68
725.72	10046.48
725.907	9958.42
726.094	10007.57
726.28	9772.05
726.467	9894.93
726.653	9776.15
726.84	9663.51
727.027	10146.83
727.213	9700.37
727.4	9788.44
727.586	9593.88
727.773	9878.55
727.959	9864.21
728.145	9690.13
728.332	9372.7
728.518	9415.71
728.705	9700.37
728.891	9462.81
729.077	9399.32
729.264	9346.08
729.45	9528.35
729.636	9454.62
729.823	9505.82
730.009	9595.93
730.195	9481.24
730.382	9520.15
730.568	9178.14
730.754	9608.22
730.94	9307.16
731.126	9231.39
731.313	9202.72
731.499	9522.2
731.685	9475.1
731.871	9008.16
732.057	9120.8
732.243	9468.95
732.429	9358.36
732.615	9128.99
732.801	9196.57
732.987	9317.4
733.173	9100.32
733.359	8936.48
733.545	8930.34
733.731	8995.87
733.917	9135.14
734.103	8846.37
734.289	8938.53
734.475	9049.12
734.661	9235.49
734.847	8801.32
735.033	8561.7
735.219	8815.65
735.404	8883.24
735.59	8748.07
735.776	8537.13
735.962	8881.19
736.148	8956.96
736.333	8588.33
736.519	8414.25
736.705	8592.42
736.89	8600.62
737.076	8424.49
737.262	8256.56
737.447	8342.57
737.633	8358.96
737.819	8326.19
738.004	8209.45
738.19	8416.3
738.375	8621.1
738.561	8274.99
738.747	8211.5
738.932	8244.27
739.118	8371.24
739.303	8193.07
739.489	8148.01
739.674	8203.31
739.859	8041.52
740.045	7928.88
740.23	7789.62
740.416	7846.96
740.601	7955.51
740.786	7797.81
740.972	7439.42
741.157	7902.26
741.342	7652.41
741.528	7570.49
741.713	7529.53
741.898	7849.01
742.084	7707.7
742.269	7619.64
742.454	7562.3
742.639	7834.68
742.824	7482.42
743.01	7416.89
743.195	7390.27
743.38	7535.67
743.565	7533.62
743.75	7326.78
743.935	7232.57
744.12	7531.58
744.305	7095.36
744.49	7142.46
744.675	6943.81
744.86	7222.33
745.045	7308.35
745.23	7025.73
745.415	6820.93
745.6	7222.33
745.785	6790.21
745.97	7076.93
746.155	6665.28
746.34	6935.62
746.525	6984.77
746.71	6833.22
746.895	6566.98
747.079	6526.02
747.264	6622.28
747.449	6489.16
747.634	6548.55
747.819	6626.37
748.003	6370.38
748.188	6288.46
748.373	6431.82
748.557	6319.18
748.742	6239.31
748.927	6057.04
749.111	6134.86
749.296	6218.83
749.481	6249.55
749.665	6116.43
749.85	5919.82
750.034	6208.59
750.219	5923.92
750.404	5792.85
750.588	5753.94
750.773	5862.48
750.957	5798.99
751.141	5782.61
751.326	5686.36
751.51	5565.53
751.695	5794.9
751.879	5737.56
752.064	5686.36
752.248	5545.05
752.432	5827.67
752.617	5317.72
752.801	5391.45
752.985	5301.34
753.17	5520.47
753.354	5413.98
753.538	5250.14
753.722	5155.93
753.907	5123.16
754.091	5043.29
754.275	4961.37
754.459	4981.85
754.643	4983.9
754.828	5006.43
755.012	4901.98
755.196	4861.02
755.38	4949.09
755.564	4721.76
755.748	4813.92
755.932	4736.1
756.116	4920.42
756.3	4645.99
756.484	4613.22
756.668	4828.26
756.852	4484.2
757.036	4443.24
757.22	4336.74
757.404	4340.84
757.588	4576.36
757.772	4433
757.956	4455.53
758.14	4447.33
758.323	4367.46
758.507	4344.94
758.691	4185.19
758.875	4439.14
759.059	4392.04
759.242	4082.8
759.426	4244.59
759.61	4125.8
759.794	3869.81
759.977	4156.52
760.161	4463.72
760.345	4138.09
760.528	4140.14
760.712	3808.37
760.895	3871.86
761.079	3957.87
761.263	3705.97
761.446	3589.24
761.63	3554.42
761.813	3859.57
761.997	3564.66
762.18	3644.53
762.364	3736.69
762.547	3447.93
762.731	3589.24
762.914	3599.48
763.098	3531.89
763.281	3679.35
763.464	3413.11
763.648	3562.61
763.831	3513.46
764.015	3435.64
764.198	3779.7
764.381	3441.78
764.564	3439.73
764.748	3550.32
764.931	3497.08
765.114	3353.72
765.297	3509.37
765.481	3271.8
765.664	3368.06
765.847	3277.94
766.03	3255.42
766.213	3292.28
766.397	3411.06
766.58	3210.36
766.763	3476.6
766.946	3437.69
767.129	3261.56
767.312	3191.93
767.495	3224.7
767.678	3431.54
767.861	3353.72
768.044	3198.07
768.227	3224.7
768.41	3302.52
768.593	3323
768.776	3398.77
768.959	3155.07
769.142	3419.25
769.324	3204.22
769.507	3187.83
769.69	3245.18
769.873	3191.93
770.056	3366.01
770.239	3046.52
770.421	3306.62
770.604	3357.82
770.787	3230.84
770.97	3050.62
771.152	2950.27
771.335	3126.39
771.518	3003.52
771.7	3042.43
771.883	3130.49
772.066	3001.47
772.248	3183.74
772.431	3032.19
772.613	2835.58
772.796	2964.61
772.978	2999.42
773.161	2946.17
773.343	2794.62
773.526	2972.8
773.708	2714.75
773.891	2622.59
774.073	2759.81
774.256	2833.54
774.438	3083.39
774.621	2638.98
774.803	2733.18
774.985	2774.14
775.168	2890.88
775.35	2524.29
775.532	2628.74
775.715	2622.59
775.897	2614.4
776.079	2589.83
776.261	2641.03
776.444	2720.9
776.626	2569.35
776.808	2516.1
776.99	2344.07
777.173	2591.88
777.355	2425.99
777.537	2544.77
777.719	2311.3
777.901	2520.2
778.083	2473.09
778.265	2260.1
778.447	2403.46
778.629	2323.59
778.811	2290.82
778.993	2352.26
779.175	2436.23
779.357	2305.16
779.539	2335.88
779.721	2213
779.903	2253.96
780.085	2258.06
780.267	2210.95
780.449	2045.07
780.631	2172.04
780.812	2374.79
780.994	2120.84
781.176	2165.9
781.358	1957
781.54	2075.79
781.721	2190.47
781.903	1922.19
782.085	1911.95
782.267	2182.28
782.448	1893.52
782.63	1926.29
782.812	1997.96
782.993	2061.45
783.175	2106.51
783.357	1895.57
783.538	1985.68
783.72	1641.62
783.901	1862.8
784.083	1870.99
784.264	1862.8
784.446	1639.57
784.627	1633.43
784.809	1799.31
784.99	1668.24
785.172	2043.02
785.353	1799.31
785.535	1709.2
785.716	1623.19
785.897	1680.53
786.079	1645.71
786.26	1672.34
786.441	1637.52
786.623	1533.08
786.804	1506.45
786.985	1551.51
787.167	1549.46
787.348	1678.48
787.529	1492.12
787.71	1584.27
787.891	1498.26
788.073	1494.16
788.254	1385.62
788.435	1658
788.616	1516.69
788.797	1500.31
788.978	1461.4
789.159	1414.29
789.34	1436.82
789.522	1422.48
789.703	1352.85
789.884	1504.4
790.065	1461.4
790.246	1682.58
790.427	1254.55
790.607	1426.58
790.788	1354.9
790.969	1297.56
791.15	1430.68
791.331	1260.7
791.512	1232.02
791.693	1199.26
791.874	1189.02
792.054	1373.33
792.235	1352.85
792.416	1180.82
792.597	1062.04
792.778	1326.23
792.958	1115.29
793.139	1324.18
793.32	1146.01
793.5	1092.76
793.681	1250.46
793.862	1352.85
794.042	1268.89
794.223	1012.89
794.404	1078.43
794.584	1094.81
794.765	1115.29
794.945	1074.33
795.126	1164.44
795.306	1277.08
795.487	1205.4
795.667	1045.66
795.848	1002.65
796.028	1205.4
796.209	1068.19
796.389	1201.3
796.57	1080.47
796.75	1090.71
796.93	1117.34
797.111	961.69
797.291	916.64
797.471	1133.72
797.652	1047.71
797.832	969.88
798.012	1014.94
798.192	1016.99
798.373	847.01
798.553	955.55
798.733	1023.13
798.913	965.79
799.093	1037.47
799.274	922.78
799.454	988.32
799.634	1205.4
799.814	1084.57
799.994	947.36
800.174	947.36
800.354	1033.37
800.534	726.18
800.714	922.78
800.894	752.8
801.074	722.08
801.254	754.85
801.434	1037.47
801.614	806.05
801.794	746.66
801.974	5635.16
802.154	853.15
802.334	849.05
802.514	705.7
802.693	781.47
802.873	670.88
803.053	957.6
803.233	941.21
803.413	885.92
803.592	707.74
803.772	765.09
803.952	885.92
804.131	740.51
804.311	783.52
804.491	853.15
804.67	765.09
804.85	806.05
805.03	842.91
805.209	894.11
805.389	773.28
805.568	806.05
805.748	732.32
805.928	701.6
806.107	914.59
806.287	908.44
806.466	812.19
806.646	754.85
806.825	801.95
807.004	689.31
807.184	781.47
807.363	711.84
807.543	814.24
807.722	615.59
807.901	861.34
808.081	689.31
808.26	435.36
808.439	767.13
808.619	681.12
808.798	537.76
808.977	777.37
809.156	916.64
809.336	707.74
809.515	674.98
809.694	615.59
809.873	570.53
810.052	550.05
810.231	853.15
810.411	709.79
810.59	871.58
810.769	595.11
810.948	758.94
811.127	351.4
811.306	644.26
811.485	556.19
811.664	740.51
811.843	795.81
812.022	631.97
812.201	494.76
812.38	558.24
812.559	611.49
812.737	672.93
812.916	380.07
813.095	519.33
813.274	656.54
813.453	648.35
813.632	570.53
813.811	697.5
813.989	451.75
814.168	697.5
814.347	459.94
814.526	472.23
814.704	779.42
814.883	791.71
815.062	380.07
815.24	433.32
815.419	504.99
815.598	584.87
815.776	373.92
815.955	361.64
816.133	328.87
816.312	455.84
816.49	390.31
816.669	504.99
816.847	588.96
817.026	595.11
817.204	412.84
817.383	416.93
817.561	439.46
817.74	566.43
817.918	566.43
818.097	451.75
818.275	537.76
818.453	627.87
818.632	498.85
818.81	402.6
818.988	527.52
819.167	468.13
819.345	435.36
819.523	292.01
819.701	572.58
819.879	541.86
820.058	609.44
820.236	287.91
820.414	541.86
820.592	378.02
820.77	388.26
820.948	289.96
821.127	496.8
821.305	568.48
821.483	259.24
821.661	515.23
821.839	502.95
822.017	406.69
822.195	332.97
822.373	375.97
822.551	449.7
822.729	576.67
822.907	322.73
823.085	437.41
823.262	455.84
823.44	320.68
823.618	427.17
823.796	394.4
823.974	386.21
824.152	375.97
824.329	388.26
824.507	355.49
824.685	543.91
824.863	378.02
825.04	378.02
825.218	375.97
825.396	441.51
825.574	486.56
825.751	496.8
825.929	330.92
826.107	332.97
826.284	509.09
826.462	355.49
826.639	230.57
826.817	378.02
826.994	382.12
827.172	158.89
827.349	367.78
827.527	373.92
827.704	482.47
827.882	541.86
828.059	328.87
828.237	406.69
828.414	509.09
828.591	175.27
828.769	298.15
828.946	306.34
829.124	564.39
829.301	453.8
829.478	238.76
829.655	443.56
829.833	484.52
830.01	58.54
830.187	502.95
830.364	353.45
830.542	476.32
830.719	345.25
830.896	365.73
831.073	443.56
831.25	455.84
831.427	312.49
831.604	375.97
831.782	292.01
831.959	443.56
832.136	281.77
832.313	375.97
832.49	296.1
832.667	322.73
832.844	287.91
833.021	494.76
833.198	382.12
833.374	398.5
833.551	296.1
833.728	156.84
833.905	464.04
834.082	150.7
834.259	367.78
834.436	394.4
834.612	214.18
834.789	453.8
834.966	337.06
835.143	285.86
835.319	232.62
835.496	394.4
835.673	263.33
835.85	384.16
836.026	396.45
836.203	511.14
836.38	156.84
836.556	216.23
836.733	287.91
836.909	591.01
837.086	156.84
837.262	72.87
837.439	314.53
837.616	228.52
837.792	357.54
837.968	263.33
838.145	52.39
838.321	289.96
838.498	236.71
838.674	359.59
838.851	412.84
839.027	205.99
839.203	300.2
839.38	353.45
839.556	228.52
839.732	357.54
839.909	216.23
840.085	216.23
840.261	205.99
840.437	351.4
840.614	216.23
840.79	404.64
840.966	441.51
841.142	232.62
841.318	259.24
841.494	140.46
841.671	443.56
841.847	191.66
842.023	91.31
842.199	220.33
842.375	554.15
842.551	105.64
842.727	169.13
842.903	302.25
843.079	122.02
843.255	474.28
843.431	193.7
843.607	292.01
843.783	17.58
843.959	439.46
844.134	167.08
844.31	400.55
844.486	208.04
844.662	146.6
844.838	183.46
845.013	181.42
845.189	394.4
845.365	359.59
845.541	228.52
845.716	314.53
845.892	396.45
846.068	339.11
846.244	220.33
846.419	189.61
846.595	136.36
846.77	158.89
846.946	251.05
847.122	201.9
847.297	181.42
847.473	500.9
847.648	70.83
847.824	191.66
847.999	-2.9
848.175	285.86
848.35	251.05
848.526	423.08
848.701	556.19
848.876	308.39
849.052	429.22
849.227	171.18
849.403	177.32
849.578	257.19
849.753	265.38
849.929	177.32
850.104	72.87
850.279	271.53
850.454	205.99
850.63	304.29
850.805	314.53
850.98	240.81
851.155	205.99
851.33	265.38
851.505	119.98
851.681	404.64
851.856	134.31
852.031	244.9
852.206	255.14
852.381	165.03
852.556	144.55
852.731	113.83
852.906	339.11
853.081	232.62
853.256	314.53
853.431	136.36
853.606	185.51
853.781	85.16
853.956	-62.29
854.131	167.08
854.305	111.78
854.48	289.96
854.655	107.69
854.83	50.35
855.005	197.8
855.18	220.33
855.354	107.69
855.529	44.2
855.704	224.42
855.879	347.3
856.053	60.59
856.228	269.48
856.403	93.35
856.577	363.69
856.752	-11.09
856.926	187.56
857.101	357.54
857.276	134.31
857.45	214.18
857.625	230.57
857.799	281.77
857.974	214.18
858.148	-56.15
858.323	216.23
858.497	150.7
858.672	130.22
858.846	138.41
859.02	185.51
859.195	54.44
859.369	240.81
859.543	203.94
859.718	224.42
859.892	300.2
860.066	316.58
860.241	140.46
860.415	40.11
860.589	179.37
860.763	228.52
860.938	195.75
861.112	185.51
861.286	54.44
861.46	197.8
861.634	156.84
861.808	238.76
861.982	66.73
862.157	130.22
862.331	126.12
862.505	-97.11
862.679	1.19
862.853	113.83
863.027	160.94
863.201	197.8
863.375	93.35
863.549	234.66
863.722	142.5
863.896	236.71
864.07	150.7
864.244	220.33
864.418	193.7
864.592	107.69
864.766	279.72
864.939	177.32
865.113	93.35
865.287	259.24
865.461	42.15
865.634	173.22
865.808	115.88
865.982	142.5
866.156	-23.38
866.329	58.54
866.503	85.16
866.676	138.41
866.85	255.14
867.024	130.22
867.197	224.42
867.371	160.94
867.544	275.62
867.718	-15.19
867.891	238.76
868.065	25.77
868.238	240.81
868.412	328.87
868.585	103.59
868.759	58.54
868.932	167.08
869.105	97.45
869.279	195.75
869.452	33.96
869.625	249
869.799	31.91
869.972	1.19
870.145	-2.9
870.319	294.05
870.492	17.58
870.665	70.83
870.838	48.3
871.011	-111.44
871.185	134.31
871.358	68.78
871.531	210.09
871.704	179.37
871.877	148.65
872.05	119.98
872.223	1.19
872.396	292.01
872.569	308.39
872.742	-45.91
872.915	150.7
873.088	146.6
873.261	42.15
873.434	169.13
873.607	105.64
873.78	412.84
873.953	-54.1
874.126	152.74
874.299	193.7
874.471	158.89
874.644	140.46
874.817	220.33
874.99	279.72
875.163	148.65
875.335	140.46
875.508	19.63
875.681	257.19
875.853	191.66
876.026	124.07
876.199	244.9
876.371	68.78
876.544	89.26
876.717	189.61
876.889	117.93
877.062	144.55
877.234	3.24
877.407	44.2
877.579	85.16
877.752	203.94
877.924	359.59
878.097	210.09
878.269	115.88
878.442	138.41
878.614	246.95
878.786	130.22
878.959	111.78
879.131	117.93
879.303	-131.92
879.476	128.17
879.648	314.53
879.82	36.01
879.993	158.89
880.165	152.74
880.337	17.58
880.509	128.17
880.681	68.78
880.854	11.43
881.026	222.38
881.198	216.23
881.37	107.69
881.542	171.18
881.714	81.07
881.886	25.77
882.058	173.22
882.23	165.03
882.402	124.07
882.574	154.79
882.746	298.15
882.918	371.88
883.09	183.46
883.262	99.5
883.434	226.47
883.606	9.39
883.778	115.88
883.95	210.09
884.122	185.51
884.293	357.54
884.465	140.46
884.637	167.08
884.809	52.39
884.98	253.09
885.152	197.8
885.324	128.17
885.496	83.11
885.667	111.78
885.839	64.68
886.011	158.89
886.182	263.33
886.354	271.53
886.525	234.66
886.697	70.83
886.869	109.74
887.04	38.06
887.212	287.91
887.383	228.52
887.555	105.64
887.726	95.4
887.897	42.15
888.069	66.73
888.24	339.11
888.412	140.46
888.583	81.07
888.754	85.16
888.926	-37.72
889.097	117.93
889.268	-45.91
889.44	9.39
889.611	58.54
889.782	-78.68
889.953	-70.48
890.125	126.12
890.296	-74.58
890.467	83.11
890.638	93.35
890.809	66.73
890.98	128.17
891.151	205.99
891.323	263.33
891.494	-95.06
891.665	122.02
891.836	169.13
892.007	107.69
892.178	87.21
892.349	179.37
892.52	-56.15
892.691	132.26
892.862	15.53
893.032	-39.76
893.203	122.02
893.374	76.97
893.545	109.74
893.716	54.44
893.887	234.66
894.057	-0.85
894.228	68.78
894.399	-27.48
894.57	390.31
894.74	173.22
894.911	124.07
895.082	132.26
895.253	21.67
895.423	117.93
895.594	199.85
895.764	216.23
895.935	-17.24
896.106	183.46
896.276	31.91
896.447	201.9
896.617	50.35
896.788	48.3
896.958	11.43
897.129	62.63
897.299	124.07
897.47	259.24
897.64	156.84
897.81	89.26
897.981	263.33
898.151	-19.29
898.322	85.16
898.492	191.66
898.662	3.24
898.832	-33.62
899.003	33.96
899.173	234.66
899.343	-72.53
899.513	-17.24
