Data from USB4F104151__5__12-00-20-036.txt Node

Date: Fri Mar 14 12:00:20 EDT 2025
User: louis
Spectrometer: USB4F10415
Trigger mode: 4
Integration Time (sec): 2.000000E-2
Scans to average: 1
Electric dark correction enabled: true
Nonlinearity correction enabled: false
Boxcar width: 0
XAxis mode: Wavelengths
Number of Pixels in Spectrum: 3648
>>>>>Begin Spectral Data<<<<<
178.204	-103.93
178.424	-103.93
178.644	-103.93
178.864	-28.16
179.084	-69.12
179.304	4.61
179.524	-11.78
179.744	-40.45
179.964	4.61
180.184	-9.73
180.404	45.57
180.624	0.51
180.844	25.09
181.064	-17.92
181.283	10.75
181.503	0.51
181.723	-11.78
181.943	-26.11
182.163	51.71
182.383	-7.68
182.602	61.95
182.822	14.85
183.042	82.43
183.262	-75.26
183.482	4.61
183.701	64
183.921	88.57
184.141	-5.63
184.361	72.19
184.58	-32.26
184.8	-9.73
185.02	-19.97
185.239	-54.78
185.459	31.23
185.679	16.9
185.898	-19.97
186.118	39.42
186.338	10.75
186.557	-30.21
186.777	4.61
186.997	64
187.216	10.75
187.436	168.45
187.655	-13.82
187.875	98.81
188.095	12.8
188.314	-22.02
188.534	100.86
188.753	43.52
188.973	6.66
189.192	78.33
189.412	16.9
189.631	53.76
189.851	102.91
190.07	82.43
190.29	-65.02
190.509	18.94
190.729	-1.54
190.948	35.33
191.168	117.25
191.387	16.9
191.607	-42.5
191.826	76.29
192.045	41.47
192.265	-58.88
192.484	2.56
192.704	25.09
192.923	6.66
193.142	68.09
193.362	-11.78
193.581	86.53
193.8	2.56
194.02	113.15
194.239	-42.5
194.458	82.43
194.678	-5.63
194.897	33.28
195.116	-75.26
195.335	29.18
195.555	2.56
195.774	-19.97
195.993	10.75
196.212	49.66
196.432	31.23
196.651	-7.68
196.87	-26.11
197.089	96.77
197.308	47.62
197.528	53.76
197.747	-7.68
197.966	-11.78
198.185	27.14
198.404	20.99
198.623	27.14
198.842	37.38
199.062	61.95
199.281	39.42
199.5	-26.11
199.719	-11.78
199.938	18.94
200.157	33.28
200.376	18.94
200.595	-3.58
200.814	31.23
201.033	53.76
201.252	66.05
201.471	-1.54
201.69	20.99
201.909	-50.69
202.128	57.86
202.347	66.05
202.566	61.95
202.785	-28.16
203.004	0.51
203.223	-5.63
203.442	-48.64
203.661	37.38
203.879	-26.11
204.098	27.14
204.317	6.66
204.536	-44.54
204.755	12.8
204.974	-5.63
205.193	31.23
205.411	100.86
205.63	18.94
205.849	2.56
206.068	-9.73
206.287	14.85
206.505	41.47
206.724	2.56
206.943	37.38
207.162	29.18
207.381	29.18
207.599	-24.06
207.818	-7.68
208.037	76.29
208.255	27.14
208.474	-19.97
208.693	-11.78
208.911	68.09
209.13	84.48
209.349	31.23
209.567	-30.21
209.786	20.99
210.005	8.7
210.223	98.81
210.442	-50.69
210.661	4.61
210.879	35.33
211.098	-28.16
211.316	-1.54
211.535	27.14
211.753	12.8
211.972	109.05
212.191	-48.64
212.409	64
212.628	104.96
212.846	45.57
213.065	70.14
213.283	76.29
213.502	10.75
213.72	41.47
213.938	51.71
214.157	-22.02
214.375	74.24
214.594	8.7
214.812	14.85
215.031	0.51
215.249	59.9
215.467	-1.54
215.686	47.62
215.904	12.8
216.122	8.7
216.341	8.7
216.559	31.23
216.778	16.9
216.996	45.57
217.214	39.42
217.432	82.43
217.651	-67.07
217.869	-9.73
218.087	29.18
218.306	-13.82
218.524	33.28
218.742	-5.63
218.96	70.14
219.179	109.05
219.397	-3.58
219.615	47.62
219.833	4.61
220.051	-3.58
220.27	35.33
220.488	45.57
220.706	2.56
220.924	-17.92
221.142	-11.78
221.36	-58.88
221.578	39.42
221.796	-32.26
222.015	4.61
222.233	59.9
222.451	0.51
222.669	-26.11
222.887	2.56
223.105	29.18
223.323	-17.92
223.541	0.51
223.759	45.57
223.977	-40.45
224.195	102.91
224.413	29.18
224.631	-24.06
224.849	25.09
225.067	31.23
225.285	25.09
225.503	12.8
225.721	-112.13
225.939	-7.68
226.157	49.66
226.375	125.44
226.592	18.94
226.81	35.33
227.028	23.04
227.246	53.76
227.464	0.51
227.682	37.38
227.9	6.66
228.117	-24.06
228.335	12.8
228.553	-48.64
228.771	-32.26
228.989	-5.63
229.206	18.94
229.424	-11.78
229.642	-7.68
229.86	18.94
230.077	64
230.295	-7.68
230.513	10.75
230.731	18.94
230.948	29.18
231.166	64
231.384	-1.54
231.601	37.38
231.819	49.66
232.037	51.71
232.254	-42.5
232.472	-28.16
232.689	-19.97
232.907	43.52
233.125	33.28
233.342	59.9
233.56	2.56
233.777	-67.07
233.995	4.61
234.213	2.56
234.43	16.9
234.648	-13.82
234.865	18.94
235.083	-9.73
235.3	-7.68
235.518	23.04
235.735	84.48
235.953	92.67
236.17	-1.54
236.388	45.57
236.605	16.9
236.822	43.52
237.04	27.14
237.257	6.66
237.475	43.52
237.692	-26.11
237.909	84.48
238.127	57.86
238.344	20.99
238.562	16.9
238.779	14.85
238.996	-81.41
239.214	37.38
239.431	33.28
239.648	-42.5
239.865	-3.58
240.083	12.8
240.3	-56.83
240.517	35.33
240.735	43.52
240.952	-13.82
241.169	10.75
241.386	43.52
241.603	-81.41
241.821	18.94
242.038	-11.78
242.255	14.85
242.472	31.23
242.689	37.38
242.907	64
243.124	-58.88
243.341	12.8
243.558	25.09
243.775	-56.83
243.992	-7.68
244.209	-48.64
244.426	-11.78
244.643	29.18
244.86	-19.97
245.078	51.71
245.295	59.9
245.512	-5.63
245.729	25.09
245.946	-7.68
246.163	70.14
246.38	16.9
246.597	-28.16
246.814	18.94
247.031	55.81
247.248	-7.68
247.464	18.94
247.681	74.24
247.898	-67.07
248.115	-89.6
248.332	-50.69
248.549	39.42
248.766	10.75
248.983	33.28
249.2	18.94
249.417	92.67
249.633	-26.11
249.85	49.66
250.067	-75.26
250.284	31.23
250.501	-28.16
250.717	88.57
250.934	57.86
251.151	31.23
251.368	23.04
251.585	-50.69
251.801	-5.63
252.018	23.04
252.235	96.77
252.451	-26.11
252.668	53.76
252.885	2.56
253.102	-28.16
253.318	25.09
253.535	-15.87
253.752	4.61
253.968	47.62
254.185	0.51
254.401	-1.54
254.618	-3.58
254.835	6.66
255.051	20.99
255.268	59.9
255.484	-69.12
255.701	59.9
255.917	45.57
256.134	-30.21
256.351	125.44
256.567	64
256.784	-28.16
257	-11.78
257.217	0.51
257.433	49.66
257.65	41.47
257.866	25.09
258.082	49.66
258.299	29.18
258.515	27.14
258.732	-15.87
258.948	25.09
259.165	16.9
259.381	20.99
259.597	-9.73
259.814	53.76
260.03	16.9
260.246	29.18
260.463	45.57
260.679	-3.58
260.895	-38.4
261.112	49.66
261.328	49.66
261.544	14.85
261.761	90.62
261.977	-46.59
262.193	10.75
262.409	12.8
262.626	121.34
262.842	39.42
263.058	16.9
263.274	2.56
263.49	31.23
263.707	-19.97
263.923	23.04
264.139	-11.78
264.355	31.23
264.571	16.9
264.787	-42.5
265.004	29.18
265.22	94.72
265.436	64
265.652	2.56
265.868	41.47
266.084	14.85
266.3	6.66
266.516	-50.69
266.732	27.14
266.948	-19.97
267.164	18.94
267.38	-7.68
267.596	20.99
267.812	20.99
268.028	-26.11
268.244	-7.68
268.46	39.42
268.676	4.61
268.892	16.9
269.108	8.7
269.324	33.28
269.54	12.8
269.756	131.58
269.972	-7.68
270.188	109.05
270.403	2.56
270.619	-13.82
270.835	39.42
271.051	33.28
271.267	-40.45
271.483	-56.83
271.698	39.42
271.914	10.75
272.13	-7.68
272.346	53.76
272.562	90.62
272.777	16.9
272.993	55.81
273.209	8.7
273.425	4.61
273.64	-1.54
273.856	16.9
274.072	78.33
274.287	-93.69
274.503	27.14
274.719	-3.58
274.934	41.47
275.15	20.99
275.366	16.9
275.581	20.99
275.797	43.52
276.012	109.05
276.228	-17.92
276.444	-22.02
276.659	27.14
276.875	-1.54
277.09	4.61
277.306	10.75
277.521	43.52
277.737	4.61
277.952	88.57
278.168	0.51
278.383	-7.68
278.599	14.85
278.814	84.48
279.03	49.66
279.245	18.94
279.461	-9.73
279.676	82.43
279.892	-17.92
280.107	45.57
280.322	-9.73
280.538	27.14
280.753	25.09
280.969	47.62
281.184	94.72
281.399	102.91
281.615	23.04
281.83	64
282.045	-17.92
282.26	66.05
282.476	-17.92
282.691	18.94
282.906	37.38
283.122	-3.58
283.337	-11.78
283.552	41.47
283.767	72.19
283.983	76.29
284.198	45.57
284.413	-36.35
284.628	-48.64
284.843	4.61
285.058	33.28
285.274	-11.78
285.489	53.76
285.704	55.81
285.919	-15.87
286.134	66.05
286.349	29.18
286.564	18.94
286.779	80.38
286.995	-11.78
287.21	-34.3
287.425	59.9
287.64	-3.58
287.855	66.05
288.07	-97.79
288.285	117.25
288.5	51.71
288.715	43.52
288.93	25.09
289.145	10.75
289.36	-42.5
289.575	20.99
289.79	10.75
290.004	100.86
290.219	-9.73
290.434	27.14
290.649	4.61
290.864	-15.87
291.079	-24.06
291.294	25.09
291.509	35.33
291.724	49.66
291.938	4.61
292.153	43.52
292.368	-13.82
292.583	59.9
292.798	16.9
293.012	96.77
293.227	20.99
293.442	74.24
293.657	18.94
293.871	53.76
294.086	-17.92
294.301	123.39
294.516	6.66
294.73	6.66
294.945	-13.82
295.16	35.33
295.374	76.29
295.589	10.75
295.804	55.81
296.018	68.09
296.233	74.24
296.447	61.95
296.662	41.47
296.877	-30.21
297.091	-32.26
297.306	10.75
297.52	23.04
297.735	94.72
297.949	23.04
298.164	23.04
298.378	39.42
298.593	16.9
298.807	2.56
299.022	-3.58
299.236	33.28
299.451	-3.58
299.665	51.71
299.88	35.33
300.094	-5.63
300.309	31.23
300.523	18.94
300.737	35.33
300.952	41.47
301.166	37.38
301.381	8.7
301.595	45.57
301.809	35.33
302.024	18.94
302.238	33.28
302.452	64
302.667	64
302.881	31.23
303.095	57.86
303.309	47.62
303.524	-50.69
303.738	49.66
303.952	-1.54
304.166	37.38
304.381	43.52
304.595	74.24
304.809	23.04
305.023	29.18
305.237	45.57
305.452	57.86
305.666	33.28
305.88	-28.16
306.094	8.7
306.308	35.33
306.522	64
306.736	10.75
306.95	-11.78
307.164	39.42
307.379	23.04
307.593	25.09
307.807	70.14
308.021	-13.82
308.235	78.33
308.449	-44.54
308.663	70.14
308.877	39.42
309.091	45.57
309.305	33.28
309.519	-22.02
309.733	2.56
309.947	6.66
310.161	74.24
310.374	76.29
310.588	2.56
310.802	92.67
311.016	-34.3
311.23	35.33
311.444	33.28
311.658	35.33
311.872	66.05
312.085	92.67
312.299	-7.68
312.513	53.76
312.727	88.57
312.941	-44.54
313.154	6.66
313.368	-5.63
313.582	68.09
313.796	76.29
314.009	-26.11
314.223	47.62
314.437	-13.82
314.651	68.09
314.864	51.71
315.078	61.95
315.292	18.94
315.505	51.71
315.719	45.57
315.933	8.7
316.146	59.9
316.36	-5.63
316.573	82.43
316.787	84.48
317.001	51.71
317.214	-13.82
317.428	61.95
317.641	-7.68
317.855	8.7
318.068	-3.58
318.282	39.42
318.495	76.29
318.709	16.9
318.922	25.09
319.136	33.28
319.349	39.42
319.563	66.05
319.776	51.71
319.99	-32.26
320.203	35.33
320.417	59.9
320.63	35.33
320.843	33.28
321.057	61.95
321.27	10.75
321.483	8.7
321.697	64
321.91	14.85
322.124	2.56
322.337	96.77
322.55	41.47
322.763	18.94
322.977	10.75
323.19	51.71
323.403	53.76
323.617	23.04
323.83	39.42
324.043	-1.54
324.256	68.09
324.469	-26.11
324.683	35.33
324.896	-28.16
325.109	-13.82
325.322	-7.68
325.535	47.62
325.748	66.05
325.962	53.76
326.175	20.99
326.388	39.42
326.601	31.23
326.814	31.23
327.027	76.29
327.24	102.91
327.453	-26.11
327.666	8.7
327.879	35.33
328.092	61.95
328.305	0.51
328.518	20.99
328.731	31.23
328.944	82.43
329.157	37.38
329.37	59.9
329.583	47.62
329.796	35.33
330.009	-34.3
330.222	-3.58
330.435	45.57
330.648	68.09
330.861	92.67
331.073	37.38
331.286	39.42
331.499	57.86
331.712	82.43
331.925	47.62
332.138	8.7
332.35	100.86
332.563	23.04
332.776	33.28
332.989	6.66
333.202	6.66
333.414	41.47
333.627	16.9
333.84	43.52
334.053	80.38
334.265	27.14
334.478	-15.87
334.691	43.52
334.903	8.7
335.116	8.7
335.329	39.42
335.541	-19.97
335.754	25.09
335.966	37.38
336.179	88.57
336.392	20.99
336.604	27.14
336.817	41.47
337.029	51.71
337.242	53.76
337.454	55.81
337.667	45.57
337.88	139.77
338.092	-5.63
338.305	6.66
338.517	4.61
338.729	51.71
338.942	59.9
339.154	10.75
339.367	37.38
339.579	29.18
339.792	18.94
340.004	27.14
340.217	-17.92
340.429	51.71
340.641	6.66
340.854	43.52
341.066	-1.54
341.278	57.86
341.491	41.47
341.703	0.51
341.915	-19.97
342.128	-24.06
342.34	53.76
342.552	-28.16
342.764	82.43
342.977	-73.21
343.189	90.62
343.401	41.47
343.613	80.38
343.826	8.7
344.038	-46.59
344.25	-44.54
344.462	-65.02
344.674	113.15
344.886	0.51
345.099	55.81
345.311	55.81
345.523	-1.54
345.735	-5.63
345.947	88.57
346.159	20.99
346.371	-42.5
346.583	74.24
346.795	84.48
347.007	-17.92
347.219	16.9
347.431	-5.63
347.643	4.61
347.855	74.24
348.067	55.81
348.279	-42.5
348.491	-1.54
348.703	47.62
348.915	27.14
349.127	8.7
349.339	-13.82
349.551	-9.73
349.763	49.66
349.975	55.81
350.187	55.81
350.399	18.94
350.61	20.99
350.822	6.66
351.034	4.61
351.246	-13.82
351.458	23.04
351.669	-1.54
351.881	12.8
352.093	20.99
352.305	145.92
352.517	76.29
352.728	47.62
352.94	86.53
353.152	20.99
353.363	6.66
353.575	29.18
353.787	80.38
353.999	76.29
354.21	53.76
354.422	70.14
354.633	2.56
354.845	27.14
355.057	-24.06
355.268	113.15
355.48	-11.78
355.692	-38.4
355.903	18.94
356.115	-13.82
356.326	-24.06
356.538	55.81
356.749	-7.68
356.961	61.95
357.172	6.66
357.384	31.23
357.595	4.61
357.807	14.85
358.018	-30.21
358.23	10.75
358.441	66.05
358.653	88.57
358.864	-11.78
359.075	-17.92
359.287	-28.16
359.498	100.86
359.709	78.33
359.921	35.33
360.132	61.95
360.344	57.86
360.555	23.04
360.766	-26.11
360.977	47.62
361.189	96.77
361.4	78.33
361.611	55.81
361.823	111.1
362.034	25.09
362.245	23.04
362.456	57.86
362.667	-38.4
362.879	23.04
363.09	0.51
363.301	39.42
363.512	80.38
363.723	6.66
363.935	61.95
364.146	43.52
364.357	55.81
364.568	47.62
364.779	6.66
364.99	49.66
365.201	-17.92
365.412	53.76
365.623	41.47
365.834	51.71
366.045	98.81
366.256	45.57
366.467	117.25
366.678	29.18
366.889	10.75
367.1	33.28
367.311	-13.82
367.522	23.04
367.733	35.33
367.944	127.49
368.155	6.66
368.366	45.57
368.577	10.75
368.788	76.29
368.999	10.75
369.209	98.81
369.42	92.67
369.631	23.04
369.842	-50.69
370.053	57.86
370.264	47.62
370.474	-24.06
370.685	-30.21
370.896	4.61
371.107	131.58
371.317	41.47
371.528	23.04
371.739	31.23
371.95	18.94
372.16	68.09
372.371	35.33
372.582	29.18
372.792	64
373.003	29.18
373.214	61.95
373.424	74.24
373.635	57.86
373.846	78.33
374.056	51.71
374.267	111.1
374.477	107.01
374.688	33.28
374.898	25.09
375.109	53.76
375.319	53.76
375.53	111.1
375.74	51.71
375.951	47.62
376.161	55.81
376.372	92.67
376.582	37.38
376.793	-3.58
377.003	43.52
377.214	-13.82
377.424	-24.06
377.635	80.38
377.845	2.56
378.055	64
378.266	66.05
378.476	4.61
378.686	39.42
378.897	66.05
379.107	45.57
379.317	29.18
379.528	25.09
379.738	29.18
379.948	10.75
380.158	12.8
380.369	8.7
380.579	53.76
380.789	16.9
380.999	72.19
381.21	37.38
381.42	-1.54
381.63	49.66
381.84	25.09
382.05	45.57
382.261	25.09
382.471	39.42
382.681	-28.16
382.891	45.57
383.101	55.81
383.311	29.18
383.521	76.29
383.731	55.81
383.941	51.71
384.151	16.9
384.361	45.57
384.571	23.04
384.781	82.43
384.991	37.38
385.201	-13.82
385.411	-13.82
385.621	-9.73
385.831	-38.4
386.041	-11.78
386.251	51.71
386.461	8.7
386.671	98.81
386.881	57.86
387.091	33.28
387.301	70.14
387.511	47.62
387.72	76.29
387.93	86.53
388.14	8.7
388.35	23.04
388.56	82.43
388.769	27.14
388.979	104.96
389.189	-24.06
389.399	-26.11
389.609	84.48
389.818	6.66
390.028	47.62
390.238	92.67
390.447	14.85
390.657	82.43
390.867	2.56
391.076	23.04
391.286	39.42
391.496	74.24
391.705	76.29
391.915	47.62
392.125	88.57
392.334	61.95
392.544	72.19
392.753	-9.73
392.963	-5.63
393.172	10.75
393.382	98.81
393.591	98.81
393.801	31.23
394.01	27.14
394.22	16.9
394.429	111.1
394.639	16.9
394.848	94.72
395.058	47.62
395.267	82.43
395.477	92.67
395.686	23.04
395.895	90.62
396.105	80.38
396.314	23.04
396.524	68.09
396.733	131.58
396.942	143.87
397.152	53.76
397.361	64
397.57	61.95
397.78	78.33
397.989	61.95
398.198	94.72
398.407	82.43
398.617	84.48
398.826	53.76
399.035	86.53
399.244	102.91
399.453	158.21
399.663	-5.63
399.872	61.95
400.081	25.09
400.29	84.48
400.499	102.91
400.708	104.96
400.917	74.24
401.127	61.95
401.336	131.58
401.545	147.97
401.754	84.48
401.963	119.29
402.172	72.19
402.381	37.38
402.59	88.57
402.799	170.49
403.008	84.48
403.217	96.77
403.426	117.25
403.635	88.57
403.844	51.71
404.053	150.01
404.262	57.86
404.471	158.21
404.68	123.39
404.888	33.28
405.097	117.25
405.306	107.01
405.515	121.34
405.724	207.36
405.933	141.82
406.142	137.73
406.35	139.77
406.559	150.01
406.768	203.26
406.977	96.77
407.185	92.67
407.394	139.77
407.603	193.02
407.812	141.82
408.02	233.98
408.229	141.82
408.438	162.3
408.646	135.68
408.855	160.25
409.064	248.32
409.272	166.4
409.481	231.93
409.69	207.36
409.898	317.95
410.107	252.41
410.315	295.42
410.524	209.4
410.733	199.16
410.941	236.03
411.15	209.4
411.358	276.99
411.567	309.76
411.775	350.71
411.984	399.87
412.192	422.39
412.401	301.56
412.609	426.49
412.818	416.25
413.026	477.69
413.234	401.91
413.443	416.25
413.651	492.02
413.86	506.36
414.068	520.7
414.276	494.07
414.485	494.07
414.693	520.7
414.901	571.9
415.11	582.14
415.318	518.65
415.526	604.66
415.734	649.72
415.943	674.29
416.151	698.87
416.359	705.01
416.567	719.35
416.776	688.63
416.984	850.42
417.192	797.17
417.4	750.07
417.608	918
417.817	883.19
418.025	948.72
418.233	901.62
418.441	1018.35
418.649	1063.41
418.857	1110.51
419.065	1051.12
419.273	1049.07
419.481	1188.33
419.689	1198.57
419.897	1217.01
420.105	1335.79
420.313	1290.73
420.521	1274.35
420.729	1397.23
420.937	1374.7
421.145	1507.82
421.353	1624.55
421.561	1616.36
421.769	1518.06
421.977	1755.62
422.185	1685.99
422.393	1880.55
422.601	1980.9
422.809	1855.97
423.017	1948.13
423.224	1946.08
423.432	2011.62
423.64	2114.02
423.848	2210.27
424.056	2165.21
424.263	2398.68
424.471	2408.92
424.679	2415.07
424.887	2539.99
425.094	2613.72
425.302	2638.3
425.51	2701.78
425.718	2865.62
425.925	3013.07
426.133	2884.05
426.341	3099.09
426.548	3273.17
426.756	3346.89
426.964	3408.33
427.171	3498.44
427.379	3557.83
427.586	3672.52
427.794	3744.2
428.001	3949
428.209	3959.24
428.417	4053.44
428.624	4360.64
428.832	4303.29
429.039	4356.54
429.247	4188.61
429.454	4741.56
429.662	5194.16
429.869	4899.25
430.076	4966.84
430.284	4878.77
430.491	5192.11
430.699	5505.45
430.906	5452.2
431.114	5591.47
431.321	5765.54
431.528	5921.19
431.736	6263.2
431.943	6551.96
432.15	6316.45
432.358	6406.56
432.565	6812.06
432.772	6713.75
432.979	7084.44
433.187	7113.11
433.394	7184.79
433.601	7696.78
433.808	7731.59
434.016	7643.53
434.223	7991.69
434.43	8554.88
434.637	8278.4
434.844	8911.22
435.052	8931.7
435.259	8808.83
435.466	8956.28
435.673	8939.9
435.88	9623.92
436.087	9920.87
436.294	10150.25
436.501	9912.68
436.708	10041.7
436.915	10682.72
437.122	10695
437.329	10819.93
437.537	11254.1
437.743	11096.41
437.95	11239.76
438.157	11823.44
438.364	12296.52
438.571	12382.53
438.778	12538.18
438.985	13336.88
439.192	13013.31
439.399	13623.6
439.606	12857.66
439.813	14018.86
440.02	14616.86
440.227	14305.57
440.433	14383.4
440.64	14725.41
440.847	14608.67
441.054	15061.27
441.261	16152.84
441.467	15905.04
441.674	16228.62
441.881	16720.13
442.088	16632.07
442.294	16683.27
442.501	16730.37
442.708	17737.97
442.914	17811.7
443.121	18882.78
443.328	18313.45
443.534	19493.08
443.741	19120.35
443.948	18794.72
444.154	20285.64
444.361	19978.45
444.568	20308.17
444.774	20277.45
444.981	20228.3
445.187	21010.62
445.394	21764.28
445.6	21719.22
445.807	23783.57
446.013	22923.43
446.22	23113.89
446.426	23728.28
446.633	24217.74
446.839	24938.63
447.046	24004.75
447.252	25407.61
447.459	25559.16
447.665	25376.89
447.871	26630.25
448.078	27742.3
448.284	26380.4
448.491	26894.44
448.697	28149.84
448.903	28344.4
449.11	28188.75
449.316	27902.04
449.522	28424.27
449.728	29337.66
449.935	29483.07
450.141	29366.34
450.347	30033.97
450.553	29065.28
450.76	29446.21
450.966	30683.18
451.172	30042.17
451.378	30631.98
451.584	30367.79
451.791	31182.88
451.997	30865.45
452.203	31047.72
452.409	31424.54
452.615	31006.76
452.821	29902.9
453.027	29651
453.233	30988.33
453.44	29861.94
453.646	30410.8
453.852	30126.13
454.058	30529.58
454.264	29810.75
454.47	30453.81
454.676	29614.14
454.882	30621.74
455.088	27666.52
455.294	28313.68
455.5	28635.21
455.705	28850.25
455.911	27621.47
456.117	27580.51
456.323	26814.57
456.529	25387.13
456.735	26796.14
456.941	25786.49
457.147	25094.27
457.352	24631.43
457.558	24141.97
457.764	24363.15
457.97	24139.92
458.176	23394.46
458.381	23124.13
458.587	22108.33
458.793	22184.11
458.999	21012.67
459.204	22325.42
459.41	21897.39
459.616	20418.76
459.821	20512.97
460.027	20279.5
460.233	19814.61
460.438	18532.58
460.644	19290.33
460.85	18104.56
461.055	17668.34
461.261	17787.12
461.466	16666.88
461.672	16023.82
461.878	17219.83
462.083	16177.42
462.289	15825.17
462.494	15667.47
462.7	14897.44
462.905	14457.12
463.111	15055.13
463.316	15223.06
463.522	14668.06
463.727	14645.54
463.932	14772.51
464.138	14618.91
464.343	14672.16
464.549	14483.75
464.754	14715.17
464.959	14455.08
465.165	14362.92
465.37	13685.04
465.575	13455.67
465.781	13951.28
465.986	14178.6
466.191	13766.96
466.397	13316.4
466.602	12790.08
466.807	12998.97
467.012	13267.25
467.218	12951.87
467.423	13001.02
467.628	13173.05
467.833	13611.31
468.038	13207.86
468.244	12685.63
468.449	13177.14
468.654	12765.5
468.859	12513.6
469.064	12646.72
469.269	12196.17
469.474	12171.59
469.679	12497.22
469.885	12058.95
470.09	12290.37
470.295	12028.23
470.5	11542.86
470.705	11854.16
470.91	11893.07
471.115	11622.73
471.32	11725.13
471.525	11506
471.73	11170.13
471.935	11399.51
472.139	11118.93
472.344	11149.65
472.549	10856.79
472.754	10723.68
472.959	10441.06
473.164	10400.1
473.369	10367.33
473.574	10668.38
473.778	10406.24
473.983	10297.7
474.188	10230.12
474.393	9685.36
474.598	10015.08
474.802	9640.3
475.007	9859.43
475.212	9771.37
475.417	9412.98
475.621	9589.1
475.826	9339.25
476.031	9326.96
476.235	8839.55
476.44	9167.22
476.645	9007.48
476.849	8841.59
477.054	8837.5
477.259	8657.28
477.463	8767.87
477.668	8479.1
477.872	8722.81
478.077	8472.96
478.282	8225.15
478.486	8360.32
478.691	8102.28
478.895	8270.21
479.1	8057.22
479.304	8122.76
479.509	7969.16
479.713	8135.04
479.918	7991.69
480.122	7582.09
480.326	7885.19
480.531	7963.01
480.735	7725.45
480.94	7604.62
481.144	7842.18
481.348	7555.47
481.553	7559.56
481.757	7502.22
481.961	7637.39
482.166	7565.71
482.37	7926.15
482.574	7432.59
482.778	7692.68
482.983	7645.58
483.187	7575.95
483.391	7770.51
483.595	7465.36
483.8	7616.91
484.004	7463.31
484.208	7799.18
484.412	7625.1
484.616	7606.67
484.821	7618.96
485.025	7397.78
485.229	7782.79
485.433	7414.16
485.637	7567.76
485.841	7528.85
486.045	7389.58
486.249	7446.93
486.453	7537.04
486.657	7676.3
486.861	7438.73
487.065	7436.69
487.269	7625.1
487.473	7344.53
487.677	7584.14
487.881	7686.54
488.085	7532.94
488.289	7500.17
488.493	7498.13
488.697	7711.11
488.901	7567.76
489.105	7555.47
489.309	7514.51
489.512	7584.14
489.716	7479.69
489.92	7608.72
490.124	7588.24
490.328	7770.51
490.531	7631.24
490.735	7737.74
490.939	7692.68
491.143	7713.16
491.346	7700.87
491.55	8030.6
491.754	7688.59
491.958	7877
492.161	7672.2
492.365	7848.33
492.569	7950.73
492.772	7817.61
492.976	7915.91
493.18	8159.62
493.383	8176
493.587	8188.29
493.79	8188.29
493.994	8249.73
494.197	8247.68
494.401	8372.61
494.605	8292.74
494.808	8380.8
495.012	8462.72
495.215	8569.21
495.419	8513.92
495.622	8636.8
495.825	8847.74
496.029	8683.9
496.232	8808.83
496.436	8870.26
496.639	9202.04
496.843	8972.66
497.046	9257.33
497.249	9310.58
497.453	9333.11
497.656	9636.2
497.859	9359.73
498.063	9542
498.266	9933.16
498.469	9816.43
498.673	9709.93
498.876	10025.32
499.079	9976.17
499.282	10191.2
499.485	10318.18
499.689	10387.81
499.892	10506.59
500.095	10406.24
500.298	10912.09
500.501	10695
500.705	11026.78
500.908	11284.82
501.111	11186.52
501.314	11184.47
501.517	11346.26
501.72	11575.63
501.923	11518.29
502.126	11759.95
502.329	11966.79
502.532	11827.53
502.735	12001.61
502.938	12167.49
503.141	12247.37
503.344	12626.24
503.547	12288.32
503.75	12874.04
503.953	12898.62
504.156	13187.38
504.359	12980.54
504.562	13138.23
504.765	13424.95
504.968	13615.41
505.17	13850.92
505.373	13797.68
505.576	14158.12
505.779	14188.84
505.982	14125.35
506.185	14422.31
506.387	14512.42
506.59	14670.11
506.793	14743.84
506.996	14838.05
507.198	15335.7
507.401	14995.74
507.604	15327.51
507.807	15677.71
508.009	15866.13
508.212	15681.81
508.415	15907.09
508.617	16261.38
508.82	16288.01
509.022	16189.7
509.225	16754.94
509.428	16953.6
509.63	17037.56
509.833	16883.97
510.035	17305.85
510.238	17221.88
510.44	17502.45
510.643	17946.86
510.845	17654
511.048	17817.84
511.25	18141.42
511.453	18145.52
511.655	18645.22
511.858	18686.18
512.06	18530.53
512.262	19032.29
512.465	18915.55
512.667	19286.23
512.87	19460.31
513.072	19302.62
513.274	19615.96
513.477	20222.16
513.679	20021.45
513.881	20308.17
514.084	20429
514.286	20332.75
514.488	20371.66
514.69	21467.32
514.893	21082.3
515.095	21366.97
515.297	21514.42
515.499	21844.15
515.701	21807.28
515.904	21856.43
516.106	22225.07
516.308	22620.33
516.51	22538.41
516.712	22683.81
516.914	22882.47
517.116	23226.53
517.318	23146.65
517.52	23191.71
517.722	23271.58
517.925	23888.02
518.127	24328.33
518.329	24350.86
518.531	23810.2
518.733	24385.68
518.935	24602.76
519.136	24856.71
519.338	24979.59
519.54	25196.67
519.742	25178.24
519.944	25200.77
520.146	25602.17
520.348	25806.97
520.55	26046.58
520.752	26122.35
520.954	26730.6
521.155	26407.02
521.357	26611.82
521.559	26683.5
521.761	27246.69
521.963	26959.97
522.164	27443.29
522.366	27367.52
522.568	27635.8
522.77	27623.51
522.971	27992.15
523.173	27797.59
523.375	28246.1
523.576	28313.68
523.778	28016.72
523.98	28874.82
524.181	28616.78
524.383	29298.75
524.584	29378.62
524.786	29431.87
524.988	29286.47
525.189	29130.82
525.391	29618.24
525.592	29415.49
525.794	29636.67
525.995	29483.07
526.197	29960.25
526.398	30175.28
526.6	30404.66
526.801	30388.27
527.003	30208.05
527.204	30322.74
527.406	31076.39
527.607	30535.73
527.808	31008.81
528.01	30443.57
528.211	30824.49
528.412	31100.97
528.614	31195.17
528.815	30920.74
529.016	31619.1
529.218	31174.69
529.419	31014.95
529.62	31182.88
529.822	31371.3
530.023	31318.05
530.224	31385.63
530.425	31160.36
530.626	31045.67
530.828	31041.57
531.029	31879.19
531.23	31651.87
531.431	31621.15
531.632	31666.2
531.833	31819.8
532.035	31604.77
532.236	31307.81
532.437	32151.57
532.638	31758.36
532.839	31709.21
533.04	32094.23
533.241	31367.2
533.442	31694.88
533.643	32065.56
533.844	31758.36
534.045	31803.42
534.246	31502.37
534.447	31950.87
534.648	31698.97
534.849	32165.91
535.05	31342.63
535.251	31883.29
535.451	31881.24
535.652	32428.05
535.853	31897.63
536.054	31991.83
536.255	31774.75
536.456	31602.72
536.657	32153.62
536.857	31817.75
537.058	31533.09
537.259	31746.08
537.46	31834.14
537.66	31674.4
537.861	31850.52
538.062	31639.58
538.263	31895.58
538.463	32014.36
538.664	31500.32
538.865	31817.75
539.065	31901.72
539.266	31242.28
539.466	32262.16
539.667	31408.16
539.868	31883.29
540.068	31707.16
540.269	31477.79
540.469	31756.32
540.67	31512.61
540.87	31531.04
541.071	31404.06
541.271	31561.76
541.472	31692.83
541.672	31361.06
541.873	31430.69
542.073	31184.93
542.274	31684.64
542.474	31258.66
542.675	31539.23
542.875	31741.98
543.075	31412.26
543.276	31252.52
543.476	31598.62
543.676	31303.71
543.877	31279.14
544.077	31526.94
544.277	31447.07
544.478	31232.04
544.678	31211.56
544.878	31008.81
545.078	31637.53
545.279	31158.31
545.479	31289.38
545.679	31193.12
545.879	31434.78
546.079	31225.89
546.28	30982.18
546.48	31086.63
546.68	31072.29
546.88	31377.44
547.08	31172.64
547.28	31191.08
547.48	30799.91
547.68	31291.43
547.88	31203.36
548.081	31078.44
548.281	31199.27
548.481	31057.96
548.681	31211.56
548.881	31113.25
549.081	31103.01
549.28	31086.63
549.48	31635.49
549.68	31035.43
549.88	31483.94
550.08	31068.2
550.28	31002.66
550.48	30818.35
550.68	31637.53
550.88	30988.33
551.08	30955.56
551.279	31033.38
551.479	30644.27
551.679	30814.25
551.879	31072.29
552.079	30945.32
552.278	30847.02
552.478	30885.93
552.678	30971.94
552.878	30865.45
553.077	30914.6
553.277	30554.16
553.477	31031.33
553.676	30521.39
553.876	30531.63
554.076	30537.77
554.275	30443.57
554.475	30285.87
554.674	30808.11
554.874	30687.28
555.074	30556.21
555.273	30666.8
555.473	30595.12
555.672	30480.43
555.872	30531.63
556.071	30521.39
556.271	30242.87
556.47	30427.18
556.67	30128.18
556.869	30253.11
557.068	30423.09
557.268	30076.98
557.467	30185.52
557.667	30406.7
557.866	30447.66
558.065	30146.61
558.265	30081.08
558.464	30246.96
558.663	30552.11
558.863	29882.42
559.062	30410.8
559.261	29861.94
559.461	30206
559.66	29837.37
559.859	29827.13
560.058	29878.33
560.258	29921.34
560.457	29825.08
560.656	29804.6
560.855	29978.68
561.054	29675.58
561.253	29085.76
561.453	29511.74
561.652	29921.34
561.851	29587.52
562.05	29499.45
562.249	29349.95
562.448	29573.18
562.647	29442.11
562.846	29241.41
563.045	29483.07
563.244	28801.1
563.443	29294.66
563.642	29098.05
563.841	29098.05
564.04	29157.44
564.239	29458.49
564.438	29112.39
564.637	29112.39
564.836	29255.75
565.035	28567.63
565.234	28543.05
565.432	28622.92
565.631	28512.33
565.83	28850.25
566.029	28262.48
566.228	28672.07
566.427	28315.73
566.625	28305.49
566.824	27877.46
567.023	28596.3
567.222	27639.9
567.42	28379.21
567.619	28149.84
567.818	28262.48
568.016	28637.26
568.215	28270.67
568.414	27965.53
568.612	28377.17
568.811	27701.34
569.01	27895.89
569.208	27535.45
569.407	28242
569.605	27152.48
569.804	27949.14
570.002	27574.36
570.201	27615.32
570.4	27394.14
570.598	27508.83
570.797	27258.98
570.995	27623.51
571.193	26761.32
571.392	27285.6
571.59	27158.63
571.789	27035.75
571.987	27310.18
572.186	27281.5
572.384	26437.74
572.582	27013.22
572.781	27183.2
572.979	26462.32
573.177	26742.89
573.376	26871.91
573.574	26622.06
573.772	26581.1
573.971	26345.58
574.169	26220.66
574.367	26132.59
574.565	26503.28
574.763	26189.94
574.962	26130.55
575.16	25964.66
575.358	26060.91
575.556	25813.11
575.754	26175.6
575.952	25692.28
576.151	25821.3
576.349	25763.96
576.547	25550.97
576.745	25796.73
576.943	25882.74
577.141	25600.12
577.339	25626.74
577.537	25311.36
577.735	25333.89
577.933	25380.99
578.131	25325.69
578.329	25419.9
578.527	24883.33
578.725	25153.66
578.923	25149.57
579.121	24907.91
579.319	24920.2
579.516	25006.21
579.714	24653.96
579.912	24846.47
580.11	24825.99
580.308	24813.7
580.506	24545.42
580.704	24369.29
580.901	24639.62
581.099	24592.52
581.297	24402.06
581.495	24404.11
581.692	24438.92
581.89	23894.16
582.088	24125.58
582.285	24230.03
582.483	24139.92
582.681	24078.48
582.878	23984.27
583.076	23703.7
583.274	24109.2
583.471	23672.98
583.669	23591.06
583.866	23564.44
584.064	23390.36
584.262	23060.64
584.459	23759
584.657	23398.55
584.854	23605.4
585.052	23040.16
585.249	23019.68
585.447	23191.71
585.644	23220.38
585.841	23015.58
586.039	23009.44
586.236	22505.64
586.434	23050.4
586.631	22857.89
586.828	22782.12
587.026	22810.79
587.223	22462.63
587.42	22440.11
587.618	22476.97
587.815	22407.34
588.012	22532.26
588.21	22343.85
588.407	22409.39
588.604	21924.02
588.801	21729.46
588.999	22110.38
589.196	21948.59
589.393	22177.97
589.59	21682.36
589.787	21870.77
589.984	21778.61
590.182	21153.98
590.379	21676.21
590.576	21440.7
590.773	21608.63
590.97	21440.7
591.167	21457.08
591.364	21067.97
591.561	21250.24
591.758	21037.25
591.955	21276.86
592.152	21393.59
592.349	20984
592.546	20885.7
592.743	20971.71
592.94	20871.36
593.137	20975.81
593.334	20869.31
593.531	20566.21
593.727	20437.19
593.924	20584.65
594.121	20607.17
594.318	20701.38
594.515	20422.86
594.712	20637.89
594.908	20406.47
595.105	20318.41
595.302	20162.76
595.499	19898.58
595.696	19880.14
595.892	19925.2
596.089	19953.87
596.286	20089.04
596.482	19818.71
596.679	19751.12
596.876	19521.75
597.072	19665.11
597.269	19458.26
597.466	19517.65
597.662	19550.42
597.859	19443.93
598.055	19224.79
598.252	19347.67
598.448	19138.78
598.645	18989.28
598.841	18839.78
599.038	19007.71
599.234	19005.66
599.431	18991.33
599.627	19028.19
599.824	18727.14
600.02	18649.32
600.217	19036.38
600.413	18718.95
600.609	18544.87
600.806	18589.92
601.002	18716.9
601.198	18628.84
601.395	18233.58
601.591	18204.91
601.787	18159.85
601.984	18297.06
602.18	18102.51
602.376	18350.31
602.572	17944.81
602.769	18163.95
602.965	17885.42
603.161	18059.5
603.357	17938.67
603.553	17694.96
603.75	18014.45
603.946	17576.18
604.142	17881.33
604.338	17510.64
604.534	17580.28
604.73	17703.15
604.926	17314.04
605.122	17299.7
605.318	17238.26
605.514	17232.12
605.71	17389.81
605.906	17426.68
606.102	17029.37
606.298	17148.15
606.494	16834.82
606.69	17473.78
606.886	17076.48
607.082	16941.31
607.278	16965.89
607.474	16840.96
607.67	16941.31
607.866	16738.56
608.062	16943.36
608.257	16859.39
608.453	16509.19
608.649	16576.77
608.845	16519.43
609.041	16462.08
609.236	16748.8
609.432	16472.32
609.628	16550.15
609.824	16378.12
610.019	16288.01
610.215	16173.32
610.411	16562.44
610.606	16181.51
610.802	16316.68
610.998	16371.97
611.193	16179.47
611.389	15989
611.584	16085.26
611.78	16052.49
611.976	16007.44
612.171	16222.47
612.367	16097.55
612.562	15792.4
612.758	15704.34
612.953	15690
613.149	16001.29
613.344	15737.1
613.539	15878.41
613.735	15919.37
613.93	15876.37
614.126	15884.56
614.321	15886.61
614.517	15630.61
614.712	15571.22
614.907	15659.28
615.103	15487.25
615.298	15622.42
615.493	15661.33
615.688	15288.6
615.884	15730.96
616.079	15419.67
616.274	15540.5
616.47	15261.98
616.665	15403.28
616.86	15264.02
617.055	15225.11
617.25	15040.79
617.445	15292.69
617.641	14825.76
617.836	15124.76
618.031	14727.46
618.226	14995.74
618.421	14954.78
618.616	15120.67
618.811	14737.7
619.006	15073.56
619.201	14485.79
619.396	14926.11
619.591	14588.19
619.786	14528.8
619.981	14268.71
620.176	14737.7
620.371	14358.82
620.566	14405.92
620.761	14168.36
620.956	14184.74
621.151	14080.3
621.346	14309.67
621.541	13889.84
621.735	14057.77
621.93	13857.07
622.125	13642.03
622.32	13674.8
622.515	13734.19
622.709	13723.95
622.904	13599.02
623.099	13480.24
623.294	13556.02
623.488	13504.82
623.683	13490.48
623.878	13183.29
624.072	13166.9
624.267	13142.33
624.462	12943.67
624.656	12790.08
624.851	12906.81
625.046	12771.65
625.24	12773.69
625.435	12802.36
625.629	12648.77
625.824	12685.63
626.018	12525.89
626.213	12333.38
626.407	12560.7
626.602	12405.06
626.796	12421.44
626.991	12171.59
627.185	11807.05
627.38	11989.32
627.574	12032.33
627.768	11786.57
627.963	11766.09
628.157	11710.8
628.352	12020.04
628.546	11604.3
628.74	11493.71
628.935	11555.15
629.129	11508.05
629.323	11313.49
629.517	11415.89
629.712	11288.92
629.906	11245.91
630.1	10957.14
630.294	11284.82
630.489	10981.72
630.683	11075.93
630.877	10838.36
631.071	10869.08
631.265	10889.56
631.459	10742.11
631.653	10545.5
631.848	10686.81
632.042	10350.95
632.236	10699.1
632.43	10201.44
632.624	10482.02
632.818	10330.47
633.012	10258.79
633.206	10428.77
633.4	10320.23
633.594	9927.02
633.788	10295.65
633.982	10027.37
634.176	9906.54
634.369	9914.73
634.563	9927.02
634.757	9865.58
634.951	9757.04
635.145	9777.51
635.339	9767.27
635.533	9726.32
635.726	9458.03
635.92	9367.92
636.114	9472.37
636.308	9423.22
636.501	9380.21
636.695	9437.55
636.889	9257.33
637.083	9216.37
637.276	9165.17
637.47	8958.33
637.664	9034.1
637.857	9023.86
638.051	8989.05
638.244	8962.42
638.438	9015.67
638.632	8927.61
638.825	8702.33
639.019	8759.67
639.212	8833.4
639.406	8753.53
639.599	8491.39
639.793	8630.65
639.986	8477.05
640.18	8452.48
640.373	8440.19
640.567	8323.46
640.76	8180.1
640.954	8456.57
641.147	8395.14
641.34	8085.89
641.534	8014.21
641.727	8329.6
641.92	8026.5
642.114	8020.36
642.307	8069.51
642.5	7840.14
642.694	7621
642.887	7727.5
643.08	7983.49
643.273	7836.04
643.467	7762.31
643.66	7790.99
643.853	7666.06
644.046	7510.41
644.239	7717.26
644.432	7532.94
644.626	7502.22
644.819	7627.15
645.012	7369.1
645.205	7485.84
645.398	7297.42
645.591	7283.09
645.784	7250.32
645.977	7168.4
646.17	7328.14
646.363	7102.87
646.556	6908.31
646.749	6982.04
646.942	7092.63
647.135	6979.99
647.328	6992.28
647.521	7025.04
647.714	6730.14
647.907	6883.73
648.099	6707.61
648.292	6791.58
648.485	6660.51
648.678	6746.52
648.871	6635.93
649.064	6670.75
649.256	6576.54
649.449	6805.91
649.642	6504.86
649.835	6453.66
650.027	6468
650.22	6363.55
650.413	6418.85
650.605	6476.19
650.798	6351.26
650.991	6060.45
651.183	6390.17
651.376	6181.28
651.568	6257.06
651.761	6072.74
651.954	6244.77
652.146	6080.93
652.339	6232.48
652.531	6113.7
652.724	5908.9
652.916	5743.02
653.109	6095.27
653.301	5956.01
653.494	5826.98
653.686	5722.54
653.879	5855.65
654.071	5783.98
654.263	5732.78
654.456	5792.17
654.648	5640.62
654.84	5599.66
655.033	5644.71
655.225	5548.46
655.417	5673.39
655.61	5507.5
655.802	5493.16
655.994	5503.4
656.186	5573.03
656.379	5331.37
656.571	5380.53
656.763	5360.05
656.955	5360.05
657.148	5247.41
657.34	5468.59
657.532	5081.52
657.724	5212.59
657.916	5249.46
658.108	5181.87
658.3	5122.48
658.492	5265.84
658.684	5048.75
658.876	5149.11
659.068	5040.56
659.26	4970.93
659.452	5013.94
659.644	4932.02
659.836	4968.88
660.028	4962.74
660.22	4852.15
660.412	5001.65
660.604	4813.24
660.796	4864.44
660.988	4942.26
661.18	4796.85
661.372	4737.46
661.563	4762.04
661.755	4692.41
661.947	4592.06
662.139	4559.29
662.331	4587.96
662.522	4633.02
662.714	4637.11
662.906	4571.58
663.097	4585.91
663.289	4422.08
663.481	4426.17
663.673	4323.77
663.864	4379.07
664.056	4297.15
664.247	4350.4
664.439	4207.04
664.631	4368.83
664.822	4438.46
665.014	4303.29
665.205	4344.25
665.397	4291.01
665.588	4213.18
665.78	4110.79
665.971	4149.7
666.163	4221.38
666.354	4178.37
666.546	4039.11
666.737	4039.11
666.929	4157.89
667.12	4002.24
667.311	4069.83
667.503	4235.71
667.694	3885.51
667.885	3854.79
668.077	4024.77
668.268	3877.32
668.459	3953.09
668.651	3932.61
668.842	3850.69
669.033	3736.01
669.224	3871.17
669.416	3783.11
669.607	3860.93
669.798	3908.04
669.989	3770.82
670.18	3867.08
670.371	3762.63
670.563	3678.66
670.754	3776.97
670.945	3680.71
671.136	3822.02
671.327	3774.92
671.518	3662.28
671.709	3713.48
671.9	3805.64
672.091	3561.93
672.282	3645.9
672.473	3676.62
672.664	3629.51
672.855	3549.64
673.046	3570.12
673.237	3506.63
673.428	3494.35
673.619	3467.72
673.809	3484.11
674	3432.91
674.191	3432.91
674.382	3369.42
674.573	3244.49
674.764	3453.39
674.954	3461.58
675.145	3400.14
675.336	3434.96
675.527	3348.94
675.717	3482.06
675.908	3207.63
676.099	3344.84
676.289	3520.97
676.48	3297.74
676.671	3334.61
676.861	3234.25
677.052	3271.12
677.243	3289.55
677.433	3150.29
677.624	3318.22
677.814	3394
678.005	3228.11
678.195	3172.82
678.386	3099.09
678.576	3305.93
678.767	3121.62
678.957	3111.38
679.148	3277.26
679.338	3172.82
679.529	3246.54
679.719	3084.75
679.909	3129.81
680.1	3111.38
680.29	3117.52
680.481	3135.95
680.671	3199.44
680.861	3158.48
681.052	3158.48
681.242	3080.66
681.432	3158.48
681.622	3242.45
681.813	3062.23
682.003	2974.16
682.193	3076.56
682.383	2910.68
682.573	2963.92
682.764	3049.94
682.954	2879.96
683.144	3090.9
683.334	2914.77
683.524	2955.73
683.714	3158.48
683.904	3006.93
684.094	2972.11
684.284	2898.39
684.474	2867.67
684.664	3002.83
684.854	2941.4
685.044	2834.9
685.234	2869.72
685.424	2912.72
685.614	2818.52
685.804	2783.7
685.994	2879.96
686.184	2851.28
686.374	2765.27
686.564	2943.44
686.753	2859.48
686.943	2654.68
687.133	2759.13
687.323	2882
687.513	2816.47
687.702	2732.5
687.892	2544.09
688.082	2789.85
688.272	2808.28
688.461	2576.86
688.651	2824.66
688.841	2656.73
689.03	2630.1
689.22	2648.54
689.41	2619.86
689.599	2703.83
689.789	2626.01
689.979	2578.9
690.168	2640.34
690.358	2578.9
690.547	2443.74
690.737	2525.66
690.926	2572.76
691.116	2419.16
691.305	2591.19
691.495	2425.31
691.684	2501.08
691.874	2599.38
692.063	2443.74
692.252	2480.6
692.442	2370.01
692.631	2361.82
692.82	2509.27
693.01	2410.97
693.199	2433.5
693.388	2329.05
693.578	2476.51
693.767	2453.98
693.956	2318.81
694.146	2314.72
694.335	2361.82
694.524	2361.82
694.713	2380.25
694.902	2304.48
695.092	2365.92
695.281	2370.01
695.47	2327
695.659	2220.51
695.848	2312.67
696.037	2245.09
696.226	2224.61
696.415	2232.8
696.604	2234.85
696.793	2279.9
696.982	2236.89
697.171	2324.96
697.36	2294.24
697.549	2183.65
697.738	2179.55
697.927	2259.42
698.116	2253.28
698.305	2212.32
698.494	2329.05
698.683	2234.85
698.872	2294.24
699.061	2114.02
699.25	2124.26
699.438	2177.5
699.627	2197.98
699.816	2177.5
700.005	2152.93
700.193	2236.89
700.382	2167.26
700.571	2210.27
700.76	2210.27
700.948	2238.94
701.137	2208.22
701.326	2146.78
701.514	2134.5
701.703	2300.38
701.892	2185.69
702.08	2284
702.269	2114.02
702.457	2109.92
702.646	2245.09
702.834	2169.31
703.023	2183.65
703.212	2306.52
703.4	2154.98
703.589	2206.17
703.777	2193.89
703.965	2191.84
704.154	2175.45
704.342	2173.41
704.531	2142.69
704.719	2204.13
704.907	2290.14
705.096	2312.67
705.284	2290.14
705.472	2179.55
705.661	2173.41
705.849	2306.52
706.037	2310.62
706.226	2212.32
706.414	2138.59
706.602	2236.89
706.79	2187.74
706.979	2234.85
707.167	2206.17
707.355	2073.06
707.543	2187.74
707.731	2171.36
707.919	2214.37
708.107	2179.55
708.296	2144.74
708.484	2142.69
708.672	2230.75
708.86	2247.13
709.048	2124.26
709.236	2191.84
709.424	2157.02
709.612	2290.14
709.8	2154.98
709.988	2175.45
710.176	2253.28
710.364	2169.31
710.551	2062.82
710.739	2177.5
710.927	2214.37
711.115	2320.86
711.303	2238.94
711.491	2208.22
711.679	2214.37
711.866	2134.5
712.054	2234.85
712.242	2329.05
712.43	2277.85
712.617	2132.45
712.805	2331.1
712.993	2314.72
713.181	2136.54
713.368	2253.28
713.556	2118.11
713.744	2261.47
713.931	2318.81
714.119	2208.22
714.306	2181.6
714.494	2163.17
714.682	2193.89
714.869	2294.24
715.057	2208.22
715.244	2271.71
715.432	2339.29
715.619	2042.34
715.807	2218.46
715.994	2171.36
716.182	2226.65
716.369	2292.19
716.556	2224.61
716.744	2224.61
716.931	2220.51
717.119	2273.76
717.306	2230.75
717.493	2175.45
717.681	2226.65
717.868	2230.75
718.055	2142.69
718.242	2300.38
718.43	2189.79
718.617	2191.84
718.804	2138.59
718.991	2335.2
719.179	2324.96
719.366	2126.3
719.553	2257.37
719.74	2286.05
719.927	2167.26
720.114	2236.89
720.301	2232.8
720.488	2200.03
720.676	2140.64
720.863	2294.24
721.05	2157.02
721.237	2185.69
721.424	2212.32
721.611	2157.02
721.798	2095.58
721.985	2210.27
722.172	2099.68
722.358	2208.22
722.545	2312.67
722.732	2109.92
722.919	2214.37
723.106	2181.6
723.293	2296.28
723.48	2165.21
723.667	2204.13
723.853	2208.22
724.04	2251.23
724.227	2152.93
724.414	2255.33
724.6	2103.78
724.787	2273.76
724.974	2230.75
725.161	2216.41
725.347	2351.58
725.534	2206.17
725.72	2265.57
725.907	2177.5
726.094	2253.28
726.28	2249.18
726.467	2210.27
726.653	2238.94
726.84	2181.6
727.027	2243.04
727.213	2240.99
727.4	2144.74
727.586	2161.12
727.773	2103.78
727.959	2146.78
728.145	2210.27
728.332	2056.67
728.518	2044.38
728.705	2134.5
728.891	2243.04
729.077	2179.55
729.264	2185.69
729.45	2073.06
729.636	2159.07
729.823	2116.06
730.009	2128.35
730.195	2114.02
730.382	2134.5
730.568	1952.23
730.754	2138.59
730.94	1956.32
731.126	2263.52
731.313	2071.01
731.499	2114.02
731.685	2101.73
731.871	2140.64
732.057	2095.58
732.243	2089.44
732.429	2052.58
732.615	2173.41
732.801	2130.4
732.987	2042.34
733.173	2095.58
733.359	2089.44
733.545	2089.44
733.731	2091.49
733.917	2083.3
734.103	2200.03
734.289	2226.65
734.475	2036.19
734.661	2073.06
734.847	2025.95
735.033	2081.25
735.219	2028
735.404	2114.02
735.59	1964.51
735.776	2066.91
735.962	2167.26
736.148	2204.13
736.333	2046.43
736.519	2058.72
736.705	2175.45
736.89	2075.1
737.076	2124.26
737.262	1962.47
737.447	2025.95
737.633	2099.68
737.819	2042.34
738.004	2032.1
738.19	2068.96
738.375	2032.1
738.561	2048.48
738.747	1997.28
738.932	2036.19
739.118	2077.15
739.303	2056.67
739.489	1997.28
739.674	2052.58
739.859	2017.76
740.045	1995.23
740.23	1941.99
740.416	1907.17
740.601	1894.88
740.786	1946.08
740.972	1937.89
741.157	1835.49
741.342	1956.32
741.528	1939.94
741.713	1948.13
741.898	1915.36
742.084	1886.69
742.269	1925.6
742.454	1796.58
742.639	1849.83
742.824	1860.07
743.01	1915.36
743.195	1880.55
743.38	1790.44
743.565	1839.59
743.75	1862.12
743.935	1665.51
744.12	1677.8
744.305	1800.68
744.49	1827.3
744.675	1829.35
744.86	1688.04
745.045	1712.61
745.23	1794.53
745.415	1806.82
745.6	1819.11
745.785	1675.75
745.97	1665.51
746.155	1747.43
746.34	1690.09
746.525	1663.46
746.71	1685.99
746.895	1595.88
747.079	1642.98
747.264	1616.36
747.449	1655.27
747.634	1679.85
747.819	1638.89
748.003	1612.26
748.188	1454.57
748.373	1552.87
748.557	1559.02
748.742	1591.78
748.927	1511.91
749.111	1575.4
749.296	1513.96
749.481	1614.31
749.665	1495.53
749.85	1429.99
750.034	1417.71
750.219	1493.48
750.404	1317.36
750.588	1448.43
750.773	1446.38
750.957	1483.24
751.141	1409.51
751.326	1403.37
751.51	1454.57
751.695	1409.51
751.879	1290.73
752.064	1429.99
752.248	1395.18
752.432	1358.32
752.617	1503.72
752.801	1386.99
752.985	1321.45
753.17	1346.03
753.354	1391.08
753.538	1272.3
753.722	1255.92
753.907	1212.91
754.091	1231.34
754.275	1272.3
754.459	1286.64
754.643	1237.49
754.828	1292.78
755.012	1165.81
755.196	1124.85
755.38	1257.96
755.564	1237.49
755.748	1233.39
755.932	1290.73
756.116	1130.99
756.3	1251.82
756.484	1128.94
756.668	1133.04
756.852	1120.75
757.036	1180.14
757.22	1190.38
757.404	1137.13
757.588	1143.28
757.772	1221.1
757.956	1124.85
758.14	1200.62
758.323	1028.59
758.507	1100.27
758.691	1018.35
758.875	1128.94
759.059	1040.88
759.242	1071.6
759.426	995.82
759.61	1069.55
759.794	987.63
759.977	993.78
760.161	1057.26
760.345	1028.59
760.528	1018.35
760.712	969.2
760.895	975.35
761.079	1047.02
761.263	1024.5
761.446	1004.02
761.63	1040.88
761.813	987.63
761.997	950.77
762.18	956.91
762.364	913.91
762.547	877.04
762.731	893.43
762.914	965.11
763.098	930.29
763.281	852.47
763.464	905.71
763.648	948.72
763.831	1032.69
764.015	899.57
764.198	995.82
764.381	862.71
764.564	879.09
764.748	952.82
764.931	981.49
765.114	940.53
765.297	858.61
765.481	883.19
765.664	860.66
765.847	909.81
766.03	780.79
766.213	834.04
766.397	731.64
766.58	850.42
766.763	801.27
766.946	922.1
767.129	815.6
767.312	874.99
767.495	838.13
767.678	811.51
767.861	846.32
768.044	799.22
768.227	752.12
768.41	813.56
768.593	864.75
768.776	821.75
768.959	797.17
769.142	758.26
769.324	750.07
769.507	774.64
769.69	866.8
769.873	748.02
770.056	858.61
770.239	743.92
770.421	805.36
770.604	848.37
770.787	844.28
770.97	672.25
771.152	682.49
771.335	731.64
771.518	717.3
771.7	727.54
771.883	891.38
772.066	676.34
772.248	752.12
772.431	795.12
772.613	723.44
772.796	696.82
772.978	737.78
773.161	743.92
773.343	682.49
773.526	666.1
773.708	659.96
773.891	625.14
774.073	657.91
774.256	647.67
774.438	688.63
774.621	602.61
774.803	713.21
774.985	621.05
775.168	659.96
775.35	731.64
775.532	715.25
775.715	664.05
775.897	748.02
776.079	518.65
776.261	649.72
776.444	686.58
776.626	643.57
776.808	627.19
776.99	604.66
777.173	612.85
777.355	500.22
777.537	573.94
777.719	580.09
777.901	567.8
778.083	578.04
778.265	535.03
778.447	559.61
778.629	627.19
778.811	569.85
778.993	512.5
779.175	555.51
779.357	500.22
779.539	492.02
779.721	520.7
779.903	541.18
780.085	444.92
780.267	506.36
780.449	514.55
780.631	477.69
780.812	563.7
780.994	489.98
781.176	440.83
781.358	479.74
781.54	444.92
781.721	580.09
781.903	487.93
782.085	420.35
782.267	504.31
782.448	467.45
782.63	487.93
782.812	553.46
782.993	473.59
783.175	442.87
783.357	465.4
783.538	418.3
783.72	426.49
783.901	408.06
784.083	389.63
784.264	428.54
784.446	496.12
784.627	442.87
784.809	455.16
784.99	432.63
785.172	301.56
785.353	442.87
785.535	399.87
785.716	444.92
785.897	467.45
786.079	358.91
786.26	375.29
786.441	451.07
786.623	330.23
786.804	356.86
786.985	397.82
787.167	410.11
787.348	350.71
787.529	336.38
787.71	272.89
787.891	483.83
788.073	395.77
788.254	289.28
788.435	385.53
788.616	340.47
788.797	395.77
788.978	348.67
789.159	332.28
789.34	375.29
789.522	324.09
789.703	336.38
789.884	387.58
790.065	365.05
790.246	332.28
790.427	375.29
790.607	276.99
790.788	393.72
790.969	264.7
791.15	338.43
791.331	299.52
791.512	250.36
791.693	383.48
791.874	260.6
792.054	289.28
792.235	313.85
792.416	317.95
792.597	283.13
792.778	360.95
792.958	334.33
793.139	385.53
793.32	229.88
793.5	213.5
793.681	299.52
793.862	260.6
794.042	268.8
794.223	248.32
794.404	326.14
794.584	272.89
794.765	244.22
794.945	264.7
795.126	328.19
795.306	307.71
795.487	276.99
795.667	268.8
795.848	254.46
796.028	262.65
796.209	266.75
796.389	268.8
796.57	266.75
796.75	268.8
796.93	262.65
797.111	279.04
797.291	244.22
797.471	268.8
797.652	289.28
797.832	111.1
798.012	211.45
798.192	270.84
798.373	182.78
798.553	252.41
798.733	219.64
798.913	180.73
799.093	190.97
799.274	244.22
799.454	281.08
799.634	152.06
799.814	270.84
799.994	178.69
800.174	248.32
800.354	256.51
800.534	188.93
800.714	195.07
800.894	307.71
801.074	193.02
801.254	279.04
801.434	238.08
801.614	248.32
801.794	141.82
801.974	625.14
802.154	262.65
802.334	123.39
802.514	156.16
802.693	215.55
802.873	217.6
803.053	203.26
803.233	113.15
803.413	219.64
803.592	223.74
803.772	133.63
803.952	125.44
804.131	215.55
804.311	203.26
804.491	256.51
804.67	152.06
804.85	147.97
805.03	162.3
805.209	225.79
805.389	252.41
805.568	195.07
805.748	160.25
805.928	262.65
806.107	197.12
806.287	162.3
806.466	94.72
806.646	150.01
806.825	160.25
807.004	195.07
807.184	213.5
807.363	223.74
807.543	176.64
807.722	238.08
807.901	150.01
808.081	203.26
808.26	137.73
808.439	164.35
808.619	203.26
808.798	137.73
808.977	127.49
809.156	121.34
809.336	84.48
809.515	231.93
809.694	129.53
809.873	180.73
810.052	154.11
810.231	246.27
810.411	137.73
810.59	100.86
810.769	203.26
810.948	178.69
811.127	117.25
811.306	154.11
811.485	172.54
811.664	201.21
811.843	61.95
812.022	176.64
812.201	180.73
812.38	121.34
812.559	76.29
812.737	98.81
812.916	160.25
813.095	160.25
813.274	98.81
813.453	178.69
813.632	137.73
813.811	121.34
813.989	88.57
814.168	176.64
814.347	70.14
814.526	162.3
814.704	61.95
814.883	150.01
815.062	139.77
815.24	184.83
815.419	147.97
815.598	113.15
815.776	119.29
815.955	131.58
816.133	102.91
816.312	170.49
816.49	68.09
816.669	12.8
816.847	59.9
817.026	109.05
817.204	125.44
817.383	150.01
817.561	88.57
817.74	90.62
817.918	164.35
818.097	143.87
818.275	43.52
818.453	125.44
818.632	68.09
818.81	125.44
818.988	158.21
819.167	109.05
819.345	152.06
819.523	78.33
819.701	80.38
819.879	104.96
820.058	141.82
820.236	86.53
820.414	115.2
820.592	76.29
820.77	170.49
820.948	107.01
821.127	107.01
821.305	64
821.483	25.09
821.661	135.68
821.839	68.09
822.017	199.16
822.195	49.66
822.373	123.39
822.551	184.83
822.729	98.81
822.907	84.48
823.085	166.4
823.262	133.63
823.44	109.05
823.618	61.95
823.796	94.72
823.974	147.97
824.152	39.42
824.329	66.05
824.507	115.2
824.685	80.38
824.863	158.21
825.04	92.67
825.218	53.76
825.396	117.25
825.574	88.57
825.751	129.53
825.929	33.28
826.107	4.61
826.284	64
826.462	166.4
826.639	31.23
826.817	70.14
826.994	143.87
827.172	61.95
827.349	121.34
827.527	74.24
827.704	115.2
827.882	53.76
828.059	-1.54
828.237	109.05
828.414	164.35
828.591	55.81
828.769	64
828.946	25.09
829.124	102.91
829.301	90.62
829.478	35.33
829.655	123.39
829.833	4.61
830.01	-56.83
830.187	88.57
830.364	82.43
830.542	86.53
830.719	59.9
830.896	96.77
831.073	121.34
831.25	94.72
831.427	96.77
831.604	72.19
831.782	49.66
831.959	23.04
832.136	18.94
832.313	35.33
832.49	33.28
832.667	119.29
832.844	23.04
833.021	125.44
833.198	78.33
833.374	88.57
833.551	41.47
833.728	8.7
833.905	139.77
834.082	72.19
834.259	86.53
834.436	57.86
834.612	-58.88
834.789	129.53
834.966	82.43
835.143	33.28
835.319	-7.68
835.496	137.73
835.673	72.19
835.85	76.29
836.026	14.85
836.203	55.81
836.38	100.86
836.556	96.77
836.733	31.23
836.909	113.15
837.086	78.33
837.262	-11.78
837.439	37.38
837.616	57.86
837.792	61.95
837.968	158.21
838.145	43.52
838.321	45.57
838.498	-19.97
838.674	117.25
838.851	133.63
839.027	80.38
839.203	84.48
839.38	49.66
839.556	102.91
839.732	88.57
839.909	68.09
840.085	41.47
840.261	68.09
840.437	-7.68
840.614	55.81
840.79	117.25
840.966	102.91
841.142	-28.16
841.318	61.95
841.494	129.53
841.671	31.23
841.847	59.9
842.023	14.85
842.199	78.33
842.375	-50.69
842.551	33.28
842.727	2.56
842.903	147.97
843.079	12.8
843.255	72.19
843.431	8.7
843.607	78.33
843.783	41.47
843.959	43.52
844.134	72.19
844.31	76.29
844.486	4.61
844.662	25.09
844.838	8.7
845.013	41.47
845.189	10.75
845.365	78.33
845.541	4.61
845.716	78.33
845.892	-5.63
846.068	25.09
846.244	29.18
846.419	-24.06
846.595	4.61
846.77	27.14
846.946	59.9
847.122	12.8
847.297	18.94
847.473	78.33
847.648	70.14
847.824	12.8
847.999	-13.82
848.175	113.15
848.35	16.9
848.526	78.33
848.701	70.14
848.876	86.53
849.052	31.23
849.227	35.33
849.403	31.23
849.578	29.18
849.753	47.62
849.929	64
850.104	6.66
850.279	41.47
850.454	64
850.63	74.24
850.805	55.81
850.98	31.23
851.155	31.23
851.33	80.38
851.505	0.51
851.681	53.76
851.856	18.94
852.031	4.61
852.206	25.09
852.381	59.9
852.556	2.56
852.731	35.33
852.906	25.09
853.081	27.14
853.256	53.76
853.431	39.42
853.606	-48.64
853.781	23.04
853.956	-42.5
854.131	94.72
854.305	-58.88
854.48	0.51
854.655	-34.3
854.83	78.33
855.005	-13.82
855.18	-11.78
855.354	4.61
855.529	12.8
855.704	-22.02
855.879	86.53
856.053	2.56
856.228	109.05
856.403	-17.92
856.577	43.52
856.752	10.75
856.926	61.95
857.101	10.75
857.276	25.09
857.45	104.96
857.625	72.19
857.799	53.76
857.974	29.18
858.148	18.94
858.323	100.86
858.497	6.66
858.672	61.95
858.846	-81.41
859.02	96.77
859.195	90.62
859.369	-40.45
859.543	47.62
859.718	12.8
859.892	59.9
860.066	6.66
860.241	16.9
860.415	-32.26
860.589	10.75
860.763	-7.68
860.938	-42.5
861.112	86.53
861.286	6.66
861.46	47.62
861.634	61.95
861.808	47.62
861.982	-5.63
862.157	47.62
862.331	45.57
862.505	37.38
862.679	-7.68
862.853	18.94
863.027	4.61
863.201	61.95
863.375	-26.11
863.549	39.42
863.722	25.09
863.896	39.42
864.07	23.04
864.244	39.42
864.418	-56.83
864.592	76.29
864.766	-73.21
864.939	49.66
865.113	14.85
865.287	27.14
865.461	14.85
865.634	-36.35
865.808	68.09
865.982	20.99
866.156	-13.82
866.329	-26.11
866.503	-26.11
866.676	41.47
866.85	6.66
867.024	86.53
867.197	8.7
867.371	96.77
867.544	98.81
867.718	-5.63
867.891	51.71
868.065	-44.54
868.238	10.75
868.412	37.38
868.585	-7.68
868.759	-38.4
868.932	-30.21
869.105	23.04
869.279	-17.92
869.452	55.81
869.625	-34.3
869.799	2.56
869.972	-17.92
870.145	6.66
870.319	-1.54
870.492	57.86
870.665	6.66
870.838	-1.54
871.011	-28.16
871.185	18.94
871.358	20.99
871.531	-17.92
871.704	-9.73
871.877	16.9
872.05	8.7
872.223	-50.69
872.396	-28.16
872.569	23.04
872.742	37.38
872.915	12.8
873.088	90.62
873.261	-13.82
873.434	92.67
873.607	-42.5
873.78	-19.97
873.953	-32.26
874.126	43.52
874.299	25.09
874.471	31.23
874.644	29.18
874.817	-1.54
874.99	55.81
875.163	-15.87
875.335	-13.82
875.508	8.7
875.681	39.42
875.853	-42.5
876.026	53.76
876.199	-22.02
876.371	45.57
876.544	18.94
876.717	0.51
876.889	25.09
877.062	16.9
877.234	0.51
877.407	-58.88
877.579	66.05
877.752	-46.59
877.924	57.86
878.097	-1.54
878.269	4.61
878.442	55.81
878.614	74.24
878.786	-26.11
878.959	-26.11
879.131	35.33
879.303	20.99
879.476	0.51
879.648	8.7
879.82	-3.58
879.993	10.75
880.165	-22.02
880.337	-1.54
880.509	-1.54
880.681	-34.3
880.854	-3.58
881.026	6.66
881.198	-50.69
881.37	35.33
881.542	10.75
881.714	-13.82
881.886	-13.82
882.058	-28.16
882.23	74.24
882.402	35.33
882.574	41.47
882.746	-26.11
882.918	2.56
883.09	45.57
883.262	-38.4
883.434	41.47
883.606	-26.11
883.778	-42.5
883.95	100.86
884.122	0.51
884.293	12.8
884.465	76.29
884.637	47.62
884.809	68.09
884.98	-9.73
885.152	2.56
885.324	-15.87
885.496	-19.97
885.667	10.75
885.839	-24.06
886.011	66.05
886.182	-1.54
886.354	39.42
886.525	64
886.697	20.99
886.869	-36.35
887.04	-52.74
887.212	25.09
887.383	94.72
887.555	4.61
887.726	-44.54
887.897	-69.12
888.069	-54.78
888.24	47.62
888.412	29.18
888.583	-46.59
888.754	35.33
888.926	6.66
889.097	-48.64
889.268	-9.73
889.44	25.09
889.611	-36.35
889.782	31.23
889.953	4.61
890.125	27.14
890.296	-58.88
890.467	39.42
890.638	31.23
890.809	6.66
890.98	-30.21
891.151	39.42
891.323	41.47
891.494	-32.26
891.665	-71.17
891.836	66.05
892.007	-7.68
892.178	70.14
892.349	25.09
892.52	2.56
892.691	-30.21
892.862	-15.87
893.032	-5.63
893.203	-48.64
893.374	-19.97
893.545	39.42
893.716	-13.82
893.887	29.18
894.057	-3.58
894.228	-13.82
894.399	6.66
894.57	43.52
894.74	23.04
894.911	-9.73
895.082	-13.82
895.253	53.76
895.423	43.52
895.594	6.66
895.764	-7.68
895.935	-24.06
896.106	-17.92
896.276	16.9
896.447	59.9
896.617	-77.31
896.788	-56.83
896.958	-24.06
897.129	-40.45
897.299	6.66
897.47	41.47
897.64	-13.82
897.81	8.7
897.981	-22.02
898.151	-17.92
898.322	70.14
898.492	-52.74
898.662	51.71
898.832	-28.16
899.003	39.42
899.173	53.76
899.343	18.94
899.513	4.61
