Data from USB4F104151__28__12-00-38-073.txt Node

Date: Fri Mar 14 12:00:38 EDT 2025
User: louis
Spectrometer: USB4F10415
Trigger mode: 4
Integration Time (sec): 2.000000E-2
Scans to average: 1
Electric dark correction enabled: true
Nonlinearity correction enabled: false
Boxcar width: 0
XAxis mode: Wavelengths
Number of Pixels in Spectrum: 3648
>>>>>Begin Spectral Data<<<<<
178.204	-89.94
178.424	-89.94
178.644	-89.94
178.864	-89.94
179.084	-1.88
179.304	-61.27
179.524	26.79
179.744	28.84
179.964	34.99
180.184	-18.26
180.404	63.66
180.624	-1.88
180.844	59.56
181.064	-20.31
181.283	-10.07
181.503	-38.74
181.723	-63.32
181.943	-14.17
182.163	26.79
182.383	30.89
182.602	129.19
182.822	-3.93
183.042	84.14
183.262	-1.88
183.482	47.27
183.701	18.6
183.921	-10.07
184.141	47.27
184.361	55.47
184.58	-40.79
184.8	26.79
185.02	98.47
185.239	10.41
185.459	116.9
185.679	14.51
185.898	30.89
186.118	41.13
186.338	98.47
186.557	80.04
186.777	-34.64
186.997	28.84
187.216	14.51
187.436	47.27
187.655	67.75
187.875	80.04
188.095	-22.36
188.314	47.27
188.534	26.79
188.753	10.41
188.973	28.84
189.192	65.71
189.412	-18.26
189.631	37.03
189.851	8.36
190.07	67.75
190.29	22.7
190.509	-20.31
190.729	28.84
190.948	51.37
191.168	63.66
191.387	106.67
191.607	-46.93
191.826	43.18
192.045	0.17
192.265	39.08
192.484	-1.88
192.704	69.8
192.923	32.94
193.142	39.08
193.362	-10.07
193.581	-32.6
193.8	53.42
194.02	69.8
194.239	37.03
194.458	28.84
194.678	-1.88
194.897	28.84
195.116	104.62
195.335	67.75
195.555	65.71
195.774	41.13
195.993	75.95
196.212	24.75
196.432	55.47
196.651	10.41
196.87	-1.88
197.089	82.09
197.308	75.95
197.528	22.7
197.747	-16.21
197.966	26.79
198.185	96.43
198.404	22.7
198.623	16.55
198.842	14.51
199.062	49.32
199.281	53.42
199.5	-8.02
199.719	53.42
199.938	59.56
200.157	37.03
200.376	-81.75
200.595	71.85
200.814	32.94
201.033	0.17
201.252	73.9
201.471	-8.02
201.69	8.36
201.909	-22.36
202.128	4.27
202.347	-5.97
202.566	18.6
202.785	18.6
203.004	16.55
203.223	112.81
203.442	-26.45
203.661	-16.21
203.879	-22.36
204.098	57.51
204.317	26.79
204.536	37.03
204.755	47.27
204.974	112.81
205.193	6.31
205.411	18.6
205.63	84.14
205.849	22.7
206.068	-12.12
206.287	37.03
206.505	100.52
206.724	16.55
206.943	-10.07
207.162	6.31
207.381	-34.64
207.599	77.99
207.818	-12.12
208.037	49.32
208.255	18.6
208.474	-30.55
208.693	43.18
208.911	22.7
209.13	112.81
209.349	57.51
209.567	71.85
209.786	49.32
210.005	39.08
210.223	2.22
210.442	8.36
210.661	-5.97
210.879	18.6
211.098	16.55
211.316	41.13
211.535	49.32
211.753	20.65
211.972	37.03
212.191	-24.4
212.409	98.47
212.628	-1.88
212.846	6.31
213.065	104.62
213.283	90.28
213.502	88.23
213.72	73.9
213.938	39.08
214.157	20.65
214.375	90.28
214.594	47.27
214.812	73.9
215.031	41.13
215.249	121
215.467	26.79
215.686	61.61
215.904	32.94
216.122	22.7
216.341	16.55
216.559	86.19
216.778	59.56
216.996	34.99
217.214	6.31
217.432	-22.36
217.651	-71.51
217.869	26.79
218.087	6.31
218.306	43.18
218.524	-14.17
218.742	2.22
218.96	18.6
219.179	-91.99
219.397	-34.64
219.615	67.75
219.833	55.47
220.051	22.7
220.27	63.66
220.488	39.08
220.706	0.17
220.924	98.47
221.142	10.41
221.36	73.9
221.578	2.22
221.796	-36.69
222.015	-30.55
222.233	57.51
222.451	8.36
222.669	-53.08
222.887	96.43
223.105	-1.88
223.323	-32.6
223.541	14.51
223.759	-18.26
223.977	41.13
224.195	28.84
224.413	41.13
224.631	61.61
224.849	22.7
225.067	34.99
225.285	-12.12
225.503	49.32
225.721	77.99
225.939	41.13
226.157	28.84
226.375	123.05
226.592	30.89
226.81	32.94
227.028	77.99
227.246	65.71
227.464	26.79
227.682	65.71
227.9	43.18
228.117	51.37
228.335	20.65
228.553	32.94
228.771	-20.31
228.989	71.85
229.206	-8.02
229.424	-10.07
229.642	-20.31
229.86	14.51
230.077	18.6
230.295	73.9
230.513	8.36
230.731	59.56
230.948	49.32
231.166	59.56
231.384	6.31
231.601	-22.36
231.819	125.1
232.037	55.47
232.254	-30.55
232.472	61.61
232.689	-24.4
232.907	37.03
233.125	34.99
233.342	-1.88
233.56	10.41
233.777	77.99
233.995	71.85
234.213	73.9
234.43	92.33
234.648	67.75
234.865	2.22
235.083	110.76
235.3	61.61
235.518	55.47
235.735	98.47
235.953	96.43
236.17	55.47
236.388	-24.4
236.605	-12.12
236.822	53.42
237.04	10.41
237.257	47.27
237.475	-12.12
237.692	30.89
237.909	10.41
238.127	39.08
238.344	18.6
238.562	47.27
238.779	8.36
238.996	45.23
239.214	43.18
239.431	34.99
239.648	14.51
239.865	53.42
240.083	88.23
240.3	51.37
240.517	49.32
240.735	26.79
240.952	67.75
241.169	30.89
241.386	26.79
241.603	88.23
241.821	53.42
242.038	73.9
242.255	53.42
242.472	118.95
242.689	84.14
242.907	34.99
243.124	-10.07
243.341	-44.88
243.558	65.71
243.775	20.65
243.992	12.46
244.209	30.89
244.426	8.36
244.643	59.56
244.86	63.66
245.078	47.27
245.295	2.22
245.512	14.51
245.729	39.08
245.946	10.41
246.163	26.79
246.38	-26.45
246.597	-8.02
246.814	18.6
247.031	28.84
247.248	110.76
247.464	55.47
247.681	59.56
247.898	18.6
248.115	39.08
248.332	26.79
248.549	49.32
248.766	92.33
248.983	53.42
249.2	22.7
249.417	73.9
249.633	-14.17
249.85	49.32
250.067	4.27
250.284	57.51
250.501	49.32
250.717	57.51
250.934	14.51
251.151	51.37
251.368	41.13
251.585	59.56
251.801	32.94
252.018	10.41
252.235	41.13
252.451	47.27
252.668	47.27
252.885	106.67
253.102	80.04
253.318	49.32
253.535	73.9
253.752	-32.6
253.968	24.75
254.185	55.47
254.401	53.42
254.618	67.75
254.835	84.14
255.051	75.95
255.268	53.42
255.484	67.75
255.701	34.99
255.917	57.51
256.134	34.99
256.351	30.89
256.567	22.7
256.784	34.99
257	49.32
257.217	39.08
257.433	86.19
257.65	110.76
257.866	106.67
258.082	71.85
258.299	8.36
258.515	80.04
258.732	6.31
258.948	59.56
259.165	39.08
259.381	-14.17
259.597	49.32
259.814	-18.26
260.03	4.27
260.246	41.13
260.463	45.23
260.679	86.19
260.895	24.75
261.112	43.18
261.328	-28.5
261.544	20.65
261.761	69.8
261.977	-10.07
262.193	-26.45
262.409	88.23
262.626	63.66
262.842	47.27
263.058	24.75
263.274	69.8
263.49	47.27
263.707	20.65
263.923	47.27
264.139	47.27
264.355	53.42
264.571	108.71
264.787	75.95
265.004	37.03
265.22	-32.6
265.436	14.51
265.652	-28.5
265.868	16.55
266.084	-8.02
266.3	59.56
266.516	20.65
266.732	39.08
266.948	-16.21
267.164	30.89
267.38	8.36
267.596	98.47
267.812	39.08
268.028	-5.97
268.244	14.51
268.46	26.79
268.676	82.09
268.892	-18.26
269.108	55.47
269.324	16.55
269.54	-3.93
269.756	43.18
269.972	39.08
270.188	-34.64
270.403	53.42
270.619	10.41
270.835	67.75
271.051	61.61
271.267	41.13
271.483	71.85
271.698	4.27
271.914	-34.64
272.13	53.42
272.346	69.8
272.562	39.08
272.777	65.71
272.993	2.22
273.209	-18.26
273.425	30.89
273.64	39.08
273.856	-20.31
274.072	84.14
274.287	-5.97
274.503	20.65
274.719	41.13
274.934	10.41
275.15	6.31
275.366	41.13
275.581	12.46
275.797	10.41
276.012	-1.88
276.228	26.79
276.444	26.79
276.659	37.03
276.875	24.75
277.09	30.89
277.306	49.32
277.521	98.47
277.737	32.94
277.952	-3.93
278.168	-8.02
278.383	10.41
278.599	37.03
278.814	71.85
279.03	37.03
279.245	61.61
279.461	47.27
279.676	65.71
279.892	96.43
280.107	24.75
280.322	-8.02
280.538	86.19
280.753	22.7
280.969	104.62
281.184	-8.02
281.399	57.51
281.615	4.27
281.83	57.51
282.045	22.7
282.26	-5.97
282.476	14.51
282.691	80.04
282.906	65.71
283.122	26.79
283.337	24.75
283.552	34.99
283.767	75.95
283.983	28.84
284.198	14.51
284.413	90.28
284.628	43.18
284.843	-14.17
285.058	84.14
285.274	28.84
285.489	14.51
285.704	90.28
285.919	-48.98
286.134	34.99
286.349	6.31
286.564	55.47
286.779	82.09
286.995	65.71
287.21	59.56
287.425	22.7
287.64	20.65
287.855	37.03
288.07	82.09
288.285	4.27
288.5	-20.31
288.715	-46.93
288.93	39.08
289.145	16.55
289.36	61.61
289.575	100.52
289.79	26.79
290.004	-14.17
290.219	18.6
290.434	49.32
290.649	47.27
290.864	43.18
291.079	8.36
291.294	-18.26
291.509	73.9
291.724	-44.88
291.938	108.71
292.153	86.19
292.368	47.27
292.583	94.38
292.798	18.6
293.012	39.08
293.227	45.23
293.442	112.81
293.657	118.95
293.871	71.85
294.086	26.79
294.301	49.32
294.516	37.03
294.73	90.28
294.945	-5.97
295.16	75.95
295.374	32.94
295.589	34.99
295.804	14.51
296.018	20.65
296.233	125.1
296.447	-10.07
296.662	55.47
296.877	104.62
297.091	14.51
297.306	63.66
297.52	45.23
297.735	20.65
297.949	102.57
298.164	82.09
298.378	14.51
298.593	45.23
298.807	-32.6
299.022	84.14
299.236	39.08
299.451	-14.17
299.665	12.46
299.88	41.13
300.094	55.47
300.309	51.37
300.523	53.42
300.737	73.9
300.952	43.18
301.166	88.23
301.381	20.65
301.595	49.32
301.809	-10.07
302.024	18.6
302.238	114.86
302.452	104.62
302.667	26.79
302.881	45.23
303.095	34.99
303.309	24.75
303.524	30.89
303.738	30.89
303.952	10.41
304.166	-36.69
304.381	-8.02
304.595	108.71
304.809	20.65
305.023	86.19
305.237	8.36
305.452	32.94
305.666	51.37
305.88	-18.26
306.094	102.57
306.308	104.62
306.522	41.13
306.736	28.84
306.95	67.75
307.164	-14.17
307.379	30.89
307.593	14.51
307.807	41.13
308.021	61.61
308.235	-69.46
308.449	-8.02
308.663	34.99
308.877	41.13
309.091	22.7
309.305	98.47
309.519	18.6
309.733	86.19
309.947	-26.45
310.161	57.51
310.374	67.75
310.588	49.32
310.802	-3.93
311.016	-5.97
311.23	100.52
311.444	-12.12
311.658	43.18
311.872	98.47
312.085	63.66
312.299	67.75
312.513	47.27
312.727	61.61
312.941	4.27
313.154	65.71
313.368	26.79
313.582	67.75
313.796	114.86
314.009	65.71
314.223	43.18
314.437	104.62
314.651	53.42
314.864	30.89
315.078	61.61
315.292	88.23
315.505	-24.4
315.719	90.28
315.933	43.18
316.146	127.14
316.36	20.65
316.573	24.75
316.787	86.19
317.001	47.27
317.214	53.42
317.428	49.32
317.641	-12.12
317.855	4.27
318.068	-5.97
318.282	2.22
318.495	16.55
318.709	41.13
318.922	-1.88
319.136	82.09
319.349	22.7
319.563	37.03
319.776	59.56
319.99	16.55
320.203	121
320.417	6.31
320.63	59.56
320.843	133.29
321.057	22.7
321.27	55.47
321.483	4.27
321.697	82.09
321.91	80.04
322.124	34.99
322.337	4.27
322.55	-5.97
322.763	2.22
322.977	37.03
323.19	49.32
323.403	37.03
323.617	30.89
323.83	82.09
324.043	37.03
324.256	55.47
324.469	75.95
324.683	57.51
324.896	-28.5
325.109	34.99
325.322	47.27
325.535	61.61
325.748	20.65
325.962	4.27
326.175	65.71
326.388	149.67
326.601	8.36
326.814	57.51
327.027	45.23
327.24	137.38
327.453	26.79
327.666	104.62
327.879	-3.93
328.092	47.27
328.305	10.41
328.518	37.03
328.731	65.71
328.944	47.27
329.157	57.51
329.37	104.62
329.583	86.19
329.796	61.61
330.009	55.47
330.222	71.85
330.435	34.99
330.648	59.56
330.861	77.99
331.073	28.84
331.286	114.86
331.499	73.9
331.712	37.03
331.925	135.34
332.138	61.61
332.35	82.09
332.563	53.42
332.776	88.23
332.989	14.51
333.202	67.75
333.414	90.28
333.627	137.38
333.84	71.85
334.053	47.27
334.265	-1.88
334.478	106.67
334.691	108.71
334.903	69.8
335.116	30.89
335.329	51.37
335.541	63.66
335.754	114.86
335.966	100.52
336.179	75.95
336.392	110.76
336.604	73.9
336.817	102.57
337.029	61.61
337.242	92.33
337.454	30.89
337.667	164.01
337.88	123.05
338.092	18.6
338.305	-24.4
338.517	43.18
338.729	-3.93
338.942	73.9
339.154	65.71
339.367	6.31
339.579	137.38
339.792	2.22
340.004	47.27
340.217	32.94
340.429	92.33
340.641	-18.26
340.854	92.33
341.066	59.56
341.278	57.51
341.491	129.19
341.703	57.51
341.915	26.79
342.128	102.57
342.34	-53.08
342.552	30.89
342.764	-16.21
342.977	-22.36
343.189	24.75
343.401	133.29
343.613	24.75
343.826	47.27
344.038	-26.45
344.25	49.32
344.462	6.31
344.674	59.56
344.886	77.99
345.099	55.47
345.311	131.24
345.523	41.13
345.735	-40.79
345.947	55.47
346.159	47.27
346.371	92.33
346.583	67.75
346.795	43.18
347.007	133.29
347.219	80.04
347.431	28.84
347.643	47.27
347.855	20.65
348.067	88.23
348.279	12.46
348.491	82.09
348.703	14.51
348.915	41.13
349.127	-40.79
349.339	108.71
349.551	-12.12
349.763	149.67
349.975	30.89
350.187	71.85
350.399	114.86
350.61	30.89
350.822	10.41
351.034	49.32
351.246	69.8
351.458	90.28
351.669	14.51
351.881	51.37
352.093	37.03
352.305	127.14
352.517	86.19
352.728	127.14
352.94	34.99
353.152	86.19
353.363	22.7
353.575	26.79
353.787	75.95
353.999	59.56
354.21	131.24
354.422	55.47
354.633	-14.17
354.845	94.38
355.057	57.51
355.268	6.31
355.48	90.28
355.692	14.51
355.903	8.36
356.115	96.43
356.326	39.08
356.538	55.47
356.749	80.04
356.961	34.99
357.172	43.18
357.384	-8.02
357.595	22.7
357.807	43.18
358.018	90.28
358.23	47.27
358.441	82.09
358.653	86.19
358.864	43.18
359.075	86.19
359.287	77.99
359.498	112.81
359.709	127.14
359.921	51.37
360.132	104.62
360.344	-10.07
360.555	26.79
360.766	88.23
360.977	32.94
361.189	139.43
361.4	67.75
361.611	86.19
361.823	88.23
362.034	55.47
362.245	125.1
362.456	47.27
362.667	88.23
362.879	0.17
363.09	94.38
363.301	24.75
363.512	20.65
363.723	49.32
363.935	-1.88
364.146	71.85
364.357	77.99
364.568	57.51
364.779	6.31
364.99	32.94
365.201	118.95
365.412	92.33
365.623	86.19
365.834	112.81
366.045	16.55
366.256	53.42
366.467	98.47
366.678	71.85
366.889	77.99
367.1	55.47
367.311	69.8
367.522	59.56
367.733	49.32
367.944	106.67
368.155	67.75
368.366	114.86
368.577	24.75
368.788	98.47
368.999	92.33
369.209	118.95
369.42	92.33
369.631	110.76
369.842	92.33
370.053	71.85
370.264	137.38
370.474	67.75
370.685	20.65
370.896	-3.93
371.107	125.1
371.317	63.66
371.528	-16.21
371.739	61.61
371.95	57.51
372.16	37.03
372.371	-16.21
372.582	-38.74
372.792	16.55
373.003	57.51
373.214	108.71
373.424	108.71
373.635	73.9
373.846	77.99
374.056	51.37
374.267	112.81
374.477	110.76
374.688	12.46
374.898	98.47
375.109	-42.84
375.319	69.8
375.53	143.53
375.74	26.79
375.951	63.66
376.161	-40.79
376.372	84.14
376.582	92.33
376.793	102.57
377.003	49.32
377.214	57.51
377.424	73.9
377.635	86.19
377.845	45.23
378.055	174.25
378.266	41.13
378.476	137.38
378.686	-8.02
378.897	69.8
379.107	53.42
379.317	61.61
379.528	51.37
379.738	51.37
379.948	-8.02
380.158	96.43
380.369	53.42
380.579	96.43
380.789	67.75
380.999	112.81
381.21	49.32
381.42	137.38
381.63	80.04
381.84	168.1
382.05	96.43
382.261	104.62
382.471	49.32
382.681	98.47
382.891	125.1
383.101	129.19
383.311	71.85
383.521	20.65
383.731	43.18
383.941	98.47
384.151	57.51
384.361	28.84
384.571	55.47
384.781	16.55
384.991	96.43
385.201	39.08
385.411	77.99
385.621	61.61
385.831	41.13
386.041	55.47
386.251	43.18
386.461	86.19
386.671	-8.02
386.881	59.56
387.091	4.27
387.301	125.1
387.511	102.57
387.72	100.52
387.93	100.52
388.14	57.51
388.35	90.28
388.56	131.24
388.769	149.67
388.979	147.62
389.189	57.51
389.399	77.99
389.609	102.57
389.818	106.67
390.028	37.03
390.238	69.8
390.447	65.71
390.657	135.34
390.867	39.08
391.076	-3.93
391.286	94.38
391.496	155.82
391.705	41.13
391.915	121
392.125	112.81
392.334	168.1
392.544	110.76
392.753	86.19
392.963	71.85
393.172	108.71
393.382	127.14
393.591	112.81
393.801	45.23
394.01	182.44
394.22	112.81
394.429	96.43
394.639	75.95
394.848	92.33
395.058	129.19
395.267	88.23
395.477	88.23
395.686	159.91
395.895	80.04
396.105	108.71
396.314	63.66
396.524	123.05
396.733	90.28
396.942	118.95
397.152	57.51
397.361	184.49
397.57	168.1
397.78	131.24
397.989	161.96
398.198	127.14
398.407	59.56
398.617	186.54
398.826	86.19
399.035	131.24
399.244	139.43
399.453	102.57
399.663	57.51
399.872	166.06
400.081	133.29
400.29	172.2
400.499	161.96
400.708	182.44
400.917	61.61
401.127	172.2
401.336	67.75
401.545	139.43
401.754	184.49
401.963	164.01
402.172	147.62
402.381	196.78
402.59	157.86
402.799	198.82
403.008	182.44
403.217	116.9
403.426	110.76
403.635	143.53
403.844	166.06
404.053	196.78
404.262	180.39
404.471	184.49
404.68	229.54
404.888	196.78
405.097	204.97
405.306	282.79
405.515	186.54
405.724	166.06
405.933	198.82
406.142	196.78
406.35	221.35
406.559	252.07
406.768	211.11
406.977	286.89
407.185	217.26
407.394	231.59
407.603	223.4
407.812	231.59
408.02	299.17
408.229	252.07
408.438	313.51
408.646	288.93
408.855	258.21
409.064	329.89
409.272	379.04
409.481	479.4
409.69	387.24
409.898	485.54
410.107	286.89
410.315	405.67
410.524	342.18
410.733	452.77
410.941	467.11
411.15	491.68
411.358	491.68
411.567	522.4
411.775	495.78
411.984	465.06
412.192	434.34
412.401	559.27
412.609	602.27
412.818	680.1
413.026	594.08
413.234	661.66
413.443	628.9
413.651	643.23
413.86	712.86
414.068	841.89
414.276	796.83
414.485	729.25
414.693	802.97
414.901	972.96
415.11	940.19
415.318	938.14
415.526	960.67
415.734	983.2
415.943	932
416.151	1122.46
416.359	1063.07
416.567	1044.63
416.776	1181.85
416.984	1130.65
417.192	1294.49
417.4	1314.97
417.608	1239.19
417.817	1394.84
418.025	1409.17
418.233	1564.82
418.441	1476.76
418.649	1491.09
418.857	1626.26
419.065	1652.88
419.273	1601.68
419.481	1749.14
419.689	1839.25
419.897	1904.78
420.105	2025.61
420.313	2035.85
420.521	2062.48
420.729	2076.81
420.937	2232.46
421.145	2306.18
421.353	2449.54
421.561	2449.54
421.769	2531.46
421.977	2635.91
422.185	2642.05
422.393	2795.65
422.601	2943.1
422.809	3074.17
423.017	3008.64
423.224	3176.57
423.432	3346.55
423.64	3250.3
423.848	3539.06
424.056	3471.48
424.263	3715.19
424.471	3584.12
424.679	3754.1
424.887	4159.6
425.094	4173.93
425.302	4143.21
425.51	4427.88
425.718	4444.26
425.925	4511.85
426.133	4644.96
426.341	4876.38
426.548	5130.33
426.756	5341.27
426.964	5335.13
427.171	5599.32
427.379	5734.48
427.586	5906.51
427.794	5967.95
428.001	6338.63
428.209	6445.13
428.417	6318.15
428.624	6832.19
428.832	7092.29
429.039	6748.23
429.247	6746.18
429.454	7555.13
429.662	7966.77
429.869	7438.39
430.076	7948.34
430.284	7925.81
430.491	7979.06
430.699	8699.94
430.906	8427.56
431.114	8593.45
431.321	9228.32
431.528	9273.37
431.736	9877.52
431.943	10321.93
432.15	10041.36
432.358	10209.29
432.565	10549.26
432.772	10588.17
432.979	11405.31
433.187	11468.8
433.394	11550.71
433.601	12214.26
433.808	12505.07
434.016	12042.23
434.223	12890.09
434.43	13549.53
434.637	13268.96
434.844	14096.34
435.052	14530.51
435.259	14317.52
435.466	14344.14
435.673	14266.32
435.88	15239.11
436.087	16052.15
436.294	16099.25
436.501	15554.49
436.708	15941.56
436.915	16594.86
437.122	17014.7
437.329	17035.17
437.537	17825.69
437.743	17792.92
437.95	18073.49
438.157	18712.46
438.364	19558.27
438.571	19603.33
438.778	19429.25
438.985	21340.01
439.192	20569.97
439.399	21223.27
439.606	20770.67
439.813	21686.11
440.02	23492.42
440.227	22880.08
440.433	22482.77
440.64	23271.24
440.847	23097.16
441.054	23623.49
441.261	25360.17
441.467	24659.76
441.674	25483.05
441.881	26576.66
442.088	26109.72
442.294	26095.39
442.501	26885.9
442.708	27571.97
442.914	28352.25
443.121	29560.55
443.328	28778.23
443.534	30795.48
443.741	30256.86
443.948	29755.11
444.154	31848.13
444.361	31905.48
444.568	31946.44
444.774	31946.44
444.981	32501.43
445.187	33246.9
445.394	34459.29
445.6	34207.39
445.807	37285.49
446.013	35616.4
446.22	36419.2
446.426	37656.17
446.633	38049.38
446.839	38946.39
447.046	38065.77
447.252	40056.39
447.459	40031.82
447.665	39423.57
447.871	41743.92
448.078	43296.28
448.284	41264.69
448.491	42323.49
448.697	43787.79
448.903	44477.96
449.11	44887.55
449.316	43890.19
449.522	44418.56
449.728	45995.5
449.935	46427.62
450.141	46077.42
450.347	46941.66
450.553	45524.47
450.76	46290.41
450.966	47568.34
451.172	47265.24
451.378	47986.13
451.584	47377.88
451.791	48301.51
451.997	47975.89
452.203	49167.8
452.409	48723.4
452.615	48637.38
452.821	46956
453.027	46599.65
453.233	48586.18
453.44	46478.82
453.646	47443.41
453.852	47812.05
454.058	48235.98
454.264	46511.59
454.47	47664.6
454.676	46237.16
454.882	47930.83
455.088	43908.62
455.294	44475.91
455.5	45143.55
455.705	45665.78
455.911	43968.01
456.117	42661.41
456.323	42161.7
456.529	40111.69
456.735	41909.8
456.941	40455.75
457.147	39859.79
457.352	39116.37
457.558	38284.9
457.764	38112.87
457.97	37549.68
458.176	36791.93
458.381	36824.7
458.587	35049.11
458.793	35200.66
458.999	33257.14
459.204	35571.34
459.41	34653.85
459.616	32292.54
459.821	32147.14
460.027	31948.48
460.233	31268.56
460.438	30176.99
460.644	30238.43
460.85	28919.54
461.055	28464.89
461.261	28374.78
461.466	26228.51
461.672	25470.76
461.878	27232.01
462.083	25356.07
462.289	24915.76
462.494	24590.13
462.7	23600.96
462.905	22880.08
463.111	23643.97
463.316	23902.01
463.522	23261
463.727	23242.57
463.932	23093.07
464.138	23191.37
464.343	23308.1
464.549	22525.78
464.754	23058.25
464.959	23091.02
465.165	22959.95
465.37	21837.66
465.575	21450.6
465.781	22316.89
465.986	22433.62
466.191	21565.28
466.397	20944.75
466.602	19799.93
466.807	20768.62
467.012	20639.6
467.218	20682.61
467.423	20629.36
467.628	20643.7
467.833	21366.63
468.038	20529.01
468.244	20143.99
468.449	20993.9
468.654	19953.53
468.859	19918.71
469.064	19799.93
469.269	19369.86
469.474	19083.14
469.679	19636.1
469.885	18917.26
470.09	19367.81
470.295	19152.77
470.5	18956.17
470.705	18714.51
470.91	18352.02
471.115	18208.66
471.32	18616.21
471.525	18581.39
471.73	17868.7
471.935	17577.89
472.139	17164.2
472.344	17674.14
472.549	17219.49
472.754	17190.82
472.959	16908.2
473.164	16465.84
473.369	16074.68
473.574	16822.19
473.778	16582.57
473.983	16730.03
474.188	16248.75
474.393	15734.71
474.598	15943.61
474.802	15648.7
475.007	15441.86
475.212	15341.5
475.417	14938.05
475.621	14786.51
475.826	14757.83
476.031	14538.7
476.235	14368.72
476.44	14510.03
476.645	14155.73
476.849	14325.71
477.054	14084.05
477.259	14004.18
477.463	13733.85
477.668	13477.85
477.872	13561.82
478.077	13336.54
478.282	13131.75
478.486	13105.12
478.691	13109.22
478.895	12716.01
479.1	12683.24
479.304	12996.58
479.509	12541.93
479.713	12830.69
479.918	12421.1
480.122	12361.71
480.326	12312.56
480.531	12355.57
480.735	12320.75
480.94	12103.67
481.144	12533.74
481.348	12109.81
481.553	12120.05
481.757	11765.75
481.961	12048.37
482.166	12105.71
482.37	12210.16
482.574	11773.94
482.778	11874.29
482.983	12142.58
483.187	11976.69
483.391	12005.36
483.595	11669.5
483.8	11757.56
484.004	11870.2
484.208	11827.19
484.412	11915.25
484.616	11896.82
484.821	11884.53
485.025	11732.98
485.229	12089.33
485.433	12013.56
485.637	12132.34
485.841	11919.35
486.045	11745.27
486.249	11763.7
486.453	11823.09
486.657	11862.01
486.861	11835.38
487.065	11747.32
487.269	11968.5
487.473	11632.63
487.677	11923.44
487.881	11943.92
488.085	11929.59
488.289	11974.64
488.493	11902.97
488.697	11995.12
488.901	11948.02
489.105	11755.51
489.309	11870.2
489.512	11952.12
489.716	12093.43
489.92	12146.67
490.124	11986.93
490.328	12140.53
490.531	11923.44
490.735	12148.72
490.939	12120.05
491.143	12156.91
491.346	12120.05
491.55	12408.81
491.754	12275.7
491.958	12357.61
492.161	12240.88
492.365	12390.38
492.569	12322.8
492.772	12586.99
492.976	12648.43
493.18	12738.54
493.383	12795.88
493.587	12943.33
493.79	12980.2
493.994	12896.23
494.197	13035.49
494.401	13043.68
494.605	13146.08
494.808	13195.23
495.012	13436.89
495.215	13318.11
495.419	13594.59
495.622	13572.06
495.825	13881.3
496.029	13840.34
496.232	14231.51
496.436	14030.8
496.639	14479.31
496.843	14120.92
497.046	14671.82
497.249	14550.99
497.453	14583.76
497.656	15028.17
497.859	15015.88
498.063	14948.29
498.266	15411.14
498.469	15402.94
498.673	15409.09
498.876	15660.99
499.079	16084.92
499.282	15962.04
499.485	16467.89
499.689	16338.87
499.892	16420.78
500.095	16553.9
500.298	16971.69
500.501	16969.64
500.705	17360.8
500.908	17457.06
501.111	17563.55
501.314	17780.64
501.517	17905.56
501.72	18364.31
501.923	18278.29
502.126	18546.58
502.329	18730.89
502.532	18956.17
502.735	19054.47
502.938	19169.16
503.141	19380.1
503.344	19840.89
503.547	19838.84
503.75	20057.98
503.953	20481.91
504.156	20756.33
504.359	20574.06
504.562	20565.87
504.765	21364.58
504.968	21401.44
505.17	21792.61
505.373	21798.75
505.576	22157.14
505.779	22331.22
505.982	22347.61
506.185	22839.12
506.387	22873.93
506.59	23189.32
506.793	23768.9
506.996	23533.38
507.198	24250.17
507.401	23736.13
507.604	23877.44
507.807	24641.33
508.009	25055.02
508.212	25286.44
508.415	25474.85
508.617	25757.47
508.82	25657.12
509.022	25564.96
509.225	26404.63
509.428	26398.49
509.63	26826.51
509.833	26806.03
510.035	27834.11
510.238	27508.49
510.44	27739.91
510.643	27997.95
510.845	28411.64
511.048	28184.32
511.25	28567.29
511.453	28940.02
511.655	29869.79
511.858	29417.19
512.06	29703.91
512.262	30510.81
512.465	29875.94
512.667	30799.57
512.87	30977.75
513.072	31082.19
513.274	31321.8
513.477	31798.98
513.679	31872.71
513.881	32517.82
514.084	32534.2
514.286	32640.7
514.488	32814.77
514.69	33328.81
514.893	33795.75
515.095	33916.58
515.297	34238.11
515.499	34371.23
515.701	34524.83
515.904	35169.94
516.106	35149.46
516.308	35653.26
516.51	35845.77
516.712	35597.96
516.914	36703.87
517.116	36968.05
517.318	36771.45
517.52	36918.9
517.722	37529.2
517.925	37633.64
518.127	38041.19
518.329	38702.68
518.531	38479.46
518.733	39206.48
518.935	39276.12
519.136	39085.65
519.338	39659.09
519.54	40072.78
519.742	40461.89
519.944	40396.35
520.146	41010.74
520.348	41328.18
520.55	41627.18
520.752	41410.1
520.954	42051.11
521.155	41754.16
521.357	42389.03
521.559	43144.73
521.761	42776.09
521.963	43159.06
522.164	43132.44
522.366	43492.88
522.568	43718.16
522.77	44314.12
522.971	44996.09
523.173	44187.14
523.375	44754.43
523.576	44766.72
523.778	45276.66
523.98	45993.45
524.181	45721.07
524.383	45764.08
524.584	46032.36
524.786	46263.78
524.988	46050.8
525.189	46820.83
525.391	46790.11
525.592	47027.68
525.794	47193.56
525.995	47556.05
526.197	47433.17
526.398	47365.59
526.6	47756.75
526.801	47953.36
527.003	48223.69
527.204	48287.18
527.406	48674.24
527.607	48627.14
527.808	48594.37
528.01	48211.4
528.211	48752.07
528.412	49425.85
528.614	49192.38
528.815	49003.97
529.016	49898.93
529.218	49153.47
529.419	49049.02
529.62	49546.68
529.822	49135.04
530.023	49335.74
530.224	49591.73
530.425	49526.2
530.626	49642.93
530.828	49290.68
531.029	50650.53
531.23	50118.06
531.431	50042.29
531.632	49665.46
531.833	49757.62
532.035	49929.65
532.236	50144.69
532.437	50445.74
532.638	50242.99
532.839	50388.39
533.04	50363.82
533.241	49667.51
533.442	50881.95
533.643	50576.81
533.844	50464.17
534.045	50183.6
534.246	49612.21
534.447	50650.53
534.648	50181.55
534.849	50537.9
535.05	49980.85
535.251	50517.42
535.451	49958.32
535.652	50544.04
535.853	50382.25
536.054	50222.51
536.255	50517.42
536.456	49751.48
536.657	50609.57
536.857	50449.83
537.058	50181.55
537.259	50273.71
537.46	50898.34
537.66	50292.14
537.861	50484.65
538.062	50152.88
538.263	50447.78
538.463	49663.41
538.664	50122.16
538.865	50036.14
539.065	50388.39
539.266	49960.37
539.466	50292.14
539.667	49429.94
539.868	50378.15
540.068	49980.85
540.269	49960.37
540.469	50394.54
540.67	50232.75
540.87	50015.66
541.071	49665.46
541.271	50179.5
541.472	49733.04
541.672	49737.14
541.873	49667.51
542.073	49221.05
542.274	50097.58
542.474	49927.6
542.675	49468.86
542.875	50073.01
543.075	49679.8
543.276	49472.95
543.476	49999.28
543.676	49839.54
543.877	49989.04
544.077	49841.59
544.277	49642.93
544.478	49634.74
544.678	49694.13
544.878	49354.17
545.078	49642.93
545.279	48854.47
545.479	49509.82
545.679	49786.29
545.879	49386.94
546.079	49659.32
546.28	49194.43
546.48	48719.3
546.68	49763.76
546.88	49397.18
547.08	49528.25
547.28	49182.14
547.48	48831.94
547.68	49425.85
547.88	48848.32
548.081	49178.04
548.281	49331.64
548.481	48954.82
548.681	49565.11
548.881	49137.08
549.081	49008.06
549.28	48719.3
549.48	49522.1
549.68	48924.1
549.88	49530.29
550.08	49073.6
550.28	48893.38
550.48	48870.85
550.68	49176
550.88	48842.18
551.08	49051.07
551.279	48780.74
551.479	48557.51
551.679	48899.52
551.879	48782.79
552.079	49214.91
552.278	48481.73
552.478	48526.79
552.678	48637.38
552.878	48881.09
553.077	48534.98
553.277	48231.88
553.477	49251.77
553.676	48444.87
553.876	48438.73
554.076	48137.68
554.275	48225.74
554.475	47932.88
554.674	48457.16
554.874	48424.39
555.074	48217.55
555.273	48303.56
555.473	48397.77
555.672	48154.06
555.872	48068.05
556.071	48242.12
556.271	48131.53
556.47	48397.77
556.67	47441.37
556.869	47758.8
557.068	48000.46
557.268	47377.88
557.467	47564.24
557.667	47615.44
557.866	47838.67
558.065	47824.34
558.265	47085.02
558.464	47900.11
558.663	47992.27
558.863	46851.55
559.062	47853.01
559.261	46800.35
559.461	47537.62
559.66	46949.85
559.859	47060.44
560.058	46829.02
560.258	47158.75
560.457	46700
560.656	47035.87
560.855	46853.6
561.054	47009.25
561.253	46106.09
561.453	46816.74
561.652	46314.98
561.851	46996.96
562.05	46677.47
562.249	46329.32
562.448	46646.75
562.647	46396.9
562.846	46478.82
563.045	46026.22
563.244	45733.36
563.443	46890.46
563.642	45749.74
563.841	45934.06
564.04	45805.04
564.239	46255.59
564.438	45551.09
564.637	45946.35
564.836	45962.73
565.035	45366.77
565.234	45374.97
565.432	45528.56
565.631	45219.32
565.83	45145.59
566.029	44948.99
566.228	45118.97
566.427	44959.23
566.625	45049.34
566.824	44545.54
567.023	45051.39
567.222	43994.64
567.42	44928.51
567.619	44490.24
567.818	44559.87
568.016	43933.2
568.215	44580.35
568.414	44127.75
568.612	44344.84
568.811	44033.55
569.01	44078.6
569.208	43449.88
569.407	43783.69
569.605	43533.84
569.804	43906.57
570.002	43263.51
570.201	43900.43
570.4	43210.26
570.598	43533.84
570.797	43087.39
570.995	43386.39
571.193	42628.64
571.392	43081.24
571.59	42896.92
571.789	42542.63
571.987	42421.8
572.186	42554.91
572.384	42544.67
572.582	43058.71
572.781	42765.85
572.979	42073.64
573.177	41979.43
573.376	42317.35
573.574	41926.19
573.772	42221.09
573.971	41983.53
574.169	42223.14
574.367	41397.81
574.565	41700.91
574.763	41621.04
574.962	41424.43
575.16	40705.6
575.358	41127.48
575.556	40889.91
575.754	41227.83
575.952	40896.06
576.151	40814.14
576.349	40519.23
576.547	40304.2
576.745	40433.22
576.943	40443.46
577.141	40218.18
577.339	40494.66
577.537	39824.97
577.735	40390.21
577.933	39741
578.131	40203.85
578.329	39448.14
578.527	39423.57
578.725	39315.03
578.923	39732.81
579.121	39407.19
579.319	38944.34
579.516	39632.46
579.714	39200.34
579.912	39042.65
580.11	39183.96
580.308	38891.1
580.506	38288.99
580.704	38315.62
580.901	38807.13
581.099	38563.42
581.297	38219.36
581.495	38143.59
581.692	38190.69
581.89	37908.07
582.088	38231.65
582.285	37803.63
582.483	37953.13
582.681	37750.38
582.878	37959.27
583.076	37260.91
583.274	37830.25
583.471	36941.43
583.669	37510.77
583.866	37230.19
584.064	37394.03
584.262	36656.76
584.459	37244.53
584.657	36476.54
584.854	37123.7
585.052	36191.87
585.249	37113.46
585.447	36558.46
585.644	35870.34
585.841	36169.35
586.039	36441.73
586.236	35520.14
586.434	36021.89
586.631	35974.79
586.828	35956.36
587.026	35827.34
587.223	35659.4
587.42	35315.34
587.618	35233.43
587.815	35018.39
588.012	35202.71
588.21	34946.71
588.407	35178.13
588.604	35042.96
588.801	34799.26
588.999	34748.06
589.196	34397.85
589.393	34330.27
589.59	34322.08
589.787	34311.84
589.984	34145.95
590.182	33988.26
590.379	34313.89
590.576	33564.33
590.773	33717.93
590.97	33742.5
591.167	33728.17
591.364	32997.04
591.561	33502.89
591.758	33294
591.955	33281.71
592.152	33306.29
592.349	33005.24
592.546	33298.09
592.743	33214.13
592.94	32261.82
593.137	32759.48
593.334	32931.51
593.531	32450.24
593.727	32519.87
593.924	32317.12
594.121	31934.15
594.318	32251.58
594.515	31745.73
594.712	32128.7
594.908	31835.84
595.105	31891.14
595.302	31334.09
595.499	31375.05
595.696	31205.07
595.892	31162.06
596.089	31274.7
596.286	31448.78
596.482	30938.83
596.679	30987.99
596.876	30830.29
597.072	30863.06
597.269	30858.96
597.466	30611.16
597.662	30322.4
597.859	30740.18
598.055	30338.78
598.252	29783.78
598.448	30181.09
598.645	30066.4
598.841	29656.81
599.038	29775.59
599.234	29970.15
599.431	29497.06
599.627	29837.03
599.824	29918.95
600.02	29554.41
600.217	29376.23
600.413	29361.9
600.609	29001.46
600.806	28948.21
601.002	29411.05
601.198	28767.99
601.395	28700.4
601.591	28706.55
601.787	28411.64
601.984	28577.53
602.18	28667.64
602.376	28296.95
602.572	28464.89
602.769	28016.38
602.965	28032.77
603.161	28126.97
603.357	28014.34
603.553	27930.37
603.75	27963.14
603.946	27797.25
604.142	27731.72
604.338	27346.7
604.534	27434.76
604.73	27232.01
604.926	27035.41
605.122	27105.04
605.318	26998.54
605.514	26900.24
605.71	26730.26
605.906	27064.08
606.102	26621.72
606.298	26816.27
606.494	26857.23
606.69	26547.99
606.886	26679.06
607.082	26013.47
607.278	26439.45
607.474	26248.99
607.67	26578.71
607.866	25978.65
608.062	26687.25
608.257	25788.19
608.453	26085.15
608.649	26113.82
608.845	25591.59
609.041	26056.48
609.236	25935.65
609.432	25706.27
609.628	25685.79
609.824	25763.62
610.019	25423.65
610.215	25497.38
610.411	25569.06
610.606	25229.1
610.802	25419.56
610.998	25194.28
611.193	25134.89
611.389	24995.63
611.584	25014.06
611.78	24874.8
611.976	24930.09
612.171	24897.33
612.367	24887.09
612.562	24745.78
612.758	24518.45
612.953	24733.49
613.149	25059.12
613.344	24803.12
613.539	24727.35
613.735	24368.95
613.93	24756.02
614.126	24270.65
614.321	24536.88
614.517	24428.34
614.712	24350.52
614.907	24092.48
615.103	24356.66
615.298	23947.07
615.493	24471.35
615.688	23740.22
615.884	24311.61
616.079	24139.58
616.274	23977.79
616.47	23955.26
616.665	23807.81
616.86	23836.48
617.055	23848.77
617.25	23621.44
617.445	23650.11
617.641	23437.13
617.836	23895.87
618.031	23217.99
618.226	23717.7
618.421	23564.1
618.616	23381.83
618.811	22740.82
619.006	23254.86
619.201	22867.79
619.396	23002.96
619.591	22583.12
619.786	22996.81
619.981	22460.24
620.176	22767.44
620.371	22312.79
620.566	22292.31
620.761	22286.17
620.956	22574.93
621.151	21909.34
621.346	21808.99
621.541	21344.1
621.735	21778.27
621.93	21477.22
622.125	21757.79
622.32	21423.97
622.515	21446.5
622.709	21102.44
622.904	21061.48
623.099	21084.01
623.294	20797.29
623.488	20600.69
623.683	20807.53
623.878	20422.52
624.072	20428.66
624.267	20338.55
624.462	20422.52
624.656	19623.81
624.851	20006.78
625.046	19834.75
625.24	19636.1
625.435	19429.25
625.629	19459.97
625.824	19287.94
626.018	19351.43
626.213	19046.28
626.407	19193.73
626.602	19017.61
626.796	18878.35
626.991	18798.48
627.185	18730.89
627.38	18403.22
627.574	18474.9
627.768	18653.07
627.963	18435.99
628.157	18200.47
628.352	18245.52
628.546	17876.89
628.74	17985.43
628.935	17563.55
629.129	17926.04
629.323	17483.68
629.517	17668
629.712	17569.69
629.906	17444.77
630.1	16875.43
630.294	17285.03
630.489	17061.8
630.683	17385.38
630.877	16887.72
631.071	16822.19
631.265	16738.22
631.459	16394.16
631.653	16598.96
631.848	16678.83
632.042	16230.32
632.236	16218.04
632.43	16220.08
632.624	16392.11
632.818	16254.9
633.012	15812.54
633.206	16003
633.4	15974.33
633.594	15538.11
633.788	16017.33
633.982	15622.08
634.176	15335.36
634.369	15243.2
634.563	15431.62
634.757	15239.11
634.951	15196.1
635.145	15101.89
635.339	15011.78
635.533	15077.32
635.726	14966.73
635.92	14858.18
636.114	14909.38
636.308	14735.31
636.501	14505.93
636.695	14493.65
636.889	14321.62
637.083	14411.73
637.276	14174.16
637.47	14315.47
637.664	14163.92
637.857	14131.16
638.051	14104.53
638.244	13926.36
638.438	13778.9
638.632	13889.49
638.825	13461.47
639.019	13551.58
639.212	13613.02
639.406	13531.1
639.599	13473.76
639.793	13205.47
639.986	13113.31
640.18	13082.6
640.373	13195.23
640.567	12933.09
640.76	12865.51
640.954	12836.84
641.147	12619.75
641.34	12773.35
641.534	12697.58
641.727	12574.7
641.92	12752.87
642.114	12396.53
642.307	12277.74
642.5	12335.09
642.694	11974.64
642.887	12191.73
643.08	12294.13
643.273	12083.19
643.467	11968.5
643.66	11741.18
643.853	12017.65
644.046	11610.11
644.239	11739.13
644.432	11902.97
644.626	11655.16
644.819	11651.06
645.012	11700.22
645.205	11569.15
645.398	11413.5
645.591	11423.74
645.784	11393.02
645.977	11270.14
646.17	11321.34
646.363	11169.79
646.556	10840.07
646.749	11046.91
646.942	11030.53
647.135	10932.23
647.328	10874.88
647.521	10803.21
647.714	10688.52
647.907	10860.55
648.099	10362.89
648.292	10643.46
648.485	10493.96
648.678	10244.11
648.871	10375.18
649.064	10135.57
649.256	10385.42
649.449	10000.4
649.642	10115.09
649.835	10051.6
650.027	9848.85
650.22	10022.93
650.413	10086.42
650.605	9791.51
650.798	9889.81
650.991	9519.13
651.183	9828.37
651.376	9756.69
651.568	9691.16
651.761	9601.05
651.954	9629.72
652.146	9429.02
652.339	9388.06
652.531	9711.64
652.724	9447.45
652.916	9078.82
653.109	9132.06
653.301	9078.82
653.494	9177.12
653.686	9062.43
653.879	9277.47
654.071	8757.29
654.263	8953.89
654.456	8943.65
654.648	9021.47
654.84	8847.4
655.033	8644.65
655.225	8749.09
655.417	8734.76
655.61	8618.02
655.802	8701.99
655.994	8501.29
656.186	8646.69
656.379	8443.95
656.571	8458.28
656.763	8407.08
656.955	8237.1
657.148	8243.24
657.34	7970.87
657.532	8149.04
657.724	8140.85
657.916	8120.37
658.108	8058.93
658.3	7946.29
658.492	8024.11
658.684	7843.89
658.876	7862.32
659.068	7909.43
659.26	7841.84
659.452	7729.2
659.644	7786.55
659.836	7655.48
660.028	7774.26
660.22	7417.91
660.412	7577.66
660.604	7481.4
660.796	7522.36
660.988	7489.59
661.18	7391.29
661.372	7419.96
661.563	7284.8
661.755	7393.34
661.947	7350.33
662.139	7241.79
662.331	7225.4
662.522	7182.4
662.714	7215.16
662.906	7129.15
663.097	6987.84
663.289	7026.75
663.481	6971.46
663.673	6883.39
663.864	6883.39
664.056	6932.54
664.247	6926.4
664.439	6684.74
664.631	6809.67
664.822	6768.71
665.014	6666.31
665.205	6623.3
665.397	6559.81
665.588	6660.17
665.78	6479.94
665.971	6266.96
666.163	6512.71
666.354	6334.54
666.546	6256.72
666.737	6346.83
666.929	6402.12
667.12	6402.12
667.311	6369.35
667.503	6217.8
667.694	6238.28
667.885	6105.17
668.077	6133.84
668.268	6228.04
668.459	6252.62
668.651	6088.78
668.842	6176.84
669.033	5996.62
669.224	5797.97
669.416	6066.25
669.607	5918.8
669.798	5912.66
669.989	5996.62
670.18	5779.54
670.371	5746.77
670.563	5847.12
670.754	5619.8
670.945	5830.74
671.136	5869.65
671.327	5769.3
671.518	5699.67
671.709	5754.96
671.9	5648.47
672.091	5548.12
672.282	5548.12
672.473	5597.27
672.664	5539.93
672.855	5537.88
673.046	5488.73
673.237	5433.43
673.428	5359.7
673.619	5288.03
673.809	5285.98
674	5314.65
674.191	5419.1
674.382	5312.6
674.573	5277.79
674.764	5111.9
674.954	5351.51
675.145	5093.47
675.336	5161.05
675.527	5206.11
675.717	4982.88
675.908	5042.27
676.099	5392.47
676.289	5216.35
676.48	5075.04
676.671	4995.17
676.861	5159
677.052	4954.21
677.243	4794.47
677.433	5058.65
677.624	4929.63
677.814	5005.41
678.005	4946.02
678.195	4950.11
678.386	4872.29
678.576	4794.47
678.767	4905.06
678.957	4784.23
679.148	4894.82
679.338	4882.53
679.529	4696.16
679.719	4726.88
679.909	4860
680.1	4773.99
680.29	4456.55
680.481	4825.19
680.671	4794.47
680.861	4704.35
681.052	4827.23
681.242	4630.63
681.432	4720.74
681.622	4548.71
681.813	4579.43
682.003	4679.78
682.193	4614.24
682.383	4677.73
682.573	4524.13
682.764	4540.52
682.954	4612.2
683.144	4599.91
683.334	4675.68
683.524	4397.16
683.714	4509.8
683.904	4452.45
684.094	4374.63
684.284	4454.5
684.474	4325.48
684.664	4282.47
684.854	4481.13
685.044	4407.4
685.234	4399.21
685.424	4296.81
685.614	4360.3
685.804	4221.03
685.994	4229.23
686.184	4200.55
686.374	4116.59
686.564	4333.67
686.753	4249.71
686.943	4274.28
687.133	4184.17
687.323	4135.02
687.513	4143.21
687.702	4175.98
687.892	4049
688.082	4100.2
688.272	4137.07
688.461	4075.63
688.651	4122.73
688.841	4069.48
689.03	3893.36
689.22	3967.09
689.41	3897.46
689.599	3962.99
689.789	3936.37
689.979	4063.34
690.168	3854.45
690.358	3811.44
690.547	3803.25
690.737	3969.13
690.926	3840.11
691.116	3780.72
691.305	3782.77
691.495	3887.22
691.684	3782.77
691.874	3788.91
692.063	3788.91
692.252	3715.19
692.442	3686.51
692.631	3594.36
692.82	3715.19
693.01	3629.17
693.199	3606.64
693.388	3768.43
693.578	3610.74
693.767	3641.46
693.956	3534.96
694.146	3500.15
694.335	3551.35
694.524	3555.44
694.713	3465.33
694.902	3459.19
695.092	3620.98
695.281	3453.05
695.47	3375.22
695.659	3387.51
695.848	3350.65
696.037	3473.53
696.226	3399.8
696.415	3367.03
696.604	3418.23
696.793	3393.65
696.982	3442.81
697.171	3494.01
697.36	3430.52
697.549	3307.64
697.738	3463.29
697.927	3334.26
698.116	3213.43
698.305	3367.03
698.494	3229.82
698.683	3328.12
698.872	3377.27
699.061	3270.78
699.25	3383.42
699.438	3352.7
699.627	3332.22
699.816	3299.45
700.005	3213.43
700.193	3311.74
700.382	3250.3
700.571	3252.35
700.76	3278.97
700.948	3315.83
701.137	3364.98
701.326	3244.15
701.514	3221.63
701.703	3356.79
701.892	3266.68
702.08	3289.21
702.269	3342.46
702.457	3225.72
702.646	3256.44
702.834	3121.28
703.023	3233.91
703.212	3086.46
703.4	3197.05
703.589	3346.55
703.777	3201.15
703.965	3086.46
704.154	3281.02
704.342	3184.76
704.531	3276.92
704.719	3195
704.907	3270.78
705.096	3123.32
705.284	3076.22
705.472	3168.38
705.661	3086.46
705.849	3129.47
706.037	3215.48
706.226	3151.99
706.414	3238.01
706.602	3211.39
706.79	3119.23
706.979	3123.32
707.167	3027.07
707.355	3305.59
707.543	3141.75
707.731	3213.43
707.919	3072.12
708.107	3180.67
708.296	3131.51
708.484	2986.11
708.672	3057.79
708.86	3127.42
709.048	3098.75
709.236	3133.56
709.424	3096.7
709.612	3068.03
709.8	3080.32
709.988	3209.34
710.176	3182.71
710.364	3100.8
710.551	3002.49
710.739	2975.87
710.927	3113.08
711.115	3090.56
711.303	3055.74
711.491	3080.32
711.679	2982.01
711.866	3131.51
712.054	3041.4
712.242	2963.58
712.43	3125.37
712.617	3063.93
712.805	3014.78
712.993	3006.59
713.181	2953.34
713.368	3051.64
713.556	3020.92
713.744	2936.96
713.931	3070.08
714.119	3000.44
714.306	2930.81
714.494	2959.49
714.682	3008.64
714.869	2846.85
715.057	3068.03
715.244	2904.19
715.432	3059.84
715.619	2979.97
715.807	2994.3
715.994	3059.84
716.182	3070.08
716.369	3096.7
716.556	2986.11
716.744	2902.14
716.931	2973.82
717.119	2926.72
717.306	3045.5
717.493	2936.96
717.681	3031.16
717.868	2951.29
718.055	3029.12
718.242	2871.42
718.43	2982.01
718.617	2955.39
718.804	2857.09
718.991	2969.73
719.179	2988.16
719.366	2910.33
719.553	2930.81
719.74	2924.67
719.927	3088.51
720.114	2957.44
720.301	2926.72
720.488	2826.37
720.676	2889.85
720.863	2969.73
721.05	2820.22
721.237	2963.58
721.424	2891.9
721.611	2934.91
721.798	2930.81
721.985	2881.66
722.172	2863.23
722.358	2750.59
722.545	2893.95
722.732	2762.88
722.919	2828.42
723.106	2834.56
723.293	2869.37
723.48	2807.94
723.667	2754.69
723.853	2861.18
724.04	2814.08
724.227	2730.11
724.414	2795.65
724.6	2758.78
724.787	2855.04
724.974	2744.45
725.161	2820.22
725.347	2660.48
725.534	2799.74
725.72	2752.64
725.907	2781.31
726.094	2799.74
726.28	2762.88
726.467	2656.39
726.653	2746.5
726.84	2791.55
727.027	2820.22
727.213	2732.16
727.4	2842.75
727.586	2723.97
727.773	2777.22
727.959	2715.78
728.145	2844.8
728.332	2799.74
728.518	2625.67
728.705	2822.27
728.891	2771.07
729.077	2633.86
729.264	2654.34
729.45	2713.73
729.636	2775.17
729.823	2728.07
730.009	2773.12
730.195	2670.72
730.382	2699.39
730.568	2648.19
730.754	2513.03
730.94	2678.91
731.126	2730.11
731.313	2723.97
731.499	2652.29
731.685	2746.5
731.871	2535.56
732.057	2680.96
732.243	2613.38
732.429	2730.11
732.615	2629.76
732.801	2654.34
732.987	2607.23
733.173	2689.15
733.359	2576.52
733.545	2660.48
733.731	2515.08
733.917	2603.14
734.103	2547.84
734.289	2637.95
734.475	2543.75
734.661	2570.37
734.847	2537.6
735.033	2558.08
735.219	2427.01
735.404	2531.46
735.59	2590.85
735.776	2582.66
735.962	2566.28
736.148	2443.4
736.333	2572.42
736.519	2498.69
736.705	2500.74
736.89	2453.64
737.076	2371.72
737.262	2359.43
737.447	2439.3
737.633	2250.89
737.819	2492.55
738.004	2463.88
738.19	2449.54
738.375	2406.53
738.561	2535.56
738.747	2461.83
738.932	2338.95
739.118	2615.43
739.303	2398.34
739.489	2388.1
739.674	2316.42
739.859	2414.73
740.045	2463.88
740.23	2355.33
740.416	2332.81
740.601	2316.42
740.786	2332.81
740.972	2240.65
741.157	2222.22
741.342	2168.97
741.528	2236.55
741.713	2224.26
741.898	2281.61
742.084	2293.9
742.269	2257.03
742.454	2351.24
742.639	2236.55
742.824	2269.32
743.01	2230.41
743.195	2281.61
743.38	2154.63
743.565	2105.48
743.75	2297.99
743.935	2056.33
744.12	2250.89
744.305	2056.33
744.49	2134.15
744.675	2068.62
744.86	2121.87
745.045	2205.83
745.23	2220.17
745.415	1955.98
745.6	2150.54
745.785	2021.52
745.97	2078.86
746.155	2095.24
746.34	2132.11
746.525	1947.79
746.71	1996.94
746.895	1917.07
747.079	2072.72
747.264	1964.17
747.449	2035.85
747.634	1953.93
747.819	1982.6
748.003	1925.26
748.188	1804.43
748.373	1900.69
748.557	1933.45
748.742	1822.86
748.927	1927.31
749.111	1810.58
749.296	1960.08
749.481	1904.78
749.665	1761.42
749.85	1839.25
750.034	1804.43
750.219	1892.49
750.404	1749.14
750.588	1745.04
750.773	1749.14
750.957	1771.66
751.141	1790.1
751.326	1773.71
751.51	1695.89
751.695	1769.62
751.879	1695.89
752.064	1671.31
752.248	1573.01
752.432	1628.31
752.617	1628.31
752.801	1636.5
752.985	1652.88
753.17	1595.54
753.354	1544.34
753.538	1546.39
753.722	1609.87
753.907	1624.21
754.091	1521.81
754.275	1556.63
754.459	1556.63
754.643	1530
754.828	1646.74
755.012	1454.23
755.196	1441.94
755.38	1452.18
755.564	1454.23
755.748	1433.75
755.932	1489.04
756.116	1437.84
756.3	1562.77
756.484	1433.75
756.668	1394.84
756.852	1337.49
757.036	1362.07
757.22	1380.5
757.404	1388.69
757.588	1341.59
757.772	1419.41
757.956	1400.98
758.14	1421.46
758.323	1368.21
758.507	1312.92
758.691	1304.73
758.875	1288.34
759.059	1276.06
759.242	1333.4
759.426	1175.7
759.61	1216.66
759.794	1284.25
759.977	1339.54
760.161	1331.35
760.345	1237.14
760.528	1251.48
760.712	1206.42
760.895	1165.46
761.079	1101.98
761.263	1247.38
761.446	1155.23
761.63	1151.13
761.813	1204.38
761.997	1061.02
762.18	1126.55
762.364	1181.85
762.547	1196.18
762.731	1116.31
762.914	1091.74
763.098	1132.7
763.281	1214.62
763.464	1116.31
763.648	1052.83
763.831	1108.12
764.015	1181.85
764.198	1169.56
764.381	1073.31
764.564	1173.66
764.748	972.96
764.931	1042.59
765.114	1030.3
765.297	1110.17
765.481	1020.06
765.664	999.58
765.847	1093.79
766.03	1044.63
766.213	1005.72
766.397	1050.78
766.58	1028.25
766.763	1116.31
766.946	1069.21
767.129	1081.5
767.312	964.76
767.495	1042.59
767.678	831.65
767.861	979.1
768.044	1011.87
768.227	1032.35
768.41	1003.68
768.593	954.52
768.776	950.43
768.959	983.2
769.142	981.15
769.324	981.15
769.507	938.14
769.69	932
769.873	856.22
770.056	1038.49
770.239	948.38
770.421	956.57
770.604	913.56
770.787	852.13
770.97	860.32
771.152	972.96
771.335	893.09
771.518	927.9
771.7	929.95
771.883	927.9
772.066	915.61
772.248	884.89
772.431	911.52
772.613	929.95
772.796	968.86
772.978	864.41
773.161	854.17
773.343	860.32
773.526	948.38
773.708	792.73
773.891	841.89
774.073	843.93
774.256	667.81
774.438	833.69
774.621	837.79
774.803	848.03
774.985	768.16
775.168	782.49
775.35	798.88
775.532	837.79
775.715	839.84
775.897	802.97
776.079	743.58
776.261	686.24
776.444	774.3
776.626	864.41
776.808	762.02
776.99	751.78
777.173	784.54
777.355	745.63
777.537	692.38
777.719	753.82
777.901	704.67
778.083	643.23
778.265	682.14
778.447	694.43
778.629	653.47
778.811	686.24
778.993	692.38
779.175	753.82
779.357	669.86
779.539	755.87
779.721	680.1
779.903	702.62
780.085	647.33
780.267	661.66
780.449	645.28
780.631	647.33
780.812	630.95
780.994	649.38
781.176	643.23
781.358	651.42
781.54	647.33
781.721	635.04
781.903	526.5
782.085	565.41
782.267	602.27
782.448	549.03
782.63	581.79
782.812	573.6
782.993	497.83
783.175	526.5
783.357	495.78
783.538	583.84
783.72	528.55
783.901	557.22
784.083	456.87
784.264	493.73
784.446	544.93
784.627	546.98
784.809	608.42
784.99	475.3
785.172	526.5
785.353	479.4
785.535	442.53
785.716	440.48
785.897	559.27
786.079	454.82
786.26	436.39
786.441	487.59
786.623	379.04
786.804	432.29
786.985	434.34
787.167	469.16
787.348	438.44
787.529	501.92
787.71	495.78
787.891	387.24
788.073	436.39
788.254	385.19
788.435	485.54
788.616	432.29
788.797	387.24
788.978	510.11
789.159	368.81
789.34	506.02
789.522	362.66
789.703	358.57
789.884	352.42
790.065	395.43
790.246	430.24
790.427	401.57
790.607	417.96
790.788	424.1
790.969	364.71
791.15	364.71
791.331	364.71
791.512	379.04
791.693	366.76
791.874	395.43
792.054	432.29
792.235	333.99
792.416	323.75
792.597	383.14
792.778	403.62
792.958	385.19
793.139	391.33
793.32	387.24
793.5	319.65
793.681	389.28
793.862	315.56
794.042	354.47
794.223	301.22
794.404	235.69
794.584	336.04
794.765	405.67
794.945	360.61
795.126	321.7
795.306	350.37
795.487	338.09
795.667	333.99
795.848	311.46
796.028	282.79
796.209	342.18
796.389	329.89
796.57	362.66
796.75	272.55
796.93	364.71
797.111	321.7
797.291	303.27
797.471	331.94
797.652	356.52
797.832	258.21
798.012	268.45
798.192	280.74
798.373	333.99
798.553	317.61
798.733	305.32
798.913	295.08
799.093	264.36
799.274	233.64
799.454	254.12
799.634	286.89
799.814	233.64
799.994	280.74
800.174	301.22
800.354	252.07
800.534	313.51
800.714	282.79
800.894	250.02
801.074	282.79
801.254	299.17
801.434	159.91
801.614	280.74
801.794	198.82
801.974	610.47
802.154	184.49
802.334	327.85
802.514	235.69
802.693	190.63
802.873	202.92
803.053	204.97
803.233	237.74
803.413	264.36
803.592	374.95
803.772	301.22
803.952	209.06
804.131	215.21
804.311	209.06
804.491	301.22
804.67	135.34
804.85	202.92
805.03	221.35
805.209	256.17
805.389	237.74
805.568	190.63
805.748	211.11
805.928	219.3
806.107	172.2
806.287	243.88
806.466	202.92
806.646	215.21
806.825	233.64
807.004	190.63
807.184	204.97
807.363	200.87
807.543	200.87
807.722	143.53
807.901	194.73
808.081	231.59
808.26	209.06
808.439	231.59
808.619	182.44
808.798	147.62
808.977	223.4
809.156	188.58
809.336	151.72
809.515	166.06
809.694	180.39
809.873	204.97
810.052	190.63
810.231	184.49
810.411	168.1
810.59	188.58
810.769	231.59
810.948	127.14
811.127	180.39
811.306	100.52
811.485	221.35
811.664	258.21
811.843	116.9
812.022	104.62
812.201	143.53
812.38	198.82
812.559	47.27
812.737	196.78
812.916	108.71
813.095	164.01
813.274	139.43
813.453	188.58
813.632	186.54
813.811	186.54
813.989	170.15
814.168	161.96
814.347	106.67
814.526	166.06
814.704	155.82
814.883	127.14
815.062	159.91
815.24	94.38
815.419	100.52
815.598	186.54
815.776	75.95
815.955	207.02
816.133	100.52
816.312	123.05
816.49	139.43
816.669	151.72
816.847	157.86
817.026	155.82
817.204	145.58
817.383	135.34
817.561	108.71
817.74	172.2
817.918	141.48
818.097	182.44
818.275	121
818.453	127.14
818.632	110.76
818.81	118.95
818.988	94.38
819.167	102.57
819.345	65.71
819.523	153.77
819.701	204.97
819.879	141.48
820.058	207.02
820.236	209.06
820.414	123.05
820.592	184.49
820.77	123.05
820.948	135.34
821.127	188.58
821.305	149.67
821.483	157.86
821.661	182.44
821.839	137.38
822.017	129.19
822.195	166.06
822.373	110.76
822.551	170.15
822.729	143.53
822.907	28.84
823.085	149.67
823.262	8.36
823.44	116.9
823.618	82.09
823.796	88.23
823.974	82.09
824.152	133.29
824.329	155.82
824.507	186.54
824.685	151.72
824.863	110.76
825.04	145.58
825.218	149.67
825.396	41.13
825.574	80.04
825.751	149.67
825.929	114.86
826.107	28.84
826.284	106.67
826.462	121
826.639	8.36
826.817	69.8
826.994	96.43
827.172	24.75
827.349	155.82
827.527	143.53
827.704	104.62
827.882	59.56
828.059	82.09
828.237	137.38
828.414	116.9
828.591	14.51
828.769	182.44
828.946	41.13
829.124	75.95
829.301	102.57
829.478	94.38
829.655	61.61
829.833	137.38
830.01	59.56
830.187	157.86
830.364	123.05
830.542	127.14
830.719	90.28
830.896	110.76
831.073	75.95
831.25	24.75
831.427	145.58
831.604	155.82
831.782	75.95
831.959	73.9
832.136	24.75
832.313	96.43
832.49	65.71
832.667	71.85
832.844	61.61
833.021	121
833.198	116.9
833.374	67.75
833.551	137.38
833.728	110.76
833.905	139.43
834.082	100.52
834.259	75.95
834.436	131.24
834.612	100.52
834.789	104.62
834.966	57.51
835.143	49.32
835.319	57.51
835.496	88.23
835.673	125.1
835.85	96.43
836.026	77.99
836.203	96.43
836.38	22.7
836.556	51.37
836.733	86.19
836.909	53.42
837.086	121
837.262	14.51
837.439	41.13
837.616	75.95
837.792	30.89
837.968	88.23
838.145	43.18
838.321	118.95
838.498	73.9
838.674	88.23
838.851	127.14
839.027	32.94
839.203	61.61
839.38	82.09
839.556	34.99
839.732	123.05
839.909	26.79
840.085	88.23
840.261	75.95
840.437	108.71
840.614	55.47
840.79	41.13
840.966	100.52
841.142	51.37
841.318	24.75
841.494	59.56
841.671	-8.02
841.847	49.32
842.023	47.27
842.199	28.84
842.375	43.18
842.551	55.47
842.727	20.65
842.903	86.19
843.079	39.08
843.255	71.85
843.431	71.85
843.607	86.19
843.783	75.95
843.959	75.95
844.134	37.03
844.31	73.9
844.486	102.57
844.662	80.04
844.838	71.85
845.013	59.56
845.189	45.23
845.365	-12.12
845.541	14.51
845.716	65.71
845.892	37.03
846.068	-5.97
846.244	69.8
846.419	2.22
846.595	59.56
846.77	37.03
846.946	-34.64
847.122	-32.6
847.297	41.13
847.473	73.9
847.648	2.22
847.824	63.66
847.999	-12.12
848.175	8.36
848.35	45.23
848.526	88.23
848.701	51.37
848.876	102.57
849.052	63.66
849.227	47.27
849.403	94.38
849.578	4.27
849.753	-14.17
849.929	59.56
850.104	71.85
850.279	57.51
850.454	86.19
850.63	20.65
850.805	77.99
850.98	53.42
851.155	-16.21
851.33	90.28
851.505	47.27
851.681	39.08
851.856	57.51
852.031	12.46
852.206	24.75
852.381	59.56
852.556	18.6
852.731	16.55
852.906	32.94
853.081	71.85
853.256	12.46
853.431	80.04
853.606	98.47
853.781	47.27
853.956	10.41
854.131	102.57
854.305	-12.12
854.48	51.37
854.655	39.08
854.83	86.19
855.005	22.7
855.18	2.22
855.354	86.19
855.529	37.03
855.704	39.08
855.879	61.61
856.053	6.31
856.228	10.41
856.403	32.94
856.577	41.13
856.752	-42.84
856.926	49.32
857.101	6.31
857.276	30.89
857.45	96.43
857.625	55.47
857.799	43.18
857.974	69.8
858.148	45.23
858.323	8.36
858.497	12.46
858.672	8.36
858.846	55.47
859.02	51.37
859.195	67.75
859.369	51.37
859.543	63.66
859.718	10.41
859.892	26.79
860.066	22.7
860.241	63.66
860.415	26.79
860.589	57.51
860.763	53.42
860.938	77.99
861.112	24.75
861.286	47.27
861.46	86.19
861.634	12.46
861.808	53.42
861.982	6.31
862.157	-24.4
862.331	-46.93
862.505	-14.17
862.679	-22.36
862.853	84.14
863.027	55.47
863.201	16.55
863.375	-12.12
863.549	24.75
863.722	20.65
863.896	43.18
864.07	24.75
864.244	57.51
864.418	82.09
864.592	-53.08
864.766	-34.64
864.939	-40.79
865.113	30.89
865.287	24.75
865.461	-12.12
865.634	2.22
865.808	-3.93
865.982	-10.07
866.156	-28.5
866.329	47.27
866.503	28.84
866.676	57.51
866.85	-12.12
867.024	30.89
867.197	63.66
867.371	24.75
867.544	2.22
867.718	-38.74
867.891	67.75
868.065	102.57
868.238	2.22
868.412	34.99
868.585	39.08
868.759	55.47
868.932	26.79
869.105	34.99
869.279	6.31
869.452	6.31
869.625	73.9
869.799	102.57
869.972	32.94
870.145	80.04
870.319	49.32
870.492	39.08
870.665	45.23
870.838	-20.31
871.011	-42.84
871.185	10.41
871.358	51.37
871.531	-30.55
871.704	28.84
871.877	-8.02
872.05	92.33
872.223	-10.07
872.396	-3.93
872.569	47.27
872.742	-12.12
872.915	-12.12
873.088	12.46
873.261	55.47
873.434	47.27
873.607	24.75
873.78	75.95
873.953	14.51
874.126	24.75
874.299	110.76
874.471	59.56
874.644	8.36
874.817	6.31
874.99	84.14
875.163	-3.93
875.335	-12.12
875.508	-10.07
875.681	18.6
875.853	-14.17
876.026	61.61
876.199	127.14
876.371	18.6
876.544	-10.07
876.717	4.27
876.889	32.94
877.062	47.27
877.234	-24.4
877.407	51.37
877.579	20.65
877.752	-22.36
877.924	-8.02
878.097	71.85
878.269	88.23
878.442	34.99
878.614	-12.12
878.786	94.38
878.959	24.75
879.131	-18.26
879.303	39.08
879.476	90.28
879.648	34.99
879.82	80.04
879.993	0.17
880.165	28.84
880.337	18.6
880.509	22.7
880.681	-67.41
880.854	49.32
881.026	-28.5
881.198	57.51
881.37	61.61
881.542	39.08
881.714	34.99
881.886	77.99
882.058	4.27
882.23	-12.12
882.402	63.66
882.574	18.6
882.746	32.94
882.918	98.47
883.09	30.89
883.262	-20.31
883.434	28.84
883.606	-44.88
883.778	6.31
883.95	37.03
884.122	24.75
884.293	12.46
884.465	57.51
884.637	8.36
884.809	4.27
884.98	-30.55
885.152	6.31
885.324	8.36
885.496	0.17
885.667	43.18
885.839	41.13
886.011	-14.17
886.182	49.32
886.354	51.37
886.525	61.61
886.697	53.42
886.869	-53.08
887.04	43.18
887.212	-10.07
887.383	57.51
887.555	-14.17
887.726	-57.17
887.897	16.55
888.069	73.9
888.24	22.7
888.412	77.99
888.583	34.99
888.754	77.99
888.926	-5.97
889.097	-28.5
889.268	-28.5
889.44	-16.21
889.611	-18.26
889.782	-8.02
889.953	8.36
890.125	6.31
890.296	-14.17
890.467	-75.6
890.638	2.22
890.809	-30.55
890.98	-8.02
891.151	37.03
891.323	39.08
891.494	32.94
891.665	-46.93
891.836	55.47
892.007	-46.93
892.178	4.27
892.349	24.75
892.52	34.99
892.691	32.94
892.862	2.22
893.032	43.18
893.203	4.27
893.374	-1.88
893.545	96.43
893.716	-20.31
893.887	84.14
894.057	-30.55
894.228	82.09
894.399	-3.93
894.57	65.71
894.74	6.31
894.911	8.36
895.082	-1.88
895.253	0.17
895.423	16.55
895.594	71.85
895.764	61.61
895.935	-16.21
896.106	43.18
896.276	-61.27
896.447	37.03
896.617	73.9
896.788	-65.36
896.958	-53.08
897.129	41.13
897.299	-44.88
897.47	-61.27
897.64	-16.21
897.81	18.6
897.981	37.03
898.151	-12.12
898.322	8.36
898.492	41.13
898.662	-20.31
898.832	12.46
899.003	12.46
899.173	106.67
899.343	-14.17
899.513	8.36
