Data from USB4F104151__64__12-01-51-808.txt Node

Date: Fri Mar 14 12:01:51 EDT 2025
User: louis
Spectrometer: USB4F10415
Trigger mode: 4
Integration Time (sec): 2.000000E-2
Scans to average: 1
Electric dark correction enabled: true
Nonlinearity correction enabled: false
Boxcar width: 0
XAxis mode: Wavelengths
Number of Pixels in Spectrum: 3648
>>>>>Begin Spectral Data<<<<<
178.204	-113.15
178.424	-113.15
178.644	-113.15
178.864	-82.43
179.084	-37.38
179.304	-2.56
179.524	30.21
179.744	56.83
179.964	-29.18
180.184	-43.52
180.404	-74.24
180.624	-0.51
180.844	38.4
181.064	-0.51
181.283	65.02
181.503	-16.9
181.723	-23.04
181.943	-64
182.163	71.17
182.383	3.58
182.602	-47.62
182.822	30.21
183.042	32.26
183.262	-86.53
183.482	42.5
183.701	-23.04
183.921	-33.28
184.141	-16.9
184.361	-4.61
184.58	32.26
184.8	1.54
185.02	7.68
185.239	34.3
185.459	1.54
185.679	36.35
185.898	-35.33
186.118	30.21
186.338	40.45
186.557	11.78
186.777	-23.04
186.997	-33.28
187.216	91.65
187.436	-49.66
187.655	75.26
187.875	19.97
188.095	26.11
188.314	7.68
188.534	28.16
188.753	9.73
188.973	91.65
189.192	19.97
189.412	-14.85
189.631	52.74
189.851	60.93
190.07	5.63
190.29	-6.66
190.509	13.82
190.729	32.26
190.948	87.55
191.168	73.21
191.387	-0.51
191.607	-39.42
191.826	38.4
192.045	30.21
192.265	67.07
192.484	-29.18
192.704	65.02
192.923	15.87
193.142	99.84
193.362	7.68
193.581	50.69
193.8	73.21
194.02	26.11
194.239	15.87
194.458	62.98
194.678	71.17
194.897	3.58
195.116	50.69
195.335	7.68
195.555	13.82
195.774	56.83
195.993	58.88
196.212	9.73
196.432	7.68
196.651	7.68
196.87	22.02
197.089	28.16
197.308	22.02
197.528	77.31
197.747	-53.76
197.966	91.65
198.185	67.07
198.404	-35.33
198.623	75.26
198.842	83.45
199.062	85.5
199.281	54.78
199.5	69.12
199.719	40.45
199.938	46.59
200.157	52.74
200.376	15.87
200.595	30.21
200.814	19.97
201.033	-2.56
201.252	26.11
201.471	-23.04
201.69	42.5
201.909	56.83
202.128	-16.9
202.347	46.59
202.566	48.64
202.785	-4.61
203.004	-57.86
203.223	52.74
203.442	-4.61
203.661	-8.7
203.879	-29.18
204.098	-0.51
204.317	28.16
204.536	30.21
204.755	-16.9
204.974	30.21
205.193	65.02
205.411	46.59
205.63	95.74
205.849	73.21
206.068	-10.75
206.287	30.21
206.505	34.3
206.724	19.97
206.943	-41.47
207.162	-33.28
207.381	28.16
207.599	44.54
207.818	87.55
208.037	46.59
208.255	60.93
208.474	56.83
208.693	11.78
208.911	77.31
209.13	-10.75
209.349	22.02
209.567	40.45
209.786	-29.18
210.005	-4.61
210.223	105.98
210.442	-14.85
210.661	77.31
210.879	34.3
211.098	-16.9
211.316	26.11
211.535	-2.56
211.753	42.5
211.972	22.02
212.191	-51.71
212.409	-12.8
212.628	-10.75
212.846	5.63
213.065	-10.75
213.283	-4.61
213.502	24.06
213.72	52.74
213.938	65.02
214.157	15.87
214.375	1.54
214.594	11.78
214.812	24.06
215.031	69.12
215.249	24.06
215.467	7.68
215.686	-18.94
215.904	83.45
216.122	-18.94
216.341	19.97
216.559	22.02
216.778	34.3
216.996	77.31
217.214	62.98
217.432	9.73
217.651	-47.62
217.869	34.3
218.087	83.45
218.306	9.73
218.524	30.21
218.742	46.59
218.96	50.69
219.179	-84.48
219.397	34.3
219.615	46.59
219.833	-25.09
220.051	30.21
220.27	-76.29
220.488	30.21
220.706	15.87
220.924	7.68
221.142	-16.9
221.36	28.16
221.578	34.3
221.796	38.4
222.015	67.07
222.233	58.88
222.451	65.02
222.669	48.64
222.887	56.83
223.105	-12.8
223.323	62.98
223.541	-37.38
223.759	73.21
223.977	26.11
224.195	75.26
224.413	42.5
224.631	3.58
224.849	38.4
225.067	9.73
225.285	-12.8
225.503	22.02
225.721	-14.85
225.939	-8.7
226.157	32.26
226.375	148.99
226.592	9.73
226.81	13.82
227.028	38.4
227.246	65.02
227.464	46.59
227.682	-0.51
227.9	40.45
228.117	24.06
228.335	42.5
228.553	38.4
228.771	28.16
228.989	60.93
229.206	-33.28
229.424	22.02
229.642	48.64
229.86	11.78
230.077	30.21
230.295	32.26
230.513	-2.56
230.731	-25.09
230.948	48.64
231.166	77.31
231.384	-31.23
231.601	11.78
231.819	77.31
232.037	-0.51
232.254	24.06
232.472	75.26
232.689	-14.85
232.907	75.26
233.125	26.11
233.342	32.26
233.56	52.74
233.777	-55.81
233.995	22.02
234.213	13.82
234.43	54.78
234.648	48.64
234.865	40.45
235.083	116.22
235.3	-8.7
235.518	93.69
235.735	11.78
235.953	40.45
236.17	3.58
236.388	-14.85
236.605	-33.28
236.822	99.84
237.04	56.83
237.257	48.64
237.475	-41.47
237.692	-2.56
237.909	-12.8
238.127	34.3
238.344	-37.38
238.562	-2.56
238.779	11.78
238.996	-8.7
239.214	54.78
239.431	30.21
239.648	65.02
239.865	116.22
240.083	-45.57
240.3	-0.51
240.517	28.16
240.735	15.87
240.952	-0.51
241.169	1.54
241.386	50.69
241.603	32.26
241.821	69.12
242.038	65.02
242.255	-29.18
242.472	52.74
242.689	52.74
242.907	1.54
243.124	1.54
243.341	50.69
243.558	22.02
243.775	50.69
243.992	-8.7
244.209	38.4
244.426	11.78
244.643	54.78
244.86	-8.7
245.078	36.35
245.295	-45.57
245.512	28.16
245.729	19.97
245.946	65.02
246.163	-76.29
246.38	77.31
246.597	13.82
246.814	26.11
247.031	50.69
247.248	-4.61
247.464	44.54
247.681	15.87
247.898	38.4
248.115	89.6
248.332	32.26
248.549	44.54
248.766	44.54
248.983	54.78
249.2	-8.7
249.417	5.63
249.633	3.58
249.85	32.26
250.067	-6.66
250.284	87.55
250.501	30.21
250.717	46.59
250.934	-39.42
251.151	1.54
251.368	24.06
251.585	46.59
251.801	81.41
252.018	99.84
252.235	101.89
252.451	-4.61
252.668	19.97
252.885	26.11
253.102	50.69
253.318	67.07
253.535	40.45
253.752	17.92
253.968	34.3
254.185	-12.8
254.401	17.92
254.618	60.93
254.835	-10.75
255.051	69.12
255.268	-2.56
255.484	77.31
255.701	-10.75
255.917	62.98
256.134	11.78
256.351	15.87
256.567	17.92
256.784	-39.42
257	22.02
257.217	105.98
257.433	75.26
257.65	40.45
257.866	38.4
258.082	-16.9
258.299	-18.94
258.515	52.74
258.732	5.63
258.948	-20.99
259.165	71.17
259.381	77.31
259.597	13.82
259.814	3.58
260.03	-53.76
260.246	15.87
260.463	54.78
260.679	136.7
260.895	-14.85
261.112	71.17
261.328	28.16
261.544	58.88
261.761	85.5
261.977	79.36
262.193	52.74
262.409	19.97
262.626	24.06
262.842	-18.94
263.058	42.5
263.274	42.5
263.49	-68.09
263.707	50.69
263.923	-12.8
264.139	71.17
264.355	-0.51
264.571	-20.99
264.787	56.83
265.004	77.31
265.22	-8.7
265.436	42.5
265.652	87.55
265.868	71.17
266.084	5.63
266.3	19.97
266.516	-31.23
266.732	40.45
266.948	75.26
267.164	54.78
267.38	5.63
267.596	48.64
267.812	-18.94
268.028	-53.76
268.244	50.69
268.46	42.5
268.676	85.5
268.892	42.5
269.108	-20.99
269.324	5.63
269.54	60.93
269.756	85.5
269.972	-43.52
270.188	-41.47
270.403	-43.52
270.619	93.69
270.835	-53.76
271.051	30.21
271.267	73.21
271.483	42.5
271.698	-6.66
271.914	13.82
272.13	-51.71
272.346	40.45
272.562	42.5
272.777	79.36
272.993	-12.8
273.209	79.36
273.425	38.4
273.64	5.63
273.856	38.4
274.072	-27.14
274.287	-8.7
274.503	114.17
274.719	13.82
274.934	17.92
275.15	1.54
275.366	7.68
275.581	48.64
275.797	54.78
276.012	5.63
276.228	3.58
276.444	-29.18
276.659	9.73
276.875	9.73
277.09	-35.33
277.306	13.82
277.521	60.93
277.737	60.93
277.952	75.26
278.168	1.54
278.383	112.13
278.599	83.45
278.814	7.68
279.03	-20.99
279.245	42.5
279.461	22.02
279.676	44.54
279.892	-27.14
280.107	-12.8
280.322	5.63
280.538	108.03
280.753	-27.14
280.969	52.74
281.184	67.07
281.399	17.92
281.615	9.73
281.83	67.07
282.045	-23.04
282.26	-0.51
282.476	44.54
282.691	-29.18
282.906	50.69
283.122	52.74
283.337	42.5
283.552	101.89
283.767	60.93
283.983	116.22
284.198	-45.57
284.413	-2.56
284.628	-43.52
284.843	38.4
285.058	50.69
285.274	91.65
285.489	-2.56
285.704	36.35
285.919	46.59
286.134	9.73
286.349	-8.7
286.564	-35.33
286.779	40.45
286.995	-2.56
287.21	1.54
287.425	67.07
287.64	36.35
287.855	67.07
288.07	-16.9
288.285	62.98
288.5	77.31
288.715	34.3
288.93	75.26
289.145	-41.47
289.36	7.68
289.575	7.68
289.79	105.98
290.004	60.93
290.219	13.82
290.434	19.97
290.649	19.97
290.864	30.21
291.079	36.35
291.294	44.54
291.509	77.31
291.724	-25.09
291.938	7.68
292.153	34.3
292.368	114.17
292.583	17.92
292.798	36.35
293.012	56.83
293.227	26.11
293.442	46.59
293.657	26.11
293.871	67.07
294.086	30.21
294.301	-8.7
294.516	34.3
294.73	28.16
294.945	81.41
295.16	69.12
295.374	22.02
295.589	13.82
295.804	-23.04
296.018	22.02
296.233	54.78
296.447	58.88
296.662	-51.71
296.877	50.69
297.091	44.54
297.306	17.92
297.52	-4.61
297.735	26.11
297.949	32.26
298.164	42.5
298.378	46.59
298.593	17.92
298.807	-43.52
299.022	67.07
299.236	108.03
299.451	-94.72
299.665	48.64
299.88	17.92
300.094	17.92
300.309	15.87
300.523	44.54
300.737	44.54
300.952	-37.38
301.166	26.11
301.381	19.97
301.595	46.59
301.809	26.11
302.024	9.73
302.238	-18.94
302.452	67.07
302.667	1.54
302.881	50.69
303.095	-2.56
303.309	58.88
303.524	60.93
303.738	44.54
303.952	40.45
304.166	65.02
304.381	13.82
304.595	28.16
304.809	1.54
305.023	40.45
305.237	13.82
305.452	65.02
305.666	22.02
305.88	75.26
306.094	67.07
306.308	9.73
306.522	103.93
306.736	54.78
306.95	62.98
307.164	87.55
307.379	-64
307.593	50.69
307.807	73.21
308.021	-8.7
308.235	46.59
308.449	1.54
308.663	50.69
308.877	101.89
309.091	83.45
309.305	28.16
309.519	9.73
309.733	52.74
309.947	-59.9
310.161	-14.85
310.374	105.98
310.588	73.21
310.802	3.58
311.016	1.54
311.23	17.92
311.444	54.78
311.658	-33.28
311.872	52.74
312.085	67.07
312.299	44.54
312.513	-14.85
312.727	26.11
312.941	5.63
313.154	54.78
313.368	30.21
313.582	89.6
313.796	22.02
314.009	60.93
314.223	83.45
314.437	24.06
314.651	52.74
314.864	26.11
315.078	50.69
315.292	-8.7
315.505	-47.62
315.719	91.65
315.933	83.45
316.146	-2.56
316.36	56.83
316.573	11.78
316.787	58.88
317.001	40.45
317.214	48.64
317.428	67.07
317.641	-14.85
317.855	77.31
318.068	-23.04
318.282	60.93
318.495	-29.18
318.709	50.69
318.922	79.36
319.136	105.98
319.349	40.45
319.563	34.3
319.776	30.21
319.99	40.45
320.203	54.78
320.417	67.07
320.63	52.74
320.843	50.69
321.057	-51.71
321.27	34.3
321.483	22.02
321.697	7.68
321.91	24.06
322.124	-0.51
322.337	46.59
322.55	38.4
322.763	79.36
322.977	5.63
323.19	-8.7
323.403	-10.75
323.617	40.45
323.83	87.55
324.043	-8.7
324.256	48.64
324.469	3.58
324.683	85.5
324.896	42.5
325.109	46.59
325.322	-18.94
325.535	65.02
325.748	24.06
325.962	42.5
326.175	26.11
326.388	38.4
326.601	17.92
326.814	44.54
327.027	-2.56
327.24	134.65
327.453	75.26
327.666	-6.66
327.879	116.22
328.092	11.78
328.305	-14.85
328.518	42.5
328.731	5.63
328.944	9.73
329.157	30.21
329.37	50.69
329.583	44.54
329.796	87.55
330.009	3.58
330.222	44.54
330.435	17.92
330.648	-14.85
330.861	69.12
331.073	48.64
331.286	-4.61
331.499	81.41
331.712	-66.05
331.925	3.58
332.138	13.82
332.35	24.06
332.563	-25.09
332.776	71.17
332.989	5.63
333.202	77.31
333.414	54.78
333.627	56.83
333.84	-4.61
334.053	-20.99
334.265	48.64
334.478	15.87
334.691	87.55
334.903	36.35
335.116	26.11
335.329	15.87
335.541	5.63
335.754	15.87
335.966	36.35
336.179	30.21
336.392	48.64
336.604	26.11
336.817	7.68
337.029	69.12
337.242	75.26
337.454	34.3
337.667	-20.99
337.88	36.35
338.092	52.74
338.305	9.73
338.517	-6.66
338.729	3.58
338.942	17.92
339.154	7.68
339.367	-45.57
339.579	46.59
339.792	-2.56
340.004	7.68
340.217	36.35
340.429	148.99
340.641	-49.66
340.854	48.64
341.066	38.4
341.278	77.31
341.491	-2.56
341.703	58.88
341.915	-23.04
342.128	89.6
342.34	-6.66
342.552	56.83
342.764	1.54
342.977	-20.99
343.189	38.4
343.401	40.45
343.613	30.21
343.826	50.69
344.038	-18.94
344.25	-27.14
344.462	91.65
344.674	58.88
344.886	58.88
345.099	60.93
345.311	50.69
345.523	77.31
345.735	50.69
345.947	40.45
346.159	19.97
346.371	7.68
346.583	19.97
346.795	46.59
347.007	67.07
347.219	40.45
347.431	124.41
347.643	95.74
347.855	46.59
348.067	97.79
348.279	36.35
348.491	105.98
348.703	56.83
348.915	19.97
349.127	34.3
349.339	105.98
349.551	26.11
349.763	105.98
349.975	-4.61
350.187	73.21
350.399	81.41
350.61	24.06
350.822	7.68
351.034	91.65
351.246	5.63
351.458	69.12
351.669	44.54
351.881	44.54
352.093	24.06
352.305	73.21
352.517	38.4
352.728	40.45
352.94	52.74
353.152	54.78
353.363	13.82
353.575	46.59
353.787	36.35
353.999	7.68
354.21	62.98
354.422	52.74
354.633	40.45
354.845	54.78
355.057	62.98
355.268	-20.99
355.48	60.93
355.692	-23.04
355.903	75.26
356.115	58.88
356.326	11.78
356.538	67.07
356.749	77.31
356.961	85.5
357.172	56.83
357.384	73.21
357.595	118.27
357.807	22.02
358.018	28.16
358.23	42.5
358.441	19.97
358.653	65.02
358.864	50.69
359.075	19.97
359.287	26.11
359.498	105.98
359.709	58.88
359.921	54.78
360.132	34.3
360.344	54.78
360.555	54.78
360.766	114.17
360.977	13.82
361.189	17.92
361.4	75.26
361.611	69.12
361.823	69.12
362.034	-20.99
362.245	28.16
362.456	93.69
362.667	19.97
362.879	91.65
363.09	56.83
363.301	-2.56
363.512	-45.57
363.723	-25.09
363.935	26.11
364.146	122.37
364.357	50.69
364.568	-4.61
364.779	30.21
364.99	38.4
365.201	22.02
365.412	85.5
365.623	44.54
365.834	97.79
366.045	56.83
366.256	85.5
366.467	85.5
366.678	-12.8
366.889	19.97
367.1	38.4
367.311	69.12
367.522	103.93
367.733	-23.04
367.944	7.68
368.155	3.58
368.366	58.88
368.577	138.75
368.788	89.6
368.999	71.17
369.209	79.36
369.42	46.59
369.631	62.98
369.842	56.83
370.053	67.07
370.264	112.13
370.474	-0.51
370.685	79.36
370.896	1.54
371.107	50.69
371.317	30.21
371.528	81.41
371.739	136.7
371.95	71.17
372.16	-31.23
372.371	1.54
372.582	85.5
372.792	108.03
373.003	122.37
373.214	36.35
373.424	48.64
373.635	-20.99
373.846	46.59
374.056	40.45
374.267	81.41
374.477	-6.66
374.688	81.41
374.898	54.78
375.109	134.65
375.319	56.83
375.53	34.3
375.74	73.21
375.951	50.69
376.161	34.3
376.372	40.45
376.582	24.06
376.793	26.11
377.003	17.92
377.214	13.82
377.424	103.93
377.635	69.12
377.845	50.69
378.055	79.36
378.266	22.02
378.476	38.4
378.686	-4.61
378.897	34.3
379.107	75.26
379.317	87.55
379.528	11.78
379.738	56.83
379.948	36.35
380.158	26.11
380.369	38.4
380.579	67.07
380.789	-6.66
380.999	26.11
381.21	120.32
381.42	73.21
381.63	-29.18
381.84	85.5
382.05	75.26
382.261	48.64
382.471	30.21
382.681	46.59
382.891	34.3
383.101	73.21
383.311	112.13
383.521	40.45
383.731	5.63
383.941	132.61
384.151	67.07
384.361	62.98
384.571	44.54
384.781	17.92
384.991	71.17
385.201	60.93
385.411	48.64
385.621	67.07
385.831	28.16
386.041	65.02
386.251	38.4
386.461	105.98
386.671	56.83
386.881	15.87
387.091	93.69
387.301	132.61
387.511	65.02
387.72	67.07
387.93	89.6
388.14	-6.66
388.35	103.93
388.56	114.17
388.769	75.26
388.979	50.69
389.189	50.69
389.399	65.02
389.609	38.4
389.818	50.69
390.028	19.97
390.238	81.41
390.447	52.74
390.657	130.56
390.867	95.74
391.076	-39.42
391.286	159.23
391.496	42.5
391.705	44.54
391.915	38.4
392.125	93.69
392.334	46.59
392.544	85.5
392.753	7.68
392.963	77.31
393.172	36.35
393.382	3.58
393.591	81.41
393.801	28.16
394.01	46.59
394.22	50.69
394.429	50.69
394.639	79.36
394.848	148.99
395.058	71.17
395.267	97.79
395.477	50.69
395.686	93.69
395.895	89.6
396.105	132.61
396.314	132.61
396.524	91.65
396.733	122.37
396.942	91.65
397.152	83.45
397.361	101.89
397.57	26.11
397.78	-2.56
397.989	146.94
398.198	136.7
398.407	108.03
398.617	95.74
398.826	114.17
399.035	95.74
399.244	138.75
399.453	62.98
399.663	87.55
399.872	134.65
400.081	77.31
400.29	146.94
400.499	192
400.708	108.03
400.917	87.55
401.127	69.12
401.336	134.65
401.545	95.74
401.754	91.65
401.963	136.7
402.172	48.64
402.381	71.17
402.59	65.02
402.799	132.61
403.008	93.69
403.217	140.8
403.426	83.45
403.635	65.02
403.844	71.17
404.053	110.08
404.262	116.22
404.471	81.41
404.68	153.09
404.888	50.69
405.097	153.09
405.306	122.37
405.515	171.52
405.724	138.75
405.933	144.89
406.142	189.95
406.35	151.04
406.559	132.61
406.768	169.47
406.977	187.9
407.185	144.89
407.394	163.33
407.603	140.8
407.812	177.66
408.02	230.91
408.229	163.33
408.438	163.33
408.646	146.94
408.855	136.7
409.064	286.2
409.272	216.57
409.481	296.44
409.69	200.19
409.898	241.15
410.107	333.31
410.315	249.34
410.524	300.54
410.733	347.64
410.941	312.83
411.15	298.49
411.358	368.12
411.567	388.6
411.775	265.72
411.984	400.89
412.192	431.61
412.401	443.9
412.609	409.08
412.818	472.57
413.026	454.14
413.234	452.09
413.443	357.88
413.651	507.38
413.86	564.73
414.068	568.82
414.276	546.3
414.485	499.19
414.693	519.67
414.901	642.55
415.11	640.5
415.318	658.93
415.526	613.88
415.734	763.38
415.943	644.6
416.151	710.13
416.359	740.85
416.567	810.48
416.776	798.2
416.984	906.74
417.192	871.92
417.4	859.63
417.608	847.35
417.817	998.9
418.025	970.23
418.233	1048.05
418.441	1113.58
418.649	1058.29
418.857	1213.93
419.065	1195.5
419.273	1203.69
419.481	1328.62
419.689	1203.69
419.897	1361.39
420.105	1385.96
420.313	1398.25
420.521	1324.52
420.729	1525.22
420.937	1486.31
421.145	1545.7
421.353	1660.39
421.561	1836.52
421.769	1813.99
421.977	1744.36
422.185	1936.87
422.393	1965.54
422.601	1965.54
422.809	2088.42
423.017	2104.8
423.224	2252.25
423.432	2219.49
423.64	2196.96
423.848	2512.35
424.056	2457.05
424.263	2590.17
424.471	2571.74
424.679	2569.69
424.887	2799.06
425.094	2950.61
425.302	2876.88
425.51	2878.93
425.718	2985.43
425.925	3186.13
426.133	3206.61
426.341	3296.72
426.548	3540.43
426.756	3521.99
426.964	3536.33
427.171	3788.23
427.379	3917.25
427.586	3960.26
427.794	3964.36
428.001	4206.02
428.209	4470.2
428.417	4173.25
428.624	4703.67
428.832	4675
429.039	4720.06
429.247	4681.14
429.454	5150.13
429.662	5561.77
429.869	5135.79
430.076	5455.28
430.284	5322.16
430.491	5543.34
430.699	5768.62
430.906	5774.76
431.114	5932.45
431.321	6198.69
431.528	6262.18
431.736	6741.4
431.943	7054.74
432.15	6780.31
432.358	6854.04
432.565	7304.59
432.772	7179.67
432.979	7710.09
433.187	7755.15
433.394	7779.72
433.601	8308.1
433.808	8279.43
434.016	8193.41
434.223	8658.3
434.43	9323.89
434.637	9014.65
434.844	9344.37
435.052	9737.58
435.259	9629.04
435.466	9741.68
435.673	9540.97
435.88	10386.79
436.087	10661.21
436.294	11062.62
436.501	10798.43
436.708	10949.98
436.915	11185.49
437.122	11566.42
437.329	11470.16
437.537	12045.64
437.743	12305.73
437.95	12283.2
438.157	12553.54
438.364	13155.64
438.571	13210.93
438.778	13253.94
438.985	14435.62
439.192	14026.03
439.399	14482.72
439.606	13899.05
439.813	14896.41
440.02	15787.28
440.227	15559.95
440.433	15205.66
440.64	15856.91
440.847	15615.25
441.054	16192.78
441.261	17280.25
441.467	16891.13
441.674	17020.16
441.881	18101.48
442.088	18197.74
442.294	17652.98
442.501	18332.9
442.708	18703.59
442.914	19250.39
443.121	20200.65
443.328	19533.01
443.534	20954.3
443.741	20301
443.948	20002
444.154	21347.51
444.361	21408.95
444.568	21533.88
444.774	21894.32
444.981	21511.35
445.187	22652.07
445.394	23467.16
445.6	23166.11
445.807	25721.98
446.013	24458.38
446.22	24489.1
446.426	25543.8
446.633	26014.84
446.839	26866.79
447.046	25656.44
447.252	27034.72
447.459	27323.49
447.665	27087.97
447.871	28378.19
448.078	29690.94
448.284	28058.71
448.491	28824.65
448.697	30151.73
448.903	30426.16
449.11	30889
449.316	29936.7
449.522	30458.93
449.728	31587.36
449.935	31900.7
450.141	31640.61
450.347	32508.94
450.553	31632.41
450.76	32078.87
450.966	32918.54
451.172	32644.11
451.378	32916.49
451.584	32424.98
451.791	33567.74
451.997	33504.26
452.203	33881.08
452.409	33854.46
452.615	33655.81
452.821	32287.76
453.027	32398.35
453.233	33924.09
453.44	32521.23
453.646	33078.28
453.852	33262.6
454.058	33408
454.264	32228.37
454.47	32914.44
454.676	32363.54
454.882	33252.36
455.088	30524.46
455.294	30688.3
455.5	30989.35
455.705	31800.35
455.911	30426.16
456.117	29971.51
456.323	29277.25
456.529	27745.37
456.735	29107.27
456.941	28058.71
457.147	27741.27
457.352	27040.87
457.558	26737.77
457.764	26594.41
457.97	25830.52
458.176	25683.06
458.381	25689.21
458.587	24419.47
458.793	24741
458.999	23225.5
459.204	24710.28
459.41	24097.94
459.616	22486.18
459.821	22342.83
460.027	22312.11
460.233	21925.04
460.438	20827.33
460.644	21017.79
460.85	20358.35
461.055	19770.58
461.261	19573.97
461.466	18541.8
461.672	17734.9
461.878	19000.54
462.083	17857.78
462.289	17286.39
462.494	17216.76
462.7	16604.42
462.905	15912.21
463.111	16450.82
463.316	16774.4
463.522	16211.21
463.727	16336.13
463.932	16178.44
464.138	16141.58
464.343	16145.67
464.549	15545.62
464.754	16051.47
464.959	16270.6
465.165	16020.75
465.37	15168.79
465.575	14959.9
465.781	15580.43
465.986	15322.39
466.191	14751.01
466.397	14634.27
466.602	14036.27
466.807	14441.76
467.012	14398.76
467.218	14443.81
467.423	14441.76
467.628	14570.79
467.833	14798.11
468.038	14322.98
468.244	14183.72
468.449	14564.64
468.654	14036.27
468.859	13786.41
469.064	13884.72
469.269	13473.07
469.474	13358.39
469.679	13733.17
469.885	13165.88
470.09	13458.74
470.295	13475.12
470.5	13131.06
470.705	13090.1
470.91	13036.86
471.115	12813.63
471.32	12903.74
471.525	12770.62
471.73	12580.16
471.935	12514.63
472.139	12180.81
472.344	12240.2
472.549	12281.16
472.754	12045.64
472.959	11615.57
473.164	11580.75
473.369	11355.47
473.574	11801.93
473.778	11597.14
473.983	11507.02
474.188	11476.3
474.393	11044.18
474.598	11056.47
474.802	10927.45
475.007	10704.22
475.212	10929.5
475.417	10470.75
475.621	10493.28
475.826	10495.33
476.031	10405.22
476.235	10036.58
476.44	10300.77
476.645	10325.35
476.849	10063.21
477.054	9971.05
477.259	9958.76
477.463	9661.8
477.668	9502.06
477.872	9612.65
478.077	9457.01
478.282	9235.83
478.486	9186.68
478.691	8877.43
478.895	9108.85
479.1	9033.08
479.304	9160.05
479.509	8623.48
479.713	8920.44
479.918	8793.47
480.122	8672.64
480.326	8795.51
480.531	8729.98
480.735	8516.99
480.94	8385.92
481.144	8873.34
481.348	8390.02
481.553	8553.85
481.757	8496.51
481.961	8340.86
482.166	8641.92
482.37	8514.94
482.574	8492.41
482.778	8273.28
482.983	8498.56
483.187	8553.85
483.391	8381.82
483.595	8263.04
483.8	8215.94
484.004	8236.42
484.208	8521.09
484.412	8473.98
484.616	8281.47
484.821	8265.09
485.025	8181.12
485.229	8508.8
485.433	8273.28
485.637	8451.46
485.841	8379.78
486.045	8185.22
486.249	8316.29
486.453	8179.08
486.657	8361.34
486.861	8525.18
487.065	8138.12
487.269	8281.47
487.473	7976.33
487.677	8383.87
487.881	8375.68
488.085	8347.01
488.289	8238.47
488.493	8203.65
488.697	8486.27
488.901	8285.57
489.105	8347.01
489.309	8295.81
489.512	8222.08
489.716	8344.96
489.92	8627.58
490.124	8304
490.328	8734.07
490.531	8363.39
490.735	8541.57
490.939	8621.44
491.143	8199.55
491.346	8592.76
491.55	8582.53
491.754	8557.95
491.958	9010.55
492.161	8502.65
492.365	8863.1
492.569	8832.38
492.772	8744.31
492.976	8783.23
493.18	8805.75
493.383	9180.53
493.587	9094.52
493.79	9319.79
493.994	8904.06
494.197	9217.4
494.401	9061.75
494.605	9241.97
494.808	9219.44
495.012	9332.08
495.215	9534.83
495.419	9497.97
495.622	9375.09
495.825	9540.97
496.029	9762.16
496.232	9696.62
496.436	9719.15
496.639	9956.71
496.843	9839.98
497.046	10128.74
497.249	10206.56
497.453	10192.23
497.656	10394.98
497.859	10364.26
498.063	10370.4
498.266	10769.76
498.469	10736.99
498.673	10949.98
498.876	10935.64
499.079	11052.38
499.282	11087.19
499.485	11476.3
499.689	11248.98
499.892	11380.05
500.095	11566.42
500.298	11810.12
500.501	11742.54
500.705	12012.87
500.908	12092.74
501.111	12209.48
501.314	12471.62
501.517	12354.88
501.72	12834.11
501.923	12696.89
502.126	12840.25
502.329	13172.02
502.532	13106.49
502.735	13112.63
502.938	13585.71
503.141	13514.03
503.344	13657.39
503.547	13851.95
503.75	14062.89
503.953	14243.11
504.156	14292.26
504.359	14570.79
504.562	14482.72
504.765	14859.55
504.968	15009.05
505.17	15058.2
505.373	14884.12
505.576	15168.79
505.779	15564.05
505.982	15621.39
506.185	15910.16
506.387	16106.76
506.59	16022.8
506.793	16547.08
506.996	16327.94
507.198	16854.27
507.401	16563.46
507.604	16925.95
507.807	16921.85
508.009	17382.65
508.212	17573.11
508.415	17509.62
508.617	17900.78
508.82	17763.57
509.022	17751.28
509.225	18533.61
509.428	18541.8
509.63	18500.84
509.833	18676.96
510.035	19115.23
510.238	18965.73
510.44	19277.02
510.643	19647.7
510.845	19668.18
511.048	19500.25
511.25	20030.67
511.453	19795.15
511.655	21007.55
511.858	20442.31
512.06	20692.16
512.262	20847.81
512.465	20776.13
512.667	21013.7
512.87	21398.71
513.072	21126.33
513.274	21935.28
513.477	21787.83
513.679	22332.59
513.881	22271.15
514.084	22598.82
514.286	22699.17
514.488	22836.39
514.69	23614.62
514.893	23237.79
515.095	23334.04
515.297	23731.35
515.499	23757.97
515.701	24026.26
515.904	24325.26
516.106	24419.47
516.308	24302.73
516.51	25150.59
516.712	24710.28
516.914	25181.31
517.116	25584.76
517.318	25474.17
517.52	25611.39
517.722	25840.76
517.925	26025.07
518.127	26606.7
518.329	26582.12
518.531	26584.17
518.733	27225.18
518.935	27409.5
519.136	27452.51
519.338	27915.35
519.54	27511.9
519.742	27874.39
519.944	28224.59
520.146	28546.12
520.348	28519.5
520.55	28396.62
520.752	28693.58
520.954	29305.92
521.155	29033.54
521.357	29459.52
521.559	29740.09
521.761	30094.39
521.963	29951.03
522.164	29957.17
522.366	30469.17
522.568	30493.74
522.77	30721.07
522.971	31243.3
523.173	30968.87
523.375	31378.47
523.576	31136.8
523.778	31020.07
523.98	31818.78
524.181	31912.99
524.383	31638.56
524.584	32078.87
524.786	31882.27
524.988	32171.03
525.189	32416.79
525.391	32521.23
525.592	32664.59
525.794	33086.47
525.995	33100.81
526.197	32666.64
526.398	32891.91
526.6	33127.43
526.801	33248.26
527.003	33221.64
527.204	33455.11
527.406	33141.77
527.607	33461.25
527.808	33909.75
528.01	33287.17
528.211	34049.02
528.412	34362.36
528.614	33883.13
528.815	33913.85
529.016	34878.44
529.218	34085.88
529.419	33960.95
529.62	34085.88
529.822	33999.87
530.023	34388.98
530.224	34257.91
530.425	34333.68
530.626	34106.36
530.828	34429.94
531.029	35011.56
531.23	34178.04
531.431	34307.06
531.632	34829.29
531.833	34767.85
532.035	34431.99
532.236	34747.37
532.437	34665.46
532.638	34673.65
532.839	35204.07
533.04	34884.59
533.241	34565.1
533.442	35189.74
533.643	34946.03
533.844	34733.04
534.045	35003.37
534.246	34638.83
534.447	35236.84
534.648	34626.54
534.849	35216.36
535.05	34782.19
535.251	34370.55
535.451	34890.73
535.652	35079.14
535.853	34759.66
536.054	35185.64
536.255	35142.63
536.456	34763.76
536.657	35083.24
536.857	34819.05
537.058	34604.02
537.259	34925.55
537.46	34796.53
537.66	34724.85
537.861	34823.15
538.062	34644.98
538.263	34675.69
538.463	34814.96
538.664	34614.26
538.865	34544.62
539.065	35148.78
539.266	34472.95
539.466	34911.21
539.667	34569.2
539.868	35023.85
540.068	34755.57
540.269	34622.45
540.469	35142.63
540.67	34677.74
540.87	34571.25
541.071	34577.39
541.271	34958.31
541.472	34571.25
541.672	34302.96
541.873	34444.27
542.073	34286.58
542.274	34868.2
542.474	34618.35
542.675	34274.29
542.875	34788.33
543.075	34563.06
543.276	34053.11
543.476	34593.78
543.676	34155.51
543.877	34225.14
544.077	34241.53
544.277	34262.01
544.478	34137.08
544.678	34491.38
544.878	34474.99
545.078	34372.6
545.279	34079.74
545.479	34251.77
545.679	34059.26
545.879	34087.93
546.079	34345.97
546.28	33932.28
546.48	34032.63
546.68	34264.05
546.88	34038.78
547.08	34319.35
547.28	33809.4
547.48	33647.61
547.68	34155.51
547.88	33766.4
548.081	34149.37
548.281	34089.98
548.481	33610.75
548.681	34171.89
548.881	33846.27
549.081	34196.47
549.28	33635.33
549.48	34016.25
549.68	34083.83
549.88	34442.23
550.08	33862.65
550.28	33958.91
550.48	33649.66
550.68	34212.85
550.88	34161.65
551.08	33922.04
551.279	33848.32
551.479	33711.1
551.679	33713.15
551.879	33799.16
552.079	34221.05
552.278	34061.3
552.478	33821.69
552.678	33729.53
552.878	34059.26
553.077	33879.04
553.277	33768.44
553.477	33842.17
553.676	33774.59
553.876	33561.6
554.076	33700.86
554.275	33217.54
554.475	33258.5
554.674	33639.42
554.874	33369.09
555.074	33350.66
555.273	33227.78
555.473	33635.33
555.672	33287.17
555.872	33573.89
556.071	33510.4
556.271	33868.8
556.47	33451.01
556.67	33262.6
556.869	33131.53
557.068	33166.34
557.268	33055.75
557.467	33276.93
557.667	33209.35
557.866	33088.52
558.065	32848.91
558.265	32750.6
558.464	33035.27
558.663	33557.5
558.863	33045.51
559.062	33307.65
559.261	32517.14
559.461	32828.43
559.66	32695.31
559.859	32949.26
560.058	32470.03
560.258	32697.36
560.457	32672.78
560.656	32867.34
560.855	32650.25
561.054	32754.7
561.253	32517.14
561.453	32783.37
561.652	32961.55
561.851	32775.18
562.05	32332.82
562.249	32336.91
562.448	32269.33
562.647	32375.83
562.846	32314.39
563.045	31949.85
563.244	32095.25
563.443	32429.07
563.642	31644.7
563.841	31800.35
564.04	31867.93
564.239	31910.94
564.438	31648.8
564.637	32076.82
564.836	32039.96
565.035	31597.6
565.234	31505.44
565.432	31525.92
565.631	31480.86
565.83	31597.6
566.029	31206.44
566.228	31128.61
566.427	31357.99
566.625	31329.31
566.824	30882.86
567.023	31370.27
567.222	30559.28
567.42	31054.89
567.619	31065.13
567.818	30886.95
568.016	30764.07
568.215	31157.28
568.414	31220.77
568.612	31163.43
568.811	30714.92
569.01	30755.88
569.208	30465.07
569.407	30688.3
569.605	30303.28
569.804	30678.06
570.002	30104.63
570.201	30626.86
570.4	30411.82
570.598	30061.62
570.797	29953.08
570.995	30243.89
571.193	29955.13
571.392	30581.81
571.59	29684.8
571.789	30164.02
571.987	29910.07
572.186	29711.42
572.384	29359.17
572.582	29887.54
572.781	29686.84
572.979	29436.99
573.177	29877.3
573.376	29529.15
573.574	29305.92
573.772	29516.86
573.971	29006.92
574.169	29310.02
574.367	29211.71
574.565	29340.74
574.763	28568.65
574.962	29244.48
575.16	28648.52
575.358	28998.73
575.556	28490.83
575.754	29058.12
575.952	28474.45
576.151	28855.37
576.349	28548.17
576.547	28591.18
576.745	28361.81
576.943	28669
577.141	28400.72
577.339	28216.4
577.537	28030.04
577.735	28374.1
577.933	28075.09
578.131	28300.37
578.329	27753.56
578.527	27849.82
578.725	27898.97
578.923	28052.56
579.121	27759.7
579.319	27757.66
579.516	28034.13
579.714	27483.23
579.912	27565.15
580.11	27540.57
580.308	27728.98
580.506	27247.71
580.704	26860.65
580.901	27247.71
581.099	27538.52
581.297	26905.7
581.495	27141.22
581.692	27477.08
581.89	26653.8
582.088	27243.62
582.285	26842.21
582.483	26844.26
582.681	26524.78
582.878	26639.47
583.076	26268.78
583.274	26606.7
583.471	26168.43
583.669	26090.61
583.866	25891.96
584.064	26375.28
584.262	25805.94
584.459	26141.81
584.657	26260.59
584.854	26074.23
585.052	25752.7
585.249	25881.72
585.447	25496.7
585.644	25443.45
585.841	25738.36
586.039	25881.72
586.236	25351.29
586.434	25441.4
586.631	25439.36
586.828	25468.03
587.026	25132.16
587.223	25250.94
587.42	25091.2
587.618	25169.02
587.815	24849.54
588.012	24792.2
588.21	25119.87
588.407	25115.78
588.604	24779.91
588.801	24427.66
588.999	24538.25
589.196	24263.82
589.393	24396.94
589.59	24556.68
589.787	24327.31
589.984	23983.25
590.182	23880.85
590.379	24292.49
590.576	24071.31
590.773	24020.11
590.97	23843.99
591.167	23862.42
591.364	23438.49
591.561	23952.53
591.758	23456.92
591.955	23391.39
592.152	23585.94
592.349	23358.62
592.546	23383.2
592.743	23338.14
592.94	23424.15
593.137	23198.88
593.334	23039.14
593.531	22869.16
593.727	23004.32
593.924	23125.15
594.121	22469.8
594.318	22783.14
594.515	22414.51
594.712	22615.21
594.908	22611.11
595.105	22564.01
595.302	22447.27
595.499	22512.81
595.696	22226.09
595.892	22361.26
596.089	22391.98
596.286	22090.93
596.482	22037.68
596.679	22244.52
596.876	22258.86
597.072	21695.67
597.269	21789.88
597.466	21822.64
597.662	22013.1
597.859	21654.71
598.055	21890.23
598.252	21445.82
598.448	21726.39
598.645	21249.21
598.841	21372.09
599.038	21271.74
599.234	21257.4
599.431	21181.63
599.627	21122.24
599.824	21152.96
600.02	20817.09
600.217	21052.61
600.413	21107.9
600.609	21054.65
600.806	20509.9
601.002	20788.42
601.198	20331.72
601.395	20552.9
601.591	20436.17
601.787	20485.32
601.984	20278.47
602.18	20567.24
602.376	20397.26
602.572	20364.49
602.769	20094.16
602.965	19858.64
603.161	20077.77
603.357	20073.68
603.553	19608.79
603.75	20030.67
603.946	19694.8
604.142	19922.13
604.338	19659.99
604.534	19905.74
604.73	19379.42
604.926	19104.99
605.122	19582.17
605.318	19444.95
605.514	19256.54
605.71	19250.39
605.906	18982.11
606.102	19479.77
606.298	19023.07
606.494	19018.97
606.69	19274.97
606.886	19145.95
607.082	18660.58
607.278	19113.18
607.474	18609.38
607.67	18992.35
607.866	18466.02
608.062	18978.01
608.257	18760.93
608.453	19031.26
608.649	18666.72
608.845	18482.41
609.041	18293.99
609.236	18717.92
609.432	18656.48
609.628	18586.85
609.824	18334.95
610.019	18144.49
610.215	18353.38
610.411	18287.85
610.606	18361.58
610.802	18363.62
610.998	18175.21
611.193	18144.49
611.389	17890.54
611.584	17800.43
611.78	17898.73
611.976	18027.76
612.171	17941.74
612.367	17855.73
612.562	17837.3
612.758	17487.09
612.953	17698.03
613.149	17708.27
613.344	17462.52
613.539	17839.34
613.735	17587.44
613.93	17669.36
614.126	17669.36
614.321	17523.96
614.517	17595.64
614.712	17607.92
614.907	17632.5
615.103	17386.74
615.298	17304.82
615.493	17319.16
615.688	17194.23
615.884	17384.69
616.079	17323.26
616.274	17210.62
616.47	17249.53
616.665	17067.26
616.86	17093.88
617.055	16928
617.25	16950.53
617.445	17087.74
617.641	16766.21
617.836	17122.55
618.031	16743.68
618.226	17100.03
618.421	16794.88
618.616	17046.78
618.811	16659.71
619.006	16536.84
619.201	16229.64
619.396	16452.87
619.591	16205.06
619.786	16411.91
619.981	16155.91
620.176	16547.08
620.371	16094.47
620.566	15992.08
620.761	16016.65
620.956	16121.1
621.151	16010.51
621.346	15953.16
621.541	15582.48
621.735	15744.27
621.93	15785.23
622.125	15424.79
622.32	15156.5
622.515	15486.23
622.709	15213.85
622.904	15224.09
623.099	14941.47
623.294	15103.26
623.488	14984.48
623.683	14853.41
623.878	14746.91
624.072	14800.16
624.267	14660.9
624.462	14529.83
624.656	14609.7
624.851	14501.15
625.046	14308.65
625.24	14243.11
625.435	14112.04
625.629	14056.75
625.824	13878.57
626.018	14140.71
626.213	13747.5
626.407	14087.47
626.602	13591.86
626.796	13833.52
626.991	13575.47
627.185	13362.48
627.38	13450.55
627.574	13276.47
627.768	13102.39
627.963	13299
628.157	13229.37
628.352	13286.71
628.546	12844.35
628.74	13174.07
628.935	12913.98
629.129	12969.27
629.323	12809.53
629.517	12789.05
629.712	12614.98
629.906	12377.41
630.1	12336.45
630.294	12334.4
630.489	12428.61
630.683	12473.67
630.877	12295.49
631.071	12049.74
631.265	11939.15
631.459	12006.73
631.653	11849.04
631.848	11955.53
632.042	12051.78
632.236	11955.53
632.43	11691.34
632.624	11605.33
632.818	11763.02
633.012	11527.5
633.206	11494.74
633.4	11576.66
633.594	11232.6
633.788	11631.95
633.982	11332.95
634.176	11158.87
634.369	11173.21
634.563	10960.22
634.757	11044.18
634.951	10896.73
635.145	11322.71
635.339	10866.01
635.533	10769.76
635.726	10976.6
635.92	10780
636.114	10583.39
636.308	10552.67
636.501	10501.47
636.695	10474.85
636.889	10499.42
637.083	10464.61
637.276	10575.2
637.47	10143.08
637.664	9936.23
637.857	10145.13
638.051	10048.87
638.244	10048.87
638.438	10231.14
638.632	10055.01
638.825	9997.67
639.019	9604.46
639.212	9706.86
639.406	9829.74
639.599	9665.9
639.793	9694.57
639.986	9629.04
640.18	9682.28
640.373	9586.03
640.567	9104.76
640.76	9461.1
640.954	9198.96
641.147	9158
641.34	9190.77
641.534	9250.16
641.727	9176.44
641.92	9188.72
642.114	8924.54
642.307	9112.95
642.5	9016.69
642.694	8789.37
642.887	8689.02
643.08	8920.44
643.273	8627.58
643.467	8654.2
643.66	8637.82
643.853	8756.6
644.046	8273.28
644.239	8535.42
644.432	8547.71
644.626	8398.21
644.819	8195.46
645.012	8422.78
645.205	8193.41
645.398	8207.75
645.591	8138.12
645.784	8207.75
645.977	8252.8
646.17	8025.48
646.363	8058.25
646.556	7914.89
646.749	8045.96
646.942	7886.22
647.135	7886.22
647.328	7845.26
647.521	7839.11
647.714	7679.37
647.907	7761.29
648.099	7501.2
648.292	7650.7
648.485	7796.11
648.678	7406.99
648.871	7542.16
649.064	7306.64
649.256	7329.17
649.449	7316.88
649.642	7478.67
649.835	7259.54
650.027	7175.57
650.22	7222.67
650.413	7228.82
650.605	7241.11
650.798	7122.32
650.991	7122.32
651.183	7118.23
651.376	7001.49
651.568	6974.87
651.761	6968.73
651.954	6997.4
652.146	6796.7
652.339	6851.99
652.531	6786.46
652.724	6815.13
652.916	6647.19
653.109	6565.28
653.301	6671.77
653.494	6575.52
653.686	6370.72
653.879	6585.76
654.071	6497.69
654.263	6462.88
654.456	6448.54
654.648	6405.53
654.84	6397.34
655.033	6333.86
655.225	6372.77
655.417	6167.97
655.61	6327.71
655.802	6262.18
655.994	6301.09
656.186	6129.06
656.379	6049.19
656.571	6139.3
656.763	5885.35
656.955	6049.19
657.148	5871.01
657.34	5938.6
657.532	5887.4
657.724	5813.67
657.916	5936.55
658.108	5592.49
658.3	5791.14
658.492	5793.19
658.684	5682.6
658.876	5698.99
659.068	5760.42
659.26	5580.2
659.452	5746.09
659.644	5735.85
659.836	5578.15
660.028	5526.96
660.22	5486
660.412	5524.91
660.604	5479.85
660.796	5399.98
660.988	5365.17
661.18	5330.35
661.372	5385.65
661.563	5305.78
661.755	5303.73
661.947	5250.48
662.139	5252.53
662.331	5225.9
662.522	5041.59
662.714	5264.82
662.906	4982.2
663.097	5162.42
663.289	5115.31
663.481	4978.1
663.673	5021.11
663.864	5092.79
664.056	4949.43
664.247	5002.68
664.439	4984.24
664.631	4926.9
664.822	4976.05
665.014	4814.26
665.205	4660.66
665.397	4769.21
665.588	4726.2
665.78	4744.63
665.971	4724.15
666.163	4685.24
666.354	4816.31
666.546	4615.61
666.737	4611.51
666.929	4691.38
667.12	4599.23
667.311	4560.31
667.503	4511.16
667.694	4597.18
667.885	4468.16
668.077	4488.64
668.268	4390.33
668.459	4445.63
668.651	4453.82
668.842	4449.72
669.033	4244.93
669.224	4281.79
669.416	4560.31
669.607	4398.52
669.798	4414.91
669.989	4429.24
670.18	4214.21
670.371	4369.85
670.563	4185.54
670.754	4203.97
670.945	4337.09
671.136	4052.42
671.327	4134.34
671.518	4214.21
671.709	4224.45
671.9	4236.74
672.091	4021.7
672.282	3968.45
672.473	4046.27
672.664	4130.24
672.855	3995.08
673.046	4007.36
673.237	4048.32
673.428	4083.14
673.619	4009.41
673.809	3943.88
674	3849.67
674.191	3911.11
674.382	3823.05
674.573	4031.94
674.764	3866.05
674.954	3837.38
675.145	3818.95
675.336	3802.57
675.527	3792.33
675.717	3743.17
675.908	3855.81
676.099	3874.24
676.289	3694.02
676.48	3827.14
676.671	3870.15
676.861	3788.23
677.052	3722.7
677.243	3694.02
677.433	3814.85
677.624	3825.09
677.814	3554.76
678.005	3759.56
678.195	3726.79
678.386	3587.53
678.576	3528.14
678.767	3605.96
678.957	3556.81
679.148	3761.61
679.338	3628.49
679.529	3534.28
679.719	3616.2
679.909	3589.58
680.1	3581.39
680.29	3632.58
680.481	3716.55
680.671	3665.35
680.861	3507.66
681.052	3476.94
681.242	3536.33
681.432	3542.47
681.622	3491.27
681.813	3458.51
682.003	3526.09
682.193	3513.8
682.383	3456.46
682.573	3552.71
682.764	3448.27
682.954	3517.9
683.144	3448.27
683.334	3444.17
683.524	3491.27
683.714	3409.36
683.904	3466.7
684.094	3380.68
684.284	3448.27
684.474	3440.08
684.664	3364.3
684.854	3282.38
685.044	3343.82
685.234	3354.06
685.424	3266
685.614	3286.48
685.804	3356.11
685.994	3313.1
686.184	3345.87
686.374	3347.92
686.564	3255.76
686.753	3218.89
686.943	3245.52
687.133	3278.29
687.323	3161.55
687.513	3173.84
687.702	3239.37
687.892	3227.09
688.082	3128.78
688.272	3171.79
688.461	3073.49
688.651	3128.78
688.841	2956.75
689.03	3028.43
689.22	3022.29
689.41	3071.44
689.599	3071.44
689.789	2962.9
689.979	2948.56
690.168	2864.6
690.358	3055.06
690.547	2907.6
690.737	3012.05
690.926	2891.22
691.116	2907.6
691.305	2971.09
691.495	2954.71
691.684	2768.34
691.874	2932.18
692.063	2987.47
692.252	2825.68
692.442	2905.56
692.631	2852.31
692.82	2760.15
693.01	2817.49
693.199	2803.16
693.388	2692.57
693.578	2747.86
693.767	2721.24
693.956	2809.3
694.146	2733.53
694.335	2729.43
694.524	2596.31
694.713	2731.48
694.902	2680.28
695.092	2727.38
695.281	2581.98
695.47	2674.14
695.659	2579.93
695.848	2555.35
696.037	2577.88
696.226	2577.88
696.415	2743.77
696.604	2676.18
696.793	2598.36
696.982	2688.47
697.171	2721.24
697.36	2700.76
697.549	2553.31
697.738	2624.98
697.927	2545.11
698.116	2723.29
698.305	2504.15
698.494	2696.66
698.683	2590.17
698.872	2616.79
699.061	2688.47
699.25	2547.16
699.438	2670.04
699.627	2735.57
699.816	2479.58
700.005	2596.31
700.193	2557.4
700.382	2618.84
700.571	2579.93
700.76	2344.41
700.948	2624.98
701.137	2569.69
701.326	2618.84
701.514	2604.5
701.703	2598.36
701.892	2637.27
702.08	2575.83
702.269	2506.2
702.457	2485.72
702.646	2555.35
702.834	2559.45
703.023	2553.31
703.212	2565.59
703.4	2682.33
703.589	2616.79
703.777	2614.74
703.965	2579.93
704.154	2446.81
704.342	2586.07
704.531	2495.96
704.719	2545.11
704.907	2534.87
705.096	2481.63
705.284	2670.04
705.472	2674.14
705.661	2602.46
705.849	2561.5
706.037	2545.11
706.226	2655.7
706.414	2618.84
706.602	2594.26
706.79	2469.34
706.979	2543.07
707.167	2543.07
707.355	2602.46
707.543	2452.95
707.731	2610.65
707.919	2565.59
708.107	2571.74
708.296	2483.67
708.484	2610.65
708.672	2485.72
708.86	2606.55
709.048	2545.11
709.236	2596.31
709.424	2522.59
709.612	2532.83
709.8	2465.24
709.988	2598.36
710.176	2608.6
710.364	2596.31
710.551	2530.78
710.739	2606.55
710.927	2579.93
711.115	2567.64
711.303	2565.59
711.491	2475.48
711.679	2508.25
711.866	2528.73
712.054	2577.88
712.242	2457.05
712.43	2678.23
712.617	2573.78
712.805	2491.87
712.993	2479.58
713.181	2520.54
713.368	2508.25
713.556	2479.58
713.744	2467.29
713.931	2667.99
714.119	2422.24
714.306	2661.85
714.494	2385.37
714.682	2475.48
714.869	2526.68
715.057	2643.42
715.244	2407.9
715.432	2594.26
715.619	2459.1
715.807	2514.39
715.994	2598.36
716.182	2553.31
716.369	2530.78
716.556	2498.01
716.744	2479.58
716.931	2536.92
717.119	2618.84
717.306	2479.58
717.493	2530.78
717.681	2586.07
717.868	2651.61
718.055	2553.31
718.242	2512.35
718.43	2512.35
718.617	2498.01
718.804	2567.64
718.991	2473.43
719.179	2545.11
719.366	2504.15
719.553	2452.95
719.74	2471.39
719.927	2489.82
720.114	2448.86
720.301	2524.63
720.488	2479.58
720.676	2452.95
720.863	2448.86
721.05	2485.72
721.237	2495.96
721.424	2584.02
721.611	2403.8
721.798	2412
721.985	2526.68
722.172	2455
722.358	2586.07
722.545	2510.3
722.732	2481.63
722.919	2442.71
723.106	2448.86
723.293	2514.39
723.48	2491.87
723.667	2434.52
723.853	2352.6
724.04	2522.59
724.227	2530.78
724.414	2479.58
724.6	2518.49
724.787	2373.08
724.974	2491.87
725.161	2487.77
725.347	2471.39
725.534	2565.59
725.72	2446.81
725.907	2319.84
726.094	2416.09
726.28	2467.29
726.467	2342.36
726.653	2436.57
726.84	2448.86
727.027	2461.15
727.213	2305.5
727.4	2354.65
727.586	2348.51
727.773	2438.62
727.959	2399.71
728.145	2504.15
728.332	2426.33
728.518	2391.52
728.705	2373.08
728.891	2538.97
729.077	2368.99
729.264	2395.61
729.45	2418.14
729.636	2412
729.823	2379.23
730.009	2446.81
730.195	2379.23
730.382	2426.33
730.568	2395.61
730.754	2459.1
730.94	2375.13
731.126	2399.71
731.313	2422.24
731.499	2323.93
731.685	2461.15
731.871	2452.95
732.057	2405.85
732.243	2342.36
732.429	2342.36
732.615	2362.84
732.801	2424.28
732.987	2350.56
733.173	2368.99
733.359	2242.01
733.545	2375.13
733.731	2297.31
733.917	2260.45
734.103	2452.95
734.289	2307.55
734.475	2178.53
734.661	2385.37
734.847	2375.13
735.033	2323.93
735.219	2272.73
735.404	2364.89
735.59	2266.59
735.776	2225.63
735.962	2260.45
736.148	2311.64
736.333	2268.64
736.519	2254.3
736.705	2299.36
736.89	2239.97
737.076	2219.49
737.262	2350.56
737.447	2301.4
737.633	2184.67
737.819	2248.16
738.004	2289.12
738.19	2305.5
738.375	2151.9
738.561	2211.29
738.747	2293.21
738.932	2225.63
739.118	2260.45
739.303	2137.57
739.489	2086.37
739.674	2176.48
739.859	2162.14
740.045	2219.49
740.23	2135.52
740.416	2035.17
740.601	2078.18
740.786	2127.33
740.972	2037.22
741.157	2069.98
741.342	2106.85
741.528	2106.85
741.713	2123.23
741.898	2072.03
742.084	2129.38
742.269	2254.3
742.454	2069.98
742.639	2096.61
742.824	2119.14
743.01	1996.26
743.195	2029.03
743.38	1975.78
743.565	2069.98
743.75	1988.07
743.935	1955.3
744.12	2031.07
744.305	1967.59
744.49	2010.59
744.675	2018.79
744.86	1977.83
745.045	1900
745.23	1904.1
745.415	1967.59
745.6	1934.82
745.785	1932.77
745.97	1908.19
746.155	1883.62
746.34	1949.15
746.525	1834.47
746.71	1951.2
746.895	1852.9
747.079	1828.32
747.264	1895.91
747.449	1852.9
747.634	1809.89
747.819	1721.83
748.003	1713.64
748.188	1697.25
748.373	1770.98
748.557	1660.39
748.742	1701.35
748.927	1777.12
749.111	1818.08
749.296	1697.25
749.481	1611.24
749.665	1664.49
749.85	1588.71
750.034	1662.44
750.219	1588.71
750.404	1719.78
750.588	1543.66
750.773	1627.62
750.957	1662.44
751.141	1517.03
751.326	1549.8
751.51	1510.89
751.695	1486.31
751.879	1668.58
752.064	1592.81
752.248	1521.13
752.432	1613.29
752.617	1461.74
752.801	1557.99
752.985	1486.31
753.17	1445.35
753.354	1484.27
753.538	1463.79
753.722	1365.48
753.907	1498.6
754.091	1330.67
754.275	1357.29
754.459	1447.4
754.643	1351.15
754.828	1453.55
755.012	1388.01
755.196	1310.19
755.38	1332.72
755.564	1318.38
755.748	1302
755.932	1302
756.116	1316.33
756.3	1390.06
756.484	1273.32
756.668	1252.84
756.852	1193.45
757.036	1238.51
757.22	1265.13
757.404	1234.41
757.588	1218.03
757.772	1283.56
757.956	1261.04
758.14	1146.35
758.323	1226.22
758.507	1228.27
758.691	1195.5
758.875	1242.61
759.059	1240.56
759.242	1263.08
759.426	1099.25
759.61	1160.69
759.794	1160.69
759.977	1103.34
760.161	1121.77
760.345	1093.1
760.528	1025.52
760.712	1119.73
760.895	1142.25
761.079	1089.01
761.263	1011.18
761.446	1179.12
761.63	1043.95
761.813	1084.91
761.997	1123.82
762.18	1025.52
762.364	998.9
762.547	982.51
762.731	1086.96
762.914	974.32
763.098	986.61
763.281	1146.35
763.464	984.56
763.648	1095.15
763.831	957.94
764.015	914.93
764.198	892.4
764.381	1084.91
764.564	1011.18
764.748	982.51
764.931	1048.05
765.114	914.93
765.297	982.51
765.481	925.17
765.664	843.25
765.847	982.51
766.03	959.99
766.213	894.45
766.397	912.88
766.58	949.75
766.763	902.64
766.946	990.7
767.129	953.84
767.312	1007.09
767.495	902.64
767.678	812.53
767.861	929.27
768.044	912.88
768.227	892.4
768.41	751.09
768.593	884.21
768.776	886.26
768.959	810.48
769.142	888.31
769.324	869.87
769.507	853.49
769.69	812.53
769.873	902.64
770.056	962.03
770.239	921.07
770.421	894.45
770.604	878.07
770.787	787.96
770.97	806.39
771.152	798.2
771.335	812.53
771.518	855.54
771.7	884.21
771.883	867.83
772.066	890.35
772.248	824.82
772.431	783.86
772.613	830.96
772.796	787.96
772.978	714.23
773.161	841.2
773.343	777.72
773.526	779.76
773.708	718.33
773.891	777.72
774.073	683.51
774.256	724.47
774.438	742.9
774.621	740.85
774.803	724.47
774.985	667.13
775.168	744.95
775.35	785.91
775.532	693.75
775.715	718.33
775.897	634.36
776.079	732.66
776.261	671.22
776.444	699.89
776.626	718.33
776.808	656.89
776.99	663.03
777.173	656.89
777.355	640.5
777.537	597.49
777.719	720.37
777.901	570.87
778.083	714.23
778.265	673.27
778.447	703.99
778.629	558.58
778.811	620.02
778.993	642.55
779.175	583.16
779.357	593.4
779.539	622.07
779.721	632.31
779.903	665.08
780.085	599.54
780.267	566.78
780.449	585.21
780.631	583.16
780.812	513.53
780.994	597.49
781.176	591.35
781.358	589.3
781.54	572.92
781.721	587.26
781.903	583.16
782.085	478.71
782.267	538.1
782.448	591.35
782.63	554.49
782.812	581.11
782.993	591.35
783.175	493.05
783.357	521.72
783.538	511.48
783.72	435.71
783.901	491
784.083	427.51
784.264	546.3
784.446	374.27
784.627	458.23
784.809	501.24
784.99	435.71
785.172	495.1
785.353	443.9
785.535	468.47
785.716	454.14
785.897	454.14
786.079	482.81
786.26	445.95
786.441	445.95
786.623	458.23
786.804	409.08
786.985	431.61
787.167	454.14
787.348	370.17
787.529	445.95
787.71	407.03
787.891	404.99
788.073	349.69
788.254	280.06
788.435	376.31
788.616	361.98
788.797	337.4
788.978	394.75
789.159	275.96
789.34	349.69
789.522	278.01
789.703	302.59
789.884	415.23
790.065	402.94
790.246	386.55
790.427	347.64
790.607	386.55
790.788	366.07
790.969	374.27
791.15	327.16
791.331	331.26
791.512	376.31
791.693	359.93
791.874	294.4
792.054	323.07
792.235	321.02
792.416	265.72
792.597	353.79
792.778	351.74
792.958	355.83
793.139	304.64
793.32	302.59
793.5	302.59
793.681	321.02
793.862	323.07
794.042	329.21
794.223	288.25
794.404	345.59
794.584	280.06
794.765	290.3
794.945	239.1
795.126	333.31
795.306	259.58
795.487	308.73
795.667	220.67
795.848	368.12
796.028	261.63
796.209	308.73
796.389	181.76
796.57	318.97
796.75	224.76
796.93	318.97
797.111	202.24
797.291	302.59
797.471	263.68
797.652	271.87
797.832	263.68
798.012	292.35
798.192	284.16
798.373	308.73
798.553	273.92
798.733	259.58
798.913	261.63
799.093	259.58
799.274	290.3
799.454	187.9
799.634	300.54
799.814	323.07
799.994	284.16
800.174	181.76
800.354	235
800.534	265.72
800.714	206.33
800.894	212.48
801.074	249.34
801.254	208.38
801.434	183.81
801.614	249.34
801.794	220.67
801.974	681.46
802.154	163.33
802.334	218.62
802.514	230.91
802.693	198.14
802.873	224.76
803.053	249.34
803.233	169.47
803.413	292.35
803.592	241.15
803.772	284.16
803.952	189.95
804.131	228.86
804.311	224.76
804.491	263.68
804.67	130.56
804.85	218.62
805.03	218.62
805.209	218.62
805.389	251.39
805.568	206.33
805.748	157.18
805.928	292.35
806.107	214.52
806.287	210.43
806.466	192
806.646	181.76
806.825	161.28
807.004	228.86
807.184	138.75
807.363	194.05
807.543	108.03
807.722	177.66
807.901	230.91
808.081	228.86
808.26	95.74
808.439	202.24
808.619	171.52
808.798	206.33
808.977	87.55
809.156	222.72
809.336	140.8
809.515	132.61
809.694	101.89
809.873	173.57
810.052	187.9
810.231	200.19
810.411	210.43
810.59	187.9
810.769	167.42
810.948	202.24
811.127	140.8
811.306	179.71
811.485	148.99
811.664	153.09
811.843	157.18
812.022	249.34
812.201	173.57
812.38	136.7
812.559	132.61
812.737	134.65
812.916	83.45
813.095	91.65
813.274	93.69
813.453	81.41
813.632	126.46
813.811	157.18
813.989	130.56
814.168	204.28
814.347	116.22
814.526	216.57
814.704	140.8
814.883	177.66
815.062	138.75
815.24	95.74
815.419	89.6
815.598	192
815.776	118.27
815.955	95.74
816.133	118.27
816.312	136.7
816.49	44.54
816.669	136.7
816.847	122.37
817.026	153.09
817.204	136.7
817.383	155.13
817.561	140.8
817.74	189.95
817.918	169.47
818.097	108.03
818.275	85.5
818.453	122.37
818.632	146.94
818.81	83.45
818.988	144.89
819.167	175.61
819.345	192
819.523	177.66
819.701	163.33
819.879	148.99
820.058	140.8
820.236	128.51
820.414	40.45
820.592	52.74
820.77	69.12
820.948	134.65
821.127	165.37
821.305	161.28
821.483	89.6
821.661	159.23
821.839	62.98
822.017	48.64
822.195	24.06
822.373	157.18
822.551	157.18
822.729	99.84
822.907	144.89
823.085	91.65
823.262	79.36
823.44	89.6
823.618	114.17
823.796	105.98
823.974	44.54
824.152	97.79
824.329	34.3
824.507	146.94
824.685	77.31
824.863	112.13
825.04	38.4
825.218	171.52
825.396	85.5
825.574	153.09
825.751	120.32
825.929	58.88
826.107	58.88
826.284	108.03
826.462	114.17
826.639	56.83
826.817	95.74
826.994	73.21
827.172	65.02
827.349	112.13
827.527	62.98
827.704	105.98
827.882	54.78
828.059	73.21
828.237	60.93
828.414	124.41
828.591	81.41
828.769	93.69
828.946	-8.7
829.124	75.26
829.301	134.65
829.478	136.7
829.655	130.56
829.833	56.83
830.01	67.07
830.187	120.32
830.364	56.83
830.542	177.66
830.719	19.97
830.896	73.21
831.073	34.3
831.25	73.21
831.427	99.84
831.604	108.03
831.782	77.31
831.959	99.84
832.136	97.79
832.313	105.98
832.49	69.12
832.667	77.31
832.844	89.6
833.021	148.99
833.198	58.88
833.374	46.59
833.551	62.98
833.728	97.79
833.905	89.6
834.082	60.93
834.259	75.26
834.436	69.12
834.612	26.11
834.789	17.92
834.966	105.98
835.143	93.69
835.319	67.07
835.496	17.92
835.673	95.74
835.85	97.79
836.026	58.88
836.203	122.37
836.38	22.02
836.556	124.41
836.733	67.07
836.909	110.08
837.086	38.4
837.262	97.79
837.439	146.94
837.616	60.93
837.792	30.21
837.968	105.98
838.145	54.78
838.321	89.6
838.498	7.68
838.674	67.07
838.851	38.4
839.027	128.51
839.203	93.69
839.38	34.3
839.556	52.74
839.732	42.5
839.909	-27.14
840.085	95.74
840.261	120.32
840.437	28.16
840.614	-14.85
840.79	144.89
840.966	83.45
841.142	67.07
841.318	44.54
841.494	52.74
841.671	87.55
841.847	48.64
842.023	-16.9
842.199	46.59
842.375	126.46
842.551	32.26
842.727	79.36
842.903	75.26
843.079	32.26
843.255	-6.66
843.431	48.64
843.607	5.63
843.783	110.08
843.959	40.45
844.134	48.64
844.31	11.78
844.486	44.54
844.662	17.92
844.838	-12.8
845.013	81.41
845.189	105.98
845.365	54.78
845.541	-2.56
845.716	50.69
845.892	-10.75
846.068	50.69
846.244	54.78
846.419	42.5
846.595	-29.18
846.77	11.78
846.946	60.93
847.122	26.11
847.297	60.93
847.473	87.55
847.648	40.45
847.824	91.65
847.999	26.11
848.175	114.17
848.35	87.55
848.526	13.82
848.701	36.35
848.876	58.88
849.052	-29.18
849.227	52.74
849.403	24.06
849.578	24.06
849.753	38.4
849.929	99.84
850.104	48.64
850.279	89.6
850.454	114.17
850.63	95.74
850.805	93.69
850.98	58.88
851.155	26.11
851.33	60.93
851.505	22.02
851.681	148.99
851.856	13.82
852.031	36.35
852.206	71.17
852.381	36.35
852.556	58.88
852.731	77.31
852.906	-14.85
853.081	-14.85
853.256	-8.7
853.431	85.5
853.606	1.54
853.781	34.3
853.956	87.55
854.131	5.63
854.305	-2.56
854.48	-31.23
854.655	1.54
854.83	38.4
855.005	46.59
855.18	69.12
855.354	-20.99
855.529	105.98
855.704	24.06
855.879	13.82
856.053	-12.8
856.228	77.31
856.403	-25.09
856.577	52.74
856.752	22.02
856.926	28.16
857.101	-86.53
857.276	-6.66
857.45	91.65
857.625	30.21
857.799	32.26
857.974	81.41
858.148	69.12
858.323	52.74
858.497	36.35
858.672	24.06
858.846	62.98
859.02	91.65
859.195	89.6
859.369	-8.7
859.543	-0.51
859.718	-6.66
859.892	-10.75
860.066	67.07
860.241	-20.99
860.415	38.4
860.589	65.02
860.763	40.45
860.938	22.02
861.112	24.06
861.286	67.07
861.46	-35.33
861.634	26.11
861.808	120.32
861.982	15.87
862.157	-0.51
862.331	-18.94
862.505	-29.18
862.679	-23.04
862.853	-12.8
863.027	-23.04
863.201	-10.75
863.375	-25.09
863.549	81.41
863.722	7.68
863.896	50.69
864.07	62.98
864.244	34.3
864.418	22.02
864.592	44.54
864.766	-35.33
864.939	5.63
865.113	17.92
865.287	28.16
865.461	-2.56
865.634	44.54
865.808	30.21
865.982	40.45
866.156	-10.75
866.329	60.93
866.503	-12.8
866.676	19.97
866.85	9.73
867.024	7.68
867.197	26.11
867.371	-10.75
867.544	3.58
867.718	-82.43
867.891	103.93
868.065	-35.33
868.238	69.12
868.412	42.5
868.585	19.97
868.759	-72.19
868.932	-2.56
869.105	3.58
869.279	-14.85
869.452	30.21
869.625	44.54
869.799	22.02
869.972	40.45
870.145	19.97
870.319	-16.9
870.492	60.93
870.665	26.11
870.838	28.16
871.011	19.97
871.185	7.68
871.358	48.64
871.531	-4.61
871.704	-14.85
871.877	-39.42
872.05	-41.47
872.223	-57.86
872.396	58.88
872.569	19.97
872.742	34.3
872.915	67.07
873.088	24.06
873.261	42.5
873.434	13.82
873.607	54.78
873.78	101.89
873.953	26.11
874.126	48.64
874.299	-23.04
874.471	17.92
874.644	-0.51
874.817	56.83
874.99	24.06
875.163	-10.75
875.335	1.54
875.508	-18.94
875.681	52.74
875.853	19.97
876.026	-18.94
876.199	58.88
876.371	71.17
876.544	13.82
876.717	32.26
876.889	40.45
877.062	13.82
877.234	34.3
877.407	-53.76
877.579	-39.42
877.752	15.87
877.924	32.26
878.097	89.6
878.269	22.02
878.442	30.21
878.614	-18.94
878.786	-39.42
878.959	-47.62
879.131	-23.04
879.303	-23.04
879.476	5.63
879.648	50.69
879.82	19.97
879.993	-66.05
880.165	5.63
880.337	5.63
880.509	89.6
880.681	38.4
880.854	-23.04
881.026	-6.66
881.198	36.35
881.37	-0.51
881.542	-29.18
881.714	-35.33
881.886	40.45
882.058	46.59
882.23	-49.66
882.402	1.54
882.574	22.02
882.746	-2.56
882.918	81.41
883.09	-29.18
883.262	-8.7
883.434	17.92
883.606	28.16
883.778	15.87
883.95	40.45
884.122	13.82
884.293	38.4
884.465	-20.99
884.637	38.4
884.809	22.02
884.98	32.26
885.152	32.26
885.324	-2.56
885.496	-31.23
885.667	-0.51
885.839	3.58
886.011	22.02
886.182	-10.75
886.354	73.21
886.525	19.97
886.697	9.73
886.869	75.26
887.04	1.54
887.212	26.11
887.383	75.26
887.555	7.68
887.726	62.98
887.897	-31.23
888.069	56.83
888.24	-8.7
888.412	-35.33
888.583	17.92
888.754	71.17
888.926	81.41
889.097	91.65
889.268	30.21
889.44	7.68
889.611	-53.76
889.782	24.06
889.953	-86.53
890.125	56.83
890.296	-51.71
890.467	-14.85
890.638	-29.18
890.809	-86.53
890.98	-18.94
891.151	11.78
891.323	19.97
891.494	24.06
891.665	19.97
891.836	-10.75
892.007	77.31
892.178	58.88
892.349	5.63
892.52	-12.8
892.691	-8.7
892.862	-20.99
893.032	-43.52
893.203	5.63
893.374	-10.75
893.545	73.21
893.716	17.92
893.887	42.5
894.057	-41.47
894.228	77.31
894.399	11.78
894.57	34.3
894.74	44.54
894.911	32.26
895.082	-41.47
895.253	-33.28
895.423	17.92
895.594	42.5
895.764	44.54
895.935	-35.33
896.106	13.82
896.276	19.97
896.447	-6.66
896.617	-12.8
896.788	-43.52
896.958	3.58
897.129	-107.01
897.299	17.92
897.47	128.51
897.64	5.63
897.81	-37.38
897.981	-6.66
898.151	-33.28
898.322	-39.42
898.492	-35.33
898.662	46.59
898.832	-66.05
899.003	-0.51
899.173	38.4
899.343	40.45
899.513	-100.86
