Data from USB4F104151__32__12-00-41-878.txt Node

Date: Fri Mar 14 12:00:41 EDT 2025
User: louis
Spectrometer: USB4F10415
Trigger mode: 4
Integration Time (sec): 2.000000E-2
Scans to average: 1
Electric dark correction enabled: true
Nonlinearity correction enabled: false
Boxcar width: 0
XAxis mode: Wavelengths
Number of Pixels in Spectrum: 3648
>>>>>Begin Spectral Data<<<<<
178.204	-68.95
178.424	-68.95
178.644	-68.95
178.864	-73.04
179.084	-71
179.304	-38.23
179.524	45.74
179.744	-89.43
179.964	-1.37
180.184	31.4
180.404	8.87
180.624	25.26
180.844	-5.46
181.064	-11.61
181.283	37.55
181.503	-1.37
181.723	-1.37
181.943	6.83
182.163	53.93
182.383	76.46
182.602	21.16
182.822	62.12
183.042	84.65
183.262	45.74
183.482	27.31
183.701	27.31
183.921	12.97
184.141	-5.46
184.361	49.83
184.58	12.97
184.8	15.02
185.02	-46.42
185.239	51.88
185.459	49.83
185.679	8.87
185.898	-21.85
186.118	60.07
186.338	-9.56
186.557	43.69
186.777	-25.94
186.997	55.98
187.216	19.11
187.436	-36.18
187.655	82.6
187.875	94.89
188.095	41.64
188.314	98.99
188.534	146.09
188.753	-62.8
188.973	103.08
189.192	17.07
189.412	-30.04
189.631	15.02
189.851	19.11
190.07	6.83
190.29	12.97
190.509	-34.13
190.729	27.31
190.948	49.83
191.168	129.7
191.387	68.27
191.607	-81.24
191.826	-25.94
192.045	17.07
192.265	82.6
192.484	55.98
192.704	8.87
192.923	58.03
193.142	60.07
193.362	12.97
193.581	25.26
193.8	-34.13
194.02	31.4
194.239	78.51
194.458	33.45
194.678	15.02
194.897	4.78
195.116	70.31
195.335	19.11
195.555	64.17
195.774	35.5
195.993	23.21
196.212	51.88
196.432	43.69
196.651	-25.94
196.87	70.31
197.089	45.74
197.308	51.88
197.528	86.7
197.747	-42.32
197.966	19.11
198.185	49.83
198.404	64.17
198.623	25.26
198.842	45.74
199.062	37.55
199.281	92.84
199.5	-15.7
199.719	2.73
199.938	2.73
200.157	39.59
200.376	29.35
200.595	98.99
200.814	-11.61
201.033	107.18
201.252	64.17
201.471	35.5
201.69	21.16
201.909	17.07
202.128	84.65
202.347	60.07
202.566	74.41
202.785	35.5
203.004	17.07
203.223	92.84
203.442	-23.89
203.661	-36.18
203.879	-13.65
204.098	-19.8
204.317	23.21
204.536	8.87
204.755	43.69
204.974	119.46
205.193	94.89
205.411	90.79
205.63	4.78
205.849	55.98
206.068	64.17
206.287	51.88
206.505	-13.65
206.724	23.21
206.943	0.68
207.162	47.79
207.381	-5.46
207.599	17.07
207.818	27.31
208.037	2.73
208.255	29.35
208.474	15.02
208.693	25.26
208.911	-1.37
209.13	29.35
209.349	19.11
209.567	31.4
209.786	-7.51
210.005	43.69
210.223	39.59
210.442	-23.89
210.661	23.21
210.879	19.11
211.098	45.74
211.316	92.84
211.535	80.55
211.753	84.65
211.972	15.02
212.191	-44.37
212.409	58.03
212.628	23.21
212.846	49.83
213.065	-32.08
213.283	115.37
213.502	-27.99
213.72	-7.51
213.938	80.55
214.157	33.45
214.375	0.68
214.594	21.16
214.812	88.75
215.031	-27.99
215.249	82.6
215.467	21.16
215.686	29.35
215.904	-25.94
216.122	21.16
216.341	78.51
216.559	27.31
216.778	41.64
216.996	76.46
217.214	-3.41
217.432	-13.65
217.651	2.73
217.869	41.64
218.087	47.79
218.306	21.16
218.524	58.03
218.742	-1.37
218.96	39.59
219.179	43.69
219.397	66.22
219.615	60.07
219.833	39.59
220.051	-15.7
220.27	45.74
220.488	17.07
220.706	33.45
220.924	45.74
221.142	12.97
221.36	-21.85
221.578	101.03
221.796	-9.56
222.015	62.12
222.233	35.5
222.451	-7.51
222.669	39.59
222.887	49.83
223.105	33.45
223.323	39.59
223.541	74.41
223.759	-1.37
223.977	47.79
224.195	39.59
224.413	41.64
224.631	41.64
224.849	43.69
225.067	86.7
225.285	111.27
225.503	35.5
225.721	-46.42
225.939	98.99
226.157	17.07
226.375	39.59
226.592	-36.18
226.81	76.46
227.028	23.21
227.246	62.12
227.464	76.46
227.682	31.4
227.9	96.94
228.117	-11.61
228.335	92.84
228.553	8.87
228.771	66.22
228.989	12.97
229.206	39.59
229.424	35.5
229.642	25.26
229.86	82.6
230.077	-60.76
230.295	66.22
230.513	72.36
230.731	96.94
230.948	25.26
231.166	68.27
231.384	86.7
231.601	4.78
231.819	43.69
232.037	41.64
232.254	29.35
232.472	43.69
232.689	21.16
232.907	80.55
233.125	0.68
233.342	45.74
233.56	39.59
233.777	107.18
233.995	37.55
234.213	72.36
234.43	-11.61
234.648	74.41
234.865	37.55
235.083	23.21
235.3	47.79
235.518	72.36
235.735	45.74
235.953	90.79
236.17	47.79
236.388	39.59
236.605	45.74
236.822	96.94
237.04	60.07
237.257	-9.56
237.475	4.78
237.692	64.17
237.909	10.92
238.127	66.22
238.344	51.88
238.562	68.27
238.779	74.41
238.996	2.73
239.214	0.68
239.431	-5.46
239.648	-13.65
239.865	43.69
240.083	15.02
240.3	15.02
240.517	12.97
240.735	-3.41
240.952	55.98
241.169	105.13
241.386	41.64
241.603	43.69
241.821	4.78
242.038	45.74
242.255	98.99
242.472	-79.19
242.689	-34.13
242.907	-30.04
243.124	-17.75
243.341	43.69
243.558	-30.04
243.775	51.88
243.992	45.74
244.209	19.11
244.426	27.31
244.643	51.88
244.86	21.16
245.078	-5.46
245.295	2.73
245.512	74.41
245.729	12.97
245.946	64.17
246.163	53.93
246.38	35.5
246.597	-15.7
246.814	60.07
247.031	49.83
247.248	84.65
247.464	-19.8
247.681	21.16
247.898	27.31
248.115	55.98
248.332	19.11
248.549	2.73
248.766	86.7
248.983	-7.51
249.2	-9.56
249.417	64.17
249.633	19.11
249.85	15.02
250.067	78.51
250.284	10.92
250.501	80.55
250.717	29.35
250.934	-11.61
251.151	35.5
251.368	-32.08
251.585	74.41
251.801	29.35
252.018	-13.65
252.235	53.93
252.451	0.68
252.668	55.98
252.885	10.92
253.102	4.78
253.318	37.55
253.535	-7.51
253.752	12.97
253.968	49.83
254.185	29.35
254.401	45.74
254.618	88.75
254.835	2.73
255.051	90.79
255.268	41.64
255.484	25.26
255.701	33.45
255.917	51.88
256.134	23.21
256.351	94.89
256.567	64.17
256.784	37.55
257	53.93
257.217	27.31
257.433	39.59
257.65	62.12
257.866	10.92
258.082	-27.99
258.299	10.92
258.515	45.74
258.732	-13.65
258.948	6.83
259.165	45.74
259.381	-3.41
259.597	-48.47
259.814	49.83
260.03	43.69
260.246	119.46
260.463	-23.89
260.679	80.55
260.895	2.73
261.112	-15.7
261.328	8.87
261.544	74.41
261.761	53.93
261.977	4.78
262.193	-50.52
262.409	45.74
262.626	29.35
262.842	17.07
263.058	19.11
263.274	6.83
263.49	29.35
263.707	45.74
263.923	88.75
264.139	6.83
264.355	111.27
264.571	58.03
264.787	45.74
265.004	64.17
265.22	0.68
265.436	58.03
265.652	72.36
265.868	60.07
266.084	12.97
266.3	127.66
266.516	37.55
266.732	-23.89
266.948	55.98
267.164	31.4
267.38	109.22
267.596	74.41
267.812	58.03
268.028	21.16
268.244	115.37
268.46	62.12
268.676	-9.56
268.892	27.31
269.108	33.45
269.324	60.07
269.54	10.92
269.756	39.59
269.972	-5.46
270.188	21.16
270.403	-23.89
270.619	115.37
270.835	17.07
271.051	51.88
271.267	-19.8
271.483	55.98
271.698	31.4
271.914	45.74
272.13	8.87
272.346	37.55
272.562	-9.56
272.777	29.35
272.993	27.31
273.209	84.65
273.425	47.79
273.64	35.5
273.856	105.13
274.072	64.17
274.287	2.73
274.503	47.79
274.719	131.75
274.934	2.73
275.15	72.36
275.366	29.35
275.581	21.16
275.797	37.55
276.012	96.94
276.228	62.12
276.444	33.45
276.659	60.07
276.875	58.03
277.09	49.83
277.306	64.17
277.521	19.11
277.737	0.68
277.952	88.75
278.168	103.08
278.383	27.31
278.599	17.07
278.814	-7.51
279.03	70.31
279.245	107.18
279.461	-3.41
279.676	-19.8
279.892	-34.13
280.107	-27.99
280.322	-21.85
280.538	68.27
280.753	19.11
280.969	-40.28
281.184	-1.37
281.399	66.22
281.615	78.51
281.83	6.83
282.045	51.88
282.26	0.68
282.476	90.79
282.691	35.5
282.906	-25.94
283.122	-25.94
283.337	43.69
283.552	-19.8
283.767	35.5
283.983	-13.65
284.198	41.64
284.413	92.84
284.628	-23.89
284.843	68.27
285.058	86.7
285.274	66.22
285.489	43.69
285.704	72.36
285.919	47.79
286.134	86.7
286.349	-11.61
286.564	-25.94
286.779	80.55
286.995	88.75
287.21	0.68
287.425	-1.37
287.64	27.31
287.855	4.78
288.07	45.74
288.285	92.84
288.5	8.87
288.715	117.42
288.93	8.87
289.145	55.98
289.36	64.17
289.575	-27.99
289.79	92.84
290.004	70.31
290.219	58.03
290.434	51.88
290.649	10.92
290.864	-30.04
291.079	68.27
291.294	41.64
291.509	64.17
291.724	17.07
291.938	33.45
292.153	47.79
292.368	33.45
292.583	49.83
292.798	19.11
293.012	6.83
293.227	39.59
293.442	66.22
293.657	78.51
293.871	70.31
294.086	41.64
294.301	29.35
294.516	27.31
294.73	92.84
294.945	-3.41
295.16	10.92
295.374	127.66
295.589	86.7
295.804	10.92
296.018	64.17
296.233	84.65
296.447	19.11
296.662	41.64
296.877	60.07
297.091	27.31
297.306	25.26
297.52	23.21
297.735	17.07
297.949	47.79
298.164	37.55
298.378	39.59
298.593	41.64
298.807	37.55
299.022	19.11
299.236	47.79
299.451	92.84
299.665	53.93
299.88	-3.41
300.094	-15.7
300.309	29.35
300.523	-3.41
300.737	49.83
300.952	53.93
301.166	103.08
301.381	47.79
301.595	-25.94
301.809	45.74
302.024	27.31
302.238	2.73
302.452	66.22
302.667	92.84
302.881	74.41
303.095	121.51
303.309	41.64
303.524	33.45
303.738	45.74
303.952	94.89
304.166	17.07
304.381	21.16
304.595	8.87
304.809	8.87
305.023	51.88
305.237	-13.65
305.452	60.07
305.666	21.16
305.88	86.7
306.094	62.12
306.308	-11.61
306.522	74.41
306.736	78.51
306.95	68.27
307.164	49.83
307.379	84.65
307.593	103.08
307.807	12.97
308.021	72.36
308.235	31.4
308.449	10.92
308.663	74.41
308.877	113.32
309.091	23.21
309.305	62.12
309.519	0.68
309.733	37.55
309.947	105.13
310.161	68.27
310.374	58.03
310.588	64.17
310.802	29.35
311.016	10.92
311.23	39.59
311.444	43.69
311.658	41.64
311.872	62.12
312.085	103.08
312.299	8.87
312.513	31.4
312.727	60.07
312.941	64.17
313.154	27.31
313.368	-23.89
313.582	-11.61
313.796	47.79
314.009	109.22
314.223	4.78
314.437	78.51
314.651	60.07
314.864	35.5
315.078	-5.46
315.292	68.27
315.505	41.64
315.719	27.31
315.933	10.92
316.146	37.55
316.36	6.83
316.573	47.79
316.787	15.02
317.001	43.69
317.214	27.31
317.428	0.68
317.641	-23.89
317.855	53.93
318.068	-7.51
318.282	17.07
318.495	107.18
318.709	-1.37
318.922	39.59
319.136	115.37
319.349	66.22
319.563	39.59
319.776	76.46
319.99	98.99
320.203	58.03
320.417	6.83
320.63	70.31
320.843	90.79
321.057	8.87
321.27	64.17
321.483	51.88
321.697	78.51
321.91	-46.42
322.124	62.12
322.337	58.03
322.55	53.93
322.763	17.07
322.977	84.65
323.19	4.78
323.403	-32.08
323.617	15.02
323.83	90.79
324.043	39.59
324.256	86.7
324.469	25.26
324.683	21.16
324.896	4.78
325.109	35.5
325.322	-42.32
325.535	123.56
325.748	-11.61
325.962	103.08
326.175	82.6
326.388	72.36
326.601	-42.32
326.814	35.5
327.027	70.31
327.24	103.08
327.453	-11.61
327.666	84.65
327.879	107.18
328.092	49.83
328.305	45.74
328.518	53.93
328.731	31.4
328.944	45.74
329.157	74.41
329.37	51.88
329.583	31.4
329.796	15.02
330.009	25.26
330.222	45.74
330.435	58.03
330.648	55.98
330.861	-13.65
331.073	187.05
331.286	-3.41
331.499	37.55
331.712	0.68
331.925	101.03
332.138	2.73
332.35	125.61
332.563	37.55
332.776	8.87
332.989	-5.46
333.202	58.03
333.414	23.21
333.627	74.41
333.84	6.83
334.053	98.99
334.265	-17.75
334.478	25.26
334.691	133.8
334.903	98.99
335.116	17.07
335.329	10.92
335.541	109.22
335.754	33.45
335.966	33.45
336.179	49.83
336.392	70.31
336.604	62.12
336.817	0.68
337.029	23.21
337.242	55.98
337.454	58.03
337.667	88.75
337.88	90.79
338.092	31.4
338.305	68.27
338.517	17.07
338.729	121.51
338.942	21.16
339.154	15.02
339.367	19.11
339.579	47.79
339.792	78.51
340.004	121.51
340.217	0.68
340.429	43.69
340.641	19.11
340.854	55.98
341.066	82.6
341.278	58.03
341.491	123.56
341.703	43.69
341.915	8.87
342.128	64.17
342.34	-5.46
342.552	6.83
342.764	-15.7
342.977	19.11
343.189	70.31
343.401	101.03
343.613	8.87
343.826	27.31
344.038	-7.51
344.25	62.12
344.462	111.27
344.674	86.7
344.886	12.97
345.099	29.35
345.311	-17.75
345.523	53.93
345.735	12.97
345.947	64.17
346.159	39.59
346.371	58.03
346.583	84.65
346.795	113.32
347.007	76.46
347.219	53.93
347.431	31.4
347.643	84.65
347.855	47.79
348.067	84.65
348.279	58.03
348.491	70.31
348.703	90.79
348.915	39.59
349.127	53.93
349.339	62.12
349.551	62.12
349.763	101.03
349.975	76.46
350.187	86.7
350.399	21.16
350.61	47.79
350.822	76.46
351.034	39.59
351.246	-19.8
351.458	47.79
351.669	86.7
351.881	62.12
352.093	29.35
352.305	113.32
352.517	107.18
352.728	92.84
352.94	27.31
353.152	66.22
353.363	19.11
353.575	43.69
353.787	47.79
353.999	74.41
354.21	45.74
354.422	29.35
354.633	78.51
354.845	10.92
355.057	33.45
355.268	8.87
355.48	60.07
355.692	60.07
355.903	49.83
356.115	76.46
356.326	49.83
356.538	66.22
356.749	47.79
356.961	84.65
357.172	53.93
357.384	82.6
357.595	98.99
357.807	90.79
358.018	98.99
358.23	86.7
358.441	8.87
358.653	43.69
358.864	64.17
359.075	53.93
359.287	49.83
359.498	15.02
359.709	41.64
359.921	55.98
360.132	68.27
360.344	148.14
360.555	37.55
360.766	21.16
360.977	6.83
361.189	121.51
361.4	39.59
361.611	66.22
361.823	21.16
362.034	45.74
362.245	33.45
362.456	82.6
362.667	37.55
362.879	6.83
363.09	203.43
363.301	86.7
363.512	76.46
363.723	53.93
363.935	17.07
364.146	27.31
364.357	88.75
364.568	117.42
364.779	4.78
364.99	47.79
365.201	29.35
365.412	125.61
365.623	58.03
365.834	86.7
366.045	121.51
366.256	86.7
366.467	92.84
366.678	72.36
366.889	49.83
367.1	70.31
367.311	76.46
367.522	41.64
367.733	119.46
367.944	84.65
368.155	66.22
368.366	49.83
368.577	-32.08
368.788	70.31
368.999	98.99
369.209	121.51
369.42	160.42
369.631	146.09
369.842	-54.61
370.053	72.36
370.264	117.42
370.474	15.02
370.685	58.03
370.896	39.59
371.107	137.9
371.317	-11.61
371.528	92.84
371.739	53.93
371.95	15.02
372.16	105.13
372.371	78.51
372.582	60.07
372.792	51.88
373.003	70.31
373.214	8.87
373.424	152.23
373.635	51.88
373.846	86.7
374.056	-15.7
374.267	76.46
374.477	25.26
374.688	70.31
374.898	80.55
375.109	58.03
375.319	15.02
375.53	37.55
375.74	84.65
375.951	27.31
376.161	53.93
376.372	0.68
376.582	21.16
376.793	78.51
377.003	-3.41
377.214	27.31
377.424	66.22
377.635	72.36
377.845	29.35
378.055	158.38
378.266	37.55
378.476	47.79
378.686	23.21
378.897	92.84
379.107	101.03
379.317	66.22
379.528	47.79
379.738	53.93
379.948	37.55
380.158	33.45
380.369	74.41
380.579	29.35
380.789	70.31
380.999	-7.51
381.21	92.84
381.42	55.98
381.63	76.46
381.84	141.99
382.05	66.22
382.261	49.83
382.471	137.9
382.681	39.59
382.891	76.46
383.101	37.55
383.311	55.98
383.521	144.04
383.731	66.22
383.941	33.45
384.151	31.4
384.361	94.89
384.571	58.03
384.781	6.83
384.991	129.7
385.201	76.46
385.411	2.73
385.621	86.7
385.831	90.79
386.041	92.84
386.251	17.07
386.461	135.85
386.671	84.65
386.881	29.35
387.091	53.93
387.301	137.9
387.511	117.42
387.72	84.65
387.93	80.55
388.14	60.07
388.35	84.65
388.56	72.36
388.769	129.7
388.979	60.07
389.189	109.22
389.399	62.12
389.609	115.37
389.818	96.94
390.028	129.7
390.238	133.8
390.447	78.51
390.657	76.46
390.867	76.46
391.076	76.46
391.286	109.22
391.496	111.27
391.705	84.65
391.915	109.22
392.125	33.45
392.334	74.41
392.544	172.71
392.753	105.13
392.963	109.22
393.172	111.27
393.382	41.64
393.591	119.46
393.801	86.7
394.01	121.51
394.22	96.94
394.429	82.6
394.639	109.22
394.848	109.22
395.058	92.84
395.267	131.75
395.477	162.47
395.686	107.18
395.895	123.56
396.105	174.76
396.314	146.09
396.524	129.7
396.733	144.04
396.942	174.76
397.152	144.04
397.361	150.18
397.57	117.42
397.78	107.18
397.989	127.66
398.198	168.62
398.407	125.61
398.617	141.99
398.826	103.08
399.035	135.85
399.244	154.28
399.453	158.38
399.663	90.79
399.872	144.04
400.081	164.52
400.29	217.77
400.499	160.42
400.708	105.13
400.917	150.18
401.127	193.19
401.336	135.85
401.545	189.1
401.754	174.76
401.963	88.75
402.172	215.72
402.381	121.51
402.59	103.08
402.799	174.76
403.008	146.09
403.217	121.51
403.426	174.76
403.635	141.99
403.844	127.66
404.053	199.34
404.262	129.7
404.471	203.43
404.68	187.05
404.888	117.42
405.097	139.94
405.306	199.34
405.515	309.93
405.724	127.66
405.933	266.92
406.142	117.42
406.35	299.69
406.559	293.54
406.768	256.68
406.977	340.65
407.185	264.87
407.394	213.67
407.603	264.87
407.812	326.31
408.02	326.31
408.229	303.78
408.438	297.64
408.646	246.44
408.855	287.4
409.064	389.8
409.272	311.97
409.481	381.6
409.69	369.32
409.898	387.75
410.107	412.32
410.315	481.96
410.524	438.95
410.733	367.27
410.941	467.62
411.15	469.67
411.358	494.24
411.567	551.59
411.775	479.91
411.984	572.07
412.192	635.55
412.401	645.79
412.609	623.27
412.818	694.94
413.026	750.24
413.234	651.94
413.443	740
413.651	645.79
413.86	754.34
414.068	778.91
414.276	842.4
414.485	778.91
414.693	842.4
414.901	944.8
415.11	993.95
415.318	817.82
415.526	1065.63
415.734	959.13
415.943	1051.29
416.151	1012.38
416.359	1079.96
416.567	1137.31
416.776	1153.69
416.984	1272.47
417.192	1282.71
417.4	1321.62
417.608	1270.42
417.817	1374.87
418.025	1426.07
418.233	1516.18
418.441	1507.99
418.649	1557.14
418.857	1704.59
419.065	1708.69
419.273	1753.74
419.481	1763.98
419.689	1968.78
419.897	2030.22
420.105	2054.8
420.313	2110.09
420.521	2249.35
420.729	2081.42
420.937	2308.74
421.145	2417.29
421.353	2462.34
421.561	2665.09
421.769	2691.71
421.977	2751.1
422.185	2701.95
422.393	2796.16
422.601	3121.79
422.809	3074.68
423.017	3062.4
423.224	3224.19
423.432	3207.8
423.64	3334.78
423.848	3619.44
424.056	3670.64
424.263	3830.38
424.471	3981.93
424.679	3912.3
424.887	4133.48
425.094	4149.87
425.302	4356.71
425.51	4358.76
425.718	4436.58
425.925	4612.71
426.133	4956.77
426.341	5116.51
426.548	5270.11
426.756	5261.91
426.964	5337.69
427.171	5595.73
427.379	5851.73
427.586	5888.59
427.794	6289.99
428.001	6457.93
428.209	6660.68
428.417	6466.12
428.624	7105.09
428.832	7164.48
429.039	6892.1
429.247	7039.55
429.454	7623.22
429.662	8008.24
429.869	7715.38
430.076	8274.48
430.284	7936.56
430.491	8573.48
430.699	8866.34
430.906	8690.21
431.114	9071.14
431.321	9308.7
431.528	9329.18
431.736	10025.49
431.943	10590.73
432.15	10181.14
432.358	10351.12
432.565	10916.36
432.772	11155.97
432.979	11393.53
433.187	11547.13
433.394	11770.36
433.601	12591.59
433.808	12757.48
434.016	12478.96
434.223	13097.44
434.43	13834.71
434.637	13457.89
434.844	14229.97
435.052	14827.98
435.259	14635.47
435.466	14680.52
435.673	14557.64
435.88	15780.28
436.087	16517.55
436.294	16218.55
436.501	16056.76
436.708	16394.67
436.915	16910.76
437.122	17775
437.329	17795.48
437.537	18385.3
437.743	18526.61
437.95	18379.15
438.157	19091.85
438.364	19796.35
438.571	19906.94
438.778	20291.96
438.985	21784.93
439.192	20762.99
439.399	21881.18
439.606	21592.42
439.813	22423.89
440.02	23734.59
440.227	23353.67
440.433	23126.35
440.64	23783.74
440.847	23814.46
441.054	24236.34
441.261	26042.65
441.467	25827.62
441.674	26177.82
441.881	27050.25
442.088	27265.29
442.294	26972.43
442.501	27781.38
442.708	28387.58
442.914	29174
443.121	30476.51
443.328	29751.52
443.534	31733.96
443.741	30789.84
443.948	30441.69
444.154	32645.3
444.361	32420.03
444.568	32895.16
444.774	32751.8
444.981	32938.16
445.187	34080.93
445.394	35424.4
445.6	34769.05
445.807	38238.31
446.013	36872.31
446.22	37601.39
446.426	38955.1
446.633	39163.99
446.839	40423.49
447.046	38885.47
447.252	40572.99
447.459	41015.35
447.665	40710.21
447.871	42688.54
448.078	44257.29
448.284	42496.03
448.491	43341.85
448.697	45029.37
448.903	45711.35
449.11	45551.6
449.316	44820.48
449.522	45901.81
449.728	46989.28
449.935	47470.55
450.141	47321.05
450.347	48148.43
450.553	46737.38
450.76	47552.47
450.966	48865.22
451.172	47972.3
451.378	49217.47
451.584	48347.08
451.791	49270.71
451.997	49065.92
452.203	50018.22
452.409	50147.25
452.615	49987.5
452.821	48072.65
453.027	47556.56
453.233	49854.39
453.44	48283.59
453.646	47951.82
453.852	48668.61
454.058	49647.54
454.264	47853.52
454.47	48830.4
454.676	48046.03
454.882	49512.38
455.088	45096.95
455.294	45430.77
455.5	46071.79
455.705	46839.78
455.911	44843.01
456.117	43997.2
456.323	43612.18
456.529	41099.32
456.735	43065.37
456.941	42035.24
457.147	40876.09
457.352	39845.96
457.558	39282.77
457.764	39180.37
457.97	38844.51
458.176	37562.48
458.381	37634.16
458.587	35887.24
458.793	35780.74
458.999	33931.43
459.204	36530.3
459.41	35131.54
459.616	32905.4
459.821	32907.44
460.027	32854.2
460.233	32506.04
460.438	30994.64
460.644	31146.19
460.85	29692.13
461.055	29042.93
461.261	29380.84
461.466	27056.4
461.672	26206.49
461.878	27707.65
462.083	25831.71
462.289	25717.03
462.494	25239.85
462.7	24275.26
462.905	23648.58
463.111	24310.07
463.316	24312.12
463.522	23984.44
463.727	24379.7
463.932	23722.3
464.138	23636.29
464.343	23769.41
464.549	22813.01
464.754	23943.49
464.959	23585.09
465.165	23230.79
465.37	22341.97
465.575	21764.45
465.781	22927.69
465.986	23185.74
466.191	22305.11
466.397	21690.72
466.602	20322.68
466.807	21404
467.012	21141.86
467.218	21221.73
467.423	21121.38
467.628	21283.17
467.833	22004.06
468.038	21184.87
468.244	20513.14
468.449	21883.23
468.654	20595.06
468.859	20433.27
469.064	20638.06
469.269	19530.11
469.474	19972.47
469.679	20193.65
469.885	19431.81
470.09	20011.39
470.295	19759.49
470.5	19040.65
470.705	19227.01
470.91	19059.08
471.115	18942.35
471.32	19192.2
471.525	19036.55
471.73	18450.83
471.935	18481.55
472.139	17977.75
472.344	17957.27
472.549	17695.13
472.754	17631.65
472.959	17392.03
473.164	16640.43
473.369	16728.49
473.574	16982.44
473.778	16998.82
473.983	16791.98
474.188	17066.41
474.393	15942.07
474.598	15841.72
474.802	15854.01
475.007	15905.21
475.212	15825.34
475.417	15161.8
475.621	15342.02
475.826	15507.9
476.031	15210.95
476.235	14735.82
476.44	14995.91
476.645	14911.94
476.849	14549.45
477.054	14232.02
477.259	14301.65
477.463	14182.87
477.668	13904.34
477.872	13969.88
478.077	13824.47
478.282	13414.88
478.486	13509.08
478.691	13380.06
478.895	13230.56
479.1	13351.39
479.304	13271.52
479.509	12751.34
479.713	13185.51
479.918	12718.57
480.122	12857.83
480.326	12829.16
480.531	12759.53
480.735	12505.58
480.94	12564.97
481.144	12775.91
481.348	12069.36
481.553	12364.27
481.757	12075.51
481.961	12485.1
482.166	12497.39
482.37	12337.65
482.574	12188.14
482.778	12169.71
482.983	12315.12
483.187	12272.11
483.391	12390.89
483.595	12081.65
483.8	12026.36
484.004	12280.3
484.208	12294.64
484.412	12241.39
484.616	12394.99
484.821	12329.45
485.025	12132.85
485.229	12315.12
485.433	12165.62
485.637	12276.21
485.841	11950.58
486.045	12083.7
486.249	12134.9
486.453	12065.27
486.657	12077.55
486.861	12095.99
487.065	11926
487.269	11991.54
487.473	11864.57
487.677	12354.03
487.881	12292.59
488.085	12030.45
488.289	12415.47
488.493	12179.95
488.697	12161.52
488.901	12284.4
489.105	12173.81
489.309	12388.85
489.512	12304.88
489.716	12532.2
489.92	12317.17
490.124	12259.82
490.328	12571.11
490.531	12343.79
490.735	12454.38
490.939	12693.99
491.143	12610.03
491.346	12419.57
491.55	12798.44
491.754	12542.44
491.958	12949.99
492.161	12915.17
492.365	13025.76
492.569	12450.28
492.772	12653.03
492.976	13175.27
493.18	13097.44
493.383	13318.62
493.587	13093.35
493.79	13339.1
493.994	13279.71
494.197	13259.23
494.401	13410.78
494.605	13435.36
494.808	13636.06
495.012	13732.31
495.215	13550.04
495.419	14039.51
495.622	13859.29
495.825	14186.96
496.029	14139.86
496.232	14547.4
496.436	14297.55
496.639	14879.18
496.843	14684.62
497.046	14830.02
497.249	14993.86
497.453	15217.09
497.656	15374.78
497.859	15358.4
498.063	15772.09
498.266	15948.22
498.469	15673.79
498.673	15956.41
498.876	16230.83
499.079	16351.67
499.282	16402.86
499.485	16677.29
499.689	16861.61
499.892	17107.37
500.095	17115.56
500.298	17656.22
500.501	17131.94
500.705	17779.1
500.908	17979.8
501.111	18344.34
501.314	18233.75
501.517	18418.07
501.72	18725.26
501.923	18661.77
502.126	19155.33
502.329	19218.82
502.532	19274.12
502.735	19673.47
502.938	19831.16
503.141	20136.31
503.344	20511.09
503.547	20265.33
503.75	20511.09
503.953	20986.22
504.156	21000.55
504.359	21340.52
504.562	21614.94
504.765	21694.82
504.968	22298.97
505.17	22471
505.373	22253.91
505.576	22626.64
505.779	23193.93
505.982	23073.1
506.185	23339.33
506.387	23734.59
506.59	23843.13
506.793	24140.09
506.996	23763.26
507.198	24893.74
507.401	24836.4
507.604	24750.38
507.807	25516.33
508.009	25702.69
508.212	25817.38
508.415	26044.7
508.617	26173.72
508.82	26323.22
509.022	26323.22
509.225	27097.36
509.428	27455.75
509.63	27291.91
509.833	27345.16
510.035	28074.24
510.238	27937.02
510.44	28592.37
510.643	29024.5
510.845	29010.16
511.048	28977.39
511.25	29620.45
511.453	29573.35
511.655	30470.36
511.858	30095.58
512.06	30404.83
512.262	30511.32
512.465	30517.46
512.667	31219.92
512.87	31688.9
513.072	31615.18
513.274	32233.66
513.477	32592.06
513.679	32395.45
513.881	33069.23
514.084	33374.38
514.286	33456.3
514.488	33204.4
514.69	34367.65
514.893	34807.96
515.095	34654.36
515.297	35072.15
515.499	34900.12
515.701	35711.11
515.904	36135.04
516.106	36212.87
516.308	36370.56
516.51	36741.24
516.712	36784.25
516.914	37412.98
517.116	37716.08
517.318	37705.84
517.52	38291.55
517.722	37996.65
517.925	38828.12
518.127	39319.63
518.329	39508.05
518.531	39282.77
518.733	40212.55
518.935	40071.24
519.136	40360
519.338	40835.13
519.54	40974.39
519.742	41156.66
519.944	41416.75
520.146	42074.15
520.348	41887.79
520.55	42158.12
520.752	42430.5
520.954	42930.2
521.155	42838.04
521.357	43335.7
521.559	43810.83
521.761	44269.58
521.963	43986.96
522.164	44447.75
522.366	44982.27
522.568	44836.86
522.77	45082.62
522.971	45803.5
523.173	46094.32
523.375	45930.48
523.576	46024.68
523.778	46090.22
523.98	46469.09
524.181	46634.98
524.383	46870.5
524.584	47716.31
524.786	47263.71
524.988	47142.88
525.189	47519.7
525.391	47986.64
525.592	48402.38
525.794	48187.34
525.995	48527.3
526.197	48207.82
526.398	48621.51
526.6	48717.76
526.801	48990.14
527.003	49276.86
527.204	49364.92
527.406	49819.57
527.607	49770.42
527.808	49729.46
528.01	49186.75
528.211	50087.85
528.412	50472.87
528.614	50085.81
528.815	50044.85
529.016	51130.27
529.218	50530.22
529.419	50849.7
529.62	50411.43
529.822	50616.23
530.023	50683.81
530.224	50466.73
530.425	50861.99
530.626	50440.1
530.828	50425.77
531.029	51546.01
531.23	50706.34
531.431	51230.62
531.632	51281.82
531.833	51115.93
532.035	50907.04
532.236	51423.13
532.437	51697.56
532.638	51214.24
532.839	51611.54
533.04	51390.36
533.241	51029.92
533.442	51756.95
533.643	51726.23
533.844	51249.05
534.045	51296.16
534.246	51435.42
534.447	51115.93
534.648	50962.34
534.849	51433.37
535.05	50925.47
535.251	51488.66
535.451	51351.45
535.652	51634.07
535.853	51398.55
536.054	51367.83
536.255	51335.07
536.456	50882.47
536.657	51832.72
536.857	51486.62
537.058	50931.62
537.259	51316.64
537.46	51791.76
537.66	51136.41
537.861	51570.58
538.062	51144.61
538.263	51443.61
538.463	51222.43
538.664	51040.16
538.865	51357.59
539.065	51519.38
539.266	51128.22
539.466	51365.79
539.667	50849.7
539.868	51787.67
540.068	51128.22
540.269	51052.45
540.469	51683.22
540.67	50993.06
540.87	50980.77
541.071	50522.02
541.271	51324.83
541.472	50952.1
541.672	50503.59
541.873	50771.88
542.073	50177.96
542.274	51263.39
542.474	50634.66
542.675	50087.85
542.875	51019.68
543.075	50833.31
543.276	50020.27
543.476	51230.62
543.676	50767.78
543.877	51027.87
544.077	50782.12
544.277	50403.24
544.478	50681.77
544.678	50399.15
544.878	50790.31
545.078	50726.82
545.279	50528.17
545.479	50186.16
545.679	50610.09
545.879	50530.22
546.079	50433.96
546.28	50374.57
546.48	50335.66
546.68	50601.89
546.88	50728.87
547.08	50644.9
547.28	50134.96
547.48	50059.18
547.68	50718.63
547.88	49958.83
548.081	50550.7
548.281	50323.37
548.481	50005.94
548.681	50659.24
548.881	50558.89
549.081	50098.09
549.28	50098.09
549.48	50411.43
549.68	49838
549.88	50528.17
550.08	50055.09
550.28	49768.37
550.48	50104.24
550.68	50399.15
550.88	50010.03
551.08	49901.49
551.279	50190.25
551.479	49440.7
551.679	49901.49
551.879	49776.56
552.079	50304.94
552.278	49975.22
552.478	49735.6
552.678	49510.33
552.878	50243.5
553.077	49805.23
553.277	49330.11
553.477	50145.2
553.676	49407.93
553.876	49319.87
554.076	49299.39
554.275	49551.29
554.475	48820.16
554.674	49342.39
554.874	49426.36
555.074	49518.52
555.273	49469.37
555.473	49653.68
555.672	48951.23
555.872	49166.27
556.071	48910.27
556.271	49205.18
556.47	49131.45
556.67	48687.04
556.869	49047.49
557.068	49133.5
557.268	48441.29
557.467	48797.63
557.667	48347.08
557.866	49137.6
558.065	48611.27
558.265	48601.03
558.464	48496.58
558.663	48623.56
558.863	48271.31
559.062	48519.11
559.261	48144.33
559.461	48836.55
559.66	47955.92
559.859	48197.58
560.058	47767.51
560.258	48527.3
560.457	47722.45
560.656	48259.02
560.855	47531.99
561.054	47880.14
561.253	47132.64
561.453	47822.8
561.652	47790.03
561.851	47749.07
562.05	47648.72
562.249	47433.69
562.448	47751.12
562.647	47335.38
562.846	47214.55
563.045	47667.16
563.244	46839.78
563.443	47507.41
563.642	47071.2
563.841	47044.57
564.04	46534.63
564.239	47214.55
564.438	46659.55
564.637	47011.81
564.836	46766.05
565.035	46168.04
565.234	46129.13
565.432	45959.15
565.631	46465
565.83	46292.97
566.029	45961.2
566.228	45856.75
566.427	46039.02
566.625	45803.5
566.824	45365.24
567.023	45950.96
567.222	45176.83
567.42	46041.07
567.619	45873.13
567.818	45481.97
568.016	45137.91
568.215	45594.61
568.414	44984.32
568.612	45434.87
568.811	45225.98
569.01	45051.9
569.208	44158.98
569.407	45285.37
569.605	43931.66
569.804	45174.78
570.002	43909.13
570.201	44773.38
570.4	44503.04
570.598	43739.15
570.797	43941.9
570.995	43993.1
571.193	43313.17
571.392	44230.66
571.59	43649.04
571.789	43571.22
571.987	43753.49
572.186	43776.01
572.384	43194.39
572.582	43851.79
572.781	43608.08
572.979	42831.9
573.177	43266.07
573.376	43603.99
573.574	42702.88
573.772	43026.46
573.971	42711.07
574.169	42706.97
574.367	41969.71
574.565	42854.43
574.763	41934.89
574.962	42072.1
575.16	42125.35
575.358	42063.91
575.556	41525.3
575.754	42295.33
575.952	41302.07
576.151	42201.13
576.349	41408.56
576.547	41572.4
576.745	41437.23
576.943	40964.15
577.141	41238.58
577.339	41283.64
577.537	41275.44
577.735	40695.87
577.933	40691.77
578.131	41041.98
578.329	40601.66
578.527	40427.59
578.725	40224.84
578.923	40771.64
579.121	40368.19
579.319	39718.99
579.516	40292.42
579.714	39948.36
579.912	39882.83
580.11	39295.06
580.308	40124.49
580.506	39538.77
580.704	39286.87
580.901	39614.54
581.099	39972.94
581.297	39481.42
581.495	39385.17
581.692	39493.71
581.89	38783.07
582.088	38828.12
582.285	38365.28
582.483	38987.86
582.681	38844.51
582.878	38742.11
583.076	38158.44
583.274	38533.21
583.471	37816.43
583.669	38017.13
583.866	38066.28
584.064	38264.93
584.262	37718.12
584.459	37963.88
584.657	37556.33
584.854	37898.34
585.052	37234.8
585.249	37505.13
585.447	37300.34
585.644	36913.27
585.841	37443.7
586.039	36982.9
586.236	36612.22
586.434	36683.9
586.631	36673.66
586.828	36698.23
587.026	36522.11
587.223	36419.71
587.42	36143.24
587.618	36081.8
587.815	35655.82
588.012	35985.54
588.21	35821.7
588.407	36032.64
588.604	35582.09
588.801	35578
588.999	35528.84
589.196	35055.76
589.393	35408.01
589.59	35307.66
589.787	35295.38
589.984	34953.37
590.182	34490.52
590.379	34498.72
590.576	34138.27
590.773	34824.34
590.97	34488.48
591.167	34394.27
591.364	34066.59
591.561	34117.79
591.758	34017.44
591.955	33738.92
592.152	34234.53
592.349	33730.73
592.546	34179.23
592.743	33763.5
592.94	33214.64
593.137	33333.42
593.334	33450.16
593.531	32723.13
593.727	33046.71
593.924	32942.26
594.121	32723.13
594.318	32909.49
594.515	32327.87
594.712	32813.24
594.908	32581.82
595.105	32489.66
595.302	32241.85
595.499	32417.98
595.696	32403.64
595.892	32016.58
596.089	32190.66
596.286	32268.48
596.482	31910.08
596.679	31987.91
596.876	32155.84
597.072	31582.41
597.269	31574.22
597.466	31447.24
597.662	31115.47
597.859	31318.22
598.055	31318.22
598.252	30894.29
598.448	30947.54
598.645	31140.05
598.841	30529.75
599.038	30351.58
599.234	30300.38
599.431	30347.48
599.627	30179.55
599.824	30324.96
600.02	30259.42
600.217	30052.58
600.413	30046.43
600.609	29894.88
600.806	29565.16
601.002	29931.75
601.198	29454.57
601.395	29649.13
601.591	29274.35
601.787	29253.87
601.984	29364.46
602.18	29348.07
602.376	29079.79
602.572	28958.96
602.769	28907.76
602.965	28590.33
603.161	28862.71
603.357	28442.87
603.553	28532.98
603.75	28670.2
603.946	28535.03
604.142	28557.56
604.338	27910.4
604.534	28481.78
604.73	27814.15
604.926	27980.03
605.122	27803.91
605.318	27621.64
605.514	27521.29
605.71	27746.56
605.906	27734.28
606.102	27427.08
606.298	27664.64
606.494	27048.21
606.69	27357.45
606.886	27576.58
607.082	26968.34
607.278	27177.23
607.474	26894.61
607.67	27076.88
607.866	26691.86
608.062	27171.08
608.257	26812.69
608.453	26941.71
608.649	26532.12
608.845	26571.03
609.041	26632.47
609.236	26558.74
609.432	26208.54
609.628	26165.53
609.824	26425.62
610.019	26016.03
610.215	26089.76
610.411	26093.85
610.606	25755.94
610.802	26188.06
610.998	25815.33
611.193	25979.17
611.389	25839.9
611.584	25618.72
611.78	25669.92
611.976	25727.27
612.171	25663.78
612.367	25809.18
612.562	25409.83
612.758	25028.91
612.953	25254.19
613.149	25413.93
613.344	25090.35
613.539	25501.99
613.735	25162.03
613.93	25348.39
614.126	24975.66
614.321	25254.19
614.517	24975.66
614.712	24949.04
614.907	24711.47
615.103	24946.99
615.298	24297.78
615.493	24946.99
615.688	24252.73
615.884	25065.77
616.079	24521.01
616.274	24938.8
616.47	24510.77
616.665	24516.92
616.86	24269.11
617.055	24101.18
617.25	24215.87
617.445	24461.62
617.641	23832.89
617.836	24049.98
618.031	23671.11
618.226	24115.51
618.421	23707.97
618.616	23861.57
618.811	23482.69
619.006	23836.99
619.201	23439.68
619.396	23595.33
619.591	23175.5
619.786	23292.23
619.981	23003.47
620.176	23114.06
620.371	23087.43
620.566	23069
620.761	22536.53
620.956	22747.47
621.151	22604.11
621.346	22878.54
621.541	22231.38
621.735	22380.89
621.93	21940.57
622.125	22071.64
622.32	21840.22
622.515	21764.45
622.709	21582.18
622.904	21582.18
623.099	21537.12
623.294	21752.16
623.488	21268.84
623.683	21215.59
623.878	20971.88
624.072	20773.23
624.267	20795.76
624.462	20728.17
624.656	20676.98
624.851	20662.64
625.046	20468.08
625.24	20289.91
625.435	19906.94
625.629	20230.52
625.824	20078.97
626.018	20224.37
626.213	19399.04
626.407	19825.02
626.602	19413.38
626.796	19507.58
626.991	19405.19
627.185	19173.77
627.38	19216.77
627.574	18917.77
627.768	18723.21
627.963	19075.46
628.157	18540.94
628.352	18475.41
628.546	18162.07
628.74	18463.12
628.935	18313.62
629.129	18450.83
629.323	17881.5
629.517	17942.94
629.712	18092.44
629.906	17836.44
630.1	17557.92
630.294	17793.44
630.489	17480.1
630.683	17510.82
630.877	17318.31
631.071	17367.46
631.265	17308.07
631.459	17031.59
631.653	17209.76
631.848	17050.02
632.042	16517.55
632.236	16642.48
632.43	16882.09
632.624	16568.75
632.818	16443.82
633.012	16320.95
633.206	16318.9
633.4	16304.56
633.594	16122.29
633.788	16146.87
633.982	16001.46
634.176	15878.58
634.369	16032.18
634.563	15679.93
634.757	15520.19
634.951	15894.97
635.145	15495.61
635.339	15352.26
635.533	15456.7
635.726	15278.53
635.92	15165.89
636.114	15256
636.308	15061.44
636.501	14887.37
636.695	14870.98
636.889	14735.82
637.083	14821.83
637.276	14500.3
637.47	14520.78
637.664	14404.05
637.857	14473.68
638.051	14447.05
638.244	14051.8
638.438	14080.47
638.632	14084.56
638.825	14064.08
639.019	13656.54
639.212	13615.58
639.406	13746.65
639.599	13666.78
639.793	13654.49
639.986	13525.47
640.18	13533.66
640.373	13445.6
640.567	13076.96
640.76	13355.49
640.954	13140.45
641.147	13134.31
641.34	13044.2
641.534	12976.61
641.727	12972.52
641.92	12657.13
642.114	12683.75
642.307	12853.73
642.5	12460.52
642.694	12433.9
642.887	12491.24
643.08	12409.33
643.273	12284.4
643.467	12521.96
643.66	12284.4
643.853	12095.99
644.046	12020.21
644.239	12061.17
644.432	11815.41
644.626	11921.91
644.819	11981.3
645.012	11856.37
645.205	11862.52
645.398	11563.51
645.591	11588.09
645.784	11631.1
645.977	11495.93
646.17	11512.31
646.363	11479.55
646.556	11100.67
646.749	11168.26
646.942	11387.39
647.135	11020.8
647.328	11284.99
647.521	10959.36
647.714	10983.94
647.907	10891.78
648.099	10822.15
648.292	10906.12
648.485	10656.26
648.678	10752.52
648.871	10576.39
649.064	10484.23
649.256	10570.25
649.449	10324.49
649.642	10344.97
649.835	10054.16
650.027	10392.08
650.22	10304.01
650.413	10215.95
650.605	10142.22
650.798	10002.96
650.991	9878.04
651.183	9959.95
651.376	9753.11
651.568	9935.38
651.761	9689.62
651.954	9886.23
652.146	9804.31
652.339	9675.29
652.531	9753.11
652.724	9687.57
652.916	9495.07
653.109	9320.99
653.301	9339.42
653.494	9355.8
653.686	9142.82
653.879	9429.53
654.071	9101.86
654.263	9155.1
654.456	9009.7
654.648	9146.91
654.84	8854.05
655.033	8993.31
655.225	8665.64
655.417	8845.86
655.61	8890.92
655.802	8776.23
655.994	8684.07
656.186	8596.01
656.379	8620.58
656.571	8657.45
656.763	8288.81
656.955	8509.99
657.148	8370.73
657.34	8409.64
657.532	8278.57
657.724	8231.47
657.916	8210.99
658.108	8333.87
658.3	8239.66
658.492	8143.41
658.684	8135.21
658.876	8145.45
659.068	8094.26
659.26	7905.84
659.452	8047.15
659.644	7926.32
659.836	7883.31
660.028	7846.45
660.22	7690.81
660.412	7758.39
660.604	7664.18
660.796	7670.33
660.988	7707.19
661.18	7535.16
661.372	7721.52
661.563	7545.4
661.755	7412.28
661.947	7582.26
662.139	7281.21
662.331	7363.13
662.522	7340.6
662.714	7316.03
662.906	7168.57
663.097	7170.62
663.289	7103.04
663.481	7084.61
663.673	7119.42
663.864	7213.63
664.056	6939.2
664.247	6990.4
664.439	6873.67
664.631	6992.45
664.822	6951.49
665.014	6748.74
665.205	6875.71
665.397	6576.71
665.588	6965.82
665.78	6578.76
665.971	6613.57
666.163	6664.77
666.354	6552.13
666.546	6591.05
666.737	6396.49
666.929	6554.18
667.12	6451.78
667.311	6287.95
667.503	6333
667.694	6353.48
667.885	6255.18
668.077	6306.38
668.268	6183.5
668.459	6308.43
668.651	6216.27
668.842	6255.18
669.033	6134.35
669.224	6040.14
669.416	6081.1
669.607	6187.6
669.798	5952.08
669.989	6203.98
670.18	6019.66
670.371	5958.22
670.563	5722.71
670.754	5892.69
670.945	5724.76
671.136	6060.62
671.327	5751.38
671.518	5659.22
671.709	5605.97
671.9	5821.01
672.091	5536.34
672.282	5640.79
672.473	5761.62
672.664	5636.69
672.855	5487.19
673.046	5685.84
673.237	5565.01
673.428	5485.14
673.619	5526.1
673.809	5493.33
674	5589.59
674.191	5501.53
674.382	5302.87
674.573	5440.09
674.764	5450.33
674.954	5427.8
675.145	5323.35
675.336	5335.64
675.527	5298.78
675.717	5468.76
675.908	5180
676.099	5292.63
676.289	5208.67
676.48	5227.1
676.671	5196.38
676.861	5010.01
677.052	5108.32
677.243	5057.12
677.433	5096.03
677.624	5169.76
677.814	4930.14
678.005	5149.28
678.195	4989.53
678.386	5018.21
678.576	5016.16
678.767	5010.01
678.957	4932.19
679.148	4954.72
679.338	4901.47
679.529	4856.42
679.719	4749.92
679.909	4905.57
680.1	4997.73
680.29	4940.38
680.481	4901.47
680.671	4897.38
680.861	4790.88
681.052	4788.83
681.242	4717.15
681.432	4749.92
681.622	4751.97
681.813	4792.93
682.003	4876.9
682.193	4698.72
682.383	4774.5
682.573	4670.05
682.764	4487.78
682.954	4663.91
683.144	4622.95
683.334	4676.2
683.524	4631.14
683.714	4522.6
683.904	4610.66
684.094	4448.87
684.284	4543.08
684.474	4561.51
684.664	4622.95
684.854	4465.25
685.044	4420.2
685.234	4508.26
685.424	4391.53
685.614	4430.44
685.804	4360.81
685.994	4287.08
686.184	4416.1
686.374	4317.8
686.564	4319.85
686.753	4364.9
686.943	4428.39
687.133	4151.92
687.323	4164.2
687.513	4282.99
687.702	4305.51
687.892	4149.87
688.082	4272.75
688.272	4110.96
688.461	4213.35
688.651	4110.96
688.841	4242.03
689.03	4041.32
689.22	4057.71
689.41	3961.45
689.599	4051.56
689.789	4037.23
689.979	4026.99
690.168	4061.8
690.358	3818.1
690.547	3940.97
690.737	3934.83
690.926	3918.45
691.116	3830.38
691.305	3863.15
691.495	3996.27
691.684	3801.71
691.874	3922.54
692.063	3773.04
692.252	3598.96
692.442	3699.31
692.631	3668.59
692.82	3752.56
693.01	3697.27
693.199	3545.72
693.388	3705.46
693.578	3656.31
693.767	3668.59
693.956	3613.3
694.146	3676.79
694.335	3566.2
694.524	3515
694.713	3633.78
694.902	3662.45
695.092	3609.2
695.281	3570.29
695.47	3562.1
695.659	3496.57
695.848	3578.48
696.037	3607.16
696.226	3484.28
696.415	3527.28
696.604	3580.53
696.793	3617.4
696.982	3334.78
697.171	3492.47
697.36	3488.37
697.549	3525.24
697.738	3474.04
697.927	3611.25
698.116	3388.02
698.305	3480.18
698.494	3412.6
698.683	3469.94
698.872	3332.73
699.061	3394.17
699.25	3326.58
699.438	3357.3
699.627	3410.55
699.816	3363.45
700.005	3410.55
700.193	3222.14
700.382	3390.07
700.571	3375.74
700.76	3426.93
700.948	3326.58
701.137	3439.22
701.326	3459.7
701.514	3400.31
701.703	3349.11
701.892	3324.54
702.08	3445.37
702.269	3332.73
702.457	3385.97
702.646	3277.43
702.834	3318.39
703.023	3263.1
703.212	3299.96
703.4	3170.94
703.589	3152.51
703.777	3261.05
703.965	3234.43
704.154	3232.38
704.342	3142.27
704.531	3279.48
704.719	3304.06
704.907	3285.62
705.096	3199.61
705.284	3183.23
705.472	3205.75
705.661	3269.24
705.849	3228.28
706.037	3293.82
706.226	3328.63
706.414	3236.47
706.602	3299.96
706.79	3164.79
706.979	3254.9
707.167	3146.36
707.355	3076.73
707.543	3269.24
707.731	3177.08
707.919	3250.81
708.107	3134.07
708.296	3244.67
708.484	3254.9
708.672	3261.05
708.86	3207.8
709.048	3209.85
709.236	3193.47
709.424	3291.77
709.612	3193.47
709.8	3205.75
709.988	3277.43
710.176	3164.79
710.364	3091.07
710.551	3117.69
710.739	3172.99
710.927	3222.14
711.115	3211.9
711.303	3439.22
711.491	2992.76
711.679	3146.36
711.866	3152.51
712.054	3248.76
712.242	3066.49
712.43	3205.75
712.617	3023.48
712.805	3205.75
712.993	3187.32
713.181	3140.22
713.368	3048.06
713.556	3187.32
713.744	3115.64
713.931	3154.55
714.119	3041.92
714.306	3185.27
714.494	3103.36
714.682	3121.79
714.869	3078.78
715.057	3107.45
715.244	3019.39
715.432	3078.78
715.619	3179.13
715.807	3076.73
715.994	3003
716.182	3185.27
716.369	3226.23
716.556	3097.21
716.744	3082.88
716.931	3048.06
717.119	3177.08
717.306	3170.94
717.493	3054.2
717.681	3132.03
717.868	3066.49
718.055	3072.64
718.242	2998.91
718.43	3089.02
718.617	3119.74
718.804	3148.41
718.991	3160.7
719.179	3043.96
719.366	3117.69
719.553	3023.48
719.74	2974.33
719.927	3021.44
720.114	3009.15
720.301	3070.59
720.488	2867.84
720.676	3109.5
720.863	3062.4
721.05	2847.36
721.237	3078.78
721.424	2916.99
721.611	2990.72
721.798	2941.57
721.985	2953.85
722.172	2896.51
722.358	3037.82
722.545	2931.33
722.732	2896.51
722.919	2962.05
723.106	2835.07
723.293	2966.14
723.48	2841.22
723.667	2884.22
723.853	2996.86
724.04	2896.51
724.227	2878.08
724.414	2943.61
724.6	2765.44
724.787	3013.24
724.974	2894.46
725.161	2853.5
725.347	2957.95
725.534	2830.98
725.72	2892.41
725.907	2904.7
726.094	2992.76
726.28	2753.15
726.467	2785.92
726.653	2781.82
726.84	2906.75
727.027	2882.17
727.213	2941.57
727.4	2941.57
727.586	2790.02
727.773	2744.96
727.959	2906.75
728.145	2826.88
728.332	2878.08
728.518	2753.15
728.705	2912.89
728.891	2830.98
729.077	2808.45
729.264	2841.22
729.45	2779.78
729.636	2785.92
729.823	2654.85
730.009	2849.41
730.195	2720.39
730.382	2910.85
730.568	2871.93
730.754	2828.93
730.94	2787.97
731.126	2673.28
731.313	2855.55
731.499	2892.41
731.685	2855.55
731.871	2790.02
732.057	2663.04
732.243	2802.3
732.429	2767.49
732.615	2781.82
732.801	2765.44
732.987	2640.51
733.173	2818.69
733.359	2749.06
733.545	2650.75
733.731	2742.91
733.917	2857.6
734.103	2689.67
734.289	2710.15
734.475	2654.85
734.661	2769.54
734.847	2593.41
735.033	2697.86
735.219	2611.84
735.404	2554.5
735.59	2685.57
735.776	2646.66
735.962	2603.65
736.148	2699.91
736.333	2665.09
736.519	2599.55
736.705	2624.13
736.89	2542.21
737.076	2615.94
737.262	2501.25
737.447	2581.12
737.633	2607.75
737.819	2615.94
738.004	2472.58
738.19	2603.65
738.375	2519.68
738.561	2556.55
738.747	2531.97
738.932	2634.37
739.118	2620.03
739.303	2476.68
739.489	2542.21
739.674	2368.13
739.859	2501.25
740.045	2509.44
740.23	2464.39
740.416	2396.81
740.601	2476.68
740.786	2464.39
740.972	2531.97
741.157	2419.33
741.342	2388.61
741.528	2474.63
741.713	2448.01
741.898	2280.07
742.084	2415.24
742.269	2370.18
742.454	2304.65
742.639	2460.29
742.824	2366.09
743.01	2579.08
743.195	2415.24
743.38	2396.81
743.565	2265.74
743.75	2253.45
743.935	2304.65
744.12	2405
744.305	2212.49
744.49	2345.61
744.675	2265.74
744.86	2267.78
745.045	2388.61
745.23	2280.07
745.415	2183.82
745.6	2124.43
745.785	2235.02
745.97	2257.54
746.155	2118.28
746.34	2204.3
746.525	2189.96
746.71	2151.05
746.895	2022.03
747.079	2216.58
747.264	2124.43
747.449	2089.61
747.634	2083.47
747.819	2071.18
748.003	1981.07
748.188	2067.08
748.373	1948.3
748.557	1925.77
748.742	1954.44
748.927	1933.97
749.111	1956.49
749.296	1993.36
749.481	2069.13
749.665	1938.06
749.85	1936.01
750.034	1999.5
750.219	1878.67
750.404	1819.28
750.588	1895.05
750.773	1915.53
750.957	1798.8
751.141	1794.7
751.326	1821.33
751.51	1806.99
751.695	1774.22
751.879	1792.66
752.064	1788.56
752.248	1731.22
752.432	1735.31
752.617	1686.16
752.801	1757.84
752.985	1745.55
753.17	1702.54
753.354	1698.45
753.538	1690.26
753.722	1704.59
753.907	1555.09
754.091	1673.87
754.275	1630.87
754.459	1690.26
754.643	1628.82
754.828	1575.57
755.012	1614.48
755.196	1516.18
755.38	1550.99
755.564	1475.22
755.748	1503.89
755.932	1557.14
756.116	1499.8
756.3	1450.64
756.484	1483.41
756.668	1393.3
756.852	1448.6
757.036	1428.12
757.22	1456.79
757.404	1426.07
757.588	1458.84
757.772	1464.98
757.956	1385.11
758.14	1401.49
758.323	1393.3
758.507	1446.55
758.691	1399.45
758.875	1419.92
759.059	1327.77
759.242	1342.1
759.426	1342.1
759.61	1370.77
759.794	1352.34
759.977	1354.39
760.161	1340.05
760.345	1284.76
760.528	1245.85
760.712	1180.31
760.895	1297.05
761.079	1256.09
761.263	1260.18
761.446	1247.9
761.63	1225.37
761.813	1245.85
761.997	1237.66
762.18	1338.01
762.364	1262.23
762.547	1254.04
762.731	1182.36
762.914	1172.12
763.098	1178.26
763.281	1186.46
763.464	1088.15
763.648	1223.32
763.831	1200.79
764.015	1114.78
764.198	1125.02
764.381	1165.98
764.564	1041.05
764.748	1061.53
764.931	1104.54
765.114	1114.78
765.297	1077.91
765.481	1043.1
765.664	1041.05
765.847	1032.86
766.03	1151.64
766.213	1057.43
766.397	1036.95
766.58	1055.39
766.763	1055.39
766.946	1084.06
767.129	1065.63
767.312	1127.07
767.495	1075.87
767.678	1075.87
767.861	1051.29
768.044	993.95
768.227	993.95
768.41	1049.24
768.593	1026.71
768.776	1075.87
768.959	975.52
769.142	1028.76
769.324	963.23
769.507	996
769.69	885.41
769.873	1006.24
770.056	1067.67
770.239	942.75
770.421	1053.34
770.604	967.32
770.787	922.27
770.97	1020.57
771.152	971.42
771.335	989.85
771.518	877.21
771.7	950.94
771.883	969.37
772.066	899.74
772.248	989.85
772.431	961.18
772.613	871.07
772.796	926.36
772.978	924.32
773.161	922.27
773.343	897.69
773.526	871.07
773.708	848.54
773.891	846.49
774.073	869.02
774.256	813.73
774.438	922.27
774.621	987.8
774.803	807.58
774.985	856.73
775.168	848.54
775.35	881.31
775.532	840.35
775.715	762.53
775.897	823.97
776.079	793.25
776.261	899.74
776.444	783.01
776.626	762.53
776.808	758.43
776.99	797.34
777.173	797.34
777.355	770.72
777.537	703.14
777.719	703.14
777.901	752.29
778.083	750.24
778.265	621.22
778.447	760.48
778.629	752.29
778.811	772.77
778.993	760.48
779.175	692.9
779.357	752.29
779.539	723.62
779.721	625.31
779.903	658.08
780.085	633.51
780.267	670.37
780.449	613.03
780.631	619.17
780.812	746.14
780.994	590.5
781.176	647.84
781.358	662.18
781.54	633.51
781.721	666.27
781.903	584.35
782.085	563.87
782.267	682.66
782.448	555.68
782.63	629.41
782.812	643.74
782.993	543.39
783.175	613.03
783.357	582.31
783.538	635.55
783.72	567.97
783.901	561.83
784.083	572.07
784.264	539.3
784.446	527.01
784.627	561.83
784.809	518.82
784.99	600.74
785.172	541.35
785.353	629.41
785.535	479.91
785.716	549.54
785.897	473.76
786.079	508.58
786.26	541.35
786.441	492.2
786.623	500.39
786.804	570.02
786.985	531.11
787.167	449.19
787.348	543.39
787.529	486.05
787.71	584.35
787.891	441
788.073	500.39
788.254	500.39
788.435	494.24
788.616	457.38
788.797	461.48
788.978	357.03
789.159	404.13
789.34	486.05
789.522	400.04
789.703	414.37
789.884	424.61
790.065	473.76
790.246	408.23
790.427	443.04
790.607	426.66
790.788	484
790.969	354.98
791.15	434.85
791.331	426.66
791.512	383.65
791.693	348.84
791.874	406.18
792.054	412.32
792.235	328.36
792.416	408.23
792.597	305.83
792.778	273.06
792.958	420.52
793.139	346.79
793.32	320.17
793.5	379.56
793.681	461.48
793.862	340.65
794.042	354.98
794.223	328.36
794.404	408.23
794.584	305.83
794.765	301.73
794.945	336.55
795.126	418.47
795.306	287.4
795.487	328.36
795.667	324.26
795.848	314.02
796.028	311.97
796.209	307.88
796.389	344.74
796.57	348.84
796.75	301.73
796.93	342.69
797.111	340.65
797.291	348.84
797.471	273.06
797.652	297.64
797.832	248.49
798.012	359.08
798.192	254.63
798.373	350.89
798.553	307.88
798.733	367.27
798.913	234.15
799.093	246.44
799.274	236.2
799.454	322.21
799.634	285.35
799.814	322.21
799.994	244.39
800.174	275.11
800.354	334.5
800.534	240.29
800.714	328.36
800.894	273.06
801.074	246.44
801.254	289.45
801.434	279.21
801.614	328.36
801.794	217.77
801.974	545.44
802.154	223.91
802.334	316.07
802.514	252.58
802.693	260.77
802.873	289.45
803.053	240.29
803.233	275.11
803.413	262.82
803.592	195.24
803.772	201.38
803.952	309.93
804.131	260.77
804.311	268.97
804.491	232.1
804.67	273.06
804.85	195.24
805.03	320.17
805.209	283.3
805.389	217.77
805.568	228.01
805.748	166.57
805.928	281.25
806.107	264.87
806.287	283.3
806.466	273.06
806.646	213.67
806.825	164.52
807.004	217.77
807.184	225.96
807.363	221.86
807.543	264.87
807.722	164.52
807.901	271.01
808.081	230.06
808.26	205.48
808.439	154.28
808.619	254.63
808.798	236.2
808.977	219.82
809.156	252.58
809.336	213.67
809.515	156.33
809.694	176.81
809.873	195.24
810.052	195.24
810.231	277.16
810.411	168.62
810.59	146.09
810.769	246.44
810.948	221.86
811.127	141.99
811.306	176.81
811.485	185
811.664	209.58
811.843	156.33
812.022	242.34
812.201	191.14
812.38	223.91
812.559	123.56
812.737	205.48
812.916	180.9
813.095	209.58
813.274	228.01
813.453	176.81
813.632	268.97
813.811	199.34
813.989	137.9
814.168	137.9
814.347	191.14
814.526	137.9
814.704	162.47
814.883	211.62
815.062	129.7
815.24	119.46
815.419	154.28
815.598	150.18
815.776	191.14
815.955	197.29
816.133	88.75
816.312	125.61
816.49	185
816.669	195.24
816.847	113.32
817.026	162.47
817.204	170.66
817.383	158.38
817.561	209.58
817.74	174.76
817.918	146.09
818.097	199.34
818.275	141.99
818.453	225.96
818.632	78.51
818.81	176.81
818.988	129.7
819.167	207.53
819.345	82.6
819.523	146.09
819.701	111.27
819.879	113.32
820.058	162.47
820.236	109.22
820.414	107.18
820.592	113.32
820.77	105.13
820.948	10.92
821.127	86.7
821.305	139.94
821.483	66.22
821.661	92.84
821.839	129.7
822.017	135.85
822.195	135.85
822.373	252.58
822.551	244.39
822.729	144.04
822.907	133.8
823.085	53.93
823.262	107.18
823.44	82.6
823.618	113.32
823.796	74.41
823.974	137.9
824.152	113.32
824.329	72.36
824.507	72.36
824.685	82.6
824.863	139.94
825.04	139.94
825.218	150.18
825.396	94.89
825.574	123.56
825.751	84.65
825.929	51.88
826.107	109.22
826.284	96.94
826.462	129.7
826.639	125.61
826.817	78.51
826.994	101.03
827.172	109.22
827.349	72.36
827.527	158.38
827.704	80.55
827.882	162.47
828.059	105.13
828.237	58.03
828.414	90.79
828.591	70.31
828.769	111.27
828.946	76.46
829.124	129.7
829.301	33.45
829.478	80.55
829.655	115.37
829.833	90.79
830.01	8.87
830.187	115.37
830.364	80.55
830.542	70.31
830.719	174.76
830.896	98.99
831.073	158.38
831.25	107.18
831.427	72.36
831.604	101.03
831.782	60.07
831.959	156.33
832.136	12.97
832.313	125.61
832.49	127.66
832.667	133.8
832.844	45.74
833.021	129.7
833.198	72.36
833.374	92.84
833.551	129.7
833.728	58.03
833.905	156.33
834.082	-13.65
834.259	45.74
834.436	51.88
834.612	74.41
834.789	98.99
834.966	121.51
835.143	86.7
835.319	15.02
835.496	68.27
835.673	35.5
835.85	58.03
836.026	88.75
836.203	141.99
836.38	6.83
836.556	119.46
836.733	168.62
836.909	78.51
837.086	37.55
837.262	109.22
837.439	10.92
837.616	135.85
837.792	86.7
837.968	158.38
838.145	25.26
838.321	37.55
838.498	125.61
838.674	154.28
838.851	53.93
839.027	33.45
839.203	66.22
839.38	96.94
839.556	15.02
839.732	66.22
839.909	92.84
840.085	62.12
840.261	58.03
840.437	121.51
840.614	25.26
840.79	160.42
840.966	58.03
841.142	88.75
841.318	78.51
841.494	72.36
841.671	64.17
841.847	43.69
842.023	31.4
842.199	66.22
842.375	62.12
842.551	37.55
842.727	37.55
842.903	78.51
843.079	80.55
843.255	33.45
843.431	47.79
843.607	19.11
843.783	31.4
843.959	105.13
844.134	84.65
844.31	123.56
844.486	8.87
844.662	31.4
844.838	35.5
845.013	127.66
845.189	74.41
845.365	43.69
845.541	70.31
845.716	55.98
845.892	119.46
846.068	-1.37
846.244	4.78
846.419	33.45
846.595	-5.46
846.77	82.6
846.946	33.45
847.122	80.55
847.297	39.59
847.473	72.36
847.648	64.17
847.824	133.8
847.999	-34.13
848.175	82.6
848.35	76.46
848.526	55.98
848.701	109.22
848.876	41.64
849.052	98.99
849.227	58.03
849.403	25.26
849.578	88.75
849.753	84.65
849.929	51.88
850.104	-5.46
850.279	35.5
850.454	76.46
850.63	84.65
850.805	-5.46
850.98	45.74
851.155	43.69
851.33	84.65
851.505	8.87
851.681	-21.85
851.856	62.12
852.031	58.03
852.206	17.07
852.381	19.11
852.556	109.22
852.731	6.83
852.906	78.51
853.081	-3.41
853.256	27.31
853.431	17.07
853.606	-27.99
853.781	37.55
853.956	55.98
854.131	58.03
854.305	-21.85
854.48	37.55
854.655	51.88
854.83	41.64
855.005	-17.75
855.18	62.12
855.354	90.79
855.529	-21.85
855.704	-7.51
855.879	92.84
856.053	-3.41
856.228	8.87
856.403	-21.85
856.577	92.84
856.752	19.11
856.926	8.87
857.101	-1.37
857.276	55.98
857.45	96.94
857.625	51.88
857.799	-1.37
857.974	43.69
858.148	-5.46
858.323	-23.89
858.497	39.59
858.672	-30.04
858.846	53.93
859.02	58.03
859.195	-19.8
859.369	-11.61
859.543	49.83
859.718	10.92
859.892	41.64
860.066	94.89
860.241	41.64
860.415	43.69
860.589	-27.99
860.763	53.93
860.938	-34.13
861.112	94.89
861.286	41.64
861.46	41.64
861.634	45.74
861.808	25.26
861.982	70.31
862.157	72.36
862.331	78.51
862.505	-11.61
862.679	29.35
862.853	53.93
863.027	51.88
863.201	45.74
863.375	-9.56
863.549	86.7
863.722	23.21
863.896	103.08
864.07	10.92
864.244	37.55
864.418	105.13
864.592	43.69
864.766	21.16
864.939	-38.23
865.113	41.64
865.287	43.69
865.461	-32.08
865.634	0.68
865.808	-19.8
865.982	80.55
866.156	-1.37
866.329	41.64
866.503	-19.8
866.676	33.45
866.85	33.45
867.024	-27.99
867.197	62.12
867.371	15.02
867.544	-13.65
867.718	-5.46
867.891	-5.46
868.065	70.31
868.238	31.4
868.412	43.69
868.585	29.35
868.759	37.55
868.932	31.4
869.105	19.11
869.279	-19.8
869.452	103.08
869.625	41.64
869.799	-19.8
869.972	4.78
870.145	82.6
870.319	113.32
870.492	31.4
870.665	4.78
870.838	27.31
871.011	-17.75
871.185	-9.56
871.358	53.93
871.531	35.5
871.704	10.92
871.877	43.69
872.05	41.64
872.223	-46.42
872.396	17.07
872.569	35.5
872.742	8.87
872.915	12.97
873.088	12.97
873.261	0.68
873.434	17.07
873.607	49.83
873.78	41.64
873.953	-44.37
874.126	49.83
874.299	-11.61
874.471	-5.46
874.644	47.79
874.817	19.11
874.99	33.45
875.163	-40.28
875.335	-11.61
875.508	141.99
875.681	31.4
875.853	15.02
876.026	-36.18
876.199	101.03
876.371	15.02
876.544	17.07
876.717	51.88
876.889	80.55
877.062	127.66
877.234	4.78
877.407	94.89
877.579	-64.85
877.752	66.22
877.924	-15.7
878.097	21.16
878.269	-23.89
878.442	23.21
878.614	17.07
878.786	23.21
878.959	-7.51
879.131	43.69
879.303	-21.85
879.476	51.88
879.648	-25.94
879.82	53.93
879.993	8.87
880.165	-1.37
880.337	-103.76
880.509	78.51
880.681	2.73
880.854	111.27
881.026	31.4
881.198	6.83
881.37	8.87
881.542	2.73
881.714	-15.7
881.886	10.92
882.058	45.74
882.23	109.22
882.402	37.55
882.574	64.17
882.746	-21.85
882.918	17.07
883.09	25.26
883.262	-48.47
883.434	-38.23
883.606	-27.99
883.778	-32.08
883.95	70.31
884.122	39.59
884.293	37.55
884.465	-27.99
884.637	-11.61
884.809	-36.18
884.98	76.46
885.152	74.41
885.324	15.02
885.496	-50.52
885.667	0.68
885.839	-54.61
886.011	39.59
886.182	-5.46
886.354	25.26
886.525	-19.8
886.697	53.93
886.869	-17.75
887.04	27.31
887.212	45.74
887.383	90.79
887.555	37.55
887.726	-60.76
887.897	-7.51
888.069	-15.7
888.24	-34.13
888.412	-38.23
888.583	0.68
888.754	-48.47
888.926	10.92
889.097	29.35
889.268	47.79
889.44	21.16
889.611	45.74
889.782	49.83
889.953	-30.04
890.125	-7.51
890.296	-19.8
890.467	-23.89
890.638	-36.18
890.809	23.21
890.98	37.55
891.151	10.92
891.323	-25.94
891.494	12.97
891.665	-52.56
891.836	47.79
892.007	47.79
892.178	51.88
892.349	12.97
892.52	-11.61
892.691	15.02
892.862	-48.47
893.032	-17.75
893.203	21.16
893.374	6.83
893.545	-5.46
893.716	10.92
893.887	47.79
894.057	-27.99
894.228	19.11
894.399	66.22
894.57	101.03
894.74	117.42
894.911	29.35
895.082	-11.61
895.253	2.73
895.423	-71
895.594	4.78
895.764	72.36
895.935	23.21
896.106	19.11
896.276	-17.75
896.447	39.59
896.617	4.78
896.788	-23.89
896.958	-38.23
897.129	19.11
897.299	23.21
897.47	66.22
897.64	45.74
897.81	-11.61
897.981	2.73
898.151	10.92
898.322	82.6
898.492	2.73
898.662	21.16
898.832	60.07
899.003	-40.28
899.173	-19.8
899.343	90.79
899.513	35.5
