Data from USB4F104151__52__12-01-40-749.txt Node

Date: Fri Mar 14 12:01:40 EDT 2025
User: louis
Spectrometer: USB4F10415
Trigger mode: 4
Integration Time (sec): 2.000000E-2
Scans to average: 1
Electric dark correction enabled: true
Nonlinearity correction enabled: false
Boxcar width: 0
XAxis mode: Wavelengths
Number of Pixels in Spectrum: 3648
>>>>>Begin Spectral Data<<<<<
178.204	-32.43
178.424	-32.43
178.644	-32.43
178.864	-40.62
179.084	-46.76
179.304	-44.71
179.524	20.82
179.744	41.3
179.964	22.87
180.184	-13.99
180.404	26.96
180.624	-16.04
180.844	-63.15
181.064	55.64
181.283	6.49
181.503	41.3
181.723	-77.48
181.943	-83.63
182.163	110.93
182.383	-1.71
182.602	10.58
182.822	51.54
183.042	6.49
183.262	-5.8
183.482	-3.75
183.701	2.39
183.921	-3.75
184.141	4.44
184.361	96.6
184.58	-11.95
184.8	41.3
185.02	-59.05
185.239	14.68
185.459	37.2
185.679	14.68
185.898	-24.23
186.118	37.2
186.338	24.92
186.557	53.59
186.777	20.82
186.997	2.39
187.216	41.3
187.436	53.59
187.655	-7.85
187.875	22.87
188.095	29.01
188.314	10.58
188.534	-9.9
188.753	43.35
188.973	35.16
189.192	39.25
189.412	86.36
189.631	41.3
189.851	51.54
190.07	20.82
190.29	2.39
190.509	53.59
190.729	65.88
190.948	14.68
191.168	92.5
191.387	49.49
191.607	59.73
191.826	-1.71
192.045	37.2
192.265	18.77
192.484	78.16
192.704	18.77
192.923	10.58
193.142	37.2
193.362	-18.09
193.581	6.49
193.8	72.02
194.02	20.82
194.239	10.58
194.458	69.97
194.678	37.2
194.897	41.3
195.116	76.12
195.335	72.02
195.555	31.06
195.774	-44.71
195.993	22.87
196.212	-20.14
196.432	35.16
196.651	-71.34
196.87	53.59
197.089	127.32
197.308	96.6
197.528	-46.76
197.747	-22.19
197.966	-11.95
198.185	63.83
198.404	39.25
198.623	-22.19
198.842	39.25
199.062	16.73
199.281	92.5
199.5	51.54
199.719	29.01
199.938	6.49
200.157	112.98
200.376	-32.43
200.595	35.16
200.814	2.39
201.033	-61.1
201.252	33.11
201.471	82.26
201.69	53.59
201.909	80.21
202.128	65.88
202.347	78.16
202.566	29.01
202.785	59.73
203.004	4.44
203.223	65.88
203.442	65.88
203.661	-1.71
203.879	20.82
204.098	76.12
204.317	-46.76
204.536	35.16
204.755	4.44
204.974	108.88
205.193	69.97
205.411	41.3
205.63	-9.9
205.849	121.17
206.068	65.88
206.287	76.12
206.505	84.31
206.724	4.44
206.943	45.4
207.162	59.73
207.381	84.31
207.599	-93.87
207.818	29.01
208.037	80.21
208.255	-5.8
208.474	72.02
208.693	-28.33
208.911	-18.09
209.13	63.83
209.349	92.5
209.567	8.53
209.786	26.96
210.005	35.16
210.223	8.53
210.442	-26.28
210.661	-18.09
210.879	-18.09
211.098	29.01
211.316	-26.28
211.535	10.58
211.753	37.2
211.972	33.11
212.191	10.58
212.409	47.44
212.628	2.39
212.846	12.63
213.065	65.88
213.283	33.11
213.502	37.2
213.72	22.87
213.938	57.68
214.157	-7.85
214.375	59.73
214.594	37.2
214.812	-9.9
215.031	94.55
215.249	14.68
215.467	6.49
215.686	20.82
215.904	88.4
216.122	63.83
216.341	59.73
216.559	74.07
216.778	57.68
216.996	-3.75
217.214	-22.19
217.432	86.36
217.651	14.68
217.869	4.44
218.087	-30.38
218.306	69.97
218.524	110.93
218.742	16.73
218.96	49.49
219.179	4.44
219.397	88.4
219.615	121.17
219.833	47.44
220.051	37.2
220.27	96.6
220.488	84.31
220.706	24.92
220.924	63.83
221.142	57.68
221.36	12.63
221.578	53.59
221.796	14.68
222.015	29.01
222.233	12.63
222.451	20.82
222.669	-5.8
222.887	61.78
223.105	47.44
223.323	-20.14
223.541	-42.67
223.759	53.59
223.977	-24.23
224.195	59.73
224.413	35.16
224.631	45.4
224.849	57.68
225.067	108.88
225.285	12.63
225.503	26.96
225.721	16.73
225.939	-24.23
226.157	90.45
226.375	108.88
226.592	31.06
226.81	39.25
227.028	37.2
227.246	63.83
227.464	14.68
227.682	4.44
227.9	-13.99
228.117	53.59
228.335	4.44
228.553	-5.8
228.771	16.73
228.989	53.59
229.206	0.34
229.424	67.92
229.642	24.92
229.86	33.11
230.077	-32.43
230.295	26.96
230.513	53.59
230.731	51.54
230.948	26.96
231.166	80.21
231.384	51.54
231.601	-30.38
231.819	41.3
232.037	24.92
232.254	-38.57
232.472	29.01
232.689	-46.76
232.907	63.83
233.125	18.77
233.342	69.97
233.56	12.63
233.777	55.64
233.995	-13.99
234.213	61.78
234.43	51.54
234.648	20.82
234.865	-11.95
235.083	78.16
235.3	26.96
235.518	35.16
235.735	45.4
235.953	133.46
236.17	115.03
236.388	26.96
236.605	53.59
236.822	43.35
237.04	72.02
237.257	47.44
237.475	37.2
237.692	37.2
237.909	108.88
238.127	43.35
238.344	26.96
238.562	51.54
238.779	24.92
238.996	86.36
239.214	24.92
239.431	-5.8
239.648	61.78
239.865	88.4
240.083	-5.8
240.3	0.34
240.517	78.16
240.735	-5.8
240.952	110.93
241.169	18.77
241.386	-1.71
241.603	63.83
241.821	39.25
242.038	63.83
242.255	24.92
242.472	39.25
242.689	-1.71
242.907	33.11
243.124	-11.95
243.341	53.59
243.558	24.92
243.775	4.44
243.992	-63.15
244.209	35.16
244.426	100.69
244.643	98.64
244.86	-1.71
245.078	74.07
245.295	106.84
245.512	45.4
245.729	47.44
245.946	72.02
246.163	-9.9
246.38	35.16
246.597	0.34
246.814	-7.85
247.031	-20.14
247.248	43.35
247.464	35.16
247.681	-36.52
247.898	-18.09
248.115	43.35
248.332	33.11
248.549	76.12
248.766	94.55
248.983	39.25
249.2	2.39
249.417	22.87
249.633	-26.28
249.85	88.4
250.067	-24.23
250.284	35.16
250.501	41.3
250.717	94.55
250.934	90.45
251.151	14.68
251.368	-20.14
251.585	47.44
251.801	45.4
252.018	-40.62
252.235	10.58
252.451	29.01
252.668	53.59
252.885	8.53
253.102	-50.86
253.318	63.83
253.535	-16.04
253.752	53.59
253.968	47.44
254.185	-36.52
254.401	8.53
254.618	31.06
254.835	45.4
255.051	10.58
255.268	12.63
255.484	67.92
255.701	78.16
255.917	4.44
256.134	22.87
256.351	123.22
256.567	55.64
256.784	69.97
257	31.06
257.217	31.06
257.433	45.4
257.65	41.3
257.866	-1.71
258.082	78.16
258.299	4.44
258.515	8.53
258.732	51.54
258.948	67.92
259.165	26.96
259.381	22.87
259.597	16.73
259.814	76.12
260.03	14.68
260.246	29.01
260.463	65.88
260.679	-3.75
260.895	63.83
261.112	-1.71
261.328	-1.71
261.544	-30.38
261.761	-13.99
261.977	-36.52
262.193	-50.86
262.409	100.69
262.626	41.3
262.842	106.84
263.058	-18.09
263.274	-57
263.49	57.68
263.707	24.92
263.923	63.83
264.139	31.06
264.355	49.49
264.571	72.02
264.787	31.06
265.004	84.31
265.22	-18.09
265.436	65.88
265.652	80.21
265.868	102.74
266.084	31.06
266.3	18.77
266.516	4.44
266.732	55.64
266.948	-20.14
267.164	-3.75
267.38	-1.71
267.596	8.53
267.812	49.49
268.028	31.06
268.244	55.64
268.46	26.96
268.676	22.87
268.892	80.21
269.108	4.44
269.324	-26.28
269.54	20.82
269.756	78.16
269.972	8.53
270.188	2.39
270.403	35.16
270.619	100.69
270.835	6.49
271.051	-1.71
271.267	-28.33
271.483	6.49
271.698	88.4
271.914	49.49
272.13	-5.8
272.346	37.2
272.562	69.97
272.777	51.54
272.993	37.2
273.209	2.39
273.425	51.54
273.64	-65.19
273.856	22.87
274.072	55.64
274.287	49.49
274.503	63.83
274.719	98.64
274.934	86.36
275.15	51.54
275.366	20.82
275.581	29.01
275.797	6.49
276.012	-5.8
276.228	123.22
276.444	22.87
276.659	45.4
276.875	6.49
277.09	35.16
277.306	-11.95
277.521	-16.04
277.737	-40.62
277.952	100.69
278.168	35.16
278.383	47.44
278.599	125.27
278.814	41.3
279.03	39.25
279.245	41.3
279.461	35.16
279.676	22.87
279.892	43.35
280.107	51.54
280.322	51.54
280.538	26.96
280.753	-26.28
280.969	69.97
281.184	20.82
281.399	63.83
281.615	0.34
281.83	35.16
282.045	-44.71
282.26	-7.85
282.476	-11.95
282.691	90.45
282.906	96.6
283.122	4.44
283.337	4.44
283.552	55.64
283.767	-7.85
283.983	-1.71
284.198	16.73
284.413	8.53
284.628	-30.38
284.843	49.49
285.058	67.92
285.274	49.49
285.489	-34.47
285.704	63.83
285.919	-3.75
286.134	47.44
286.349	51.54
286.564	24.92
286.779	49.49
286.995	12.63
287.21	-30.38
287.425	39.25
287.64	-34.47
287.855	22.87
288.07	-7.85
288.285	18.77
288.5	78.16
288.715	-24.23
288.93	-11.95
289.145	14.68
289.36	29.01
289.575	76.12
289.79	61.78
290.004	90.45
290.219	51.54
290.434	26.96
290.649	12.63
290.864	-52.91
291.079	37.2
291.294	63.83
291.509	39.25
291.724	63.83
291.938	88.4
292.153	86.36
292.368	78.16
292.583	80.21
292.798	55.64
293.012	-30.38
293.227	53.59
293.442	-13.99
293.657	61.78
293.871	20.82
294.086	115.03
294.301	2.39
294.516	31.06
294.73	51.54
294.945	57.68
295.16	37.2
295.374	-1.71
295.589	-18.09
295.804	29.01
296.018	51.54
296.233	-16.04
296.447	20.82
296.662	47.44
296.877	4.44
297.091	61.78
297.306	78.16
297.52	6.49
297.735	18.77
297.949	53.59
298.164	33.11
298.378	-3.75
298.593	-16.04
298.807	6.49
299.022	12.63
299.236	98.64
299.451	63.83
299.665	2.39
299.88	37.2
300.094	-5.8
300.309	-13.99
300.523	96.6
300.737	76.12
300.952	61.78
301.166	90.45
301.381	69.97
301.595	-9.9
301.809	35.16
302.024	39.25
302.238	22.87
302.452	8.53
302.667	-11.95
302.881	78.16
303.095	-5.8
303.309	57.68
303.524	72.02
303.738	53.59
303.952	-77.48
304.166	67.92
304.381	31.06
304.595	119.12
304.809	51.54
305.023	80.21
305.237	35.16
305.452	-3.75
305.666	41.3
305.88	43.35
306.094	14.68
306.308	4.44
306.522	37.2
306.736	57.68
306.95	-3.75
307.164	39.25
307.379	8.53
307.593	49.49
307.807	53.59
308.021	96.6
308.235	86.36
308.449	63.83
308.663	69.97
308.877	47.44
309.091	18.77
309.305	80.21
309.519	35.16
309.733	61.78
309.947	-9.9
310.161	2.39
310.374	22.87
310.588	84.31
310.802	41.3
311.016	18.77
311.23	18.77
311.444	35.16
311.658	-71.34
311.872	96.6
312.085	35.16
312.299	86.36
312.513	57.68
312.727	37.2
312.941	35.16
313.154	39.25
313.368	-38.57
313.582	35.16
313.796	6.49
314.009	29.01
314.223	45.4
314.437	35.16
314.651	29.01
314.864	104.79
315.078	31.06
315.292	22.87
315.505	2.39
315.719	35.16
315.933	84.31
316.146	49.49
316.36	26.96
316.573	10.58
316.787	4.44
317.001	35.16
317.214	55.64
317.428	39.25
317.641	47.44
317.855	51.54
318.068	49.49
318.282	8.53
318.495	53.59
318.709	14.68
318.922	-9.9
319.136	104.79
319.349	59.73
319.563	41.3
319.776	127.32
319.99	-3.75
320.203	53.59
320.417	2.39
320.63	90.45
320.843	153.94
321.057	-7.85
321.27	41.3
321.483	0.34
321.697	43.35
321.91	67.92
322.124	37.2
322.337	110.93
322.55	18.77
322.763	53.59
322.977	-22.19
323.19	59.73
323.403	31.06
323.617	49.49
323.83	57.68
324.043	94.55
324.256	49.49
324.469	4.44
324.683	104.79
324.896	-38.57
325.109	47.44
325.322	37.2
325.535	119.12
325.748	72.02
325.962	49.49
326.175	67.92
326.388	-3.75
326.601	51.54
326.814	51.54
327.027	43.35
327.24	80.21
327.453	67.92
327.666	84.31
327.879	29.01
328.092	108.88
328.305	-18.09
328.518	18.77
328.731	8.53
328.944	49.49
329.157	45.4
329.37	84.31
329.583	112.98
329.796	63.83
330.009	82.26
330.222	139.6
330.435	10.58
330.648	6.49
330.861	-24.23
331.073	14.68
331.286	0.34
331.499	59.73
331.712	63.83
331.925	51.54
332.138	20.82
332.35	67.92
332.563	-3.75
332.776	43.35
332.989	37.2
333.202	94.55
333.414	24.92
333.627	0.34
333.84	67.92
334.053	39.25
334.265	26.96
334.478	63.83
334.691	14.68
334.903	43.35
335.116	0.34
335.329	12.63
335.541	92.5
335.754	53.59
335.966	35.16
336.179	51.54
336.392	74.07
336.604	33.11
336.817	94.55
337.029	20.82
337.242	22.87
337.454	92.5
337.667	26.96
337.88	55.64
338.092	22.87
338.305	61.78
338.517	55.64
338.729	123.22
338.942	53.59
339.154	65.88
339.367	-20.14
339.579	61.78
339.792	88.4
340.004	45.4
340.217	45.4
340.429	125.27
340.641	61.78
340.854	-5.8
341.066	67.92
341.278	33.11
341.491	133.46
341.703	6.49
341.915	24.92
342.128	43.35
342.34	-28.33
342.552	69.97
342.764	16.73
342.977	-28.33
343.189	14.68
343.401	0.34
343.613	-36.52
343.826	123.22
344.038	57.68
344.25	59.73
344.462	53.59
344.674	37.2
344.886	78.16
345.099	22.87
345.311	-13.99
345.523	63.83
345.735	33.11
345.947	121.17
346.159	-1.71
346.371	86.36
346.583	-18.09
346.795	4.44
347.007	-57
347.219	96.6
347.431	2.39
347.643	139.6
347.855	39.25
348.067	39.25
348.279	-13.99
348.491	33.11
348.703	72.02
348.915	61.78
349.127	92.5
349.339	57.68
349.551	37.2
349.763	72.02
349.975	-9.9
350.187	65.88
350.399	98.64
350.61	59.73
350.822	47.44
351.034	43.35
351.246	65.88
351.458	51.54
351.669	106.84
351.881	110.93
352.093	63.83
352.305	94.55
352.517	127.32
352.728	84.31
352.94	72.02
353.152	18.77
353.363	115.03
353.575	119.12
353.787	115.03
353.999	39.25
354.21	121.17
354.422	-5.8
354.633	18.77
354.845	24.92
355.057	-20.14
355.268	121.17
355.48	151.89
355.692	22.87
355.903	57.68
356.115	119.12
356.326	-16.04
356.538	112.98
356.749	31.06
356.961	115.03
357.172	16.73
357.384	24.92
357.595	59.73
357.807	106.84
358.018	74.07
358.23	49.49
358.441	92.5
358.653	37.2
358.864	53.59
359.075	35.16
359.287	72.02
359.498	53.59
359.709	82.26
359.921	67.92
360.132	67.92
360.344	45.4
360.555	-30.38
360.766	110.93
360.977	110.93
361.189	110.93
361.4	55.64
361.611	69.97
361.823	117.08
362.034	65.88
362.245	16.73
362.456	61.78
362.667	59.73
362.879	8.53
363.09	125.27
363.301	33.11
363.512	47.44
363.723	90.45
363.935	39.25
364.146	16.73
364.357	115.03
364.568	-5.8
364.779	18.77
364.99	129.36
365.201	53.59
365.412	43.35
365.623	8.53
365.834	53.59
366.045	106.84
366.256	57.68
366.467	67.92
366.678	-52.91
366.889	-24.23
367.1	12.63
367.311	102.74
367.522	53.59
367.733	74.07
367.944	55.64
368.155	35.16
368.366	22.87
368.577	-38.57
368.788	-16.04
368.999	57.68
369.209	22.87
369.42	155.99
369.631	119.12
369.842	69.97
370.053	20.82
370.264	-24.23
370.474	133.46
370.685	20.82
370.896	35.16
371.107	96.6
371.317	61.78
371.528	29.01
371.739	110.93
371.95	69.97
372.16	84.31
372.371	47.44
372.582	72.02
372.792	61.78
373.003	80.21
373.214	80.21
373.424	2.39
373.635	4.44
373.846	94.55
374.056	35.16
374.267	166.23
374.477	76.12
374.688	123.22
374.898	65.88
375.109	57.68
375.319	2.39
375.53	153.94
375.74	55.64
375.951	65.88
376.161	35.16
376.372	53.59
376.582	39.25
376.793	29.01
377.003	16.73
377.214	29.01
377.424	106.84
377.635	117.08
377.845	86.36
378.055	98.64
378.266	-30.38
378.476	106.84
378.686	-1.71
378.897	37.2
379.107	84.31
379.317	106.84
379.528	63.83
379.738	104.79
379.948	59.73
380.158	55.64
380.369	74.07
380.579	98.64
380.789	78.16
380.999	153.94
381.21	39.25
381.42	84.31
381.63	37.2
381.84	94.55
382.05	18.77
382.261	35.16
382.471	131.41
382.681	63.83
382.891	90.45
383.101	100.69
383.311	102.74
383.521	57.68
383.731	170.32
383.941	125.27
384.151	131.41
384.361	80.21
384.571	80.21
384.781	96.6
384.991	29.01
385.201	86.36
385.411	119.12
385.621	84.31
385.831	45.4
386.041	53.59
386.251	69.97
386.461	69.97
386.671	41.3
386.881	57.68
387.091	143.7
387.301	133.46
387.511	35.16
387.72	102.74
387.93	110.93
388.14	20.82
388.35	88.4
388.56	90.45
388.769	155.99
388.979	86.36
389.189	43.35
389.399	43.35
389.609	57.68
389.818	88.4
390.028	88.4
390.238	69.97
390.447	55.64
390.657	98.64
390.867	65.88
391.076	121.17
391.286	94.55
391.496	69.97
391.705	69.97
391.915	121.17
392.125	82.26
392.334	178.51
392.544	125.27
392.753	119.12
392.963	61.78
393.172	123.22
393.382	57.68
393.591	84.31
393.801	72.02
394.01	117.08
394.22	153.94
394.429	82.26
394.639	121.17
394.848	135.51
395.058	174.42
395.267	61.78
395.477	108.88
395.686	8.53
395.895	117.08
396.105	112.98
396.314	61.78
396.524	194.9
396.733	166.23
396.942	184.66
397.152	184.66
397.361	55.64
397.57	192.85
397.78	143.7
397.989	69.97
398.198	164.18
398.407	55.64
398.617	104.79
398.826	145.75
399.035	104.79
399.244	102.74
399.453	237.91
399.663	135.51
399.872	123.22
400.081	125.27
400.29	176.47
400.499	129.36
400.708	205.14
400.917	43.35
401.127	63.83
401.336	123.22
401.545	221.52
401.754	168.27
401.963	137.56
402.172	78.16
402.381	110.93
402.59	141.65
402.799	184.66
403.008	110.93
403.217	168.27
403.426	176.47
403.635	127.32
403.844	166.23
404.053	51.54
404.262	102.74
404.471	170.32
404.68	205.14
404.888	115.03
405.097	203.09
405.306	174.42
405.515	139.6
405.724	94.55
405.933	299.34
406.142	229.71
406.35	209.23
406.559	119.12
406.768	147.8
406.977	260.43
407.185	268.63
407.394	246.1
407.603	246.1
407.812	317.78
408.02	313.68
408.229	233.81
408.438	291.15
408.646	340.3
408.855	332.11
409.064	366.93
409.272	266.58
409.481	354.64
409.69	291.15
409.898	385.36
410.107	450.89
410.315	362.83
410.524	397.65
410.733	373.07
410.941	442.7
411.15	506.19
411.358	457.04
411.567	549.2
411.775	530.77
411.984	479.57
412.192	608.59
412.401	512.33
412.609	469.33
412.818	631.12
413.026	586.06
413.234	663.88
413.443	635.21
413.651	698.7
413.86	659.79
414.068	723.27
414.276	862.54
414.485	768.33
414.693	878.92
414.901	917.83
415.11	854.34
415.318	846.15
415.526	907.59
415.734	923.98
415.943	977.22
416.151	1024.33
416.359	1053
416.567	1122.63
416.776	1087.81
416.984	1110.34
417.192	1235.27
417.4	1188.16
417.608	1321.28
417.817	1329.47
418.025	1390.91
418.233	1487.17
418.441	1476.93
418.649	1538.37
418.857	1456.45
419.065	1601.85
419.273	1550.65
419.481	1661.24
419.689	1691.96
419.897	1886.52
420.105	1810.75
420.313	1935.67
420.521	2023.73
420.729	2056.5
420.937	2081.08
421.145	2226.48
421.353	2316.59
421.561	2275.63
421.769	2429.23
421.977	2556.21
422.185	2494.77
422.393	2621.74
422.601	2830.63
422.809	2916.65
423.017	2879.79
423.224	3049.77
423.432	3170.6
423.64	3143.97
423.848	3402.02
424.056	3379.49
424.263	3483.94
424.471	3606.81
424.679	3572
424.887	3768.6
425.094	3971.35
425.302	3909.91
425.51	4036.89
425.718	4286.74
425.925	4194.58
426.133	4421.91
426.341	4710.67
426.548	4849.93
426.756	4923.66
426.964	5212.42
427.171	5323.01
427.379	5243.14
427.586	5550.34
427.794	5640.45
428.001	5912.83
428.209	6134.01
428.417	6093.05
428.624	6621.42
428.832	6553.84
429.039	6353.14
429.247	6469.87
429.454	7035.11
429.662	7712.99
429.869	7256.29
430.076	7719.14
430.284	7487.72
430.491	7831.77
430.699	8210.65
430.906	8306.9
431.114	8304.85
431.321	8569.04
431.528	8831.18
431.736	9330.89
431.943	9554.12
432.15	9425.09
432.358	9736.38
432.565	10377.4
432.772	10264.76
432.979	10758.32
433.187	10723.51
433.394	10885.3
433.601	11679.91
433.808	11675.81
434.016	11516.07
434.223	12144.8
434.43	12886.16
434.637	12318.87
434.844	13084.81
435.052	13619.33
435.259	13660.29
435.466	13559.94
435.673	13512.84
435.88	14194.81
436.087	14966.9
436.294	15091.82
436.501	14930.03
436.708	15218.8
436.915	15509.61
437.122	16355.42
437.329	16400.48
437.537	16824.4
437.743	17006.67
437.95	16924.76
438.157	17922.12
438.364	18350.14
438.571	18180.16
438.778	18575.42
438.985	20045.86
439.192	19380.27
439.399	20140.07
439.606	19712.04
439.813	20684.83
440.02	22044.68
440.227	21534.73
440.433	21329.94
440.64	21970.95
440.847	21970.95
441.054	22341.63
441.261	23859.18
441.467	23640.04
441.674	24000.49
441.881	25204.69
442.088	24981.46
442.294	24700.89
442.501	25411.54
442.708	26220.49
442.914	26961.85
443.121	28049.32
443.328	27766.7
443.534	29411.22
443.741	28319.65
443.948	28270.5
444.154	30146.44
444.361	30017.42
444.568	30406.53
444.774	30160.78
444.981	30721.92
445.187	31342.46
445.394	33154.91
445.6	32249.71
445.807	35440.44
446.013	33800.02
446.22	34703.17
446.426	35989.3
446.633	36185.9
446.839	37242.65
447.046	35991.34
447.252	37979.92
447.459	37889.81
447.665	37834.52
447.871	39569.15
448.078	40830.69
448.284	39249.66
448.491	40226.54
448.697	41764.57
448.903	42133.2
449.11	42294.99
449.316	41832.15
449.522	42731.21
449.728	43398.85
449.935	43531.97
450.141	43732.67
450.347	44877.48
450.553	43509.44
450.76	43927.22
450.966	45663.9
451.172	45020.84
451.378	46380.69
451.584	45113
451.791	46227.09
451.997	46114.45
452.203	47038.09
452.409	46685.84
452.615	46485.14
452.821	44754.6
453.027	44271.28
453.233	46554.77
453.44	44844.71
453.646	45373.09
453.852	45420.19
454.058	46067.35
454.264	44840.62
454.47	45729.44
454.676	44482.22
454.882	46372.5
455.088	42108.63
455.294	42680.01
455.5	43177.67
455.705	43865.78
455.911	41944.79
456.117	41250.53
456.323	40523.5
456.529	38795.01
456.735	40298.22
456.941	39210.75
457.147	38328.08
457.352	37553.94
457.558	37027.62
457.764	36855.59
457.97	35991.34
458.176	35116.86
458.381	35678
458.587	33533.78
458.793	33634.13
458.999	31960.94
459.204	34074.45
459.41	33081.18
459.616	30941.05
459.821	31020.92
460.027	30822.27
460.233	30125.96
460.438	29276.05
460.644	29120.41
460.85	27766.7
461.055	27414.45
461.261	27230.13
461.466	25184.21
461.672	24526.82
461.878	26259.4
462.083	24301.54
462.289	24068.07
462.494	23621.61
462.7	22827
462.905	22095.88
463.111	22958.07
463.316	23033.85
463.522	22491.13
463.727	22749.18
463.932	22302.72
464.138	22247.43
464.343	22450.17
464.549	21676.04
464.754	22448.13
464.959	22392.83
465.165	22140.93
465.37	21096.47
465.575	20697.11
465.781	21436.43
465.986	21639.18
466.191	20848.66
466.397	20144.16
466.602	19279.92
466.807	20246.56
467.012	20199.46
467.218	20131.87
467.423	19830.82
467.628	19744.81
467.833	20723.74
468.038	20027.43
468.244	19195.95
468.449	20297.76
468.654	19345.45
468.859	19372.08
469.064	19228.72
469.269	18632.76
469.474	18649.14
469.679	19042.35
469.885	18479.16
470.09	18896.95
470.295	18579.51
470.5	17993.79
470.705	18024.51
470.91	17608.78
471.115	17827.91
471.32	17877.06
471.525	18022.47
471.73	17375.31
471.935	17477.71
472.139	16496.73
472.344	17121.36
472.549	16861.27
472.754	16635.99
472.959	16244.83
473.164	15855.72
473.369	15650.92
473.574	16398.43
473.778	16087.14
473.983	15980.64
474.188	15784.04
474.393	15220.85
474.598	15003.76
474.802	15224.94
475.007	15095.92
475.212	14837.87
475.417	14571.64
475.621	14461.05
475.826	14540.92
476.031	14129.28
476.235	14076.03
476.44	14176.38
476.645	13695.11
476.849	13795.46
477.054	13740.16
477.259	13277.32
477.463	13514.89
477.668	13125.77
477.872	13340.81
478.077	13088.91
478.282	12796.05
478.486	12789.91
478.691	12484.76
478.895	12595.35
479.1	12611.73
479.304	12570.77
479.509	12136.6
479.713	12325.02
479.918	12075.17
480.122	11903.14
480.326	11989.15
480.531	12066.97
480.735	11849.89
480.94	11772.07
481.144	12112.03
481.348	11575.46
481.553	11866.27
481.757	11294.89
481.961	11733.15
482.166	11907.23
482.37	11530.41
482.574	11530.41
482.778	11669.67
482.983	11643.04
483.187	11589.8
483.391	11647.14
483.595	11454.63
483.8	11409.58
484.004	11626.66
484.208	11471.01
484.412	11538.6
484.616	11692.19
484.821	11671.72
485.025	11382.95
485.229	11774.11
485.433	11473.06
485.637	11600.04
485.841	11460.77
486.045	11325.61
486.249	11372.71
486.453	11380.9
486.657	11335.85
486.861	11520.17
487.065	11231.4
487.269	11602.08
487.473	11143.34
487.677	11530.41
487.881	11600.04
488.085	11481.25
488.289	11499.69
488.493	11483.3
488.697	11702.43
488.901	11520.17
489.105	11468.97
489.309	11704.48
489.512	11528.36
489.716	11651.24
489.92	11571.36
490.124	11448.49
490.328	11747.49
490.531	11489.45
490.735	11475.11
490.939	11763.87
491.143	11806.88
491.346	11747.49
491.55	11960.48
491.754	11841.7
491.958	12028.06
492.161	12003.49
492.365	12046.49
492.569	12056.73
492.772	11790.5
492.976	12208.28
493.18	12322.97
493.383	12304.54
493.587	12460.18
493.79	12652.69
493.994	12517.53
494.197	12767.38
494.401	12634.26
494.605	12755.09
494.808	12865.68
495.012	13054.09
495.215	12957.84
495.419	13234.32
495.622	13076.62
495.825	13086.86
496.029	13351.05
496.232	13676.68
496.436	13371.53
496.639	13709.44
496.843	13598.85
497.046	14033.02
497.249	14084.22
497.453	14127.23
497.656	14430.33
497.859	14463.1
498.063	14596.21
498.266	14704.76
498.469	14518.39
498.673	15071.34
498.876	15140.97
499.079	15345.77
499.282	15419.5
499.485	15708.26
499.689	15655.01
499.892	15988.83
500.095	16048.22
500.298	16400.48
500.501	16205.92
500.705	16754.77
500.908	16687.19
501.111	16939.09
501.314	16992.34
501.517	17256.53
501.72	17451.08
501.923	17535.05
502.126	17948.74
502.329	18077.76
502.532	18362.43
502.735	18206.78
502.938	18423.87
503.141	18913.33
503.344	18884.66
503.547	19288.11
503.75	19384.37
503.953	19572.78
504.156	19865.64
504.359	19927.08
504.562	20043.81
504.765	20215.84
504.968	20729.88
505.17	20658.2
505.373	21004.31
505.576	21518.35
505.779	21366.8
505.982	21645.32
506.185	21800.97
506.387	22177.79
506.59	22147.08
506.793	22546.43
506.996	22800.38
507.198	23281.65
507.401	23066.61
507.604	23439.34
507.807	23791.59
508.009	24059.88
508.212	24029.16
508.415	24217.57
508.617	24319.97
508.82	24887.26
509.022	24543.2
509.225	24969.18
509.428	25417.68
509.63	25534.42
509.833	26050.5
510.035	26382.27
510.238	26453.95
510.44	26435.52
510.643	26666.94
510.845	26734.53
511.048	27092.92
511.25	27416.5
511.453	27652.02
511.655	28659.62
511.858	27955.11
512.06	28211.11
512.262	28696.48
512.465	28723.1
512.667	29255.57
512.87	29421.46
513.072	29751.18
513.274	30160.78
513.477	30330.76
513.679	30289.8
513.881	31117.18
514.084	30805.89
514.286	31162.23
514.488	31106.94
514.69	32163.69
514.893	32180.07
515.095	32116.59
515.297	32671.59
515.499	33118.04
515.701	33032.03
515.904	33494.87
516.106	33738.58
516.308	33685.33
516.51	34318.15
516.712	33951.57
516.914	34598.73
517.116	35196.73
517.318	35026.75
517.52	35489.59
517.722	35538.74
517.925	35809.07
518.127	36124.46
518.329	36626.21
518.531	36480.81
518.733	37261.08
518.935	37457.69
519.136	37574.42
519.338	37754.65
519.54	37855
519.742	38575.88
519.944	38172.43
520.146	38876.93
520.348	39134.98
520.55	39380.73
520.752	40120.05
520.954	40371.95
521.155	39786.23
521.357	40562.41
521.559	40783.59
521.761	40830.69
521.963	41230.05
522.164	41252.58
522.366	41484
522.568	41735.9
522.77	41887.45
522.971	42430.16
523.173	42092.24
523.375	42835.66
523.576	42540.75
523.778	42993.35
523.98	43255.49
524.181	43638.46
524.383	43519.68
524.584	44109.49
524.786	44035.77
524.988	44068.53
525.189	44555.95
525.391	44541.61
525.592	45094.57
525.794	44910.25
525.995	45121.19
526.197	44986.02
526.398	45242.02
526.6	45840.03
526.801	45682.33
527.003	45967
527.204	45422.24
527.406	46405.27
527.607	46124.69
527.808	46372.5
528.01	45332.13
528.211	45901.46
528.412	46986.89
528.614	46493.33
528.815	47044.23
529.016	47265.41
529.218	46728.84
529.419	46868.11
529.62	46980.74
529.822	47203.97
530.023	47376
530.224	47302.28
530.425	47050.38
530.626	46765.71
530.828	47066.76
531.029	47887.99
531.23	47310.47
531.431	47193.73
531.632	47462.02
531.833	47953.53
532.035	47480.45
532.236	47611.52
532.437	48105.08
532.638	47478.4
532.839	47830.65
533.04	47986.3
533.241	47670.91
533.442	48510.58
533.643	48055.93
533.844	48248.44
534.045	47855.23
534.246	47064.71
534.447	48307.83
534.648	47832.7
534.849	48057.98
535.05	47662.72
535.251	47945.34
535.451	47775.36
535.652	48189.05
535.853	47564.42
536.054	47978.11
536.255	48199.29
536.456	47392.39
536.657	48277.11
536.857	47687.29
537.058	47365.76
537.259	48125.56
537.46	47879.8
537.66	47574.66
537.861	47601.28
538.062	47462.02
538.263	47781.5
538.463	47666.81
538.664	47887.99
538.865	47613.57
539.065	47924.86
539.266	47935.1
539.466	48129.65
539.667	47152.77
539.868	48242.29
540.068	47781.5
540.269	47351.43
540.469	47652.48
540.67	47380.1
540.87	48115.32
541.071	47494.78
541.271	47513.22
541.472	47638.14
541.672	47173.25
541.873	47634.05
542.073	47068.81
542.274	47687.29
542.474	47404.67
542.675	47095.43
542.875	47758.97
543.075	47515.26
543.276	46778
543.476	47699.58
543.676	47197.83
543.877	47679.1
544.077	47140.49
544.277	47574.66
544.478	47224.45
544.678	47439.49
544.878	47322.76
545.078	47261.32
545.279	47011.46
545.479	46608.01
545.679	46966.41
545.879	47036.04
546.079	47058.57
546.28	47036.04
546.48	46628.49
546.68	46984.84
546.88	47142.53
547.08	46849.67
547.28	47171.21
547.48	46292.63
547.68	47066.76
547.88	47267.46
548.081	47040.14
548.281	46970.5
548.481	46487.18
548.681	47425.15
548.881	46763.66
549.081	46894.73
549.28	46544.53
549.48	46939.79
549.68	46765.71
549.88	47054.47
550.08	46667.41
550.28	47003.27
550.48	46538.38
550.68	47144.58
550.88	46311.06
551.08	46349.97
551.279	46599.82
551.479	46233.24
551.679	46673.55
551.879	46505.62
552.079	46565.01
552.278	45833.88
552.478	46577.29
552.678	46530.19
552.878	46943.88
553.077	46384.79
553.277	46311.06
553.477	46737.04
553.676	46417.55
553.876	46345.87
554.076	46556.81
554.275	46186.13
554.475	45829.79
554.674	46593.68
554.874	46143.13
555.074	46120.6
555.273	46141.08
555.473	46397.07
555.672	46141.08
555.872	45827.74
556.071	46419.6
556.271	46055.06
556.47	46016.15
556.67	45885.08
556.869	45829.79
557.068	46149.27
557.268	45594.27
557.467	45723.29
557.667	45698.72
557.866	45715.1
558.065	45874.84
558.265	45553.31
558.464	45387.42
558.663	46048.92
558.863	45190.82
559.062	46065.3
559.261	45090.47
559.461	45751.96
559.66	44785.32
559.859	45885.08
560.058	44670.64
560.258	45334.18
560.457	45264.55
560.656	45104.81
560.855	45063.85
561.054	44940.97
561.253	44525.23
561.453	45219.49
561.652	45164.2
561.851	44820.14
562.05	44897.96
562.249	44707.5
562.448	45002.41
562.647	44261.04
562.846	44416.69
563.045	44816.04
563.244	44181.17
563.443	44711.6
563.642	44240.56
563.841	44142.26
564.04	44076.72
564.239	44328.62
564.438	44013.24
564.637	43945.65
564.836	44015.29
565.035	43448
565.234	44029.62
565.432	43525.82
565.631	43828.92
565.83	44172.98
566.029	43679.42
566.228	43321.02
566.427	43210.43
566.625	42925.77
566.824	42751.69
567.023	43513.53
567.222	42602.19
567.42	43665.08
567.619	43173.57
567.818	42968.77
568.016	43105.99
568.215	43087.56
568.414	42778.31
568.612	43380.42
568.811	42368.72
569.01	42854.09
569.208	42088.15
569.407	42583.76
569.605	42108.63
569.804	42596.04
570.002	42034.9
570.201	42272.46
570.4	42049.24
570.598	41909.97
570.797	41477.85
570.995	42247.89
571.193	41338.59
571.392	42133.2
571.59	41545.44
571.789	41684.7
571.987	41803.48
572.186	41459.42
572.384	41461.47
572.582	41117.41
572.781	41502.43
572.979	40695.53
573.177	41223.9
573.376	41309.92
573.574	40922.85
573.772	41363.17
573.971	40767.21
574.169	40722.15
574.367	40195.82
574.565	40670.95
574.763	40318.7
574.962	40232.69
575.16	39952.12
575.358	40247.02
575.556	39765.75
575.754	40535.79
575.952	39417.6
576.151	40322.8
576.349	39517.95
576.547	39481.08
576.745	39763.7
576.943	39765.75
577.141	39745.27
577.339	39759.61
577.537	39067.39
577.735	39421.69
577.933	38790.92
578.131	39005.95
578.329	39040.77
578.527	38657.8
578.725	38780.68
578.923	38768.39
579.121	38637.32
579.319	38661.9
579.516	38795.01
579.714	38276.88
579.912	38545.16
580.11	38006.55
580.308	38229.77
580.506	37738.26
580.704	37560.09
580.901	37928.72
581.099	37766.93
581.297	37592.86
581.495	37607.19
581.692	37484.31
581.89	37130.01
582.088	37603.1
582.285	36939.55
582.483	37482.27
582.681	37019.42
582.878	37310.24
583.076	36759.33
583.274	37050.14
583.471	36484.9
583.669	36966.18
583.866	36331.31
584.064	36841.25
584.262	36251.44
584.459	36278.06
584.657	36284.2
584.854	36224.81
585.052	35841.84
585.249	36538.15
585.447	35649.33
585.644	35651.38
585.841	35657.53
586.039	35895.09
586.236	35393.34
586.434	35272.51
586.631	35102.53
586.828	35088.19
587.026	35071.81
587.223	34981.7
587.42	34961.22
587.618	34895.68
587.815	34428.74
588.012	34596.68
588.21	34453.32
588.407	34903.87
588.604	34068.3
588.801	34211.66
588.999	34563.91
589.196	34201.42
589.393	34189.13
589.59	33685.33
589.787	33879.89
589.984	33582.93
590.182	33367.9
590.379	33578.84
590.576	33302.36
590.773	33503.06
590.97	33236.83
591.167	33288.03
591.364	33066.84
591.561	33036.13
591.758	32522.09
591.955	33216.35
592.152	33011.55
592.349	32517.99
592.546	32638.82
592.743	32890.72
592.94	32071.53
593.137	32647.01
593.334	32636.77
593.531	31930.22
593.727	32411.49
593.924	32010.09
594.121	31610.74
594.318	31819.63
594.515	31432.57
594.712	31989.61
594.908	31551.35
595.105	31195
595.302	31231.86
595.499	31033.21
595.696	31289.21
595.892	30846.85
596.089	31158.14
596.286	31182.71
596.482	30975.87
596.679	30867.33
596.876	30697.34
597.072	30334.85
597.269	30656.39
597.466	30510.98
597.662	29861.77
597.859	30418.82
598.055	30261.13
598.252	29767.57
598.448	29822.86
598.645	29925.26
598.841	29386.64
599.038	29822.86
599.234	29599.63
599.431	29407.12
599.627	29384.6
599.824	29597.59
600.02	29089.69
600.217	29407.12
600.413	29263.77
600.609	28860.32
600.806	28856.22
601.002	28934.04
601.198	28577.7
601.395	28534.69
601.591	28581.79
601.787	28618.66
601.984	28250.02
602.18	28653.47
602.376	28100.52
602.572	28164.01
602.769	27977.64
602.965	28071.85
603.161	27844.52
603.357	27830.19
603.553	27439.03
603.75	27522.99
603.946	27363.25
604.142	27418.55
604.338	27303.86
604.534	27226.04
604.73	27142.07
604.926	26908.6
605.122	27127.74
605.318	26863.55
605.514	26943.42
605.71	26701.76
605.906	26906.55
606.102	26931.13
606.298	26554.3
606.494	26353.6
606.69	26585.02
606.886	26814.4
607.082	26157
607.278	26773.44
607.474	26066.89
607.67	26308.55
607.866	25870.28
608.062	26308.55
608.257	25976.78
608.453	26023.88
608.649	25987.02
608.845	25839.56
609.041	25728.97
609.236	25941.96
609.432	25837.52
609.628	25395.15
609.824	25681.87
610.019	25647.05
610.215	25544.66
610.411	25468.88
610.606	25186.26
610.802	25186.26
610.998	25403.35
611.193	25448.4
611.389	25212.88
611.584	24958.94
611.78	24965.08
611.976	25110.49
612.171	24870.87
612.367	24879.07
612.562	24850.39
612.758	24444.9
612.953	24584.16
613.149	24756.19
613.344	24807.39
613.539	24803.29
613.735	24594.4
613.93	24862.68
614.126	24489.95
614.321	24704.99
614.517	24354.79
614.712	24496.1
614.907	24295.39
615.103	24313.83
615.298	24539.1
615.493	24393.7
615.688	23869.42
615.884	24281.06
616.079	23977.96
616.274	24068.07
616.47	23902.18
616.665	23910.38
616.86	23734.25
617.055	23967.72
617.25	23435.25
617.445	24061.93
617.641	23537.65
617.836	23724.01
618.031	23179.25
618.226	23236.59
618.421	23166.96
618.616	23394.29
618.811	23158.77
619.006	23287.79
619.201	22798.33
619.396	23044.09
619.591	22423.55
619.786	22908.92
619.981	22394.88
620.176	22587.39
620.371	22200.32
620.566	22366.21
620.761	21950.47
620.956	22208.51
621.151	21866.5
621.346	21977.09
621.541	21768.2
621.735	21612.56
621.93	21485.58
622.125	21499.92
622.32	21524.49
622.515	21227.54
622.709	21067.8
622.904	21229.59
623.099	20621.34
623.294	21141.52
623.488	20633.63
623.683	20871.19
623.878	20473.88
624.072	20342.81
624.267	20404.25
624.462	20248.61
624.656	20250.66
624.851	20260.9
625.046	19793.96
625.24	19789.86
625.435	19769.38
625.629	19429.42
625.824	19552.3
626.018	19341.36
626.213	19150.9
626.407	19251.25
626.602	18968.63
626.796	19116.08
626.991	19232.82
627.185	18868.28
627.38	18806.84
627.574	18692.15
627.768	18356.29
627.963	18389.05
628.157	18266.17
628.352	18473.02
628.546	17815.62
628.74	17940.55
628.935	17928.26
629.129	17709.13
629.323	17541.19
629.517	17537.1
629.712	17461.32
629.906	17496.14
630.1	17358.92
630.294	17344.59
630.489	16986.19
630.683	17231.95
630.877	16949.33
631.071	16812.12
631.265	16992.34
631.459	16683.09
631.653	16595.03
631.848	16521.31
632.042	16644.18
632.236	16484.44
632.43	16257.12
632.624	16214.11
632.818	16142.43
633.012	15958.11
633.206	15927.39
633.4	15939.68
633.594	15732.84
633.788	15603.82
633.982	15593.58
634.176	15573.1
634.369	15825
634.563	15231.08
634.757	15206.51
634.951	15384.68
635.145	15204.46
635.339	15132.78
635.533	14850.16
635.726	14889.07
635.92	14747.76
636.114	14942.32
636.308	14702.71
636.501	14913.65
636.695	14682.23
636.889	14383.23
637.083	14385.27
637.276	14393.47
637.47	14182.52
637.664	13899.91
637.857	13901.95
638.051	14006.4
638.244	13869.19
638.438	13928.58
638.632	13621.38
638.825	13695.11
639.019	13582.47
639.212	13437.06
639.406	13375.63
639.599	13514.89
639.793	13377.67
639.986	13070.48
640.18	13318.28
640.373	13316.23
640.567	13045.9
640.76	13006.99
640.954	12888.21
641.147	12558.49
641.34	12683.41
641.534	12783.76
641.727	12646.55
641.92	12693.65
642.114	12335.26
642.307	12521.62
642.5	12404.89
642.694	12335.26
642.887	12222.62
643.08	12316.83
643.273	12083.36
643.467	11968.67
643.66	11976.86
643.853	11649.19
644.046	11847.84
644.239	12054.69
644.432	11608.23
644.626	11647.14
644.819	11391.14
645.012	11743.39
645.205	11407.53
645.398	11382.95
645.591	11251.88
645.784	11253.93
645.977	11270.31
646.17	11192.49
646.363	10944.69
646.556	11159.72
646.749	10999.98
646.942	10918.06
647.135	10760.37
647.328	10641.59
647.521	10748.08
647.714	10750.13
647.907	10559.67
648.099	10463.41
648.292	10496.18
648.485	10502.33
648.678	10395.83
648.871	10250.42
649.064	10172.6
649.256	10328.25
649.449	10215.61
649.642	10154.17
649.835	10090.68
650.027	10264.76
650.22	10010.81
650.413	10088.64
650.605	9951.42
650.798	9801.92
650.991	9701.57
651.183	9529.54
651.376	9773.25
651.568	9617.6
651.761	9599.17
651.954	9443.53
652.146	9597.12
652.339	9500.87
652.531	9283.78
652.724	9414.85
652.916	9025.74
653.109	9253.06
653.301	9265.35
653.494	9177.29
653.686	9158.86
653.879	9044.17
654.071	8863.95
654.263	8943.82
654.456	8978.64
654.648	8896.72
654.84	8798.42
655.033	8773.84
655.225	8771.79
655.417	8571.09
655.61	8741.07
655.802	8607.95
655.994	8454.36
656.186	8659.15
656.379	8511.7
656.571	8456.4
656.763	8341.72
656.955	8159.45
657.148	8229.08
657.34	8220.89
657.532	8192.22
657.724	8050.91
657.916	8073.43
658.108	8106.2
658.3	7954.65
658.492	7878.88
658.684	7829.73
658.876	7862.49
659.068	7782.62
659.26	7745.76
659.452	7688.42
659.644	7819.49
659.836	7606.5
660.028	7778.53
660.22	7547.11
660.412	7430.37
660.604	7475.43
660.796	7391.46
660.988	7424.23
661.18	7250.15
661.372	7235.81
661.563	7377.12
661.755	7198.95
661.947	7284.97
662.139	7215.34
662.331	7192.81
662.522	7229.67
662.714	7287.01
662.906	7006.44
663.097	7069.93
663.289	6955.24
663.481	6994.15
663.673	7096.55
663.864	6828.27
664.056	6740.21
664.247	6789.36
664.439	6648.05
664.631	6760.69
664.822	6637.81
665.014	6740.21
665.205	6813.93
665.397	6613.23
665.588	6674.67
665.78	6674.67
665.971	6373.62
666.163	6504.69
666.354	6414.58
666.546	6281.46
666.737	6320.37
666.929	6248.69
667.12	6314.23
667.311	6342.9
667.503	6263.03
667.694	6203.64
667.885	6121.72
668.077	6033.66
668.268	6115.58
668.459	6199.54
668.651	6002.94
668.842	6070.52
669.033	5949.69
669.224	5849.34
669.416	5779.71
669.607	5781.76
669.798	5814.52
669.989	5918.97
670.18	5992.7
670.371	5753.09
670.563	5759.23
670.754	5789.95
670.945	5886.2
671.136	5734.65
671.327	5662.97
671.518	5636.35
671.709	5589.25
671.9	5568.77
672.091	5546.24
672.282	5495.04
672.473	5435.65
672.664	5679.36
672.855	5492.99
673.046	5382.4
673.237	5609.73
673.428	5370.12
673.619	5572.86
673.809	5353.73
674	5302.53
674.191	5341.44
674.382	5269.76
674.573	5269.76
674.764	5417.22
674.954	5366.02
675.145	5069.06
675.336	5073.16
675.527	5112.07
675.717	5175.56
675.908	5044.49
676.099	5144.84
676.289	5050.63
676.48	5089.54
676.671	5011.72
676.861	5093.64
677.052	4960.52
677.243	4937.99
677.433	4993.29
677.624	5067.02
677.814	4948.23
678.005	5011.72
678.195	4882.7
678.386	4913.42
678.576	4858.12
678.767	4978.95
678.957	4815.12
679.148	4794.64
679.338	4933.9
679.529	4821.26
679.719	4804.88
679.909	4657.42
680.1	4802.83
680.29	4722.96
680.481	4806.92
680.671	4686.09
680.861	4778.25
681.052	4712.72
681.242	4526.35
681.432	4614.41
681.622	4622.61
681.813	4516.11
682.003	4690.19
682.193	4604.18
682.383	4624.65
682.573	4598.03
682.764	4643.09
682.954	4630.8
683.144	4503.82
683.334	4411.67
683.524	4452.63
683.714	4460.82
683.904	4380.95
684.094	4342.04
684.284	4350.23
684.474	4366.61
684.664	4337.94
684.854	4370.71
685.044	4346.13
685.234	4270.36
685.424	4509.97
685.614	4303.12
685.804	4391.19
685.994	4227.35
686.184	4231.44
686.374	4274.45
686.564	4356.37
686.753	4225.3
686.943	4167.96
687.133	4270.36
687.323	4022.55
687.513	4180.25
687.702	4096.28
687.892	4077.85
688.082	4043.03
688.272	4067.61
688.461	3973.4
688.651	4067.61
688.841	3887.39
689.03	4008.22
689.22	3866.91
689.41	4002.07
689.599	3911.96
689.789	3811.61
689.979	3891.48
690.168	4006.17
690.358	3873.05
690.547	3854.62
690.737	3819.8
690.926	3705.12
691.116	3731.74
691.305	3856.67
691.495	3645.73
691.684	3680.54
691.874	3787.04
692.063	3615.01
692.252	3770.65
692.442	3664.16
692.631	3506.46
692.82	3612.96
693.01	3520.8
693.199	3533.09
693.388	3526.94
693.578	3574.05
693.767	3508.51
693.956	3518.75
694.146	3473.7
694.335	3531.04
694.524	3424.55
694.713	3457.31
694.902	3414.31
695.092	3352.87
695.281	3410.21
695.47	3279.14
695.659	3453.22
695.848	3373.35
696.037	3430.69
696.226	3350.82
696.415	3223.84
696.604	3342.63
696.793	3324.19
696.982	3338.53
697.171	3418.4
697.36	3354.91
697.549	3277.09
697.738	3268.9
697.927	3301.67
698.116	3252.52
698.305	3250.47
698.494	3352.87
698.683	3100.97
698.872	3266.85
699.061	3201.32
699.25	3133.73
699.438	3344.67
699.627	3277.09
699.816	3137.83
700.005	3205.41
700.193	3256.61
700.382	3189.03
700.571	3072.29
700.76	3223.84
700.948	3211.56
701.137	3191.08
701.326	3115.3
701.514	3123.49
701.703	3162.41
701.892	3141.93
702.08	3148.07
702.269	3143.97
702.457	3090.73
702.646	3105.06
702.834	3154.21
703.023	3111.21
703.212	3111.21
703.4	3043.62
703.589	3002.66
703.777	3156.26
703.965	3133.73
704.154	3049.77
704.342	3088.68
704.531	3039.53
704.719	3096.87
704.907	3148.07
705.096	3066.15
705.284	3105.06
705.472	2996.52
705.661	3088.68
705.849	3035.43
706.037	3121.45
706.226	3111.21
706.414	3031.34
706.602	2976.04
706.79	2986.28
706.979	2992.42
707.167	3096.87
707.355	2994.47
707.543	3121.45
707.731	3078.44
707.919	3051.81
708.107	2922.79
708.296	3076.39
708.484	2992.42
708.672	3002.66
708.86	2988.33
709.048	2973.99
709.236	3113.25
709.424	3201.32
709.612	3096.87
709.8	2941.22
709.988	3103.01
710.176	3076.39
710.364	3008.81
710.551	2955.56
710.739	3047.72
710.927	3006.76
711.115	2881.83
711.303	2920.74
711.491	2910.5
711.679	3014.95
711.866	2941.22
712.054	3105.06
712.242	2953.51
712.43	3008.81
712.617	3047.72
712.805	2930.98
712.993	3035.43
713.181	2953.51
713.368	2910.5
713.556	2935.08
713.744	2920.74
713.931	3125.54
714.119	3017
714.306	2857.26
714.494	2949.42
714.682	2894.12
714.869	2910.5
715.057	2951.46
715.244	2865.45
715.432	3143.97
715.619	2980.14
715.807	2998.57
715.994	3055.91
716.182	2949.42
716.369	2873.64
716.556	2957.61
716.744	2892.07
716.931	2935.08
717.119	2953.51
717.306	2953.51
717.493	2863.4
717.681	2867.5
717.868	3090.73
718.055	2838.83
718.242	2797.87
718.43	2916.65
718.617	2820.39
718.804	2816.3
718.991	2920.74
719.179	2912.55
719.366	2916.65
719.553	2935.08
719.74	2851.11
719.927	2740.52
720.114	2887.98
720.301	2826.54
720.488	2822.44
720.676	2767.15
720.863	2812.2
721.05	2820.39
721.237	2883.88
721.424	2877.74
721.611	2851.11
721.798	2840.87
721.985	2793.77
722.172	2873.64
722.358	2750.76
722.545	2769.2
722.732	2783.53
722.919	2824.49
723.106	2804.01
723.293	2748.72
723.48	2683.18
723.667	2736.43
723.853	2761
724.04	2816.3
724.227	2773.29
724.414	2752.81
724.6	2672.94
724.787	2810.15
724.974	2777.39
725.161	2724.14
725.347	2763.05
725.534	2681.13
725.72	2636.08
725.907	2836.78
726.094	2674.99
726.28	2679.08
726.467	2715.95
726.653	2691.37
726.84	2625.84
727.027	2779.43
727.213	2634.03
727.4	2736.43
727.586	2781.48
727.773	2728.24
727.959	2795.82
728.145	2593.07
728.332	2666.8
728.518	2537.77
728.705	2771.24
728.891	2701.61
729.077	2601.26
729.264	2724.14
729.45	2691.37
729.636	2722.09
729.823	2582.83
730.009	2650.41
730.195	2715.95
730.382	2570.54
730.568	2607.41
730.754	2674.99
730.94	2558.25
731.126	2670.89
731.313	2558.25
731.499	2662.7
731.685	2623.79
731.871	2674.99
732.057	2568.49
732.243	2627.89
732.429	2560.3
732.615	2674.99
732.801	2652.46
732.987	2578.73
733.173	2605.36
733.359	2576.69
733.545	2527.53
733.731	2605.36
733.917	2595.12
734.103	2482.48
734.289	2572.59
734.475	2502.96
734.661	2564.4
734.847	2570.54
735.033	2480.43
735.219	2437.42
735.404	2541.87
735.59	2595.12
735.776	2486.58
735.962	2601.26
736.148	2513.2
736.333	2535.73
736.519	2464.05
736.705	2394.42
736.89	2412.85
737.076	2535.73
737.262	2304.31
737.447	2433.33
737.633	2378.03
737.819	2345.27
738.004	2558.25
738.19	2466.1
738.375	2404.66
738.561	2427.18
738.747	2320.69
738.932	2324.79
739.118	2462
739.303	2455.86
739.489	2427.18
739.674	2431.28
739.859	2412.85
740.045	2187.57
740.23	2363.7
740.416	2300.21
740.601	2238.77
740.786	2277.68
740.972	2337.07
741.157	2199.86
741.342	2224.44
741.528	2289.97
741.713	2177.33
741.898	2261.3
742.084	2230.58
742.269	2177.33
742.454	2275.63
742.639	2238.77
742.824	2179.38
743.01	2253.11
743.195	2214.2
743.38	2181.43
743.565	2126.13
743.75	2292.02
743.935	2068.79
744.12	2169.14
744.305	2115.89
744.49	2044.21
744.675	2119.99
744.86	2142.52
745.045	2103.61
745.23	2089.27
745.415	2070.84
745.6	1974.58
745.785	1997.11
745.97	2109.75
746.155	2040.12
746.34	2029.88
746.525	2005.3
746.71	2048.31
746.895	1990.97
747.079	1863.99
747.264	1960.25
747.449	1988.92
747.634	1958.2
747.819	1964.34
748.003	1933.62
748.188	1835.32
748.373	1784.12
748.557	1886.52
748.742	1868.09
748.927	1863.99
749.111	1827.13
749.296	1835.32
749.481	1870.14
749.665	1802.55
749.85	1767.74
750.034	1753.4
750.219	1818.94
750.404	1780.03
750.588	1749.31
750.773	1755.45
750.957	1831.23
751.141	1708.35
751.326	1720.64
751.51	1640.76
751.695	1587.52
751.879	1683.77
752.064	1671.48
752.248	1681.72
752.432	1589.57
752.617	1685.82
752.801	1626.43
752.985	1558.85
753.17	1622.33
753.354	1634.62
753.538	1548.61
753.722	1577.28
753.907	1507.65
754.091	1464.64
754.275	1392.96
754.459	1538.37
754.643	1509.69
754.828	1380.67
755.012	1452.35
755.196	1497.41
755.38	1395.01
755.564	1460.54
755.748	1501.5
755.932	1302.85
756.116	1425.73
756.3	1421.63
756.484	1368.38
756.668	1433.92
756.852	1483.07
757.036	1216.83
757.22	1337.66
757.404	1317.19
757.588	1325.38
757.772	1329.47
757.956	1356.1
758.14	1356.1
758.323	1321.28
758.507	1333.57
758.691	1222.98
758.875	1270.08
759.059	1304.9
759.242	1216.83
759.426	1339.71
759.61	1276.23
759.794	1286.47
759.977	1182.02
760.161	1210.69
760.345	1235.27
760.528	1202.5
760.712	1278.27
760.895	1124.68
761.079	1265.99
761.263	1235.27
761.446	1161.54
761.63	1184.07
761.813	1128.77
761.997	1141.06
762.18	1214.79
762.364	1143.11
762.547	1104.2
762.731	1190.21
762.914	1134.92
763.098	1100.1
763.281	1083.72
763.464	1098.05
763.648	1118.53
763.831	1091.91
764.015	1124.68
764.198	1061.19
764.381	1061.19
764.564	1079.62
764.748	1079.62
764.931	1038.66
765.114	1065.29
765.297	1020.23
765.481	1075.52
765.664	1022.28
765.847	1083.72
766.03	1071.43
766.213	1112.39
766.397	1055.05
766.58	1030.47
766.763	1026.37
766.946	952.65
767.129	1036.61
767.312	919.88
767.495	1042.76
767.678	934.22
767.861	923.98
768.044	911.69
768.227	1009.99
768.41	964.93
768.593	993.61
768.776	975.17
768.959	1030.47
769.142	921.93
769.324	979.27
769.507	928.07
769.69	991.56
769.873	883.02
770.056	913.74
770.239	915.78
770.421	950.6
770.604	921.93
770.787	915.78
770.97	897.35
771.152	938.31
771.335	923.98
771.518	848.2
771.7	883.02
771.883	936.26
772.066	852.3
772.248	840.01
772.431	913.74
772.613	993.61
772.796	792.91
772.978	883.02
773.161	880.97
773.343	868.68
773.526	680.27
773.708	919.88
773.891	844.1
774.073	758.09
774.256	842.06
774.438	756.04
774.621	782.67
774.803	821.58
774.985	821.58
775.168	792.91
775.35	846.15
775.532	827.72
775.715	747.85
775.897	835.91
776.079	762.19
776.261	766.28
776.444	803.15
776.626	768.33
776.808	751.95
776.99	678.22
777.173	739.66
777.355	745.8
777.537	768.33
777.719	657.74
777.901	686.41
778.083	594.25
778.265	698.7
778.447	645.45
778.629	704.84
778.811	688.46
778.993	563.53
779.175	749.9
779.357	653.64
779.539	706.89
779.721	612.68
779.903	717.13
780.085	641.36
780.267	581.96
780.449	631.12
780.631	624.97
780.812	592.2
780.994	692.55
781.176	598.35
781.358	594.25
781.54	629.07
781.721	690.51
781.903	641.36
782.085	547.15
782.267	637.26
782.448	512.33
782.63	504.14
782.812	614.73
782.993	530.77
783.175	557.39
783.357	541.01
783.538	549.2
783.72	561.48
783.901	500.05
784.083	538.96
784.264	608.59
784.446	452.94
784.627	493.9
784.809	522.57
784.99	536.91
785.172	524.62
785.353	512.33
785.535	551.24
785.716	532.81
785.897	493.9
786.079	520.53
786.26	422.22
786.441	512.33
786.623	479.57
786.804	495.95
786.985	485.71
787.167	463.18
787.348	442.7
787.529	475.47
787.71	557.39
787.891	434.51
788.073	489.81
788.254	450.89
788.435	528.72
788.616	446.8
788.797	459.09
788.978	307.54
789.159	440.65
789.34	420.17
789.522	385.36
789.703	375.12
789.884	377.17
790.065	414.03
790.246	414.03
790.427	430.41
790.607	440.65
790.788	432.46
790.969	440.65
791.15	424.27
791.331	371.02
791.512	342.35
791.693	391.5
791.874	403.79
792.054	428.37
792.235	354.64
792.416	231.76
792.597	285.01
792.778	393.55
792.958	436.56
793.139	356.69
793.32	336.21
793.5	305.49
793.681	420.17
793.862	383.31
794.042	309.58
794.223	297.3
794.404	317.78
794.584	276.82
794.765	295.25
794.945	311.63
795.126	393.55
795.306	360.78
795.487	305.49
795.667	307.54
795.848	356.69
796.028	344.4
796.209	258.39
796.389	366.93
796.57	362.83
796.75	231.76
796.93	323.92
797.111	291.15
797.291	287.06
797.471	311.63
797.652	293.2
797.832	246.1
798.012	350.54
798.192	291.15
798.373	282.96
798.553	274.77
798.733	319.82
798.913	303.44
799.093	303.44
799.274	309.58
799.454	227.67
799.634	303.44
799.814	313.68
799.994	285.01
800.174	368.98
800.354	229.71
800.534	188.75
800.714	217.43
800.894	229.71
801.074	246.1
801.254	291.15
801.434	295.25
801.614	332.11
801.794	209.23
801.974	627.02
802.154	299.34
802.334	289.1
802.514	258.39
802.693	262.48
802.873	285.01
803.053	180.56
803.233	239.95
803.413	231.76
803.592	151.89
803.772	278.87
803.952	219.47
804.131	258.39
804.311	268.63
804.491	262.48
804.67	205.14
804.85	280.91
805.03	233.81
805.209	285.01
805.389	231.76
805.568	239.95
805.748	219.47
805.928	162.13
806.107	176.47
806.287	211.28
806.466	196.95
806.646	262.48
806.825	139.6
807.004	155.99
807.184	215.38
807.363	260.43
807.543	285.01
807.722	192.85
807.901	194.9
808.081	289.1
808.26	186.71
808.439	127.32
808.619	203.09
808.798	221.52
808.977	182.61
809.156	151.89
809.336	219.47
809.515	276.82
809.694	170.32
809.873	229.71
810.052	217.43
810.231	192.85
810.411	125.27
810.59	239.95
810.769	217.43
810.948	123.22
811.127	186.71
811.306	248.15
811.485	176.47
811.664	217.43
811.843	209.23
812.022	231.76
812.201	72.02
812.38	205.14
812.559	133.46
812.737	127.32
812.916	170.32
813.095	162.13
813.274	155.99
813.453	221.52
813.632	123.22
813.811	221.52
813.989	143.7
814.168	151.89
814.347	160.08
814.526	162.13
814.704	139.6
814.883	201.04
815.062	166.23
815.24	141.65
815.419	176.47
815.598	174.42
815.776	96.6
815.955	174.42
816.133	110.93
816.312	151.89
816.49	137.56
816.669	213.33
816.847	141.65
817.026	170.32
817.204	143.7
817.383	110.93
817.561	151.89
817.74	151.89
817.918	102.74
818.097	47.44
818.275	147.8
818.453	127.32
818.632	131.41
818.81	78.16
818.988	172.37
819.167	110.93
819.345	186.71
819.523	74.07
819.701	153.94
819.879	96.6
820.058	131.41
820.236	94.55
820.414	115.03
820.592	219.47
820.77	112.98
820.948	196.95
821.127	110.93
821.305	125.27
821.483	198.99
821.661	145.75
821.839	147.8
822.017	65.88
822.195	90.45
822.373	158.03
822.551	88.4
822.729	117.08
822.907	117.08
823.085	92.5
823.262	98.64
823.44	53.59
823.618	186.71
823.796	90.45
823.974	94.55
824.152	55.64
824.329	92.5
824.507	164.18
824.685	147.8
824.863	145.75
825.04	117.08
825.218	141.65
825.396	178.51
825.574	92.5
825.751	92.5
825.929	141.65
826.107	51.54
826.284	125.27
826.462	106.84
826.639	86.36
826.817	100.69
826.994	78.16
827.172	94.55
827.349	205.14
827.527	90.45
827.704	149.84
827.882	57.68
828.059	94.55
828.237	106.84
828.414	78.16
828.591	35.16
828.769	104.79
828.946	72.02
829.124	90.45
829.301	125.27
829.478	59.73
829.655	33.11
829.833	78.16
830.01	22.87
830.187	115.03
830.364	82.26
830.542	153.94
830.719	143.7
830.896	94.55
831.073	80.21
831.25	100.69
831.427	86.36
831.604	65.88
831.782	29.01
831.959	74.07
832.136	90.45
832.313	41.3
832.49	69.97
832.667	98.64
832.844	6.49
833.021	141.65
833.198	115.03
833.374	49.49
833.551	125.27
833.728	74.07
833.905	84.31
834.082	16.73
834.259	110.93
834.436	131.41
834.612	49.49
834.789	104.79
834.966	139.6
835.143	80.21
835.319	49.49
835.496	117.08
835.673	90.45
835.85	92.5
836.026	92.5
836.203	115.03
836.38	45.4
836.556	61.78
836.733	78.16
836.909	123.22
837.086	33.11
837.262	82.26
837.439	-20.14
837.616	131.41
837.792	78.16
837.968	76.12
838.145	41.3
838.321	96.6
838.498	51.54
838.674	129.36
838.851	76.12
839.027	117.08
839.203	72.02
839.38	92.5
839.556	61.78
839.732	82.26
839.909	61.78
840.085	45.4
840.261	-32.43
840.437	80.21
840.614	98.64
840.79	119.12
840.966	61.78
841.142	76.12
841.318	49.49
841.494	69.97
841.671	69.97
841.847	102.74
842.023	57.68
842.199	39.25
842.375	61.78
842.551	55.64
842.727	57.68
842.903	133.46
843.079	106.84
843.255	106.84
843.431	59.73
843.607	96.6
843.783	39.25
843.959	76.12
844.134	57.68
844.31	65.88
844.486	108.88
844.662	49.49
844.838	49.49
845.013	125.27
845.189	78.16
845.365	88.4
845.541	49.49
845.716	49.49
845.892	84.31
846.068	31.06
846.244	8.53
846.419	14.68
846.595	41.3
846.77	35.16
846.946	57.68
847.122	88.4
847.297	45.4
847.473	176.47
847.648	39.25
847.824	76.12
847.999	0.34
848.175	31.06
848.35	22.87
848.526	8.53
848.701	41.3
848.876	47.44
849.052	45.4
849.227	12.63
849.403	10.58
849.578	41.3
849.753	18.77
849.929	6.49
850.104	47.44
850.279	8.53
850.454	35.16
850.63	41.3
850.805	80.21
850.98	43.35
851.155	31.06
851.33	12.63
851.505	53.59
851.681	123.22
851.856	57.68
852.031	72.02
852.206	84.31
852.381	12.63
852.556	53.59
852.731	57.68
852.906	8.53
853.081	57.68
853.256	18.77
853.431	-20.14
853.606	45.4
853.781	37.2
853.956	-32.43
854.131	80.21
854.305	35.16
854.48	82.26
854.655	14.68
854.83	-9.9
855.005	-28.33
855.18	0.34
855.354	20.82
855.529	63.83
855.704	63.83
855.879	78.16
856.053	35.16
856.228	-13.99
856.403	31.06
856.577	-28.33
856.752	16.73
856.926	10.58
857.101	-28.33
857.276	39.25
857.45	14.68
857.625	47.44
857.799	37.2
857.974	-22.19
858.148	14.68
858.323	22.87
858.497	-46.76
858.672	-18.09
858.846	57.68
859.02	61.78
859.195	29.01
859.369	26.96
859.543	59.73
859.718	4.44
859.892	98.64
860.066	31.06
860.241	4.44
860.415	20.82
860.589	-36.52
860.763	-5.8
860.938	26.96
861.112	2.39
861.286	100.69
861.46	6.49
861.634	-77.48
861.808	65.88
861.982	26.96
862.157	26.96
862.331	20.82
862.505	49.49
862.679	4.44
862.853	57.68
863.027	20.82
863.201	76.12
863.375	-7.85
863.549	14.68
863.722	35.16
863.896	35.16
864.07	45.4
864.244	61.78
864.418	8.53
864.592	86.36
864.766	24.92
864.939	131.41
865.113	22.87
865.287	69.97
865.461	-36.52
865.634	53.59
865.808	94.55
865.982	55.64
866.156	24.92
866.329	61.78
866.503	26.96
866.676	51.54
866.85	31.06
867.024	-11.95
867.197	31.06
867.371	8.53
867.544	-52.91
867.718	2.39
867.891	41.3
868.065	22.87
868.238	63.83
868.412	0.34
868.585	-9.9
868.759	8.53
868.932	65.88
869.105	-40.62
869.279	-20.14
869.452	-40.62
869.625	-46.76
869.799	69.97
869.972	8.53
870.145	-3.75
870.319	-13.99
870.492	37.2
870.665	-16.04
870.838	0.34
871.011	41.3
871.185	8.53
871.358	20.82
871.531	57.68
871.704	35.16
871.877	8.53
872.05	-11.95
872.223	51.54
872.396	18.77
872.569	69.97
872.742	-9.9
872.915	57.68
873.088	-3.75
873.261	18.77
873.434	-36.52
873.607	57.68
873.78	96.6
873.953	-5.8
874.126	51.54
874.299	45.4
874.471	20.82
874.644	-32.43
874.817	74.07
874.99	14.68
875.163	37.2
875.335	72.02
875.508	4.44
875.681	55.64
875.853	-9.9
876.026	37.2
876.199	47.44
876.371	65.88
876.544	43.35
876.717	8.53
876.889	22.87
877.062	-16.04
877.234	-20.14
877.407	82.26
877.579	96.6
877.752	33.11
877.924	39.25
878.097	-24.23
878.269	-18.09
878.442	12.63
878.614	33.11
878.786	10.58
878.959	4.44
879.131	-32.43
879.303	-26.28
879.476	24.92
879.648	29.01
879.82	-24.23
879.993	-3.75
880.165	-32.43
880.337	18.77
880.509	-13.99
880.681	31.06
880.854	12.63
881.026	37.2
881.198	41.3
881.37	-7.85
881.542	-26.28
881.714	-24.23
881.886	-5.8
882.058	35.16
882.23	-5.8
882.402	80.21
882.574	10.58
882.746	29.01
882.918	2.39
883.09	22.87
883.262	-32.43
883.434	-24.23
883.606	10.58
883.778	-42.67
883.95	67.92
884.122	10.58
884.293	43.35
884.465	41.3
884.637	47.44
884.809	-85.67
884.98	65.88
885.152	2.39
885.324	33.11
885.496	35.16
885.667	-16.04
885.839	-67.24
886.011	-36.52
886.182	-3.75
886.354	76.12
886.525	-22.19
886.697	10.58
886.869	6.49
887.04	-13.99
887.212	35.16
887.383	51.54
887.555	-18.09
887.726	14.68
887.897	-3.75
888.069	4.44
888.24	18.77
888.412	8.53
888.583	31.06
888.754	4.44
888.926	-65.19
889.097	-59.05
889.268	57.68
889.44	0.34
889.611	-9.9
889.782	-54.95
889.953	-26.28
890.125	86.36
890.296	24.92
890.467	-5.8
890.638	57.68
890.809	-9.9
890.98	-26.28
891.151	35.16
891.323	24.92
891.494	35.16
891.665	37.2
891.836	29.01
892.007	-34.47
892.178	-11.95
892.349	57.68
892.52	51.54
892.691	0.34
892.862	45.4
893.032	-16.04
893.203	-63.15
893.374	-3.75
893.545	69.97
893.716	-52.91
893.887	-30.38
894.057	16.73
894.228	20.82
894.399	-36.52
894.57	37.2
894.74	-54.95
894.911	55.64
895.082	-36.52
895.253	10.58
895.423	51.54
895.594	-3.75
895.764	94.55
895.935	-28.33
896.106	18.77
896.276	16.73
896.447	8.53
896.617	33.11
896.788	-16.04
896.958	2.39
897.129	-1.71
897.299	12.63
897.47	65.88
897.64	-93.87
897.81	-26.28
897.981	-28.33
898.151	-34.47
898.322	12.63
898.492	80.21
898.662	57.68
898.832	37.2
899.003	100.69
899.173	35.16
899.343	24.92
899.513	100.69
