Data from USB4F104151__55__12-01-41-989.txt Node

Date: Fri Mar 14 12:01:41 EDT 2025
User: louis
Spectrometer: USB4F10415
Trigger mode: 4
Integration Time (sec): 2.000000E-2
Scans to average: 1
Electric dark correction enabled: true
Nonlinearity correction enabled: false
Boxcar width: 0
XAxis mode: Wavelengths
Number of Pixels in Spectrum: 3648
>>>>>Begin Spectral Data<<<<<
178.204	-123.22
178.424	-123.22
178.644	-123.22
178.864	-57.68
179.084	-59.73
179.304	-57.68
179.524	-41.3
179.744	-18.77
179.964	34.47
180.184	-29.01
180.404	16.04
180.624	50.86
180.844	20.14
181.064	-49.49
181.283	-10.58
181.503	13.99
181.723	71.34
181.943	-43.35
182.163	65.19
182.383	26.28
182.602	38.57
182.822	-22.87
183.042	-4.44
183.262	73.39
183.482	46.76
183.701	71.34
183.921	5.8
184.141	-72.02
184.361	59.05
184.58	-45.4
184.8	108.2
185.02	7.85
185.239	50.86
185.459	36.52
185.679	3.75
185.898	-16.73
186.118	-22.87
186.338	-35.16
186.557	79.53
186.777	7.85
186.997	-43.35
187.216	-41.3
187.436	-16.73
187.655	50.86
187.875	5.8
188.095	-2.39
188.314	106.15
188.534	7.85
188.753	42.67
188.973	20.14
189.192	100.01
189.412	140.97
189.631	24.23
189.851	-24.92
190.07	97.96
190.29	-51.54
190.509	79.53
190.729	52.91
190.948	32.43
191.168	106.15
191.387	-18.77
191.607	42.67
191.826	89.77
192.045	73.39
192.265	46.76
192.484	36.52
192.704	-31.06
192.923	24.23
193.142	91.82
193.362	24.23
193.581	50.86
193.8	44.71
194.02	22.19
194.239	61.1
194.458	40.62
194.678	100.01
194.897	100.01
195.116	-33.11
195.335	1.71
195.555	1.71
195.774	63.15
195.993	-4.44
196.212	22.19
196.432	89.77
196.651	18.09
196.87	-0.34
197.089	34.47
197.308	42.67
197.528	48.81
197.747	1.71
197.966	18.09
198.185	83.63
198.404	30.38
198.623	97.96
198.842	106.15
199.062	28.33
199.281	28.33
199.5	13.99
199.719	50.86
199.938	65.19
200.157	91.82
200.376	16.04
200.595	114.34
200.814	71.34
201.033	48.81
201.252	-20.82
201.471	-18.77
201.69	130.73
201.909	77.48
202.128	61.1
202.347	-14.68
202.566	30.38
202.785	61.1
203.004	40.62
203.223	44.71
203.442	32.43
203.661	-26.96
203.879	71.34
204.098	61.1
204.317	46.76
204.536	44.71
204.755	32.43
204.974	81.58
205.193	73.39
205.411	93.87
205.63	38.57
205.849	79.53
206.068	52.91
206.287	44.71
206.505	16.04
206.724	-8.53
206.943	20.14
207.162	7.85
207.381	46.76
207.599	-31.06
207.818	32.43
208.037	-18.77
208.255	28.33
208.474	28.33
208.693	61.1
208.911	81.58
209.13	89.77
209.349	85.67
209.567	46.76
209.786	79.53
210.005	87.72
210.223	26.28
210.442	-57.68
210.661	1.71
210.879	40.62
211.098	-2.39
211.316	5.8
211.535	65.19
211.753	5.8
211.972	22.19
212.191	24.23
212.409	73.39
212.628	-12.63
212.846	81.58
213.065	20.14
213.283	77.48
213.502	57
213.72	102.06
213.938	46.76
214.157	71.34
214.375	11.95
214.594	13.99
214.812	38.57
215.031	85.67
215.249	-33.11
215.467	87.72
215.686	11.95
215.904	42.67
216.122	-12.63
216.341	38.57
216.559	50.86
216.778	118.44
216.996	-4.44
217.214	20.14
217.432	-86.36
217.651	118.44
217.869	13.99
218.087	75.43
218.306	-2.39
218.524	106.15
218.742	59.05
218.96	120.49
219.179	26.28
219.397	57
219.615	128.68
219.833	48.81
220.051	36.52
220.27	7.85
220.488	-10.58
220.706	3.75
220.924	59.05
221.142	57
221.36	44.71
221.578	75.43
221.796	3.75
222.015	-39.25
222.233	44.71
222.451	16.04
222.669	-51.54
222.887	65.19
223.105	95.91
223.323	40.62
223.541	28.33
223.759	-2.39
223.977	13.99
224.195	52.91
224.413	32.43
224.631	91.82
224.849	-8.53
225.067	67.24
225.285	79.53
225.503	38.57
225.721	-57.68
225.939	36.52
226.157	30.38
226.375	65.19
226.592	36.52
226.81	-14.68
227.028	32.43
227.246	65.19
227.464	26.28
227.682	59.05
227.9	73.39
228.117	75.43
228.335	-31.06
228.553	-6.49
228.771	40.62
228.989	34.47
229.206	89.77
229.424	7.85
229.642	5.8
229.86	-59.73
230.077	36.52
230.295	132.78
230.513	18.09
230.731	16.04
230.948	91.82
231.166	24.23
231.384	75.43
231.601	22.19
231.819	102.06
232.037	24.23
232.254	-26.96
232.472	13.99
232.689	20.14
232.907	-4.44
233.125	-14.68
233.342	40.62
233.56	22.19
233.777	40.62
233.995	1.71
234.213	11.95
234.43	-2.39
234.648	65.19
234.865	-33.11
235.083	26.28
235.3	-14.68
235.518	61.1
235.735	63.15
235.953	89.77
236.17	16.04
236.388	5.8
236.605	104.11
236.822	100.01
237.04	-22.87
237.257	9.9
237.475	-4.44
237.692	16.04
237.909	24.23
238.127	50.86
238.344	65.19
238.562	40.62
238.779	7.85
238.996	81.58
239.214	54.95
239.431	46.76
239.648	30.38
239.865	65.19
240.083	18.09
240.3	149.16
240.517	38.57
240.735	38.57
240.952	50.86
241.169	69.29
241.386	-18.77
241.603	50.86
241.821	-69.97
242.038	46.76
242.255	13.99
242.472	-20.82
242.689	34.47
242.907	-8.53
243.124	44.71
243.341	30.38
243.558	59.05
243.775	-2.39
243.992	30.38
244.209	59.05
244.426	20.14
244.643	-10.58
244.86	95.91
245.078	89.77
245.295	-6.49
245.512	11.95
245.729	40.62
245.946	13.99
246.163	97.96
246.38	52.91
246.597	5.8
246.814	73.39
247.031	24.23
247.248	54.95
247.464	-20.82
247.681	-26.96
247.898	93.87
248.115	57
248.332	-0.34
248.549	112.3
248.766	-16.73
248.983	73.39
249.2	116.39
249.417	42.67
249.633	1.71
249.85	40.62
250.067	5.8
250.284	38.57
250.501	63.15
250.717	-0.34
250.934	-8.53
251.151	50.86
251.368	42.67
251.585	28.33
251.801	-35.16
252.018	30.38
252.235	1.71
252.451	13.99
252.668	-4.44
252.885	40.62
253.102	52.91
253.318	36.52
253.535	77.48
253.752	71.34
253.968	20.14
254.185	34.47
254.401	67.24
254.618	22.19
254.835	-6.49
255.051	63.15
255.268	13.99
255.484	57
255.701	30.38
255.917	112.3
256.134	-8.53
256.351	16.04
256.567	34.47
256.784	24.23
257	-37.2
257.217	59.05
257.433	30.38
257.65	26.28
257.866	38.57
258.082	-55.64
258.299	67.24
258.515	18.09
258.732	13.99
258.948	124.58
259.165	50.86
259.381	71.34
259.597	130.73
259.814	38.57
260.03	-18.77
260.246	26.28
260.463	32.43
260.679	42.67
260.895	44.71
261.112	46.76
261.328	73.39
261.544	-4.44
261.761	130.73
261.977	67.24
262.193	-39.25
262.409	36.52
262.626	44.71
262.842	-0.34
263.058	-16.73
263.274	36.52
263.49	77.48
263.707	18.09
263.923	59.05
264.139	57
264.355	93.87
264.571	63.15
264.787	54.95
265.004	42.67
265.22	61.1
265.436	83.63
265.652	-8.53
265.868	42.67
266.084	-35.16
266.3	5.8
266.516	16.04
266.732	-49.49
266.948	-16.73
267.164	-16.73
267.38	-10.58
267.596	87.72
267.812	48.81
268.028	57
268.244	81.58
268.46	63.15
268.676	-6.49
268.892	44.71
269.108	-35.16
269.324	63.15
269.54	1.71
269.756	30.38
269.972	30.38
270.188	67.24
270.403	7.85
270.619	61.1
270.835	36.52
271.051	-12.63
271.267	77.48
271.483	63.15
271.698	3.75
271.914	16.04
272.13	40.62
272.346	46.76
272.562	46.76
272.777	9.9
272.993	38.57
273.209	38.57
273.425	54.95
273.64	20.14
273.856	40.62
274.072	57
274.287	3.75
274.503	-33.11
274.719	11.95
274.934	7.85
275.15	-47.44
275.366	11.95
275.581	32.43
275.797	-8.53
276.012	36.52
276.228	50.86
276.444	7.85
276.659	91.82
276.875	30.38
277.09	108.2
277.306	-0.34
277.521	20.14
277.737	106.15
277.952	65.19
278.168	-2.39
278.383	11.95
278.599	54.95
278.814	57
279.03	-4.44
279.245	89.77
279.461	93.87
279.676	11.95
279.892	5.8
280.107	-6.49
280.322	28.33
280.538	57
280.753	18.09
280.969	38.57
281.184	71.34
281.399	91.82
281.615	46.76
281.83	16.04
282.045	5.8
282.26	36.52
282.476	52.91
282.691	-4.44
282.906	-4.44
283.122	26.28
283.337	5.8
283.552	91.82
283.767	77.48
283.983	42.67
284.198	24.23
284.413	87.72
284.628	79.53
284.843	65.19
285.058	40.62
285.274	-8.53
285.489	-24.92
285.704	32.43
285.919	3.75
286.134	5.8
286.349	67.24
286.564	46.76
286.779	173.74
286.995	3.75
287.21	36.52
287.425	32.43
287.64	93.87
287.855	20.14
288.07	87.72
288.285	63.15
288.5	69.29
288.715	85.67
288.93	57
289.145	-14.68
289.36	48.81
289.575	34.47
289.79	59.05
290.004	30.38
290.219	42.67
290.434	40.62
290.649	59.05
290.864	54.95
291.079	34.47
291.294	40.62
291.509	16.04
291.724	87.72
291.938	50.86
292.153	40.62
292.368	48.81
292.583	1.71
292.798	52.91
293.012	83.63
293.227	-10.58
293.442	3.75
293.657	11.95
293.871	73.39
294.086	83.63
294.301	44.71
294.516	71.34
294.73	75.43
294.945	46.76
295.16	42.67
295.374	46.76
295.589	71.34
295.804	36.52
296.018	48.81
296.233	57
296.447	63.15
296.662	28.33
296.877	40.62
297.091	104.11
297.306	9.9
297.52	18.09
297.735	38.57
297.949	69.29
298.164	26.28
298.378	42.67
298.593	54.95
298.807	42.67
299.022	48.81
299.236	63.15
299.451	24.23
299.665	38.57
299.88	54.95
300.094	52.91
300.309	93.87
300.523	85.67
300.737	22.19
300.952	44.71
301.166	132.78
301.381	28.33
301.595	-41.3
301.809	34.47
302.024	30.38
302.238	28.33
302.452	38.57
302.667	40.62
302.881	77.48
303.095	59.05
303.309	42.67
303.524	106.15
303.738	13.99
303.952	-12.63
304.166	63.15
304.381	18.09
304.595	122.54
304.809	61.1
305.023	63.15
305.237	65.19
305.452	54.95
305.666	32.43
305.88	40.62
306.094	71.34
306.308	40.62
306.522	108.2
306.736	32.43
306.95	61.1
307.164	1.71
307.379	87.72
307.593	54.95
307.807	48.81
308.021	18.09
308.235	22.19
308.449	63.15
308.663	40.62
308.877	30.38
309.091	67.24
309.305	3.75
309.519	-26.96
309.733	95.91
309.947	-29.01
310.161	83.63
310.374	46.76
310.588	175.78
310.802	38.57
311.016	13.99
311.23	38.57
311.444	-49.49
311.658	22.19
311.872	50.86
312.085	24.23
312.299	48.81
312.513	42.67
312.727	16.04
312.941	34.47
313.154	59.05
313.368	95.91
313.582	11.95
313.796	48.81
314.009	42.67
314.223	63.15
314.437	52.91
314.651	40.62
314.864	32.43
315.078	46.76
315.292	5.8
315.505	91.82
315.719	-2.39
315.933	-16.73
316.146	85.67
316.36	-0.34
316.573	34.47
316.787	57
317.001	20.14
317.214	34.47
317.428	30.38
317.641	52.91
317.855	77.48
318.068	95.91
318.282	57
318.495	73.39
318.709	67.24
318.922	91.82
319.136	50.86
319.349	52.91
319.563	38.57
319.776	7.85
319.99	69.29
320.203	67.24
320.417	59.05
320.63	54.95
320.843	118.44
321.057	130.73
321.27	81.58
321.483	7.85
321.697	63.15
321.91	69.29
322.124	38.57
322.337	91.82
322.55	-22.87
322.763	59.05
322.977	118.44
323.19	61.1
323.403	134.82
323.617	50.86
323.83	52.91
324.043	83.63
324.256	-4.44
324.469	57
324.683	52.91
324.896	48.81
325.109	95.91
325.322	32.43
325.535	36.52
325.748	61.1
325.962	95.91
326.175	81.58
326.388	26.28
326.601	36.52
326.814	11.95
327.027	36.52
327.24	71.34
327.453	26.28
327.666	85.67
327.879	48.81
328.092	22.19
328.305	67.24
328.518	73.39
328.731	3.75
328.944	32.43
329.157	67.24
329.37	79.53
329.583	7.85
329.796	83.63
330.009	11.95
330.222	13.99
330.435	61.1
330.648	24.23
330.861	61.1
331.073	95.91
331.286	67.24
331.499	42.67
331.712	57
331.925	16.04
332.138	-8.53
332.35	-14.68
332.563	18.09
332.776	67.24
332.989	28.33
333.202	9.9
333.414	52.91
333.627	7.85
333.84	30.38
334.053	42.67
334.265	-37.2
334.478	-12.63
334.691	30.38
334.903	97.96
335.116	7.85
335.329	46.76
335.541	85.67
335.754	134.82
335.966	147.11
336.179	36.52
336.392	20.14
336.604	-12.63
336.817	65.19
337.029	75.43
337.242	50.86
337.454	28.33
337.667	81.58
337.88	75.43
338.092	1.71
338.305	34.47
338.517	3.75
338.729	50.86
338.942	50.86
339.154	95.91
339.367	46.76
339.579	50.86
339.792	-33.11
340.004	91.82
340.217	163.5
340.429	69.29
340.641	30.38
340.854	69.29
341.066	7.85
341.278	71.34
341.491	-22.87
341.703	42.67
341.915	34.47
342.128	1.71
342.34	54.95
342.552	40.62
342.764	-4.44
342.977	18.09
343.189	40.62
343.401	-8.53
343.613	-24.92
343.826	106.15
344.038	26.28
344.25	34.47
344.462	59.05
344.674	-6.49
344.886	38.57
345.099	69.29
345.311	50.86
345.523	89.77
345.735	34.47
345.947	34.47
346.159	22.19
346.371	9.9
346.583	54.95
346.795	140.97
347.007	30.38
347.219	83.63
347.431	54.95
347.643	75.43
347.855	134.82
348.067	7.85
348.279	3.75
348.491	65.19
348.703	40.62
348.915	54.95
349.127	75.43
349.339	5.8
349.551	44.71
349.763	61.1
349.975	61.1
350.187	134.82
350.399	16.04
350.61	69.29
350.822	87.72
351.034	34.47
351.246	116.39
351.458	50.86
351.669	57
351.881	110.25
352.093	69.29
352.305	100.01
352.517	79.53
352.728	73.39
352.94	65.19
353.152	65.19
353.363	-41.3
353.575	-6.49
353.787	34.47
353.999	57
354.21	85.67
354.422	100.01
354.633	91.82
354.845	-16.73
355.057	85.67
355.268	104.11
355.48	75.43
355.692	40.62
355.903	42.67
356.115	46.76
356.326	24.23
356.538	122.54
356.749	57
356.961	106.15
357.172	100.01
357.384	36.52
357.595	73.39
357.807	36.52
358.018	75.43
358.23	18.09
358.441	54.95
358.653	165.54
358.864	44.71
359.075	13.99
359.287	-4.44
359.498	44.71
359.709	65.19
359.921	44.71
360.132	42.67
360.344	81.58
360.555	34.47
360.766	126.63
360.977	26.28
361.189	46.76
361.4	61.1
361.611	118.44
361.823	81.58
362.034	95.91
362.245	-20.82
362.456	28.33
362.667	95.91
362.879	130.73
363.09	-12.63
363.301	73.39
363.512	48.81
363.723	93.87
363.935	93.87
364.146	65.19
364.357	-12.63
364.568	46.76
364.779	30.38
364.99	-2.39
365.201	54.95
365.412	52.91
365.623	5.8
365.834	65.19
366.045	69.29
366.256	112.3
366.467	69.29
366.678	26.28
366.889	110.25
367.1	95.91
367.311	54.95
367.522	32.43
367.733	44.71
367.944	83.63
368.155	97.96
368.366	38.57
368.577	124.58
368.788	57
368.999	26.28
369.209	83.63
369.42	63.15
369.631	102.06
369.842	97.96
370.053	87.72
370.264	87.72
370.474	59.05
370.685	65.19
370.896	93.87
371.107	48.81
371.317	114.34
371.528	-39.25
371.739	110.25
371.95	118.44
372.16	140.97
372.371	24.23
372.582	67.24
372.792	34.47
373.003	85.67
373.214	181.93
373.424	87.72
373.635	-14.68
373.846	65.19
374.056	145.06
374.267	85.67
374.477	100.01
374.688	24.23
374.898	26.28
375.109	73.39
375.319	5.8
375.53	63.15
375.74	54.95
375.951	65.19
376.161	40.62
376.372	83.63
376.582	59.05
376.793	34.47
377.003	57
377.214	126.63
377.424	143.02
377.635	48.81
377.845	-2.39
378.055	136.87
378.266	28.33
378.476	42.67
378.686	54.95
378.897	163.5
379.107	67.24
379.317	34.47
379.528	106.15
379.738	106.15
379.948	118.44
380.158	124.58
380.369	130.73
380.579	120.49
380.789	79.53
380.999	145.06
381.21	87.72
381.42	175.78
381.63	63.15
381.84	77.48
382.05	73.39
382.261	40.62
382.471	104.11
382.681	46.76
382.891	54.95
383.101	75.43
383.311	106.15
383.521	79.53
383.731	104.11
383.941	106.15
384.151	40.62
384.361	36.52
384.571	114.34
384.781	13.99
384.991	79.53
385.201	120.49
385.411	83.63
385.621	50.86
385.831	26.28
386.041	83.63
386.251	102.06
386.461	110.25
386.671	87.72
386.881	18.09
387.091	85.67
387.301	13.99
387.511	71.34
387.72	97.96
387.93	130.73
388.14	32.43
388.35	63.15
388.56	77.48
388.769	63.15
388.979	75.43
389.189	69.29
389.399	-14.68
389.609	69.29
389.818	-2.39
390.028	91.82
390.238	153.26
390.447	67.24
390.657	73.39
390.867	59.05
391.076	46.76
391.286	112.3
391.496	83.63
391.705	69.29
391.915	79.53
392.125	89.77
392.334	124.58
392.544	54.95
392.753	138.92
392.963	24.23
393.172	149.16
393.382	71.34
393.591	81.58
393.801	50.86
394.01	126.63
394.22	85.67
394.429	81.58
394.639	71.34
394.848	147.11
395.058	151.21
395.267	91.82
395.477	112.3
395.686	48.81
395.895	145.06
396.105	175.78
396.314	63.15
396.524	102.06
396.733	106.15
396.942	116.39
397.152	59.05
397.361	126.63
397.57	59.05
397.78	81.58
397.989	118.44
398.198	128.68
398.407	102.06
398.617	124.58
398.826	79.53
399.035	100.01
399.244	128.68
399.453	54.95
399.663	108.2
399.872	216.74
400.081	171.69
400.29	110.25
400.499	212.65
400.708	167.59
400.917	89.77
401.127	65.19
401.336	65.19
401.545	216.74
401.754	177.83
401.963	147.11
402.172	112.3
402.381	87.72
402.59	159.4
402.799	100.01
403.008	196.26
403.217	196.26
403.426	214.7
403.635	212.65
403.844	165.54
404.053	212.65
404.262	179.88
404.471	224.94
404.68	179.88
404.888	247.46
405.097	159.4
405.306	267.94
405.515	245.41
405.724	216.74
405.933	206.5
406.142	282.28
406.35	298.66
406.559	243.37
406.768	276.13
406.977	286.37
407.185	138.92
407.394	276.13
407.603	186.02
407.812	278.18
408.02	294.57
408.229	294.57
408.438	263.85
408.646	247.46
408.855	331.43
409.064	366.25
409.272	296.61
409.481	407.2
409.69	290.47
409.898	247.46
410.107	448.16
410.315	364.2
410.524	466.6
410.733	366.25
410.941	353.96
411.15	509.6
411.358	468.64
411.567	448.16
411.775	562.85
411.984	442.02
412.192	513.7
412.401	501.41
412.609	607.91
412.818	601.76
413.026	620.19
413.234	687.78
413.443	605.86
413.651	665.25
413.86	695.97
414.068	720.54
414.276	704.16
414.485	781.98
414.693	736.93
414.901	796.32
415.11	863.9
415.318	900.76
415.526	894.62
415.734	951.96
415.943	954.01
416.151	1025.69
416.359	1003.16
416.567	1078.94
416.776	1126.04
416.984	1181.34
417.192	1181.34
417.4	1283.74
417.608	1222.3
417.817	1296.02
418.025	1355.41
418.233	1369.75
418.441	1398.42
418.649	1599.12
418.857	1496.72
419.065	1564.31
419.273	1539.73
419.481	1762.96
419.689	1736.34
419.897	1787.54
420.105	1851.02
420.313	1869.45
420.521	1963.66
420.729	1957.52
420.937	2090.63
421.145	2283.14
421.353	2313.86
421.561	2408.07
421.769	2406.02
421.977	2612.87
422.185	2664.07
422.393	2819.71
422.601	2795.14
422.809	2840.19
423.017	2911.87
423.224	2924.16
423.432	3118.72
423.64	3190.39
423.848	3300.98
424.056	3188.35
424.263	3505.78
424.471	3587.7
424.679	3530.36
424.887	3907.18
425.094	3901.04
425.302	3999.34
425.51	4095.6
425.718	4247.15
425.925	4314.73
426.133	4423.27
426.341	4566.63
426.548	4693.6
426.756	4873.82
426.964	5000.8
427.171	5195.36
427.379	5463.64
427.586	5422.68
427.794	5738.07
428.001	5940.82
428.209	6233.68
428.417	6096.46
428.624	6495.82
428.832	6590.02
429.039	6276.68
429.247	6438.47
429.454	7173.69
429.662	7499.32
429.869	6882.88
430.076	7618.1
430.284	7321.15
430.491	7685.69
430.699	8164.91
430.906	8154.67
431.114	8367.66
431.321	8742.44
431.528	8898.08
431.736	9221.66
431.943	9772.57
432.15	9328.16
432.358	9682.45
432.565	10063.38
432.772	9940.5
432.979	10647.05
433.187	10792.45
433.394	10933.76
433.601	11466.24
433.808	11660.79
434.016	11367.93
434.223	11822.58
434.43	12701.16
434.637	12447.21
434.844	13215.2
435.052	13735.39
435.259	13290.98
435.466	13637.08
435.673	13530.59
435.88	14351.82
436.087	15048.13
436.294	15228.35
436.501	14829
436.708	14949.83
436.915	15490.49
437.122	16090.55
437.329	15934.9
437.537	16850.35
437.743	16778.67
437.95	16946.6
438.157	17673.63
438.364	18369.94
438.571	18421.14
438.778	18613.65
438.985	20254.07
439.192	19264.9
439.399	19957.11
439.606	19676.54
439.813	20753.77
440.02	21794.14
440.227	21456.23
440.433	21065.07
440.64	22021.47
440.847	22101.34
441.054	22482.26
441.261	23557.44
441.467	23629.12
441.674	24104.25
441.881	25214.25
442.088	25081.13
442.294	24487.22
442.501	25400.62
442.708	25988.38
442.914	26811.67
443.121	27809.03
443.328	27213.07
443.534	29056.24
443.741	28366.07
443.948	27702.53
444.154	30121.18
444.361	29598.95
444.568	30364.89
444.774	29959.39
444.981	30172.38
445.187	31311.05
445.394	32953.52
445.6	32132.29
445.807	35239.06
446.013	33967.27
446.22	34389.15
446.426	35644.55
446.633	35902.6
446.839	37026.93
447.046	35681.42
447.252	37866.6
447.459	37868.65
447.665	37506.16
447.871	39537.74
448.078	40821.82
448.284	39339.09
448.491	39879.75
448.697	41165.88
448.903	41868.33
449.11	42314.79
449.316	41581.62
449.522	42648.61
449.728	43457.56
449.935	43639.82
450.141	43938.83
450.347	44837.89
450.553	43355.16
450.76	43727.89
450.966	45396.98
451.172	44721.15
451.378	45644.79
451.584	45020.16
451.791	45943.79
451.997	45865.97
452.203	46603.24
452.409	46773.22
452.615	46134.25
452.821	44618.75
453.027	44114.95
453.233	46255.08
453.44	44704.77
453.646	45235.19
453.852	45188.09
454.058	45825.01
454.264	44659.71
454.47	45880.3
454.676	44356.61
454.882	45773.81
455.088	42331.17
455.294	42632.22
455.5	43406.36
455.705	43594.77
455.911	42019.88
456.117	41196.6
456.323	40762.43
456.529	38335.59
456.735	39908.43
456.941	39097.43
457.147	38165.6
457.352	37028.98
457.558	36492.41
457.764	36848.76
457.97	36084.87
458.176	35333.26
458.381	35175.57
458.587	33789.1
458.793	33559.72
458.999	32052.42
459.204	34516.12
459.41	32697.53
459.616	30923.99
459.821	31220.94
460.027	30782.68
460.233	29793.51
460.438	28679.41
460.644	29414.63
460.85	27761.92
461.055	27227.4
461.261	27571.46
461.466	25199.91
461.672	24335.67
461.878	26535.19
462.083	24700.21
462.289	23907.65
462.494	23778.62
462.7	22785.36
462.905	22043.99
463.111	22998.35
463.316	22723.92
463.522	22631.76
463.727	22439.25
463.932	22459.73
464.138	22173.02
464.343	22379.86
464.549	21343.59
464.754	22519.12
464.959	21888.35
465.165	22054.23
465.37	21097.83
465.575	20718.96
465.781	21618.02
465.986	21638.5
466.191	20807.02
466.397	20354.42
466.602	19008.9
466.807	20272.5
467.012	20036.98
467.218	19864.96
467.423	19846.52
467.628	19881.34
467.833	20561.26
468.038	19797.37
468.244	19524.99
468.449	20092.28
468.654	19504.51
468.859	19213.7
469.064	19291.52
469.269	18290.07
469.474	18597.26
469.679	19021.19
469.885	18367.89
470.09	18519.44
470.295	18648.46
470.5	17991.06
470.705	18113.94
470.91	17692.06
471.115	17487.26
471.32	17761.69
471.525	17819.03
471.73	17167.78
471.935	16958.89
472.139	16713.13
472.344	17016.23
472.549	16811.43
472.754	16541.1
472.959	16176.56
473.164	16047.54
473.369	15719.87
473.574	16252.34
473.778	16051.64
473.983	15752.63
474.188	15787.45
474.393	15234.5
474.598	15095.24
474.802	15005.13
475.007	15085
475.212	14810.57
475.417	14370.26
475.621	14142.93
475.826	14265.81
476.031	13858.26
476.235	14106.07
476.44	14116.31
476.645	13682.14
476.849	13809.11
477.054	13559.26
477.259	13641.18
477.463	13571.55
477.668	13125.09
477.872	13475.29
478.077	13063.65
478.282	12783.08
478.486	12557.8
478.691	12557.8
478.895	12430.83
479.1	12457.45
479.304	12506.6
479.509	12011
479.713	12369.39
479.918	11967.99
480.122	11757.05
480.326	12004.85
480.531	12041.71
480.735	11867.64
480.94	11609.59
481.144	12004.85
481.348	11720.18
481.553	11834.87
481.757	11533.82
481.961	11443.71
482.166	11867.64
482.37	11515.39
482.574	11462.14
482.778	11435.52
482.983	11755
483.187	11406.84
483.391	11671.03
483.595	11404.8
483.8	11197.95
484.004	11638.27
484.208	11472.38
484.412	11480.57
484.616	11570.68
484.821	11558.39
485.025	11267.58
485.229	11517.43
485.433	11523.58
485.637	11505.15
485.841	11402.75
486.045	11251.2
486.249	11388.41
486.453	11576.83
486.657	11314.69
486.861	11658.74
487.065	11175.42
487.269	11423.23
487.473	11451.9
487.677	11642.36
487.881	11660.79
488.085	11447.8
488.289	11537.91
488.493	11386.36
488.697	11597.31
488.901	11437.56
489.105	11474.43
489.309	11634.17
489.512	11621.88
489.716	11574.78
489.92	11695.61
490.124	11539.96
490.328	11937.27
490.531	11537.91
490.735	11750.9
490.939	11769.34
491.143	11703.8
491.346	11896.31
491.55	12019.19
491.754	11814.39
491.958	11894.26
492.161	11986.42
492.365	12111.35
492.569	11939.32
492.772	12002.8
492.976	12111.35
493.18	12213.74
493.383	12367.34
493.587	12473.84
493.79	12672.49
493.994	12383.73
494.197	12406.25
494.401	12854.76
494.605	12500.46
494.808	12703.21
495.012	12963.3
495.215	12891.62
495.419	13106.66
495.622	13129.19
495.825	13227.49
496.029	13286.88
496.232	13577.69
496.436	13333.98
496.639	13682.14
496.843	13811.16
497.046	13895.13
497.249	14118.36
497.453	14435.79
497.656	14415.31
497.859	14214.61
498.063	14396.88
498.266	14863.82
498.469	14650.83
498.673	14816.71
498.876	15136.2
499.079	15285.7
499.282	15224.26
499.485	15801.79
499.689	15605.18
499.892	16045.49
500.095	16037.3
500.298	16498.09
500.501	16266.67
500.705	16629.16
500.908	16623.02
501.111	17139.11
501.314	16954.79
501.517	17556.89
501.72	17472.93
501.923	17362.34
502.126	17667.49
502.329	18075.03
502.532	18003.35
502.735	18146.71
502.938	18632.08
503.141	18529.68
503.344	19119.49
503.547	18924.94
503.75	19465.6
503.953	19512.7
504.156	19656.06
504.359	19965.31
504.562	20073.85
504.765	20512.11
504.968	20522.35
505.17	20632.94
505.373	20905.32
505.576	20903.28
505.779	21370.21
505.982	21552.48
506.185	21726.56
506.387	22383.96
506.59	22193.5
506.793	22410.58
506.996	22367.57
507.198	23397.7
507.401	22916.43
507.604	23291.21
507.807	23438.66
508.009	23747.9
508.212	23893.31
508.415	24571.19
508.617	24556.85
508.82	24624.43
509.022	24642.87
509.225	25083.18
509.428	25351.46
509.63	25763.11
509.833	25945.37
510.035	26074.4
510.238	26322.2
510.44	26645.78
510.643	26826
510.845	27184.4
511.048	27018.51
511.25	27456.78
511.453	27421.96
511.655	28476.66
511.858	28001.54
512.06	28251.39
512.262	28589.3
512.465	28712.18
512.667	29046
512.87	29451.5
513.072	29625.57
513.274	29947.11
513.477	30266.59
513.679	30545.11
513.881	30846.16
514.084	30909.65
514.286	30997.71
514.488	31247.57
514.69	32091.33
514.893	32148.67
515.095	32359.61
515.297	32593.08
515.499	32580.79
515.701	33209.52
515.904	33422.51
516.106	33342.64
516.308	33731.75
516.51	34200.74
516.712	34178.21
516.914	34665.63
517.116	34856.09
517.318	35087.51
517.52	35224.72
517.722	35478.67
517.925	35943.56
518.127	36594.81
518.329	36639.87
518.531	36445.31
518.733	37172.34
518.935	37401.71
519.136	37471.34
519.338	38110.31
519.54	37792.87
519.742	38782.04
519.944	38202.47
520.146	38820.95
520.348	39165.01
520.55	39224.4
520.752	39343.19
520.954	40107.08
521.155	39867.47
521.357	40418.37
521.559	40690.75
521.761	40991.8
521.963	40961.08
522.164	40934.46
522.366	41221.17
522.568	41835.56
522.77	42112.04
522.971	42578.98
523.173	42116.14
523.375	42378.28
523.576	42562.59
523.778	42615.84
523.98	43088.92
524.181	43054.11
524.383	43453.46
524.584	43848.72
524.786	43936.78
524.988	43725.84
525.189	44413.96
525.391	44626.95
525.592	44717.06
525.794	44667.91
525.995	44813.31
526.197	44887.04
526.398	45292.54
526.6	45390.84
526.801	45433.85
527.003	45421.56
527.204	45638.64
527.406	46078.96
527.607	45851.63
527.808	46183.4
528.01	45575.16
528.211	46040.04
528.412	47125.47
528.614	46699.49
528.815	46576.61
529.016	47336.41
529.218	46920.67
529.419	46855.14
529.62	47023.07
529.822	46867.42
530.023	46904.29
530.224	47076.32
530.425	46801.89
530.626	47137.76
530.828	46795.74
531.029	47766.48
531.23	46830.56
531.431	47195.1
531.632	47285.21
531.833	47662.04
532.035	47379.42
532.236	47279.07
532.437	47600.6
532.638	47600.6
532.839	47711.19
533.04	47725.52
533.241	47018.97
533.442	48100.3
533.643	47997.9
533.844	47801.3
534.045	48012.24
534.246	47662.04
534.447	47715.28
534.648	47797.2
534.849	47844.3
535.05	47573.97
535.251	47645.65
535.451	47354.84
535.652	48143.31
535.853	47762.39
536.054	47571.92
536.255	48178.12
536.456	47268.83
536.657	48057.29
536.857	47903.7
537.058	47668.18
537.259	48391.11
537.46	47746
537.66	47498.2
537.861	47670.23
538.062	47631.32
538.263	47922.13
538.463	47715.28
538.664	47510.49
538.865	47780.82
539.065	47686.61
539.266	47330.26
539.466	48110.54
539.667	47256.54
539.868	48010.19
540.068	47588.31
540.269	47530.97
540.469	47725.52
540.67	47096.8
540.87	47508.44
541.071	47371.22
541.271	47444.95
541.472	47360.98
541.672	47494.1
541.873	46947.29
542.073	46783.46
542.274	47829.97
542.474	47504.34
542.675	46939.1
542.875	47453.14
543.075	47113.18
543.276	46593
543.476	47461.33
543.676	46744.55
543.877	47350.74
544.077	47182.81
544.277	47379.42
544.478	47152.09
544.678	47461.33
544.878	46701.54
545.078	47053.79
545.279	47299.54
545.479	46654.43
545.679	47242.2
545.879	47256.54
546.079	46670.82
546.28	46953.44
546.48	46738.4
546.68	46638.05
546.88	47094.75
547.08	46840.8
547.28	46808.03
547.48	46373.86
547.68	46765.03
547.88	46611.43
548.081	46961.63
548.281	46537.7
548.481	46341.1
548.681	46953.44
548.881	46941.15
549.081	46810.08
549.28	46679.01
549.48	47133.66
549.68	46554.08
549.88	47487.96
550.08	46363.62
550.28	46687.2
550.48	46306.28
550.68	46803.94
550.88	46408.68
551.08	46597.09
551.279	46648.29
551.479	46240.75
551.679	46666.72
551.879	45994.99
552.079	46654.43
552.278	46150.63
552.478	46506.98
552.678	46277.61
552.878	46296.04
553.077	46386.15
553.277	45698.03
553.477	46664.67
553.676	46154.73
553.876	46416.87
554.076	46324.71
554.275	46468.07
554.475	45519.86
554.674	46334.95
554.874	46216.17
555.074	45874.16
555.273	45990.89
555.473	46324.71
555.672	46087.15
555.872	46029.8
556.071	46060.52
556.271	46054.38
556.47	45943.79
556.67	45593.59
556.869	45892.59
557.068	45714.42
557.268	45636.59
557.467	45450.23
557.667	45630.45
557.866	46060.52
558.065	45720.56
558.265	44938.24
558.464	45319.16
558.663	45429.75
558.863	45011.96
559.062	45888.49
559.261	45005.82
559.461	45880.3
559.66	44837.89
559.859	45081.59
560.058	45157.37
560.258	45411.32
560.457	44645.38
560.656	45415.41
560.855	45239.29
561.054	44921.85
561.253	44602.37
561.453	45188.09
561.652	44553.22
561.851	44815.36
562.05	44278.79
562.249	44055.56
562.448	44872.7
562.647	45042.68
562.846	44659.71
563.045	44639.23
563.244	43865.1
563.443	44393.48
563.642	44004.36
563.841	44413.96
564.04	44043.27
564.239	44495.88
564.438	43721.74
564.637	43914.25
564.836	44110.86
565.035	43627.54
565.234	43740.18
565.432	43590.67
565.631	43791.37
565.83	43596.82
566.029	43596.82
566.228	43346.97
566.427	43582.48
566.625	43492.37
566.824	42964
567.023	43398.16
567.222	42527.78
567.42	43373.59
567.619	42714.14
567.818	42834.97
568.016	43007
568.215	43377.68
568.414	43197.46
568.612	42880.03
568.811	42695.71
569.01	42699.81
569.208	42021.93
569.407	42652.7
569.605	42128.42
569.804	42449.95
570.002	41985.07
570.201	42357.8
570.4	42028.07
570.598	42300.45
570.797	41956.39
570.995	41856.04
571.193	41395.25
571.392	41806.89
571.59	41346.1
571.789	41157.69
571.987	41282.61
572.186	41374.77
572.384	41194.55
572.582	41385.01
572.781	41456.69
572.979	40780.86
573.177	41131.06
573.376	41036.86
573.574	40852.54
573.772	40870.97
573.971	41026.62
574.169	40352.83
574.367	40193.09
574.565	40584.26
574.763	40260.68
574.962	40578.11
575.16	39615.57
575.358	40016.97
575.556	39728.2
575.754	39883.85
575.952	39494.74
576.151	40309.83
576.349	39234.64
576.547	39341.14
576.745	39773.26
576.943	40189
577.141	39515.22
577.339	39150.68
577.537	39201.88
577.735	39167.06
577.933	38618.21
578.131	39081.05
578.329	38468.7
578.527	38321.25
578.725	38728.8
578.923	38976.6
579.121	38575.2
579.319	38577.25
579.516	38241.38
579.714	38581.34
579.912	37948.52
580.11	38036.58
580.308	38087.78
580.506	37827.69
580.704	37338.22
580.901	37670
581.099	37790.83
581.297	37651.56
581.495	37356.66
581.692	37655.66
581.89	37092.47
582.088	37383.28
582.285	37164.15
582.483	37241.97
582.681	36770.94
582.878	37051.51
583.076	36564.09
583.274	37172.34
583.471	36398.21
583.669	36430.97
583.866	36220.03
584.064	36838.52
584.262	35789.96
584.459	36457.6
584.657	36242.56
584.854	36205.7
585.052	36005
585.249	35943.56
585.447	35931.27
585.644	35454.09
585.841	35646.6
586.039	35595.4
586.236	35163.28
586.434	35124.37
586.631	35157.14
586.828	35181.71
587.026	35230.87
587.223	34827.42
587.42	34956.44
587.618	35060.88
587.815	34573.47
588.012	34387.1
588.21	34452.64
588.407	34768.02
588.604	34231.46
588.801	34479.26
588.999	33914.02
589.196	33991.84
589.393	33856.68
589.59	33879.21
589.787	33686.7
589.984	33760.42
590.182	33250.48
590.379	33664.17
590.576	33266.86
590.773	33453.23
590.97	33137.84
591.167	33234.1
591.364	32648.38
591.561	33017.01
591.758	32781.49
591.955	32799.93
592.152	33129.65
592.349	32425.15
592.546	32326.85
592.743	32603.32
592.94	32208.06
593.137	32482.49
593.334	32355.52
593.531	32193.73
593.727	32109.76
593.924	31743.17
594.121	31913.16
594.318	31806.66
594.515	31450.31
594.712	31927.49
594.908	31446.22
595.105	31352.01
595.302	31163.6
595.499	31184.08
595.696	30911.7
595.892	30794.96
596.089	30715.09
596.286	30831.83
596.482	30467.29
596.679	30541.02
596.876	30534.87
597.072	30524.63
597.269	30446.81
597.466	29951.2
597.662	29846.76
597.859	30115.04
598.055	30229.73
598.252	29943.01
598.448	29535.46
598.645	29615.33
598.841	29414.63
599.038	29302
599.234	29613.29
599.431	29338.86
599.627	29181.17
599.824	29375.72
600.02	29185.26
600.217	29093.1
600.413	28935.41
600.609	28777.72
600.806	28751.09
601.002	29127.92
601.198	28519.67
601.395	28546.3
601.591	28663.03
601.787	28536.06
601.984	28216.57
602.18	28372.22
602.376	28052.73
602.572	28046.59
602.769	28087.55
602.965	27972.86
603.161	28079.36
603.357	27770.11
603.553	27632.9
603.75	27593.99
603.946	27243.79
604.142	27903.23
604.338	26985.74
604.534	27309.32
604.73	26809.62
604.926	27174.16
605.122	26961.17
605.318	27188.49
605.514	26588.44
605.71	26672.4
605.906	26696.98
606.102	26578.2
606.298	26649.88
606.494	26430.74
606.69	26346.78
606.886	26418.46
607.082	26144.03
607.278	26445.08
607.474	25883.94
607.67	26096.92
607.866	25933.09
608.062	26023.2
608.257	26135.84
608.453	26068.25
608.649	25894.18
608.845	25519.4
609.041	25736.48
609.236	25580.84
609.432	25394.47
609.628	25672.99
609.824	25687.33
610.019	25470.25
610.215	25464.1
610.411	25486.63
610.606	25187.63
610.802	25472.29
610.998	25107.76
611.193	25400.62
611.389	25025.84
611.584	25193.77
611.78	24898.86
611.976	25255.21
612.171	24833.33
612.367	24616.24
612.562	24634.67
612.758	24644.91
612.953	24390.97
613.149	24870.19
613.344	24450.36
613.539	24839.47
613.735	24413.49
613.93	24601.91
614.126	24261.94
614.321	24560.95
614.517	24302.9
614.712	24204.6
614.907	24153.4
615.103	24157.5
615.298	24024.38
615.493	24327.48
615.688	23768.38
615.884	24341.82
616.079	23842.11
616.274	24147.26
616.47	23928.13
616.665	24046.91
616.86	23653.7
617.055	23446.85
617.25	23569.73
617.445	23706.94
617.641	23096.65
617.836	23614.79
618.031	23104.84
618.226	23217.48
618.421	23147.85
618.616	23354.69
618.811	22930.76
619.006	23280.97
619.201	22547.79
619.396	23074.12
619.591	22674.77
619.786	22697.3
619.981	22521.17
620.176	22431.06
620.371	22240.6
620.566	22435.16
620.761	22224.22
620.956	22183.26
621.151	22236.5
621.346	21998.94
621.541	21499.23
621.735	21894.49
621.93	21341.54
622.125	21851.49
622.32	21134.7
622.515	21081.45
622.709	21202.28
622.904	21235.05
623.099	20931.95
623.294	20682.1
623.488	20618.61
623.683	20776.3
623.878	20544.88
624.072	20759.92
624.267	20354.42
624.462	20419.96
624.656	20004.22
624.851	20155.77
625.046	19658.11
625.24	20059.51
625.435	19809.66
625.629	19910.01
625.824	19502.47
626.018	19625.34
626.213	18836.88
626.407	19096.97
626.602	18738.57
626.796	19002.76
626.991	18859.4
627.185	18668.94
627.38	18437.52
627.574	18455.95
627.768	18109.85
627.963	18351.51
628.157	18316.69
628.352	18304.4
628.546	17671.58
628.74	18326.93
628.935	18017.69
629.129	17868.19
629.323	17405.35
629.517	17565.09
629.712	17722.78
629.906	17388.96
630.1	16962.98
630.294	17024.42
630.489	17139.11
630.683	17335.71
630.877	16909.74
631.071	16762.28
631.265	16874.92
631.459	16745.9
631.653	16627.12
631.848	16614.83
632.042	16369.07
632.236	16588.21
632.43	16039.35
632.624	16442.8
632.818	15957.43
633.012	15932.86
633.206	15926.71
633.4	15799.74
633.594	15805.88
633.788	15920.57
633.982	15691.2
634.176	15513.02
634.369	15285.7
634.563	15392.19
634.757	15326.66
634.951	15295.94
635.145	15162.82
635.339	15046.09
635.533	14851.53
635.726	14910.92
635.92	14685.64
636.114	14857.67
636.308	14734.79
636.501	14575.05
636.695	14394.83
636.889	14319.06
637.083	14382.54
637.276	14198.23
637.47	14177.75
637.664	14083.54
637.857	14114.26
638.051	13958.61
638.244	13907.41
638.438	14067.16
638.632	13931.99
638.825	13626.84
639.019	13530.59
639.212	13471.2
639.406	13534.68
639.599	13258.21
639.793	13311.46
639.986	13104.61
640.18	13127.14
640.373	13487.58
640.567	12742.12
640.76	12846.57
640.954	12789.22
641.147	12766.7
641.34	12713.45
641.534	12615.15
641.727	12631.53
641.92	12443.12
642.114	12756.46
642.307	12389.87
642.5	12242.42
642.694	12023.28
642.887	12043.76
643.08	12146.16
643.273	12072.43
643.467	11935.22
643.66	12033.52
643.853	11822.58
644.046	11451.9
644.239	11900.41
644.432	11773.43
644.626	11660.79
644.819	11761.14
645.012	11316.73
645.205	11361.79
645.398	11617.79
645.591	11339.26
645.784	11230.72
645.977	10972.68
646.17	10989.06
646.363	10915.33
646.556	10712.58
646.749	10946.05
646.942	11007.49
647.135	10776.07
647.328	10853.89
647.521	10821.13
647.714	10618.38
647.907	10700.3
648.099	10538.51
648.292	10507.79
648.485	10630.66
648.678	10403.34
648.871	10413.58
649.064	10208.78
649.256	10081.81
649.449	10294.8
649.642	10163.73
649.835	10040.85
650.027	10249.74
650.22	9860.63
650.413	10116.62
650.605	10010.13
650.798	9631.26
650.991	9750.04
651.183	9764.37
651.376	9602.58
651.568	9596.44
651.761	9483.8
651.954	9567.77
652.146	9567.77
652.339	9369.12
652.531	9319.96
652.724	9250.33
652.916	9082.4
653.109	9401.88
653.301	9106.98
653.494	9246.24
653.686	8920.61
653.879	9086.5
654.071	9010.72
654.263	8836.64
654.456	8881.7
654.648	9049.63
654.84	8844.84
655.033	8625.7
655.225	8715.81
655.417	8625.7
655.61	8699.43
655.802	8650.28
655.994	8441.39
656.186	8431.15
656.379	8508.97
656.571	8418.86
656.763	8341.04
656.955	8193.58
657.148	8312.36
657.34	8140.33
657.532	8076.85
657.724	8173.1
657.916	8216.11
658.108	8128.05
658.3	7982.64
658.492	8001.07
658.684	7710.26
658.876	7835.19
659.068	7937.59
659.26	7829.04
659.452	7740.98
659.644	7775.8
659.836	7616.05
660.028	7822.9
660.22	7396.92
660.412	7468.6
660.604	7210.56
660.796	7454.26
660.988	7403.07
661.18	7390.78
661.372	7239.23
661.563	7284.28
661.755	7185.98
661.947	7208.51
662.139	7210.56
662.331	7116.35
662.522	7069.25
662.714	6958.66
662.906	6899.27
663.097	7188.03
663.289	6788.68
663.481	6870.59
663.673	6903.36
663.864	6850.11
664.056	6766.15
664.247	6762.05
664.439	6600.26
664.631	6735.43
664.822	6764.1
665.014	6532.68
665.205	6504.01
665.397	6516.3
665.588	6569.54
665.78	6553.16
665.971	6499.91
666.163	6561.35
666.354	6340.17
666.546	6262.35
666.737	6266.44
666.929	6307.4
667.12	6440.52
667.311	6329.93
667.503	6368.84
667.694	6200.91
667.885	6071.89
668.077	6313.55
668.268	6205
668.459	6067.79
668.651	5994.06
668.842	6080.08
669.033	6104.65
669.224	5953.1
669.416	6092.37
669.607	6020.69
669.798	5783.12
669.989	5723.73
670.18	5727.83
670.371	5834.32
670.563	5715.54
670.754	5803.6
670.945	5658.2
671.136	5699.16
671.327	5768.79
671.518	5502.55
671.709	5719.64
671.9	5785.17
672.091	5748.31
672.282	5688.92
672.473	5563.99
672.664	5563.99
672.855	5516.89
673.046	5492.31
673.237	5406.3
673.428	5379.67
673.619	5369.43
673.809	5391.96
674	5357.14
674.191	5346.91
674.382	5301.85
674.573	5295.71
674.764	5324.38
674.954	5277.27
675.145	5189.21
675.336	5058.14
675.527	5281.37
675.717	5187.16
675.908	5209.69
676.099	4996.7
676.289	5041.76
676.48	5135.96
676.671	5082.72
676.861	4939.36
677.052	5056.09
677.243	4945.5
677.433	4970.08
677.624	5031.52
677.814	4963.93
678.005	4849.25
678.195	4910.69
678.386	4978.27
678.576	4824.67
678.767	4943.46
678.957	4785.76
679.148	4890.21
679.338	4755.04
679.529	4828.77
679.719	4709.99
679.909	4785.76
680.1	4779.62
680.29	4761.19
680.481	4714.08
680.671	4742.75
680.861	4701.79
681.052	4800.1
681.242	4787.81
681.432	4767.33
681.622	4519.53
681.813	4435.56
682.003	4572.77
682.193	4531.81
682.383	4587.11
682.573	4607.59
682.764	4548.2
682.954	4494.95
683.144	4482.66
683.334	4511.33
683.524	4484.71
683.714	4507.24
683.904	4472.42
684.094	4507.24
684.284	4453.99
684.474	4497
684.664	4304.49
684.854	4361.83
685.044	4363.88
685.234	4181.61
685.424	4253.29
685.614	4204.14
685.804	4306.54
685.994	4243.05
686.184	4259.43
686.374	4116.08
686.564	4431.46
686.753	4136.56
686.943	4032.11
687.133	4249.19
687.323	4197.99
687.513	4122.22
687.702	4040.3
687.892	4169.32
688.082	3954.29
688.272	4015.73
688.461	4001.39
688.651	3952.24
688.841	3989.1
689.03	4079.21
689.22	4161.13
689.41	3833.46
689.599	3874.42
689.789	3956.33
689.979	3839.6
690.168	3921.52
690.358	3939.95
690.547	3780.21
690.737	3876.46
690.926	3737.2
691.116	3763.83
691.305	3784.3
691.495	3802.74
691.684	3518.07
691.874	3745.39
692.063	3694.19
692.252	3757.68
692.442	3632.76
692.631	3499.64
692.82	3470.97
693.01	3665.52
693.199	3610.23
693.388	3528.31
693.578	3479.16
693.767	3628.66
693.956	3495.54
694.146	3509.88
694.335	3419.77
694.524	3378.81
694.713	3389.05
694.902	3556.98
695.092	3505.78
695.281	3442.29
695.47	3321.46
695.659	3446.39
695.848	3430.01
696.037	3417.72
696.226	3321.46
696.415	3329.66
696.604	3378.81
696.793	3368.57
696.982	3315.32
697.171	3464.82
697.36	3356.28
697.549	3368.57
697.738	3284.6
697.927	3298.94
698.116	3264.12
698.305	3364.47
698.494	3239.55
698.683	3294.84
698.872	3317.37
699.061	3253.88
699.25	3212.92
699.438	3327.61
699.627	3290.74
699.816	3317.37
700.005	3346.04
700.193	3118.72
700.382	3305.08
700.571	3208.83
700.76	3255.93
700.948	3233.4
701.137	3190.39
701.326	3227.26
701.514	3288.7
701.703	3296.89
701.892	3110.52
702.08	3131
702.269	3284.6
702.457	3104.38
702.646	3243.64
702.834	3135.1
703.023	3131
703.212	3088
703.4	3286.65
703.589	3067.52
703.777	3120.76
703.965	3143.29
704.154	3239.55
704.342	3053.18
704.531	3196.54
704.719	3077.76
704.907	3200.63
705.096	3163.77
705.284	3151.48
705.472	3204.73
705.661	3071.61
705.849	3120.76
706.037	3120.76
706.226	3118.72
706.414	3155.58
706.602	3102.33
706.79	3061.37
706.979	3006.08
707.167	2977.41
707.355	3047.04
707.543	3055.23
707.731	3135.1
707.919	2987.65
708.107	3073.66
708.296	3069.56
708.484	3053.18
708.672	3034.75
708.86	2942.59
709.048	3006.08
709.236	3090.04
709.424	3061.37
709.612	3131
709.8	3020.41
709.988	2961.02
710.176	3065.47
710.364	3065.47
710.551	2948.73
710.739	2950.78
710.927	3090.04
711.115	3083.9
711.303	3159.67
711.491	2995.84
711.679	2983.55
711.866	2961.02
712.054	2958.97
712.242	2909.82
712.43	2993.79
712.617	2938.49
712.805	2911.87
712.993	2928.25
713.181	2973.31
713.368	2934.4
713.556	2977.41
713.744	2932.35
713.931	3116.67
714.119	2905.73
714.306	2987.65
714.494	3075.71
714.682	2965.12
714.869	2877.05
715.057	2928.25
715.244	2956.93
715.432	2850.43
715.619	3047.04
715.807	2854.53
715.994	2969.21
716.182	3012.22
716.369	2903.68
716.556	2821.76
716.744	2768.51
716.931	2895.49
717.119	2969.21
717.306	2987.65
717.493	2973.31
717.681	3012.22
717.868	2881.15
718.055	2852.48
718.242	2956.93
718.43	2887.29
718.617	2926.21
718.804	2854.53
718.991	2707.07
719.179	2893.44
719.366	2827.9
719.553	2838.14
719.74	2854.53
719.927	2926.21
720.114	2735.74
720.301	2879.1
720.488	2877.05
720.676	2782.85
720.863	2920.06
721.05	2870.91
721.237	2721.41
721.424	2811.52
721.611	2758.27
721.798	2799.23
721.985	2803.33
722.172	2768.51
722.358	2776.7
722.545	2928.25
722.732	2844.29
722.919	2852.48
723.106	2774.66
723.293	2764.42
723.48	2748.03
723.667	2760.32
723.853	2813.57
724.04	2922.11
724.227	2887.29
724.414	2731.65
724.6	2682.5
724.787	2805.38
724.974	2705.03
725.161	2791.04
725.347	2727.55
725.534	2758.27
725.72	2795.14
725.907	2700.93
726.094	2776.7
726.28	2668.16
726.467	2729.6
726.653	2725.51
726.84	2705.03
727.027	2836.1
727.213	2686.59
727.4	2764.42
727.586	2625.15
727.773	2549.38
727.959	2686.59
728.145	2705.03
728.332	2641.54
728.518	2793.09
728.705	2735.74
728.891	2637.44
729.077	2702.98
729.264	2629.25
729.45	2563.72
729.636	2664.07
729.823	2555.52
730.009	2614.91
730.195	2604.67
730.382	2610.82
730.568	2649.73
730.754	2725.51
730.94	2662.02
731.126	2584.2
731.313	2748.03
731.499	2619.01
731.685	2524.8
731.871	2594.44
732.057	2506.37
732.243	2614.91
732.429	2686.59
732.615	2522.76
732.801	2680.45
732.987	2666.11
733.173	2539.14
733.359	2514.56
733.545	2573.96
733.731	2479.75
733.917	2602.63
734.103	2571.91
734.289	2676.35
734.475	2492.04
734.661	2780.8
734.847	2547.33
735.033	2610.82
735.219	2541.19
735.404	2584.2
735.59	2524.8
735.776	2614.91
735.962	2596.48
736.148	2541.19
736.333	2496.13
736.519	2424.45
736.705	2455.17
736.89	2475.65
737.076	2385.54
737.262	2518.66
737.447	2621.06
737.633	2475.65
737.819	2561.67
738.004	2416.26
738.19	2479.75
738.375	2524.8
738.561	2569.86
738.747	2344.58
738.932	2406.02
739.118	2451.08
739.303	2383.49
739.489	2461.32
739.674	2250.38
739.859	2272.9
740.045	2346.63
740.23	2346.63
740.416	2317.96
740.601	2373.25
740.786	2268.81
740.972	2277
741.157	2279.05
741.342	2291.34
741.528	2242.18
741.713	2336.39
741.898	2264.71
742.084	2291.34
742.269	2102.92
742.454	2356.87
742.639	2311.82
742.824	2139.79
743.01	2236.04
743.195	2199.18
743.38	2233.99
743.565	2317.96
743.75	2152.07
743.935	2256.52
744.12	2246.28
744.305	2094.73
744.49	2190.99
744.675	2137.74
744.86	2051.72
745.045	2117.26
745.23	2104.97
745.415	2195.08
745.6	2203.27
745.785	2064.01
745.97	2008.72
746.155	1982.09
746.34	2049.68
746.525	1969.8
746.71	2061.96
746.895	1947.28
747.079	2010.76
747.264	1990.28
747.449	1955.47
747.634	1953.42
747.819	1945.23
748.003	1840.78
748.188	1988.24
748.373	1961.61
748.557	1945.23
748.742	1777.3
748.927	1957.52
749.111	1787.54
749.296	1785.49
749.481	1842.83
749.665	1822.35
749.85	1842.83
750.034	1824.4
750.219	1773.2
750.404	1775.25
750.588	1738.38
750.773	1756.82
750.957	1717.9
751.141	1750.67
751.326	1648.27
751.51	1713.81
751.695	1705.62
751.879	1644.18
752.064	1781.39
752.248	1656.47
752.432	1590.93
752.617	1750.67
752.801	1629.84
752.985	1599.12
753.17	1683.09
753.354	1625.75
753.538	1595.03
753.722	1597.07
753.907	1605.27
754.091	1484.44
754.275	1519.25
754.459	1509.01
754.643	1494.68
754.828	1443.48
755.012	1463.96
755.196	1461.91
755.38	1461.91
755.564	1457.81
755.748	1609.36
755.932	1496.72
756.116	1398.42
756.3	1410.71
756.484	1394.33
756.668	1332.89
756.852	1369.75
757.036	1314.45
757.22	1427.09
757.404	1336.98
757.588	1439.38
757.772	1306.26
757.956	1408.66
758.14	1343.13
758.323	1332.89
758.507	1267.35
758.691	1253.02
758.875	1386.13
759.059	1277.59
759.242	1345.17
759.426	1281.69
759.61	1169.05
759.794	1246.87
759.977	1306.26
760.161	1293.97
760.345	1101.47
760.528	1173.14
760.712	1269.4
760.895	1238.68
761.079	1164.95
761.263	1144.47
761.446	1169.05
761.63	1220.25
761.813	1185.43
761.997	1080.99
762.18	1181.34
762.364	1253.02
762.547	1146.52
762.731	1117.85
762.914	1109.66
763.098	1134.23
763.281	1052.31
763.464	1050.27
763.648	1101.47
763.831	1113.75
764.015	1111.71
764.198	1156.76
764.381	1076.89
764.564	1097.37
764.748	994.97
764.931	1066.65
765.114	1078.94
765.297	1076.89
765.481	1070.75
765.664	1078.94
765.847	1011.36
766.03	1080.99
766.213	1044.12
766.397	1040.03
766.58	1035.93
766.763	1017.5
766.946	1007.26
767.129	978.59
767.312	992.92
767.495	937.63
767.678	976.54
767.861	1042.07
768.044	1037.98
768.227	997.02
768.41	986.78
768.593	1023.64
768.776	976.54
768.959	980.64
769.142	1052.31
769.324	954.01
769.507	960.16
769.69	917.15
769.873	960.16
770.056	964.25
770.239	1046.17
770.421	949.92
770.604	984.73
770.787	980.64
770.97	960.16
771.152	849.57
771.335	913.05
771.518	859.81
771.7	878.24
771.883	900.76
772.066	859.81
772.248	853.66
772.431	827.04
772.613	925.34
772.796	827.04
772.978	896.67
773.161	806.56
773.343	810.65
773.526	820.89
773.708	806.56
773.891	796.32
774.073	765.6
774.256	822.94
774.438	870.05
774.621	732.83
774.803	827.04
774.985	806.56
775.168	800.41
775.35	808.61
775.532	759.46
775.715	730.78
775.897	749.22
776.079	792.22
776.261	786.08
776.444	784.03
776.626	698.02
776.808	702.11
776.99	695.97
777.173	761.5
777.355	663.2
777.537	763.55
777.719	726.69
777.901	730.78
778.083	761.5
778.265	734.88
778.447	655.01
778.629	640.67
778.811	722.59
778.993	636.58
779.175	648.86
779.357	700.06
779.539	693.92
779.721	706.21
779.903	652.96
780.085	509.6
780.267	648.86
780.449	665.25
780.631	663.2
780.812	681.63
780.994	618.15
781.176	626.34
781.358	560.8
781.54	646.82
781.721	607.91
781.903	612
782.085	571.04
782.267	581.28
782.448	536.23
782.63	568.99
782.812	560.8
782.993	618.15
783.175	560.8
783.357	558.75
783.538	558.75
783.72	579.23
783.901	585.38
784.083	534.18
784.264	577.19
784.446	472.74
784.627	509.6
784.809	571.04
784.99	550.56
785.172	540.32
785.353	452.26
785.535	470.69
785.716	501.41
785.897	464.55
786.079	534.18
786.26	478.88
786.441	523.94
786.623	487.08
786.804	433.83
786.985	501.41
787.167	458.4
787.348	429.73
787.529	513.7
787.71	499.36
787.891	566.95
788.073	470.69
788.254	446.12
788.435	460.45
788.616	425.64
788.797	409.25
788.978	407.2
789.159	435.88
789.34	384.68
789.522	466.6
789.703	390.82
789.884	390.82
790.065	421.54
790.246	491.17
790.427	462.5
790.607	501.41
790.788	372.39
790.969	399.01
791.15	437.92
791.331	388.77
791.512	341.67
791.693	382.63
791.874	378.53
792.054	421.54
792.235	360.1
792.416	413.35
792.597	274.09
792.778	390.82
792.958	343.72
793.139	321.19
793.32	349.86
793.5	390.82
793.681	378.53
793.862	337.57
794.042	353.96
794.223	315.05
794.404	368.29
794.584	298.66
794.765	364.2
794.945	323.24
795.126	374.44
795.306	396.96
795.487	337.57
795.667	351.91
795.848	325.29
796.028	399.01
796.209	349.86
796.389	335.53
796.57	417.44
796.75	366.25
796.93	337.57
797.111	280.23
797.291	298.66
797.471	265.89
797.652	345.77
797.832	237.22
798.012	337.57
798.192	257.7
798.373	253.61
798.553	306.85
798.733	308.9
798.913	351.91
799.093	310.95
799.274	306.85
799.454	317.09
799.634	308.9
799.814	239.27
799.994	280.23
800.174	282.28
800.354	245.41
800.534	263.85
800.714	265.89
800.894	245.41
801.074	173.74
801.254	257.7
801.434	290.47
801.614	294.57
801.794	231.08
801.974	726.69
802.154	263.85
802.334	278.18
802.514	226.98
802.693	194.22
802.873	253.61
803.053	288.42
803.233	183.98
803.413	229.03
803.592	290.47
803.772	243.37
803.952	251.56
804.131	226.98
804.311	265.89
804.491	308.9
804.67	222.89
804.85	116.39
805.03	245.41
805.209	280.23
805.389	106.15
805.568	224.94
805.748	229.03
805.928	298.66
806.107	194.22
806.287	243.37
806.466	169.64
806.646	233.13
806.825	155.3
807.004	157.35
807.184	239.27
807.363	196.26
807.543	231.08
807.722	188.07
807.901	220.84
808.081	159.4
808.26	239.27
808.439	224.94
808.619	224.94
808.798	200.36
808.977	233.13
809.156	196.26
809.336	181.93
809.515	167.59
809.694	173.74
809.873	257.7
810.052	261.8
810.231	204.46
810.411	169.64
810.59	298.66
810.769	167.59
810.948	224.94
811.127	173.74
811.306	165.54
811.485	143.02
811.664	261.8
811.843	243.37
812.022	177.83
812.201	226.98
812.38	165.54
812.559	155.3
812.737	102.06
812.916	196.26
813.095	128.68
813.274	104.11
813.453	145.06
813.632	157.35
813.811	183.98
813.989	48.81
814.168	155.3
814.347	198.31
814.526	220.84
814.704	153.26
814.883	265.89
815.062	112.3
815.24	173.74
815.419	204.46
815.598	202.41
815.776	106.15
815.955	145.06
816.133	77.48
816.312	157.35
816.49	181.93
816.669	179.88
816.847	112.3
817.026	155.3
817.204	124.58
817.383	190.12
817.561	97.96
817.74	128.68
817.918	188.07
818.097	153.26
818.275	163.5
818.453	122.54
818.632	155.3
818.81	157.35
818.988	194.22
819.167	134.82
819.345	128.68
819.523	196.26
819.701	165.54
819.879	149.16
820.058	165.54
820.236	106.15
820.414	165.54
820.592	157.35
820.77	143.02
820.948	161.45
821.127	102.06
821.305	161.45
821.483	122.54
821.661	143.02
821.839	138.92
822.017	122.54
822.195	165.54
822.373	132.78
822.551	128.68
822.729	173.74
822.907	81.58
823.085	210.6
823.262	216.74
823.44	106.15
823.618	153.26
823.796	145.06
823.974	46.76
824.152	155.3
824.329	79.53
824.507	110.25
824.685	151.21
824.863	67.24
825.04	112.3
825.218	157.35
825.396	104.11
825.574	181.93
825.751	61.1
825.929	93.87
826.107	61.1
826.284	67.24
826.462	95.91
826.639	30.38
826.817	83.63
826.994	93.87
827.172	40.62
827.349	167.59
827.527	83.63
827.704	128.68
827.882	87.72
828.059	87.72
828.237	130.73
828.414	71.34
828.591	67.24
828.769	108.2
828.946	116.39
829.124	145.06
829.301	102.06
829.478	57
829.655	46.76
829.833	132.78
830.01	50.86
830.187	67.24
830.364	89.77
830.542	130.73
830.719	42.67
830.896	153.26
831.073	73.39
831.25	130.73
831.427	145.06
831.604	151.21
831.782	16.04
831.959	85.67
832.136	126.63
832.313	89.77
832.49	81.58
832.667	71.34
832.844	65.19
833.021	100.01
833.198	-0.34
833.374	118.44
833.551	181.93
833.728	147.11
833.905	81.58
834.082	116.39
834.259	104.11
834.436	159.4
834.612	112.3
834.789	97.96
834.966	106.15
835.143	81.58
835.319	26.28
835.496	97.96
835.673	67.24
835.85	93.87
836.026	132.78
836.203	24.23
836.38	108.2
836.556	-16.73
836.733	61.1
836.909	110.25
837.086	24.23
837.262	77.48
837.439	104.11
837.616	11.95
837.792	57
837.968	54.95
838.145	28.33
838.321	108.2
838.498	63.15
838.674	188.07
838.851	67.24
839.027	97.96
839.203	73.39
839.38	38.57
839.556	50.86
839.732	89.77
839.909	120.49
840.085	50.86
840.261	54.95
840.437	63.15
840.614	44.71
840.79	91.82
840.966	24.23
841.142	81.58
841.318	95.91
841.494	22.19
841.671	48.81
841.847	67.24
842.023	48.81
842.199	95.91
842.375	-22.87
842.551	79.53
842.727	110.25
842.903	145.06
843.079	-22.87
843.255	75.43
843.431	91.82
843.607	30.38
843.783	13.99
843.959	63.15
844.134	46.76
844.31	87.72
844.486	79.53
844.662	-16.73
844.838	81.58
845.013	116.39
845.189	100.01
845.365	-10.58
845.541	52.91
845.716	54.95
845.892	65.19
846.068	67.24
846.244	42.67
846.419	104.11
846.595	38.57
846.77	32.43
846.946	11.95
847.122	57
847.297	48.81
847.473	79.53
847.648	46.76
847.824	40.62
847.999	20.14
848.175	24.23
848.35	59.05
848.526	106.15
848.701	73.39
848.876	38.57
849.052	63.15
849.227	-12.63
849.403	-18.77
849.578	36.52
849.753	48.81
849.929	32.43
850.104	-29.01
850.279	32.43
850.454	83.63
850.63	95.91
850.805	-2.39
850.98	28.33
851.155	50.86
851.33	132.78
851.505	54.95
851.681	165.54
851.856	-43.35
852.031	32.43
852.206	44.71
852.381	28.33
852.556	18.09
852.731	61.1
852.906	67.24
853.081	48.81
853.256	87.72
853.431	11.95
853.606	16.04
853.781	69.29
853.956	65.19
854.131	69.29
854.305	-35.16
854.48	46.76
854.655	69.29
854.83	32.43
855.005	34.47
855.18	57
855.354	20.14
855.529	30.38
855.704	69.29
855.879	73.39
856.053	42.67
856.228	50.86
856.403	52.91
856.577	32.43
856.752	-22.87
856.926	54.95
857.101	81.58
857.276	24.23
857.45	73.39
857.625	22.19
857.799	1.71
857.974	57
858.148	83.63
858.323	67.24
858.497	50.86
858.672	26.28
858.846	54.95
859.02	130.73
859.195	-16.73
859.369	34.47
859.543	71.34
859.718	102.06
859.892	50.86
860.066	46.76
860.241	16.04
860.415	28.33
860.589	50.86
860.763	63.15
860.938	61.1
861.112	52.91
861.286	-24.92
861.46	40.62
861.634	9.9
861.808	87.72
861.982	-4.44
862.157	75.43
862.331	-20.82
862.505	-4.44
862.679	-33.11
862.853	36.52
863.027	-6.49
863.201	32.43
863.375	59.05
863.549	38.57
863.722	-49.49
863.896	81.58
864.07	38.57
864.244	16.04
864.418	50.86
864.592	40.62
864.766	28.33
864.939	7.85
865.113	28.33
865.287	85.67
865.461	26.28
865.634	32.43
865.808	22.19
865.982	13.99
866.156	-0.34
866.329	59.05
866.503	-26.96
866.676	26.28
866.85	18.09
867.024	97.96
867.197	59.05
867.371	5.8
867.544	26.28
867.718	-59.73
867.891	40.62
868.065	36.52
868.238	44.71
868.412	57
868.585	20.14
868.759	32.43
868.932	50.86
869.105	26.28
869.279	36.52
869.452	-45.4
869.625	-2.39
869.799	34.47
869.972	-22.87
870.145	46.76
870.319	-18.77
870.492	77.48
870.665	67.24
870.838	61.1
871.011	11.95
871.185	-0.34
871.358	44.71
871.531	9.9
871.704	73.39
871.877	9.9
872.05	40.62
872.223	11.95
872.396	-74.07
872.569	30.38
872.742	18.09
872.915	89.77
873.088	7.85
873.261	-39.25
873.434	59.05
873.607	106.15
873.78	-0.34
873.953	-20.82
874.126	40.62
874.299	77.48
874.471	-8.53
874.644	11.95
874.817	-2.39
874.99	24.23
875.163	54.95
875.335	42.67
875.508	-16.73
875.681	28.33
875.853	-4.44
876.026	-39.25
876.199	13.99
876.371	54.95
876.544	22.19
876.717	3.75
876.889	36.52
877.062	69.29
877.234	-72.02
877.407	42.67
877.579	11.95
877.752	69.29
877.924	-10.58
878.097	46.76
878.269	5.8
878.442	-8.53
878.614	1.71
878.786	36.52
878.959	73.39
879.131	24.23
879.303	28.33
879.476	71.34
879.648	63.15
879.82	-20.82
879.993	-14.68
880.165	32.43
880.337	-24.92
880.509	11.95
880.681	3.75
880.854	46.76
881.026	26.28
881.198	93.87
881.37	-55.64
881.542	24.23
881.714	5.8
881.886	52.91
882.058	-4.44
882.23	50.86
882.402	30.38
882.574	67.24
882.746	57
882.918	7.85
883.09	91.82
883.262	7.85
883.434	9.9
883.606	32.43
883.778	44.71
883.95	-10.58
884.122	9.9
884.293	36.52
884.465	48.81
884.637	40.62
884.809	-0.34
884.98	-45.4
885.152	-29.01
885.324	-20.82
885.496	-6.49
885.667	9.9
885.839	3.75
886.011	81.58
886.182	32.43
886.354	-63.83
886.525	-31.06
886.697	-12.63
886.869	50.86
887.04	-18.77
887.212	5.8
887.383	67.24
887.555	42.67
887.726	-12.63
887.897	57
888.069	79.53
888.24	16.04
888.412	22.19
888.583	-18.77
888.754	38.57
888.926	-12.63
889.097	-24.92
889.268	-74.07
889.44	38.57
889.611	-12.63
889.782	38.57
889.953	36.52
890.125	79.53
890.296	38.57
890.467	67.24
890.638	-10.58
890.809	34.47
890.98	-20.82
891.151	63.15
891.323	-22.87
891.494	40.62
891.665	-22.87
891.836	18.09
892.007	-14.68
892.178	65.19
892.349	42.67
892.52	42.67
892.691	9.9
892.862	7.85
893.032	-43.35
893.203	34.47
893.374	22.19
893.545	28.33
893.716	-24.92
893.887	-59.73
894.057	-8.53
894.228	-53.59
894.399	32.43
894.57	57
894.74	11.95
894.911	-33.11
895.082	-16.73
895.253	32.43
895.423	-49.49
895.594	44.71
895.764	71.34
895.935	-20.82
896.106	22.19
896.276	24.23
896.447	38.57
896.617	24.23
896.788	34.47
896.958	24.23
897.129	-4.44
897.299	9.9
897.47	61.1
897.64	65.19
897.81	69.29
897.981	-22.87
898.151	-26.96
898.322	79.53
898.492	9.9
898.662	50.86
898.832	83.63
899.003	-35.16
899.173	30.38
899.343	63.15
899.513	1.71
