Data from USB4F104151__4__12-00-18-794.txt Node

Date: Fri Mar 14 12:00:18 EDT 2025
User: louis
Spectrometer: USB4F10415
Trigger mode: 4
Integration Time (sec): 2.000000E-2
Scans to average: 1
Electric dark correction enabled: true
Nonlinearity correction enabled: false
Boxcar width: 0
XAxis mode: Wavelengths
Number of Pixels in Spectrum: 3648
>>>>>Begin Spectral Data<<<<<
178.204	-158.55
178.424	-158.55
178.644	-158.55
178.864	-97.11
179.084	-97.11
179.304	7.34
179.524	9.39
179.744	-0.85
179.964	36.01
180.184	-43.86
180.404	-15.19
180.624	-13.14
180.844	-7
181.064	-21.33
181.283	23.72
181.503	-4.95
181.723	29.87
181.943	-84.82
182.163	-47.96
182.383	-76.63
182.602	-31.57
182.822	27.82
183.042	-27.48
183.262	-11.09
183.482	-4.95
183.701	42.15
183.921	-0.85
184.141	-31.57
184.361	27.82
184.58	-62.29
184.8	-2.9
185.02	-4.95
185.239	46.25
185.459	-31.57
185.679	15.53
185.898	-64.34
186.118	44.2
186.338	11.43
186.557	-86.87
186.777	42.15
186.997	-9.05
187.216	46.25
187.436	60.59
187.655	-29.52
187.875	54.44
188.095	-54.1
188.314	81.07
188.534	21.67
188.753	21.67
188.973	36.01
189.192	-7
189.412	11.43
189.631	9.39
189.851	-4.95
190.07	29.87
190.29	-29.52
190.509	9.39
190.729	5.29
190.948	21.67
191.168	54.44
191.387	31.91
191.607	-13.14
191.826	-47.96
192.045	50.35
192.265	9.39
192.484	-43.86
192.704	13.48
192.923	-39.76
193.142	-7
193.362	-41.81
193.581	54.44
193.8	62.63
194.02	-76.63
194.239	21.67
194.458	15.53
194.678	-9.05
194.897	21.67
195.116	-43.86
195.335	-68.44
195.555	44.2
195.774	-27.48
195.993	72.87
196.212	36.01
196.432	-86.87
196.651	-23.38
196.87	15.53
197.089	46.25
197.308	23.72
197.528	7.34
197.747	-56.15
197.966	5.29
198.185	48.3
198.404	9.39
198.623	-17.24
198.842	15.53
199.062	-60.24
199.281	-21.33
199.5	3.24
199.719	9.39
199.938	-4.95
200.157	-52.05
200.376	-4.95
200.595	1.19
200.814	38.06
201.033	-41.81
201.252	60.59
201.471	-21.33
201.69	-7
201.909	-11.09
202.128	23.72
202.347	23.72
202.566	11.43
202.785	-64.34
203.004	-19.29
203.223	38.06
203.442	15.53
203.661	70.83
203.879	58.54
204.098	17.58
204.317	33.96
204.536	42.15
204.755	7.34
204.974	-7
205.193	44.2
205.411	58.54
205.63	-4.95
205.849	-31.57
206.068	5.29
206.287	-50
206.505	-11.09
206.724	17.58
206.943	-37.72
207.162	-45.91
207.381	-45.91
207.599	31.91
207.818	-9.05
208.037	1.19
208.255	7.34
208.474	56.49
208.693	-15.19
208.911	-54.1
209.13	-52.05
209.349	17.58
209.567	1.19
209.786	-43.86
210.005	48.3
210.223	-15.19
210.442	-4.95
210.661	3.24
210.879	-66.39
211.098	-9.05
211.316	-54.1
211.535	-58.2
211.753	-9.05
211.972	44.2
212.191	13.48
212.409	25.77
212.628	13.48
212.846	52.39
213.065	1.19
213.283	31.91
213.502	33.96
213.72	-0.85
213.938	-58.2
214.157	-15.19
214.375	-68.44
214.594	-13.14
214.812	-31.57
215.031	-9.05
215.249	58.54
215.467	-33.62
215.686	-17.24
215.904	-41.81
216.122	50.35
216.341	21.67
216.559	-50
216.778	-19.29
216.996	64.68
217.214	-58.2
217.432	-33.62
217.651	-31.57
217.869	-56.15
218.087	17.58
218.306	1.19
218.524	23.72
218.742	27.82
218.96	9.39
219.179	-2.9
219.397	74.92
219.615	-19.29
219.833	-2.9
220.051	-66.39
220.27	-7
220.488	7.34
220.706	9.39
220.924	44.2
221.142	23.72
221.36	-9.05
221.578	60.59
221.796	-11.09
222.015	23.72
222.233	11.43
222.451	31.91
222.669	44.2
222.887	58.54
223.105	9.39
223.323	-13.14
223.541	-19.29
223.759	44.2
223.977	83.11
224.195	5.29
224.413	48.3
224.631	-47.96
224.849	29.87
225.067	-27.48
225.285	13.48
225.503	-31.57
225.721	-52.05
225.939	9.39
226.157	13.48
226.375	52.39
226.592	-29.52
226.81	52.39
227.028	5.29
227.246	-41.81
227.464	-64.34
227.682	33.96
227.9	-33.62
228.117	-64.34
228.335	17.58
228.553	-52.05
228.771	-123.73
228.989	1.19
229.206	7.34
229.424	-4.95
229.642	-43.86
229.86	-17.24
230.077	-4.95
230.295	31.91
230.513	-60.24
230.731	17.58
230.948	89.26
231.166	-37.72
231.384	56.49
231.601	-33.62
231.819	-25.43
232.037	-39.76
232.254	-11.09
232.472	7.34
232.689	72.87
232.907	48.3
233.125	-4.95
233.342	-23.38
233.56	-58.2
233.777	-25.43
233.995	62.63
234.213	54.44
234.43	-50
234.648	5.29
234.865	15.53
235.083	5.29
235.3	83.11
235.518	-37.72
235.735	42.15
235.953	66.73
236.17	-45.91
236.388	-27.48
236.605	-4.95
236.822	11.43
237.04	72.87
237.257	7.34
237.475	72.87
237.692	-0.85
237.909	-13.14
238.127	1.19
238.344	1.19
238.562	33.96
238.779	-33.62
238.996	-43.86
239.214	42.15
239.431	9.39
239.648	-25.43
239.865	5.29
240.083	3.24
240.3	31.91
240.517	-66.39
240.735	-4.95
240.952	-64.34
241.169	7.34
241.386	-4.95
241.603	-78.68
241.821	-31.57
242.038	-43.86
242.255	23.72
242.472	7.34
242.689	3.24
242.907	-0.85
243.124	54.44
243.341	-19.29
243.558	-97.11
243.775	-15.19
243.992	19.63
244.209	-15.19
244.426	21.67
244.643	42.15
244.86	-21.33
245.078	-9.05
245.295	-58.2
245.512	-25.43
245.729	-29.52
245.946	56.49
246.163	62.63
246.38	66.73
246.597	-27.48
246.814	-56.15
247.031	25.77
247.248	-21.33
247.464	-7
247.681	-17.24
247.898	17.58
248.115	27.82
248.332	3.24
248.549	1.19
248.766	33.96
248.983	11.43
249.2	15.53
249.417	44.2
249.633	-52.05
249.85	7.34
250.067	-19.29
250.284	-25.43
250.501	29.87
250.717	19.63
250.934	-0.85
251.151	25.77
251.368	-4.95
251.585	95.4
251.801	27.82
252.018	-39.76
252.235	15.53
252.451	-9.05
252.668	36.01
252.885	50.35
253.102	9.39
253.318	-4.95
253.535	-78.68
253.752	44.2
253.968	-41.81
254.185	-39.76
254.401	-13.14
254.618	1.19
254.835	-39.76
255.051	-62.29
255.268	-23.38
255.484	-7
255.701	-31.57
255.917	-2.9
256.134	-58.2
256.351	-29.52
256.567	-7
256.784	42.15
257	9.39
257.217	-17.24
257.433	64.68
257.65	-13.14
257.866	38.06
258.082	-9.05
258.299	-15.19
258.515	-15.19
258.732	42.15
258.948	29.87
259.165	-11.09
259.381	-4.95
259.597	31.91
259.814	1.19
260.03	-80.72
260.246	13.48
260.463	11.43
260.679	13.48
260.895	-13.14
261.112	-80.72
261.328	-27.48
261.544	21.67
261.761	-4.95
261.977	56.49
262.193	-72.53
262.409	3.24
262.626	-15.19
262.842	-47.96
263.058	-23.38
263.274	21.67
263.49	-19.29
263.707	-2.9
263.923	62.63
264.139	-80.72
264.355	76.97
264.571	-2.9
264.787	-15.19
265.004	5.29
265.22	-17.24
265.436	-0.85
265.652	-21.33
265.868	1.19
266.084	15.53
266.3	25.77
266.516	23.72
266.732	-62.29
266.948	-17.24
267.164	7.34
267.38	5.29
267.596	33.96
267.812	29.87
268.028	44.2
268.244	-2.9
268.46	-29.52
268.676	27.82
268.892	19.63
269.108	-19.29
269.324	-4.95
269.54	-47.96
269.756	-21.33
269.972	-52.05
270.188	72.87
270.403	-80.72
270.619	-11.09
270.835	-0.85
271.051	-7
271.267	9.39
271.483	-21.33
271.698	-0.85
271.914	23.72
272.13	23.72
272.346	1.19
272.562	-41.81
272.777	54.44
272.993	-35.67
273.209	-27.48
273.425	-41.81
273.64	-0.85
273.856	29.87
274.072	17.58
274.287	-62.29
274.503	7.34
274.719	62.63
274.934	13.48
275.15	-23.38
275.366	48.3
275.581	-72.53
275.797	68.78
276.012	29.87
276.228	19.63
276.444	44.2
276.659	31.91
276.875	56.49
277.09	-2.9
277.306	23.72
277.521	17.58
277.737	46.25
277.952	74.92
278.168	-41.81
278.383	97.45
278.599	5.29
278.814	-15.19
279.03	31.91
279.245	-23.38
279.461	-19.29
279.676	-31.57
279.892	23.72
280.107	13.48
280.322	-15.19
280.538	58.54
280.753	62.63
280.969	-7
281.184	19.63
281.399	99.5
281.615	-27.48
281.83	-31.57
282.045	31.91
282.26	7.34
282.476	-37.72
282.691	48.3
282.906	21.67
283.122	-33.62
283.337	-64.34
283.552	-41.81
283.767	-41.81
283.983	76.97
284.198	29.87
284.413	33.96
284.628	-11.09
284.843	-0.85
285.058	21.67
285.274	5.29
285.489	-45.91
285.704	31.91
285.919	-84.82
286.134	33.96
286.349	33.96
286.564	44.2
286.779	17.58
286.995	19.63
287.21	-142.16
287.425	-15.19
287.64	-15.19
287.855	-45.91
288.07	-43.86
288.285	-45.91
288.5	66.73
288.715	54.44
288.93	7.34
289.145	-39.76
289.36	21.67
289.575	29.87
289.79	31.91
290.004	-2.9
290.219	25.77
290.434	17.58
290.649	-23.38
290.864	15.53
291.079	-15.19
291.294	76.97
291.509	-54.1
291.724	-54.1
291.938	-9.05
292.153	21.67
292.368	-41.81
292.583	5.29
292.798	-4.95
293.012	72.87
293.227	19.63
293.442	54.44
293.657	50.35
293.871	46.25
294.086	-4.95
294.301	-37.72
294.516	9.39
294.73	31.91
294.945	-2.9
295.16	-9.05
295.374	29.87
295.589	31.91
295.804	-27.48
296.018	-31.57
296.233	27.82
296.447	50.35
296.662	7.34
296.877	9.39
297.091	-0.85
297.306	-68.44
297.52	-21.33
297.735	-23.38
297.949	-25.43
298.164	19.63
298.378	-7
298.593	-21.33
298.807	-11.09
299.022	-15.19
299.236	115.88
299.451	-45.91
299.665	54.44
299.88	58.54
300.094	-21.33
300.309	-7
300.523	29.87
300.737	-31.57
300.952	-74.58
301.166	48.3
301.381	19.63
301.595	-50
301.809	19.63
302.024	23.72
302.238	13.48
302.452	15.53
302.667	11.43
302.881	48.3
303.095	85.16
303.309	17.58
303.524	29.87
303.738	-29.52
303.952	31.91
304.166	25.77
304.381	3.24
304.595	31.91
304.809	5.29
305.023	-15.19
305.237	-15.19
305.452	33.96
305.666	36.01
305.88	95.4
306.094	-47.96
306.308	3.24
306.522	-17.24
306.736	44.2
306.95	17.58
307.164	-52.05
307.379	3.24
307.593	-4.95
307.807	54.44
308.021	56.49
308.235	-25.43
308.449	-47.96
308.663	-88.92
308.877	44.2
309.091	-60.24
309.305	23.72
309.519	-82.77
309.733	9.39
309.947	-93.01
310.161	74.92
310.374	-78.68
310.588	76.97
310.802	-2.9
311.016	-31.57
311.23	-23.38
311.444	15.53
311.658	-15.19
311.872	44.2
312.085	66.73
312.299	-25.43
312.513	62.63
312.727	-23.38
312.941	15.53
313.154	-72.53
313.368	3.24
313.582	-13.14
313.796	-23.38
314.009	38.06
314.223	74.92
314.437	-43.86
314.651	38.06
314.864	21.67
315.078	-21.33
315.292	23.72
315.505	-11.09
315.719	1.19
315.933	9.39
316.146	29.87
316.36	-41.81
316.573	17.58
316.787	-11.09
317.001	70.83
317.214	-37.72
317.428	21.67
317.641	5.29
317.855	31.91
318.068	-4.95
318.282	23.72
318.495	27.82
318.709	11.43
318.922	-13.14
319.136	74.92
319.349	-9.05
319.563	9.39
319.776	-35.67
319.99	56.49
320.203	56.49
320.417	99.5
320.63	56.49
320.843	31.91
321.057	17.58
321.27	52.39
321.483	-4.95
321.697	23.72
321.91	15.53
322.124	101.55
322.337	15.53
322.55	33.96
322.763	60.59
322.977	-9.05
323.19	-15.19
323.403	-13.14
323.617	-64.34
323.83	31.91
324.043	83.11
324.256	5.29
324.469	-17.24
324.683	-0.85
324.896	5.29
325.109	-19.29
325.322	-84.82
325.535	-23.38
325.748	-72.53
325.962	-19.29
326.175	36.01
326.388	56.49
326.601	54.44
326.814	-39.76
327.027	-99.16
327.24	44.2
327.453	-39.76
327.666	83.11
327.879	23.72
328.092	3.24
328.305	-13.14
328.518	-50
328.731	-60.24
328.944	-74.58
329.157	-21.33
329.37	-17.24
329.583	68.78
329.796	93.35
330.009	-9.05
330.222	44.2
330.435	50.35
330.648	70.83
330.861	-19.29
331.073	23.72
331.286	-29.52
331.499	42.15
331.712	-25.43
331.925	-4.95
332.138	11.43
332.35	-25.43
332.563	7.34
332.776	60.59
332.989	1.19
333.202	13.48
333.414	-2.9
333.627	-9.05
333.84	-11.09
334.053	-70.48
334.265	19.63
334.478	23.72
334.691	56.49
334.903	19.63
335.116	-52.05
335.329	3.24
335.541	-11.09
335.754	105.64
335.966	-54.1
336.179	74.92
336.392	7.34
336.604	7.34
336.817	29.87
337.029	-13.14
337.242	91.31
337.454	64.68
337.667	25.77
337.88	7.34
338.092	-15.19
338.305	31.91
338.517	9.39
338.729	46.25
338.942	42.15
339.154	-17.24
339.367	13.48
339.579	29.87
339.792	9.39
340.004	68.78
340.217	25.77
340.429	50.35
340.641	-95.06
340.854	-64.34
341.066	-13.14
341.278	40.11
341.491	58.54
341.703	-11.09
341.915	-21.33
342.128	44.2
342.34	-0.85
342.552	3.24
342.764	19.63
342.977	-21.33
343.189	21.67
343.401	27.82
343.613	72.87
343.826	15.53
344.038	-35.67
344.25	62.63
344.462	-2.9
344.674	-23.38
344.886	23.72
345.099	64.68
345.311	21.67
345.523	60.59
345.735	-88.92
345.947	21.67
346.159	-7
346.371	68.78
346.583	-58.2
346.795	36.01
347.007	3.24
347.219	40.11
347.431	3.24
347.643	105.64
347.855	-58.2
348.067	91.31
348.279	-39.76
348.491	-19.29
348.703	-9.05
348.915	64.68
349.127	54.44
349.339	25.77
349.551	-64.34
349.763	-11.09
349.975	-4.95
350.187	33.96
350.399	70.83
350.61	85.16
350.822	-15.19
351.034	50.35
351.246	9.39
351.458	-66.39
351.669	-37.72
351.881	31.91
352.093	-2.9
352.305	76.97
352.517	103.59
352.728	76.97
352.94	-52.05
353.152	-9.05
353.363	9.39
353.575	-109.4
353.787	42.15
353.999	17.58
354.21	38.06
354.422	23.72
354.633	-35.67
354.845	-0.85
355.057	23.72
355.268	48.3
355.48	-33.62
355.692	-7
355.903	23.72
356.115	-50
356.326	-66.39
356.538	152.74
356.749	-31.57
356.961	-0.85
357.172	48.3
357.384	9.39
357.595	36.01
357.807	-17.24
358.018	-15.19
358.23	27.82
358.441	11.43
358.653	-15.19
358.864	-105.3
359.075	9.39
359.287	-7
359.498	23.72
359.709	-23.38
359.921	-25.43
360.132	54.44
360.344	3.24
360.555	50.35
360.766	79.02
360.977	7.34
361.189	-39.76
361.4	-13.14
361.611	50.35
361.823	66.73
362.034	29.87
362.245	-47.96
362.456	11.43
362.667	66.73
362.879	33.96
363.09	38.06
363.301	60.59
363.512	9.39
363.723	-39.76
363.935	-0.85
364.146	-0.85
364.357	58.54
364.568	-13.14
364.779	-50
364.99	15.53
365.201	-0.85
365.412	-2.9
365.623	-43.86
365.834	-13.14
366.045	70.83
366.256	5.29
366.467	44.2
366.678	52.39
366.889	-37.72
367.1	-15.19
367.311	-19.29
367.522	-39.76
367.733	83.11
367.944	-23.38
368.155	-41.81
368.366	-27.48
368.577	-11.09
368.788	58.54
368.999	-9.05
369.209	29.87
369.42	29.87
369.631	-0.85
369.842	3.24
370.053	19.63
370.264	-13.14
370.474	-45.91
370.685	52.39
370.896	9.39
371.107	97.45
371.317	-9.05
371.528	-13.14
371.739	17.58
371.95	5.29
372.16	-11.09
372.371	-52.05
372.582	-68.44
372.792	42.15
373.003	89.26
373.214	38.06
373.424	44.2
373.635	-19.29
373.846	33.96
374.056	-56.15
374.267	-9.05
374.477	3.24
374.688	13.48
374.898	-45.91
375.109	79.02
375.319	7.34
375.53	19.63
375.74	68.78
375.951	52.39
376.161	17.58
376.372	-37.72
376.582	-35.67
376.793	11.43
377.003	-31.57
377.214	11.43
377.424	83.11
377.635	44.2
377.845	48.3
378.055	-0.85
378.266	-31.57
378.476	-2.9
378.686	15.53
378.897	-23.38
379.107	-35.67
379.317	62.63
379.528	-4.95
379.738	85.16
379.948	-29.52
380.158	44.2
380.369	-31.57
380.579	-33.62
380.789	-9.05
380.999	23.72
381.21	-11.09
381.42	38.06
381.63	36.01
381.84	29.87
382.05	-2.9
382.261	85.16
382.471	54.44
382.681	68.78
382.891	7.34
383.101	15.53
383.311	-56.15
383.521	-50
383.731	-43.86
383.941	31.91
384.151	1.19
384.361	-35.67
384.571	13.48
384.781	-17.24
384.991	15.53
385.201	58.54
385.411	81.07
385.621	74.92
385.831	-35.67
386.041	60.59
386.251	44.2
386.461	9.39
386.671	-58.2
386.881	83.11
387.091	72.87
387.301	-15.19
387.511	-17.24
387.72	87.21
387.93	25.77
388.14	-25.43
388.35	-66.39
388.56	7.34
388.769	68.78
388.979	11.43
389.189	21.67
389.399	-2.9
389.609	33.96
389.818	48.3
390.028	66.73
390.238	52.39
390.447	-39.76
390.657	29.87
390.867	-31.57
391.076	76.97
391.286	-15.19
391.496	21.67
391.705	87.21
391.915	27.82
392.125	-15.19
392.334	25.77
392.544	13.48
392.753	-7
392.963	7.34
393.172	76.97
393.382	-25.43
393.591	21.67
393.801	76.97
394.01	48.3
394.22	72.87
394.429	99.5
394.639	25.77
394.848	-9.05
395.058	15.53
395.267	9.39
395.477	58.54
395.686	23.72
395.895	103.59
396.105	29.87
396.314	-19.29
396.524	38.06
396.733	42.15
396.942	62.63
397.152	17.58
397.361	72.87
397.57	85.16
397.78	52.39
397.989	91.31
398.198	15.53
398.407	60.59
398.617	44.2
398.826	-25.43
399.035	44.2
399.244	40.11
399.453	42.15
399.663	-45.91
399.872	64.68
400.081	33.96
400.29	56.49
400.499	42.15
400.708	93.35
400.917	89.26
401.127	-41.81
401.336	9.39
401.545	70.83
401.754	74.92
401.963	128.17
402.172	15.53
402.381	68.78
402.59	13.48
402.799	50.35
403.008	103.59
403.217	68.78
403.426	52.39
403.635	76.97
403.844	27.82
404.053	64.68
404.262	42.15
404.471	181.42
404.68	33.96
404.888	93.35
405.097	50.35
405.306	11.43
405.515	38.06
405.724	60.59
405.933	68.78
406.142	54.44
406.35	36.01
406.559	160.94
406.768	167.08
406.977	52.39
407.185	136.36
407.394	74.92
407.603	111.78
407.812	208.04
408.02	60.59
408.229	64.68
408.438	74.92
408.646	130.22
408.855	68.78
409.064	148.65
409.272	140.46
409.481	150.7
409.69	171.18
409.898	220.33
410.107	162.98
410.315	210.09
410.524	130.22
410.733	216.23
410.941	253.09
411.15	107.69
411.358	140.46
411.567	191.66
411.775	167.08
411.984	230.57
412.192	148.65
412.401	189.61
412.609	218.28
412.818	263.33
413.026	310.44
413.234	257.19
413.443	236.71
413.651	320.68
413.86	257.19
414.068	341.16
414.276	279.72
414.485	353.45
414.693	335.01
414.901	464.04
415.11	347.3
415.318	457.89
415.526	439.46
415.734	357.54
415.943	504.99
416.151	447.65
416.359	474.28
416.567	410.79
416.776	509.09
416.984	474.28
417.192	552.1
417.4	591.01
417.608	519.33
417.817	615.59
418.025	621.73
418.233	756.9
418.441	623.78
418.649	634.02
418.857	806.05
419.065	824.48
419.273	705.7
419.481	804
419.689	853.15
419.897	892.06
420.105	918.68
420.313	875.68
420.521	951.45
420.729	928.92
420.937	926.88
421.145	1023.13
421.353	1027.23
421.561	1209.5
421.769	1172.63
421.977	1141.91
422.185	1197.21
422.393	1330.33
422.601	1232.02
422.809	1416.34
423.017	1371.29
423.224	1375.38
423.432	1490.07
423.64	1494.16
423.848	1592.47
424.056	1553.55
424.263	1756.3
424.471	1672.34
424.679	1768.59
424.887	1846.41
425.094	1868.94
425.302	1920.14
425.51	1973.39
425.718	2014.35
425.925	2049.16
426.133	2139.27
426.341	2311.3
426.548	2378.89
426.756	2301.06
426.964	2382.98
427.171	2464.9
427.379	2612.35
427.586	2575.49
427.794	2798.72
428.001	2870.4
428.209	2956.41
428.417	2888.83
428.624	3204.22
428.832	3093.63
429.039	3026.04
429.247	3052.67
429.454	3386.49
429.662	3650.67
429.869	3482.74
430.076	3558.52
430.284	3529.84
430.491	3705.97
430.699	3871.86
430.906	3867.76
431.114	4093.04
431.321	4062.32
431.528	4207.72
431.736	4365.42
431.943	4629.6
432.15	4539.49
432.358	4605.03
432.565	4762.72
432.772	4752.48
432.979	5047.39
433.187	5074.01
433.394	5198.94
433.601	5526.61
433.808	5461.08
434.016	5397.59
434.223	5842
434.43	6100.05
434.637	6018.13
434.844	6296.65
435.052	6523.98
435.259	6364.23
435.466	6583.37
435.673	6397
435.88	6972.48
436.087	7199.8
436.294	7351.35
436.501	7021.63
436.708	7248.96
436.915	7408.7
437.122	7760.95
437.329	7719.99
437.537	8021.04
437.743	8141.87
437.95	8164.4
438.157	8508.46
438.364	8856.61
438.571	8866.85
438.778	9020.45
438.985	9772.05
439.192	9350.17
439.399	9477.15
439.606	9380.89
439.813	9976.85
440.02	10564.62
440.227	10394.64
440.433	10191.89
440.64	10804.23
440.847	10550.28
441.054	10824.71
441.261	11588.6
441.467	11531.26
441.674	11469.82
441.881	12145.65
442.088	12123.12
442.294	11633.66
442.501	12229.62
442.708	12524.52
442.914	13028.32
443.121	13620.19
443.328	13325.28
443.534	14181.33
443.741	13900.76
443.948	13661.15
444.154	14382.03
444.361	14449.61
444.568	14717.9
444.774	14687.18
444.981	14871.5
445.187	15168.45
445.394	15805.37
445.6	15705.02
445.807	17105.83
446.013	16372.66
446.22	16921.51
446.426	17503.14
446.633	17660.83
446.839	18058.14
447.046	17296.29
447.252	18396.05
447.459	18514.83
447.665	18234.26
447.871	19000.2
448.078	19770.24
448.284	18793.36
448.491	19487.62
448.697	20284.28
448.903	20458.35
449.11	20702.06
449.316	20032.38
449.522	20593.52
449.728	21402.47
449.935	21459.81
450.141	21209.96
450.347	21980
450.553	21259.11
450.76	21558.11
450.966	22035.29
451.172	21707.62
451.378	22848.33
451.584	21703.52
451.791	22401.88
451.997	22315.86
452.203	22768.46
452.409	22739.79
452.615	22469.46
452.821	21705.57
453.027	21470.05
453.233	22625.11
453.44	21709.66
453.646	22279
453.852	22190.94
454.058	22551.38
454.264	22010.71
454.47	22436.69
454.676	21439.33
454.882	22166.36
455.088	20396.92
455.294	20331.38
455.5	21019.5
455.705	21334.89
455.911	20134.78
456.117	19690.37
456.323	19417.99
456.529	18455.44
456.735	19207.05
456.941	19004.3
457.147	18486.16
457.352	17990.55
457.558	17601.44
457.764	17820.57
457.97	17320.87
458.176	16849.83
458.381	17171.36
458.587	16047.03
458.793	16098.23
458.999	15182.79
459.204	16386.99
459.41	15760.31
459.616	14646.22
459.821	14617.55
460.027	14957.51
460.233	14502.86
460.438	13706.2
460.644	13945.81
460.85	13210.59
461.055	13226.98
461.261	13169.63
461.466	11961.33
461.672	11746.3
461.878	12444.65
462.083	11738.1
462.289	11502.59
462.494	11244.54
462.7	10902.53
462.905	10761.22
463.111	10880
463.316	10943.49
463.522	10611.72
463.727	10896.39
463.932	10529.8
464.138	10611.72
464.343	10615.82
464.549	10468.36
464.754	10671.11
464.959	10613.77
465.165	10425.36
465.37	10144.78
465.575	9841.68
465.781	10406.92
465.986	10482.7
466.191	9821.2
466.397	9856.02
466.602	9163.81
466.807	9507.87
467.012	9509.91
467.218	9616.41
467.423	9587.74
467.628	9348.12
467.833	9849.88
468.038	9501.72
468.244	9251.87
468.449	9565.21
468.654	8983.59
468.859	9344.03
469.064	9315.36
469.269	8588.33
469.474	8803.36
469.679	9233.44
469.885	8879.14
470.09	8911.91
470.295	8897.57
470.5	8614.95
470.705	8709.16
470.91	8475.69
471.115	8426.54
471.32	8711.21
471.525	8320.04
471.73	8266.8
471.935	8272.94
472.139	7973.94
472.344	8033.33
472.549	7935.03
472.754	7824.44
472.959	7748.66
473.164	7681.08
473.369	7486.52
473.574	7715.89
473.778	7605.3
473.983	7572.54
474.188	7689.27
474.393	7175.23
474.598	7105.6
474.802	7113.79
475.007	6980.67
475.212	7091.26
475.417	6913.09
475.621	6804.55
475.826	6952
476.031	6638.66
476.235	6483.02
476.44	6681.67
476.645	6644.81
476.849	6685.76
477.054	6394.95
477.259	6478.92
477.463	6425.67
477.668	6272.07
477.872	6302.79
478.077	6263.88
478.282	6087.76
478.486	6003.79
478.691	6089.81
478.895	6110.29
479.1	6087.76
479.304	5872.72
479.509	5758.03
479.713	5704.79
479.918	5747.79
480.122	5565.53
480.326	5872.72
480.531	5846.1
480.735	5651.54
480.94	5637.2
481.144	5973.07
481.348	5436.5
481.553	5649.49
481.757	5370.97
481.961	5588.05
482.166	5643.35
482.37	5659.73
482.574	5348.44
482.778	5549.14
482.983	5598.29
483.187	5540.95
483.391	5475.42
483.595	5530.71
483.8	5438.55
484.004	5622.87
484.208	5524.57
484.412	5461.08
484.616	5499.99
484.821	5450.84
485.025	5364.82
485.229	5485.65
485.433	5448.79
485.637	5434.46
485.841	5438.55
486.045	5409.88
486.249	5438.55
486.453	5526.61
486.657	5391.45
486.861	5485.65
487.065	5182.56
487.269	5543
487.473	5235.8
487.677	5512.28
487.881	5641.3
488.085	5579.86
488.289	5604.44
488.493	5446.74
488.697	5530.71
488.901	5543
489.105	5436.5
489.309	5586.01
489.512	5473.37
489.716	5557.33
489.92	5399.64
490.124	5485.65
490.328	5749.84
490.531	5604.44
490.735	5561.43
490.939	5774.42
491.143	5600.34
491.346	5606.49
491.55	5639.25
491.754	5706.84
491.958	5706.84
492.161	5672.02
492.365	5928.02
492.569	5690.45
492.772	5725.27
492.976	5803.09
493.18	5825.62
493.383	5694.55
493.587	5913.68
493.79	6073.42
493.994	5962.83
494.197	5837.91
494.401	6057.04
494.605	5977.17
494.808	6181.96
495.012	6249.55
495.215	6208.59
495.419	6280.27
495.622	6098
495.825	6302.79
496.029	6216.78
496.232	6462.54
496.436	6401.1
496.639	6642.76
496.843	6532.17
497.046	6689.86
497.249	6761.54
497.453	6777.92
497.656	6974.53
497.859	6966.34
498.063	7126.08
498.266	7015.49
498.469	7085.12
498.673	7103.55
498.876	7273.53
499.079	7175.23
499.282	7312.44
499.485	7773.24
499.689	7476.28
499.892	7531.58
500.095	7687.22
500.298	7836.72
500.501	7846.96
500.705	8064.05
500.908	8090.67
501.111	8221.74
501.314	8274.99
501.517	8229.93
501.72	8483.88
501.923	8367.15
502.126	8641.57
502.329	8504.36
502.532	8731.69
502.735	8717.35
502.938	9002.02
503.141	9032.74
503.344	9169.95
503.547	9079.84
503.75	9454.62
503.953	9436.19
504.156	9534.49
504.359	9468.95
504.562	9569.3
504.765	9876.5
504.968	9833.49
505.17	9976.85
505.373	9974.8
505.576	10122.26
505.779	10310.67
505.982	10347.53
506.185	10644.49
506.387	10605.58
506.59	10683.4
506.793	11039.75
506.996	10994.69
507.198	11099.14
507.401	11090.95
507.604	11314.17
507.807	11471.87
508.009	11555.83
508.212	11604.99
508.415	11656.18
508.617	11916.28
508.82	11852.79
509.022	11987.96
509.225	12188.66
509.428	12295.15
509.63	12276.72
509.833	12323.82
510.035	12745.7
510.238	12655.59
510.44	12764.14
510.643	12954.6
510.845	13081.57
511.048	12848.1
511.25	13095.91
511.453	13274.08
511.655	13853.66
511.858	13652.95
512.06	13837.27
512.262	13855.7
512.465	13833.18
512.667	14052.31
512.87	14271.44
513.072	14300.11
513.274	14488.53
513.477	14439.37
513.679	14762.95
513.881	14828.49
514.084	15143.88
514.286	15057.86
514.488	15096.77
514.69	15408.06
514.893	15606.72
515.095	15520.7
515.297	15782.84
515.499	15737.79
515.701	16034.74
515.904	16182.2
516.106	16161.72
516.308	16432.05
516.51	16614.32
516.712	16407.47
516.914	16612.27
517.116	16941.99
517.318	16862.12
517.52	17040.29
517.722	17163.17
517.925	17171.36
518.127	17410.98
518.329	17386.4
518.531	17867.67
518.733	17769.37
518.935	17951.64
519.136	18019.22
519.338	18344.85
519.54	18256.79
519.742	18602.89
519.944	18594.7
520.146	18828.17
520.348	18570.13
520.55	19014.54
520.752	19135.37
520.954	19479.43
521.155	19166.09
521.357	19622.78
521.559	19673.98
521.761	19876.73
521.963	19710.85
522.164	19678.08
522.366	20112.25
522.568	20171.64
522.77	20048.76
522.971	20669.3
523.173	20200.31
523.375	20554.61
523.576	20403.06
523.778	20593.52
523.98	20679.54
524.181	20951.91
524.383	20925.29
524.584	21169
524.786	21183.34
524.988	20831.08
525.189	21033.83
525.391	21724
525.592	21576.55
525.794	21750.62
525.995	21551.97
526.197	21523.3
526.398	21519.2
526.6	22051.67
526.801	21971.8
527.003	22109.02
527.204	22125.4
527.406	22066.01
527.607	22154.07
527.808	22074.2
528.01	22149.98
528.211	22174.55
528.412	22586.19
528.614	22338.39
528.815	22354.77
529.016	22666.06
529.218	22508.37
529.419	22475.6
529.62	22623.06
529.822	22537.04
530.023	22508.37
530.224	22485.84
530.425	22596.43
530.626	22569.81
530.828	22412.12
531.029	22774.61
531.23	22651.73
531.431	22395.73
531.632	22610.77
531.833	22557.52
532.035	22686.54
532.236	22731.6
532.437	22686.54
532.638	22500.18
532.839	22913.87
533.04	23114.57
533.241	22606.67
533.442	23026.51
533.643	23167.82
533.844	22700.88
534.045	22960.97
534.246	22764.37
534.447	23161.67
534.648	22809.42
534.849	22854.48
535.05	22524.75
535.251	22987.6
535.451	22750.03
535.652	23171.91
535.853	22747.98
536.054	22989.64
536.255	23073.61
536.456	22709.07
536.657	23042.89
536.857	22602.58
537.058	22553.43
537.259	22829.9
537.46	22977.36
537.66	22842.19
537.861	23024.46
538.062	22717.26
538.263	22963.02
538.463	22711.12
538.664	23040.84
538.865	22788.94
539.065	22952.78
539.266	22489.94
539.466	22883.15
539.667	22571.86
539.868	22879.05
540.068	22537.04
540.269	22754.13
540.469	22831.95
540.67	22590.29
540.87	22793.04
541.071	22709.07
541.271	22674.26
541.472	22682.45
541.672	22582.1
541.873	22649.68
542.073	22541.14
542.274	22788.94
542.474	22573.91
542.675	22657.87
542.875	23016.27
543.075	22571.86
543.276	22612.82
543.476	22924.11
543.676	22348.63
543.877	22745.94
544.077	22436.69
544.277	22467.41
544.478	22508.37
544.678	22838.09
544.878	22530.9
545.078	22526.8
545.279	22309.72
545.479	22772.56
545.679	22887.25
545.879	22524.75
546.079	22434.64
546.28	22453.08
546.48	22315.86
546.68	22698.83
546.88	22453.08
547.08	22473.56
547.28	22459.22
547.48	22268.76
547.68	22575.95
547.88	22324.05
548.081	22440.79
548.281	22260.57
548.481	22395.73
548.681	22545.23
548.881	22172.5
549.081	22369.11
549.28	22098.78
549.48	22522.71
549.68	22217.56
549.88	22276.95
550.08	22223.7
550.28	22186.84
550.48	22326.1
550.68	22467.41
550.88	22207.32
551.08	22197.08
551.279	22188.89
551.479	22168.41
551.679	22322.01
551.879	22039.39
552.079	22403.92
552.278	22276.95
552.478	22082.39
552.678	22219.61
552.878	22145.88
553.077	22264.66
553.277	22139.74
553.477	22272.85
553.676	22111.07
553.876	22076.25
554.076	22362.97
554.275	21967.71
554.475	21750.62
554.674	22199.13
554.874	21861.21
555.074	21857.12
555.273	22041.43
555.473	22174.55
555.672	21678.94
555.872	22068.06
556.071	21760.86
556.271	21879.64
556.47	21875.55
556.67	21779.29
556.869	21767.01
557.068	21967.71
557.268	21709.66
557.467	21805.92
557.667	21801.82
557.866	21721.95
558.065	21990.24
558.265	21705.57
558.464	21414.76
558.663	21836.64
558.863	21171.05
559.062	21887.84
559.261	21730.14
559.461	21889.88
559.66	21252.97
559.859	21752.67
560.058	21615.46
560.258	21658.46
560.457	21306.21
560.656	21582.69
560.855	21347.17
561.054	21457.76
561.253	20960.11
561.453	21545.83
561.652	21597.03
561.851	21271.4
562.05	21504.87
562.249	21154.66
562.448	21459.81
562.647	21359.46
562.846	21392.23
563.045	21310.31
563.244	20800.37
563.443	21117.8
563.642	21142.38
563.841	21101.42
564.04	21123.94
564.239	21085.03
564.438	20929.39
564.637	20931.44
564.836	21109.61
565.035	20859.76
565.234	21119.85
565.432	20753.26
565.631	20810.61
565.83	20953.96
566.029	20804.46
566.228	20761.45
566.427	20603.76
566.625	20491.12
566.824	20503.41
567.023	20675.44
567.222	20188.02
567.42	20556.66
567.619	20433.78
567.818	20503.41
568.016	20538.23
568.215	20276.09
568.414	20282.23
568.612	20188.02
568.811	20296.56
569.01	20384.63
569.208	20052.86
569.407	20507.51
569.605	20202.36
569.804	20147.06
570.002	19886.97
570.201	19956.6
570.4	19628.93
570.598	19825.53
570.797	19825.53
570.995	19862.4
571.193	19919.74
571.392	19966.84
571.59	19729.28
571.789	19934.07
571.987	19692.41
572.186	19680.13
572.384	19655.55
572.582	19917.69
572.781	19620.74
572.979	19395.46
573.177	19372.93
573.376	19553.15
573.574	19669.89
573.772	19426.18
573.971	19340.16
574.169	19391.36
574.367	19139.46
574.565	19377.03
574.763	19305.35
574.962	19200.9
575.16	18949
575.358	19274.63
575.556	18711.44
575.754	19030.92
575.952	18946.95
576.151	19245.96
576.349	18641.81
576.547	18697.1
576.745	18965.39
576.943	18951.05
577.141	18617.23
577.339	18772.88
577.537	18770.83
577.735	18828.17
577.933	18662.29
578.131	18674.57
578.329	18432.91
578.527	18641.81
578.725	18465.68
578.923	18439.06
579.121	18205.59
579.319	18129.81
579.516	18412.43
579.714	18195.35
579.912	18183.06
580.11	18113.43
580.308	18283.41
580.506	17906.59
580.704	17882.01
580.901	18019.22
581.099	18178.97
581.297	17894.3
581.495	17898.39
581.692	17720.22
581.89	17601.44
582.088	17937.3
582.285	17671.07
582.483	18008.98
582.681	17873.82
582.878	17562.53
583.076	17413.02
583.274	17392.55
583.471	17451.94
583.669	17511.33
583.866	17519.52
584.064	17558.43
584.262	17357.73
584.459	17318.82
584.657	17435.55
584.854	17234.85
585.052	16999.34
585.249	16976.81
585.447	17275.81
585.644	16843.69
585.841	16835.5
586.039	17179.56
586.236	16704.43
586.434	16794.54
586.631	16864.17
586.828	16890.79
587.026	16767.91
587.223	16487.34
587.42	16499.63
587.618	16798.63
587.815	16325.55
588.012	16561.07
588.21	16460.72
588.407	16628.65
588.604	16526.25
588.801	16282.55
588.999	16393.14
589.196	16356.27
589.393	16210.87
589.59	16110.52
589.787	16163.76
589.984	16100.28
590.182	15748.03
590.379	16151.48
590.576	15870.9
590.773	16245.68
590.97	15803.32
591.167	16096.18
591.364	15680.44
591.561	15813.56
591.758	15578.04
591.955	15377.34
592.152	15647.68
592.349	15586.24
592.546	15805.37
592.743	15549.37
592.94	15410.11
593.137	15127.49
593.334	15440.83
593.531	15211.46
593.727	15627.2
593.924	15299.52
594.121	15203.27
594.318	15444.93
594.515	14904.26
594.712	15332.29
594.908	15131.59
595.105	15268.8
595.302	14891.98
595.499	14953.41
595.696	14842.82
595.892	14836.68
596.089	14752.71
596.286	15014.85
596.482	14648.27
596.679	14713.8
596.876	14564.3
597.072	14513.1
597.269	14697.42
597.466	14351.31
597.662	14552.01
597.859	14433.23
598.055	14552.01
598.252	14408.65
598.448	14326.74
598.645	14136.27
598.841	14021.59
599.038	13904.85
599.234	14386.13
599.431	14158.8
599.627	14113.75
599.824	14265.3
600.02	13896.66
600.217	13986.77
600.413	14083.03
600.609	13839.32
600.806	13984.73
601.002	14011.35
601.198	13702.11
601.395	13679.58
601.591	13812.7
601.787	13669.34
601.984	13419.49
602.18	13806.55
602.376	13548.51
602.572	13667.29
602.769	13456.35
602.965	13370.33
603.161	13372.38
603.357	13292.51
603.553	13108.19
603.75	13202.4
603.946	13063.14
604.142	13214.69
604.338	13378.53
604.534	13431.77
604.73	12911.59
604.926	13200.35
605.122	13186.02
605.318	12866.53
605.514	13036.52
605.71	12686.31
605.906	13108.19
606.102	12745.7
606.298	13038.56
606.494	12733.42
606.69	12686.31
606.886	12829.67
607.082	12649.45
607.278	12676.07
607.474	12549.1
607.67	12989.41
607.866	12542.96
608.062	12782.57
608.257	12510.19
608.453	12520.43
608.649	12561.39
608.845	12506.09
609.041	12289.01
609.236	12643.31
609.432	12579.82
609.628	12526.57
609.824	12162.03
610.019	12250.1
610.215	12471.28
610.411	12372.97
610.606	12106.74
610.802	12264.43
610.998	12276.72
611.193	12147.7
611.389	11975.67
611.584	12129.27
611.78	11957.24
611.976	12047.35
612.171	12028.92
612.367	12039.15
612.562	11836.41
612.758	11721.72
612.953	11959.28
613.149	11903.99
613.344	11633.66
613.539	12098.55
613.735	11897.85
613.93	11695.1
614.126	11754.49
614.321	12088.31
614.517	11992.05
614.712	11731.96
614.907	11490.3
615.103	11670.52
615.298	11441.15
615.493	11580.41
615.688	11316.22
615.884	11783.16
616.079	11533.31
616.274	11637.75
616.47	11441.15
616.665	11551.74
616.86	11426.81
617.055	11426.81
617.25	11502.59
617.445	11506.68
617.641	11160.58
617.836	11406.33
618.031	11277.31
618.226	11226.11
618.421	11230.21
618.616	11269.12
618.811	11082.75
619.006	11129.86
619.201	11015.17
619.396	10869.76
619.591	10959.88
619.786	11105.28
619.981	10783.75
620.176	10853.38
620.371	10718.22
620.566	10968.07
620.761	10730.5
620.956	10753.03
621.151	10554.38
621.346	10716.17
621.541	10519.56
621.735	10574.86
621.93	10304.53
622.125	10368.01
622.32	10574.86
622.515	10314.77
622.709	10173.46
622.904	10245.13
623.099	10243.09
623.294	10202.13
623.488	10013.71
623.683	10152.98
623.878	9831.44
624.072	10226.7
624.267	9847.83
624.462	9987.09
624.656	9837.59
624.851	9505.82
625.046	9602.07
625.24	9774.1
625.435	9571.35
625.629	9509.91
625.824	9552.92
626.018	9647.13
626.213	9280.54
626.407	9399.32
626.602	9301.02
626.796	9225.25
626.991	9227.29
627.185	9307.16
627.38	9024.54
627.574	8930.34
627.768	8815.65
627.963	9083.94
628.157	8776.74
628.352	8848.42
628.546	8813.6
628.74	8762.4
628.935	8674.34
629.129	8680.49
629.323	8670.25
629.517	8535.08
629.712	8471.59
629.906	8473.64
630.1	8297.52
630.294	8338.48
630.489	8236.08
630.683	8453.16
630.877	8246.32
631.071	8158.25
631.265	8100.91
631.459	8254.51
631.653	8123.44
631.848	8008.75
632.042	7859.25
632.236	7992.37
632.43	7902.26
632.624	8004.66
632.818	7695.41
633.012	7736.37
633.206	7691.32
633.4	7816.24
633.594	7533.62
633.788	7619.64
633.982	7840.82
634.176	7617.59
634.369	7609.4
634.563	7552.06
634.757	7425.08
634.951	7425.08
635.145	7337.02
635.339	7443.51
635.533	7134.27
635.726	7322.68
635.92	7070.78
636.114	7054.4
636.308	6827.07
636.501	7265.34
636.695	7224.38
636.889	7242.81
637.083	6982.72
637.276	6988.86
637.47	6962.24
637.664	7025.73
637.857	6863.94
638.051	6835.27
638.244	6739.01
638.438	6743.11
638.632	6655.05
638.825	6612.04
639.019	6679.62
639.212	6655.05
639.406	6632.52
639.599	6538.31
639.793	6380.62
639.986	6550.6
640.18	6468.68
640.373	6474.82
640.567	6433.86
640.76	6431.82
640.954	6186.06
641.147	6411.34
641.34	6141
641.534	6141
641.727	6046.8
641.92	6165.58
642.114	6038.61
642.307	5934.16
642.5	6028.37
642.694	5958.74
642.887	5823.57
643.08	5995.6
643.273	5995.6
643.467	6020.17
643.66	5921.87
643.853	5702.74
644.046	5807.19
644.239	5721.17
644.432	5606.49
644.626	5725.27
644.819	5626.96
645.012	5624.92
645.205	5633.11
645.398	5659.73
645.591	5436.5
645.784	5612.63
645.977	5520.47
646.17	5422.17
646.363	5422.17
646.556	5438.55
646.749	5399.64
646.942	5194.84
647.135	5227.61
647.328	5358.68
647.521	5278.81
647.714	5174.36
647.907	5323.87
648.099	5006.43
648.292	5022.81
648.485	5221.47
648.678	5121.12
648.871	4973.66
649.064	4934.75
649.256	5084.25
649.449	4965.47
649.642	5078.11
649.835	4969.57
650.027	4832.35
650.22	4850.78
650.413	4883.55
650.605	4865.12
650.798	4758.63
650.991	4596.84
651.183	4801.63
651.376	4742.24
651.568	4815.97
651.761	4645.99
651.954	4758.63
652.146	4580.45
652.339	4645.99
652.531	4551.78
652.724	4621.41
652.916	4574.31
653.109	4498.53
653.301	4484.2
653.494	4508.77
653.686	4482.15
653.879	4455.53
654.071	4418.66
654.263	4277.35
654.456	4363.37
654.648	4371.56
654.84	4211.82
655.033	4297.83
655.225	4332.65
655.417	4226.15
655.61	4252.78
655.802	4254.83
655.994	4191.34
656.186	4101.23
656.379	4185.19
656.571	4119.66
656.763	3988.59
656.955	4152.43
657.148	3910.77
657.34	4099.18
657.532	4078.7
657.724	3929.2
657.916	4035.69
658.108	3878
658.3	3834.99
658.492	3867.76
658.684	3746.93
658.876	3734.64
659.068	3939.44
659.26	3820.66
659.452	3757.17
659.644	3722.35
659.836	3730.55
660.028	3759.22
660.22	3769.46
660.412	3781.74
660.604	3628.15
660.796	3677.3
660.988	3546.23
661.18	3601.52
661.372	3599.48
661.563	3538.04
661.755	3607.67
661.947	3748.98
662.139	3538.04
662.331	3429.49
662.522	3603.57
662.714	3476.6
662.906	3435.64
663.097	3527.8
663.289	3454.07
663.481	3359.86
663.673	3468.41
663.864	3343.48
664.056	3271.8
664.247	3198.07
664.439	3376.25
664.631	3302.52
664.822	3355.77
665.014	3275.9
665.205	3198.07
665.397	3263.61
665.588	3273.85
665.78	3189.88
665.971	3193.98
666.163	3218.55
666.354	3187.83
666.546	3193.98
666.737	3218.55
666.929	3026.04
667.12	3042.43
667.311	3124.35
667.503	3093.63
667.694	2997.37
667.885	3189.88
668.077	2966.65
668.268	2999.42
668.459	2876.54
668.651	3015.8
668.842	2925.69
669.033	2856.06
669.224	2929.79
669.416	2991.23
669.607	2876.54
669.798	2931.84
669.989	2933.89
670.18	2901.12
670.371	2808.96
670.563	2829.44
670.754	2886.78
670.945	2870.4
671.136	2866.3
671.327	2774.14
671.518	2819.2
671.709	2858.11
671.9	2823.3
672.091	2786.43
672.282	2778.24
672.473	2819.2
672.664	2720.9
672.855	2847.87
673.046	2747.52
673.237	2825.34
673.428	2684.03
673.619	2786.43
673.809	2630.79
674	2655.36
674.191	2557.06
674.382	2688.13
674.573	2731.14
674.764	2638.98
674.954	2765.95
675.145	2655.36
675.336	2610.31
675.527	2602.11
675.717	2616.45
675.908	2563.2
676.099	2585.73
676.289	2503.81
676.48	2595.97
676.671	2550.92
676.861	2589.83
677.052	2505.86
677.243	2446.47
677.433	2516.1
677.624	2550.92
677.814	2479.24
678.005	2628.74
678.195	2458.76
678.386	2487.43
678.576	2495.62
678.767	2448.52
678.957	2514.05
679.148	2469
679.338	2516.1
679.529	2477.19
679.719	2419.85
679.909	2475.14
680.1	2442.37
680.29	2454.66
680.481	2434.18
680.671	2464.9
680.861	2374.79
681.052	2413.7
681.242	2382.98
681.432	2276.49
681.622	2344.07
681.813	2454.66
682.003	2374.79
682.193	2348.17
682.383	2366.6
682.573	2235.53
682.764	2268.3
682.954	2239.62
683.144	2270.34
683.334	2301.06
683.524	2356.36
683.714	2313.35
683.904	2333.83
684.094	2366.6
684.284	2223.24
684.474	2299.02
684.664	2350.21
684.854	2327.69
685.044	2292.87
685.234	2286.73
685.424	2288.78
685.614	2305.16
685.804	2284.68
685.994	2387.08
686.184	2258.06
686.374	2213
686.564	2256.01
686.753	2200.71
686.943	2217.1
687.133	2100.36
687.323	2206.86
687.513	2157.71
687.702	2196.62
687.892	2153.61
688.082	2086.03
688.272	2135.18
688.461	2063.5
688.651	2206.86
688.841	2126.99
689.03	2145.42
689.22	2086.03
689.41	1977.48
689.599	2030.73
689.789	2043.02
689.979	2083.98
690.168	2077.83
690.358	1973.39
690.547	1909.9
690.737	2053.26
690.926	2010.25
691.116	2032.78
691.305	1911.95
691.495	2016.4
691.684	1977.48
691.874	2043.02
692.063	1914
692.252	1881.23
692.442	1893.52
692.631	1928.33
692.82	1928.33
693.01	1832.08
693.199	1870.99
693.388	1883.28
693.578	1827.98
693.767	1852.56
693.956	1891.47
694.146	1852.56
694.335	1856.65
694.524	1905.81
694.713	1846.41
694.902	1920.14
695.092	1817.74
695.281	1729.68
695.47	1694.86
695.659	1789.07
695.848	1766.54
696.037	1852.56
696.226	1813.65
696.415	1957
696.604	1690.77
696.793	1881.23
696.982	1674.39
697.171	1817.74
697.36	1793.17
697.549	1801.36
697.738	1819.79
697.927	1834.13
698.116	1770.64
698.305	1733.78
698.494	1768.59
698.683	1758.35
698.872	1780.88
699.061	1756.3
699.25	1694.86
699.438	1782.93
699.627	1723.54
699.816	1754.26
700.005	1768.59
700.193	1733.78
700.382	1735.82
700.571	1707.15
700.76	1744.02
700.948	1764.5
701.137	1799.31
701.326	1776.78
701.514	1701.01
701.703	1735.82
701.892	1805.46
702.08	1805.46
702.269	1803.41
702.457	1707.15
702.646	1782.93
702.834	1819.79
703.023	1717.39
703.212	1850.51
703.4	1803.41
703.589	1684.62
703.777	1760.4
703.965	1707.15
704.154	1803.41
704.342	1819.79
704.531	1862.8
704.719	1686.67
704.907	1787.02
705.096	1645.71
705.284	1735.82
705.472	1760.4
705.661	1688.72
705.849	1789.07
706.037	1813.65
706.226	1774.74
706.414	1852.56
706.602	1721.49
706.79	1727.63
706.979	1805.46
707.167	1762.45
707.355	1725.58
707.543	1737.87
707.731	1772.69
707.919	1803.41
708.107	1715.34
708.296	1748.11
708.484	1737.87
708.672	1784.98
708.86	1715.34
709.048	1752.21
709.236	1766.54
709.424	1836.17
709.612	1746.06
709.8	1662.1
709.988	1870.99
710.176	1754.26
710.364	1703.06
710.551	1787.02
710.739	1684.62
710.927	1770.64
711.115	1870.99
711.303	1899.66
711.491	1762.45
711.679	1684.62
711.866	1651.86
712.054	1717.39
712.242	1698.96
712.43	1799.31
712.617	1737.87
712.805	1752.21
712.993	1789.07
713.181	1713.3
713.368	1815.69
713.556	1733.78
713.744	1727.63
713.931	1795.22
714.119	1827.98
714.306	1746.06
714.494	1750.16
714.682	1748.11
714.869	1797.26
715.057	1758.35
715.244	1784.98
715.432	1791.12
715.619	1766.54
715.807	1711.25
715.994	1766.54
716.182	1729.68
716.369	1891.47
716.556	1868.94
716.744	1787.02
716.931	1807.5
717.119	1770.64
717.306	1868.94
717.493	1811.6
717.681	1797.26
717.868	1739.92
718.055	1803.41
718.242	1787.02
718.43	1815.69
718.617	1780.88
718.804	1866.89
718.991	1770.64
719.179	1748.11
719.366	1809.55
719.553	1655.95
719.74	1746.06
719.927	1875.09
720.114	1705.1
720.301	1701.01
720.488	1768.59
720.676	1676.43
720.863	1838.22
721.05	1766.54
721.237	1823.89
721.424	1784.98
721.611	1776.78
721.798	1698.96
721.985	1807.5
722.172	1739.92
722.358	1627.28
722.545	1764.5
722.732	1741.97
722.919	1805.46
723.106	1746.06
723.293	1762.45
723.48	1784.98
723.667	1737.87
723.853	1733.78
724.04	1789.07
724.227	1698.96
724.414	1805.46
724.6	1778.83
724.787	1746.06
724.974	1883.28
725.161	1778.83
725.347	1725.58
725.534	1756.3
725.72	1811.6
725.907	1793.17
726.094	1606.8
726.28	1791.12
726.467	1750.16
726.653	1780.88
726.84	1719.44
727.027	1813.65
727.213	1586.32
727.4	1815.69
727.586	1766.54
727.773	1696.91
727.959	1717.39
728.145	1713.3
728.332	1744.02
728.518	1666.19
728.705	1715.34
728.891	1600.66
729.077	1856.65
729.264	1660.05
729.45	1678.48
729.636	1782.93
729.823	1696.91
730.009	1787.02
730.195	1744.02
730.382	1819.79
730.568	1701.01
730.754	1727.63
730.94	1735.82
731.126	1729.68
731.313	1819.79
731.499	1791.12
731.685	1797.26
731.871	1711.25
732.057	1729.68
732.243	1741.97
732.429	1766.54
732.615	1643.67
732.801	1705.1
732.987	1762.45
733.173	1678.48
733.359	1617.04
733.545	1639.57
733.731	1672.34
733.917	1692.82
734.103	1598.61
734.289	1760.4
734.475	1606.8
734.661	1787.02
734.847	1701.01
735.033	1600.66
735.219	1727.63
735.404	1664.15
735.59	1741.97
735.776	1635.47
735.962	1619.09
736.148	1664.15
736.333	1651.86
736.519	1608.85
736.705	1598.61
736.89	1614.99
737.076	1723.54
737.262	1658
737.447	1668.24
737.633	1606.8
737.819	1680.53
738.004	1594.51
738.19	1576.08
738.375	1535.12
738.561	1791.12
738.747	1688.72
738.932	1520.79
739.118	1649.81
739.303	1651.86
739.489	1619.09
739.674	1627.28
739.859	1561.75
740.045	1582.23
740.23	1520.79
740.416	1475.73
740.601	1660.05
740.786	1453.2
740.972	1512.6
741.157	1469.59
741.342	1473.68
741.528	1465.49
741.713	1541.27
741.898	1490.07
742.084	1551.51
742.269	1610.9
742.454	1514.64
742.639	1576.08
742.824	1590.42
743.01	1508.5
743.195	1512.6
743.38	1500.31
743.565	1571.99
743.75	1541.27
743.935	1426.58
744.12	1422.48
744.305	1465.49
744.49	1432.72
744.675	1453.2
744.86	1408.15
745.045	1483.92
745.23	1424.53
745.415	1379.48
745.6	1488.02
745.785	1389.72
745.97	1377.43
746.155	1426.58
746.34	1324.18
746.525	1399.96
746.71	1373.33
746.895	1381.53
747.079	1297.56
747.264	1322.13
747.449	1365.14
747.634	1293.46
747.819	1447.06
748.003	1256.6
748.188	1332.37
748.373	1277.08
748.557	1215.64
748.742	1279.13
748.927	1293.46
749.111	1318.04
749.296	1240.22
749.481	1180.82
749.665	1152.15
749.85	1107.1
750.034	1180.82
750.219	1217.69
750.404	1117.34
750.588	1279.13
750.773	1211.54
750.957	1207.45
751.141	1197.21
751.326	1205.4
751.51	1146.01
751.695	1057.95
751.879	1268.89
752.064	1160.34
752.248	1156.25
752.432	1135.77
752.617	1062.04
752.801	1115.29
752.985	1135.77
753.17	1070.23
753.354	1129.63
753.538	1090.71
753.722	1123.48
753.907	1006.75
754.091	1006.75
754.275	1074.33
754.459	984.22
754.643	1025.18
754.828	1053.85
755.012	1027.23
755.196	951.45
755.38	941.21
755.564	965.79
755.748	992.41
755.932	867.49
756.116	973.98
756.3	949.4
756.484	908.44
756.668	873.63
756.852	912.54
757.036	890.01
757.22	871.58
757.404	865.44
757.588	912.54
757.772	910.49
757.956	869.53
758.14	865.44
758.323	806.05
758.507	920.73
758.691	926.88
758.875	916.64
759.059	939.16
759.242	922.78
759.426	826.53
759.61	754.85
759.794	818.33
759.977	705.7
760.161	914.59
760.345	904.35
760.528	769.18
760.712	797.85
760.895	722.08
761.079	799.9
761.263	814.24
761.446	728.22
761.63	824.48
761.813	769.18
761.997	781.47
762.18	771.23
762.364	693.41
762.547	754.85
762.731	707.74
762.914	750.75
763.098	738.46
763.281	828.57
763.464	816.29
763.648	754.85
763.831	785.57
764.015	715.94
764.198	773.28
764.381	709.79
764.564	771.23
764.748	709.79
764.931	793.76
765.114	691.36
765.297	644.26
765.481	763.04
765.664	615.59
765.847	677.02
766.03	656.54
766.213	634.02
766.397	656.54
766.58	674.98
766.763	711.84
766.946	644.26
767.129	697.5
767.312	658.59
767.495	638.11
767.678	595.11
767.861	699.55
768.044	674.98
768.227	677.02
768.41	640.16
768.593	693.41
768.776	670.88
768.959	580.77
769.142	607.39
769.324	660.64
769.507	570.53
769.69	658.59
769.873	670.88
770.056	646.3
770.239	543.91
770.421	625.83
770.604	582.82
770.787	660.64
770.97	656.54
771.152	605.35
771.335	586.91
771.518	543.91
771.7	539.81
771.883	623.78
772.066	533.67
772.248	515.23
772.431	580.77
772.613	562.34
772.796	570.53
772.978	513.19
773.161	572.58
773.343	541.86
773.526	552.1
773.708	527.52
773.891	574.63
774.073	562.34
774.256	476.32
774.438	474.28
774.621	562.34
774.803	521.38
774.985	509.09
775.168	504.99
775.35	525.47
775.532	574.63
775.715	509.09
775.897	533.67
776.079	437.41
776.261	478.37
776.444	496.8
776.626	490.66
776.808	541.86
776.99	517.28
777.173	453.8
777.355	472.23
777.537	431.27
777.719	461.99
777.901	492.71
778.083	490.66
778.265	427.17
778.447	355.49
778.629	445.6
778.811	412.84
778.993	378.02
779.175	404.64
779.357	396.45
779.539	396.45
779.721	427.17
779.903	398.5
780.085	459.94
780.267	476.32
780.449	345.25
780.631	369.83
780.812	408.74
780.994	406.69
781.176	375.97
781.358	435.36
781.54	400.55
781.721	388.26
781.903	414.88
782.085	363.69
782.267	404.64
782.448	347.3
782.63	349.35
782.812	343.21
782.993	402.6
783.175	347.3
783.357	423.08
783.538	328.87
783.72	349.35
783.901	277.67
784.083	339.11
784.264	341.16
784.446	300.2
784.627	357.54
784.809	396.45
784.99	328.87
785.172	410.79
785.353	335.01
785.535	240.81
785.716	294.05
785.897	251.05
786.079	294.05
786.26	318.63
786.441	287.91
786.623	320.68
786.804	332.97
786.985	199.85
787.167	263.33
787.348	287.91
787.529	296.1
787.71	304.29
787.891	277.67
788.073	263.33
788.254	249
788.435	298.15
788.616	234.66
788.797	224.42
788.978	197.8
789.159	257.19
789.34	292.01
789.522	230.57
789.703	228.52
789.884	287.91
790.065	326.82
790.246	283.81
790.427	208.04
790.607	285.86
790.788	271.53
790.969	251.05
791.15	210.09
791.331	175.27
791.512	210.09
791.693	193.7
791.874	197.8
792.054	214.18
792.235	287.91
792.416	126.12
792.597	242.85
792.778	220.33
792.958	210.09
793.139	134.31
793.32	263.33
793.5	169.13
793.681	267.43
793.862	167.08
794.042	267.43
794.223	191.66
794.404	244.9
794.584	234.66
794.765	167.08
794.945	230.57
795.126	208.04
795.306	265.38
795.487	154.79
795.667	162.98
795.848	167.08
796.028	181.42
796.209	152.74
796.389	150.7
796.57	261.29
796.75	144.55
796.93	228.52
797.111	109.74
797.291	181.42
797.471	236.71
797.652	244.9
797.832	148.65
798.012	222.38
798.192	228.52
798.373	138.41
798.553	214.18
798.733	226.47
798.913	115.88
799.093	187.56
799.274	132.26
799.454	185.51
799.634	146.6
799.814	191.66
799.994	103.59
800.174	179.37
800.354	212.14
800.534	115.88
800.714	136.36
800.894	165.03
801.074	109.74
801.254	124.07
801.434	130.22
801.614	132.26
801.794	119.98
801.974	433.32
802.154	109.74
802.334	124.07
802.514	183.46
802.693	146.6
802.873	150.7
803.053	134.31
803.233	111.78
803.413	185.51
803.592	126.12
803.772	109.74
803.952	152.74
804.131	146.6
804.311	136.36
804.491	134.31
804.67	93.35
804.85	171.18
805.03	113.83
805.209	148.65
805.389	105.64
805.568	152.74
805.748	122.02
805.928	105.64
806.107	144.55
806.287	109.74
806.466	203.94
806.646	119.98
806.825	197.8
807.004	158.89
807.184	101.55
807.363	103.59
807.543	117.93
807.722	122.02
807.901	87.21
808.081	175.27
808.26	89.26
808.439	167.08
808.619	66.73
808.798	122.02
808.977	62.63
809.156	111.78
809.336	146.6
809.515	111.78
809.694	148.65
809.873	19.63
810.052	93.35
810.231	60.59
810.411	93.35
810.59	181.42
810.769	109.74
810.948	173.22
811.127	122.02
811.306	132.26
811.485	185.51
811.664	109.74
811.843	111.78
812.022	95.4
812.201	99.5
812.38	83.11
812.559	99.5
812.737	175.27
812.916	79.02
813.095	33.96
813.274	105.64
813.453	56.49
813.632	152.74
813.811	68.78
813.989	58.54
814.168	122.02
814.347	72.87
814.526	113.83
814.704	124.07
814.883	58.54
815.062	25.77
815.24	83.11
815.419	89.26
815.598	169.13
815.776	27.82
815.955	107.69
816.133	23.72
816.312	76.97
816.49	40.11
816.669	99.5
816.847	89.26
817.026	56.49
817.204	38.06
817.383	91.31
817.561	54.44
817.74	97.45
817.918	79.02
818.097	81.07
818.275	64.68
818.453	126.12
818.632	146.6
818.81	89.26
818.988	27.82
819.167	87.21
819.345	74.92
819.523	74.92
819.701	74.92
819.879	134.31
820.058	79.02
820.236	70.83
820.414	-33.62
820.592	64.68
820.77	83.11
820.948	48.3
821.127	-21.33
821.305	93.35
821.483	83.11
821.661	54.44
821.839	115.88
822.017	81.07
822.195	58.54
822.373	83.11
822.551	36.01
822.729	111.78
822.907	66.73
823.085	89.26
823.262	19.63
823.44	19.63
823.618	15.53
823.796	29.87
823.974	74.92
824.152	150.7
824.329	60.59
824.507	117.93
824.685	70.83
824.863	76.97
825.04	66.73
825.218	101.55
825.396	68.78
825.574	46.25
825.751	-25.43
825.929	50.35
826.107	25.77
826.284	60.59
826.462	89.26
826.639	87.21
826.817	3.24
826.994	64.68
827.172	-13.14
827.349	85.16
827.527	87.21
827.704	97.45
827.882	109.74
828.059	-9.05
828.237	-39.76
828.414	50.35
828.591	58.54
828.769	-2.9
828.946	19.63
829.124	52.39
829.301	58.54
829.478	7.34
829.655	36.01
829.833	54.44
830.01	-21.33
830.187	66.73
830.364	-64.34
830.542	68.78
830.719	44.2
830.896	56.49
831.073	81.07
831.25	89.26
831.427	19.63
831.604	38.06
831.782	60.59
831.959	60.59
832.136	11.43
832.313	7.34
832.49	23.72
832.667	29.87
832.844	81.07
833.021	-4.95
833.198	42.15
833.374	-2.9
833.551	46.25
833.728	-11.09
833.905	46.25
834.082	-29.52
834.259	19.63
834.436	99.5
834.612	-7
834.789	79.02
834.966	42.15
835.143	52.39
835.319	1.19
835.496	27.82
835.673	-37.72
835.85	23.72
836.026	21.67
836.203	38.06
836.38	3.24
836.556	52.39
836.733	3.24
836.909	56.49
837.086	103.59
837.262	-25.43
837.439	-2.9
837.616	101.55
837.792	36.01
837.968	76.97
838.145	-15.19
838.321	132.26
838.498	-31.57
838.674	44.2
838.851	13.48
839.027	29.87
839.203	9.39
839.38	-2.9
839.556	81.07
839.732	23.72
839.909	42.15
840.085	66.73
840.261	5.29
840.437	-21.33
840.614	13.48
840.79	11.43
840.966	68.78
841.142	36.01
841.318	-11.09
841.494	81.07
841.671	79.02
841.847	33.96
842.023	-0.85
842.199	103.59
842.375	56.49
842.551	21.67
842.727	-54.1
842.903	60.59
843.079	42.15
843.255	44.2
843.431	15.53
843.607	11.43
843.783	-31.57
843.959	72.87
844.134	-37.72
844.31	29.87
844.486	72.87
844.662	-37.72
844.838	23.72
845.013	79.02
845.189	33.96
845.365	-15.19
845.541	66.73
845.716	27.82
845.892	74.92
846.068	50.35
846.244	11.43
846.419	-19.29
846.595	-43.86
846.77	11.43
846.946	13.48
847.122	72.87
847.297	15.53
847.473	132.26
847.648	64.68
847.824	66.73
847.999	36.01
848.175	-9.05
848.35	-33.62
848.526	1.19
848.701	44.2
848.876	54.44
849.052	17.58
849.227	31.91
849.403	11.43
849.578	-23.38
849.753	23.72
849.929	-2.9
850.104	11.43
850.279	-54.1
850.454	9.39
850.63	36.01
850.805	25.77
850.98	81.07
851.155	50.35
851.33	27.82
851.505	-11.09
851.681	33.96
851.856	-47.96
852.031	-50
852.206	13.48
852.381	7.34
852.556	79.02
852.731	-2.9
852.906	83.11
853.081	42.15
853.256	7.34
853.431	74.92
853.606	17.58
853.781	23.72
853.956	11.43
854.131	3.24
854.305	68.78
854.48	23.72
854.655	-66.39
854.83	-25.43
855.005	50.35
855.18	99.5
855.354	56.49
855.529	109.74
855.704	-31.57
855.879	23.72
856.053	23.72
856.228	-64.34
856.403	-50
856.577	50.35
856.752	-47.96
856.926	-11.09
857.101	25.77
857.276	-41.81
857.45	-39.76
857.625	-23.38
857.799	-0.85
857.974	-17.24
858.148	-39.76
858.323	-56.15
858.497	13.48
858.672	15.53
858.846	21.67
859.02	31.91
859.195	7.34
859.369	13.48
859.543	21.67
859.718	-72.53
859.892	-56.15
860.066	66.73
860.241	-21.33
860.415	-7
860.589	19.63
860.763	21.67
860.938	-4.95
861.112	-4.95
861.286	13.48
861.46	1.19
861.634	29.87
861.808	33.96
861.982	17.58
862.157	-29.52
862.331	-0.85
862.505	76.97
862.679	-76.63
862.853	33.96
863.027	-35.67
863.201	64.68
863.375	-13.14
863.549	-9.05
863.722	-7
863.896	-50
864.07	-39.76
864.244	-2.9
864.418	9.39
864.592	-27.48
864.766	15.53
864.939	-4.95
865.113	42.15
865.287	-60.24
865.461	-88.92
865.634	-39.76
865.808	-11.09
865.982	25.77
866.156	54.44
866.329	-31.57
866.503	-27.48
866.676	-29.52
866.85	-2.9
867.024	-23.38
867.197	-27.48
867.371	48.3
867.544	-7
867.718	54.44
867.891	-35.67
868.065	-25.43
868.238	19.63
868.412	17.58
868.585	-9.05
868.759	23.72
868.932	-19.29
869.105	-27.48
869.279	-7
869.452	-35.67
869.625	-7
869.799	-19.29
869.972	-19.29
870.145	-11.09
870.319	-7
870.492	-37.72
870.665	-19.29
870.838	-97.11
871.011	-101.2
871.185	29.87
871.358	9.39
871.531	13.48
871.704	-58.2
871.877	-11.09
872.05	-31.57
872.223	19.63
872.396	23.72
872.569	-4.95
872.742	-29.52
872.915	27.82
873.088	-19.29
873.261	-13.14
873.434	-27.48
873.607	60.59
873.78	-56.15
873.953	19.63
874.126	7.34
874.299	25.77
874.471	-23.38
874.644	-31.57
874.817	-13.14
874.99	44.2
875.163	9.39
875.335	-33.62
875.508	76.97
875.681	-9.05
875.853	31.91
876.026	-23.38
876.199	-2.9
876.371	50.35
876.544	-21.33
876.717	1.19
876.889	3.24
877.062	-0.85
877.234	-47.96
877.407	29.87
877.579	-4.95
877.752	-0.85
877.924	-90.96
878.097	3.24
878.269	-58.2
878.442	17.58
878.614	-45.91
878.786	7.34
878.959	-0.85
879.131	7.34
879.303	7.34
879.476	-15.19
879.648	15.53
879.82	3.24
879.993	-19.29
880.165	-74.58
880.337	27.82
880.509	1.19
880.681	-117.59
880.854	5.29
881.026	31.91
881.198	79.02
881.37	-64.34
881.542	-33.62
881.714	19.63
881.886	-2.9
882.058	-35.67
882.23	33.96
882.402	-21.33
882.574	19.63
882.746	56.49
882.918	1.19
883.09	7.34
883.262	-9.05
883.434	-17.24
883.606	15.53
883.778	60.59
883.95	-11.09
884.122	31.91
884.293	23.72
884.465	-23.38
884.637	60.59
884.809	-13.14
884.98	-21.33
885.152	-2.9
885.324	-13.14
885.496	27.82
885.667	25.77
885.839	-88.92
886.011	83.11
886.182	-13.14
886.354	13.48
886.525	-21.33
886.697	7.34
886.869	-35.67
887.04	17.58
887.212	-11.09
887.383	21.67
887.555	48.3
887.726	-25.43
887.897	64.68
888.069	-41.81
888.24	13.48
888.412	-39.76
888.583	-74.58
888.754	76.97
888.926	-25.43
889.097	11.43
889.268	-78.68
889.44	-0.85
889.611	-29.52
889.782	-47.96
889.953	-107.35
890.125	27.82
890.296	-9.05
890.467	-43.86
890.638	-29.52
890.809	-47.96
890.98	-21.33
891.151	-15.19
891.323	1.19
891.494	-43.86
891.665	-41.81
891.836	-9.05
892.007	-35.67
892.178	-27.48
892.349	-25.43
892.52	1.19
892.691	9.39
892.862	36.01
893.032	-2.9
893.203	23.72
893.374	83.11
893.545	-13.14
893.716	-50
893.887	33.96
894.057	-62.29
894.228	9.39
894.399	-103.25
894.57	15.53
894.74	-11.09
894.911	15.53
895.082	15.53
895.253	-39.76
895.423	-84.82
895.594	13.48
895.764	-21.33
895.935	60.59
896.106	15.53
896.276	-60.24
896.447	50.35
896.617	29.87
896.788	-37.72
896.958	-15.19
897.129	-119.64
897.299	-47.96
897.47	-97.11
897.64	-21.33
897.81	-11.09
897.981	27.82
898.151	-60.24
898.322	-9.05
898.492	-35.67
898.662	50.35
898.832	-0.85
899.003	-23.38
899.173	25.77
899.343	-33.62
899.513	-7
