Data from USB4F104151__3__12-00-18-355.txt Node

Date: Fri Mar 14 12:00:18 EDT 2025
User: louis
Spectrometer: USB4F10415
Trigger mode: 4
Integration Time (sec): 2.000000E-2
Scans to average: 1
Electric dark correction enabled: true
Nonlinearity correction enabled: false
Boxcar width: 0
XAxis mode: Wavelengths
Number of Pixels in Spectrum: 3648
>>>>>Begin Spectral Data<<<<<
178.204	-158.55
178.424	-158.55
178.644	-158.55
178.864	-64.34
179.084	-47.96
179.304	-52.05
179.524	23.72
179.744	19.63
179.964	-2.9
180.184	13.48
180.404	21.67
180.624	-9.05
180.844	-60.24
181.064	-17.24
181.283	-9.05
181.503	68.78
181.723	3.24
181.943	46.25
182.163	3.24
182.383	-2.9
182.602	72.87
182.822	119.98
183.042	42.15
183.262	38.06
183.482	58.54
183.701	-15.19
183.921	-9.05
184.141	-37.72
184.361	70.83
184.58	19.63
184.8	15.53
185.02	46.25
185.239	87.21
185.459	27.82
185.679	29.87
185.898	38.06
186.118	52.39
186.338	-131.92
186.557	60.59
186.777	-21.33
186.997	-0.85
187.216	-43.86
187.436	62.63
187.655	-4.95
187.875	1.19
188.095	-4.95
188.314	87.21
188.534	56.49
188.753	-78.68
188.973	-17.24
189.192	58.54
189.412	56.49
189.631	-13.14
189.851	27.82
190.07	13.48
190.29	25.77
190.509	-39.76
190.729	-17.24
190.948	46.25
191.168	119.98
191.387	27.82
191.607	15.53
191.826	74.92
192.045	-47.96
192.265	-2.9
192.484	13.48
192.704	-60.24
192.923	-70.48
193.142	144.55
193.362	25.77
193.581	-0.85
193.8	21.67
194.02	-25.43
194.239	21.67
194.458	11.43
194.678	19.63
194.897	38.06
195.116	52.39
195.335	29.87
195.555	50.35
195.774	76.97
195.993	66.73
196.212	40.11
196.432	13.48
196.651	13.48
196.87	-17.24
197.089	83.11
197.308	23.72
197.528	70.83
197.747	-39.76
197.966	-2.9
198.185	60.59
198.404	46.25
198.623	38.06
198.842	46.25
199.062	33.96
199.281	93.35
199.5	-70.48
199.719	7.34
199.938	-29.52
200.157	25.77
200.376	13.48
200.595	56.49
200.814	7.34
201.033	7.34
201.252	95.4
201.471	52.39
201.69	64.68
201.909	11.43
202.128	-19.29
202.347	-0.85
202.566	-35.67
202.785	38.06
203.004	11.43
203.223	144.55
203.442	-11.09
203.661	40.11
203.879	19.63
204.098	48.3
204.317	17.58
204.536	81.07
204.755	-0.85
204.974	5.29
205.193	-7
205.411	66.73
205.63	9.39
205.849	-31.57
206.068	-27.48
206.287	-45.91
206.505	-4.95
206.724	-0.85
206.943	56.49
207.162	36.01
207.381	17.58
207.599	25.77
207.818	23.72
208.037	38.06
208.255	-52.05
208.474	3.24
208.693	81.07
208.911	31.91
209.13	60.59
209.349	40.11
209.567	-11.09
209.786	83.11
210.005	68.78
210.223	-21.33
210.442	-19.29
210.661	58.54
210.879	-4.95
211.098	3.24
211.316	46.25
211.535	58.54
211.753	38.06
211.972	5.29
212.191	17.58
212.409	17.58
212.628	38.06
212.846	-54.1
213.065	54.44
213.283	36.01
213.502	29.87
213.72	-25.43
213.938	-0.85
214.157	25.77
214.375	38.06
214.594	1.19
214.812	7.34
215.031	83.11
215.249	-0.85
215.467	-17.24
215.686	11.43
215.904	126.12
216.122	40.11
216.341	3.24
216.559	29.87
216.778	105.64
216.996	-7
217.214	50.35
217.432	44.2
217.651	23.72
217.869	-29.52
218.087	19.63
218.306	83.11
218.524	103.59
218.742	33.96
218.96	48.3
219.179	107.69
219.397	7.34
219.615	95.4
219.833	25.77
220.051	-19.29
220.27	7.34
220.488	-15.19
220.706	40.11
220.924	-2.9
221.142	-43.86
221.36	1.19
221.578	97.45
221.796	15.53
222.015	31.91
222.233	-11.09
222.451	-0.85
222.669	5.29
222.887	107.69
223.105	-35.67
223.323	11.43
223.541	7.34
223.759	-29.52
223.977	19.63
224.195	40.11
224.413	31.91
224.631	62.63
224.849	36.01
225.067	50.35
225.285	46.25
225.503	64.68
225.721	5.29
225.939	44.2
226.157	25.77
226.375	91.31
226.592	-47.96
226.81	-15.19
227.028	124.07
227.246	46.25
227.464	56.49
227.682	44.2
227.9	-4.95
228.117	-37.72
228.335	85.16
228.553	36.01
228.771	60.59
228.989	-2.9
229.206	-17.24
229.424	11.43
229.642	36.01
229.86	21.67
230.077	7.34
230.295	83.11
230.513	64.68
230.731	11.43
230.948	56.49
231.166	-2.9
231.384	-35.67
231.601	25.77
231.819	9.39
232.037	62.63
232.254	7.34
232.472	-11.09
232.689	56.49
232.907	44.2
233.125	-0.85
233.342	87.21
233.56	60.59
233.777	91.31
233.995	-2.9
234.213	40.11
234.43	17.58
234.648	-27.48
234.865	-4.95
235.083	46.25
235.3	7.34
235.518	27.82
235.735	79.02
235.953	-4.95
236.17	-11.09
236.388	-39.76
236.605	1.19
236.822	64.68
237.04	93.35
237.257	13.48
237.475	-23.38
237.692	23.72
237.909	27.82
238.127	54.44
238.344	95.4
238.562	83.11
238.779	11.43
238.996	27.82
239.214	31.91
239.431	105.64
239.648	23.72
239.865	19.63
240.083	27.82
240.3	29.87
240.517	1.19
240.735	72.87
240.952	36.01
241.169	52.39
241.386	27.82
241.603	54.44
241.821	9.39
242.038	-17.24
242.255	-35.67
242.472	-31.57
242.689	-11.09
242.907	-4.95
243.124	-2.9
243.341	3.24
243.558	36.01
243.775	36.01
243.992	-41.81
244.209	-60.24
244.426	52.39
244.643	23.72
244.86	50.35
245.078	81.07
245.295	62.63
245.512	36.01
245.729	-9.05
245.946	-13.14
246.163	40.11
246.38	126.12
246.597	15.53
246.814	52.39
247.031	9.39
247.248	25.77
247.464	9.39
247.681	85.16
247.898	11.43
248.115	7.34
248.332	3.24
248.549	64.68
248.766	81.07
248.983	81.07
249.2	42.15
249.417	27.82
249.633	62.63
249.85	29.87
250.067	56.49
250.284	50.35
250.501	64.68
250.717	70.83
250.934	-47.96
251.151	62.63
251.368	29.87
251.585	29.87
251.801	13.48
252.018	-33.62
252.235	38.06
252.451	3.24
252.668	-45.91
252.885	85.16
253.102	15.53
253.318	7.34
253.535	27.82
253.752	50.35
253.968	-17.24
254.185	-17.24
254.401	3.24
254.618	-33.62
254.835	-13.14
255.051	23.72
255.268	15.53
255.484	46.25
255.701	21.67
255.917	70.83
256.134	17.58
256.351	19.63
256.567	19.63
256.784	5.29
257	7.34
257.217	46.25
257.433	3.24
257.65	17.58
257.866	1.19
258.082	70.83
258.299	-31.57
258.515	-39.76
258.732	52.39
258.948	-45.91
259.165	68.78
259.381	3.24
259.597	58.54
259.814	-2.9
260.03	50.35
260.246	31.91
260.463	60.59
260.679	13.48
260.895	21.67
261.112	48.3
261.328	21.67
261.544	-15.19
261.761	156.84
261.977	-27.48
262.193	-37.72
262.409	72.87
262.626	36.01
262.842	76.97
263.058	7.34
263.274	31.91
263.49	19.63
263.707	13.48
263.923	-7
264.139	81.07
264.355	9.39
264.571	68.78
264.787	1.19
265.004	-0.85
265.22	-35.67
265.436	17.58
265.652	-17.24
265.868	54.44
266.084	-43.86
266.3	3.24
266.516	-33.62
266.732	-0.85
266.948	62.63
267.164	-23.38
267.38	60.59
267.596	-21.33
267.812	29.87
268.028	38.06
268.244	64.68
268.46	68.78
268.676	3.24
268.892	-25.43
269.108	23.72
269.324	15.53
269.54	-13.14
269.756	27.82
269.972	-7
270.188	17.58
270.403	-21.33
270.619	29.87
270.835	1.19
271.051	89.26
271.267	-15.19
271.483	46.25
271.698	68.78
271.914	33.96
272.13	-0.85
272.346	52.39
272.562	11.43
272.777	87.21
272.993	11.43
273.209	3.24
273.425	-41.81
273.64	-43.86
273.856	62.63
274.072	13.48
274.287	74.92
274.503	15.53
274.719	-0.85
274.934	13.48
275.15	7.34
275.366	25.77
275.581	44.2
275.797	87.21
276.012	-37.72
276.228	40.11
276.444	9.39
276.659	62.63
276.875	29.87
277.09	56.49
277.306	29.87
277.521	48.3
277.737	-27.48
277.952	27.82
278.168	25.77
278.383	11.43
278.599	31.91
278.814	60.59
279.03	-35.67
279.245	3.24
279.461	-17.24
279.676	60.59
279.892	-15.19
280.107	66.73
280.322	-4.95
280.538	31.91
280.753	-7
280.969	95.4
281.184	48.3
281.399	117.93
281.615	58.54
281.83	-82.77
282.045	-35.67
282.26	46.25
282.476	58.54
282.691	3.24
282.906	29.87
283.122	-0.85
283.337	5.29
283.552	97.45
283.767	-29.52
283.983	66.73
284.198	7.34
284.413	25.77
284.628	-17.24
284.843	-0.85
285.058	54.44
285.274	-11.09
285.489	13.48
285.704	126.12
285.919	13.48
286.134	-19.29
286.349	66.73
286.564	23.72
286.779	52.39
286.995	9.39
287.21	-9.05
287.425	27.82
287.64	40.11
287.855	27.82
288.07	-33.62
288.285	-4.95
288.5	27.82
288.715	29.87
288.93	46.25
289.145	-25.43
289.36	38.06
289.575	42.15
289.79	105.64
290.004	33.96
290.219	-13.14
290.434	-2.9
290.649	15.53
290.864	40.11
291.079	-43.86
291.294	-15.19
291.509	13.48
291.724	-13.14
291.938	113.83
292.153	29.87
292.368	-19.29
292.583	5.29
292.798	36.01
293.012	25.77
293.227	19.63
293.442	27.82
293.657	66.73
293.871	50.35
294.086	25.77
294.301	134.31
294.516	99.5
294.73	3.24
294.945	25.77
295.16	38.06
295.374	72.87
295.589	56.49
295.804	-17.24
296.018	62.63
296.233	95.4
296.447	36.01
296.662	29.87
296.877	36.01
297.091	9.39
297.306	31.91
297.52	29.87
297.735	46.25
297.949	62.63
298.164	101.55
298.378	-21.33
298.593	46.25
298.807	74.92
299.022	-2.9
299.236	50.35
299.451	-2.9
299.665	-11.09
299.88	5.29
300.094	25.77
300.309	-29.52
300.523	62.63
300.737	36.01
300.952	11.43
301.166	58.54
301.381	40.11
301.595	50.35
301.809	21.67
302.024	-21.33
302.238	64.68
302.452	56.49
302.667	25.77
302.881	115.88
303.095	19.63
303.309	-15.19
303.524	-52.05
303.738	33.96
303.952	7.34
304.166	58.54
304.381	-17.24
304.595	1.19
304.809	15.53
305.023	11.43
305.237	-45.91
305.452	-31.57
305.666	36.01
305.88	13.48
306.094	64.68
306.308	-7
306.522	33.96
306.736	17.58
306.95	48.3
307.164	-29.52
307.379	74.92
307.593	-7
307.807	42.15
308.021	48.3
308.235	19.63
308.449	40.11
308.663	17.58
308.877	52.39
309.091	25.77
309.305	-9.05
309.519	-47.96
309.733	105.64
309.947	-4.95
310.161	27.82
310.374	5.29
310.588	27.82
310.802	-47.96
311.016	11.43
311.23	64.68
311.444	-7
311.658	93.35
311.872	74.92
312.085	89.26
312.299	29.87
312.513	52.39
312.727	23.72
312.941	-50
313.154	97.45
313.368	19.63
313.582	72.87
313.796	62.63
314.009	-0.85
314.223	76.97
314.437	70.83
314.651	-7
314.864	93.35
315.078	-47.96
315.292	-43.86
315.505	-25.43
315.719	3.24
315.933	29.87
316.146	13.48
316.36	27.82
316.573	56.49
316.787	81.07
317.001	76.97
317.214	31.91
317.428	115.88
317.641	38.06
317.855	-2.9
318.068	48.3
318.282	-15.19
318.495	44.2
318.709	68.78
318.922	54.44
319.136	52.39
319.349	-19.29
319.563	62.63
319.776	54.44
319.99	-7
320.203	40.11
320.417	46.25
320.63	-23.38
320.843	-35.67
321.057	42.15
321.27	36.01
321.483	-45.91
321.697	-7
321.91	11.43
322.124	-4.95
322.337	-43.86
322.55	38.06
322.763	-4.95
322.977	-41.81
323.19	74.92
323.403	-9.05
323.617	50.35
323.83	79.02
324.043	38.06
324.256	13.48
324.469	56.49
324.683	-35.67
324.896	107.69
325.109	-9.05
325.322	48.3
325.535	62.63
325.748	42.15
325.962	44.2
326.175	46.25
326.388	19.63
326.601	38.06
326.814	-11.09
327.027	76.97
327.24	-25.43
327.453	11.43
327.666	83.11
327.879	58.54
328.092	25.77
328.305	56.49
328.518	62.63
328.731	95.4
328.944	-31.57
329.157	-21.33
329.37	60.59
329.583	52.39
329.796	58.54
330.009	-19.29
330.222	115.88
330.435	83.11
330.648	15.53
330.861	95.4
331.073	17.58
331.286	-4.95
331.499	52.39
331.712	-45.91
331.925	15.53
332.138	83.11
332.35	21.67
332.563	46.25
332.776	48.3
332.989	21.67
333.202	40.11
333.414	17.58
333.627	13.48
333.84	25.77
334.053	11.43
334.265	21.67
334.478	-56.15
334.691	66.73
334.903	40.11
335.116	19.63
335.329	-33.62
335.541	50.35
335.754	52.39
335.966	25.77
336.179	-2.9
336.392	36.01
336.604	-0.85
336.817	13.48
337.029	38.06
337.242	46.25
337.454	7.34
337.667	-9.05
337.88	81.07
338.092	-4.95
338.305	5.29
338.517	-39.76
338.729	89.26
338.942	60.59
339.154	109.74
339.367	-19.29
339.579	56.49
339.792	-17.24
340.004	5.29
340.217	3.24
340.429	76.97
340.641	1.19
340.854	-43.86
341.066	-11.09
341.278	50.35
341.491	79.02
341.703	-23.38
341.915	23.72
342.128	97.45
342.34	27.82
342.552	33.96
342.764	-7
342.977	15.53
343.189	15.53
343.401	40.11
343.613	52.39
343.826	48.3
344.038	17.58
344.25	68.78
344.462	-35.67
344.674	31.91
344.886	-60.24
345.099	27.82
345.311	87.21
345.523	46.25
345.735	-13.14
345.947	95.4
346.159	-21.33
346.371	79.02
346.583	-2.9
346.795	42.15
347.007	91.31
347.219	25.77
347.431	60.59
347.643	74.92
347.855	1.19
348.067	44.2
348.279	56.49
348.491	56.49
348.703	-17.24
348.915	-7
349.127	50.35
349.339	21.67
349.551	70.83
349.763	17.58
349.975	-58.2
350.187	113.83
350.399	56.49
350.61	40.11
350.822	-39.76
351.034	48.3
351.246	25.77
351.458	23.72
351.669	54.44
351.881	101.55
352.093	58.54
352.305	138.41
352.517	11.43
352.728	70.83
352.94	-17.24
353.152	54.44
353.363	76.97
353.575	-0.85
353.787	119.98
353.999	27.82
354.21	95.4
354.422	-39.76
354.633	44.2
354.845	40.11
355.057	-31.57
355.268	21.67
355.48	-7
355.692	50.35
355.903	9.39
356.115	44.2
356.326	-15.19
356.538	103.59
356.749	72.87
356.961	50.35
357.172	-15.19
357.384	-35.67
357.595	91.31
357.807	13.48
358.018	7.34
358.23	25.77
358.441	36.01
358.653	-19.29
358.864	-15.19
359.075	38.06
359.287	60.59
359.498	36.01
359.709	46.25
359.921	42.15
360.132	56.49
360.344	58.54
360.555	9.39
360.766	46.25
360.977	44.2
361.189	46.25
361.4	-2.9
361.611	3.24
361.823	-2.9
362.034	70.83
362.245	-29.52
362.456	48.3
362.667	40.11
362.879	11.43
363.09	23.72
363.301	-11.09
363.512	109.74
363.723	-9.05
363.935	3.24
364.146	56.49
364.357	27.82
364.568	-17.24
364.779	70.83
364.99	44.2
365.201	33.96
365.412	48.3
365.623	48.3
365.834	25.77
366.045	44.2
366.256	79.02
366.467	36.01
366.678	9.39
366.889	-7
367.1	-4.95
367.311	58.54
367.522	11.43
367.733	36.01
367.944	25.77
368.155	58.54
368.366	72.87
368.577	40.11
368.788	93.35
368.999	54.44
369.209	42.15
369.42	46.25
369.631	76.97
369.842	56.49
370.053	11.43
370.264	23.72
370.474	52.39
370.685	-21.33
370.896	-4.95
371.107	46.25
371.317	54.44
371.528	81.07
371.739	31.91
371.95	-0.85
372.16	54.44
372.371	56.49
372.582	9.39
372.792	-7
373.003	13.48
373.214	74.92
373.424	7.34
373.635	62.63
373.846	-13.14
374.056	42.15
374.267	38.06
374.477	11.43
374.688	60.59
374.898	89.26
375.109	17.58
375.319	70.83
375.53	72.87
375.74	89.26
375.951	21.67
376.161	97.45
376.372	-19.29
376.582	31.91
376.793	-11.09
377.003	13.48
377.214	40.11
377.424	36.01
377.635	5.29
377.845	-43.86
378.055	83.11
378.266	60.59
378.476	46.25
378.686	54.44
378.897	64.68
379.107	52.39
379.317	46.25
379.528	13.48
379.738	58.54
379.948	-21.33
380.158	52.39
380.369	36.01
380.579	19.63
380.789	64.68
380.999	148.65
381.21	19.63
381.42	101.55
381.63	72.87
381.84	83.11
382.05	72.87
382.261	38.06
382.471	79.02
382.681	7.34
382.891	76.97
383.101	87.21
383.311	15.53
383.521	50.35
383.731	48.3
383.941	46.25
384.151	48.3
384.361	7.34
384.571	25.77
384.781	3.24
384.991	72.87
385.201	54.44
385.411	46.25
385.621	40.11
385.831	54.44
386.041	52.39
386.251	60.59
386.461	66.73
386.671	-2.9
386.881	-11.09
387.091	31.91
387.301	97.45
387.511	-13.14
387.72	33.96
387.93	72.87
388.14	48.3
388.35	25.77
388.56	-4.95
388.769	-11.09
388.979	21.67
389.189	-4.95
389.399	81.07
389.609	9.39
389.818	25.77
390.028	7.34
390.238	19.63
390.447	72.87
390.657	81.07
390.867	-7
391.076	40.11
391.286	21.67
391.496	36.01
391.705	11.43
391.915	62.63
392.125	58.54
392.334	15.53
392.544	81.07
392.753	17.58
392.963	23.72
393.172	27.82
393.382	60.59
393.591	64.68
393.801	31.91
394.01	60.59
394.22	101.55
394.429	11.43
394.639	89.26
394.848	81.07
395.058	23.72
395.267	89.26
395.477	154.79
395.686	115.88
395.895	70.83
396.105	60.59
396.314	42.15
396.524	19.63
396.733	21.67
396.942	56.49
397.152	79.02
397.361	105.64
397.57	72.87
397.78	105.64
397.989	60.59
398.198	83.11
398.407	50.35
398.617	17.58
398.826	48.3
399.035	99.5
399.244	54.44
399.453	15.53
399.663	27.82
399.872	70.83
400.081	33.96
400.29	107.69
400.499	97.45
400.708	42.15
400.917	42.15
401.127	138.41
401.336	27.82
401.545	156.84
401.754	62.63
401.963	146.6
402.172	40.11
402.381	48.3
402.59	48.3
402.799	64.68
403.008	72.87
403.217	64.68
403.426	113.83
403.635	40.11
403.844	60.59
404.053	144.55
404.262	5.29
404.471	142.5
404.68	95.4
404.888	126.12
405.097	3.24
405.306	62.63
405.515	130.22
405.724	103.59
405.933	93.35
406.142	97.45
406.35	142.5
406.559	79.02
406.768	150.7
406.977	150.7
407.185	117.93
407.394	115.88
407.603	91.31
407.812	230.57
408.02	122.02
408.229	140.46
408.438	144.55
408.646	220.33
408.855	154.79
409.064	160.94
409.272	183.46
409.481	179.37
409.69	81.07
409.898	113.83
410.107	109.74
410.315	203.94
410.524	169.13
410.733	294.05
410.941	138.41
411.15	208.04
411.358	132.26
411.567	302.25
411.775	222.38
411.984	220.33
412.192	249
412.401	281.77
412.609	324.77
412.818	232.62
413.026	249
413.234	330.92
413.443	298.15
413.651	341.16
413.86	318.63
414.068	261.29
414.276	396.45
414.485	316.58
414.693	310.44
414.901	410.79
415.11	390.31
415.318	371.88
415.526	441.51
415.734	453.8
415.943	502.95
416.151	484.52
416.359	445.6
416.567	527.52
416.776	556.19
416.984	625.83
417.192	621.73
417.4	568.48
417.608	576.67
417.817	621.73
418.025	636.06
418.233	679.07
418.441	668.83
418.649	695.46
418.857	754.85
419.065	789.66
419.273	902.3
419.481	715.94
419.689	799.9
419.897	912.54
420.105	937.12
420.313	928.92
420.521	969.88
420.729	984.22
420.937	994.46
421.145	1080.47
421.353	1057.95
421.561	1080.47
421.769	1057.95
421.977	1340.57
422.185	1266.84
422.393	1287.32
422.601	1375.38
422.809	1428.63
423.017	1492.12
423.224	1463.44
423.432	1522.84
423.64	1528.98
423.848	1612.95
424.056	1498.26
424.263	1719.44
424.471	1649.81
424.679	1707.15
424.887	1838.22
425.094	1881.23
425.302	1819.79
425.51	1977.48
425.718	2079.88
425.925	2075.79
426.133	2133.13
426.341	2219.14
426.548	2337.93
426.756	2395.27
426.964	2417.8
427.171	2516.1
427.379	2569.35
427.586	2638.98
427.794	2737.28
428.001	2825.34
428.209	2968.7
428.417	2923.65
428.624	3101.82
428.832	3196.03
429.039	3032.19
429.247	3073.15
429.454	3353.72
429.662	3632.24
429.869	3374.2
430.076	3705.97
430.284	3470.45
430.491	3748.98
430.699	3834.99
430.906	3916.91
431.114	3988.59
431.321	4138.09
431.528	4004.97
431.736	4385.9
431.943	4693.09
432.15	4580.45
432.358	4609.12
432.565	4897.89
432.772	4764.77
432.979	5088.35
433.187	5092.44
433.394	5121.12
433.601	5467.22
433.808	5661.78
434.016	5405.78
434.223	5682.26
434.43	6095.95
434.637	5987.41
434.844	6300.75
435.052	6448.2
435.259	6419.53
435.466	6456.39
435.673	6536.26
435.88	6757.44
436.087	7142.46
436.294	7230.52
436.501	6982.72
436.708	7095.36
436.915	7384.12
437.122	7793.72
437.329	7693.37
437.537	8006.7
437.743	8166.45
437.95	8229.93
438.157	8516.65
438.364	8762.4
438.571	8557.61
438.778	8686.63
438.985	9606.17
439.192	9262.11
439.399	9571.35
439.606	9348.12
439.813	9937.94
440.02	10593.29
440.227	10286.09
440.433	10021.91
440.64	10347.53
440.847	10490.89
441.054	10650.63
441.261	11488.25
441.467	11242.5
441.674	11408.38
441.881	12129.27
442.088	11791.35
442.294	11809.78
442.501	12360.69
442.708	12266.48
442.914	12925.93
443.121	13519.84
443.328	13165.54
443.534	13851.61
443.741	13599.71
443.948	13265.89
444.154	14429.13
444.361	14259.15
444.568	14451.66
444.774	14349.26
444.981	14646.22
445.187	15195.07
445.394	15922.1
445.6	15573.95
445.807	17148.84
446.013	16348.08
446.22	16792.49
446.426	17245.09
446.633	17691.55
446.839	17918.87
447.046	17163.17
447.252	18174.87
447.459	18252.69
447.665	18211.73
447.871	18975.63
448.078	19760
448.284	18781.07
448.491	19504
448.697	20114.3
448.903	20894.57
449.11	20364.15
449.316	20065.14
449.522	20476.79
449.728	21080.94
449.935	21199.72
450.141	20972.39
450.347	21724
450.553	20857.71
450.76	21238.63
450.966	22018.91
451.172	21699.42
451.378	22573.91
451.584	21771.1
451.791	22145.88
451.997	22106.97
452.203	22664.02
452.409	22702.93
452.615	22604.63
452.821	21412.71
453.027	21418.85
453.233	22399.83
453.44	21769.05
453.646	21992.28
453.852	21726.05
454.058	22084.44
454.264	21506.91
454.47	21994.33
454.676	21388.13
454.882	22098.78
455.088	20276.09
455.294	20437.87
455.5	20818.8
455.705	20853.61
455.911	20061.05
456.117	19581.82
456.323	19272.58
456.529	18373.52
456.735	19114.89
456.941	18647.95
457.147	18338.71
457.352	17845.15
457.558	17550.24
457.764	17644.45
457.97	17372.07
458.176	16520.11
458.381	16995.24
458.587	16028.6
458.793	15864.76
458.999	15227.84
459.204	16257.97
459.41	15762.36
459.616	14844.87
459.821	14894.02
460.027	14693.32
460.233	14027.73
460.438	13489.12
460.644	13802.46
460.85	13011.94
461.055	13120.48
461.261	13067.24
461.466	11928.56
461.672	11631.61
461.878	12397.55
462.083	11707.38
462.289	11289.6
462.494	11115.52
462.7	11004.93
462.905	10296.33
463.111	10978.31
463.316	10783.75
463.522	10494.99
463.727	10929.16
463.932	10525.71
464.138	10591.24
464.343	10730.5
464.549	10322.96
464.754	10877.96
464.959	10654.73
465.165	10341.39
465.37	10056.72
465.575	9659.42
465.781	10275.85
465.986	10296.33
466.191	9817.11
466.397	9618.46
466.602	9344.03
466.807	9491.48
467.012	9561.11
467.218	9602.07
467.423	9454.62
467.628	9458.71
467.833	9712.66
468.038	9432.09
468.244	9280.54
468.449	9352.22
468.654	9243.68
468.859	9237.53
469.064	8940.58
469.269	8864.8
469.474	8985.63
469.679	9077.79
469.885	8594.47
470.09	8860.71
470.295	8807.46
470.5	8535.08
470.705	8717.35
470.91	8510.5
471.115	8238.12
471.32	8483.88
471.525	8588.33
471.73	8139.82
471.935	8379.43
472.139	7922.74
472.344	8008.75
472.549	8193.07
472.754	7914.55
472.959	7668.79
473.164	7300.16
473.369	7595.06
473.574	7664.69
473.778	7507
473.983	7574.58
474.188	7347.26
474.393	7058.49
474.598	7257.15
474.802	7232.57
475.007	7058.49
475.212	6915.14
475.417	6802.5
475.621	6945.86
475.826	6976.58
476.031	6708.29
476.235	6550.6
476.44	6939.71
476.645	6503.5
476.849	6507.59
477.054	6444.1
477.259	6372.43
477.463	6513.74
477.668	6222.92
477.872	6288.46
478.077	6151.24
478.282	6106.19
478.486	6173.77
478.691	5991.5
478.895	5874.77
479.1	5958.74
479.304	5903.44
479.509	5823.57
479.713	5966.93
479.918	5696.6
480.122	5778.51
480.326	5543
480.531	5637.2
480.735	5719.12
480.94	5667.92
481.144	5751.89
481.348	5446.74
481.553	5495.89
481.757	5395.54
481.961	5409.88
482.166	5489.75
482.37	5440.6
482.574	5502.04
482.778	5586.01
482.983	5590.1
483.187	5342.3
483.391	5692.5
483.595	5489.75
483.8	5356.63
484.004	5383.26
484.208	5536.85
484.412	5403.74
484.616	5676.12
484.821	5450.84
485.025	5422.17
485.229	5669.97
485.433	5375.06
485.637	5520.47
485.841	5534.81
486.045	5510.23
486.249	5436.5
486.453	5252.19
486.657	5565.53
486.861	5407.83
487.065	5481.56
487.269	5551.19
487.473	5405.78
487.677	5413.98
487.881	5553.24
488.085	5348.44
488.289	5557.33
488.493	5504.09
488.697	5524.57
488.901	5575.77
489.105	5565.53
489.309	5461.08
489.512	5626.96
489.716	5424.22
489.92	5592.15
490.124	5577.81
490.328	5676.12
490.531	5547.09
490.735	5571.67
490.939	5702.74
491.143	5586.01
491.346	5743.7
491.55	5641.3
491.754	5590.1
491.958	5708.88
492.161	5674.07
492.365	5692.5
492.569	5719.12
492.772	5913.68
492.976	5624.92
493.18	5846.1
493.383	5899.34
493.587	5905.49
493.79	6132.81
493.994	5829.71
494.197	6153.29
494.401	6089.81
494.605	5887.06
494.808	6325.32
495.012	6214.73
495.215	6245.45
495.419	6184.01
495.622	6280.27
495.825	6325.32
496.029	6341.71
496.232	6462.54
496.436	6272.07
496.639	6587.46
496.843	6460.49
497.046	6675.52
497.249	6720.58
497.453	6839.36
497.656	6908.99
497.859	6800.45
498.063	6972.48
498.266	7060.54
498.469	7042.11
498.673	7216.19
498.876	7140.41
499.079	7281.72
499.282	7294.01
499.485	7461.94
499.689	7431.23
499.892	7687.22
500.095	7556.15
500.298	7838.77
500.501	7724.08
500.705	7867.44
500.908	8137.77
501.111	8174.64
501.314	8213.55
501.517	8279.08
501.72	8410.15
501.923	8404.01
502.126	8713.25
502.329	8776.74
502.532	8645.67
502.735	8545.32
502.938	8885.28
503.141	9012.26
503.344	9026.59
503.547	9235.49
503.75	9210.91
503.953	9413.66
504.156	9430.04
504.359	9464.86
504.562	9352.22
504.765	9704.47
504.968	9876.5
505.17	10087.44
505.373	9890.84
505.576	10116.11
505.779	10314.77
505.982	10345.48
506.185	10431.5
506.387	10540.04
506.59	10617.86
506.793	11015.17
506.996	10812.42
507.198	11031.55
507.401	11148.29
507.604	11123.71
507.807	11160.58
508.009	11314.17
508.212	11781.11
508.415	11707.38
508.617	11572.22
508.82	11699.19
509.022	11899.89
509.225	12030.96
509.428	12299.25
509.63	12241.9
509.833	12469.23
510.035	12671.98
510.238	12557.29
510.44	12559.34
510.643	13038.56
510.845	12710.89
511.048	12911.59
511.25	13167.59
511.453	13231.07
511.655	13773.78
511.858	13450.21
512.06	13591.52
512.262	13855.7
512.465	13886.42
512.667	13761.5
512.87	14080.98
513.072	14177.23
513.274	14513.1
513.477	14547.92
513.679	14588.88
513.881	14697.42
514.084	14644.17
514.286	14928.84
514.488	15072.2
514.69	15367.1
514.893	15354.82
515.095	15465.41
515.297	15457.21
515.499	15770.55
515.701	15754.17
515.904	16012.21
516.106	15897.53
516.308	16155.57
516.51	16108.47
516.712	16620.46
516.914	16386.99
517.116	16739.24
517.318	16905.13
517.52	17071.01
517.722	16944.04
517.925	17015.72
518.127	17324.96
518.329	17441.7
518.531	17365.92
518.733	17781.66
518.935	17996.7
519.136	17861.53
519.338	17990.55
519.54	18078.61
519.742	18439.06
519.944	18330.51
520.146	18568.08
520.348	18942.86
520.55	18791.31
520.752	19284.87
520.954	18981.77
521.155	18932.62
521.357	19432.32
521.559	19536.77
521.761	19665.79
521.963	19460.99
522.164	19803
522.366	19794.81
522.568	19983.23
522.77	19854.2
522.971	20220.79
523.173	19950.46
523.375	20349.81
523.576	20145.02
523.778	20370.29
523.98	20718.45
524.181	20765.55
524.383	20816.75
524.584	20913
524.786	20775.79
524.988	21037.93
525.189	21295.97
525.391	21140.33
525.592	21519.2
525.794	21175.14
525.995	21269.35
526.197	21646.18
526.398	21443.43
526.6	21746.53
526.801	21670.75
527.003	22063.96
527.204	21656.42
527.406	21928.8
527.607	21977.95
527.808	22055.77
528.01	21689.18
528.211	21889.88
528.412	22397.78
528.614	22156.12
528.815	22438.74
529.016	22367.06
529.218	21934.94
529.419	22541.14
529.62	22598.48
529.822	22291.29
530.023	22424.4
530.224	22645.59
530.425	22395.73
530.626	22381.4
530.828	22254.42
531.029	22887.25
531.23	22664.02
531.431	22389.59
531.632	22690.64
531.833	22688.59
532.035	22573.91
532.236	22637.39
532.437	22827.85
532.638	22813.52
532.839	23014.22
533.04	22827.85
533.241	22362.97
533.442	22696.78
533.643	22649.68
533.844	22664.02
534.045	22879.05
534.246	22606.67
534.447	22956.88
534.648	22643.54
534.849	22694.74
535.05	22698.83
535.251	22813.52
535.451	22823.76
535.652	22844.24
535.853	22575.95
536.054	22680.4
536.255	22905.68
536.456	22563.67
536.657	22797.13
536.857	22668.11
537.058	22641.49
537.259	23001.93
537.46	22874.96
537.66	22471.51
537.861	22639.44
538.062	22506.32
538.263	22653.78
538.463	22725.46
538.664	22920.01
538.865	22776.66
539.065	22987.6
539.266	22627.15
539.466	22817.61
539.667	22328.15
539.868	22733.65
540.068	22719.31
540.269	22813.52
540.469	22836.05
540.67	22375.25
540.87	22448.98
541.071	22475.6
541.271	22485.84
541.472	22496.08
541.672	22289.24
541.873	22389.59
542.073	22401.88
542.274	22604.63
542.474	22666.06
542.675	22448.98
542.875	22690.64
543.075	22405.97
543.276	22459.22
543.476	22643.54
543.676	22557.52
543.877	22305.62
544.077	22623.06
544.277	22530.9
544.478	22072.15
544.678	22436.69
544.878	22389.59
545.078	22504.28
545.279	22328.15
545.479	22274.9
545.679	22537.04
545.879	22258.52
546.079	22440.79
546.28	22219.61
546.48	22203.22
546.68	22295.38
546.88	22426.45
547.08	22246.23
547.28	22334.29
547.48	21922.65
547.68	22297.43
547.88	22133.59
548.081	22442.84
548.281	22274.9
548.481	21930.84
548.681	22299.48
548.881	22557.52
549.081	22438.74
549.28	22063.96
549.48	22211.42
549.68	22053.72
549.88	22334.29
550.08	21971.8
550.28	22020.95
550.48	22037.34
550.68	22092.63
550.88	22074.2
551.08	21918.56
551.279	22004.57
551.479	21898.08
551.679	22045.53
551.879	21916.51
552.079	22047.58
552.278	21617.5
552.478	22066.01
552.678	22006.62
552.878	22045.53
553.077	22186.84
553.277	21949.28
553.477	22074.2
553.676	21977.95
553.876	21822.3
554.076	21965.66
554.275	22004.57
554.475	21543.78
554.674	21726.05
554.874	21742.43
555.074	21844.83
555.273	22076.25
555.473	21896.03
555.672	21672.8
555.872	22233.94
556.071	22080.35
556.271	21947.23
556.47	21705.57
556.67	21646.18
556.869	21594.98
557.068	21859.17
557.268	21498.72
557.467	21668.7
557.667	21752.67
557.866	21693.28
558.065	21662.56
558.265	21535.59
558.464	21361.51
558.663	21795.68
558.863	21560.16
559.062	21775.2
559.261	21592.93
559.461	21506.91
559.66	21150.57
559.859	21341.03
560.058	21271.4
560.258	21246.82
560.457	21246.82
560.656	21422.95
560.855	21058.41
561.054	21453.67
561.253	21222.25
561.453	21474.15
561.652	21312.36
561.851	21199.72
562.05	21205.86
562.249	20939.63
562.448	21289.83
562.647	21265.25
562.846	21019.5
563.045	20788.08
563.244	20781.93
563.443	21138.28
563.642	20749.17
563.841	20800.37
564.04	21103.46
564.239	20917.1
564.438	20540.27
564.637	20757.36
564.836	20820.84
565.035	20644.72
565.234	20579.18
565.432	20665.2
565.631	20681.58
565.83	20964.2
566.029	20583.28
566.228	20431.73
566.427	20593.52
566.625	20456.31
566.824	20407.16
567.023	20423.54
567.222	19886.97
567.42	20370.29
567.619	20261.75
567.818	20491.12
568.016	20183.93
568.215	20460.4
568.414	20378.48
568.612	20104.06
568.811	20054.9
569.01	20417.4
569.208	19899.26
569.407	20200.31
569.605	19753.85
569.804	19964.79
570.002	19866.49
570.201	19999.61
570.4	19723.13
570.598	19882.88
570.797	19753.85
570.995	19710.85
571.193	19704.7
571.392	20110.2
571.59	19530.62
571.789	19665.79
571.987	19583.87
572.186	19667.84
572.384	19434.37
572.582	19657.6
572.781	19624.83
572.979	19116.93
573.177	19493.76
573.376	19454.85
573.574	18942.86
573.772	19454.85
573.971	19342.21
574.169	19274.63
574.367	19078.02
574.565	19225.48
574.763	19358.6
574.962	19065.74
575.16	18817.93
575.358	19168.13
575.556	18774.92
575.754	19135.37
575.952	18643.85
576.151	19016.58
576.349	18731.92
576.547	18465.68
576.745	18690.96
576.943	19090.31
577.141	18514.83
577.339	18664.33
577.537	18410.39
577.735	18555.79
577.933	18191.25
578.131	18568.08
578.329	18092.95
578.527	18076.57
578.725	18486.16
578.923	18426.77
579.121	18105.24
579.319	18234.26
579.516	18234.26
579.714	18277.27
579.912	18146.2
580.11	18056.09
580.308	17857.43
580.506	18031.51
580.704	17802.14
580.901	18013.08
581.099	17855.39
581.297	17755.04
581.495	17957.78
581.692	17693.6
581.89	17486.75
582.088	17841.05
582.285	17615.77
582.483	17769.37
582.681	17793.95
582.878	17630.11
583.076	17476.51
583.274	17460.13
583.471	17281.95
583.669	17404.83
583.866	17109.93
584.064	17308.58
584.262	17230.76
584.459	17378.21
584.657	17046.44
584.854	17212.32
585.052	16905.13
585.249	17056.68
585.447	16907.18
585.644	16905.13
585.841	16837.55
586.039	17068.97
586.236	16702.38
586.434	16858.03
586.631	16776.11
586.828	16647.08
587.026	16876.46
587.223	16468.91
587.42	16520.11
587.618	16835.5
587.815	16350.13
588.012	16346.03
588.21	16384.94
588.407	16518.06
588.604	16501.68
588.801	16188.34
588.999	15975.35
589.196	16081.85
589.393	15950.78
589.59	15889.34
589.787	16040.89
589.984	16081.85
590.182	15860.66
590.379	15940.54
590.576	15870.9
590.773	15903.67
590.97	15584.19
591.167	15823.8
591.364	15692.73
591.561	15659.96
591.758	15596.48
591.955	15582.14
592.152	15651.77
592.349	15516.61
592.546	15702.97
592.743	15514.56
592.94	15262.66
593.137	15352.77
593.334	15270.85
593.531	15072.2
593.727	15135.68
593.924	15195.07
594.121	15002.57
594.318	15205.31
594.515	15047.62
594.712	15057.86
594.908	14932.93
595.105	15174.6
595.302	14898.12
595.499	14902.22
595.696	14619.6
595.892	14785.48
596.089	14789.58
596.286	14932.93
596.482	14468.05
596.679	14703.56
596.876	14523.34
597.072	14539.72
597.269	14719.95
597.466	14306.26
597.662	14449.61
597.859	14302.16
598.055	14330.83
598.252	14406.61
598.448	14214.1
598.645	14265.3
598.841	13986.77
599.038	14078.93
599.234	14355.41
599.431	13812.7
599.627	13878.23
599.824	14033.88
600.02	14040.02
600.217	14033.88
600.413	13691.87
600.609	13738.97
600.806	13538.27
601.002	13835.22
601.198	13611.99
601.395	13640.67
601.591	13493.21
601.787	13626.33
601.984	13411.29
602.18	13560.8
602.376	13196.26
602.572	13282.27
602.769	13523.93
602.965	13192.16
603.161	13304.8
603.357	13362.14
603.553	13478.88
603.75	13341.66
603.946	13167.59
604.142	13265.89
604.338	12872.68
604.534	13085.67
604.73	12923.88
604.926	12706.79
605.122	13052.9
605.318	12909.54
605.514	12958.69
605.71	12823.53
605.906	12751.85
606.102	12792.81
606.298	12839.91
606.494	12671.98
606.69	12684.27
606.886	12471.28
607.082	12600.3
607.278	12499.95
607.474	12555.24
607.67	12694.5
607.866	12387.31
608.062	12581.87
608.257	12340.21
608.453	12395.5
608.649	12215.28
608.845	12311.53
609.041	12354.54
609.236	12280.82
609.432	12342.25
609.628	12266.48
609.824	12227.57
610.019	12252.14
610.215	12008.44
610.411	12157.94
610.606	12037.11
610.802	12229.62
610.998	11961.33
611.193	12088.31
611.389	11959.28
611.584	12092.4
611.78	11664.38
611.976	11994.1
612.171	12012.53
612.367	11631.61
612.562	11760.63
612.758	11633.66
612.953	11848.69
613.149	11863.03
613.344	11828.21
613.539	11994.1
613.735	11840.5
613.93	11668.47
614.126	11533.31
614.321	11865.08
614.517	11699.19
614.712	11652.09
614.907	11535.35
615.103	11615.23
615.298	11525.11
615.493	11805.69
615.688	11518.97
615.884	11783.16
616.079	11344.89
616.274	11723.77
616.47	11338.75
616.665	11543.55
616.86	11330.56
617.055	11211.78
617.25	11363.33
617.445	11320.32
617.641	11209.73
617.836	11224.06
618.031	11058.18
618.226	11179.01
618.421	11119.62
618.616	11418.62
618.811	11056.13
619.006	11211.78
619.201	10918.92
619.396	10896.39
619.591	11009.03
619.786	10935.3
619.981	11056.13
620.176	11054.08
620.371	10654.73
620.566	10707.98
620.761	10529.8
620.956	10712.07
621.151	10556.43
621.346	10765.32
621.541	10308.62
621.735	10449.93
621.93	10347.53
622.125	10263.57
622.32	10066.96
622.515	10251.28
622.709	10161.17
622.904	10200.08
623.099	10026
623.294	10195.98
623.488	9886.74
623.683	10132.5
623.878	9960.47
624.072	10030.1
624.267	9825.3
624.462	9808.92
624.656	9604.12
624.851	9661.46
625.046	9780.25
625.24	9581.59
625.435	9432.09
625.629	9333.79
625.824	9409.56
626.018	9425.95
626.213	9217.05
626.407	8995.87
626.602	9210.91
626.796	9333.79
626.991	9239.58
627.185	8928.29
627.38	9002.02
627.574	8965.15
627.768	9096.22
627.963	8817.7
628.157	8606.76
628.352	8901.67
628.546	8846.37
628.74	8821.8
628.935	8608.81
629.129	8543.27
629.323	8453.16
629.517	8477.74
629.712	8473.64
629.906	8512.55
630.1	8318
630.294	8352.81
630.489	8344.62
630.683	8340.52
630.877	8131.63
631.071	8125.49
631.265	8064.05
631.459	8168.49
631.653	7945.27
631.848	7984.18
632.042	7971.89
632.236	8002.61
632.43	7853.11
632.624	7722.04
632.818	7748.66
633.012	7631.93
633.206	7767.09
633.4	7707.7
633.594	7763
633.788	7611.45
633.982	7388.22
634.176	7683.13
634.369	7566.39
634.563	7457.85
634.757	7404.6
634.951	7289.92
635.145	7302.2
635.339	7382.07
635.533	7228.48
635.726	7367.74
635.92	7257.15
636.114	7189.56
636.308	7091.26
636.501	7267.39
636.695	6931.52
636.889	6880.32
637.083	7068.73
637.276	6925.38
637.47	6845.51
637.664	6859.84
637.857	6970.43
638.051	6798.4
638.244	6753.35
638.438	6650.95
638.632	6689.86
638.825	6675.52
639.019	6585.41
639.212	6542.41
639.406	6397
639.599	6388.81
639.793	6405.19
639.986	6362.19
640.18	6558.79
640.373	6292.55
640.567	6282.31
640.76	6380.62
640.954	6171.72
641.147	6261.84
641.34	6210.64
641.534	6270.03
641.727	6175.82
641.92	6159.44
642.114	5981.26
642.307	5987.41
642.5	5995.6
642.694	5854.29
642.887	5788.75
643.08	5860.43
643.273	5968.98
643.467	5772.37
643.66	5889.1
643.853	5741.65
644.046	5739.6
644.239	5829.71
644.432	5549.14
644.626	5725.27
644.819	5682.26
645.012	5672.02
645.205	5672.02
645.398	5624.92
645.591	5448.79
645.784	5381.21
645.977	5506.13
646.17	5416.02
646.363	5145.69
646.556	5307.48
646.749	5448.79
646.942	5428.31
647.135	5229.66
647.328	5229.66
647.521	5186.65
647.714	5211.23
647.907	5166.17
648.099	5149.79
648.292	5076.06
648.485	5051.49
648.678	4983.9
648.871	5098.59
649.064	4899.94
649.256	5098.59
649.449	4940.9
649.642	4789.35
649.835	4740.19
650.027	4877.41
650.22	4830.3
650.413	4766.82
650.605	4779.11
650.798	4783.2
650.991	4725.86
651.183	4779.11
651.376	4672.61
651.568	4613.22
651.761	4605.03
651.954	4648.04
652.146	4639.84
652.339	4615.27
652.531	4639.84
652.724	4658.28
652.916	4607.08
653.109	4367.46
653.301	4570.21
653.494	4437.09
653.686	4451.43
653.879	4463.72
654.071	4334.7
654.263	4396.14
654.456	4349.03
654.648	4279.4
654.84	4314.22
655.033	4213.87
655.225	4211.82
655.417	4054.12
655.61	4201.58
655.802	4179.05
655.994	4142.19
656.186	4082.8
656.379	4123.76
656.571	4088.94
656.763	4103.28
656.955	3970.16
657.148	4144.24
657.34	4037.74
657.532	4031.6
657.724	3900.53
657.916	3904.62
658.108	3839.09
658.3	3955.82
658.492	4050.03
658.684	3935.34
658.876	3925.1
659.068	3759.22
659.26	3869.81
659.452	3834.99
659.644	3804.27
659.836	3738.74
660.028	3699.83
660.22	3638.39
660.412	3767.41
660.604	3634.29
660.796	3695.73
660.988	3708.02
661.18	3554.42
661.372	3499.13
661.563	3562.61
661.755	3570.8
661.947	3701.87
662.139	3576.95
662.331	3507.32
662.522	3386.49
662.714	3501.17
662.906	3363.96
663.097	3427.45
663.289	3460.21
663.481	3255.42
663.673	3499.13
663.864	3339.38
664.056	3310.71
664.247	3333.24
664.439	3488.89
664.631	3292.28
664.822	3214.46
665.014	3226.75
665.205	3196.03
665.397	3136.63
665.588	3292.28
665.78	3222.65
665.971	3220.6
666.163	3146.87
666.354	3173.5
666.546	3267.7
666.737	3110.01
666.929	3046.52
667.12	3038.33
667.311	3024
667.503	3071.1
667.694	3200.12
667.885	3038.33
668.077	3050.62
668.268	3034.24
668.459	3083.39
668.651	2968.7
668.842	2978.94
669.033	2874.49
669.224	2964.61
669.416	2921.6
669.607	2903.17
669.798	3009.66
669.989	2935.93
670.18	2880.64
670.371	2858.11
670.563	2874.49
670.754	2913.41
670.945	2784.38
671.136	2950.27
671.327	2786.43
671.518	2770.05
671.709	2886.78
671.9	2796.67
672.091	2657.41
672.282	2663.55
672.473	2684.03
672.664	2751.62
672.855	2692.23
673.046	2743.42
673.237	2757.76
673.428	2659.46
673.619	2616.45
673.809	2669.7
674	2690.18
674.191	2663.55
674.382	2653.31
674.573	2602.11
674.764	2544.77
674.954	2641.03
675.145	2581.64
675.336	2636.93
675.527	2616.45
675.717	2550.92
675.908	2546.82
676.099	2507.91
676.289	2587.78
676.48	2620.55
676.671	2630.79
676.861	2542.72
677.052	2645.12
677.243	2555.01
677.433	2503.81
677.624	2614.4
677.814	2598.02
678.005	2608.26
678.195	2583.68
678.386	2548.87
678.576	2413.7
678.767	2456.71
678.957	2518.15
679.148	2530.44
679.338	2356.36
679.529	2520.2
679.719	2387.08
679.909	2536.58
680.1	2555.01
680.29	2534.53
680.481	2409.61
680.671	2393.22
680.861	2456.71
681.052	2370.69
681.242	2276.49
681.432	2479.24
681.622	2278.54
681.813	2387.08
682.003	2382.98
682.193	2335.88
682.383	2323.59
682.573	2436.23
682.764	2376.84
682.954	2315.4
683.144	2286.73
683.334	2315.4
683.524	2337.93
683.714	2438.28
683.904	2362.5
684.094	2258.06
684.284	2227.34
684.474	2309.26
684.664	2272.39
684.854	2235.53
685.044	2292.87
685.234	2247.82
685.424	2245.77
685.614	2247.82
685.804	2139.27
685.994	2206.86
686.184	2225.29
686.374	2172.04
686.564	2284.68
686.753	2161.8
686.943	2090.12
687.133	2282.63
687.323	2192.52
687.513	2200.71
687.702	2061.45
687.892	2081.93
688.082	2106.51
688.272	2112.65
688.461	2131.08
688.651	2145.42
688.841	2071.69
689.03	2002.06
689.22	2053.26
689.41	2026.64
689.599	2049.16
689.789	2018.44
689.979	2065.55
690.168	2090.12
690.358	2045.07
690.547	1946.76
690.737	2063.5
690.926	1975.44
691.116	2065.55
691.305	1940.62
691.495	2022.54
691.684	1938.57
691.874	1928.33
692.063	1932.43
692.252	2010.25
692.442	1883.28
692.631	1891.47
692.82	1905.81
693.01	1813.65
693.199	1850.51
693.388	1850.51
693.578	1942.67
693.767	1866.89
693.956	1832.08
694.146	1866.89
694.335	1811.6
694.524	1821.84
694.713	1842.32
694.902	1762.45
695.092	1885.33
695.281	1750.16
695.47	1791.12
695.659	1782.93
695.848	1821.84
696.037	1840.27
696.226	1907.85
696.415	1805.46
696.604	1809.55
696.793	1795.22
696.982	1809.55
697.171	1823.89
697.36	1780.88
697.549	1848.46
697.738	1774.74
697.927	1694.86
698.116	1723.54
698.305	1856.65
698.494	1694.86
698.683	1883.28
698.872	1807.5
699.061	1787.02
699.25	1774.74
699.438	1746.06
699.627	1778.83
699.816	1684.62
700.005	1744.02
700.193	1688.72
700.382	1737.87
700.571	1803.41
700.76	1846.41
700.948	1791.12
701.137	1719.44
701.326	1791.12
701.514	1713.3
701.703	1807.5
701.892	1764.5
702.08	1850.51
702.269	1688.72
702.457	1676.43
702.646	1791.12
702.834	1600.66
703.023	1807.5
703.212	1717.39
703.4	1799.31
703.589	1750.16
703.777	1752.21
703.965	1803.41
704.154	1762.45
704.342	1664.15
704.531	1680.53
704.719	1795.22
704.907	1782.93
705.096	1782.93
705.284	1766.54
705.472	1676.43
705.661	1809.55
705.849	1731.73
706.037	1784.98
706.226	1719.44
706.414	1778.83
706.602	1760.4
706.79	1701.01
706.979	1834.13
707.167	1752.21
707.355	1766.54
707.543	1717.39
707.731	1873.04
707.919	1649.81
708.107	1678.48
708.296	1809.55
708.484	1707.15
708.672	1799.31
708.86	1887.37
709.048	1651.86
709.236	1889.42
709.424	1805.46
709.612	1789.07
709.8	1776.78
709.988	1782.93
710.176	1801.36
710.364	1762.45
710.551	1737.87
710.739	1744.02
710.927	1787.02
711.115	1766.54
711.303	1830.03
711.491	1701.01
711.679	1850.51
711.866	1717.39
712.054	1666.19
712.242	1758.35
712.43	1856.65
712.617	1750.16
712.805	1764.5
712.993	1717.39
713.181	1698.96
713.368	1864.85
713.556	1840.27
713.744	1778.83
713.931	1778.83
714.119	1776.78
714.306	1852.56
714.494	1739.92
714.682	1727.63
714.869	1827.98
715.057	1807.5
715.244	1799.31
715.432	1846.41
715.619	1801.36
715.807	1836.17
715.994	1854.61
716.182	1789.07
716.369	1787.02
716.556	1905.81
716.744	1772.69
716.931	1784.98
717.119	1795.22
717.306	1711.25
717.493	1842.32
717.681	1879.18
717.868	1670.29
718.055	1791.12
718.242	1729.68
718.43	1807.5
718.617	1864.85
718.804	1770.64
718.991	1813.65
719.179	1862.8
719.366	1817.74
719.553	1932.43
719.74	1862.8
719.927	1748.11
720.114	1727.63
720.301	1725.58
720.488	1770.64
720.676	1705.1
720.863	1846.41
721.05	1789.07
721.237	1870.99
721.424	1799.31
721.611	1891.47
721.798	1721.49
721.985	1819.79
722.172	1715.34
722.358	1807.5
722.545	1866.89
722.732	1817.74
722.919	1877.13
723.106	1768.59
723.293	1778.83
723.48	1780.88
723.667	1690.77
723.853	1727.63
724.04	1842.32
724.227	1772.69
724.414	1711.25
724.6	1856.65
724.787	1754.26
724.974	1688.72
725.161	1690.77
725.347	1729.68
725.534	1809.55
725.72	1821.84
725.907	1895.57
726.094	1825.93
726.28	1750.16
726.467	1727.63
726.653	1807.5
726.84	1823.89
727.027	1852.56
727.213	1717.39
727.4	1766.54
727.586	1770.64
727.773	1703.06
727.959	1750.16
728.145	1811.6
728.332	1799.31
728.518	1784.98
728.705	1807.5
728.891	1778.83
729.077	1674.39
729.264	1733.78
729.45	1711.25
729.636	1819.79
729.823	1795.22
730.009	1701.01
730.195	1727.63
730.382	1752.21
730.568	1674.39
730.754	1768.59
730.94	1782.93
731.126	1811.6
731.313	1739.92
731.499	1727.63
731.685	1766.54
731.871	1610.9
732.057	1750.16
732.243	1750.16
732.429	1754.26
732.615	1707.15
732.801	1840.27
732.987	1725.58
733.173	1660.05
733.359	1690.77
733.545	1799.31
733.731	1692.82
733.917	1780.88
734.103	1688.72
734.289	1784.98
734.475	1655.95
734.661	1705.1
734.847	1799.31
735.033	1666.19
735.219	1725.58
735.404	1655.95
735.59	1623.19
735.776	1584.27
735.962	1690.77
736.148	1713.3
736.333	1635.47
736.519	1764.5
736.705	1647.76
736.89	1596.56
737.076	1686.67
737.262	1629.33
737.447	1676.43
737.633	1629.33
737.819	1627.28
738.004	1635.47
738.19	1571.99
738.375	1727.63
738.561	1623.19
738.747	1545.36
738.932	1627.28
739.118	1676.43
739.303	1723.54
739.489	1676.43
739.674	1555.6
739.859	1680.53
740.045	1602.71
740.23	1633.43
740.416	1492.12
740.601	1717.39
740.786	1514.64
740.972	1641.62
741.157	1449.11
741.342	1541.27
741.528	1543.32
741.713	1623.19
741.898	1420.44
742.084	1498.26
742.269	1477.78
742.454	1492.12
742.639	1533.08
742.824	1653.91
743.01	1535.12
743.195	1586.32
743.38	1547.41
743.565	1512.6
743.75	1526.93
743.935	1490.07
744.12	1514.64
744.305	1528.98
744.49	1432.72
744.675	1535.12
744.86	1404.05
745.045	1445.01
745.23	1389.72
745.415	1520.79
745.6	1350.81
745.785	1479.83
745.97	1416.34
746.155	1422.48
746.34	1412.25
746.525	1404.05
746.71	1381.53
746.895	1414.29
747.079	1391.77
747.264	1336.47
747.449	1313.94
747.634	1379.48
747.819	1307.8
748.003	1295.51
748.188	1275.03
748.373	1266.84
748.557	1367.19
748.742	1313.94
748.927	1291.41
749.111	1395.86
749.296	1248.41
749.481	1240.22
749.665	1227.93
749.85	1207.45
750.034	1320.09
750.219	1240.22
750.404	1260.7
750.588	1209.5
750.773	1232.02
750.957	1236.12
751.141	1299.61
751.326	1225.88
751.51	1084.57
751.695	1143.96
751.879	1139.87
752.064	1189.02
752.248	1170.58
752.432	1182.87
752.617	1154.2
752.801	1131.67
752.985	1172.63
753.17	1160.34
753.354	1137.82
753.538	1109.15
753.722	1090.71
753.907	1082.52
754.091	1062.04
754.275	1129.63
754.459	1139.87
754.643	1152.15
754.828	1004.7
755.012	1012.89
755.196	1004.7
755.38	1002.65
755.564	980.12
755.748	976.03
755.932	1000.6
756.116	1016.99
756.3	904.35
756.484	926.88
756.668	984.22
756.852	984.22
757.036	955.55
757.22	1021.08
757.404	1045.66
757.588	857.25
757.772	890.01
757.956	873.63
758.14	984.22
758.323	834.72
758.507	926.88
758.691	904.35
758.875	867.49
759.059	922.78
759.242	900.25
759.426	873.63
759.61	842.91
759.794	877.73
759.977	799.9
760.161	951.45
760.345	861.34
760.528	908.44
760.712	806.05
760.895	801.95
761.079	783.52
761.263	869.53
761.446	804
761.63	799.9
761.813	808.09
761.997	904.35
762.18	722.08
762.364	820.38
762.547	804
762.731	707.74
762.914	824.48
763.098	728.22
763.281	783.52
763.464	765.09
763.648	693.41
763.831	738.46
764.015	724.13
764.198	713.89
764.381	765.09
764.564	760.99
764.748	738.46
764.931	722.08
765.114	748.7
765.297	740.51
765.481	720.03
765.664	750.75
765.847	687.26
766.03	722.08
766.213	703.65
766.397	685.22
766.58	738.46
766.763	668.83
766.946	730.27
767.129	726.18
767.312	648.35
767.495	677.02
767.678	689.31
767.861	668.83
768.044	666.78
768.227	726.18
768.41	691.36
768.593	720.03
768.776	701.6
768.959	674.98
769.142	670.88
769.324	582.82
769.507	699.55
769.69	654.5
769.873	711.84
770.056	724.13
770.239	689.31
770.421	701.6
770.604	634.02
770.787	681.12
770.97	681.12
771.152	552.1
771.335	586.91
771.518	646.3
771.7	545.95
771.883	634.02
772.066	689.31
772.248	689.31
772.431	613.54
772.613	636.06
772.796	535.71
772.978	617.63
773.161	631.97
773.343	578.72
773.526	595.11
773.708	601.25
773.891	568.48
774.073	605.35
774.256	498.85
774.438	572.58
774.621	504.99
774.803	511.14
774.985	607.39
775.168	527.52
775.35	504.99
775.532	597.15
775.715	466.08
775.897	568.48
776.079	519.33
776.261	461.99
776.444	560.29
776.626	435.36
776.808	588.96
776.99	543.91
777.173	421.03
777.355	523.43
777.537	476.32
777.719	500.9
777.901	515.23
778.083	513.19
778.265	474.28
778.447	500.9
778.629	535.71
778.811	445.6
778.993	478.37
779.175	466.08
779.357	398.5
779.539	492.71
779.721	369.83
779.903	412.84
780.085	429.22
780.267	414.88
780.449	466.08
780.631	470.18
780.812	472.23
780.994	425.12
781.176	402.6
781.358	453.8
781.54	427.17
781.721	486.56
781.903	402.6
782.085	349.35
782.267	408.74
782.448	328.87
782.63	326.82
782.812	421.03
782.993	355.49
783.175	416.93
783.357	275.62
783.538	418.98
783.72	369.83
783.901	353.45
784.083	355.49
784.264	406.69
784.446	277.67
784.627	300.2
784.809	400.55
784.99	406.69
785.172	353.45
785.353	326.82
785.535	341.16
785.716	287.91
785.897	281.77
786.079	373.92
786.26	347.3
786.441	343.21
786.623	300.2
786.804	296.1
786.985	322.73
787.167	357.54
787.348	298.15
787.529	244.9
787.71	351.4
787.891	328.87
788.073	308.39
788.254	246.95
788.435	318.63
788.616	339.11
788.797	275.62
788.978	214.18
789.159	326.82
789.34	314.53
789.522	308.39
789.703	242.85
789.884	306.34
790.065	322.73
790.246	210.09
790.427	251.05
790.607	302.25
790.788	246.95
790.969	195.75
791.15	205.99
791.331	316.58
791.512	236.71
791.693	249
791.874	201.9
792.054	287.91
792.235	316.58
792.416	253.09
792.597	289.96
792.778	185.51
792.958	273.57
793.139	193.7
793.32	154.79
793.5	203.94
793.681	281.77
793.862	300.2
794.042	255.14
794.223	255.14
794.404	255.14
794.584	199.85
794.765	263.33
794.945	298.15
795.126	195.75
795.306	238.76
795.487	236.71
795.667	150.7
795.848	283.81
796.028	230.57
796.209	269.48
796.389	146.6
796.57	259.24
796.75	251.05
796.93	226.47
797.111	199.85
797.291	179.37
797.471	199.85
797.652	246.95
797.832	199.85
798.012	154.79
798.192	203.94
798.373	265.38
798.553	91.31
798.733	236.71
798.913	197.8
799.093	187.56
799.274	189.61
799.454	238.76
799.634	167.08
799.814	138.41
799.994	240.81
800.174	171.18
800.354	140.46
800.534	175.27
800.714	177.32
800.894	130.22
801.074	169.13
801.254	195.75
801.434	232.62
801.614	154.79
801.794	189.61
801.974	533.67
802.154	193.7
802.334	226.47
802.514	136.36
802.693	93.35
802.873	158.89
803.053	197.8
803.233	208.04
803.413	197.8
803.592	128.17
803.772	185.51
803.952	220.33
804.131	177.32
804.311	197.8
804.491	197.8
804.67	150.7
804.85	117.93
805.03	191.66
805.209	167.08
805.389	146.6
805.568	148.65
805.748	181.42
805.928	93.35
806.107	165.03
806.287	167.08
806.466	126.12
806.646	87.21
806.825	146.6
807.004	89.26
807.184	109.74
807.363	89.26
807.543	119.98
807.722	105.64
807.901	119.98
808.081	117.93
808.26	122.02
808.439	138.41
808.619	87.21
808.798	144.55
808.977	109.74
809.156	124.07
809.336	128.17
809.515	199.85
809.694	58.54
809.873	173.22
810.052	119.98
810.231	70.83
810.411	79.02
810.59	119.98
810.769	113.83
810.948	169.13
811.127	97.45
811.306	183.46
811.485	136.36
811.664	132.26
811.843	136.36
812.022	52.39
812.201	128.17
812.38	126.12
812.559	181.42
812.737	23.72
812.916	91.31
813.095	70.83
813.274	89.26
813.453	124.07
813.632	91.31
813.811	173.22
813.989	64.68
814.168	33.96
814.347	66.73
814.526	66.73
814.704	119.98
814.883	132.26
815.062	79.02
815.24	144.55
815.419	187.56
815.598	99.5
815.776	11.43
815.955	70.83
816.133	62.63
816.312	83.11
816.49	130.22
816.669	89.26
816.847	132.26
817.026	113.83
817.204	87.21
817.383	158.89
817.561	66.73
817.74	138.41
817.918	97.45
818.097	132.26
818.275	74.92
818.453	83.11
818.632	68.78
818.81	130.22
818.988	56.49
819.167	33.96
819.345	185.51
819.523	119.98
819.701	111.78
819.879	144.55
820.058	105.64
820.236	87.21
820.414	93.35
820.592	44.2
820.77	72.87
820.948	33.96
821.127	74.92
821.305	97.45
821.483	72.87
821.661	-0.85
821.839	72.87
822.017	56.49
822.195	85.16
822.373	81.07
822.551	83.11
822.729	201.9
822.907	44.2
823.085	132.26
823.262	-9.05
823.44	38.06
823.618	64.68
823.796	66.73
823.974	38.06
824.152	15.53
824.329	58.54
824.507	109.74
824.685	111.78
824.863	97.45
825.04	66.73
825.218	13.48
825.396	79.02
825.574	74.92
825.751	136.36
825.929	56.49
826.107	-21.33
826.284	95.4
826.462	56.49
826.639	87.21
826.817	74.92
826.994	70.83
827.172	68.78
827.349	113.83
827.527	107.69
827.704	11.43
827.882	93.35
828.059	103.59
828.237	44.2
828.414	58.54
828.591	3.24
828.769	19.63
828.946	50.35
829.124	72.87
829.301	97.45
829.478	17.58
829.655	103.59
829.833	128.17
830.01	72.87
830.187	91.31
830.364	48.3
830.542	74.92
830.719	52.39
830.896	83.11
831.073	91.31
831.25	-0.85
831.427	85.16
831.604	87.21
831.782	15.53
831.959	56.49
832.136	31.91
832.313	15.53
832.49	76.97
832.667	5.29
832.844	74.92
833.021	122.02
833.198	46.25
833.374	64.68
833.551	83.11
833.728	15.53
833.905	76.97
834.082	40.11
834.259	87.21
834.436	89.26
834.612	-9.05
834.789	138.41
834.966	89.26
835.143	64.68
835.319	46.25
835.496	66.73
835.673	64.68
835.85	85.16
836.026	-0.85
836.203	122.02
836.38	19.63
836.556	36.01
836.733	60.59
836.909	-2.9
837.086	52.39
837.262	113.83
837.439	23.72
837.616	27.82
837.792	66.73
837.968	60.59
838.145	19.63
838.321	52.39
838.498	81.07
838.674	54.44
838.851	3.24
839.027	50.35
839.203	-0.85
839.38	79.02
839.556	52.39
839.732	54.44
839.909	25.77
840.085	122.02
840.261	33.96
840.437	-4.95
840.614	79.02
840.79	113.83
840.966	124.07
841.142	17.58
841.318	17.58
841.494	68.78
841.671	64.68
841.847	-29.52
842.023	97.45
842.199	33.96
842.375	64.68
842.551	27.82
842.727	27.82
842.903	31.91
843.079	3.24
843.255	70.83
843.431	93.35
843.607	76.97
843.783	-25.43
843.959	68.78
844.134	-19.29
844.31	85.16
844.486	9.39
844.662	38.06
844.838	-47.96
845.013	23.72
845.189	152.74
845.365	87.21
845.541	44.2
845.716	-17.24
845.892	9.39
846.068	56.49
846.244	91.31
846.419	76.97
846.595	-23.38
846.77	48.3
846.946	29.87
847.122	3.24
847.297	74.92
847.473	58.54
847.648	50.35
847.824	89.26
847.999	-7
848.175	7.34
848.35	62.63
848.526	27.82
848.701	38.06
848.876	54.44
849.052	79.02
849.227	66.73
849.403	66.73
849.578	27.82
849.753	50.35
849.929	54.44
850.104	66.73
850.279	31.91
850.454	27.82
850.63	40.11
850.805	11.43
850.98	95.4
851.155	23.72
851.33	7.34
851.505	36.01
851.681	124.07
851.856	-21.33
852.031	31.91
852.206	7.34
852.381	27.82
852.556	76.97
852.731	56.49
852.906	74.92
853.081	3.24
853.256	23.72
853.431	25.77
853.606	-54.1
853.781	38.06
853.956	83.11
854.131	44.2
854.305	-11.09
854.48	-29.52
854.655	23.72
854.83	5.29
855.005	-41.81
855.18	52.39
855.354	58.54
855.529	21.67
855.704	62.63
855.879	27.82
856.053	54.44
856.228	58.54
856.403	1.19
856.577	97.45
856.752	-82.77
856.926	54.44
857.101	-4.95
857.276	-19.29
857.45	-37.72
857.625	36.01
857.799	70.83
857.974	29.87
858.148	91.31
858.323	64.68
858.497	17.58
858.672	-9.05
858.846	40.11
859.02	62.63
859.195	15.53
859.369	-29.52
859.543	3.24
859.718	33.96
859.892	27.82
860.066	-7
860.241	29.87
860.415	-45.91
860.589	-25.43
860.763	25.77
860.938	-31.57
861.112	40.11
861.286	15.53
861.46	15.53
861.634	9.39
861.808	21.67
861.982	21.67
862.157	81.07
862.331	-35.67
862.505	-23.38
862.679	-45.91
862.853	17.58
863.027	11.43
863.201	21.67
863.375	-21.33
863.549	101.55
863.722	40.11
863.896	17.58
864.07	-17.24
864.244	25.77
864.418	-19.29
864.592	17.58
864.766	33.96
864.939	-21.33
865.113	38.06
865.287	19.63
865.461	31.91
865.634	87.21
865.808	31.91
865.982	13.48
866.156	-27.48
866.329	58.54
866.503	50.35
866.676	13.48
866.85	42.15
867.024	3.24
867.197	19.63
867.371	11.43
867.544	-31.57
867.718	3.24
867.891	23.72
868.065	27.82
868.238	-29.52
868.412	87.21
868.585	9.39
868.759	-64.34
868.932	-80.72
869.105	64.68
869.279	-17.24
869.452	-76.63
869.625	60.59
869.799	27.82
869.972	42.15
870.145	-35.67
870.319	79.02
870.492	27.82
870.665	3.24
870.838	-58.2
871.011	3.24
871.185	21.67
871.358	-33.62
871.531	-19.29
871.704	-58.2
871.877	-25.43
872.05	50.35
872.223	7.34
872.396	119.98
872.569	-72.53
872.742	-4.95
872.915	11.43
873.088	-0.85
873.261	-9.05
873.434	46.25
873.607	38.06
873.78	-2.9
873.953	85.16
874.126	38.06
874.299	-39.76
874.471	50.35
874.644	25.77
874.817	48.3
874.99	19.63
875.163	-41.81
875.335	44.2
875.508	21.67
875.681	-35.67
875.853	-11.09
876.026	3.24
876.199	56.49
876.371	44.2
876.544	27.82
876.717	83.11
876.889	85.16
877.062	44.2
877.234	60.59
877.407	-21.33
877.579	52.39
877.752	36.01
877.924	17.58
878.097	33.96
878.269	11.43
878.442	27.82
878.614	11.43
878.786	-19.29
878.959	-9.05
879.131	52.39
879.303	-64.34
879.476	13.48
879.648	7.34
879.82	1.19
879.993	-33.62
880.165	-25.43
880.337	-43.86
880.509	25.77
880.681	1.19
880.854	64.68
881.026	17.58
881.198	29.87
881.37	-4.95
881.542	19.63
881.714	17.58
881.886	13.48
882.058	9.39
882.23	-15.19
882.402	-64.34
882.574	15.53
882.746	21.67
882.918	9.39
883.09	50.35
883.262	-25.43
883.434	-66.39
883.606	29.87
883.778	3.24
883.95	31.91
884.122	3.24
884.293	76.97
884.465	3.24
884.637	93.35
884.809	-37.72
884.98	27.82
885.152	13.48
885.324	11.43
885.496	13.48
885.667	62.63
885.839	-2.9
886.011	23.72
886.182	29.87
886.354	70.83
886.525	-4.95
886.697	72.87
886.869	44.2
887.04	-2.9
887.212	-27.48
887.383	46.25
887.555	11.43
887.726	-35.67
887.897	-35.67
888.069	38.06
888.24	-15.19
888.412	29.87
888.583	-78.68
888.754	46.25
888.926	-76.63
889.097	-2.9
889.268	-2.9
889.44	58.54
889.611	79.02
889.782	3.24
889.953	7.34
890.125	-29.52
890.296	31.91
890.467	1.19
890.638	-11.09
890.809	-9.05
890.98	-25.43
891.151	-21.33
891.323	-13.14
891.494	-0.85
891.665	23.72
891.836	29.87
892.007	11.43
892.178	-11.09
892.349	40.11
892.52	-45.91
892.691	-56.15
892.862	19.63
893.032	60.59
893.203	-25.43
893.374	-93.01
893.545	40.11
893.716	23.72
893.887	58.54
894.057	-15.19
894.228	42.15
894.399	-9.05
894.57	29.87
894.74	1.19
894.911	-0.85
895.082	-41.81
895.253	19.63
895.423	-29.52
895.594	-29.52
895.764	-37.72
895.935	46.25
896.106	60.59
896.276	-0.85
896.447	-39.76
896.617	-9.05
896.788	21.67
896.958	27.82
897.129	31.91
897.299	-21.33
897.47	42.15
897.64	81.07
897.81	-17.24
897.981	-9.05
898.151	-11.09
898.322	5.29
898.492	-7
898.662	9.39
898.832	5.29
899.003	-29.52
899.173	60.59
899.343	-2.9
899.513	3.24
