Data from USB4F104151__12__12-00-24-273.txt Node

Date: Fri Mar 14 12:00:24 EDT 2025
User: louis
Spectrometer: USB4F10415
Trigger mode: 4
Integration Time (sec): 2.000000E-2
Scans to average: 1
Electric dark correction enabled: true
Nonlinearity correction enabled: false
Boxcar width: 0
XAxis mode: Wavelengths
Number of Pixels in Spectrum: 3648
>>>>>Begin Spectral Data<<<<<
178.204	-101.2
178.424	-101.2
178.644	-101.2
178.864	-66.39
179.084	-68.44
179.304	-27.48
179.524	-76.63
179.744	15.53
179.964	42.15
180.184	25.77
180.404	-33.62
180.624	-2.9
180.844	11.43
181.064	40.11
181.283	-15.19
181.503	7.34
181.723	13.48
181.943	-84.82
182.163	83.11
182.383	29.87
182.602	25.77
182.822	62.63
183.042	-50
183.262	38.06
183.482	38.06
183.701	13.48
183.921	44.2
184.141	79.02
184.361	15.53
184.58	3.24
184.8	74.92
185.02	-52.05
185.239	70.83
185.459	-23.38
185.679	5.29
185.898	-62.29
186.118	83.11
186.338	-4.95
186.557	54.44
186.777	23.72
186.997	-31.57
187.216	-11.09
187.436	64.68
187.655	87.21
187.875	29.87
188.095	29.87
188.314	44.2
188.534	27.82
188.753	42.15
188.973	3.24
189.192	72.87
189.412	-37.72
189.631	17.58
189.851	70.83
190.07	130.22
190.29	3.24
190.509	-39.76
190.729	-19.29
190.948	72.87
191.168	72.87
191.387	66.73
191.607	-31.57
191.826	-11.09
192.045	36.01
192.265	5.29
192.484	46.25
192.704	-17.24
192.923	-13.14
193.142	46.25
193.362	72.87
193.581	21.67
193.8	31.91
194.02	130.22
194.239	50.35
194.458	42.15
194.678	25.77
194.897	15.53
195.116	36.01
195.335	9.39
195.555	72.87
195.774	83.11
195.993	66.73
196.212	7.34
196.432	17.58
196.651	79.02
196.87	72.87
197.089	33.96
197.308	-15.19
197.528	91.31
197.747	-11.09
197.966	-39.76
198.185	62.63
198.404	-76.63
198.623	44.2
198.842	101.55
199.062	23.72
199.281	93.35
199.5	27.82
199.719	29.87
199.938	27.82
200.157	15.53
200.376	1.19
200.595	89.26
200.814	79.02
201.033	27.82
201.252	-7
201.471	19.63
201.69	44.2
201.909	89.26
202.128	103.59
202.347	36.01
202.566	95.4
202.785	15.53
203.004	5.29
203.223	-2.9
203.442	15.53
203.661	3.24
203.879	29.87
204.098	99.5
204.317	38.06
204.536	-2.9
204.755	-17.24
204.974	62.63
205.193	11.43
205.411	83.11
205.63	40.11
205.849	36.01
206.068	44.2
206.287	-2.9
206.505	103.59
206.724	76.97
206.943	70.83
207.162	-25.43
207.381	7.34
207.599	66.73
207.818	66.73
208.037	-7
208.255	81.07
208.474	-39.76
208.693	50.35
208.911	-2.9
209.13	54.44
209.349	5.29
209.567	62.63
209.786	54.44
210.005	95.4
210.223	31.91
210.442	11.43
210.661	87.21
210.879	15.53
211.098	44.2
211.316	46.25
211.535	42.15
211.753	48.3
211.972	15.53
212.191	58.54
212.409	38.06
212.628	25.77
212.846	62.63
213.065	81.07
213.283	169.13
213.502	11.43
213.72	-27.48
213.938	-39.76
214.157	-7
214.375	7.34
214.594	79.02
214.812	-33.62
215.031	99.5
215.249	-7
215.467	44.2
215.686	-27.48
215.904	17.58
216.122	-25.43
216.341	54.44
216.559	60.59
216.778	58.54
216.996	68.78
217.214	29.87
217.432	15.53
217.651	-25.43
217.869	-11.09
218.087	11.43
218.306	-0.85
218.524	25.77
218.742	-0.85
218.96	31.91
219.179	1.19
219.397	72.87
219.615	52.39
219.833	58.54
220.051	-31.57
220.27	-47.96
220.488	15.53
220.706	42.15
220.924	66.73
221.142	13.48
221.36	31.91
221.578	72.87
221.796	-17.24
222.015	60.59
222.233	1.19
222.451	33.96
222.669	66.73
222.887	11.43
223.105	-52.05
223.323	124.07
223.541	-29.52
223.759	44.2
223.977	-9.05
224.195	38.06
224.413	85.16
224.631	50.35
224.849	46.25
225.067	91.31
225.285	13.48
225.503	33.96
225.721	-33.62
225.939	29.87
226.157	7.34
226.375	54.44
226.592	-82.77
226.81	83.11
227.028	58.54
227.246	62.63
227.464	60.59
227.682	70.83
227.9	70.83
228.117	-7
228.335	17.58
228.553	44.2
228.771	95.4
228.989	21.67
229.206	81.07
229.424	-7
229.642	117.93
229.86	56.49
230.077	33.96
230.295	13.48
230.513	38.06
230.731	72.87
230.948	76.97
231.166	7.34
231.384	23.72
231.601	29.87
231.819	19.63
232.037	44.2
232.254	-9.05
232.472	89.26
232.689	-15.19
232.907	11.43
233.125	21.67
233.342	66.73
233.56	115.88
233.777	-2.9
233.995	11.43
234.213	119.98
234.43	62.63
234.648	-9.05
234.865	23.72
235.083	76.97
235.3	66.73
235.518	68.78
235.735	36.01
235.953	42.15
236.17	23.72
236.388	9.39
236.605	19.63
236.822	15.53
237.04	19.63
237.257	54.44
237.475	36.01
237.692	50.35
237.909	40.11
238.127	54.44
238.344	-2.9
238.562	25.77
238.779	5.29
238.996	25.77
239.214	56.49
239.431	-25.43
239.648	-9.05
239.865	23.72
240.083	36.01
240.3	7.34
240.517	-11.09
240.735	-11.09
240.952	42.15
241.169	74.92
241.386	64.68
241.603	19.63
241.821	91.31
242.038	50.35
242.255	68.78
242.472	40.11
242.689	-4.95
242.907	81.07
243.124	15.53
243.341	27.82
243.558	60.59
243.775	64.68
243.992	-27.48
244.209	42.15
244.426	40.11
244.643	36.01
244.86	-66.39
245.078	15.53
245.295	17.58
245.512	58.54
245.729	-11.09
245.946	33.96
246.163	23.72
246.38	50.35
246.597	-2.9
246.814	3.24
247.031	70.83
247.248	56.49
247.464	44.2
247.681	40.11
247.898	9.39
248.115	97.45
248.332	13.48
248.549	91.31
248.766	44.2
248.983	56.49
249.2	29.87
249.417	52.39
249.633	29.87
249.85	29.87
250.067	76.97
250.284	1.19
250.501	68.78
250.717	113.83
250.934	9.39
251.151	42.15
251.368	42.15
251.585	13.48
251.801	89.26
252.018	52.39
252.235	79.02
252.451	-39.76
252.668	-9.05
252.885	48.3
253.102	74.92
253.318	54.44
253.535	33.96
253.752	5.29
253.968	5.29
254.185	7.34
254.401	19.63
254.618	66.73
254.835	-41.81
255.051	115.88
255.268	-4.95
255.484	74.92
255.701	-31.57
255.917	40.11
256.134	27.82
256.351	70.83
256.567	5.29
256.784	-17.24
257	-15.19
257.217	40.11
257.433	19.63
257.65	31.91
257.866	93.35
258.082	3.24
258.299	74.92
258.515	40.11
258.732	103.59
258.948	15.53
259.165	62.63
259.381	62.63
259.597	38.06
259.814	11.43
260.03	-27.48
260.246	-4.95
260.463	62.63
260.679	19.63
260.895	9.39
261.112	25.77
261.328	5.29
261.544	17.58
261.761	107.69
261.977	-21.33
262.193	-7
262.409	42.15
262.626	21.67
262.842	54.44
263.058	13.48
263.274	50.35
263.49	81.07
263.707	58.54
263.923	83.11
264.139	48.3
264.355	42.15
264.571	107.69
264.787	-13.14
265.004	119.98
265.22	-2.9
265.436	27.82
265.652	21.67
265.868	56.49
266.084	38.06
266.3	17.58
266.516	7.34
266.732	33.96
266.948	-88.92
267.164	44.2
267.38	-45.91
267.596	70.83
267.812	19.63
268.028	40.11
268.244	93.35
268.46	-25.43
268.676	19.63
268.892	-11.09
269.108	33.96
269.324	74.92
269.54	44.2
269.756	40.11
269.972	-2.9
270.188	1.19
270.403	-9.05
270.619	21.67
270.835	64.68
271.051	58.54
271.267	-19.29
271.483	48.3
271.698	52.39
271.914	-2.9
272.13	64.68
272.346	-7
272.562	-9.05
272.777	21.67
272.993	54.44
273.209	76.97
273.425	-31.57
273.64	31.91
273.856	46.25
274.072	33.96
274.287	-15.19
274.503	58.54
274.719	29.87
274.934	31.91
275.15	-13.14
275.366	48.3
275.581	95.4
275.797	58.54
276.012	-54.1
276.228	21.67
276.444	5.29
276.659	119.98
276.875	95.4
277.09	74.92
277.306	85.16
277.521	3.24
277.737	42.15
277.952	105.64
278.168	17.58
278.383	60.59
278.599	50.35
278.814	23.72
279.03	21.67
279.245	105.64
279.461	-31.57
279.676	33.96
279.892	36.01
280.107	7.34
280.322	19.63
280.538	7.34
280.753	27.82
280.969	-4.95
281.184	60.59
281.399	68.78
281.615	19.63
281.83	42.15
282.045	62.63
282.26	-11.09
282.476	29.87
282.691	93.35
282.906	48.3
283.122	40.11
283.337	72.87
283.552	25.77
283.767	60.59
283.983	66.73
284.198	48.3
284.413	25.77
284.628	-19.29
284.843	-21.33
285.058	56.49
285.274	62.63
285.489	91.31
285.704	107.69
285.919	46.25
286.134	27.82
286.349	25.77
286.564	33.96
286.779	79.02
286.995	31.91
287.21	17.58
287.425	3.24
287.64	29.87
287.855	36.01
288.07	58.54
288.285	79.02
288.5	97.45
288.715	-37.72
288.93	83.11
289.145	-17.24
289.36	33.96
289.575	25.77
289.79	31.91
290.004	7.34
290.219	93.35
290.434	-25.43
290.649	21.67
290.864	56.49
291.079	-2.9
291.294	58.54
291.509	109.74
291.724	15.53
291.938	58.54
292.153	27.82
292.368	-2.9
292.583	76.97
292.798	36.01
293.012	54.44
293.227	85.16
293.442	68.78
293.657	93.35
293.871	27.82
294.086	134.31
294.301	105.64
294.516	91.31
294.73	79.02
294.945	79.02
295.16	3.24
295.374	11.43
295.589	21.67
295.804	48.3
296.018	-13.14
296.233	79.02
296.447	36.01
296.662	-23.38
296.877	109.74
297.091	150.7
297.306	113.83
297.52	19.63
297.735	81.07
297.949	-17.24
298.164	58.54
298.378	103.59
298.593	-7
298.807	-0.85
299.022	23.72
299.236	31.91
299.451	-33.62
299.665	81.07
299.88	50.35
300.094	46.25
300.309	72.87
300.523	27.82
300.737	42.15
300.952	38.06
301.166	23.72
301.381	79.02
301.595	5.29
301.809	7.34
302.024	50.35
302.238	62.63
302.452	50.35
302.667	-11.09
302.881	111.78
303.095	58.54
303.309	83.11
303.524	72.87
303.738	54.44
303.952	31.91
304.166	17.58
304.381	87.21
304.595	83.11
304.809	15.53
305.023	3.24
305.237	113.83
305.452	58.54
305.666	15.53
305.88	15.53
306.094	-0.85
306.308	13.48
306.522	56.49
306.736	31.91
306.95	21.67
307.164	17.58
307.379	42.15
307.593	46.25
307.807	60.59
308.021	48.3
308.235	40.11
308.449	7.34
308.663	142.5
308.877	79.02
309.091	-7
309.305	109.74
309.519	13.48
309.733	62.63
309.947	13.48
310.161	87.21
310.374	54.44
310.588	42.15
310.802	21.67
311.016	42.15
311.23	97.45
311.444	76.97
311.658	76.97
311.872	-33.62
312.085	66.73
312.299	103.59
312.513	46.25
312.727	40.11
312.941	1.19
313.154	48.3
313.368	9.39
313.582	46.25
313.796	72.87
314.009	-0.85
314.223	46.25
314.437	46.25
314.651	52.39
314.864	38.06
315.078	56.49
315.292	25.77
315.505	17.58
315.719	15.53
315.933	29.87
316.146	29.87
316.36	95.4
316.573	23.72
316.787	66.73
317.001	40.11
317.214	-15.19
317.428	95.4
317.641	-15.19
317.855	42.15
318.068	70.83
318.282	58.54
318.495	54.44
318.709	1.19
318.922	-9.05
319.136	40.11
319.349	38.06
319.563	54.44
319.776	126.12
319.99	33.96
320.203	31.91
320.417	40.11
320.63	56.49
320.843	105.64
321.057	68.78
321.27	56.49
321.483	52.39
321.697	38.06
321.91	97.45
322.124	66.73
322.337	52.39
322.55	36.01
322.763	19.63
322.977	23.72
323.19	11.43
323.403	54.44
323.617	52.39
323.83	42.15
324.043	93.35
324.256	38.06
324.469	9.39
324.683	21.67
324.896	9.39
325.109	50.35
325.322	42.15
325.535	27.82
325.748	33.96
325.962	101.55
326.175	17.58
326.388	74.92
326.601	44.2
326.814	19.63
327.027	72.87
327.24	97.45
327.453	5.29
327.666	64.68
327.879	19.63
328.092	68.78
328.305	76.97
328.518	17.58
328.731	85.16
328.944	93.35
329.157	54.44
329.37	40.11
329.583	107.69
329.796	13.48
330.009	-15.19
330.222	62.63
330.435	64.68
330.648	74.92
330.861	27.82
331.073	50.35
331.286	31.91
331.499	-31.57
331.712	81.07
331.925	42.15
332.138	36.01
332.35	56.49
332.563	-13.14
332.776	23.72
332.989	15.53
333.202	13.48
333.414	7.34
333.627	140.46
333.84	9.39
334.053	15.53
334.265	52.39
334.478	3.24
334.691	62.63
334.903	40.11
335.116	44.2
335.329	-21.33
335.541	68.78
335.754	76.97
335.966	36.01
336.179	56.49
336.392	19.63
336.604	17.58
336.817	19.63
337.029	38.06
337.242	56.49
337.454	89.26
337.667	17.58
337.88	-13.14
338.092	5.29
338.305	50.35
338.517	9.39
338.729	58.54
338.942	44.2
339.154	36.01
339.367	1.19
339.579	36.01
339.792	50.35
340.004	11.43
340.217	-31.57
340.429	-41.81
340.641	25.77
340.854	-0.85
341.066	13.48
341.278	-7
341.491	122.02
341.703	132.26
341.915	60.59
342.128	56.49
342.34	74.92
342.552	60.59
342.764	29.87
342.977	5.29
343.189	74.92
343.401	111.78
343.613	-7
343.826	36.01
344.038	40.11
344.25	76.97
344.462	-21.33
344.674	38.06
344.886	33.96
345.099	107.69
345.311	29.87
345.523	64.68
345.735	70.83
345.947	31.91
346.159	83.11
346.371	74.92
346.583	-47.96
346.795	-21.33
347.007	23.72
347.219	36.01
347.431	76.97
347.643	95.4
347.855	42.15
348.067	44.2
348.279	21.67
348.491	33.96
348.703	11.43
348.915	5.29
349.127	3.24
349.339	19.63
349.551	36.01
349.763	25.77
349.975	142.5
350.187	66.73
350.399	64.68
350.61	13.48
350.822	13.48
351.034	93.35
351.246	56.49
351.458	72.87
351.669	31.91
351.881	62.63
352.093	25.77
352.305	107.69
352.517	42.15
352.728	52.39
352.94	54.44
353.152	52.39
353.363	52.39
353.575	97.45
353.787	128.17
353.999	74.92
354.21	93.35
354.422	56.49
354.633	40.11
354.845	103.59
355.057	74.92
355.268	62.63
355.48	64.68
355.692	-0.85
355.903	105.64
356.115	42.15
356.326	-41.81
356.538	117.93
356.749	36.01
356.961	76.97
357.172	-15.19
357.384	36.01
357.595	72.87
357.807	68.78
358.018	-11.09
358.23	29.87
358.441	95.4
358.653	58.54
358.864	79.02
359.075	58.54
359.287	40.11
359.498	103.59
359.709	79.02
359.921	50.35
360.132	27.82
360.344	5.29
360.555	31.91
360.766	31.91
360.977	76.97
361.189	36.01
361.4	74.92
361.611	74.92
361.823	36.01
362.034	74.92
362.245	27.82
362.456	50.35
362.667	60.59
362.879	7.34
363.09	50.35
363.301	19.63
363.512	42.15
363.723	31.91
363.935	85.16
364.146	97.45
364.357	31.91
364.568	-33.62
364.779	23.72
364.99	66.73
365.201	101.55
365.412	40.11
365.623	-39.76
365.834	99.5
366.045	-52.05
366.256	89.26
366.467	15.53
366.678	81.07
366.889	54.44
367.1	36.01
367.311	46.25
367.522	48.3
367.733	9.39
367.944	29.87
368.155	46.25
368.366	93.35
368.577	79.02
368.788	42.15
368.999	42.15
369.209	29.87
369.42	48.3
369.631	81.07
369.842	97.45
370.053	44.2
370.264	70.83
370.474	64.68
370.685	89.26
370.896	42.15
371.107	40.11
371.317	54.44
371.528	-0.85
371.739	-37.72
371.95	115.88
372.16	74.92
372.371	5.29
372.582	74.92
372.792	103.59
373.003	27.82
373.214	173.22
373.424	140.46
373.635	79.02
373.846	52.39
374.056	70.83
374.267	68.78
374.477	33.96
374.688	11.43
374.898	-7
375.109	119.98
375.319	144.55
375.53	85.16
375.74	60.59
375.951	66.73
376.161	99.5
376.372	97.45
376.582	56.49
376.793	33.96
377.003	52.39
377.214	44.2
377.424	46.25
377.635	50.35
377.845	56.49
378.055	105.64
378.266	23.72
378.476	58.54
378.686	109.74
378.897	38.06
379.107	119.98
379.317	66.73
379.528	72.87
379.738	46.25
379.948	70.83
380.158	66.73
380.369	44.2
380.579	36.01
380.789	48.3
380.999	89.26
381.21	13.48
381.42	107.69
381.63	29.87
381.84	85.16
382.05	40.11
382.261	68.78
382.471	97.45
382.681	54.44
382.891	97.45
383.101	54.44
383.311	31.91
383.521	74.92
383.731	117.93
383.941	91.31
384.151	113.83
384.361	124.07
384.571	99.5
384.781	128.17
384.991	122.02
385.201	81.07
385.411	95.4
385.621	173.22
385.831	19.63
386.041	50.35
386.251	1.19
386.461	85.16
386.671	11.43
386.881	117.93
387.091	17.58
387.301	160.94
387.511	36.01
387.72	132.26
387.93	58.54
388.14	58.54
388.35	117.93
388.56	66.73
388.769	128.17
388.979	50.35
389.189	50.35
389.399	52.39
389.609	60.59
389.818	113.83
390.028	46.25
390.238	99.5
390.447	11.43
390.657	101.55
390.867	48.3
391.076	62.63
391.286	95.4
391.496	23.72
391.705	-4.95
391.915	87.21
392.125	87.21
392.334	144.55
392.544	99.5
392.753	140.46
392.963	27.82
393.172	58.54
393.382	122.02
393.591	140.46
393.801	68.78
394.01	126.12
394.22	95.4
394.429	97.45
394.639	52.39
394.848	95.4
395.058	103.59
395.267	68.78
395.477	126.12
395.686	95.4
395.895	126.12
396.105	134.31
396.314	132.26
396.524	97.45
396.733	72.87
396.942	107.69
397.152	95.4
397.361	183.46
397.57	152.74
397.78	150.7
397.989	68.78
398.198	70.83
398.407	13.48
398.617	109.74
398.826	105.64
399.035	89.26
399.244	140.46
399.453	74.92
399.663	115.88
399.872	205.99
400.081	87.21
400.29	187.56
400.499	87.21
400.708	138.41
400.917	124.07
401.127	44.2
401.336	117.93
401.545	122.02
401.754	128.17
401.963	165.03
402.172	150.7
402.381	109.74
402.59	150.7
402.799	126.12
403.008	183.46
403.217	74.92
403.426	175.27
403.635	171.18
403.844	115.88
404.053	210.09
404.262	101.55
404.471	132.26
404.68	85.16
404.888	169.13
405.097	165.03
405.306	165.03
405.515	169.13
405.724	218.28
405.933	249
406.142	212.14
406.35	224.42
406.559	201.9
406.768	261.29
406.977	281.77
407.185	191.66
407.394	273.57
407.603	222.38
407.812	265.38
408.02	302.25
408.229	255.14
408.438	244.9
408.646	218.28
408.855	316.58
409.064	267.43
409.272	246.95
409.481	289.96
409.69	314.53
409.898	287.91
410.107	355.49
410.315	375.97
410.524	310.44
410.733	414.88
410.941	398.5
411.15	386.21
411.358	445.6
411.567	490.66
411.775	402.6
411.984	459.94
412.192	482.47
412.401	523.43
412.609	521.38
412.818	535.71
413.026	498.85
413.234	629.92
413.443	619.68
413.651	562.34
413.86	687.26
414.068	631.97
414.276	670.88
414.485	705.7
414.693	760.99
414.901	750.75
415.11	752.8
415.318	857.25
415.526	877.73
415.734	873.63
415.943	789.66
416.151	924.83
416.359	894.11
416.567	957.6
416.776	998.56
416.984	965.79
417.192	1086.62
417.4	1078.43
417.608	971.93
417.817	1139.87
418.025	1201.3
418.233	1252.5
418.441	1359
418.649	1272.98
418.857	1455.25
419.065	1463.44
419.273	1428.63
419.481	1537.17
419.689	1598.61
419.897	1684.62
420.105	1741.97
420.313	1713.3
420.521	1815.69
420.729	1844.37
420.937	1950.86
421.145	1981.58
421.353	2000.01
421.561	2245.77
421.769	2208.9
421.977	2194.57
422.185	2202.76
422.393	2391.17
422.601	2503.81
422.809	2575.49
423.017	2663.55
423.224	2614.4
423.432	2757.76
423.64	2845.82
423.848	3089.53
424.056	2935.93
424.263	3279.99
424.471	3208.31
424.679	3163.26
424.887	3454.07
425.094	3394.68
425.302	3650.67
425.51	3734.64
425.718	3832.94
425.925	3810.42
426.133	4060.27
426.341	4201.58
426.548	4437.09
426.756	4316.26
426.964	4441.19
427.171	4709.47
427.379	4713.57
427.586	4918.37
427.794	4988
428.001	5246.04
428.209	5559.38
428.417	5620.82
428.624	5837.91
428.832	5803.09
429.039	5770.32
429.247	5839.95
429.454	6468.68
429.662	6593.61
429.869	6523.98
430.076	6937.66
430.284	6687.81
430.491	6900.8
430.699	7418.94
430.906	7373.88
431.114	7361.59
431.321	7732.28
431.528	7849.01
431.736	8410.15
431.943	8729.64
432.15	8395.82
432.358	8608.81
432.565	9106.46
432.772	8944.67
432.979	9454.62
433.187	9665.56
433.394	9620.5
433.601	10343.44
433.808	10376.2
434.016	10435.6
434.223	10949.64
434.43	11340.8
434.637	11074.56
434.844	11959.28
435.052	12069.87
435.259	12078.07
435.466	12078.07
435.673	11926.52
435.88	12848.1
436.087	13630.43
436.294	13448.16
436.501	13196.26
436.708	13456.35
436.915	13997.01
437.122	14619.6
437.329	14420.94
437.537	15137.73
437.743	15018.95
437.95	15043.53
438.157	15809.47
438.364	16446.38
438.571	16292.79
438.778	16702.38
438.985	18138.01
439.192	17234.85
439.399	17920.92
439.606	17640.35
439.813	18697.1
440.02	19749.76
440.227	19114.89
440.433	18946.95
440.64	19876.73
440.847	19551.1
441.054	20300.66
441.261	21392.23
441.467	21240.68
441.674	21910.36
441.881	22326.1
442.088	22166.36
442.294	22258.52
442.501	22555.47
442.708	23139.15
442.914	24275.77
443.121	25211.69
443.328	24314.68
443.534	26202.91
443.741	25588.52
443.948	25240.36
444.154	27144.97
444.361	27011.85
444.568	27142.92
444.774	27046.67
444.981	27171.6
445.187	28236.54
445.394	29405.93
445.6	29287.15
445.807	31972.03
446.013	30554.84
446.22	31007.44
446.426	32121.54
446.633	32379.58
446.839	33823.4
447.046	32252.61
447.252	34036.39
447.459	34091.68
447.665	33923.75
447.871	35670.67
448.078	36811.38
448.284	34886.29
448.491	36315.78
448.697	37505.65
448.903	38081.13
449.11	38382.18
449.316	37364.34
449.522	38586.97
449.728	39219.8
449.935	39436.88
450.141	39481.94
450.347	40153.67
450.553	39092.82
450.76	39406.16
450.966	40976.95
451.172	40274.5
451.378	41298.48
451.584	40622.65
451.791	41384.5
451.997	40852.03
452.203	41775.66
452.409	41699.89
452.615	41615.92
452.821	40057.42
453.027	39627.34
453.233	41812.52
453.44	40065.61
453.646	40544.83
453.852	40698.43
454.058	41802.28
454.264	39680.59
454.47	40763.96
454.676	39840.33
454.882	41302.58
455.088	37505.65
455.294	37804.65
455.5	38328.93
455.705	38853.21
455.911	37388.91
456.117	36434.56
456.323	36055.68
456.529	34507.42
456.735	35584.65
456.941	34722.46
457.147	34167.46
457.352	33004.21
457.558	32823.99
457.764	32910
457.97	32148.16
458.176	31075.02
458.381	31673.03
458.587	30026.46
458.793	29854.44
458.999	27941.63
459.204	30245.6
459.41	29158.13
459.616	27581.19
459.821	27421.45
460.027	27196.17
460.233	26651.41
460.438	25459.49
460.644	25643.81
460.85	24554.29
461.055	23939.9
461.261	23946.05
461.466	22430.55
461.672	21656.42
461.878	23468.87
462.083	21545.83
462.289	21336.93
462.494	20953.96
462.7	20228.98
462.905	19696.51
463.111	20007.8
463.316	20259.7
463.522	19698.56
463.727	19796.86
463.932	19604.35
464.138	19495.81
464.343	19825.53
464.549	19090.31
464.754	19831.68
464.959	19608.45
465.165	19504
465.37	18699.15
465.575	17929.11
465.781	18746.25
465.986	18772.88
466.191	18381.71
466.397	17773.47
466.602	17081.25
466.807	17922.97
467.012	17787.8
467.218	17548.19
467.423	17408.93
467.628	17525.66
467.833	18115.48
468.038	17728.41
468.244	17089.45
468.449	17738.65
468.654	17370.02
468.859	17101.73
469.064	16976.81
469.269	16370.61
469.474	16237.49
469.679	16683.95
469.885	15993.78
470.09	16466.86
470.295	16260.02
470.5	15688.64
470.705	16001.97
470.91	15694.78
471.115	15422.4
471.32	15705.02
471.525	15676.35
471.73	15254.47
471.935	15070.15
472.139	14652.36
472.344	14748.62
472.549	14963.65
472.754	14568.4
472.959	14109.65
473.164	13890.52
473.369	13767.64
473.574	14113.75
473.778	14154.71
473.983	14232.53
474.188	13876.18
474.393	13566.94
474.598	13401.05
474.802	13204.45
475.007	13198.31
475.212	13298.66
475.417	12717.03
475.621	12717.03
475.826	12844.01
476.031	12401.65
476.235	12250.1
476.44	12235.76
476.645	11955.19
476.849	12127.22
477.054	11961.33
477.259	11897.85
477.463	11701.24
477.668	11619.32
477.872	11807.73
478.077	11480.06
478.282	11209.73
478.486	11011.07
478.691	11162.62
478.895	10880
479.1	11041.79
479.304	10818.57
479.509	10513.42
479.713	10863.62
479.918	10398.73
480.122	10667.02
480.326	10660.87
480.531	10621.96
480.735	10462.22
480.94	10392.59
481.144	10492.94
481.348	10261.52
481.553	10302.48
481.757	10261.52
481.961	10126.35
482.166	10365.96
482.37	10185.74
482.574	9999.38
482.778	10273.81
482.983	10091.54
483.187	10236.94
483.391	10353.68
483.595	10265.61
483.8	10009.62
484.004	10232.85
484.208	10216.46
484.412	10066.96
484.616	10251.28
484.821	10062.87
485.025	9864.21
485.229	10292.24
485.433	9968.66
485.637	9968.66
485.841	10189.84
486.045	10009.62
486.249	9972.75
486.453	9976.85
486.657	10075.15
486.861	10087.44
487.065	10044.43
487.269	9962.51
487.473	9884.69
487.677	10173.46
487.881	10146.83
488.085	10251.28
488.289	10032.15
488.493	10112.02
488.697	10269.71
488.901	10087.44
489.105	10165.26
489.309	10095.63
489.512	10079.25
489.716	10198.03
489.92	10368.01
490.124	10146.83
490.328	10521.61
490.531	10327.05
490.735	10542.09
490.939	10382.35
491.143	10427.4
491.346	10300.43
491.55	10673.16
491.754	10476.55
491.958	10720.26
492.161	10482.7
492.365	10478.6
492.569	10408.97
492.772	10642.44
492.976	10687.5
493.18	10746.89
493.383	11004.93
493.587	11187.2
493.79	11054.08
493.994	10781.7
494.197	10945.54
494.401	11189.25
494.605	11332.61
494.808	11357.18
495.012	11099.14
495.215	11484.16
495.419	11559.93
495.622	11439.1
495.825	11758.58
496.029	11588.6
496.232	11805.69
496.436	11787.25
496.639	12223.47
496.843	12059.63
497.046	12583.91
497.249	12499.95
497.453	12676.07
497.656	12637.16
497.859	12329.97
498.063	12757.99
498.266	13157.35
498.469	13005.8
498.673	13188.07
498.876	13114.34
499.079	13448.16
499.282	13384.67
499.485	13962.2
499.689	14033.88
499.892	14123.99
500.095	14132.18
500.298	14529.48
500.501	14386.13
500.705	14662.6
500.908	14812.1
501.111	15166.4
501.314	15078.34
501.517	15338.43
501.72	15444.93
501.923	15340.48
502.126	15817.66
502.329	15850.42
502.532	16098.23
502.735	16036.79
502.938	16649.13
503.141	16786.35
503.344	16833.45
503.547	16894.89
503.75	17306.53
503.953	17632.16
504.156	17367.97
504.359	17656.73
504.562	17662.88
504.765	17865.63
504.968	18129.81
505.17	18267.03
505.373	18348.95
505.576	18920.33
505.779	18905.99
505.982	19219.33
506.185	19284.87
506.387	19700.61
506.59	19733.37
506.793	19815.29
506.996	19907.45
507.198	20525.94
507.401	20505.46
507.604	20573.04
507.807	21263.21
508.009	21404.52
508.212	20999.02
508.415	21642.08
508.617	21818.21
508.82	21984.09
509.022	21932.89
509.225	22260.57
509.428	22778.7
509.63	22438.74
509.833	22680.4
510.035	23436.1
510.238	23053.13
510.44	23718.72
510.643	23681.86
510.845	24296.25
511.048	24083.26
511.25	24353.59
511.453	24421.17
511.655	25291.56
511.858	25262.89
512.06	25330.47
512.262	25486.12
512.465	25600.8
512.667	25948.96
512.87	26092.32
513.072	26221.34
513.274	26872.59
513.477	26876.69
513.679	27212.56
513.881	27302.67
514.084	27876.1
514.286	27620.1
514.488	27978.5
514.69	28908.27
514.893	28965.62
515.095	28795.64
515.297	29385.45
515.499	29113.07
515.701	29803.24
515.904	29786.85
516.106	30311.13
516.308	30167.77
516.51	30413.53
516.712	30743.25
516.914	30599.9
517.116	31173.33
517.318	31109.84
517.52	31601.35
517.722	32008.9
517.925	31941.32
518.127	32580.28
518.329	32654.01
518.531	32545.47
518.733	33082.03
518.935	33170.1
519.136	33315.5
519.338	34386.59
519.54	33716.9
519.742	34243.23
519.944	34333.34
520.146	35150.48
520.348	35207.83
520.55	35113.62
520.752	35164.82
520.954	36309.63
521.155	35801.74
521.357	36385.41
521.559	36674.17
521.761	37048.95
521.963	36772.47
522.164	37155.44
522.366	37259.89
522.568	37575.28
522.77	37829.23
522.971	38345.31
523.173	38085.22
523.375	38437.47
523.576	38519.39
523.778	38556.25
523.98	39119.45
524.181	39252.56
524.383	38939.22
524.584	39488.08
524.786	39658.06
524.988	39625.29
525.189	39844.43
525.391	40403.52
525.592	39959.11
525.794	40172.1
525.995	40555.07
526.197	40618.56
526.398	40964.67
526.6	41325.11
526.801	40903.23
527.003	41421.36
527.204	41273.91
527.406	41478.71
527.607	41654.83
527.808	41898.54
528.01	41515.57
528.211	41646.64
528.412	42328.61
528.614	42101.29
528.815	42330.66
529.016	42689.06
529.218	41990.7
529.419	42299.94
529.62	42158.63
529.822	42582.56
530.023	42525.22
530.224	42357.28
530.425	41976.36
530.626	42793.5
530.828	42568.23
531.029	43262.49
531.23	42760.73
531.431	42938.91
531.632	43059.74
531.833	43176.47
532.035	43508.24
532.236	43422.23
532.437	43811.34
532.638	43274.77
532.839	43448.85
533.04	43555.35
533.241	42891.8
533.442	43721.23
533.643	43348.5
533.844	43250.2
534.045	43377.17
534.246	42856.99
534.447	43461.14
534.648	43082.27
534.849	43493.91
535.05	43407.89
535.251	43870.73
535.451	43524.63
535.652	43807.25
535.853	43547.15
536.054	43285.01
536.255	43514.39
536.456	43373.08
536.657	44130.83
536.857	43606.55
537.058	43575.83
537.259	43530.77
537.46	43168.28
537.66	43375.12
537.861	43414.04
538.062	43246.1
538.263	43248.15
538.463	43135.51
538.664	43090.46
538.865	43598.35
539.065	43280.92
539.266	43278.87
539.466	43850.25
539.667	42861.08
539.868	43764.24
540.068	43250.2
540.269	43407.89
540.469	43330.07
540.67	43088.41
540.87	43117.08
541.071	43641.36
541.271	43317.78
541.472	43248.15
541.672	43039.26
541.873	42928.67
542.073	42768.93
542.274	43229.72
542.474	42928.67
542.675	42523.17
542.875	43436.56
543.075	43194.9
543.276	42920.48
543.476	43063.83
543.676	42889.76
543.877	43268.63
544.077	43088.41
544.277	42576.42
544.478	42609.18
544.678	42963.48
544.878	43049.5
545.078	42644
545.279	42304.04
545.479	42648.1
545.679	42871.32
545.879	42789.41
546.079	42502.69
546.28	42746.4
546.48	42396.2
546.68	42906.14
546.88	42514.98
547.08	42768.93
547.28	42818.08
547.48	42375.72
547.68	42592.8
547.88	42142.25
548.081	42687.01
548.281	42617.38
548.481	42498.59
548.681	42750.49
548.881	42402.34
549.081	42617.38
549.28	42164.78
549.48	42527.27
549.68	42461.73
549.88	43022.87
550.08	42084.9
550.28	42662.43
550.48	42177.06
550.68	42744.35
550.88	41953.83
551.08	42070.57
551.279	42445.35
551.479	42443.3
551.679	41912.88
551.879	42052.14
552.079	42588.7
552.278	42228.26
552.478	42480.16
552.678	42033.71
552.878	42203.69
553.077	41886.25
553.277	41841.2
553.477	42510.88
553.676	42218.02
553.876	42246.69
554.076	42287.65
554.275	41577.01
554.475	41450.03
554.674	41894.44
554.874	42144.3
555.074	41681.45
555.273	41814.57
555.473	41896.49
555.672	41587.25
555.872	41507.38
556.071	41744.94
556.271	42142.25
556.47	41480.75
556.67	41568.82
556.869	41452.08
557.068	41531.95
557.268	41046.58
557.467	41562.67
557.667	41089.59
557.866	41300.53
558.065	41110.07
558.265	40942.14
558.464	41065.02
558.663	41644.59
558.863	40843.84
559.062	41515.57
559.261	41040.44
559.461	41261.62
559.66	40800.83
559.859	41013.82
560.058	40602.18
560.258	40802.88
560.457	40518.21
560.656	40563.26
560.855	40512.06
561.054	40985.15
561.253	40378.95
561.453	40297.03
561.652	40514.11
561.851	40671.81
562.05	40231.49
562.249	39944.78
562.448	40182.34
562.647	40196.68
562.846	40047.18
563.045	40262.21
563.244	39508.56
563.443	40413.76
563.642	39455.31
563.841	40032.84
564.04	39735.88
564.239	39879.24
564.438	39443.02
564.637	39762.51
564.836	39647.82
565.035	39281.24
565.234	39236.18
565.432	38802.01
565.631	38883.93
565.83	39072.34
566.029	38933.08
566.228	38808.15
566.427	38832.73
566.625	38867.55
566.824	38509.15
567.023	38767.2
567.222	37978.73
567.42	38675.04
567.619	38898.27
567.818	38353.51
568.016	38206.05
568.215	38443.62
568.414	37689.96
568.612	38242.92
568.811	37790.31
569.01	38218.34
569.208	37775.98
569.407	38099.56
569.605	37468.78
569.804	38027.88
570.002	37362.29
570.201	37538.41
570.4	37495.41
570.598	37286.51
570.797	37003.89
570.995	37288.56
571.193	36815.48
571.392	37216.88
571.59	37096.05
571.789	36854.39
571.987	36651.64
572.186	36749.95
572.384	36616.83
572.582	36913.78
572.781	36840.06
572.979	36383.36
573.177	36602.49
573.376	36407.94
573.574	36080.26
573.772	36260.48
573.971	36096.64
574.169	36033.16
574.367	35867.27
574.565	35879.56
574.763	35631.75
574.962	35551.88
575.16	35084.95
575.358	35508.88
575.556	34898.58
575.754	35517.07
575.952	35023.51
576.151	35572.36
576.349	34957.97
576.547	34708.12
576.745	34661.02
576.943	34966.17
577.141	34790.04
577.339	34542.24
577.537	34724.5
577.735	34327.2
577.933	34423.45
578.131	34704.03
578.329	34327.2
578.527	34146.98
578.725	33893.03
578.923	33886.89
579.121	33761.96
579.319	33526.44
579.516	34063.01
579.714	33735.34
579.912	33573.55
580.11	33555.11
580.308	33620.65
580.506	33098.42
580.704	32481.98
580.901	33278.64
581.099	33290.93
581.297	33155.76
581.495	32518.84
581.692	33196.72
581.89	32717.5
582.088	33006.26
582.285	32692.92
582.483	32596.67
582.681	32582.33
582.878	32316.09
583.076	31742.66
583.274	32557.75
583.471	31929.03
583.669	32029.38
583.866	31871.68
584.064	32023.23
584.262	31599.3
584.459	31886.02
584.657	31593.16
584.854	31763.14
585.052	30841.56
585.249	31562.44
585.447	31431.37
585.644	31072.98
585.841	31083.22
586.039	31253.2
586.236	30915.28
586.434	30980.82
586.631	30780.12
586.828	30925.52
587.026	30554.84
587.223	30589.66
587.42	30589.66
587.618	30669.53
587.815	30311.13
588.012	30087.9
588.21	30194.4
588.407	30255.84
588.604	29813.48
588.801	29836
588.999	29975.27
589.196	29563.62
589.393	29786.85
589.59	29471.46
589.787	29182.7
589.984	29209.32
590.182	29084.4
590.379	29137.65
590.576	29238
590.773	29356.78
590.97	28846.83
591.167	28820.21
591.364	28797.68
591.561	28707.57
591.758	28801.78
591.955	28576.5
592.152	28635.89
592.349	28674.81
592.546	28109.57
592.743	28175.1
592.94	27960.06
593.137	27841.28
593.334	28140.29
593.531	27859.71
593.727	27867.91
593.924	27921.15
594.121	27456.26
594.318	27755.27
594.515	27312.91
594.712	28103.42
594.908	27325.19
595.105	27396.87
595.302	27192.08
595.499	26983.18
595.696	26950.42
595.892	26831.63
596.089	26876.69
596.286	26954.51
596.482	26618.64
596.679	26643.22
596.876	26788.63
597.072	26385.18
597.269	26643.22
597.466	26415.9
597.662	26223.39
597.859	26084.12
598.055	26278.68
598.252	25656.1
598.448	26295.07
598.645	25809.7
598.841	25690.91
599.038	25832.22
599.234	25944.86
599.431	25455.4
599.627	25228.07
599.824	25570.08
600.02	25144.11
600.217	25396.01
600.413	25379.62
600.609	25109.29
600.806	24795.95
601.002	25340.71
601.198	25049.9
601.395	24705.84
601.591	25021.23
601.787	24765.23
601.984	24857.39
602.18	24711.99
602.376	24345.4
602.572	24298.3
602.769	24419.13
602.965	24087.36
603.161	24367.93
603.357	23798.59
603.553	23950.14
603.75	24130.36
603.946	23751.49
604.142	23786.3
604.338	23432.01
604.534	23802.69
604.73	23589.7
604.926	23681.86
605.122	23509.83
605.318	23472.96
605.514	23022.41
605.71	23077.71
605.906	23087.95
606.102	23120.71
606.298	23337.8
606.494	22932.3
606.69	22973.26
606.886	22922.06
607.082	22373.21
607.278	22582.1
607.474	22487.89
607.67	22631.25
607.866	22414.16
608.062	22922.06
608.257	22580.05
608.453	22371.16
608.649	22453.08
608.845	22158.17
609.041	22375.25
609.236	22399.83
609.432	22100.83
609.628	22031.19
609.824	22227.8
610.019	21996.38
610.215	22164.31
610.411	22004.57
610.606	21973.85
610.802	22020.95
610.998	21769.05
611.193	21947.23
611.389	21715.81
611.584	21640.03
611.78	21537.63
611.976	21539.68
612.171	21666.66
612.367	21490.53
612.562	21592.93
612.758	21218.15
612.953	21300.07
613.149	21529.44
613.344	21015.4
613.539	21513.06
613.735	21252.97
613.93	21355.36
614.126	20915.05
614.321	21361.51
614.517	21402.47
614.712	20945.77
614.907	20771.69
615.103	21097.32
615.298	20919.15
615.493	20999.02
615.688	20650.86
615.884	21095.27
616.079	20589.42
616.274	20519.79
616.47	20448.11
616.665	20573.04
616.86	20507.51
617.055	20360.05
617.25	20202.36
617.445	20554.61
617.641	20204.41
617.836	20413.3
618.031	20054.9
618.226	20239.22
618.421	20159.35
618.616	19962.75
618.811	19938.17
619.006	20159.35
619.201	19547.01
619.396	19553.15
619.591	19491.71
619.786	19803
619.981	19512.19
620.176	19600.26
620.371	19067.78
620.566	18998.15
620.761	19200.9
620.956	19319.68
621.151	19032.97
621.346	19084.17
621.541	18723.72
621.735	19061.64
621.93	18592.65
622.125	18559.89
622.32	18307.99
622.515	18260.88
622.709	18056.09
622.904	18402.19
623.099	17968.02
623.294	18146.2
623.488	17937.3
623.683	17855.39
623.878	17802.14
624.072	17763.23
624.267	17828.76
624.462	17507.23
624.656	17017.77
624.851	17361.83
625.046	17179.56
625.24	16960.42
625.435	16845.74
625.629	16741.29
625.824	16726.96
626.018	16796.59
626.213	16253.87
626.407	16462.77
626.602	16260.02
626.796	16423.86
626.991	16219.06
627.185	16343.99
627.38	16042.93
627.574	15940.54
627.768	16032.69
627.963	15641.53
628.157	15696.83
628.352	15803.32
628.546	15430.59
628.74	15657.92
628.935	15514.56
629.129	15524.8
629.323	15215.55
629.517	15129.54
629.712	14906.31
629.906	15045.57
630.1	14644.17
630.294	14859.21
630.489	14820.3
630.683	14666.7
630.877	14457.81
631.071	14666.7
631.265	14574.54
631.459	14257.11
631.653	14345.17
631.848	14463.95
632.042	14105.56
632.236	14171.09
632.43	13818.84
632.624	14119.89
632.818	13779.93
633.012	13822.94
633.206	13900.76
633.4	13820.89
633.594	13585.37
633.788	13476.83
633.982	13583.32
634.176	13229.02
634.369	13370.33
634.563	13333.47
634.757	13128.67
634.951	13272.03
635.145	13106.15
635.339	13130.72
635.533	12997.6
635.726	12921.83
635.92	12710.89
636.114	12733.42
636.308	12592.11
636.501	12665.83
636.695	12559.34
636.889	12321.77
637.083	12418.03
637.276	12231.66
637.47	12411.89
637.664	12159.99
637.857	12172.27
638.051	11961.33
638.244	11846.65
638.438	11957.24
638.632	11961.33
638.825	11770.87
639.019	11930.61
639.212	11535.35
639.406	11779.06
639.599	11443.2
639.793	11531.26
639.986	11129.86
640.18	11201.54
640.373	11279.36
640.567	11074.56
640.76	11256.83
640.954	11250.69
641.147	11090.95
641.34	10974.21
641.534	11000.83
641.727	10853.38
641.92	11113.47
642.114	10769.41
642.307	10718.22
642.5	10656.78
642.694	10529.8
642.887	10501.13
643.08	10605.58
643.273	10634.25
643.467	10413.07
643.66	10327.05
643.853	10124.3
644.046	10189.84
644.239	10312.72
644.432	10062.87
644.626	10030.1
644.819	10036.24
645.012	10185.74
645.205	9933.84
645.398	9985.04
645.591	9788.44
645.784	9462.81
645.977	9579.54
646.17	9800.73
646.363	9714.71
646.556	9286.68
646.749	9602.07
646.942	9497.63
647.135	9387.04
647.328	9339.93
647.521	9106.46
647.714	9317.4
647.907	9364.51
648.099	9266.21
648.292	9241.63
648.485	9008.16
648.678	9126.94
648.871	8807.46
649.064	9002.02
649.256	8829.99
649.449	8897.57
649.642	8801.32
649.835	8858.66
650.027	8414.25
650.22	8563.75
650.413	8473.64
650.605	8584.23
650.798	8576.04
650.991	8420.39
651.183	8604.71
651.376	8375.34
651.568	8389.67
651.761	8248.36
651.954	8207.41
652.146	8162.35
652.339	8092.72
652.531	8154.16
652.724	7982.13
652.916	8004.66
653.109	8141.87
653.301	8059.95
653.494	7851.06
653.686	7982.13
653.879	7885.87
654.071	7818.29
654.263	7619.64
654.456	7783.48
654.648	7777.33
654.84	7484.47
655.033	7564.34
655.225	7676.98
655.417	7361.59
655.61	7523.38
655.802	7570.49
655.994	7382.07
656.186	7287.87
656.379	7232.57
656.571	7074.88
656.763	7101.5
656.955	7005.25
657.148	7060.54
657.34	7316.54
657.532	7054.4
657.724	7087.17
657.916	7183.42
658.108	7021.63
658.3	6913.09
658.492	7007.3
658.684	6683.72
658.876	6644.81
659.068	6716.48
659.26	6808.64
659.452	6577.22
659.644	6612.04
659.836	6630.47
660.028	6667.33
660.22	6638.66
660.412	6526.02
660.604	6337.61
660.796	6478.92
660.988	6509.64
661.18	6444.1
661.372	6278.22
661.563	6380.62
661.755	6167.63
661.947	6272.07
662.139	6235.21
662.331	6165.58
662.522	6118.48
662.714	5987.41
662.906	6009.93
663.097	6173.77
663.289	5999.7
663.481	6100.05
663.673	5825.62
663.864	5991.5
664.056	5809.23
664.247	5968.98
664.439	5760.08
664.631	6081.61
664.822	5778.51
665.014	5702.74
665.205	5655.64
665.397	5710.93
665.588	5758.03
665.78	5471.32
665.971	5586.01
666.163	5485.65
666.354	5649.49
666.546	5526.61
666.737	5409.88
666.929	5456.98
667.12	5438.55
667.311	5551.19
667.503	5373.02
667.694	5469.27
667.885	5356.63
668.077	5413.98
668.268	5194.84
668.459	5168.22
668.651	5299.29
668.842	5153.88
669.033	5317.72
669.224	5160.03
669.416	5289.05
669.607	5151.84
669.798	5092.44
669.989	5076.06
670.18	4955.23
670.371	5012.57
670.563	5074.01
670.754	4996.19
670.945	4957.28
671.136	5139.55
671.327	4926.56
671.518	4926.56
671.709	4854.88
671.9	4932.7
672.091	4777.06
672.282	4912.22
672.473	4740.19
672.664	4793.44
672.855	4822.11
673.046	4691.04
673.237	4910.18
673.428	4742.24
673.619	4736.1
673.809	4623.46
674	4637.8
674.191	4670.56
674.382	4586.6
674.573	4623.46
674.764	4699.23
674.954	4645.99
675.145	4775.01
675.336	4553.83
675.527	4564.07
675.717	4566.12
675.908	4453.48
676.099	4543.59
676.289	4412.52
676.48	4459.62
676.671	4482.15
676.861	4379.75
677.052	4512.87
677.243	4312.17
677.433	4420.71
677.624	4367.46
677.814	4351.08
678.005	4281.45
678.195	4236.39
678.386	4310.12
678.576	4201.58
678.767	4320.36
678.957	4220.01
679.148	4420.71
679.338	4285.55
679.529	4226.15
679.719	4148.33
679.909	4297.83
680.1	4191.34
680.29	4240.49
680.481	4066.41
680.671	4119.66
680.861	4211.82
681.052	4232.3
681.242	4191.34
681.432	4013.17
681.622	4111.47
681.813	4109.42
682.003	4086.89
682.193	4109.42
682.383	4097.13
682.573	3925.1
682.764	4015.21
682.954	4105.32
683.144	4093.04
683.334	4068.46
683.524	3818.61
683.714	4021.36
683.904	3933.29
684.094	4052.08
684.284	3933.29
684.474	3927.15
684.664	3957.87
684.854	3929.2
685.044	3918.96
685.234	3869.81
685.424	3873.9
685.614	3697.78
685.804	3841.14
685.994	3843.18
686.184	3791.98
686.374	3998.83
686.564	3851.38
686.753	3734.64
686.943	3652.72
687.133	3738.74
687.323	3746.93
687.513	3652.72
687.702	3644.53
687.892	3531.89
688.082	3671.15
688.272	3562.61
688.461	3587.19
688.651	3579
688.841	3601.52
689.03	3716.21
689.22	3548.28
689.41	3427.45
689.599	3486.84
689.789	3480.69
689.979	3548.28
690.168	3355.77
690.358	3431.54
690.547	3417.21
690.737	3435.64
690.926	3341.43
691.116	3433.59
691.305	3435.64
691.495	3220.6
691.684	3265.66
691.874	3306.62
692.063	3310.71
692.252	3241.08
692.442	3210.36
692.631	3173.5
692.82	3366.01
693.01	3415.16
693.199	3232.89
693.388	3202.17
693.578	3130.49
693.767	3245.18
693.956	3286.14
694.146	3193.98
694.335	3107.96
694.524	3142.78
694.713	3093.63
694.902	3132.54
695.092	3171.45
695.281	3122.3
695.47	3118.2
695.659	3126.39
695.848	3103.87
696.037	3120.25
696.226	3089.53
696.415	3091.58
696.604	3079.29
696.793	2985.09
696.982	2985.09
697.171	3026.04
697.36	3036.28
697.549	2978.94
697.738	2985.09
697.927	2921.6
698.116	3116.16
698.305	3052.67
698.494	2866.3
698.683	3062.91
698.872	2948.22
699.061	2876.54
699.25	2929.79
699.438	2944.13
699.627	3007.61
699.816	3024
700.005	2983.04
700.193	3128.44
700.382	2952.32
700.571	2911.36
700.76	3075.2
700.948	2946.17
701.137	2940.03
701.326	2999.42
701.514	2948.22
701.703	2946.17
701.892	2837.63
702.08	2978.94
702.269	2880.64
702.457	2940.03
702.646	2974.85
702.834	3026.04
703.023	2866.3
703.212	3071.1
703.4	3034.24
703.589	2989.18
703.777	3058.81
703.965	2929.79
704.154	3028.09
704.342	2880.64
704.531	3007.61
704.719	2913.41
704.907	2991.23
705.096	2841.73
705.284	3015.8
705.472	2911.36
705.661	2919.55
705.849	2911.36
706.037	2815.1
706.226	2876.54
706.414	2905.21
706.602	2927.74
706.79	2890.88
706.979	2847.87
707.167	2903.17
707.355	2944.13
707.543	2843.78
707.731	2913.41
707.919	2968.7
708.107	3003.52
708.296	2901.12
708.484	2897.02
708.672	3017.85
708.86	2960.51
709.048	2925.69
709.236	2780.29
709.424	2931.84
709.612	2976.89
709.8	2921.6
709.988	2897.02
710.176	2874.49
710.364	2909.31
710.551	2993.28
710.739	2768
710.927	2966.65
711.115	2880.64
711.303	2944.13
711.491	3038.33
711.679	2933.89
711.866	3056.76
712.054	2940.03
712.242	2854.02
712.43	2925.69
712.617	2860.16
712.805	2854.02
712.993	2815.1
713.181	2872.45
713.368	2829.44
713.556	2890.88
713.744	2989.18
713.931	3095.68
714.119	2985.09
714.306	2890.88
714.494	2972.8
714.682	2901.12
714.869	2999.42
715.057	2954.37
715.244	2821.25
715.432	2892.93
715.619	2925.69
715.807	2890.88
715.994	2970.75
716.182	2909.31
716.369	2890.88
716.556	2921.6
716.744	2782.34
716.931	2940.03
717.119	2792.58
717.306	2872.45
717.493	2886.78
717.681	2796.67
717.868	2882.69
718.055	2847.87
718.242	2858.11
718.43	2849.92
718.617	2940.03
718.804	2802.82
718.991	2862.21
719.179	2729.09
719.366	2823.3
719.553	2815.1
719.74	2980.99
719.927	2925.69
720.114	2911.36
720.301	2794.62
720.488	2821.25
720.676	2897.02
720.863	2866.3
721.05	2866.3
721.237	2856.06
721.424	2823.3
721.611	2833.54
721.798	2894.97
721.985	2776.19
722.172	2694.27
722.358	2770.05
722.545	2698.37
722.732	2661.51
722.919	2880.64
723.106	2778.24
723.293	2923.65
723.48	2772.1
723.667	2782.34
723.853	2897.02
724.04	2741.38
724.227	2948.22
724.414	2813.06
724.6	2882.69
724.787	2712.71
724.974	2759.81
725.161	2874.49
725.347	2706.56
725.534	2882.69
725.72	2763.9
725.907	2796.67
726.094	2823.3
726.28	2722.95
726.467	2761.86
726.653	2833.54
726.84	2768
727.027	2903.17
727.213	2579.59
727.4	2727.04
727.586	2886.78
727.773	2851.97
727.959	2765.95
728.145	2854.02
728.332	2854.02
728.518	2763.9
728.705	2641.03
728.891	2722.95
729.077	2800.77
729.264	2788.48
729.45	2737.28
729.636	2751.62
729.823	2774.14
730.009	2634.88
730.195	2739.33
730.382	2581.64
730.568	2645.12
730.754	2753.66
730.94	2735.23
731.126	2735.23
731.313	2679.94
731.499	2710.66
731.685	2716.8
731.871	2643.07
732.057	2729.09
732.243	2684.03
732.429	2772.1
732.615	2733.18
732.801	2686.08
732.987	2747.52
733.173	2716.8
733.359	2604.16
733.545	2700.42
733.731	2655.36
733.917	2694.27
734.103	2684.03
734.289	2647.17
734.475	2667.65
734.661	2718.85
734.847	2548.87
735.033	2733.18
735.219	2610.31
735.404	2616.45
735.59	2585.73
735.776	2595.97
735.962	2669.7
736.148	2540.68
736.333	2595.97
736.519	2659.46
736.705	2716.8
736.89	2583.68
737.076	2630.79
737.262	2499.72
737.447	2657.41
737.633	2577.54
737.819	2606.21
738.004	2587.78
738.19	2610.31
738.375	2557.06
738.561	2505.86
738.747	2559.11
738.932	2409.61
739.118	2550.92
739.303	2428.04
739.489	2407.56
739.674	2518.15
739.859	2432.13
740.045	2460.81
740.23	2458.76
740.416	2419.85
740.601	2491.52
740.786	2438.28
740.972	2391.17
741.157	2366.6
741.342	2385.03
741.528	2387.08
741.713	2446.47
741.898	2401.41
742.084	2430.09
742.269	2366.6
742.454	2344.07
742.639	2389.13
742.824	2303.11
743.01	2245.77
743.195	2315.4
743.38	2391.17
743.565	2428.04
743.75	2288.78
743.935	2147.47
744.12	2325.64
744.305	2137.23
744.49	2139.27
744.675	2223.24
744.86	2235.53
745.045	2206.86
745.23	2276.49
745.415	2106.51
745.6	2186.38
745.785	2157.71
745.97	2108.55
746.155	2141.32
746.34	2200.71
746.525	2135.18
746.71	2061.45
746.895	2149.51
747.079	2059.4
747.264	2073.74
747.449	2047.12
747.634	2038.92
747.819	2010.25
748.003	2126.99
748.188	1991.82
748.373	2100.36
748.557	2032.78
748.742	1895.57
748.927	1895.57
749.111	2010.25
749.296	1950.86
749.481	1948.81
749.665	1846.41
749.85	1881.23
750.034	2006.16
750.219	1975.44
750.404	1914
750.588	1887.37
750.773	1852.56
750.957	1705.1
751.141	1830.03
751.326	1739.92
751.51	1721.49
751.695	1666.19
751.879	1729.68
752.064	1770.64
752.248	1764.5
752.432	1772.69
752.617	1686.67
752.801	1678.48
752.985	1664.15
753.17	1733.78
753.354	1696.91
753.538	1612.95
753.722	1653.91
753.907	1606.8
754.091	1598.61
754.275	1629.33
754.459	1627.28
754.643	1625.23
754.828	1625.23
755.012	1500.31
755.196	1608.85
755.38	1481.88
755.564	1633.43
755.748	1479.83
755.932	1508.5
756.116	1512.6
756.3	1387.67
756.484	1488.02
756.668	1408.15
756.852	1459.35
757.036	1422.48
757.22	1414.29
757.404	1449.11
757.588	1442.96
757.772	1428.63
757.956	1500.31
758.14	1449.11
758.323	1352.85
758.507	1412.25
758.691	1244.31
758.875	1465.49
759.059	1287.32
759.242	1313.94
759.426	1262.74
759.61	1332.37
759.794	1332.37
759.977	1326.23
760.161	1299.61
760.345	1279.13
760.528	1240.22
760.712	1305.75
760.895	1264.79
761.079	1195.16
761.263	1176.73
761.446	1191.06
761.63	1287.32
761.813	1258.65
761.997	1201.3
762.18	1156.25
762.364	1170.58
762.547	1236.12
762.731	1248.41
762.914	1252.5
763.098	1211.54
763.281	1262.74
763.464	1047.71
763.648	1154.2
763.831	1047.71
764.015	1250.46
764.198	1141.91
764.381	1080.47
764.564	1129.63
764.748	1135.77
764.931	1133.72
765.114	1100.95
765.297	1186.97
765.481	1035.42
765.664	1117.34
765.847	1111.19
766.03	1121.43
766.213	1082.52
766.397	1012.89
766.58	1113.24
766.763	1037.47
766.946	996.51
767.129	1031.32
767.312	986.27
767.495	992.41
767.678	998.56
767.861	1021.08
768.044	1021.08
768.227	1012.89
768.41	1021.08
768.593	1035.42
768.776	994.46
768.959	994.46
769.142	1086.62
769.324	969.88
769.507	939.16
769.69	1055.9
769.873	963.74
770.056	1010.84
770.239	939.16
770.421	898.2
770.604	943.26
770.787	959.64
770.97	967.84
771.152	937.12
771.335	914.59
771.518	969.88
771.7	978.08
771.883	1016.99
772.066	939.16
772.248	943.26
772.431	955.55
772.613	836.77
772.796	924.83
772.978	834.72
773.161	828.57
773.343	937.12
773.526	924.83
773.708	842.91
773.891	795.81
774.073	873.63
774.256	916.64
774.438	894.11
774.621	887.97
774.803	861.34
774.985	824.48
775.168	879.77
775.35	795.81
775.532	777.37
775.715	885.92
775.897	797.85
776.079	783.52
776.261	808.09
776.444	818.33
776.626	847.01
776.808	758.94
776.99	779.42
777.173	793.76
777.355	797.85
777.537	728.22
777.719	758.94
777.901	740.51
778.083	785.57
778.265	734.37
778.447	746.66
778.629	732.32
778.811	662.69
778.993	771.23
779.175	699.55
779.357	603.3
779.539	742.56
779.721	634.02
779.903	691.36
780.085	656.54
780.267	703.65
780.449	605.35
780.631	631.97
780.812	687.26
780.994	654.5
781.176	603.3
781.358	677.02
781.54	640.16
781.721	597.15
781.903	740.51
782.085	484.52
782.267	574.63
782.448	609.44
782.63	570.53
782.812	640.16
782.993	586.91
783.175	574.63
783.357	550.05
783.538	593.06
783.72	576.67
783.901	513.19
784.083	515.23
784.264	568.48
784.446	476.32
784.627	527.52
784.809	558.24
784.99	484.52
785.172	486.56
785.353	513.19
785.535	511.14
785.716	578.72
785.897	478.37
786.079	486.56
786.26	509.09
786.441	507.04
786.623	494.76
786.804	443.56
786.985	494.76
787.167	550.05
787.348	447.65
787.529	353.45
787.71	451.75
787.891	451.75
788.073	431.27
788.254	480.42
788.435	439.46
788.616	423.08
788.797	435.36
788.978	390.31
789.159	382.12
789.34	375.97
789.522	388.26
789.703	488.61
789.884	443.56
790.065	373.92
790.246	525.47
790.427	396.45
790.607	349.35
790.788	431.27
790.969	343.21
791.15	425.12
791.331	355.49
791.512	390.31
791.693	412.84
791.874	388.26
792.054	349.35
792.235	382.12
792.416	363.69
792.597	433.32
792.778	412.84
792.958	349.35
793.139	335.01
793.32	335.01
793.5	349.35
793.681	351.4
793.862	318.63
794.042	343.21
794.223	322.73
794.404	363.69
794.584	337.06
794.765	357.54
794.945	332.97
795.126	300.2
795.306	355.49
795.487	375.97
795.667	289.96
795.848	386.21
796.028	339.11
796.209	234.66
796.389	347.3
796.57	314.53
796.75	298.15
796.93	308.39
797.111	263.33
797.291	328.87
797.471	292.01
797.652	396.45
797.832	238.76
798.012	347.3
798.192	306.34
798.373	275.62
798.553	292.01
798.733	324.77
798.913	332.97
799.093	304.29
799.274	296.1
799.454	306.34
799.634	218.28
799.814	238.76
799.994	320.68
800.174	351.4
800.354	324.77
800.534	255.14
800.714	292.01
800.894	265.38
801.074	259.24
801.254	289.96
801.434	269.48
801.614	195.75
801.794	222.38
801.974	709.79
802.154	259.24
802.334	294.05
802.514	224.42
802.693	173.22
802.873	257.19
803.053	189.61
803.233	236.71
803.413	246.95
803.592	244.9
803.772	238.76
803.952	214.18
804.131	265.38
804.311	244.9
804.491	244.9
804.67	210.09
804.85	158.89
805.03	160.94
805.209	283.81
805.389	224.42
805.568	265.38
805.748	246.95
805.928	226.47
806.107	296.1
806.287	242.85
806.466	169.13
806.646	205.99
806.825	214.18
807.004	193.7
807.184	244.9
807.363	267.43
807.543	205.99
807.722	251.05
807.901	216.23
808.081	242.85
808.26	156.84
808.439	234.66
808.619	195.75
808.798	138.41
808.977	210.09
809.156	173.22
809.336	230.57
809.515	265.38
809.694	195.75
809.873	201.9
810.052	271.53
810.231	146.6
810.411	197.8
810.59	177.32
810.769	177.32
810.948	212.14
811.127	205.99
811.306	193.7
811.485	181.42
811.664	203.94
811.843	201.9
812.022	294.05
812.201	173.22
812.38	175.27
812.559	175.27
812.737	173.22
812.916	140.46
813.095	132.26
813.274	130.22
813.453	119.98
813.632	195.75
813.811	150.7
813.989	85.16
814.168	138.41
814.347	156.84
814.526	144.55
814.704	212.14
814.883	228.52
815.062	126.12
815.24	181.42
815.419	150.7
815.598	201.9
815.776	83.11
815.955	150.7
816.133	169.13
816.312	193.7
816.49	146.6
816.669	119.98
816.847	140.46
817.026	279.72
817.204	136.36
817.383	117.93
817.561	132.26
817.74	183.46
817.918	165.03
818.097	212.14
818.275	33.96
818.453	177.32
818.632	169.13
818.81	195.75
818.988	181.42
819.167	167.08
819.345	189.61
819.523	107.69
819.701	158.89
819.879	146.6
820.058	146.6
820.236	156.84
820.414	122.02
820.592	93.35
820.77	140.46
820.948	103.59
821.127	126.12
821.305	162.98
821.483	136.36
821.661	138.41
821.839	162.98
822.017	158.89
822.195	181.42
822.373	181.42
822.551	158.89
822.729	154.79
822.907	111.78
823.085	144.55
823.262	117.93
823.44	95.4
823.618	175.27
823.796	107.69
823.974	64.68
824.152	76.97
824.329	138.41
824.507	117.93
824.685	89.26
824.863	97.45
825.04	105.64
825.218	138.41
825.396	187.56
825.574	138.41
825.751	140.46
825.929	169.13
826.107	109.74
826.284	105.64
826.462	115.88
826.639	50.35
826.817	119.98
826.994	64.68
827.172	74.92
827.349	76.97
827.527	150.7
827.704	167.08
827.882	99.5
828.059	119.98
828.237	105.64
828.414	87.21
828.591	91.31
828.769	140.46
828.946	79.02
829.124	160.94
829.301	140.46
829.478	113.83
829.655	85.16
829.833	103.59
830.01	167.08
830.187	111.78
830.364	101.55
830.542	97.45
830.719	115.88
830.896	105.64
831.073	68.78
831.25	117.93
831.427	76.97
831.604	85.16
831.782	27.82
831.959	154.79
832.136	97.45
832.313	113.83
832.49	81.07
832.667	144.55
832.844	33.96
833.021	134.31
833.198	91.31
833.374	119.98
833.551	64.68
833.728	87.21
833.905	62.63
834.082	93.35
834.259	119.98
834.436	93.35
834.612	103.59
834.789	99.5
834.966	144.55
835.143	81.07
835.319	76.97
835.496	74.92
835.673	42.15
835.85	130.22
836.026	54.44
836.203	113.83
836.38	87.21
836.556	13.48
836.733	48.3
836.909	130.22
837.086	83.11
837.262	83.11
837.439	50.35
837.616	113.83
837.792	85.16
837.968	68.78
838.145	-2.9
838.321	107.69
838.498	79.02
838.674	97.45
838.851	33.96
839.027	101.55
839.203	64.68
839.38	144.55
839.556	48.3
839.732	103.59
839.909	146.6
840.085	3.24
840.261	38.06
840.437	97.45
840.614	40.11
840.79	27.82
840.966	9.39
841.142	76.97
841.318	66.73
841.494	89.26
841.671	21.67
841.847	29.87
842.023	38.06
842.199	101.55
842.375	152.74
842.551	87.21
842.727	89.26
842.903	64.68
843.079	23.72
843.255	103.59
843.431	119.98
843.607	95.4
843.783	13.48
843.959	89.26
844.134	9.39
844.31	42.15
844.486	91.31
844.662	15.53
844.838	46.25
845.013	42.15
845.189	113.83
845.365	74.92
845.541	5.29
845.716	111.78
845.892	27.82
846.068	-2.9
846.244	60.59
846.419	38.06
846.595	-9.05
846.77	48.3
846.946	48.3
847.122	7.34
847.297	29.87
847.473	93.35
847.648	27.82
847.824	36.01
847.999	-7
848.175	62.63
848.35	91.31
848.526	31.91
848.701	50.35
848.876	58.54
849.052	31.91
849.227	60.59
849.403	23.72
849.578	101.55
849.753	40.11
849.929	99.5
850.104	70.83
850.279	-25.43
850.454	36.01
850.63	25.77
850.805	23.72
850.98	33.96
851.155	54.44
851.33	17.58
851.505	60.59
851.681	48.3
851.856	21.67
852.031	66.73
852.206	68.78
852.381	-21.33
852.556	68.78
852.731	25.77
852.906	50.35
853.081	81.07
853.256	13.48
853.431	58.54
853.606	79.02
853.781	-76.63
853.956	15.53
854.131	36.01
854.305	-0.85
854.48	38.06
854.655	68.78
854.83	-45.91
855.005	-23.38
855.18	103.59
855.354	19.63
855.529	48.3
855.704	66.73
855.879	44.2
856.053	81.07
856.228	107.69
856.403	13.48
856.577	19.63
856.752	3.24
856.926	81.07
857.101	44.2
857.276	15.53
857.45	-21.33
857.625	38.06
857.799	-0.85
857.974	-4.95
858.148	46.25
858.323	52.39
858.497	-0.85
858.672	21.67
858.846	-23.38
859.02	70.83
859.195	27.82
859.369	33.96
859.543	-15.19
859.718	-13.14
859.892	46.25
860.066	17.58
860.241	99.5
860.415	-43.86
860.589	19.63
860.763	-7
860.938	56.49
861.112	68.78
861.286	38.06
861.46	74.92
861.634	-21.33
861.808	74.92
861.982	7.34
862.157	-11.09
862.331	83.11
862.505	44.2
862.679	9.39
862.853	46.25
863.027	36.01
863.201	38.06
863.375	-13.14
863.549	74.92
863.722	81.07
863.896	33.96
864.07	29.87
864.244	68.78
864.418	-4.95
864.592	-56.15
864.766	11.43
864.939	-2.9
865.113	54.44
865.287	52.39
865.461	5.29
865.634	23.72
865.808	-17.24
865.982	66.73
866.156	31.91
866.329	-19.29
866.503	54.44
866.676	21.67
866.85	36.01
867.024	7.34
867.197	-23.38
867.371	25.77
867.544	21.67
867.718	21.67
867.891	44.2
868.065	46.25
868.238	13.48
868.412	134.31
868.585	21.67
868.759	3.24
868.932	-2.9
869.105	72.87
869.279	56.49
869.452	7.34
869.625	60.59
869.799	-37.72
869.972	-50
870.145	29.87
870.319	17.58
870.492	-25.43
870.665	60.59
870.838	17.58
871.011	-37.72
871.185	79.02
871.358	50.35
871.531	21.67
871.704	-19.29
871.877	101.55
872.05	13.48
872.223	-27.48
872.396	42.15
872.569	40.11
872.742	1.19
872.915	-31.57
873.088	-13.14
873.261	-9.05
873.434	-47.96
873.607	62.63
873.78	-29.52
873.953	54.44
874.126	31.91
874.299	48.3
874.471	-52.05
874.644	48.3
874.817	-37.72
874.99	93.35
875.163	-19.29
875.335	122.02
875.508	89.26
875.681	62.63
875.853	36.01
876.026	-0.85
876.199	52.39
876.371	81.07
876.544	46.25
876.717	11.43
876.889	23.72
877.062	7.34
877.234	-35.67
877.407	56.49
877.579	25.77
877.752	85.16
877.924	3.24
878.097	74.92
878.269	-31.57
878.442	50.35
878.614	52.39
878.786	64.68
878.959	15.53
879.131	13.48
879.303	-66.39
879.476	1.19
879.648	76.97
879.82	36.01
879.993	36.01
880.165	60.59
880.337	15.53
880.509	60.59
880.681	5.29
880.854	13.48
881.026	50.35
881.198	56.49
881.37	-9.05
881.542	44.2
881.714	-29.52
881.886	58.54
882.058	17.58
882.23	13.48
882.402	21.67
882.574	13.48
882.746	95.4
882.918	1.19
883.09	-33.62
883.262	23.72
883.434	29.87
883.606	-19.29
883.778	17.58
883.95	-4.95
884.122	85.16
884.293	44.2
884.465	-15.19
884.637	17.58
884.809	-7
884.98	15.53
885.152	21.67
885.324	21.67
885.496	-31.57
885.667	-31.57
885.839	-4.95
886.011	72.87
886.182	-19.29
886.354	13.48
886.525	54.44
886.697	31.91
886.869	15.53
887.04	-43.86
887.212	7.34
887.383	-7
887.555	48.3
887.726	-2.9
887.897	-7
888.069	62.63
888.24	-39.76
888.412	60.59
888.583	-13.14
888.754	-43.86
888.926	1.19
889.097	21.67
889.268	54.44
889.44	101.55
889.611	-41.81
889.782	-19.29
889.953	11.43
890.125	74.92
890.296	-4.95
890.467	15.53
890.638	52.39
890.809	-37.72
890.98	-25.43
891.151	19.63
891.323	103.59
891.494	21.67
891.665	3.24
891.836	5.29
892.007	-27.48
892.178	64.68
892.349	21.67
892.52	27.82
892.691	-17.24
892.862	66.73
893.032	-0.85
893.203	-50
893.374	-52.05
893.545	91.31
893.716	33.96
893.887	-39.76
894.057	-31.57
894.228	48.3
894.399	66.73
894.57	1.19
894.74	-17.24
894.911	-13.14
895.082	36.01
895.253	-39.76
895.423	-13.14
895.594	42.15
895.764	62.63
895.935	-15.19
896.106	-43.86
896.276	89.26
896.447	29.87
896.617	-0.85
896.788	1.19
896.958	21.67
897.129	31.91
897.299	46.25
897.47	13.48
897.64	-7
897.81	-11.09
897.981	25.77
898.151	56.49
898.322	23.72
898.492	54.44
898.662	36.01
898.832	5.29
899.003	-45.91
899.173	44.2
899.343	60.59
899.513	21.67
