Data from USB4F104151__85__12-02-16-985.txt Node

Date: Fri Mar 14 12:02:16 EDT 2025
User: louis
Spectrometer: USB4F10415
Trigger mode: 4
Integration Time (sec): 2.000000E-2
Scans to average: 1
Electric dark correction enabled: true
Nonlinearity correction enabled: false
Boxcar width: 0
XAxis mode: Wavelengths
Number of Pixels in Spectrum: 3648
>>>>>Begin Spectral Data<<<<<
178.204	-115.2
178.424	-115.2
178.644	-115.2
178.864	-88.57
179.084	-61.95
179.304	-47.62
179.524	79.36
179.744	17.92
179.964	-10.75
180.184	-29.18
180.404	-14.85
180.624	15.87
180.844	67.07
181.064	-43.52
181.283	-6.66
181.503	-37.38
181.723	9.73
181.943	-29.18
182.163	30.21
182.383	67.07
182.602	28.16
182.822	-6.66
183.042	22.02
183.262	-16.9
183.482	40.45
183.701	73.21
183.921	73.21
184.141	5.63
184.361	-6.66
184.58	19.97
184.8	-10.75
185.02	65.02
185.239	13.82
185.459	-2.56
185.679	11.78
185.898	-41.47
186.118	97.79
186.338	26.11
186.557	67.07
186.777	9.73
186.997	5.63
187.216	40.45
187.436	91.65
187.655	28.16
187.875	56.83
188.095	52.74
188.314	34.3
188.534	-4.61
188.753	50.69
188.973	34.3
189.192	85.5
189.412	15.87
189.631	19.97
189.851	48.64
190.07	79.36
190.29	75.26
190.509	24.06
190.729	-59.9
190.948	108.03
191.168	110.08
191.387	40.45
191.607	95.74
191.826	5.63
192.045	36.35
192.265	28.16
192.484	87.55
192.704	-6.66
192.923	-23.04
193.142	81.41
193.362	-64
193.581	36.35
193.8	-4.61
194.02	1.54
194.239	26.11
194.458	30.21
194.678	7.68
194.897	30.21
195.116	52.74
195.335	56.83
195.555	40.45
195.774	-0.51
195.993	75.26
196.212	34.3
196.432	17.92
196.651	48.64
196.87	69.12
197.089	91.65
197.308	17.92
197.528	3.58
197.747	38.4
197.966	-18.94
198.185	15.87
198.404	67.07
198.623	85.5
198.842	11.78
199.062	34.3
199.281	73.21
199.5	-4.61
199.719	-53.76
199.938	79.36
200.157	52.74
200.376	-53.76
200.595	36.35
200.814	71.17
201.033	-0.51
201.252	32.26
201.471	71.17
201.69	15.87
201.909	34.3
202.128	75.26
202.347	54.78
202.566	52.74
202.785	1.54
203.004	5.63
203.223	87.55
203.442	58.88
203.661	7.68
203.879	79.36
204.098	48.64
204.317	34.3
204.536	77.31
204.755	52.74
204.974	32.26
205.193	-33.28
205.411	103.93
205.63	-12.8
205.849	40.45
206.068	87.55
206.287	42.5
206.505	58.88
206.724	22.02
206.943	60.93
207.162	77.31
207.381	32.26
207.599	93.69
207.818	87.55
208.037	75.26
208.255	34.3
208.474	-29.18
208.693	54.78
208.911	40.45
209.13	-2.56
209.349	-0.51
209.567	85.5
209.786	48.64
210.005	62.98
210.223	73.21
210.442	48.64
210.661	54.78
210.879	79.36
211.098	5.63
211.316	34.3
211.535	65.02
211.753	46.59
211.972	91.65
212.191	50.69
212.409	58.88
212.628	85.5
212.846	11.78
213.065	118.27
213.283	99.84
213.502	-16.9
213.72	67.07
213.938	71.17
214.157	46.59
214.375	30.21
214.594	36.35
214.812	13.82
215.031	-2.56
215.249	30.21
215.467	40.45
215.686	44.54
215.904	81.41
216.122	-29.18
216.341	99.84
216.559	60.93
216.778	122.37
216.996	54.78
217.214	7.68
217.432	19.97
217.651	46.59
217.869	24.06
218.087	52.74
218.306	5.63
218.524	9.73
218.742	-25.09
218.96	30.21
219.179	26.11
219.397	65.02
219.615	81.41
219.833	56.83
220.051	15.87
220.27	-23.04
220.488	38.4
220.706	67.07
220.924	24.06
221.142	38.4
221.36	-47.62
221.578	36.35
221.796	-6.66
222.015	11.78
222.233	91.65
222.451	56.83
222.669	-6.66
222.887	75.26
223.105	32.26
223.323	26.11
223.541	15.87
223.759	97.79
223.977	-8.7
224.195	-4.61
224.413	19.97
224.631	26.11
224.849	69.12
225.067	142.85
225.285	7.68
225.503	1.54
225.721	-4.61
225.939	38.4
226.157	77.31
226.375	54.78
226.592	46.59
226.81	38.4
227.028	36.35
227.246	62.98
227.464	52.74
227.682	60.93
227.9	62.98
228.117	40.45
228.335	75.26
228.553	7.68
228.771	-8.7
228.989	112.13
229.206	75.26
229.424	13.82
229.642	17.92
229.86	-0.51
230.077	26.11
230.295	1.54
230.513	-12.8
230.731	67.07
230.948	79.36
231.166	132.61
231.384	58.88
231.601	40.45
231.819	19.97
232.037	62.98
232.254	11.78
232.472	-0.51
232.689	26.11
232.907	24.06
233.125	-12.8
233.342	54.78
233.56	11.78
233.777	60.93
233.995	108.03
234.213	32.26
234.43	60.93
234.648	28.16
234.865	34.3
235.083	46.59
235.3	105.98
235.518	-33.28
235.735	26.11
235.953	46.59
236.17	77.31
236.388	22.02
236.605	19.97
236.822	54.78
237.04	5.63
237.257	26.11
237.475	105.98
237.692	-2.56
237.909	97.79
238.127	62.98
238.344	79.36
238.562	50.69
238.779	22.02
238.996	38.4
239.214	-25.09
239.431	99.84
239.648	-6.66
239.865	79.36
240.083	60.93
240.3	-23.04
240.517	-23.04
240.735	99.84
240.952	85.5
241.169	48.64
241.386	62.98
241.603	48.64
241.821	36.35
242.038	5.63
242.255	24.06
242.472	69.12
242.689	-12.8
242.907	77.31
243.124	99.84
243.341	81.41
243.558	-47.62
243.775	15.87
243.992	-96.77
244.209	46.59
244.426	56.83
244.643	89.6
244.86	22.02
245.078	79.36
245.295	-10.75
245.512	44.54
245.729	-6.66
245.946	91.65
246.163	-10.75
246.38	15.87
246.597	11.78
246.814	5.63
247.031	65.02
247.248	89.6
247.464	34.3
247.681	-25.09
247.898	22.02
248.115	58.88
248.332	5.63
248.549	36.35
248.766	194.05
248.983	120.32
249.2	38.4
249.417	108.03
249.633	-57.86
249.85	24.06
250.067	32.26
250.284	32.26
250.501	32.26
250.717	120.32
250.934	46.59
251.151	60.93
251.368	79.36
251.585	13.82
251.801	7.68
252.018	73.21
252.235	26.11
252.451	7.68
252.668	-31.23
252.885	7.68
253.102	7.68
253.318	-31.23
253.535	30.21
253.752	44.54
253.968	36.35
254.185	-20.99
254.401	9.73
254.618	32.26
254.835	-0.51
255.051	24.06
255.268	36.35
255.484	40.45
255.701	40.45
255.917	69.12
256.134	67.07
256.351	118.27
256.567	-33.28
256.784	48.64
257	38.4
257.217	40.45
257.433	97.79
257.65	19.97
257.866	69.12
258.082	75.26
258.299	-43.52
258.515	17.92
258.732	-2.56
258.948	24.06
259.165	13.82
259.381	30.21
259.597	38.4
259.814	75.26
260.03	50.69
260.246	-33.28
260.463	48.64
260.679	44.54
260.895	32.26
261.112	60.93
261.328	58.88
261.544	-10.75
261.761	54.78
261.977	-43.52
262.193	13.82
262.409	7.68
262.626	50.69
262.842	32.26
263.058	-14.85
263.274	11.78
263.49	38.4
263.707	81.41
263.923	30.21
264.139	38.4
264.355	28.16
264.571	52.74
264.787	17.92
265.004	67.07
265.22	46.59
265.436	34.3
265.652	62.98
265.868	36.35
266.084	-4.61
266.3	93.69
266.516	13.82
266.732	83.45
266.948	44.54
267.164	40.45
267.38	34.3
267.596	15.87
267.812	5.63
268.028	58.88
268.244	19.97
268.46	60.93
268.676	54.78
268.892	71.17
269.108	122.37
269.324	67.07
269.54	32.26
269.756	26.11
269.972	-14.85
270.188	69.12
270.403	19.97
270.619	15.87
270.835	-12.8
271.051	-0.51
271.267	-45.57
271.483	44.54
271.698	36.35
271.914	-2.56
272.13	24.06
272.346	36.35
272.562	26.11
272.777	50.69
272.993	116.22
273.209	32.26
273.425	67.07
273.64	50.69
273.856	36.35
274.072	-25.09
274.287	-12.8
274.503	36.35
274.719	71.17
274.934	65.02
275.15	9.73
275.366	30.21
275.581	81.41
275.797	52.74
276.012	116.22
276.228	56.83
276.444	36.35
276.659	56.83
276.875	-14.85
277.09	73.21
277.306	60.93
277.521	77.31
277.737	17.92
277.952	28.16
278.168	-6.66
278.383	52.74
278.599	-2.56
278.814	134.65
279.03	5.63
279.245	134.65
279.461	-31.23
279.676	32.26
279.892	99.84
280.107	11.78
280.322	15.87
280.538	17.92
280.753	-4.61
280.969	62.98
281.184	44.54
281.399	71.17
281.615	-16.9
281.83	71.17
282.045	42.5
282.26	36.35
282.476	-37.38
282.691	36.35
282.906	85.5
283.122	73.21
283.337	48.64
283.552	58.88
283.767	-10.75
283.983	46.59
284.198	36.35
284.413	38.4
284.628	3.58
284.843	60.93
285.058	56.83
285.274	34.3
285.489	58.88
285.704	1.54
285.919	38.4
286.134	-18.94
286.349	52.74
286.564	48.64
286.779	62.98
286.995	42.5
287.21	19.97
287.425	69.12
287.64	32.26
287.855	30.21
288.07	50.69
288.285	103.93
288.5	26.11
288.715	155.13
288.93	71.17
289.145	26.11
289.36	91.65
289.575	93.69
289.79	52.74
290.004	146.94
290.219	46.59
290.434	17.92
290.649	30.21
290.864	-4.61
291.079	24.06
291.294	87.55
291.509	71.17
291.724	71.17
291.938	48.64
292.153	71.17
292.368	46.59
292.583	48.64
292.798	28.16
293.012	11.78
293.227	62.98
293.442	58.88
293.657	46.59
293.871	89.6
294.086	17.92
294.301	46.59
294.516	-14.85
294.73	11.78
294.945	-14.85
295.16	118.27
295.374	34.3
295.589	71.17
295.804	126.46
296.018	69.12
296.233	52.74
296.447	36.35
296.662	32.26
296.877	138.75
297.091	159.23
297.306	40.45
297.52	77.31
297.735	118.27
297.949	17.92
298.164	83.45
298.378	50.69
298.593	9.73
298.807	1.54
299.022	-0.51
299.236	54.78
299.451	101.89
299.665	5.63
299.88	1.54
300.094	32.26
300.309	30.21
300.523	116.22
300.737	77.31
300.952	22.02
301.166	93.69
301.381	40.45
301.595	-64
301.809	46.59
302.024	101.89
302.238	-2.56
302.452	42.5
302.667	26.11
302.881	30.21
303.095	7.68
303.309	40.45
303.524	65.02
303.738	24.06
303.952	54.78
304.166	116.22
304.381	5.63
304.595	89.6
304.809	13.82
305.023	77.31
305.237	13.82
305.452	79.36
305.666	71.17
305.88	44.54
306.094	56.83
306.308	28.16
306.522	67.07
306.736	44.54
306.95	85.5
307.164	77.31
307.379	87.55
307.593	120.32
307.807	46.59
308.021	38.4
308.235	142.85
308.449	-25.09
308.663	42.5
308.877	38.4
309.091	48.64
309.305	110.08
309.519	24.06
309.733	114.17
309.947	46.59
310.161	83.45
310.374	83.45
310.588	-0.51
310.802	28.16
311.016	60.93
311.23	-8.7
311.444	-10.75
311.658	73.21
311.872	95.74
312.085	54.78
312.299	60.93
312.513	40.45
312.727	77.31
312.941	3.58
313.154	54.78
313.368	38.4
313.582	93.69
313.796	26.11
314.009	91.65
314.223	91.65
314.437	87.55
314.651	24.06
314.864	44.54
315.078	34.3
315.292	83.45
315.505	62.98
315.719	81.41
315.933	58.88
316.146	62.98
316.36	-47.62
316.573	65.02
316.787	3.58
317.001	69.12
317.214	32.26
317.428	105.98
317.641	22.02
317.855	103.93
318.068	-14.85
318.282	24.06
318.495	128.51
318.709	87.55
318.922	67.07
319.136	118.27
319.349	46.59
319.563	40.45
319.776	42.5
319.99	7.68
320.203	48.64
320.417	79.36
320.63	5.63
320.843	91.65
321.057	22.02
321.27	-12.8
321.483	79.36
321.697	79.36
321.91	73.21
322.124	67.07
322.337	42.5
322.55	-47.62
322.763	83.45
322.977	62.98
323.19	34.3
323.403	69.12
323.617	46.59
323.83	79.36
324.043	-12.8
324.256	114.17
324.469	30.21
324.683	132.61
324.896	-0.51
325.109	9.73
325.322	42.5
325.535	3.58
325.748	60.93
325.962	54.78
326.175	42.5
326.388	99.84
326.601	54.78
326.814	62.98
327.027	46.59
327.24	69.12
327.453	11.78
327.666	62.98
327.879	89.6
328.092	81.41
328.305	15.87
328.518	24.06
328.731	11.78
328.944	48.64
329.157	75.26
329.37	81.41
329.583	91.65
329.796	142.85
330.009	32.26
330.222	30.21
330.435	99.84
330.648	11.78
330.861	99.84
331.073	85.5
331.286	30.21
331.499	46.59
331.712	-12.8
331.925	34.3
332.138	-12.8
332.35	99.84
332.563	30.21
332.776	11.78
332.989	114.17
333.202	69.12
333.414	142.85
333.627	83.45
333.84	-10.75
334.053	19.97
334.265	7.68
334.478	97.79
334.691	105.98
334.903	97.79
335.116	44.54
335.329	40.45
335.541	77.31
335.754	126.46
335.966	3.58
336.179	67.07
336.392	40.45
336.604	9.73
336.817	7.68
337.029	60.93
337.242	50.69
337.454	91.65
337.667	101.89
337.88	118.27
338.092	48.64
338.305	138.75
338.517	7.68
338.729	42.5
338.942	36.35
339.154	9.73
339.367	67.07
339.579	105.98
339.792	38.4
340.004	42.5
340.217	79.36
340.429	58.88
340.641	91.65
340.854	34.3
341.066	13.82
341.278	48.64
341.491	126.46
341.703	56.83
341.915	87.55
342.128	87.55
342.34	91.65
342.552	22.02
342.764	-8.7
342.977	105.98
343.189	136.7
343.401	50.69
343.613	116.22
343.826	120.32
344.038	-23.04
344.25	13.82
344.462	24.06
344.674	28.16
344.886	34.3
345.099	81.41
345.311	132.61
345.523	71.17
345.735	13.82
345.947	13.82
346.159	60.93
346.371	71.17
346.583	-23.04
346.795	44.54
347.007	62.98
347.219	58.88
347.431	52.74
347.643	136.7
347.855	69.12
348.067	132.61
348.279	32.26
348.491	83.45
348.703	93.69
348.915	50.69
349.127	67.07
349.339	116.22
349.551	91.65
349.763	75.26
349.975	48.64
350.187	71.17
350.399	65.02
350.61	95.74
350.822	15.87
351.034	46.59
351.246	46.59
351.458	54.78
351.669	38.4
351.881	75.26
352.093	32.26
352.305	34.3
352.517	48.64
352.728	22.02
352.94	79.36
353.152	-8.7
353.363	48.64
353.575	40.45
353.787	93.69
353.999	-43.52
354.21	101.89
354.422	-2.56
354.633	36.35
354.845	46.59
355.057	52.74
355.268	83.45
355.48	28.16
355.692	54.78
355.903	36.35
356.115	108.03
356.326	58.88
356.538	56.83
356.749	126.46
356.961	95.74
357.172	65.02
357.384	40.45
357.595	122.37
357.807	132.61
358.018	-14.85
358.23	40.45
358.441	26.11
358.653	69.12
358.864	83.45
359.075	42.5
359.287	48.64
359.498	62.98
359.709	36.35
359.921	83.45
360.132	-0.51
360.344	60.93
360.555	7.68
360.766	99.84
360.977	17.92
361.189	69.12
361.4	50.69
361.611	79.36
361.823	142.85
362.034	65.02
362.245	56.83
362.456	5.63
362.667	95.74
362.879	103.93
363.09	48.64
363.301	155.13
363.512	-23.04
363.723	50.69
363.935	9.73
364.146	93.69
364.357	34.3
364.568	85.5
364.779	42.5
364.99	101.89
365.201	60.93
365.412	52.74
365.623	36.35
365.834	146.94
366.045	40.45
366.256	81.41
366.467	83.45
366.678	97.79
366.889	112.13
367.1	101.89
367.311	60.93
367.522	75.26
367.733	79.36
367.944	91.65
368.155	46.59
368.366	93.69
368.577	112.13
368.788	103.93
368.999	11.78
369.209	79.36
369.42	99.84
369.631	99.84
369.842	24.06
370.053	34.3
370.264	79.36
370.474	140.8
370.685	17.92
370.896	50.69
371.107	9.73
371.317	167.42
371.528	89.6
371.739	105.98
371.95	83.45
372.16	42.5
372.371	48.64
372.582	58.88
372.792	122.37
373.003	103.93
373.214	58.88
373.424	46.59
373.635	32.26
373.846	93.69
374.056	99.84
374.267	65.02
374.477	32.26
374.688	97.79
374.898	58.88
375.109	56.83
375.319	85.5
375.53	26.11
375.74	42.5
375.951	46.59
376.161	93.69
376.372	36.35
376.582	79.36
376.793	60.93
377.003	134.65
377.214	87.55
377.424	34.3
377.635	79.36
377.845	44.54
378.055	142.85
378.266	54.78
378.476	171.52
378.686	58.88
378.897	52.74
379.107	77.31
379.317	44.54
379.528	83.45
379.738	79.36
379.948	73.21
380.158	38.4
380.369	157.18
380.579	101.89
380.789	40.45
380.999	148.99
381.21	165.37
381.42	85.5
381.63	36.35
381.84	83.45
382.05	60.93
382.261	161.28
382.471	140.8
382.681	116.22
382.891	105.98
383.101	93.69
383.311	17.92
383.521	103.93
383.731	44.54
383.941	148.99
384.151	28.16
384.361	48.64
384.571	42.5
384.781	120.32
384.991	112.13
385.201	58.88
385.411	79.36
385.621	-8.7
385.831	124.41
386.041	62.98
386.251	26.11
386.461	114.17
386.671	101.89
386.881	62.98
387.091	5.63
387.301	89.6
387.511	50.69
387.72	101.89
387.93	132.61
388.14	62.98
388.35	85.5
388.56	116.22
388.769	89.6
388.979	105.98
389.189	67.07
389.399	83.45
389.609	54.78
389.818	148.99
390.028	99.84
390.238	138.75
390.447	77.31
390.657	120.32
390.867	122.37
391.076	30.21
391.286	95.74
391.496	65.02
391.705	67.07
391.915	151.04
392.125	112.13
392.334	103.93
392.544	71.17
392.753	91.65
392.963	44.54
393.172	161.28
393.382	89.6
393.591	95.74
393.801	81.41
394.01	95.74
394.22	91.65
394.429	151.04
394.639	17.92
394.848	85.5
395.058	73.21
395.267	85.5
395.477	103.93
395.686	91.65
395.895	67.07
396.105	142.85
396.314	151.04
396.524	126.46
396.733	99.84
396.942	140.8
397.152	146.94
397.361	69.12
397.57	153.09
397.78	116.22
397.989	155.13
398.198	265.72
398.407	126.46
398.617	144.89
398.826	175.61
399.035	148.99
399.244	136.7
399.453	112.13
399.663	140.8
399.872	163.33
400.081	167.42
400.29	153.09
400.499	132.61
400.708	153.09
400.917	183.81
401.127	103.93
401.336	134.65
401.545	144.89
401.754	124.41
401.963	230.91
402.172	175.61
402.381	50.69
402.59	177.66
402.799	196.09
403.008	202.24
403.217	206.33
403.426	230.91
403.635	153.09
403.844	165.37
404.053	194.05
404.262	159.23
404.471	226.81
404.68	206.33
404.888	204.28
405.097	216.57
405.306	189.95
405.515	216.57
405.724	271.87
405.933	255.48
406.142	198.14
406.35	206.33
406.559	204.28
406.768	314.88
406.977	222.72
407.185	286.2
407.394	321.02
407.603	302.59
407.812	273.92
408.02	355.83
408.229	314.88
408.438	343.55
408.646	337.4
408.855	296.44
409.064	333.31
409.272	343.55
409.481	359.93
409.69	353.79
409.898	357.88
410.107	419.32
410.315	386.55
410.524	458.23
410.733	462.33
410.941	452.09
411.15	511.48
411.358	497.14
411.567	585.21
411.775	503.29
411.984	544.25
412.192	609.78
412.401	597.49
412.609	716.28
412.818	679.41
413.026	685.56
413.234	763.38
413.443	738.8
413.651	738.8
413.86	865.78
414.068	910.83
414.276	853.49
414.485	933.36
414.693	878.07
414.901	1021.42
415.11	1017.33
415.318	921.07
415.526	1019.38
415.734	1134.06
415.943	1129.97
416.151	1201.65
416.359	1140.21
416.567	1291.76
416.776	1166.83
416.984	1336.81
417.192	1367.53
417.4	1445.35
417.608	1422.83
417.817	1486.31
418.025	1541.61
418.233	1670.63
418.441	1644.01
418.649	1695.21
418.857	1809.89
419.065	1875.43
419.273	1988.07
419.481	1846.76
419.689	2121.18
419.897	2289.12
420.105	2252.25
420.313	2237.92
420.521	2381.28
420.729	2325.98
420.937	2553.31
421.145	2502.11
421.353	2659.8
421.561	2799.06
421.769	2840.02
421.977	2991.57
422.185	2866.64
422.393	3085.78
422.601	3245.52
422.809	3440.08
423.017	3231.18
423.224	3452.36
423.432	3737.03
423.64	3573.19
423.848	3902.92
424.056	3743.17
424.263	4181.44
424.471	4048.32
424.679	4117.95
424.887	4423.1
425.094	4591.03
425.302	4617.66
425.51	4783.54
425.718	4744.63
425.925	4982.2
426.133	5100.98
426.341	5346.73
426.548	5666.22
426.756	5828.01
426.964	5840.29
427.171	6055.33
427.379	6296.99
427.586	6192.55
427.794	6684.06
428.001	6921.62
428.209	7423.37
428.417	7097.75
428.624	7558.54
428.832	7546.25
429.039	7458.19
429.247	7507.34
429.454	8304
429.662	8588.67
429.869	8213.89
430.076	8932.73
430.284	8502.65
430.491	8852.86
430.699	9321.84
430.906	9495.92
431.114	9471.34
431.321	9887.08
431.528	10059.11
431.736	10786.14
431.943	11177.3
432.15	10982.74
432.358	11062.62
432.565	11545.94
432.772	11595.09
432.979	12244.29
433.187	12520.77
433.394	12481.86
433.601	13176.12
433.808	13178.17
434.016	13276.47
434.223	13874.48
434.43	14636.32
434.637	14310.69
434.844	15222.04
435.052	15770.9
435.259	15660.31
435.466	15500.56
435.673	15453.46
435.88	16502.02
436.087	17102.08
436.294	17304.82
436.501	17083.64
436.708	17136.89
436.915	17712.37
437.122	18742.5
437.329	18423.01
437.537	19244.25
437.743	19516.63
437.95	19510.49
438.157	20321.48
438.364	21132.48
438.571	20935.87
438.778	20987.07
438.985	23342.24
439.192	22158.51
439.399	22672.55
439.606	22389.93
439.813	23696.53
440.02	25162.88
440.227	24390.8
440.433	24683.66
440.64	25232.51
440.847	25300.09
441.054	25322.62
441.261	27083.87
441.467	26713.19
441.674	27919.45
441.881	28451.92
442.088	28124.24
442.294	28273.74
442.501	29084.74
442.708	29572.16
442.914	30704.68
443.121	32228.37
443.328	31204.39
443.534	33098.76
443.741	31917.08
443.948	32009.24
444.154	34016.25
444.361	33676.29
444.568	34229.24
444.774	34423.79
444.981	34448.37
445.187	35308.52
445.394	36707.28
445.6	36891.6
445.807	39578.53
446.013	38140.86
446.22	39205.8
446.426	40342.42
446.633	40569.75
446.839	42021.76
447.046	40491.93
447.252	42847.09
447.459	42814.32
447.665	42255.23
447.871	44299.1
448.078	46338.88
448.284	44176.22
448.491	45472.59
448.697	46975.8
448.903	47586.09
449.11	47625
449.316	46936.88
449.522	48180
449.728	48841.49
449.935	49181.46
450.141	49228.56
450.347	50150.15
450.553	48919.32
450.76	49404.69
450.966	51071.73
451.172	50391.81
451.378	51591.92
451.584	50506.49
451.791	51362.54
451.997	51147.51
452.203	52605.66
452.409	52644.57
452.615	52128.48
452.821	50705.15
453.027	49990.41
453.233	52370.14
453.44	50062.08
453.646	50785.02
453.852	50987.77
454.058	51608.3
454.264	49740.55
454.47	51069.68
454.676	50094.85
454.882	51641.07
455.088	47016.75
455.294	47629.1
455.5	48130.85
455.705	49027.86
455.911	47188.78
456.117	46465.85
456.323	45353.8
456.529	43094.89
456.735	45189.97
456.941	43631.46
457.147	43225.96
457.352	41952.13
457.558	41493.38
457.764	41206.67
457.97	40653.72
458.176	39646.12
458.381	40063.9
458.587	37733.31
458.793	37854.14
458.999	35974.11
459.204	38587.32
459.41	37188.55
459.616	34913.26
459.821	35042.28
460.027	34683.89
460.233	33860.6
460.438	32281.62
460.644	32961.55
460.85	31501.34
461.055	30868.52
461.261	30520.37
461.466	28609.61
461.672	27569.24
461.878	29719.61
462.083	27407.45
462.289	26821.73
462.494	26709.1
462.7	25656.44
462.905	25119.87
463.111	25947.25
463.316	25994.36
463.522	25334.91
463.727	25439.36
463.932	24970.37
464.138	25132.16
464.343	24902.79
464.549	24257.68
464.754	25160.83
464.959	25201.79
465.165	25107.58
465.37	23612.57
465.575	23030.94
465.781	24136.85
465.986	24392.84
466.191	23405.72
466.397	22383.79
466.602	21638.33
466.807	22740.13
467.012	22639.78
467.218	22617.25
467.423	22201.52
467.628	22389.93
467.833	23131.3
468.038	22359.21
468.244	21863.6
468.449	22695.08
468.654	21982.38
468.859	21513.4
469.064	21650.61
469.269	20847.81
469.474	20812.99
469.679	21267.64
469.885	20640.97
470.09	21028.03
470.295	20806.85
470.5	20268.23
470.705	20516.04
470.91	19899.6
471.115	19836.11
471.32	20376.78
471.525	19735.76
471.73	19596.5
471.935	19422.42
472.139	18803.94
472.344	18900.19
472.549	18742.5
472.754	18879.71
472.959	18310.38
473.164	18050.28
473.369	17755.38
473.574	18300.14
473.778	18005.23
473.983	17640.69
474.188	17798.38
474.393	17231.1
474.598	17302.78
474.802	17007.87
475.007	16917.76
475.212	16817.41
475.417	16196.87
475.621	16389.38
475.826	16532.74
476.031	16221.45
476.235	15729.94
476.44	15865.1
476.645	15371.54
476.849	15674.64
477.054	15453.46
477.259	15263
477.463	15181.08
477.668	14916.89
477.872	14820.64
478.077	14738.72
478.282	14206.25
478.486	14325.03
478.691	13974.83
478.895	14159.14
479.1	13833.52
479.304	13993.26
479.509	13530.42
479.713	13833.52
479.918	13403.44
480.122	13385.01
480.326	13643.06
480.531	13659.44
480.735	13557.04
480.94	13563.19
481.144	13788.46
481.348	13118.78
481.553	13167.93
481.757	12928.31
481.961	13147.45
482.166	13223.22
482.37	13155.64
482.574	13094.2
482.778	13059.38
482.983	13247.8
483.187	13282.61
483.391	13346.1
483.595	13141.3
483.8	12969.27
484.004	13307.19
484.208	13253.94
484.412	13110.58
484.616	13077.82
484.821	13010.23
485.025	12873.02
485.229	13149.5
485.433	12731.71
485.637	13069.62
485.841	12879.16
486.045	12934.46
486.249	13106.49
486.453	13020.47
486.657	13069.62
486.861	13163.83
487.065	12860.73
487.269	12901.69
487.473	12795.2
487.677	13069.62
487.881	13012.28
488.085	12913.98
488.289	12997.95
488.493	12975.42
488.697	13223.22
488.901	12965.18
489.105	13237.56
489.309	13344.05
489.512	13309.24
489.716	13290.81
489.92	13215.03
490.124	13237.56
490.328	13495.6
490.531	13063.48
490.735	13335.86
490.939	13612.34
491.143	13360.44
491.346	13301.05
491.55	13468.98
491.754	13598
491.958	13761.84
492.161	13604.14
492.365	13837.61
492.569	13727.02
492.772	13739.31
492.976	13991.21
493.18	13880.62
493.383	14107.94
493.587	14218.54
493.79	14421.28
493.994	14148.9
494.197	14308.65
494.401	14337.32
494.605	14433.57
494.808	14777.63
495.012	14691.62
495.215	14636.32
495.419	14968.09
495.622	14853.41
495.825	15076.63
496.029	15416.6
496.232	15539.47
496.436	15519
496.639	15818
496.843	15658.26
497.046	16172.3
497.249	16119.05
497.453	16243.98
497.656	16483.59
497.859	16499.97
498.063	16510.21
498.266	16862.46
498.469	16993.53
498.673	17014.01
498.876	17300.73
499.079	17597.68
499.282	17392.89
499.485	18068.72
499.689	18029.8
499.892	17984.75
500.095	18093.29
500.298	18734.31
500.501	18695.39
500.705	18879.71
500.908	19354.84
501.111	19408.09
501.314	19641.56
501.517	19578.07
501.72	20233.42
501.923	19975.38
502.126	20501.7
502.329	20937.92
502.532	20673.73
502.735	20976.83
502.938	21423.29
503.141	21294.27
503.344	21845.17
503.547	21730.48
503.75	22318.25
503.953	22525.1
504.156	22398.12
504.359	22801.57
504.562	22928.55
504.765	23637.14
504.968	23571.61
505.17	23682.2
505.373	23973.01
505.576	24448.14
505.779	24712.33
505.982	24540.3
506.185	25418.88
506.387	25246.85
506.59	25508.99
506.793	26070.13
506.996	26059.89
507.198	26600.55
507.401	26543.21
507.604	26793.06
507.807	27442.27
508.009	27423.84
508.212	27794.52
508.415	28255.31
508.617	28415.05
508.82	28451.92
509.022	28175.44
509.225	29086.79
509.428	29477.95
509.63	29578.3
509.833	29824.06
510.035	30374.96
510.238	30385.2
510.44	30688.3
510.643	30880.81
510.845	31196.2
511.048	31302.69
511.25	31726.62
511.453	31966.23
511.655	32797.71
511.858	32359.44
512.06	32883.72
512.262	33188.87
512.465	33244.16
512.667	33913.85
512.87	33854.46
513.072	34229.24
513.274	34892.78
513.477	35097.58
513.679	35539.94
513.881	35513.31
514.084	35900.38
514.286	35632.1
514.488	36226.01
514.69	37315.53
514.893	37383.11
515.095	37444.55
515.297	37755.84
515.499	37997.5
515.701	38519.73
515.904	39058.35
516.106	38996.91
516.308	39170.99
516.51	39953.31
516.712	39672.74
516.914	40240.03
517.116	40737.68
517.318	41171.85
517.52	41118.6
517.722	41124.75
517.925	41778.05
518.127	42511.22
518.329	42376.06
518.531	42574.71
518.733	42697.59
518.935	43238.25
519.136	43309.93
519.338	44428.12
519.54	44272.48
519.742	44630.87
519.944	44569.43
520.146	45349.71
520.348	45493.07
520.55	45706.05
520.752	45869.89
520.954	46359.36
521.155	46261.05
521.357	46908.21
521.559	47311.66
521.761	47944.48
521.963	47463.21
522.164	47807.27
522.366	48104.23
522.568	48286.5
522.77	48814.87
522.971	49232.66
523.173	48786.2
523.375	49441.55
523.576	49507.08
523.778	49634.06
523.98	50561.79
524.181	50594.56
524.383	50432.77
524.584	51395.31
524.786	51108.6
524.988	51188.47
525.189	51555.05
525.391	51385.07
525.592	52007.65
525.794	51944.17
525.995	52040.42
526.197	52343.52
526.398	52366.05
526.6	52054.76
526.801	52466.4
527.003	52859.61
527.204	53058.26
527.406	53580.49
527.607	53076.69
527.808	53564.11
528.01	53164.76
528.211	53414.61
528.412	54573.76
528.614	53566.16
528.815	53881.55
529.016	54584
529.218	53883.59
529.419	54100.68
529.62	54506.18
529.822	53959.37
530.023	53971.66
530.224	54467.26
530.425	54307.52
530.626	53942.98
530.828	54395.59
531.029	55544.5
531.23	54536.9
531.431	54721.21
531.632	54809.28
531.833	54958.78
532.035	54962.87
532.236	55034.55
532.437	55390.9
532.638	54799.04
532.839	54801.08
533.04	55433.91
533.241	54876.86
533.442	55671.47
533.643	55411.38
533.844	55059.13
534.045	55151.29
534.246	54285
534.447	55241.4
534.648	54995.64
534.849	55108.28
535.05	54876.86
535.251	55194.29
535.451	54805.18
535.652	55212.73
535.853	54708.93
536.054	55327.41
536.255	55003.83
536.456	54528.7
536.657	55681.71
536.857	54688.45
537.058	54774.46
537.259	54823.61
537.46	55055.03
537.66	54903.48
537.861	54887.1
538.062	54571.71
538.263	54672.06
538.463	54364.87
538.664	54663.87
538.865	54860.47
539.065	54696.64
539.266	54231.75
539.466	55177.91
539.667	53918.41
539.868	54762.17
540.068	54725.31
540.269	54143.69
540.469	54760.12
540.67	54416.07
540.87	54497.98
541.071	54461.12
541.271	54622.91
541.472	54196.93
541.672	54090.44
541.873	53816.01
542.073	53621.45
542.274	54639.29
542.474	53936.84
542.675	53553.87
542.875	54125.25
543.075	53940.94
543.276	53603.02
543.476	54217.41
543.676	53617.36
543.877	53918.41
544.077	53934.79
544.277	53598.93
544.478	53549.77
544.678	54315.72
544.878	53963.46
545.078	53568.21
545.279	53385.94
545.479	53674.7
545.679	53787.34
545.879	53676.75
546.079	53510.86
546.28	53678.8
546.48	53271.25
546.68	53770.96
546.88	54024.9
547.08	53508.82
547.28	53426.9
547.48	52994.78
547.68	53310.16
547.88	52904.66
548.081	53488.34
548.281	53404.37
548.481	53463.76
548.681	53486.29
548.881	53103.32
549.081	53349.07
549.28	52703.96
549.48	53164.76
549.68	53320.4
549.88	53639.89
550.08	53248.72
550.28	52919
550.48	52468.45
550.68	53293.78
550.88	52439.78
551.08	52658.91
551.279	52783.83
551.479	52464.35
551.679	52886.23
551.879	52245.22
552.079	53021.4
552.278	52548.32
552.478	52824.79
552.678	52409.06
552.878	53146.33
553.077	52732.64
553.277	51829.48
553.477	52558.56
553.676	52349.67
553.876	52277.99
554.076	52259.55
554.275	52148.96
554.475	51768.04
554.674	52239.07
554.874	51856.1
555.074	51776.23
555.273	52128.48
555.473	52587.23
555.672	52382.43
555.872	51645.16
556.071	52169.44
556.271	52198.12
556.47	51997.41
556.67	51421.94
556.869	51297.01
557.068	51845.86
557.268	51831.53
557.467	51935.98
557.667	51540.72
557.866	51727.08
558.065	51141.36
558.265	51190.51
558.464	51143.41
558.663	51186.42
558.863	50563.84
559.062	51786.47
559.261	51018.49
559.461	51581.68
559.66	50203.39
559.859	51104.5
560.058	50588.41
560.258	50565.88
560.457	50039.56
560.656	50842.36
560.855	50273.02
561.054	50469.63
561.253	50076.42
561.453	50236.16
561.652	50518.78
561.851	50629.37
562.05	49832.71
562.249	49728.27
562.448	50180.87
562.647	50164.48
562.846	50023.17
563.045	49920.77
563.244	49711.88
563.443	49888.01
563.642	48999.19
563.841	49287.95
564.04	49208.08
564.239	49498.89
564.438	49081.11
564.637	49466.13
564.836	49306.38
565.035	48806.68
565.234	49031.96
565.432	48911.13
565.631	48761.62
565.83	48757.53
566.029	48700.18
566.228	48503.58
566.427	48784.15
566.625	48071.46
566.824	47549.23
567.023	48284.45
567.222	47289.13
567.42	48532.25
567.619	48151.33
567.818	47696.68
568.016	47962.92
568.215	47686.44
568.414	47723.3
568.612	47954.72
568.811	47323.95
569.01	47569.71
569.208	46754.61
569.407	47207.22
569.605	47045.43
569.804	47227.7
570.002	46748.47
570.201	47239.98
570.4	46506.81
570.598	46611.26
570.797	46213.95
570.995	46680.89
571.193	46240.57
571.392	46672.7
571.59	45806.41
571.789	45898.56
571.987	45701.96
572.186	46093.12
572.384	45663.05
572.582	46177.09
572.781	46445.37
572.979	45503.31
573.177	45517.64
573.376	45704.01
573.574	45280.08
573.772	45278.03
573.971	44802.9
574.169	44956.5
574.367	44591.96
574.565	44985.17
574.763	44569.43
574.962	44497.75
575.16	44227.42
575.358	44462.94
575.556	43717.48
575.754	44174.17
575.952	44022.62
576.151	44065.63
576.349	43719.52
576.547	43395.95
576.745	43694.95
576.943	43672.42
577.141	43240.3
577.339	43783.01
577.537	42914.67
577.735	43275.12
577.933	42732.4
578.131	43551.59
578.329	42752.88
578.527	42310.52
578.725	42488.7
578.923	42687.35
579.121	41829.25
579.319	42275.71
579.516	42380.15
579.714	42290.04
579.912	42283.9
580.11	42220.41
580.308	41972.61
580.506	41900.93
580.704	41415.56
580.901	41298.83
581.099	41771.91
581.297	40973.2
581.495	41132.94
581.692	41679.75
581.89	41182.09
582.088	41036.69
582.285	40975.25
582.483	41042.83
582.681	40852.37
582.878	40752.02
583.076	40342.42
583.274	40805.27
583.471	40039.33
583.669	40393.62
583.866	40041.37
584.064	40182.68
584.262	39691.17
584.459	40311.7
584.657	39545.76
584.854	40172.44
585.052	39060.4
585.249	39715.75
585.447	39496.61
585.644	38951.85
585.841	38917.04
586.039	39314.34
586.236	38454.2
586.434	38691.76
586.631	38517.68
586.828	38392.76
587.026	38648.75
587.223	38245.3
587.42	38163.39
587.618	38054.84
587.815	37845.95
588.012	37465.03
588.21	37489.6
588.407	37766.08
588.604	37606.34
588.801	37557.19
588.999	37391.3
589.196	37123.02
589.393	37204.94
589.59	36985.8
589.787	37096.39
589.984	36914.12
590.182	36611.03
590.379	36821.97
590.576	36758.48
590.773	36510.67
590.97	36346.84
591.167	35998.68
591.364	35742.69
591.561	36322.26
591.758	35462.11
591.955	35652.58
592.152	36236.25
592.349	35222.5
592.546	35441.64
592.743	35283.94
592.94	35224.55
593.137	35439.59
593.334	35116.01
593.531	34591.73
593.727	34962.41
593.924	34788.33
594.121	34581.49
594.318	34866.16
594.515	34638.83
594.712	34958.31
594.908	34096.12
595.105	34462.71
595.302	34169.85
595.499	34192.37
595.696	33967.1
595.892	33905.66
596.089	33745.92
596.286	33760.25
596.482	33526.78
596.679	33207.3
596.876	33489.92
597.072	33121.29
597.269	33299.46
597.466	32838.67
597.662	33121.29
597.859	32850.95
598.055	32723.98
598.252	32455.7
598.448	32582.67
598.645	32766.99
598.841	32105.49
599.038	32701.45
599.234	32054.29
599.431	31577.12
599.627	31894.55
599.824	31898.65
600.02	31550.49
600.217	32148.5
600.413	31626.27
600.609	31456.29
600.806	31065.13
601.002	31339.55
601.198	31319.07
601.395	31224.87
601.591	30899.24
601.787	31138.85
601.984	30927.91
602.18	31421.47
602.376	30460.98
602.572	30334
602.769	30315.57
602.965	30309.43
603.161	30069.81
603.357	30096.44
603.553	30366.77
603.75	30260.27
603.946	29719.61
604.142	29627.45
604.338	29541.44
604.534	29977.65
604.73	29613.12
604.926	29342.78
605.122	29410.37
605.318	29547.58
605.514	29424.7
605.71	28918.85
605.906	29054.02
606.102	28904.52
606.298	28826.7
606.494	28789.83
606.69	28720.2
606.886	28836.94
607.082	28218.45
607.278	28925
607.474	28136.53
607.67	28400.72
607.866	27833.43
608.062	28732.49
608.257	28103.76
608.453	28308.56
608.649	28460.11
608.845	27872.34
609.041	27933.78
609.236	28398.67
609.432	27929.69
609.628	27907.16
609.824	27561.05
610.019	27718.75
610.215	27335.77
610.411	27683.93
610.606	27458.65
610.802	27429.98
610.998	27712.6
611.193	27243.62
611.389	27403.36
611.584	27235.42
611.78	26881.13
611.976	27067.49
612.171	27124.83
612.367	26819.69
612.562	27118.69
612.758	26799.21
612.953	26692.71
613.149	27008.1
613.344	26516.59
613.539	26661.99
613.735	26793.06
613.93	26684.52
614.126	26348.65
614.321	26758.25
614.517	26444.91
614.712	26338.41
614.907	26250.35
615.103	26412.14
615.298	26088.56
615.493	26248.3
615.688	25754.74
615.884	26604.65
616.079	25713.78
616.274	26123.38
616.47	25871.48
616.665	25799.8
616.86	25848.95
617.055	25732.22
617.25	25760.89
617.445	25877.62
617.641	25236.61
617.836	25707.64
618.031	25105.54
618.226	25756.79
618.421	25070.72
618.616	25283.71
618.811	24822.92
619.006	25318.53
619.201	24708.23
619.396	24824.97
619.591	24605.83
619.786	24546.44
619.981	24171.66
620.176	24642.7
620.371	24179.86
620.566	23979.15
620.761	23936.15
620.956	24118.42
621.151	23766.17
621.346	23932.05
621.541	23678.1
621.735	23803.03
621.93	23501.98
622.125	23590.04
622.32	23137.44
622.515	23076
622.709	22830.24
622.904	22860.96
623.099	22625.45
623.294	22783.14
623.488	22277.29
623.683	22582.44
623.878	22162.61
624.072	22144.17
624.267	22232.24
624.462	22023.34
624.656	21619.89
624.851	21853.36
625.046	21798.07
625.24	21552.31
625.435	21472.44
625.629	21224.64
625.824	21161.15
626.018	21259.45
626.213	20522.18
626.407	20901.06
626.602	20608.2
626.796	21032.13
626.991	20593.86
627.185	20534.47
627.38	20118.73
627.574	20174.03
627.768	20090.06
627.963	19893.46
628.157	19762.39
628.352	20128.97
628.546	19600.6
628.74	19748.05
628.935	19291.35
629.129	19651.8
629.323	19152.09
629.517	19528.92
629.712	19258.59
629.906	19031.26
630.1	18580.71
630.294	18701.54
630.489	18470.12
630.683	18838.75
630.877	18359.53
631.071	18285.8
631.265	18224.36
631.459	18150.64
631.653	18050.28
631.848	17853.68
632.042	17947.89
632.236	17655.03
632.43	17751.28
632.624	17814.77
632.818	17489.14
633.012	17448.18
633.206	17405.17
633.4	17321.21
633.594	16884.99
633.788	17038.59
633.982	17116.41
634.176	16983.29
634.369	16841.98
634.563	16731.39
634.757	16647.43
634.951	16766.21
635.145	16637.19
635.339	16577.8
635.533	16461.06
635.726	16413.96
635.92	16026.89
636.114	16084.23
636.308	15826.19
636.501	15955.21
636.695	15807.76
636.889	15666.45
637.083	15514.9
637.276	15635.73
637.47	15412.5
637.664	15498.52
637.857	15439.12
638.051	15379.73
638.244	14843.17
638.438	15158.55
638.632	15095.07
638.825	14726.43
639.019	14781.73
639.212	14814.49
639.406	15015.19
639.599	14384.42
639.793	14642.46
639.986	14355.75
640.18	14279.97
640.373	14210.34
640.567	14128.42
640.76	14210.34
640.954	14193.96
641.147	14118.18
641.34	14015.79
641.534	13792.56
641.727	13921.58
641.92	13837.61
642.114	13536.56
642.307	13538.61
642.5	13479.22
642.694	13471.03
642.887	13415.73
643.08	13546.8
643.273	13225.27
643.467	13260.09
643.66	13032.76
643.853	12983.61
644.046	12727.61
644.239	12830.01
644.432	12981.56
644.626	12866.88
644.819	12799.29
645.012	12567.87
645.205	12625.22
645.398	12555.58
645.591	12547.39
645.784	12586.3
645.977	12057.93
646.17	12238.15
646.363	12197.19
646.556	11826.51
646.749	12186.95
646.942	12102.98
647.135	11910.47
647.328	11756.88
647.521	12039.5
647.714	11519.31
647.907	11488.59
648.099	11541.84
648.292	11803.98
648.485	11382.1
648.678	11472.21
648.871	11259.22
649.064	11283.8
649.256	11226.45
649.449	11199.83
649.642	10882.39
649.835	10886.49
650.027	10945.88
650.22	10982.74
650.413	10773.85
650.605	10802.52
650.798	10696.03
650.991	10653.02
651.183	10657.12
651.376	10769.76
651.568	10673.5
651.761	10335.59
651.954	10595.68
652.146	10620.25
652.339	10446.18
652.531	10298.72
652.724	10227.04
652.916	10112.36
653.109	10069.35
653.301	10243.43
653.494	10012.01
653.686	10022.25
653.879	10034.53
654.071	9770.35
654.263	9729.39
654.456	9702.76
654.648	9839.98
654.84	9549.17
655.033	9598.32
655.225	9579.89
655.417	9538.93
655.61	9633.13
655.802	9528.69
655.994	9190.77
656.186	9174.39
656.379	9325.94
656.571	9309.55
656.763	9121.14
656.955	8967.54
657.148	9188.72
657.34	9028.98
657.532	9016.69
657.724	8926.58
657.916	9002.36
658.108	8877.43
658.3	8809.85
658.492	8791.42
658.684	8639.87
658.876	8600.96
659.068	8506.75
659.26	8418.69
659.452	8510.85
659.644	8678.78
659.836	8471.93
660.028	8457.6
660.22	8385.92
660.412	8467.84
660.604	8156.55
660.796	8541.57
660.988	8277.38
661.18	8164.74
661.372	8048.01
661.563	8142.21
661.755	8013.19
661.947	8099.2
662.139	8039.81
662.331	7896.46
662.522	7755.15
662.714	7703.95
662.906	7751.05
663.097	7900.55
663.289	7677.32
663.481	7581.07
663.673	7671.18
663.864	7601.55
664.056	7452.05
664.247	7325.07
664.439	7341.46
664.631	7366.03
664.822	7542.16
665.014	7306.64
665.205	7419.28
665.397	7241.11
665.588	7234.96
665.78	7019.92
665.971	7089.56
666.163	7218.58
666.354	7183.76
666.546	6966.68
666.737	6913.43
666.929	7075.22
667.12	7007.64
667.311	6985.11
667.503	6862.23
667.694	6919.57
667.885	6690.2
668.077	6725.02
668.268	6874.52
668.459	6847.9
668.651	6907.29
668.842	6714.78
669.033	6557.08
669.224	6675.87
669.416	6765.98
669.607	6671.77
669.798	6446.49
669.989	6403.49
670.18	6542.75
670.371	6342.05
670.563	6317.47
670.754	6243.74
670.945	6352.29
671.136	6319.52
671.327	6280.61
671.518	6241.7
671.709	6241.7
671.9	6294.94
672.091	6311.33
672.282	6256.03
672.473	5981.6
672.664	6084
672.855	6063.52
673.046	6063.52
673.237	6098.34
673.428	5954.98
673.619	6012.32
673.809	6002.08
674	5842.34
674.191	6036.9
674.382	5875.11
674.573	5729.7
674.764	5983.65
674.954	5791.14
675.145	5815.72
675.336	5780.9
675.527	5582.25
675.717	5766.57
675.908	5739.94
676.099	5805.48
676.289	5496.24
676.48	5526.96
676.671	5588.39
676.861	5621.16
677.052	5518.76
677.243	5559.72
677.433	5449.13
677.624	5526.96
677.814	5524.91
678.005	5393.84
678.195	5434.8
678.386	5627.31
678.576	5307.82
678.767	5244.34
678.957	5211.57
679.148	5447.08
679.338	5125.55
679.529	5307.82
679.719	5428.65
679.909	5258.67
680.1	5199.28
680.29	5348.78
680.481	5230
680.671	5195.18
680.861	5014.96
681.052	5201.33
681.242	5164.47
681.432	5248.43
681.622	5184.94
681.813	5088.69
682.003	5096.88
682.193	5080.5
682.383	5053.87
682.573	5178.8
682.764	4998.58
682.954	5156.27
683.144	5070.26
683.334	4953.52
683.524	4879.8
683.714	5006.77
683.904	4937.14
684.094	4951.48
684.284	4789.69
684.474	5021.11
684.664	4824.5
684.854	5039.54
685.044	4855.22
685.234	4683.19
685.424	4863.41
685.614	4793.78
685.804	4640.19
685.994	4593.08
686.184	4713.91
686.374	4652.47
686.564	4812.21
686.753	4552.12
686.943	4515.26
687.133	4732.34
687.323	4576.7
687.513	4728.25
687.702	4449.72
687.892	4623.8
688.082	4636.09
688.272	4531.64
688.461	4646.33
688.651	4533.69
688.841	4263.36
689.03	4496.83
689.22	4435.39
689.41	4398.52
689.599	4402.62
689.789	4363.71
689.979	4298.17
690.168	4273.6
690.358	4269.5
690.547	4228.54
690.737	4203.97
690.926	4300.22
691.116	4244.93
691.305	4253.12
691.495	4109.76
691.684	4189.63
691.874	4244.93
692.063	4160.96
692.252	4232.64
692.442	4183.49
692.631	4003.27
692.82	4001.22
693.01	4074.95
693.199	4076.99
693.388	4011.46
693.578	4111.81
693.767	3857.86
693.956	3896.77
694.146	3919.3
694.335	3837.38
694.524	3859.91
694.713	3974.6
694.902	3839.43
695.092	3837.38
695.281	3788.23
695.47	3845.57
695.659	3794.37
695.848	3851.72
696.037	3849.67
696.226	3825.09
696.415	3833.29
696.604	3870.15
696.793	3835.33
696.982	3755.46
697.171	3694.02
697.36	3798.47
697.549	3653.06
697.738	3706.31
697.927	3700.17
698.116	3732.94
698.305	3700.17
698.494	3710.41
698.683	3605.96
698.872	3777.99
699.061	3679.69
699.25	3804.61
699.438	3601.87
699.627	3632.58
699.816	3573.19
700.005	3653.06
700.193	3603.91
700.382	3671.5
700.571	3585.48
700.76	3524.04
700.948	3433.93
701.137	3585.48
701.326	3521.99
701.514	3487.18
701.703	3726.79
701.892	3524.04
702.08	3501.51
702.269	3571.15
702.457	3438.03
702.646	3415.5
702.834	3440.08
703.023	3454.41
703.212	3509.71
703.4	3612.1
703.589	3431.88
703.777	3542.47
703.965	3476.94
704.154	3460.56
704.342	3503.56
704.531	3503.56
704.719	3423.69
704.907	3446.22
705.096	3544.52
705.284	3392.97
705.472	3442.12
705.661	3380.68
705.849	3352.01
706.037	3325.39
706.226	3456.46
706.414	3444.17
706.602	3497.42
706.79	3468.75
706.979	3405.26
707.167	3376.59
707.355	3251.66
707.543	3171.79
707.731	3321.29
707.919	3331.53
708.107	3345.87
708.296	3251.66
708.484	3362.25
708.672	3345.87
708.86	3456.46
709.048	3210.7
709.236	3288.53
709.424	3212.75
709.612	3245.52
709.8	3284.43
709.988	3128.78
710.176	3237.33
710.364	3382.73
710.551	3302.86
710.739	3249.61
710.927	3247.57
711.115	3292.62
711.303	3362.25
711.491	3132.88
711.679	3212.75
711.866	3169.74
712.054	3294.67
712.242	2989.52
712.43	3237.33
712.617	3192.27
712.805	3245.52
712.993	3210.7
713.181	3122.64
713.368	3091.92
713.556	3079.63
713.744	3096.02
713.931	3081.68
714.119	3053.01
714.306	3151.31
714.494	3059.15
714.682	3044.82
714.869	3093.97
715.057	2913.75
715.244	3087.82
715.432	2932.18
715.619	3134.93
715.807	3063.25
715.994	3118.54
716.182	3016.15
716.369	3069.39
716.556	3024.34
716.744	3030.48
716.931	2915.8
717.119	2964.95
717.306	2956.75
717.493	2938.32
717.681	2995.67
717.868	2909.65
718.055	2874.84
718.242	2979.28
718.43	2905.56
718.617	2944.47
718.804	3022.29
718.991	2981.33
719.179	3014.1
719.366	2891.22
719.553	2880.98
719.74	2831.83
719.927	2883.03
720.114	2866.64
720.301	2928.08
720.488	2858.45
720.676	2866.64
720.863	2966.99
721.05	2913.75
721.237	2883.03
721.424	2895.32
721.611	2866.64
721.798	2698.71
721.985	2700.76
722.172	2825.68
722.358	2880.98
722.545	2788.82
722.732	2794.97
722.919	2715.09
723.106	2723.29
723.293	2797.01
723.48	2727.38
723.667	2723.29
723.853	2715.09
724.04	2786.77
724.227	2715.09
724.414	2620.89
724.6	2721.24
724.787	2596.31
724.974	2649.56
725.161	2612.7
725.347	2643.42
725.534	2659.8
725.72	2637.27
725.907	2649.56
726.094	2704.85
726.28	2643.42
726.467	2633.18
726.653	2698.71
726.84	2594.26
727.027	2653.66
727.213	2610.65
727.4	2682.33
727.586	2586.07
727.773	2616.79
727.959	2489.82
728.145	2602.46
728.332	2573.78
728.518	2643.42
728.705	2561.5
728.891	2483.67
729.077	2565.59
729.264	2581.98
729.45	2555.35
729.636	2647.51
729.823	2489.82
730.009	2481.63
730.195	2489.82
730.382	2403.8
730.568	2557.4
730.754	2479.58
730.94	2467.29
731.126	2534.87
731.313	2401.76
731.499	2512.35
731.685	2469.34
731.871	2446.81
732.057	2471.39
732.243	2424.28
732.429	2379.23
732.615	2485.72
732.801	2471.39
732.987	2442.71
733.173	2434.52
733.359	2356.7
733.545	2321.88
733.731	2397.66
733.917	2434.52
734.103	2348.51
734.289	2432.47
734.475	2282.97
734.661	2430.43
734.847	2264.54
735.033	2274.78
735.219	2385.37
735.404	2344.41
735.59	2285.02
735.776	2305.5
735.962	2219.49
736.148	2242.01
736.333	2352.6
736.519	2219.49
736.705	2334.17
736.89	2160.1
737.076	2219.49
737.262	2151.9
737.447	2231.77
737.633	2282.97
737.819	2274.78
738.004	2151.9
738.19	2219.49
738.375	2217.44
738.561	2233.82
738.747	2246.11
738.932	2176.48
739.118	2174.43
739.303	2151.9
739.489	2229.73
739.674	2145.76
739.859	2180.57
740.045	2102.75
740.23	2121.18
740.416	2061.79
740.601	2094.56
740.786	2129.38
740.972	1977.83
741.157	1986.02
741.342	1992.16
741.528	2115.04
741.713	2180.57
741.898	2024.93
742.084	2012.64
742.269	2082.27
742.454	2037.22
742.639	1975.78
742.824	1932.77
743.01	1988.07
743.195	1914.34
743.38	1947.11
743.565	1953.25
743.75	1951.2
743.935	1926.63
744.12	1904.1
744.305	1904.1
744.49	1834.47
744.675	1910.24
744.86	1871.33
745.045	1859.04
745.23	1986.02
745.415	1857
745.6	1865.19
745.785	1766.89
745.97	1830.37
746.155	1748.45
746.34	1844.71
746.525	1723.88
746.71	1891.81
746.895	1826.28
747.079	1721.83
747.264	1711.59
747.449	1639.91
747.634	1783.27
747.819	1742.31
748.003	1736.17
748.188	1717.73
748.373	1699.3
748.557	1648.1
748.742	1744.36
748.927	1672.68
749.111	1656.29
749.296	1580.52
749.481	1617.38
749.665	1607.14
749.85	1537.51
750.034	1730.02
750.219	1633.77
750.404	1551.85
750.588	1582.57
750.773	1623.53
750.957	1578.47
751.141	1574.38
751.326	1527.27
751.51	1551.85
751.695	1551.85
751.879	1428.97
752.064	1492.46
752.248	1471.98
752.432	1514.98
752.617	1535.46
752.801	1455.59
752.985	1527.27
753.17	1359.34
753.354	1435.11
753.538	1496.55
753.722	1375.72
753.907	1373.68
754.091	1402.35
754.275	1406.44
754.459	1330.67
754.643	1279.47
754.828	1338.86
755.012	1363.44
755.196	1234.41
755.38	1250.8
755.564	1203.69
755.748	1320.43
755.932	1289.71
756.116	1285.61
756.3	1201.65
756.484	1187.31
756.668	1201.65
756.852	1244.65
757.036	1332.72
757.22	1269.23
757.404	1275.37
757.588	1080.82
757.772	1175.02
757.956	1228.27
758.14	1129.97
758.323	1158.64
758.507	1146.35
758.691	1115.63
758.875	1175.02
759.059	1168.88
759.242	1146.35
759.426	1080.82
759.61	1070.58
759.794	1160.69
759.977	1005.04
760.161	1154.54
760.345	1117.68
760.528	1209.84
760.712	1023.47
760.895	1054.19
761.079	1072.62
761.263	1064.43
761.446	1029.62
761.63	1025.52
761.813	1064.43
761.997	998.9
762.18	951.79
762.364	1009.14
762.547	962.03
762.731	1019.38
762.914	1103.34
763.098	1068.53
763.281	945.65
763.464	972.27
763.648	955.89
763.831	947.7
764.015	990.7
764.198	939.51
764.381	916.98
764.564	941.55
764.748	972.27
764.931	972.27
765.114	908.79
765.297	980.47
765.481	996.85
765.664	968.18
765.847	916.98
766.03	933.36
766.213	906.74
766.397	888.31
766.58	892.4
766.763	959.99
766.946	900.59
767.129	894.45
767.312	886.26
767.495	876.02
767.678	843.25
767.861	779.76
768.044	902.64
768.227	923.12
768.41	902.64
768.593	857.59
768.776	886.26
768.959	843.25
769.142	865.78
769.324	847.35
769.507	916.98
769.69	880.11
769.873	798.2
770.056	888.31
770.239	814.58
770.421	826.87
770.604	855.54
770.787	855.54
770.97	816.63
771.152	820.72
771.335	845.3
771.518	826.87
771.7	841.2
771.883	812.53
772.066	753.14
772.248	790
772.431	773.62
772.613	777.72
772.796	716.28
772.978	757.24
773.161	771.57
773.343	833.01
773.526	783.86
773.708	765.43
773.891	708.09
774.073	691.7
774.256	728.56
774.438	818.68
774.621	706.04
774.803	706.04
774.985	673.27
775.168	697.85
775.35	699.89
775.532	806.39
775.715	665.08
775.897	693.75
776.079	652.79
776.261	681.46
776.444	693.75
776.626	675.32
776.808	712.18
776.99	691.7
777.173	691.7
777.355	693.75
777.537	630.26
777.719	605.69
777.901	685.56
778.083	652.79
778.265	597.49
778.447	591.35
778.629	712.18
778.811	632.31
778.993	611.83
779.175	634.36
779.357	583.16
779.539	585.21
779.721	562.68
779.903	552.44
780.085	591.35
780.267	540.15
780.449	605.69
780.631	613.88
780.812	605.69
780.994	540.15
781.176	472.57
781.358	529.91
781.54	570.87
781.721	560.63
781.903	560.63
782.085	505.34
782.267	505.34
782.448	456.19
782.63	447.99
782.812	505.34
782.993	544.25
783.175	546.3
783.357	499.19
783.538	447.99
783.72	441.85
783.901	529.91
784.083	441.85
784.264	486.9
784.446	396.79
784.627	364.03
784.809	437.75
784.99	538.1
785.172	493.05
785.353	437.75
785.535	484.86
785.716	437.75
785.897	355.83
786.079	402.94
786.26	398.84
786.441	447.99
786.623	429.56
786.804	409.08
786.985	400.89
787.167	509.43
787.348	439.8
787.529	411.13
787.71	441.85
787.891	388.6
788.073	382.46
788.254	355.83
788.435	458.23
788.616	343.55
788.797	458.23
788.978	411.13
789.159	304.64
789.34	404.99
789.522	378.36
789.703	323.07
789.884	411.13
790.065	400.89
790.246	437.75
790.427	366.07
790.607	398.84
790.788	327.16
790.969	333.31
791.15	382.46
791.331	273.92
791.512	357.88
791.693	275.96
791.874	359.93
792.054	402.94
792.235	335.35
792.416	316.92
792.597	214.52
792.778	335.35
792.958	364.03
793.139	353.79
793.32	290.3
793.5	288.25
793.681	261.63
793.862	318.97
794.042	325.12
794.223	271.87
794.404	333.31
794.584	271.87
794.765	335.35
794.945	314.88
795.126	345.59
795.306	321.02
795.487	306.68
795.667	261.63
795.848	341.5
796.028	327.16
796.209	325.12
796.389	345.59
796.57	249.34
796.75	194.05
796.93	253.44
797.111	196.09
797.291	228.86
797.471	220.67
797.652	308.73
797.832	263.68
798.012	261.63
798.192	255.48
798.373	224.76
798.553	306.68
798.733	278.01
798.913	251.39
799.093	288.25
799.274	202.24
799.454	265.72
799.634	247.29
799.814	206.33
799.994	230.91
800.174	329.21
800.354	183.81
800.534	255.48
800.714	257.53
800.894	224.76
801.074	148.99
801.254	159.23
801.434	257.53
801.614	267.77
801.794	175.61
801.974	611.83
802.154	230.91
802.334	226.81
802.514	216.57
802.693	165.37
802.873	224.76
803.053	255.48
803.233	175.61
803.413	153.09
803.592	226.81
803.772	232.96
803.952	202.24
804.131	273.92
804.311	140.8
804.491	194.05
804.67	167.42
804.85	155.13
805.03	161.28
805.209	204.28
805.389	187.9
805.568	194.05
805.748	198.14
805.928	161.28
806.107	163.33
806.287	183.81
806.466	155.13
806.646	151.04
806.825	183.81
807.004	202.24
807.184	228.86
807.363	216.57
807.543	247.29
807.722	163.33
807.901	255.48
808.081	235
808.26	60.93
808.439	132.61
808.619	206.33
808.798	132.61
808.977	220.67
809.156	161.28
809.336	134.65
809.515	218.62
809.694	181.76
809.873	148.99
810.052	163.33
810.231	218.62
810.411	214.52
810.59	257.53
810.769	97.79
810.948	173.57
811.127	124.41
811.306	177.66
811.485	204.28
811.664	181.76
811.843	134.65
812.022	220.67
812.201	110.08
812.38	253.44
812.559	124.41
812.737	157.18
812.916	144.89
813.095	142.85
813.274	112.13
813.453	95.74
813.632	130.56
813.811	208.38
813.989	114.17
814.168	155.13
814.347	157.18
814.526	146.94
814.704	189.95
814.883	136.7
815.062	130.56
815.24	99.84
815.419	140.8
815.598	151.04
815.776	112.13
815.955	177.66
816.133	116.22
816.312	128.51
816.49	93.69
816.669	138.75
816.847	52.74
817.026	110.08
817.204	83.45
817.383	118.27
817.561	69.12
817.74	112.13
817.918	73.21
818.097	60.93
818.275	58.88
818.453	216.57
818.632	208.38
818.81	134.65
818.988	124.41
819.167	187.9
819.345	85.5
819.523	179.71
819.701	91.65
819.879	130.56
820.058	161.28
820.236	75.26
820.414	95.74
820.592	85.5
820.77	95.74
820.948	146.94
821.127	118.27
821.305	120.32
821.483	85.5
821.661	155.13
821.839	103.93
822.017	132.61
822.195	163.33
822.373	65.02
822.551	101.89
822.729	157.18
822.907	108.03
823.085	181.76
823.262	103.93
823.44	17.92
823.618	183.81
823.796	114.17
823.974	67.07
824.152	60.93
824.329	89.6
824.507	101.89
824.685	169.47
824.863	138.75
825.04	13.82
825.218	175.61
825.396	103.93
825.574	132.61
825.751	52.74
825.929	126.46
826.107	34.3
826.284	112.13
826.462	114.17
826.639	34.3
826.817	71.17
826.994	99.84
827.172	62.98
827.349	118.27
827.527	77.31
827.704	151.04
827.882	93.69
828.059	97.79
828.237	24.06
828.414	91.65
828.591	124.41
828.769	167.42
828.946	101.89
829.124	142.85
829.301	54.78
829.478	36.35
829.655	146.94
829.833	151.04
830.01	95.74
830.187	65.02
830.364	81.41
830.542	71.17
830.719	114.17
830.896	126.46
831.073	44.54
831.25	128.51
831.427	60.93
831.604	85.5
831.782	69.12
831.959	114.17
832.136	87.55
832.313	103.93
832.49	-0.51
832.667	118.27
832.844	5.63
833.021	105.98
833.198	122.37
833.374	44.54
833.551	-4.61
833.728	62.98
833.905	101.89
834.082	-4.61
834.259	44.54
834.436	122.37
834.612	155.13
834.789	95.74
834.966	60.93
835.143	142.85
835.319	42.5
835.496	58.88
835.673	71.17
835.85	81.41
836.026	34.3
836.203	69.12
836.38	52.74
836.556	60.93
836.733	30.21
836.909	87.55
837.086	85.5
837.262	110.08
837.439	34.3
837.616	110.08
837.792	26.11
837.968	65.02
838.145	-23.04
838.321	91.65
838.498	32.26
838.674	26.11
838.851	73.21
839.027	54.78
839.203	44.54
839.38	38.4
839.556	138.75
839.732	67.07
839.909	138.75
840.085	128.51
840.261	28.16
840.437	7.68
840.614	116.22
840.79	79.36
840.966	46.59
841.142	77.31
841.318	97.79
841.494	126.46
841.671	65.02
841.847	77.31
842.023	24.06
842.199	77.31
842.375	56.83
842.551	-20.99
842.727	89.6
842.903	144.89
843.079	87.55
843.255	202.24
843.431	42.5
843.607	95.74
843.783	93.69
843.959	118.27
844.134	73.21
844.31	65.02
844.486	73.21
844.662	36.35
844.838	26.11
845.013	81.41
845.189	75.26
845.365	85.5
845.541	73.21
845.716	89.6
845.892	81.41
846.068	71.17
846.244	17.92
846.419	116.22
846.595	1.54
846.77	71.17
846.946	44.54
847.122	87.55
847.297	69.12
847.473	40.45
847.648	13.82
847.824	105.98
847.999	32.26
848.175	26.11
848.35	34.3
848.526	52.74
848.701	93.69
848.876	81.41
849.052	97.79
849.227	44.54
849.403	17.92
849.578	71.17
849.753	26.11
849.929	87.55
850.104	-0.51
850.279	58.88
850.454	36.35
850.63	124.41
850.805	67.07
850.98	22.02
851.155	73.21
851.33	40.45
851.505	79.36
851.681	114.17
851.856	32.26
852.031	56.83
852.206	67.07
852.381	58.88
852.556	89.6
852.731	28.16
852.906	71.17
853.081	101.89
853.256	7.68
853.431	50.69
853.606	36.35
853.781	99.84
853.956	-0.51
854.131	19.97
854.305	134.65
854.48	36.35
854.655	34.3
854.83	-18.94
855.005	62.98
855.18	60.93
855.354	48.64
855.529	44.54
855.704	48.64
855.879	22.02
856.053	-47.62
856.228	50.69
856.403	62.98
856.577	24.06
856.752	13.82
856.926	30.21
857.101	34.3
857.276	-0.51
857.45	42.5
857.625	46.59
857.799	7.68
857.974	-25.09
858.148	48.64
858.323	-27.14
858.497	30.21
858.672	151.04
858.846	9.73
859.02	99.84
859.195	46.59
859.369	44.54
859.543	32.26
859.718	105.98
859.892	48.64
860.066	69.12
860.241	11.78
860.415	32.26
860.589	-16.9
860.763	71.17
860.938	-8.7
861.112	32.26
861.286	13.82
861.46	-14.85
861.634	-64
861.808	69.12
861.982	26.11
862.157	46.59
862.331	11.78
862.505	-47.62
862.679	-31.23
862.853	48.64
863.027	7.68
863.201	69.12
863.375	5.63
863.549	19.97
863.722	5.63
863.896	128.51
864.07	89.6
864.244	-14.85
864.418	77.31
864.592	38.4
864.766	75.26
864.939	-4.61
865.113	38.4
865.287	73.21
865.461	-10.75
865.634	58.88
865.808	22.02
865.982	56.83
866.156	34.3
866.329	58.88
866.503	13.82
866.676	103.93
866.85	15.87
867.024	81.41
867.197	7.68
867.371	38.4
867.544	-0.51
867.718	-43.52
867.891	56.83
868.065	67.07
868.238	38.4
868.412	34.3
868.585	-57.86
868.759	17.92
868.932	9.73
869.105	56.83
869.279	69.12
869.452	-12.8
869.625	77.31
869.799	19.97
869.972	1.54
870.145	40.45
870.319	60.93
870.492	15.87
870.665	65.02
870.838	58.88
871.011	17.92
871.185	32.26
871.358	-37.38
871.531	3.58
871.704	5.63
871.877	-27.14
872.05	5.63
872.223	26.11
872.396	11.78
872.569	26.11
872.742	-12.8
872.915	19.97
873.088	-16.9
873.261	3.58
873.434	32.26
873.607	67.07
873.78	87.55
873.953	15.87
874.126	26.11
874.299	95.74
874.471	13.82
874.644	46.59
874.817	1.54
874.99	54.78
875.163	3.58
875.335	34.3
875.508	22.02
875.681	87.55
875.853	42.5
876.026	-16.9
876.199	38.4
876.371	60.93
876.544	19.97
876.717	-16.9
876.889	-6.66
877.062	36.35
877.234	1.54
877.407	54.78
877.579	-18.94
877.752	-2.56
877.924	-27.14
878.097	65.02
878.269	15.87
878.442	73.21
878.614	58.88
878.786	83.45
878.959	11.78
879.131	11.78
879.303	-31.23
879.476	103.93
879.648	101.89
879.82	42.5
879.993	-8.7
880.165	34.3
880.337	30.21
880.509	62.98
880.681	26.11
880.854	-12.8
881.026	77.31
881.198	67.07
881.37	26.11
881.542	89.6
881.714	15.87
881.886	7.68
882.058	-18.94
882.23	-10.75
882.402	-45.57
882.574	50.69
882.746	22.02
882.918	19.97
883.09	54.78
883.262	34.3
883.434	36.35
883.606	-2.56
883.778	-10.75
883.95	60.93
884.122	34.3
884.293	5.63
884.465	-10.75
884.637	75.26
884.809	-55.81
884.98	38.4
885.152	28.16
885.324	38.4
885.496	11.78
885.667	46.59
885.839	-53.76
886.011	-27.14
886.182	26.11
886.354	46.59
886.525	91.65
886.697	-12.8
886.869	11.78
887.04	48.64
887.212	103.93
887.383	24.06
887.555	-6.66
887.726	-10.75
887.897	11.78
888.069	105.98
888.24	46.59
888.412	46.59
888.583	-78.33
888.754	5.63
888.926	-16.9
889.097	46.59
889.268	-18.94
889.44	65.02
889.611	-18.94
889.782	15.87
889.953	48.64
890.125	32.26
890.296	44.54
890.467	-18.94
890.638	-18.94
890.809	11.78
890.98	56.83
891.151	34.3
891.323	50.69
891.494	26.11
891.665	83.45
891.836	-6.66
892.007	-14.85
892.178	-53.76
892.349	1.54
892.52	13.82
892.691	36.35
892.862	-4.61
893.032	38.4
893.203	-37.38
893.374	95.74
893.545	79.36
893.716	7.68
893.887	7.68
894.057	36.35
894.228	93.69
894.399	-78.33
894.57	42.5
894.74	58.88
894.911	-12.8
895.082	36.35
895.253	-35.33
895.423	69.12
895.594	36.35
895.764	-0.51
895.935	19.97
896.106	-0.51
896.276	-4.61
896.447	-64
896.617	-2.56
896.788	34.3
896.958	-16.9
897.129	-25.09
897.299	79.36
897.47	7.68
897.64	22.02
897.81	3.58
897.981	28.16
898.151	7.68
898.322	34.3
898.492	36.35
898.662	50.69
898.832	36.35
899.003	36.35
899.173	22.02
899.343	-35.33
899.513	-72.19
