Data from USB4F104151__26__12-00-37-092.txt Node

Date: Fri Mar 14 12:00:37 EDT 2025
User: louis
Spectrometer: USB4F10415
Trigger mode: 4
Integration Time (sec): 2.000000E-2
Scans to average: 1
Electric dark correction enabled: true
Nonlinearity correction enabled: false
Boxcar width: 0
XAxis mode: Wavelengths
Number of Pixels in Spectrum: 3648
>>>>>Begin Spectral Data<<<<<
178.204	-80.38
178.424	-80.38
178.644	-80.38
178.864	-61.95
179.084	-88.57
179.304	-45.57
179.524	17.92
179.744	13.82
179.964	13.82
180.184	-12.8
180.404	-29.18
180.624	7.68
180.844	13.82
181.064	-25.09
181.283	28.16
181.503	-27.14
181.723	44.54
181.943	-59.9
182.163	28.16
182.383	67.07
182.602	-16.9
182.822	40.45
183.042	-29.18
183.262	-39.42
183.482	34.3
183.701	3.58
183.921	-4.61
184.141	-37.38
184.361	38.4
184.58	-4.61
184.8	81.41
185.02	-43.52
185.239	-10.75
185.459	54.78
185.679	44.54
185.898	1.54
186.118	7.68
186.338	36.35
186.557	15.87
186.777	9.73
186.997	3.58
187.216	11.78
187.436	79.36
187.655	46.59
187.875	22.02
188.095	-0.51
188.314	58.88
188.534	110.08
188.753	3.58
188.973	-35.33
189.192	9.73
189.412	-14.85
189.631	3.58
189.851	65.02
190.07	62.98
190.29	-18.94
190.509	-10.75
190.729	24.06
190.948	-25.09
191.168	95.74
191.387	3.58
191.607	-10.75
191.826	26.11
192.045	-57.86
192.265	22.02
192.484	67.07
192.704	15.87
192.923	36.35
193.142	19.97
193.362	52.74
193.581	46.59
193.8	-8.7
194.02	42.5
194.239	44.54
194.458	-35.33
194.678	-12.8
194.897	50.69
195.116	26.11
195.335	-4.61
195.555	7.68
195.774	40.45
195.993	36.35
196.212	-39.42
196.432	15.87
196.651	118.27
196.87	-25.09
197.089	32.26
197.308	19.97
197.528	105.98
197.747	11.78
197.966	30.21
198.185	56.83
198.404	9.73
198.623	-41.47
198.842	26.11
199.062	17.92
199.281	32.26
199.5	58.88
199.719	-12.8
199.938	-53.76
200.157	81.41
200.376	-8.7
200.595	13.82
200.814	-33.28
201.033	24.06
201.252	81.41
201.471	52.74
201.69	7.68
201.909	42.5
202.128	-27.14
202.347	-8.7
202.566	1.54
202.785	-4.61
203.004	-43.52
203.223	17.92
203.442	40.45
203.661	-37.38
203.879	36.35
204.098	36.35
204.317	-39.42
204.536	73.21
204.755	-8.7
204.974	52.74
205.193	79.36
205.411	50.69
205.63	28.16
205.849	32.26
206.068	-31.23
206.287	-61.95
206.505	7.68
206.724	-0.51
206.943	1.54
207.162	65.02
207.381	-18.94
207.599	-57.86
207.818	58.88
208.037	7.68
208.255	7.68
208.474	52.74
208.693	9.73
208.911	71.17
209.13	71.17
209.349	97.79
209.567	19.97
209.786	-14.85
210.005	71.17
210.223	44.54
210.442	-115.2
210.661	73.21
210.879	13.82
211.098	17.92
211.316	-12.8
211.535	-4.61
211.753	58.88
211.972	17.92
212.191	38.4
212.409	77.31
212.628	62.98
212.846	17.92
213.065	79.36
213.283	132.61
213.502	-45.57
213.72	-10.75
213.938	-47.62
214.157	19.97
214.375	46.59
214.594	36.35
214.812	42.5
215.031	24.06
215.249	32.26
215.467	56.83
215.686	75.26
215.904	3.58
216.122	7.68
216.341	60.93
216.559	81.41
216.778	40.45
216.996	60.93
217.214	-27.14
217.432	19.97
217.651	-6.66
217.869	36.35
218.087	38.4
218.306	-41.47
218.524	-27.14
218.742	9.73
218.96	103.93
219.179	-57.86
219.397	32.26
219.615	-8.7
219.833	-45.57
220.051	52.74
220.27	89.6
220.488	48.64
220.706	-29.18
220.924	85.5
221.142	22.02
221.36	-39.42
221.578	-2.56
221.796	58.88
222.015	-29.18
222.233	-0.51
222.451	71.17
222.669	-166.4
222.887	54.78
223.105	13.82
223.323	48.64
223.541	48.64
223.759	71.17
223.977	19.97
224.195	17.92
224.413	1.54
224.631	30.21
224.849	11.78
225.067	73.21
225.285	-4.61
225.503	34.3
225.721	-25.09
225.939	48.64
226.157	26.11
226.375	48.64
226.592	36.35
226.81	-8.7
227.028	13.82
227.246	1.54
227.464	13.82
227.682	19.97
227.9	-39.42
228.117	17.92
228.335	40.45
228.553	52.74
228.771	3.58
228.989	5.63
229.206	15.87
229.424	9.73
229.642	13.82
229.86	1.54
230.077	28.16
230.295	34.3
230.513	30.21
230.731	-8.7
230.948	22.02
231.166	28.16
231.384	32.26
231.601	-45.57
231.819	22.02
232.037	-0.51
232.254	-51.71
232.472	79.36
232.689	-55.81
232.907	30.21
233.125	-16.9
233.342	-14.85
233.56	46.59
233.777	32.26
233.995	-41.47
234.213	81.41
234.43	13.82
234.648	1.54
234.865	1.54
235.083	58.88
235.3	-4.61
235.518	-31.23
235.735	46.59
235.953	32.26
236.17	-6.66
236.388	5.63
236.605	62.98
236.822	9.73
237.04	52.74
237.257	46.59
237.475	5.63
237.692	-33.28
237.909	-12.8
238.127	11.78
238.344	54.78
238.562	-20.99
238.779	38.4
238.996	-37.38
239.214	52.74
239.431	65.02
239.648	-72.19
239.865	-0.51
240.083	26.11
240.3	-35.33
240.517	56.83
240.735	13.82
240.952	91.65
241.169	32.26
241.386	58.88
241.603	52.74
241.821	26.11
242.038	81.41
242.255	-10.75
242.472	136.7
242.689	11.78
242.907	42.5
243.124	71.17
243.341	24.06
243.558	-23.04
243.775	5.63
243.992	38.4
244.209	-4.61
244.426	93.69
244.643	75.26
244.86	-33.28
245.078	13.82
245.295	17.92
245.512	42.5
245.729	-16.9
245.946	65.02
246.163	15.87
246.38	13.82
246.597	-12.8
246.814	-16.9
247.031	-8.7
247.248	26.11
247.464	56.83
247.681	24.06
247.898	28.16
248.115	15.87
248.332	58.88
248.549	112.13
248.766	30.21
248.983	103.93
249.2	105.98
249.417	22.02
249.633	24.06
249.85	56.83
250.067	11.78
250.284	36.35
250.501	9.73
250.717	46.59
250.934	-37.38
251.151	32.26
251.368	-23.04
251.585	-14.85
251.801	54.78
252.018	48.64
252.235	48.64
252.451	-12.8
252.668	46.59
252.885	81.41
253.102	-12.8
253.318	5.63
253.535	-10.75
253.752	40.45
253.968	15.87
254.185	28.16
254.401	-47.62
254.618	1.54
254.835	7.68
255.051	48.64
255.268	-14.85
255.484	-51.71
255.701	-18.94
255.917	71.17
256.134	-6.66
256.351	-4.61
256.567	50.69
256.784	-25.09
257	19.97
257.217	-35.33
257.433	3.58
257.65	30.21
257.866	114.17
258.082	9.73
258.299	-8.7
258.515	67.07
258.732	-18.94
258.948	79.36
259.165	17.92
259.381	87.55
259.597	-29.18
259.814	-4.61
260.03	15.87
260.246	44.54
260.463	54.78
260.679	75.26
260.895	60.93
261.112	46.59
261.328	52.74
261.544	-18.94
261.761	85.5
261.977	24.06
262.193	30.21
262.409	48.64
262.626	75.26
262.842	46.59
263.058	44.54
263.274	62.98
263.49	17.92
263.707	89.6
263.923	44.54
264.139	-33.28
264.355	46.59
264.571	81.41
264.787	69.12
265.004	-6.66
265.22	36.35
265.436	-33.28
265.652	40.45
265.868	-45.57
266.084	75.26
266.3	24.06
266.516	-80.38
266.732	-6.66
266.948	60.93
267.164	36.35
267.38	50.69
267.596	13.82
267.812	32.26
268.028	-39.42
268.244	11.78
268.46	73.21
268.676	54.78
268.892	-0.51
269.108	44.54
269.324	26.11
269.54	-33.28
269.756	105.98
269.972	-33.28
270.188	-4.61
270.403	3.58
270.619	48.64
270.835	-27.14
271.051	38.4
271.267	1.54
271.483	75.26
271.698	60.93
271.914	108.03
272.13	7.68
272.346	-10.75
272.562	15.87
272.777	81.41
272.993	-16.9
273.209	-20.99
273.425	54.78
273.64	-4.61
273.856	19.97
274.072	52.74
274.287	38.4
274.503	11.78
274.719	-16.9
274.934	-14.85
275.15	58.88
275.366	13.82
275.581	24.06
275.797	44.54
276.012	71.17
276.228	75.26
276.444	-45.57
276.659	7.68
276.875	-43.52
277.09	103.93
277.306	75.26
277.521	-31.23
277.737	26.11
277.952	26.11
278.168	-43.52
278.383	-16.9
278.599	11.78
278.814	58.88
279.03	24.06
279.245	-39.42
279.461	58.88
279.676	91.65
279.892	-0.51
280.107	65.02
280.322	-39.42
280.538	36.35
280.753	67.07
280.969	-8.7
281.184	19.97
281.399	73.21
281.615	-12.8
281.83	38.4
282.045	34.3
282.26	1.54
282.476	17.92
282.691	-4.61
282.906	26.11
283.122	71.17
283.337	19.97
283.552	-47.62
283.767	103.93
283.983	62.98
284.198	105.98
284.413	30.21
284.628	34.3
284.843	-12.8
285.058	1.54
285.274	44.54
285.489	26.11
285.704	17.92
285.919	87.55
286.134	-14.85
286.349	-14.85
286.564	7.68
286.779	99.84
286.995	-27.14
287.21	58.88
287.425	26.11
287.64	15.87
287.855	32.26
288.07	-0.51
288.285	1.54
288.5	85.5
288.715	13.82
288.93	60.93
289.145	81.41
289.36	54.78
289.575	24.06
289.79	30.21
290.004	-74.24
290.219	28.16
290.434	26.11
290.649	11.78
290.864	5.63
291.079	83.45
291.294	48.64
291.509	85.5
291.724	48.64
291.938	9.73
292.153	15.87
292.368	32.26
292.583	67.07
292.798	-27.14
293.012	30.21
293.227	99.84
293.442	-23.04
293.657	60.93
293.871	62.98
294.086	52.74
294.301	83.45
294.516	62.98
294.73	44.54
294.945	-2.56
295.16	-14.85
295.374	56.83
295.589	17.92
295.804	7.68
296.018	83.45
296.233	32.26
296.447	48.64
296.662	42.5
296.877	30.21
297.091	62.98
297.306	1.54
297.52	-33.28
297.735	-6.66
297.949	44.54
298.164	42.5
298.378	-35.33
298.593	48.64
298.807	7.68
299.022	30.21
299.236	95.74
299.451	17.92
299.665	-14.85
299.88	48.64
300.094	101.89
300.309	-33.28
300.523	-27.14
300.737	-8.7
300.952	52.74
301.166	19.97
301.381	-25.09
301.595	-14.85
301.809	17.92
302.024	69.12
302.238	-6.66
302.452	22.02
302.667	-51.71
302.881	87.55
303.095	32.26
303.309	62.98
303.524	-25.09
303.738	26.11
303.952	-31.23
304.166	-23.04
304.381	1.54
304.595	130.56
304.809	69.12
305.023	46.59
305.237	-8.7
305.452	30.21
305.666	30.21
305.88	67.07
306.094	32.26
306.308	-2.56
306.522	-41.47
306.736	32.26
306.95	-20.99
307.164	95.74
307.379	17.92
307.593	97.79
307.807	32.26
308.021	52.74
308.235	79.36
308.449	22.02
308.663	24.06
308.877	42.5
309.091	32.26
309.305	65.02
309.519	-4.61
309.733	62.98
309.947	7.68
310.161	157.18
310.374	36.35
310.588	56.83
310.802	-31.23
311.016	73.21
311.23	28.16
311.444	11.78
311.658	-0.51
311.872	112.13
312.085	5.63
312.299	28.16
312.513	1.54
312.727	62.98
312.941	15.87
313.154	-2.56
313.368	38.4
313.582	30.21
313.796	58.88
314.009	13.82
314.223	50.69
314.437	19.97
314.651	79.36
314.864	87.55
315.078	-10.75
315.292	28.16
315.505	83.45
315.719	67.07
315.933	62.98
316.146	-35.33
316.36	38.4
316.573	15.87
316.787	69.12
317.001	26.11
317.214	30.21
317.428	81.41
317.641	-0.51
317.855	73.21
318.068	-2.56
318.282	36.35
318.495	89.6
318.709	58.88
318.922	19.97
319.136	134.65
319.349	46.59
319.563	7.68
319.776	56.83
319.99	5.63
320.203	-16.9
320.417	34.3
320.63	52.74
320.843	89.6
321.057	85.5
321.27	-14.85
321.483	65.02
321.697	77.31
321.91	-8.7
322.124	13.82
322.337	50.69
322.55	81.41
322.763	-10.75
322.977	58.88
323.19	9.73
323.403	142.85
323.617	34.3
323.83	79.36
324.043	40.45
324.256	40.45
324.469	24.06
324.683	-10.75
324.896	-37.38
325.109	60.93
325.322	15.87
325.535	83.45
325.748	-16.9
325.962	97.79
326.175	69.12
326.388	38.4
326.601	67.07
326.814	34.3
327.027	60.93
327.24	101.89
327.453	-12.8
327.666	56.83
327.879	54.78
328.092	48.64
328.305	-0.51
328.518	28.16
328.731	7.68
328.944	54.78
329.157	-0.51
329.37	60.93
329.583	40.45
329.796	103.93
330.009	15.87
330.222	91.65
330.435	44.54
330.648	48.64
330.861	91.65
331.073	38.4
331.286	22.02
331.499	17.92
331.712	85.5
331.925	30.21
332.138	-27.14
332.35	46.59
332.563	46.59
332.776	108.03
332.989	38.4
333.202	-20.99
333.414	26.11
333.627	-8.7
333.84	-12.8
334.053	15.87
334.265	28.16
334.478	32.26
334.691	-41.47
334.903	101.89
335.116	81.41
335.329	73.21
335.541	28.16
335.754	89.6
335.966	17.92
336.179	30.21
336.392	56.83
336.604	5.63
336.817	73.21
337.029	58.88
337.242	-10.75
337.454	95.74
337.667	13.82
337.88	54.78
338.092	5.63
338.305	7.68
338.517	32.26
338.729	65.02
338.942	9.73
339.154	58.88
339.367	13.82
339.579	-16.9
339.792	15.87
340.004	91.65
340.217	-10.75
340.429	5.63
340.641	-16.9
340.854	116.22
341.066	32.26
341.278	103.93
341.491	93.69
341.703	42.5
341.915	24.06
342.128	11.78
342.34	54.78
342.552	-6.66
342.764	50.69
342.977	44.54
343.189	-14.85
343.401	48.64
343.613	17.92
343.826	60.93
344.038	9.73
344.25	-8.7
344.462	11.78
344.674	30.21
344.886	48.64
345.099	19.97
345.311	48.64
345.523	110.08
345.735	5.63
345.947	48.64
346.159	75.26
346.371	75.26
346.583	34.3
346.795	77.31
347.007	75.26
347.219	62.98
347.431	32.26
347.643	60.93
347.855	-0.51
348.067	73.21
348.279	5.63
348.491	24.06
348.703	56.83
348.915	44.54
349.127	48.64
349.339	28.16
349.551	-8.7
349.763	69.12
349.975	42.5
350.187	26.11
350.399	-8.7
350.61	-12.8
350.822	-12.8
351.034	83.45
351.246	75.26
351.458	32.26
351.669	1.54
351.881	13.82
352.093	38.4
352.305	60.93
352.517	-14.85
352.728	71.17
352.94	38.4
353.152	95.74
353.363	-43.52
353.575	120.32
353.787	126.46
353.999	46.59
354.21	36.35
354.422	-2.56
354.633	46.59
354.845	73.21
355.057	36.35
355.268	-6.66
355.48	28.16
355.692	5.63
355.903	62.98
356.115	67.07
356.326	71.17
356.538	93.69
356.749	44.54
356.961	85.5
357.172	40.45
357.384	24.06
357.595	44.54
357.807	34.3
358.018	11.78
358.23	56.83
358.441	65.02
358.653	126.46
358.864	-6.66
359.075	-6.66
359.287	36.35
359.498	79.36
359.709	60.93
359.921	40.45
360.132	46.59
360.344	56.83
360.555	75.26
360.766	65.02
360.977	36.35
361.189	22.02
361.4	110.08
361.611	91.65
361.823	28.16
362.034	36.35
362.245	13.82
362.456	103.93
362.667	50.69
362.879	71.17
363.09	36.35
363.301	67.07
363.512	69.12
363.723	32.26
363.935	58.88
364.146	101.89
364.357	-39.42
364.568	19.97
364.779	-31.23
364.99	116.22
365.201	24.06
365.412	177.66
365.623	-0.51
365.834	17.92
366.045	42.5
366.256	50.69
366.467	79.36
366.678	56.83
366.889	28.16
367.1	-20.99
367.311	30.21
367.522	24.06
367.733	62.98
367.944	62.98
368.155	-6.66
368.366	124.41
368.577	60.93
368.788	79.36
368.999	-20.99
369.209	-10.75
369.42	85.5
369.631	146.94
369.842	138.75
370.053	60.93
370.264	79.36
370.474	142.85
370.685	11.78
370.896	11.78
371.107	85.5
371.317	89.6
371.528	42.5
371.739	105.98
371.95	81.41
372.16	54.78
372.371	7.68
372.582	22.02
372.792	108.03
373.003	132.61
373.214	-27.14
373.424	34.3
373.635	32.26
373.846	93.69
374.056	67.07
374.267	79.36
374.477	22.02
374.688	7.68
374.898	67.07
375.109	71.17
375.319	110.08
375.53	19.97
375.74	26.11
375.951	95.74
376.161	15.87
376.372	99.84
376.582	67.07
376.793	65.02
377.003	-45.57
377.214	67.07
377.424	73.21
377.635	30.21
377.845	19.97
378.055	46.59
378.266	-18.94
378.476	60.93
378.686	9.73
378.897	22.02
379.107	44.54
379.317	62.98
379.528	34.3
379.738	73.21
379.948	101.89
380.158	60.93
380.369	26.11
380.579	50.69
380.789	46.59
380.999	67.07
381.21	73.21
381.42	99.84
381.63	120.32
381.84	19.97
382.05	58.88
382.261	9.73
382.471	48.64
382.681	56.83
382.891	126.46
383.101	75.26
383.311	67.07
383.521	28.16
383.731	77.31
383.941	44.54
384.151	67.07
384.361	79.36
384.571	32.26
384.781	151.04
384.991	153.09
385.201	48.64
385.411	103.93
385.621	99.84
385.831	-2.56
386.041	89.6
386.251	134.65
386.461	83.45
386.671	62.98
386.881	110.08
387.091	36.35
387.301	79.36
387.511	83.45
387.72	52.74
387.93	62.98
388.14	85.5
388.35	77.31
388.56	52.74
388.769	95.74
388.979	36.35
389.189	26.11
389.399	99.84
389.609	32.26
389.818	32.26
390.028	153.09
390.238	77.31
390.447	69.12
390.657	153.09
390.867	83.45
391.076	22.02
391.286	56.83
391.496	103.93
391.705	132.61
391.915	91.65
392.125	130.56
392.334	-31.23
392.544	93.69
392.753	85.5
392.963	148.99
393.172	83.45
393.382	11.78
393.591	153.09
393.801	118.27
394.01	105.98
394.22	9.73
394.429	58.88
394.639	101.89
394.848	65.02
395.058	54.78
395.267	77.31
395.477	124.41
395.686	69.12
395.895	108.03
396.105	142.85
396.314	83.45
396.524	89.6
396.733	67.07
396.942	103.93
397.152	134.65
397.361	95.74
397.57	163.33
397.78	73.21
397.989	116.22
398.198	148.99
398.407	81.41
398.617	124.41
398.826	73.21
399.035	89.6
399.244	165.37
399.453	99.84
399.663	140.8
399.872	118.27
400.081	153.09
400.29	194.05
400.499	124.41
400.708	138.75
400.917	134.65
401.127	157.18
401.336	126.46
401.545	161.28
401.754	189.95
401.963	95.74
402.172	99.84
402.381	144.89
402.59	146.94
402.799	202.24
403.008	175.61
403.217	155.13
403.426	148.99
403.635	144.89
403.844	183.81
404.053	237.05
404.262	120.32
404.471	218.62
404.68	165.37
404.888	200.19
405.097	146.94
405.306	163.33
405.515	216.57
405.724	189.95
405.933	210.43
406.142	235
406.35	251.39
406.559	179.71
406.768	173.57
406.977	183.81
407.185	249.34
407.394	196.09
407.603	273.92
407.812	226.81
408.02	220.67
408.229	286.2
408.438	300.54
408.646	286.2
408.855	235
409.064	312.83
409.272	296.44
409.481	269.82
409.69	429.56
409.898	398.84
410.107	378.36
410.315	341.5
410.524	376.31
410.733	423.42
410.941	427.51
411.15	527.86
411.358	450.04
411.567	456.19
411.775	460.28
411.984	431.61
412.192	620.02
412.401	574.97
412.609	577.02
412.818	617.97
413.026	607.73
413.234	613.88
413.443	568.82
413.651	640.5
413.86	732.66
414.068	751.09
414.276	777.72
414.485	787.96
414.693	847.35
414.901	859.63
415.11	869.87
415.318	865.78
415.526	996.85
415.734	1009.14
415.943	1011.18
416.151	1043.95
416.359	998.9
416.567	1089.01
416.776	1136.11
416.984	1316.33
417.192	1236.46
417.4	1215.98
417.608	1353.2
417.817	1437.16
418.025	1494.51
418.233	1478.12
418.441	1478.12
418.649	1474.03
418.857	1613.29
419.065	1635.82
419.273	1641.96
419.481	1732.07
419.689	1807.84
419.897	2026.98
420.105	2018.79
420.313	2063.84
420.521	2104.8
420.729	2149.86
420.937	2137.57
421.145	2223.58
421.353	2317.79
421.561	2444.76
421.769	2491.87
421.977	2645.46
422.185	2569.69
422.393	2805.21
422.601	2891.22
422.809	3020.24
423.017	3081.68
423.224	3106.26
423.432	3218.89
423.64	3272.14
423.848	3507.66
424.056	3382.73
424.263	3845.57
424.471	3790.28
424.679	3825.09
424.887	4179.39
425.094	4183.49
425.302	4193.73
425.51	4296.13
425.718	4429.24
425.925	4478.4
426.133	4541.88
426.341	4931
426.548	5295.54
426.756	5193.14
426.964	5072.31
427.171	5567.92
427.379	5660.07
427.586	5828.01
427.794	6026.66
428.001	6235.55
428.209	6315.42
428.417	6495.64
428.624	6712.73
428.832	6833.56
429.039	6899.09
429.247	6995.35
429.454	7562.64
429.662	7929.22
429.869	7503.25
430.076	8052.1
430.284	7806.34
430.491	8043.91
430.699	8572.29
430.906	8684.92
431.114	8795.51
431.321	9135.48
431.528	9117.04
431.736	9813.35
431.943	10083.69
432.15	9993.58
432.358	10237.28
432.565	10665.31
432.772	10634.59
432.979	11165.01
433.187	11167.06
433.394	11525.46
433.601	12436.8
433.808	12225.86
434.016	12166.47
434.223	12541.25
434.43	13385.01
434.637	13026.62
434.844	14044.46
435.052	14202.15
435.259	14138.66
435.466	14384.42
435.673	14130.47
435.88	15232.28
436.087	15985.93
436.294	15975.69
436.501	15451.41
436.708	15959.31
436.915	16364.81
437.122	17085.69
437.329	17063.16
437.537	17732.85
437.743	17816.82
437.95	17994.99
438.157	18873.57
438.364	19317.98
438.571	19256.54
438.778	19584.21
438.985	21476.54
439.192	20501.7
439.399	21095.61
439.606	20552.9
439.813	21818.55
440.02	23311.52
440.227	22977.7
440.433	22639.78
440.64	23133.34
440.847	23348.38
441.054	23798.93
441.261	25175.17
441.467	24953.99
441.674	25494.65
441.881	26414.19
442.088	26272.88
442.294	26233.97
442.501	26649.71
442.708	27495.52
442.914	28535.88
443.121	29623.36
443.328	29019.21
443.534	30821.42
443.741	30264.37
443.948	29590.59
444.154	31872.03
444.361	31519.78
444.568	31788.06
444.774	31650.85
444.981	32154.65
445.187	33012.74
445.394	34092.02
445.6	34302.96
445.807	37336.01
446.013	36209.62
446.22	36303.83
446.426	37710.78
446.633	37620.67
446.839	39246.76
447.046	37938.11
447.252	39752.61
447.459	39609.25
447.665	39353.26
447.871	41608.07
448.078	43002.74
448.284	41149.32
448.491	42470.26
448.697	43660.13
448.903	44440.41
449.11	45019.99
449.316	43875.17
449.522	44571.48
449.728	45691.72
449.935	46183.23
450.141	46261.05
450.347	46883.64
450.553	45546.31
450.76	46388.03
450.966	47479.6
451.172	46633.78
451.378	48405.28
451.584	47084.34
451.791	48208.67
451.997	48014.12
452.203	48835.35
452.409	48888.6
452.615	48452.38
452.821	46830.39
453.027	46308.16
453.233	48792.34
453.44	46504.76
453.646	47151.92
453.852	47237.94
454.058	48253.73
454.264	46469.95
454.47	47553.32
454.676	46459.71
454.882	47948.58
455.088	43760.48
455.294	44438.36
455.5	45015.89
455.705	45589.32
455.911	43592.55
456.117	42609.53
456.323	42179.45
456.529	39957.41
456.735	41857.92
456.941	40197.02
457.147	39848.86
457.352	38712.24
457.558	38245.3
457.764	37850.05
457.97	37618.63
458.176	36840.4
458.381	36656.08
458.587	34894.83
458.793	34743.28
458.999	32947.21
459.204	35355.62
459.41	34604.02
459.616	32191.51
459.821	32396.31
460.027	32115.73
460.233	31542.3
460.438	29856.82
460.644	30417.97
460.85	28673.1
461.055	28478.54
461.261	28353.62
461.466	26213.49
461.672	25085.06
461.878	27061.35
462.083	25412.73
462.289	24806.53
462.494	24423.56
462.7	23520.41
462.905	22717.61
463.111	23657.62
463.316	23712.92
463.522	23192.73
463.727	23411.87
463.932	23047.33
464.138	22992.03
464.343	23225.5
464.549	22731.94
464.754	23198.88
464.959	22920.35
465.165	22928.55
465.37	21558.46
465.575	21419.19
465.781	22185.13
465.986	22131.89
466.191	21329.08
466.397	20966.59
466.602	20108.49
466.807	21112
467.012	20786.37
467.218	20753.6
467.423	20427.98
467.628	20694.21
467.833	21503.16
468.038	20888.77
468.244	20002
468.449	20917.44
468.654	20018.38
468.859	19858.64
469.064	19956.94
469.269	18920.67
469.474	19172.57
469.679	19367.13
469.885	19064.03
470.09	19066.08
470.295	19201.24
470.5	18597.09
470.705	18777.31
470.91	18121.96
471.115	18019.57
471.32	18435.3
471.525	18357.48
471.73	17935.6
471.935	17831.15
472.139	17403.13
472.344	17466.61
472.549	17261.82
472.754	17046.78
472.959	16526.6
473.164	16268.55
473.369	16211.21
473.574	16598.27
473.778	16678.15
473.983	16370.95
474.188	16282.89
474.393	15582.48
474.598	15779.09
474.802	15539.47
475.007	15432.98
475.212	15389.97
475.417	14814.49
475.621	14777.63
475.826	14847.26
476.031	14546.21
476.235	14146.86
476.44	14691.62
476.645	14177.58
476.849	14333.22
477.054	13958.44
477.259	13573.42
477.463	13792.56
477.668	13348.15
477.872	13548.85
478.077	13198.65
478.282	13024.57
478.486	12954.94
478.691	12686.65
478.895	12787
479.1	12696.89
479.304	12739.9
479.509	12401.99
479.713	12676.41
479.918	12488
480.122	12133.7
480.326	12203.33
480.531	12277.06
480.735	12299.59
480.94	12123.46
481.144	12442.95
481.348	11924.81
481.553	12166.47
481.757	11924.81
481.961	11945.29
482.166	12318.02
482.37	12113.22
482.574	11857.23
482.778	11838.8
482.983	12141.89
483.187	12082.5
483.391	12203.33
483.595	11679.05
483.8	11697.49
484.004	11816.27
484.208	12008.78
484.412	11806.03
484.616	11973.96
484.821	12049.74
485.025	11730.25
485.229	11877.71
485.433	12115.27
485.637	11908.43
485.841	11619.66
486.045	11806.03
486.249	11636.05
486.453	11744.59
486.657	11859.28
486.861	11973.96
487.065	11515.22
487.269	11873.61
487.473	11519.31
487.677	11922.76
487.881	11803.98
488.085	11912.52
488.289	11969.87
488.493	11894.09
488.697	11982.15
488.901	11935.05
489.105	11769.16
489.309	12033.35
489.512	11973.96
489.716	11879.75
489.92	11889.99
490.124	11885.9
490.328	12193.09
490.531	11894.09
490.735	12240.2
490.939	12117.32
491.143	12227.91
491.346	12057.93
491.55	12283.2
491.754	12582.21
491.958	12649.79
492.161	12502.34
492.365	12539.2
492.569	12293.44
492.772	12365.12
492.976	12621.12
493.18	12805.44
493.383	12885.31
493.587	13012.28
493.79	12819.77
493.994	12752.19
494.197	12707.13
494.401	13022.52
494.605	13075.77
494.808	13135.16
495.012	13337.91
495.215	13436.21
495.419	13604.14
495.622	13321.52
495.825	13819.18
496.029	13692.21
496.232	13983.02
496.436	13890.86
496.639	14402.85
496.843	14189.86
497.046	14472.48
497.249	14906.65
497.453	14703.9
497.656	15133.98
497.859	14980.38
498.063	15031.58
498.266	15432.98
498.469	15258.9
498.673	15428.88
498.876	15631.63
499.079	16168.2
499.282	15957.26
499.485	16340.23
499.689	16061.71
499.892	16596.23
500.095	16549.12
500.298	16938.24
500.501	16579.84
500.705	17521.91
500.908	17464.57
501.111	17679.6
501.314	17827.06
501.517	17876.21
501.72	18160.87
501.923	18234.6
502.126	18441.45
502.329	18879.71
502.532	18660.58
502.735	19111.13
502.938	19549.4
503.141	19641.56
503.344	19746
503.547	19928.27
503.75	20184.27
503.953	20432.07
504.156	20516.04
504.359	20681.92
504.562	20960.45
504.765	21386.43
504.968	21404.86
505.17	21566.65
505.373	21791.92
505.576	21814.45
505.779	22074.54
505.982	22475.95
506.185	22803.62
506.387	23041.18
506.59	23112.86
506.793	23483.55
506.996	23631
507.198	24016.02
507.401	24099.98
507.604	24102.03
507.807	24650.89
508.009	24904.84
508.212	24984.71
508.415	25318.53
508.617	25883.77
508.82	25863.29
509.022	25613.43
509.225	26238.06
509.428	26590.31
509.63	26635.37
509.833	26877.03
510.035	27331.68
510.238	27161.7
510.44	27948.12
510.643	28073.04
510.845	28374.1
511.048	27921.49
511.25	28652.62
511.453	28658.76
511.655	29991.99
511.858	29502.53
512.06	29717.56
512.262	30243.89
512.465	30063.67
512.667	30503.98
512.87	30942.25
513.072	30741.55
513.274	31147.04
513.477	31636.51
513.679	31816.73
513.881	32099.35
514.084	32719.88
514.286	32326.67
514.488	32228.37
514.69	33567.74
514.893	33598.46
515.095	34118.65
515.297	34157.56
515.499	34452.47
515.701	34653.17
515.904	35062.76
516.106	35064.81
516.308	35396.58
516.51	35929.05
516.712	35730.4
516.914	36357.08
517.116	36826.06
517.318	36971.47
517.52	36860.88
517.722	37381.06
517.925	37612.48
518.127	37913.53
518.329	38210.49
518.531	38122.43
518.733	38761.39
518.935	39586.72
519.136	39338.92
519.338	39691.17
519.54	39461.8
519.742	40303.51
519.944	40022.94
520.146	40874.9
520.348	40930.19
520.55	41188.24
520.752	41421.7
520.954	42005.38
521.155	41485.19
521.357	42677.11
521.559	42953.58
521.761	43174.77
521.963	42845.04
522.164	43340.65
522.366	43326.31
522.568	44159.84
522.77	43842.4
522.971	44671.83
523.173	44389.21
523.375	44725.08
523.576	44778.32
523.778	45085.52
523.98	45470.54
524.181	45620.04
524.383	45482.83
524.584	46228.29
524.786	46390.08
524.988	46244.67
525.189	46521.15
525.391	47002.42
525.592	47053.62
525.794	47291.18
525.995	47276.85
526.197	47186.74
526.398	47192.88
526.6	47786.79
526.801	47924
527.003	48345.89
527.204	47837.99
527.406	48180
527.607	48366.37
527.808	48980.76
528.01	47977.25
528.211	48390.94
528.412	49175.31
528.614	49386.25
528.815	49017.62
529.016	49656.59
529.218	49107.73
529.419	49435.41
529.62	49341.2
529.822	49183.51
530.023	49693.45
530.224	49519.37
530.425	49308.43
530.626	49160.98
530.828	49498.89
531.029	50295.55
531.23	49775.37
531.431	49599.24
531.632	49842.95
531.833	50166.53
532.035	49808.14
532.236	50045.7
532.437	50215.68
532.638	49926.92
532.839	50182.91
533.04	50164.48
533.241	49640.2
533.442	50778.87
533.643	50189.06
533.844	50533.12
534.045	50074.37
534.246	50174.72
534.447	50445.05
534.648	49990.41
534.849	50727.67
535.05	50287.36
535.251	50440.96
535.451	50320.13
535.652	50584.32
535.853	50410.24
536.054	50287.36
536.255	50178.82
536.456	49730.31
536.657	50610.94
536.857	50305.79
537.058	50199.3
537.259	50443.01
537.46	50074.37
537.66	50230.02
537.861	50191.11
538.062	49955.59
538.263	50309.89
538.463	49963.78
538.664	49840.9
538.865	50150.15
539.065	50502.4
539.266	49744.65
539.466	50535.16
539.667	49365.77
539.868	50531.07
540.068	50111.24
540.269	50074.37
540.469	50109.19
540.67	49658.63
540.87	49992.45
541.071	50049.8
541.271	49824.52
541.472	49455.89
541.672	49265.42
541.873	49660.68
542.073	49062.68
542.274	50455.29
542.474	49656.59
542.675	49177.36
542.875	49840.9
543.075	50062.08
543.276	49517.32
543.476	49713.93
543.676	49550.09
543.877	49638.15
544.077	49894.15
544.277	49615.63
544.478	49302.29
544.678	49666.83
544.878	49656.59
545.078	49494.8
545.279	49201.94
545.479	49396.49
545.679	49246.99
545.879	49881.86
546.079	49062.68
546.28	49517.32
546.48	49154.83
546.68	49216.27
546.88	49294.1
547.08	49421.07
547.28	48855.83
547.48	48636.7
547.68	49234.7
547.88	49040.15
548.081	49113.87
548.281	49111.83
548.481	49034
548.681	49154.83
548.881	49361.68
549.081	48663.32
549.28	48747.29
549.48	48976.66
549.68	48915.22
549.88	49668.87
550.08	48612.12
550.28	48812.82
550.48	49099.54
550.68	49165.07
550.88	48843.54
551.08	49083.16
551.279	48757.53
551.479	48462.62
551.679	49109.78
551.879	48698.14
552.079	48831.25
552.278	48425.76
552.478	48599.83
552.678	48448.28
552.878	48732.95
553.077	48343.84
553.277	47905.57
553.477	48575.26
553.676	48458.52
553.876	48233.25
554.076	48286.5
554.275	47885.09
554.475	47764.26
554.674	48325.41
554.874	47952.68
555.074	48063.27
555.273	48392.99
555.473	48223.01
555.672	48042.79
555.872	47833.89
556.071	48341.79
556.271	47850.28
556.47	47860.52
556.67	47549.23
556.869	47579.95
557.068	47661.86
557.268	47639.34
557.467	48141.09
557.667	47698.73
557.866	47534.89
558.065	47645.48
558.265	47479.6
558.464	47434.54
558.663	47776.55
558.863	47643.43
559.062	47837.99
559.261	46895.92
559.461	47811.37
559.66	46809.91
559.859	47518.51
560.058	46771
560.258	46983.99
560.457	46707.51
560.656	47289.13
560.855	46566.2
561.054	46801.72
561.253	46478.14
561.453	46990.13
561.652	46928.69
561.851	46795.57
562.05	45921.09
562.249	46297.92
562.448	46908.21
562.647	46326.59
562.846	46302.01
563.045	46273.34
563.244	45849.41
563.443	46238.53
563.642	44954.45
563.841	45970.24
564.04	45493.07
564.239	46066.5
564.438	45314.89
564.637	45824.84
564.836	45888.32
565.035	45050.7
565.234	45402.96
565.432	45058.9
565.631	45187.92
565.83	45298.51
566.029	45081.42
566.228	44968.79
566.427	44946.26
566.625	44985.17
566.824	44430.17
567.023	44829.52
567.222	43721.57
567.42	45149.01
567.619	44303.2
567.818	44600.15
568.016	44405.59
568.215	44536.66
568.414	44256.09
568.612	44598.1
568.811	44012.38
569.01	43907.94
569.208	43228.01
569.407	44096.35
569.605	43277.16
569.804	43836.26
570.002	43594.6
570.201	43676.52
570.4	43094.89
570.598	43236.2
570.797	43096.94
570.995	43467.62
571.193	43000.69
571.392	43172.72
571.59	42828.66
571.789	42806.13
571.987	42945.39
572.186	42795.89
572.384	42212.22
572.582	42419.06
572.781	42326.91
572.979	41853.83
573.177	42197.88
573.376	42511.22
573.574	41653.12
573.772	42316.67
573.971	42052.48
574.169	41675.65
574.367	41350.03
574.565	41804.67
574.763	41540.49
574.962	41124.75
575.16	41085.84
575.358	41417.61
575.556	40371.1
575.754	41433.99
575.952	40465.3
576.151	41259.91
576.349	40694.68
576.547	40811.41
576.745	40143.77
576.943	40704.91
577.141	40311.7
577.339	40215.45
577.537	40168.35
577.735	40369.05
577.933	39721.89
578.131	39799.71
578.329	39580.58
578.527	39361.45
578.725	39812
578.923	39879.58
579.121	38949.81
579.319	39080.88
579.516	39463.85
579.714	39154.6
579.912	39197.61
580.11	38661.04
580.308	38648.75
580.506	38755.25
580.704	38378.42
580.901	38542.26
581.099	38532.02
581.297	38128.57
581.495	38151.1
581.692	38450.1
581.89	37866.43
582.088	38329.27
582.285	37936.06
582.483	37999.55
582.681	38185.91
582.878	37708.74
583.076	37057.48
583.274	37858.24
583.471	37313.48
583.669	37192.65
583.866	36899.79
584.064	37252.04
584.262	36811.73
584.459	36959.18
584.657	36832.21
584.854	37209.03
585.052	35804.13
585.249	36373.46
585.447	36666.32
585.644	36076.51
585.841	36238.3
586.039	36533.2
586.236	35648.48
586.434	35894.24
586.631	36066.27
586.828	35695.58
587.026	35650.53
587.223	35392.48
587.42	35429.35
587.618	35589.09
587.815	34882.54
588.012	34952.17
588.21	34966.51
588.407	35226.6
588.604	35085.29
588.801	34681.84
588.999	34305.01
589.196	34444.27
589.393	34561.01
589.59	34319.35
589.787	34487.28
589.984	34096.12
590.182	33887.23
590.379	34429.94
590.576	33586.18
590.773	33756.16
590.97	33299.46
591.167	33696.77
591.364	33229.83
591.561	33311.75
591.758	32762.89
591.955	33088.52
592.152	33571.84
592.349	32869.39
592.546	33012.74
592.743	32889.87
592.94	32156.69
593.137	32691.21
593.334	32556.05
593.531	32289.81
593.727	32576.53
593.924	32201.75
594.121	32074.77
594.318	32281.62
594.515	31712.28
594.712	31962.14
594.908	31687.71
595.105	31790.11
595.302	31380.51
595.499	31556.64
595.696	31300.64
595.892	31259.68
596.089	31255.59
596.286	31357.99
596.482	30739.5
596.679	31157.28
596.876	31036.45
597.072	30985.26
597.269	30934.06
597.466	30622.76
597.662	30524.46
597.859	30420.02
598.055	30549.04
598.252	30133.3
598.448	30131.25
598.645	30102.58
598.841	29615.16
599.038	29795.39
599.234	30004.28
599.431	29422.66
599.627	29592.64
599.824	29721.66
600.02	29193.28
600.217	29387.84
600.413	29236.29
600.609	29156.42
600.806	28881.99
601.002	28890.18
601.198	29084.74
601.395	28886.09
601.591	28785.74
601.787	28570.7
601.984	28269.65
602.18	28849.22
602.376	28218.45
602.572	27767.9
602.769	28097.62
602.965	28001.36
603.161	28161.11
603.357	27583.58
603.553	27651.16
603.75	27905.11
603.946	27378.78
604.142	27628.63
604.338	27219.04
604.534	27743.32
604.73	26973.28
604.926	27216.99
605.122	27094.11
605.318	27243.62
605.514	26870.89
605.71	27055.2
605.906	27071.59
606.102	26510.44
606.298	26901.61
606.494	26494.06
606.69	26854.5
606.886	26537.07
607.082	26203.25
607.278	26590.31
607.474	26356.85
607.67	26346.61
607.866	25863.29
608.062	26293.36
608.257	26039.41
608.453	26039.41
608.649	26193.01
608.845	25541.75
609.041	25789.56
609.236	26106.99
609.432	25617.53
609.628	25851
609.824	25875.57
610.019	25504.89
610.215	25617.53
610.411	25455.74
610.606	25529.47
610.802	25293.95
610.998	25052.29
611.193	25271.42
611.389	24886.4
611.584	24794.25
611.78	24777.86
611.976	25169.02
612.171	24951.94
612.367	25011.33
612.562	24751.24
612.758	24546.44
612.953	24513.67
613.149	24822.92
613.344	24468.62
613.539	24886.4
613.735	24282.25
613.93	24695.94
614.126	24284.3
614.321	24540.3
614.517	24470.67
614.712	24310.93
614.907	24198.29
615.103	24419.47
615.298	24106.13
615.493	24462.47
615.688	23800.98
615.884	24331.4
616.079	23837.84
616.274	23794.84
616.47	23973.01
616.665	23966.87
616.86	23493.79
617.055	23563.42
617.25	23624.86
617.445	23800.98
617.641	23188.64
617.836	23383.2
618.031	23248.03
618.226	23616.66
618.421	23090.34
618.616	23669.91
618.811	22942.88
619.006	23362.72
619.201	22717.61
619.396	22852.77
619.591	22609.06
619.786	22686.89
619.981	22418.6
620.176	22559.91
620.371	22267.05
620.566	22451.37
620.761	21945.52
620.956	22328.49
621.151	21814.45
621.346	22144.17
621.541	21822.64
621.735	22062.26
621.93	21458.1
622.125	21468.34
622.32	21056.7
622.515	21101.76
622.709	21183.68
622.904	21177.53
623.099	20892.87
623.294	21085.37
623.488	20884.67
623.683	20591.81
623.878	20249.8
624.072	20540.61
624.267	20325.58
624.462	20268.23
624.656	20028.62
624.851	20204.75
625.046	19764.43
625.24	19703
625.435	19807.44
625.629	19416.28
625.824	19313.88
626.018	19438.81
626.213	19076.32
626.407	19348.7
626.602	18963.68
626.796	18957.53
626.991	18922.72
627.185	18742.5
627.38	18498.79
627.574	18517.22
627.768	18506.98
627.963	18500.84
628.157	18183.4
628.352	18216.17
628.546	17894.64
628.74	18056.43
628.935	17784.05
629.129	17986.8
629.323	17474.81
629.517	17798.38
629.712	17704.18
629.906	17632.5
630.1	17253.62
630.294	17179.9
630.489	17163.51
630.683	17323.26
630.877	17042.68
631.071	16708.87
631.265	16909.57
631.459	16678.15
631.653	16592.13
631.848	16313.61
632.042	16362.76
632.236	16504.07
632.43	16340.23
632.624	16278.79
632.818	16151.82
633.012	15721.74
633.206	15996.17
633.4	15850.77
633.594	15594.77
633.788	15613.2
633.982	15930.64
634.176	15512.85
634.369	15365.4
634.563	15414.55
634.757	15162.65
634.951	15437.08
635.145	15095.07
635.339	15379.73
635.533	14892.32
635.726	14837.02
635.92	14652.7
636.114	14718.24
636.308	14535.97
636.501	14546.21
636.695	14474.53
636.889	14374.18
637.083	14202.15
637.276	14124.33
637.47	14150.95
637.664	14062.89
637.857	14089.51
638.051	13882.67
638.244	14009.64
638.438	13944.11
638.632	13956.4
638.825	13757.74
639.019	13679.92
639.212	13520.18
639.406	13626.67
639.599	13468.98
639.793	13356.34
639.986	13249.85
640.18	13169.98
640.373	13088.06
640.567	12873.02
640.76	12932.41
640.954	12920.12
641.147	12780.86
641.34	12762.43
641.534	12817.72
641.727	12449.09
641.92	12614.98
642.114	12447.04
642.307	12518.72
642.5	12451.14
642.694	12318.02
642.887	12182.85
643.08	12158.28
643.273	11926.86
643.467	11996.49
643.66	11662.67
643.853	11922.76
644.046	11889.99
644.239	11806.03
644.432	11722.06
644.626	11687.25
644.819	11611.47
645.012	11431.25
645.205	11408.72
645.398	11423.06
645.591	11365.71
645.784	11296.08
645.977	11009.37
646.17	11064.66
646.363	11208.02
646.556	10909.02
646.749	10730.84
646.942	11175.25
647.135	10904.92
647.328	10806.62
647.521	10749.28
647.714	10587.49
647.907	10569.05
648.099	10341.73
648.292	10634.59
648.485	10632.54
648.678	10325.35
648.871	10399.07
649.064	10323.3
649.256	10397.03
649.449	10079.59
649.642	10061.16
649.835	10063.21
650.027	9999.72
650.22	9897.32
650.413	10030.44
650.605	9768.3
650.798	9778.54
650.991	9575.79
651.183	9872.75
651.376	9579.89
651.568	9713
651.761	9688.43
651.954	9473.39
652.146	9358.71
652.339	9342.32
652.531	9209.2
652.724	9225.59
652.916	9076.09
653.109	9174.39
653.301	9166.2
653.494	9219.44
653.686	8928.63
653.879	9158
654.071	8988.02
654.263	8942.97
654.456	9096.57
654.648	8818.04
654.84	8689.02
655.033	8881.53
655.225	8562.05
655.417	8723.83
655.61	8639.87
655.802	8727.93
655.994	8502.65
656.186	8492.41
656.379	8539.52
656.571	8326.53
656.763	8379.78
656.955	8390.02
657.148	8140.16
657.34	8369.54
657.532	8183.17
657.724	7994.76
657.916	8170.88
658.108	7972.23
658.3	7888.26
658.492	8035.72
658.684	7796.11
658.876	7935.37
659.068	7927.18
659.26	7687.56
659.452	7789.96
659.644	7613.84
659.836	7597.45
660.028	7851.4
660.22	7495.05
660.412	7400.85
660.604	7386.51
660.796	7517.58
660.988	7382.42
661.18	7474.57
661.372	7273.87
661.563	7323.02
661.755	7329.17
661.947	7300.5
662.139	7220.63
662.331	7107.99
662.522	7097.75
662.714	7054.74
662.906	6974.87
663.097	6944.15
663.289	6993.3
663.481	6839.7
663.673	6962.58
663.864	6942.1
664.056	6837.66
664.247	6856.09
664.439	6694.3
664.631	6731.16
664.822	6815.13
665.014	6714.78
665.205	6645.15
665.397	6479.26
665.588	6456.73
665.78	6503.84
665.971	6544.8
666.163	6544.8
666.354	6501.79
666.546	6319.52
666.737	6219.17
666.929	6288.8
667.12	6124.96
667.311	6307.23
667.503	6204.83
667.694	6075.81
667.885	6299.04
668.077	6151.59
668.268	6061.48
668.459	5989.8
668.651	5942.69
668.842	5963.17
669.033	6047.14
669.224	5954.98
669.416	5903.78
669.607	6172.07
669.798	5877.16
669.989	5828.01
670.18	5772.71
670.371	5811.62
670.563	5649.83
670.754	5793.19
670.945	5735.85
671.136	5692.84
671.327	5791.14
671.518	5606.83
671.709	5641.64
671.9	5633.45
672.091	5531.05
672.282	5696.94
672.473	5434.8
672.664	5664.17
672.855	5432.75
673.046	5578.15
673.237	5432.75
673.428	5526.96
673.619	5375.41
673.809	5242.29
674	5307.82
674.191	5238.19
674.382	5125.55
674.573	5498.28
674.764	5336.49
674.954	5189.04
675.145	5160.37
675.336	5238.19
675.527	5049.78
675.717	5164.47
675.908	5197.23
676.099	5000.63
676.289	5041.59
676.48	5008.82
676.671	4961.72
676.861	4982.2
677.052	4937.14
677.243	4914.61
677.433	4873.65
677.624	5019.06
677.814	4920.76
678.005	5199.28
678.195	4965.81
678.386	4885.94
678.576	4924.85
678.767	4892.09
678.957	4840.89
679.148	4693.43
679.338	4949.43
679.529	4898.23
679.719	4752.82
679.909	4885.94
680.1	4718.01
680.29	4824.5
680.481	4758.97
680.671	4660.66
680.861	4603.32
681.052	4701.62
681.242	4660.66
681.432	4531.64
681.622	4580.79
681.813	4691.38
682.003	4582.84
682.193	4552.12
682.383	4677.05
682.573	4642.23
682.764	4570.55
682.954	4623.8
683.144	4562.36
683.334	4511.16
683.524	4459.96
683.714	4545.98
683.904	4464.06
684.094	4353.47
684.284	4517.31
684.474	4541.88
684.664	4378.05
684.854	4402.62
685.044	4281.79
685.234	4193.73
685.424	4324.8
685.614	4343.23
685.804	4189.63
685.994	4253.12
686.184	4267.45
686.374	4175.3
686.564	4076.99
686.753	4177.34
686.943	3929.54
687.133	4036.03
687.323	3986.88
687.513	4134.34
687.702	4087.23
687.892	4117.95
688.082	4113.86
688.272	4003.27
688.461	4062.66
688.651	4046.27
688.841	4001.22
689.03	4064.71
689.22	3958.21
689.41	3907.01
689.599	3913.16
689.789	3849.67
689.979	3874.24
690.168	3734.98
690.358	3947.97
690.547	3704.26
690.737	3728.84
690.926	3878.34
691.116	3638.73
691.305	3808.71
691.495	3685.83
691.684	3814.85
691.874	3700.17
692.063	3829.19
692.252	3620.3
692.442	3853.77
692.631	3628.49
692.82	3575.24
693.01	3659.21
693.199	3669.45
693.388	3517.9
693.578	3626.44
693.767	3519.95
693.956	3407.31
694.146	3411.4
694.335	3675.59
694.524	3444.17
694.713	3540.43
694.902	3546.57
695.092	3648.97
695.281	3466.7
695.47	3456.46
695.659	3421.64
695.848	3325.39
696.037	3446.22
696.226	3489.23
696.415	3341.77
696.604	3456.46
696.793	3186.13
696.982	3366.35
697.171	3343.82
697.36	3419.6
697.549	3276.24
697.738	3184.08
697.927	3263.95
698.116	3399.12
698.305	3300.81
698.494	3392.97
698.683	3282.38
698.872	3503.56
699.061	3366.35
699.25	3257.81
699.438	3192.27
699.627	3294.67
699.816	3278.29
700.005	3266
700.193	3184.08
700.382	3249.61
700.571	3263.95
700.76	3270.09
700.948	3245.52
701.137	3155.41
701.326	3349.96
701.514	3280.33
701.703	3194.32
701.892	3063.25
702.08	3298.77
702.269	3261.9
702.457	3126.74
702.646	3210.7
702.834	3155.41
703.023	3208.66
703.212	3253.71
703.4	3235.28
703.589	3255.76
703.777	3227.09
703.965	3229.13
704.154	3083.73
704.342	3167.7
704.531	3100.11
704.719	3204.56
704.907	3188.18
705.096	3145.17
705.284	3190.22
705.472	3218.89
705.661	3155.41
705.849	3102.16
706.037	3116.5
706.226	3206.61
706.414	3259.85
706.602	3179.98
706.79	3036.63
706.979	3057.11
707.167	3093.97
707.355	3192.27
707.543	3153.36
707.731	3120.59
707.919	3110.35
708.107	3161.55
708.296	3165.65
708.484	3055.06
708.672	3132.88
708.86	3028.43
709.048	3159.5
709.236	2981.33
709.424	3067.35
709.612	3067.35
709.8	3003.86
709.988	3139.02
710.176	3055.06
710.364	3077.59
710.551	3053.01
710.739	3071.44
710.927	2911.7
711.115	3042.77
711.303	2921.94
711.491	3149.26
711.679	3038.67
711.866	2958.8
712.054	3005.91
712.242	3089.87
712.43	3177.94
712.617	3112.4
712.805	3028.43
712.993	3003.86
713.181	2840.02
713.368	3026.39
713.556	3102.16
713.744	2971.09
713.931	3057.11
714.119	3057.11
714.306	2966.99
714.494	2948.56
714.682	2977.23
714.869	2893.27
715.057	3038.67
715.244	2835.92
715.432	2872.79
715.619	2897.36
715.807	3071.44
715.994	2932.18
716.182	2938.32
716.369	2897.36
716.556	2913.75
716.744	2928.08
716.931	3018.19
717.119	2909.65
717.306	2934.23
717.493	2905.56
717.681	2926.04
717.868	3007.95
718.055	2919.89
718.242	2938.32
718.43	2895.32
718.617	2919.89
718.804	2819.54
718.991	2874.84
719.179	3048.91
719.366	2831.83
719.553	2915.8
719.74	2883.03
719.927	2897.36
720.114	2887.12
720.301	2901.46
720.488	2885.08
720.676	2831.83
720.863	2862.55
721.05	3010
721.237	2854.36
721.424	2801.11
721.611	2989.52
721.798	2721.24
721.985	2790.87
722.172	2811.35
722.358	2663.9
722.545	2801.11
722.732	2741.72
722.919	2907.6
723.106	2872.79
723.293	2754.01
723.48	2821.59
723.667	2747.86
723.853	2713.05
724.04	2797.01
724.227	2780.63
724.414	2909.65
724.6	2782.68
724.787	2784.73
724.974	2706.9
725.161	2799.06
725.347	2725.33
725.534	2754.01
725.72	2735.57
725.907	2647.51
726.094	2686.42
726.28	2840.02
726.467	2733.53
726.653	2868.69
726.84	2749.91
727.027	2764.25
727.213	2700.76
727.4	2733.53
727.586	2678.23
727.773	2708.95
727.959	2739.67
728.145	2672.09
728.332	2749.91
728.518	2606.55
728.705	2698.71
728.891	2702.81
729.077	2758.1
729.264	2635.22
729.45	2608.6
729.636	2708.95
729.823	2590.17
730.009	2543.07
730.195	2659.8
730.382	2645.46
730.568	2520.54
730.754	2524.63
730.94	2610.65
731.126	2667.99
731.313	2620.89
731.499	2653.66
731.685	2663.9
731.871	2655.7
732.057	2667.99
732.243	2504.15
732.429	2571.74
732.615	2606.55
732.801	2655.7
732.987	2438.62
733.173	2405.85
733.359	2530.78
733.545	2573.78
733.731	2530.78
733.917	2516.44
734.103	2672.09
734.289	2670.04
734.475	2514.39
734.661	2563.54
734.847	2512.35
735.033	2547.16
735.219	2461.15
735.404	2571.74
735.59	2514.39
735.776	2440.67
735.962	2522.59
736.148	2534.87
736.333	2581.98
736.519	2485.72
736.705	2479.58
736.89	2477.53
737.076	2459.1
737.262	2489.82
737.447	2379.23
737.633	2547.16
737.819	2414.04
738.004	2350.56
738.19	2360.8
738.375	2471.39
738.561	2409.95
738.747	2471.39
738.932	2334.17
739.118	2407.9
739.303	2401.76
739.489	2379.23
739.674	2162.14
739.859	2385.37
740.045	2354.65
740.23	2340.32
740.416	2233.82
740.601	2362.84
740.786	2313.69
740.972	2282.97
741.157	2297.31
741.342	2233.82
741.528	2297.31
741.713	2305.5
741.898	2170.33
742.084	2145.76
742.269	2280.93
742.454	2199.01
742.639	2317.79
742.824	2137.57
743.01	2201.05
743.195	2194.91
743.38	2067.94
743.565	2012.64
743.75	2217.44
743.935	2139.62
744.12	2151.9
744.305	2117.09
744.49	2278.88
744.675	2131.42
744.86	2102.75
745.045	2086.37
745.23	2059.74
745.415	2010.59
745.6	2100.7
745.785	2057.7
745.97	1955.3
746.155	2055.65
746.34	2078.18
746.525	1916.39
746.71	2018.79
746.895	2006.5
747.079	2086.37
747.264	1922.53
747.449	2031.07
747.634	1990.11
747.819	1928.67
748.003	1967.59
748.188	1889.76
748.373	1844.71
748.557	1943.01
748.742	1818.08
748.927	1832.42
749.111	1846.76
749.296	1787.36
749.481	1803.75
749.665	1838.56
749.85	1764.84
750.034	1768.93
750.219	1730.02
750.404	1705.45
750.588	1758.69
750.773	1732.07
750.957	1674.73
751.141	1799.65
751.326	1736.17
751.51	1801.7
751.695	1707.49
751.879	1627.62
752.064	1586.66
752.248	1598.95
752.432	1680.87
752.617	1617.38
752.801	1570.28
752.985	1562.09
753.17	1586.66
753.354	1433.07
753.538	1502.7
753.722	1533.42
753.907	1533.42
754.091	1531.37
754.275	1541.61
754.459	1533.42
754.643	1439.21
754.828	1439.21
755.012	1588.71
755.196	1498.6
755.38	1416.68
755.564	1474.03
755.748	1508.84
755.932	1500.65
756.116	1445.35
756.3	1377.77
756.484	1375.72
756.668	1396.2
756.852	1334.76
757.036	1385.96
757.22	1437.16
757.404	1359.34
757.588	1302
757.772	1349.1
757.956	1373.68
758.14	1273.32
758.323	1271.28
758.507	1316.33
758.691	1248.75
758.875	1316.33
759.059	1168.88
759.242	1293.8
759.426	1330.67
759.61	1244.65
759.794	1197.55
759.977	1205.74
760.161	1181.17
760.345	1189.36
760.528	1140.21
760.712	1246.7
760.895	1234.41
761.079	1211.89
761.263	1261.04
761.446	1148.4
761.63	1119.73
761.813	1148.4
761.997	1172.97
762.18	1127.92
762.364	1123.82
762.547	1164.78
762.731	1099.25
762.914	1158.64
763.098	1164.78
763.281	1046
763.464	1134.06
763.648	1175.02
763.831	1033.71
764.015	1097.2
764.198	1109.49
764.381	951.79
764.564	1175.02
764.748	1060.34
764.931	992.75
765.114	1080.82
765.297	1144.3
765.481	1039.86
765.664	1027.57
765.847	1021.42
766.03	1043.95
766.213	1041.9
766.397	1041.9
766.58	988.66
766.763	970.23
766.946	1095.15
767.129	1019.38
767.312	959.99
767.495	1019.38
767.678	1111.54
767.861	939.51
768.044	919.03
768.227	939.51
768.41	949.75
768.593	898.55
768.776	925.17
768.959	1011.18
769.142	1027.57
769.324	953.84
769.507	931.31
769.69	939.51
769.873	941.55
770.056	972.27
770.239	931.31
770.421	923.12
770.604	947.7
770.787	921.07
770.97	923.12
771.152	841.2
771.335	865.78
771.518	769.52
771.7	828.92
771.883	871.92
772.066	747
772.248	742.9
772.431	945.65
772.613	812.53
772.796	880.11
772.978	919.03
773.161	769.52
773.343	904.69
773.526	812.53
773.708	753.14
773.891	859.63
774.073	808.44
774.256	859.63
774.438	884.21
774.621	654.84
774.803	802.29
774.985	837.11
775.168	849.4
775.35	767.48
775.532	726.52
775.715	712.18
775.897	744.95
776.079	798.2
776.261	744.95
776.444	744.95
776.626	753.14
776.808	667.13
776.99	726.52
777.173	732.66
777.355	742.9
777.537	634.36
777.719	669.17
777.901	740.85
778.083	650.74
778.265	703.99
778.447	673.27
778.629	648.69
778.811	632.31
778.993	665.08
779.175	644.6
779.357	650.74
779.539	622.07
779.721	642.55
779.903	638.45
780.085	552.44
780.267	626.17
780.449	642.55
780.631	669.17
780.812	650.74
780.994	656.89
781.176	585.21
781.358	628.21
781.54	540.15
781.721	560.63
781.903	562.68
782.085	558.58
782.267	581.11
782.448	605.69
782.63	529.91
782.812	617.97
782.993	556.54
783.175	564.73
783.357	568.82
783.538	523.77
783.72	491
783.901	484.86
784.083	452.09
784.264	519.67
784.446	439.8
784.627	482.81
784.809	540.15
784.99	478.71
785.172	544.25
785.353	484.86
785.535	501.24
785.716	423.42
785.897	501.24
786.079	503.29
786.26	462.33
786.441	413.18
786.623	454.14
786.804	484.86
786.985	491
787.167	515.58
787.348	425.47
787.529	509.43
787.71	443.9
787.891	439.8
788.073	495.1
788.254	341.5
788.435	472.57
788.616	366.07
788.797	431.61
788.978	341.5
789.159	388.6
789.34	415.23
789.522	495.1
789.703	378.36
789.884	400.89
790.065	429.56
790.246	456.19
790.427	419.32
790.607	376.31
790.788	437.75
790.969	357.88
791.15	333.31
791.331	353.79
791.512	366.07
791.693	335.35
791.874	355.83
792.054	394.75
792.235	431.61
792.416	368.12
792.597	310.78
792.778	392.7
792.958	359.93
793.139	269.82
793.32	325.12
793.5	372.22
793.681	304.64
793.862	269.82
794.042	300.54
794.223	331.26
794.404	310.78
794.584	261.63
794.765	325.12
794.945	310.78
795.126	265.72
795.306	275.96
795.487	302.59
795.667	196.09
795.848	331.26
796.028	327.16
796.209	325.12
796.389	294.4
796.57	222.72
796.75	273.92
796.93	323.07
797.111	263.68
797.291	310.78
797.471	343.55
797.652	259.58
797.832	267.77
798.012	349.69
798.192	308.73
798.373	294.4
798.553	321.02
798.733	220.67
798.913	296.44
799.093	300.54
799.274	304.64
799.454	310.78
799.634	316.92
799.814	239.1
799.994	323.07
800.174	253.44
800.354	208.38
800.534	267.77
800.714	155.13
800.894	314.88
801.074	300.54
801.254	300.54
801.434	296.44
801.614	275.96
801.794	192
801.974	519.67
802.154	134.65
802.334	259.58
802.514	253.44
802.693	230.91
802.873	224.76
803.053	282.11
803.233	226.81
803.413	171.52
803.592	204.28
803.772	243.2
803.952	228.86
804.131	200.19
804.311	232.96
804.491	214.52
804.67	173.57
804.85	153.09
805.03	200.19
805.209	183.81
805.389	179.71
805.568	62.98
805.748	189.95
805.928	278.01
806.107	194.05
806.287	230.91
806.466	161.28
806.646	206.33
806.825	148.99
807.004	214.52
807.184	220.67
807.363	196.09
807.543	218.62
807.722	93.69
807.901	210.43
808.081	230.91
808.26	257.53
808.439	189.95
808.619	130.56
808.798	204.28
808.977	192
809.156	196.09
809.336	175.61
809.515	159.23
809.694	151.04
809.873	216.57
810.052	206.33
810.231	261.63
810.411	194.05
810.59	208.38
810.769	187.9
810.948	228.86
811.127	122.37
811.306	159.23
811.485	151.04
811.664	169.47
811.843	161.28
812.022	122.37
812.201	214.52
812.38	196.09
812.559	179.71
812.737	185.85
812.916	151.04
813.095	138.75
813.274	151.04
813.453	142.85
813.632	222.72
813.811	218.62
813.989	177.66
814.168	173.57
814.347	179.71
814.526	132.61
814.704	138.75
814.883	192
815.062	138.75
815.24	163.33
815.419	157.18
815.598	108.03
815.776	42.5
815.955	136.7
816.133	58.88
816.312	130.56
816.49	128.51
816.669	101.89
816.847	105.98
817.026	161.28
817.204	112.13
817.383	155.13
817.561	132.61
817.74	151.04
817.918	97.79
818.097	81.41
818.275	60.93
818.453	216.57
818.632	146.94
818.81	118.27
818.988	17.92
819.167	126.46
819.345	105.98
819.523	142.85
819.701	83.45
819.879	130.56
820.058	183.81
820.236	97.79
820.414	146.94
820.592	183.81
820.77	38.4
820.948	103.93
821.127	46.59
821.305	136.7
821.483	157.18
821.661	112.13
821.839	130.56
822.017	110.08
822.195	128.51
822.373	153.09
822.551	130.56
822.729	153.09
822.907	140.8
823.085	44.54
823.262	46.59
823.44	93.69
823.618	122.37
823.796	69.12
823.974	110.08
824.152	48.64
824.329	112.13
824.507	112.13
824.685	146.94
824.863	105.98
825.04	130.56
825.218	108.03
825.396	30.21
825.574	79.36
825.751	161.28
825.929	138.75
826.107	40.45
826.284	40.45
826.462	85.5
826.639	87.55
826.817	101.89
826.994	99.84
827.172	11.78
827.349	142.85
827.527	108.03
827.704	130.56
827.882	112.13
828.059	77.31
828.237	30.21
828.414	52.74
828.591	136.7
828.769	159.23
828.946	93.69
829.124	26.11
829.301	73.21
829.478	122.37
829.655	114.17
829.833	85.5
830.01	67.07
830.187	118.27
830.364	60.93
830.542	46.59
830.719	15.87
830.896	114.17
831.073	114.17
831.25	120.32
831.427	93.69
831.604	112.13
831.782	110.08
831.959	62.98
832.136	79.36
832.313	91.65
832.49	81.41
832.667	77.31
832.844	99.84
833.021	126.46
833.198	116.22
833.374	75.26
833.551	83.45
833.728	110.08
833.905	48.64
834.082	7.68
834.259	-39.42
834.436	48.64
834.612	93.69
834.789	83.45
834.966	40.45
835.143	120.32
835.319	89.6
835.496	54.78
835.673	138.75
835.85	58.88
836.026	67.07
836.203	116.22
836.38	26.11
836.556	89.6
836.733	91.65
836.909	44.54
837.086	52.74
837.262	9.73
837.439	85.5
837.616	142.85
837.792	71.17
837.968	136.7
838.145	132.61
838.321	-23.04
838.498	140.8
838.674	120.32
838.851	38.4
839.027	67.07
839.203	116.22
839.38	1.54
839.556	13.82
839.732	87.55
839.909	-16.9
840.085	58.88
840.261	83.45
840.437	95.74
840.614	40.45
840.79	44.54
840.966	36.35
841.142	22.02
841.318	75.26
841.494	95.74
841.671	56.83
841.847	95.74
842.023	58.88
842.199	54.78
842.375	71.17
842.551	7.68
842.727	42.5
842.903	114.17
843.079	36.35
843.255	46.59
843.431	38.4
843.607	32.26
843.783	-8.7
843.959	85.5
844.134	81.41
844.31	36.35
844.486	32.26
844.662	13.82
844.838	52.74
845.013	87.55
845.189	60.93
845.365	175.61
845.541	-29.18
845.716	108.03
845.892	11.78
846.068	44.54
846.244	103.93
846.419	50.69
846.595	62.98
846.77	3.58
846.946	13.82
847.122	75.26
847.297	60.93
847.473	67.07
847.648	38.4
847.824	46.59
847.999	-4.61
848.175	42.5
848.35	54.78
848.526	65.02
848.701	42.5
848.876	85.5
849.052	67.07
849.227	1.54
849.403	75.26
849.578	44.54
849.753	22.02
849.929	79.36
850.104	32.26
850.279	19.97
850.454	15.87
850.63	85.5
850.805	36.35
850.98	65.02
851.155	32.26
851.33	38.4
851.505	24.06
851.681	118.27
851.856	56.83
852.031	87.55
852.206	3.58
852.381	3.58
852.556	-2.56
852.731	132.61
852.906	77.31
853.081	30.21
853.256	1.54
853.431	26.11
853.606	17.92
853.781	30.21
853.956	-16.9
854.131	28.16
854.305	44.54
854.48	65.02
854.655	28.16
854.83	34.3
855.005	7.68
855.18	-0.51
855.354	5.63
855.529	44.54
855.704	79.36
855.879	67.07
856.053	-20.99
856.228	-37.38
856.403	-33.28
856.577	42.5
856.752	30.21
856.926	48.64
857.101	-25.09
857.276	30.21
857.45	9.73
857.625	40.45
857.799	17.92
857.974	71.17
858.148	48.64
858.323	93.69
858.497	-47.62
858.672	11.78
858.846	7.68
859.02	46.59
859.195	5.63
859.369	91.65
859.543	1.54
859.718	-39.42
859.892	22.02
860.066	-12.8
860.241	48.64
860.415	44.54
860.589	62.98
860.763	17.92
860.938	26.11
861.112	36.35
861.286	-27.14
861.46	130.56
861.634	-12.8
861.808	26.11
861.982	-14.85
862.157	-59.9
862.331	-20.99
862.505	19.97
862.679	-12.8
862.853	-6.66
863.027	52.74
863.201	22.02
863.375	-31.23
863.549	56.83
863.722	-4.61
863.896	95.74
864.07	89.6
864.244	-18.94
864.418	17.92
864.592	1.54
864.766	54.78
864.939	-8.7
865.113	-20.99
865.287	67.07
865.461	-53.76
865.634	44.54
865.808	26.11
865.982	9.73
866.156	-41.47
866.329	5.63
866.503	-29.18
866.676	50.69
866.85	36.35
867.024	-4.61
867.197	-2.56
867.371	1.54
867.544	-29.18
867.718	-51.71
867.891	1.54
868.065	-45.57
868.238	38.4
868.412	26.11
868.585	52.74
868.759	40.45
868.932	-10.75
869.105	-6.66
869.279	17.92
869.452	13.82
869.625	42.5
869.799	22.02
869.972	-6.66
870.145	48.64
870.319	71.17
870.492	-4.61
870.665	-8.7
870.838	34.3
871.011	-59.9
871.185	22.02
871.358	-31.23
871.531	85.5
871.704	-6.66
871.877	17.92
872.05	-25.09
872.223	19.97
872.396	36.35
872.569	-4.61
872.742	-25.09
872.915	71.17
873.088	38.4
873.261	-94.72
873.434	15.87
873.607	19.97
873.78	7.68
873.953	-20.99
874.126	67.07
874.299	-37.38
874.471	-0.51
874.644	-6.66
874.817	-0.51
874.99	48.64
875.163	-35.33
875.335	-8.7
875.508	7.68
875.681	15.87
875.853	-10.75
876.026	-47.62
876.199	-16.9
876.371	19.97
876.544	-39.42
876.717	-0.51
876.889	-8.7
877.062	40.45
877.234	22.02
877.407	15.87
877.579	-0.51
877.752	11.78
877.924	-14.85
878.097	50.69
878.269	44.54
878.442	-39.42
878.614	83.45
878.786	26.11
878.959	-57.86
879.131	19.97
879.303	-88.57
879.476	-51.71
879.648	40.45
879.82	3.58
879.993	32.26
880.165	-55.81
880.337	13.82
880.509	60.93
880.681	-14.85
880.854	-45.57
881.026	24.06
881.198	60.93
881.37	15.87
881.542	46.59
881.714	-6.66
881.886	56.83
882.058	-84.48
882.23	-16.9
882.402	15.87
882.574	-14.85
882.746	22.02
882.918	71.17
883.09	81.41
883.262	-55.81
883.434	-4.61
883.606	-66.05
883.778	58.88
883.95	97.79
884.122	-37.38
884.293	-27.14
884.465	50.69
884.637	-27.14
884.809	-84.48
884.98	-6.66
885.152	44.54
885.324	36.35
885.496	-45.57
885.667	17.92
885.839	-4.61
886.011	15.87
886.182	1.54
886.354	22.02
886.525	17.92
886.697	-0.51
886.869	-86.53
887.04	1.54
887.212	17.92
887.383	7.68
887.555	22.02
887.726	32.26
887.897	-20.99
888.069	-10.75
888.24	26.11
888.412	3.58
888.583	-8.7
888.754	-25.09
888.926	-47.62
889.097	7.68
889.268	-102.91
889.44	-29.18
889.611	40.45
889.782	-25.09
889.953	19.97
890.125	101.89
890.296	-39.42
890.467	36.35
890.638	32.26
890.809	-29.18
890.98	-43.52
891.151	40.45
891.323	38.4
891.494	-39.42
891.665	-4.61
891.836	-27.14
892.007	-64
892.178	75.26
892.349	-33.28
892.52	-23.04
892.691	38.4
892.862	15.87
893.032	-66.05
893.203	-51.71
893.374	24.06
893.545	30.21
893.716	5.63
893.887	13.82
894.057	-35.33
894.228	48.64
894.399	-2.56
894.57	54.78
894.74	-49.66
894.911	5.63
895.082	-14.85
895.253	-53.76
895.423	-27.14
895.594	24.06
895.764	-84.48
895.935	54.78
896.106	-18.94
896.276	-8.7
896.447	-0.51
896.617	17.92
896.788	-39.42
896.958	-12.8
897.129	3.58
897.299	-29.18
897.47	-12.8
897.64	46.59
897.81	-41.47
897.981	22.02
898.151	62.98
898.322	-53.76
898.492	-2.56
898.662	-72.19
898.832	-25.09
899.003	-72.19
899.173	11.78
899.343	-39.42
899.513	17.92
