Data from USB4F104151__3__12-10-42-991.txt Node

Date: Fri Mar 14 12:10:42 EDT 2025
User: louis
Spectrometer: USB4F10415
Trigger mode: 4
Integration Time (sec): 5.000000E-2
Scans to average: 1
Electric dark correction enabled: true
Nonlinearity correction enabled: false
Boxcar width: 0
XAxis mode: Wavelengths
Number of Pixels in Spectrum: 3648
>>>>>Begin Spectral Data<<<<<
178.204	-217.77
178.424	-217.77
178.644	-217.77
178.864	-228.01
179.084	-187.05
179.304	-21.16
179.524	-15.02
179.744	5.46
179.964	54.61
180.184	-25.26
180.404	-4.78
180.624	21.85
180.844	5.46
181.064	-35.5
181.283	-15.02
181.503	-37.55
181.723	66.9
181.943	19.8
182.163	109.91
182.383	32.08
182.602	27.99
182.822	73.04
183.042	50.52
183.262	13.65
183.482	30.04
183.701	58.71
183.921	44.37
184.141	-2.73
184.361	126.29
184.58	38.23
184.8	71
185.02	27.99
185.239	103.76
185.459	-12.97
185.679	169.3
185.898	-19.11
186.118	122.2
186.338	40.28
186.557	165.2
186.777	-19.11
186.997	77.14
187.216	23.89
187.436	75.09
187.655	95.57
187.875	36.18
188.095	83.28
188.314	175.44
188.534	77.14
188.753	46.42
188.973	52.56
189.192	114
189.412	34.13
189.631	15.7
189.851	-33.45
190.07	111.96
190.29	38.23
190.509	9.56
190.729	27.99
190.948	128.34
191.168	202.07
191.387	101.72
191.607	60.76
191.826	66.9
192.045	27.99
192.265	56.66
192.484	21.85
192.704	3.41
192.923	21.85
193.142	120.15
193.362	56.66
193.581	25.94
193.8	103.76
194.02	128.34
194.239	32.08
194.458	101.72
194.678	-35.5
194.897	87.38
195.116	3.41
195.335	68.95
195.555	124.24
195.774	42.32
195.993	40.28
196.212	27.99
196.432	-19.11
196.651	42.32
196.87	52.56
197.089	130.39
197.308	144.72
197.528	87.38
197.747	19.8
197.966	50.52
198.185	202.07
198.404	71
198.623	105.81
198.842	13.65
199.062	118.1
199.281	97.62
199.5	54.61
199.719	48.47
199.938	42.32
200.157	73.04
200.376	109.91
200.595	83.28
200.814	79.19
201.033	-17.07
201.252	73.04
201.471	44.37
201.69	62.8
201.909	27.99
202.128	21.85
202.347	62.8
202.566	7.51
202.785	-25.26
203.004	13.65
203.223	152.91
203.442	-19.11
203.661	25.94
203.879	40.28
204.098	136.53
204.317	-17.07
204.536	97.62
204.755	99.67
204.974	66.9
205.193	68.95
205.411	157.01
205.63	-8.87
205.849	32.08
206.068	107.86
206.287	-64.17
206.505	64.85
206.724	11.61
206.943	48.47
207.162	23.89
207.381	79.19
207.599	7.51
207.818	64.85
208.037	87.38
208.255	50.52
208.474	25.94
208.693	-47.79
208.911	97.62
209.13	34.13
209.349	38.23
209.567	42.32
209.786	109.91
210.005	32.08
210.223	71
210.442	46.42
210.661	66.9
210.879	-0.68
211.098	42.32
211.316	107.86
211.535	101.72
211.753	81.24
211.972	99.67
212.191	17.75
212.409	7.51
212.628	36.18
212.846	11.61
213.065	73.04
213.283	99.67
213.502	60.76
213.72	81.24
213.938	1.37
214.157	36.18
214.375	114
214.594	50.52
214.812	25.94
215.031	52.56
215.249	68.95
215.467	32.08
215.686	48.47
215.904	144.72
216.122	17.75
216.341	132.44
216.559	38.23
216.778	79.19
216.996	52.56
217.214	42.32
217.432	-33.45
217.651	25.94
217.869	87.38
218.087	118.1
218.306	77.14
218.524	54.61
218.742	134.48
218.96	58.71
219.179	75.09
219.397	105.81
219.615	97.62
219.833	83.28
220.051	46.42
220.27	130.39
220.488	11.61
220.706	89.43
220.924	75.09
221.142	46.42
221.36	54.61
221.578	83.28
221.796	30.04
222.015	19.8
222.233	103.76
222.451	68.95
222.669	-37.55
222.887	58.71
223.105	56.66
223.323	19.8
223.541	-31.4
223.759	111.96
223.977	27.99
224.195	79.19
224.413	107.86
224.631	50.52
224.849	44.37
225.067	83.28
225.285	79.19
225.503	36.18
225.721	-4.78
225.939	23.89
226.157	81.24
226.375	271.7
226.592	3.41
226.81	109.91
227.028	40.28
227.246	136.53
227.464	-8.87
227.682	95.57
227.9	48.47
228.117	89.43
228.335	56.66
228.553	95.57
228.771	103.76
228.989	89.43
229.206	50.52
229.424	66.9
229.642	50.52
229.86	56.66
230.077	79.19
230.295	50.52
230.513	81.24
230.731	17.75
230.948	87.38
231.166	99.67
231.384	27.99
231.601	-21.16
231.819	93.52
232.037	5.46
232.254	-31.4
232.472	17.75
232.689	54.61
232.907	58.71
233.125	64.85
233.342	40.28
233.56	-39.59
233.777	21.85
233.995	46.42
234.213	64.85
234.43	79.19
234.648	93.52
234.865	-15.02
235.083	81.24
235.3	21.85
235.518	21.85
235.735	30.04
235.953	107.86
236.17	36.18
236.388	25.94
236.605	34.13
236.822	75.09
237.04	27.99
237.257	32.08
237.475	-12.97
237.692	60.76
237.909	21.85
238.127	-19.11
238.344	71
238.562	-15.02
238.779	-19.11
238.996	5.46
239.214	-2.73
239.431	101.72
239.648	36.18
239.865	27.99
240.083	87.38
240.3	-2.73
240.517	38.23
240.735	9.56
240.952	128.34
241.169	132.44
241.386	54.61
241.603	13.65
241.821	-37.55
242.038	152.91
242.255	111.96
242.472	-19.11
242.689	103.76
242.907	85.33
243.124	60.76
243.341	36.18
243.558	42.32
243.775	-35.5
243.992	3.41
244.209	-10.92
244.426	56.66
244.643	62.8
244.86	9.56
245.078	109.91
245.295	87.38
245.512	95.57
245.729	-27.31
245.946	62.8
246.163	34.13
246.38	52.56
246.597	91.48
246.814	73.04
247.031	-17.07
247.248	66.9
247.464	111.96
247.681	120.15
247.898	79.19
248.115	48.47
248.332	58.71
248.549	62.8
248.766	95.57
248.983	77.14
249.2	-2.73
249.417	97.62
249.633	25.94
249.85	68.95
250.067	9.56
250.284	56.66
250.501	52.56
250.717	89.43
250.934	-25.26
251.151	56.66
251.368	38.23
251.585	23.89
251.801	71
252.018	11.61
252.235	97.62
252.451	-49.83
252.668	-6.83
252.885	81.24
253.102	75.09
253.318	23.89
253.535	17.75
253.752	-21.16
253.968	32.08
254.185	17.75
254.401	111.96
254.618	93.52
254.835	-23.21
255.051	77.14
255.268	89.43
255.484	93.52
255.701	75.09
255.917	105.81
256.134	50.52
256.351	42.32
256.567	83.28
256.784	40.28
257	-27.31
257.217	64.85
257.433	103.76
257.65	71
257.866	21.85
258.082	3.41
258.299	7.51
258.515	19.8
258.732	68.95
258.948	60.76
259.165	44.37
259.381	5.46
259.597	60.76
259.814	25.94
260.03	-0.68
260.246	-0.68
260.463	114
260.679	62.8
260.895	77.14
261.112	68.95
261.328	-2.73
261.544	50.52
261.761	93.52
261.977	-0.68
262.193	-21.16
262.409	54.61
262.626	50.52
262.842	64.85
263.058	11.61
263.274	11.61
263.49	48.47
263.707	126.29
263.923	134.48
264.139	54.61
264.355	-12.97
264.571	95.57
264.787	85.33
265.004	85.33
265.22	32.08
265.436	62.8
265.652	83.28
265.868	152.91
266.084	-47.79
266.3	-25.26
266.516	11.61
266.732	89.43
266.948	15.7
267.164	66.9
267.38	120.15
267.596	87.38
267.812	206.16
268.028	-23.21
268.244	56.66
268.46	-10.92
268.676	15.7
268.892	81.24
269.108	-6.83
269.324	-2.73
269.54	27.99
269.756	126.29
269.972	13.65
270.188	48.47
270.403	42.32
270.619	77.14
270.835	-70.31
271.051	126.29
271.267	11.61
271.483	7.51
271.698	87.38
271.914	91.48
272.13	15.7
272.346	-6.83
272.562	30.04
272.777	73.04
272.993	-12.97
273.209	21.85
273.425	25.94
273.64	19.8
273.856	48.47
274.072	32.08
274.287	60.76
274.503	-8.87
274.719	71
274.934	-2.73
275.15	-39.59
275.366	58.71
275.581	97.62
275.797	3.41
276.012	91.48
276.228	34.13
276.444	-19.11
276.659	120.15
276.875	-25.26
277.09	114
277.306	71
277.521	71
277.737	38.23
277.952	36.18
278.168	136.53
278.383	116.05
278.599	66.9
278.814	48.47
279.03	19.8
279.245	167.25
279.461	7.51
279.676	118.1
279.892	36.18
280.107	-78.51
280.322	19.8
280.538	40.28
280.753	111.96
280.969	3.41
281.184	83.28
281.399	77.14
281.615	32.08
281.83	101.72
282.045	-49.83
282.26	32.08
282.476	32.08
282.691	9.56
282.906	128.34
283.122	62.8
283.337	-15.02
283.552	68.95
283.767	5.46
283.983	85.33
284.198	66.9
284.413	27.99
284.628	-10.92
284.843	36.18
285.058	-2.73
285.274	-19.11
285.489	15.7
285.704	27.99
285.919	19.8
286.134	27.99
286.349	95.57
286.564	-45.74
286.779	116.05
286.995	68.95
287.21	-33.45
287.425	75.09
287.64	-31.4
287.855	60.76
288.07	-37.55
288.285	146.77
288.5	40.28
288.715	75.09
288.93	15.7
289.145	85.33
289.36	75.09
289.575	7.51
289.79	99.67
290.004	60.76
290.219	103.76
290.434	34.13
290.649	-8.87
290.864	71
291.079	114
291.294	40.28
291.509	-12.97
291.724	-17.07
291.938	-10.92
292.153	130.39
292.368	-2.73
292.583	95.57
292.798	107.86
293.012	175.44
293.227	40.28
293.442	-21.16
293.657	81.24
293.871	114
294.086	15.7
294.301	120.15
294.516	87.38
294.73	40.28
294.945	71
295.16	52.56
295.374	44.37
295.589	99.67
295.804	75.09
296.018	27.99
296.233	75.09
296.447	48.47
296.662	21.85
296.877	122.2
297.091	42.32
297.306	38.23
297.52	46.42
297.735	79.19
297.949	71
298.164	21.85
298.378	-12.97
298.593	1.37
298.807	19.8
299.022	32.08
299.236	150.87
299.451	-17.07
299.665	114
299.88	32.08
300.094	40.28
300.309	52.56
300.523	54.61
300.737	52.56
300.952	54.61
301.166	9.56
301.381	-19.11
301.595	40.28
301.809	-4.78
302.024	17.75
302.238	79.19
302.452	50.52
302.667	50.52
302.881	38.23
303.095	48.47
303.309	87.38
303.524	99.67
303.738	81.24
303.952	42.32
304.166	68.95
304.381	5.46
304.595	124.24
304.809	54.61
305.023	97.62
305.237	21.85
305.452	-8.87
305.666	68.95
305.88	87.38
306.094	105.81
306.308	54.61
306.522	120.15
306.736	103.76
306.95	-10.92
307.164	126.29
307.379	56.66
307.593	64.85
307.807	77.14
308.021	52.56
308.235	44.37
308.449	-39.59
308.663	44.37
308.877	193.87
309.091	91.48
309.305	77.14
309.519	-8.87
309.733	27.99
309.947	-76.46
310.161	77.14
310.374	36.18
310.588	146.77
310.802	-33.45
311.016	32.08
311.23	32.08
311.444	91.48
311.658	-29.35
311.872	93.52
312.085	5.46
312.299	105.81
312.513	148.82
312.727	136.53
312.941	81.24
313.154	95.57
313.368	66.9
313.582	107.86
313.796	64.85
314.009	48.47
314.223	71
314.437	93.52
314.651	144.72
314.864	11.61
315.078	38.23
315.292	-21.16
315.505	-0.68
315.719	68.95
315.933	114
316.146	54.61
316.36	93.52
316.573	77.14
316.787	126.29
317.001	34.13
317.214	-68.27
317.428	23.89
317.641	30.04
317.855	38.23
318.068	85.33
318.282	71
318.495	111.96
318.709	146.77
318.922	9.56
319.136	52.56
319.349	85.33
319.563	3.41
319.776	87.38
319.99	-4.78
320.203	103.76
320.417	19.8
320.63	36.18
320.843	185.68
321.057	38.23
321.27	-10.92
321.483	75.09
321.697	101.72
321.91	-10.92
322.124	64.85
322.337	60.76
322.55	-15.02
322.763	107.86
322.977	40.28
323.19	36.18
323.403	21.85
323.617	19.8
323.83	99.67
324.043	13.65
324.256	109.91
324.469	44.37
324.683	75.09
324.896	19.8
325.109	56.66
325.322	23.89
325.535	93.52
325.748	128.34
325.962	13.65
326.175	38.23
326.388	87.38
326.601	105.81
326.814	48.47
327.027	68.95
327.24	109.91
327.453	-41.64
327.666	109.91
327.879	62.8
328.092	73.04
328.305	75.09
328.518	114
328.731	50.52
328.944	1.37
329.157	15.7
329.37	91.48
329.583	62.8
329.796	134.48
330.009	-2.73
330.222	87.38
330.435	118.1
330.648	34.13
330.861	68.95
331.073	27.99
331.286	64.85
331.499	75.09
331.712	9.56
331.925	85.33
332.138	75.09
332.35	46.42
332.563	-45.74
332.776	71
332.989	42.32
333.202	54.61
333.414	13.65
333.627	101.72
333.84	23.89
334.053	68.95
334.265	62.8
334.478	23.89
334.691	36.18
334.903	95.57
335.116	-0.68
335.329	87.38
335.541	111.96
335.754	132.44
335.966	21.85
336.179	95.57
336.392	73.04
336.604	56.66
336.817	128.34
337.029	44.37
337.242	42.32
337.454	140.63
337.667	77.14
337.88	114
338.092	-6.83
338.305	85.33
338.517	19.8
338.729	124.24
338.942	42.32
339.154	27.99
339.367	-62.12
339.579	50.52
339.792	50.52
340.004	91.48
340.217	-15.02
340.429	132.44
340.641	-29.35
340.854	99.67
341.066	66.9
341.278	146.77
341.491	150.87
341.703	21.85
341.915	13.65
342.128	50.52
342.34	165.2
342.552	11.61
342.764	34.13
342.977	77.14
343.189	77.14
343.401	83.28
343.613	62.8
343.826	60.76
344.038	-41.64
344.25	89.43
344.462	58.71
344.674	109.91
344.886	-53.93
345.099	130.39
345.311	71
345.523	54.61
345.735	-47.79
345.947	109.91
346.159	34.13
346.371	73.04
346.583	13.65
346.795	212.31
347.007	44.37
347.219	68.95
347.431	19.8
347.643	73.04
347.855	32.08
348.067	52.56
348.279	3.41
348.491	60.76
348.703	75.09
348.915	19.8
349.127	-8.87
349.339	73.04
349.551	48.47
349.763	83.28
349.975	48.47
350.187	87.38
350.399	142.68
350.61	9.56
350.822	73.04
351.034	50.52
351.246	23.89
351.458	87.38
351.669	-0.68
351.881	109.91
352.093	1.37
352.305	64.85
352.517	128.34
352.728	77.14
352.94	30.04
353.152	101.72
353.363	85.33
353.575	97.62
353.787	109.91
353.999	146.77
354.21	109.91
354.422	30.04
354.633	52.56
354.845	101.72
355.057	7.51
355.268	56.66
355.48	60.76
355.692	42.32
355.903	40.28
356.115	-23.21
356.326	-53.93
356.538	140.63
356.749	56.66
356.961	97.62
357.172	66.9
357.384	17.75
357.595	122.2
357.807	75.09
358.018	30.04
358.23	60.76
358.441	177.49
358.653	73.04
358.864	95.57
359.075	9.56
359.287	50.52
359.498	126.29
359.709	23.89
359.921	21.85
360.132	71
360.344	46.42
360.555	-6.83
360.766	120.15
360.977	1.37
361.189	83.28
361.4	-0.68
361.611	128.34
361.823	9.56
362.034	50.52
362.245	-33.45
362.456	56.66
362.667	87.38
362.879	11.61
363.09	87.38
363.301	-6.83
363.512	89.43
363.723	56.66
363.935	109.91
364.146	62.8
364.357	-6.83
364.568	48.47
364.779	17.75
364.99	38.23
365.201	60.76
365.412	105.81
365.623	30.04
365.834	73.04
366.045	15.7
366.256	109.91
366.467	46.42
366.678	56.66
366.889	44.37
367.1	13.65
367.311	93.52
367.522	7.51
367.733	124.24
367.944	93.52
368.155	101.72
368.366	54.61
368.577	146.77
368.788	107.86
368.999	-17.07
369.209	27.99
369.42	169.3
369.631	226.64
369.842	64.85
370.053	85.33
370.264	114
370.474	13.65
370.685	64.85
370.896	83.28
371.107	118.1
371.317	91.48
371.528	71
371.739	103.76
371.95	101.72
372.16	46.42
372.371	7.51
372.582	30.04
372.792	87.38
373.003	97.62
373.214	99.67
373.424	38.23
373.635	-27.31
373.846	83.28
374.056	66.9
374.267	85.33
374.477	81.24
374.688	13.65
374.898	77.14
375.109	101.72
375.319	21.85
375.53	50.52
375.74	75.09
375.951	15.7
376.161	77.14
376.372	136.53
376.582	-6.83
376.793	38.23
377.003	114
377.214	107.86
377.424	91.48
377.635	122.2
377.845	-21.16
378.055	64.85
378.266	-2.73
378.476	154.96
378.686	58.71
378.897	3.41
379.107	93.52
379.317	185.68
379.528	68.95
379.738	89.43
379.948	60.76
380.158	132.44
380.369	81.24
380.579	120.15
380.789	27.99
380.999	87.38
381.21	62.8
381.42	177.49
381.63	46.42
381.84	52.56
382.05	126.29
382.261	87.38
382.471	77.14
382.681	-6.83
382.891	142.68
383.101	66.9
383.311	23.89
383.521	118.1
383.731	154.96
383.941	36.18
384.151	114
384.361	109.91
384.571	64.85
384.781	19.8
384.991	157.01
385.201	157.01
385.411	161.11
385.621	75.09
385.831	91.48
386.041	83.28
386.251	52.56
386.461	111.96
386.671	-21.16
386.881	77.14
387.091	30.04
387.301	48.47
387.511	46.42
387.72	148.82
387.93	75.09
388.14	27.99
388.35	97.62
388.56	32.08
388.769	60.76
388.979	91.48
389.189	95.57
389.399	-19.11
389.609	177.49
389.818	140.63
390.028	7.51
390.238	89.43
390.447	68.95
390.657	128.34
390.867	60.76
391.076	7.51
391.286	52.56
391.496	68.95
391.705	50.52
391.915	116.05
392.125	114
392.334	126.29
392.544	128.34
392.753	109.91
392.963	48.47
393.172	87.38
393.382	111.96
393.591	142.68
393.801	75.09
394.01	107.86
394.22	124.24
394.429	89.43
394.639	44.37
394.848	101.72
395.058	48.47
395.267	68.95
395.477	126.29
395.686	142.68
395.895	150.87
396.105	179.54
396.314	177.49
396.524	77.14
396.733	95.57
396.942	159.06
397.152	126.29
397.361	142.68
397.57	93.52
397.78	232.79
397.989	114
398.198	183.63
398.407	95.57
398.617	71
398.826	75.09
399.035	68.95
399.244	111.96
399.453	83.28
399.663	54.61
399.872	81.24
400.081	89.43
400.29	132.44
400.499	36.18
400.708	97.62
400.917	87.38
401.127	105.81
401.336	107.86
401.545	208.21
401.754	89.43
401.963	177.49
402.172	224.59
402.381	81.24
402.59	109.91
402.799	81.24
403.008	179.54
403.217	226.64
403.426	128.34
403.635	79.19
403.844	159.06
404.053	140.63
404.262	81.24
404.471	179.54
404.68	142.68
404.888	238.93
405.097	222.55
405.306	200.02
405.515	183.63
405.724	193.87
405.933	187.73
406.142	185.68
406.35	165.2
406.559	228.69
406.768	128.34
406.977	195.92
407.185	177.49
407.394	208.21
407.603	161.11
407.812	193.87
408.02	298.32
408.229	292.18
408.438	169.3
408.646	195.92
408.855	247.12
409.064	200.02
409.272	212.31
409.481	329.04
409.69	277.84
409.898	259.41
410.107	277.84
410.315	341.33
410.524	277.84
410.733	353.62
410.941	314.7
411.15	400.72
411.358	370
411.567	380.24
411.775	378.19
411.984	408.91
412.192	378.19
412.401	482.64
412.609	499.02
412.818	523.6
413.026	507.21
413.234	523.6
413.443	521.55
413.651	464.21
413.86	609.61
414.068	656.72
414.276	634.19
414.485	603.47
414.693	636.24
414.901	634.19
415.11	623.95
415.318	714.06
415.526	742.73
415.734	828.74
415.943	736.59
416.151	738.63
416.359	707.91
416.567	810.31
416.776	849.22
416.984	949.57
417.192	845.13
417.4	988.49
417.608	877.9
417.817	927.05
418.025	1097.03
418.233	1176.9
418.441	994.63
418.649	1092.93
418.857	1137.99
419.065	1258.82
419.273	1170.76
419.481	1377.6
419.689	1373.5
419.897	1426.75
420.105	1465.66
420.313	1561.92
420.521	1508.67
420.729	1496.38
420.937	1561.92
421.145	1619.26
421.353	1682.75
421.561	1838.39
421.769	1881.4
421.977	1953.08
422.185	1936.7
422.393	2086.2
422.601	2256.18
422.809	2180.4
423.017	2047.29
423.224	2192.69
423.432	2415.92
423.64	2442.54
423.848	2665.77
424.056	2561.33
424.263	2751.79
424.471	2733.36
424.679	2665.77
424.887	2870.57
425.094	2966.82
425.302	3001.64
425.51	3081.51
425.718	3136.81
425.925	3282.21
426.133	3495.2
426.341	3577.12
426.548	3665.18
426.756	3720.48
426.964	3685.66
427.171	3888.41
427.379	4091.16
427.586	4115.73
427.794	4220.18
428.001	4459.79
428.209	4537.62
428.417	4580.62
428.624	4898.06
428.832	4924.68
429.039	4812.04
429.247	4861.2
429.454	5213.45
429.662	5713.15
429.869	5252.36
430.076	5635.33
430.284	5514.5
430.491	5838.08
430.699	6049.02
430.906	6270.2
431.114	6163.7
431.321	6329.59
431.528	6401.27
431.736	6790.38
431.943	7109.86
432.15	7060.71
432.358	7056.62
432.565	7582.95
432.772	7415.01
432.979	7769.31
433.187	7826.65
433.394	8250.58
433.601	8752.34
433.808	8467.67
434.016	8565.97
434.223	8940.75
434.43	9325.77
434.637	9340.1
434.844	9622.72
435.052	9995.45
435.259	9856.19
435.466	9886.91
435.673	9868.48
435.88	10499.25
436.087	10917.04
436.294	11076.78
436.501	10661.04
436.708	11101.36
436.915	11431.08
437.122	11975.84
437.329	11734.18
437.537	12319.9
437.743	12465.3
437.95	12389.53
438.157	13034.64
438.364	13384.84
438.571	13253.77
438.778	13407.37
438.985	14716.02
439.192	14277.76
439.399	14595.19
439.606	14351.48
439.813	15250.54
440.02	15932.51
440.227	15553.64
440.433	15543.4
440.64	15985.76
440.847	16045.15
441.054	16274.52
441.261	17544.27
441.467	17275.98
441.674	17540.17
441.881	18293.82
442.088	18228.29
442.294	17843.27
442.501	18570.3
442.708	18787.38
442.914	19455.02
443.121	20192.29
443.328	19702.82
443.534	21230.61
443.741	20216.86
443.948	20479
444.154	22049.8
444.361	22057.99
444.568	21693.45
444.774	22023.17
444.981	21904.39
445.187	23065.59
445.394	23768.04
445.6	23475.18
445.807	25637.84
446.013	24679.39
446.22	25095.13
446.426	25654.22
446.633	26483.65
446.839	27032.5
447.046	25605.07
447.252	27349.94
447.459	27362.23
447.665	27403.19
447.871	28681.12
448.078	29885.33
448.284	28449.7
448.491	29143.96
448.697	30337.93
448.903	30780.29
449.11	30798.72
449.316	30190.47
449.522	30851.97
449.728	31716.21
449.935	31597.43
450.141	31890.29
450.347	32363.37
450.553	31638.39
450.76	32238.44
450.966	33031.01
451.172	32625.51
451.378	33264.47
451.584	32676.71
451.791	33977.17
451.997	33487.7
452.203	33934.16
452.409	34132.81
452.615	34282.31
452.821	32791.39
453.027	32064.36
453.233	33952.59
453.44	32584.55
453.646	32830.3
453.852	32996.19
454.058	33497.94
454.264	32385.9
454.47	33270.62
454.676	32078.7
454.882	33616.72
455.088	30509.96
455.294	31005.56
455.5	31746.93
455.705	31531.89
455.911	30577.54
456.117	29735.82
456.323	29313.94
456.529	27802.54
456.735	29150.1
456.941	28359.59
457.147	27626.42
457.352	27143.1
457.558	26510.27
457.764	26905.53
457.97	26299.33
458.176	25789.39
458.381	25584.59
458.587	24357.86
458.793	24411.1
458.999	23167.99
459.204	24685.53
459.41	23669.74
459.616	22533.12
459.821	22436.86
460.027	22406.14
460.233	21775.37
460.438	20659.23
460.644	21015.57
460.85	20151.33
461.055	19561.51
461.261	19653.67
461.466	18322.49
461.672	17568.84
461.878	18861.11
462.083	17630.28
462.289	17062.99
462.494	16958.55
462.7	16307.29
462.905	15856.74
463.111	16546.9
463.316	16546.9
463.522	16344.16
463.727	16342.11
463.932	16032.86
464.138	15905.89
464.343	16256.09
464.549	15582.31
464.754	16149.6
464.959	15684.71
465.165	15717.48
465.37	15275.12
465.575	14707.83
465.781	15225.96
465.986	15387.75
466.191	14691.45
466.397	14642.29
466.602	13757.57
466.807	14341.24
467.012	14417.02
467.218	14355.58
467.423	13956.22
467.628	14093.44
467.833	14679.16
468.038	14156.93
468.244	13763.72
468.449	14312.57
468.654	13872.26
468.859	13808.77
469.064	13544.58
469.269	13028.49
469.474	13335.69
469.679	13300.87
469.885	13040.78
470.09	13274.25
470.295	13171.85
470.5	12817.55
470.705	12915.86
470.91	12510.36
471.115	12532.89
471.32	12831.89
471.525	12455.06
471.73	12407.96
471.935	12272.79
472.139	11791.52
472.344	12004.51
472.549	11955.36
472.754	11846.82
472.959	11437.22
473.164	11281.58
473.369	11218.09
473.574	11506.85
473.778	11289.77
473.983	11259.05
474.188	11373.74
474.393	10724.53
474.598	10826.93
474.802	10720.43
475.007	10515.64
475.212	10710.19
475.417	10155.19
475.621	10343.61
475.826	10271.93
476.031	9860.29
476.235	9704.64
476.44	10120.38
476.645	9702.59
476.849	9780.42
477.054	9727.17
477.259	9489.6
477.463	9368.77
477.668	9368.77
477.872	9465.03
478.077	9217.22
478.282	8889.55
478.486	8973.52
478.691	9004.24
478.895	8826.06
479.1	8875.21
479.304	8942.8
479.509	8570.07
479.713	8613.07
479.918	8576.21
480.122	8389.85
480.326	8694.99
480.531	8379.61
480.735	8295.64
480.94	8156.38
481.144	8625.36
481.348	8164.57
481.553	8174.81
481.757	7951.58
481.961	8168.66
482.166	8273.11
482.37	8187.1
482.574	8062.17
482.778	8049.88
482.983	8109.27
483.187	8111.32
483.391	8129.75
483.595	8064.22
483.8	8250.58
484.004	8264.92
484.208	8207.58
484.412	8025.31
484.616	8127.71
484.821	8039.64
485.025	8010.97
485.229	7967.96
485.433	8058.07
485.637	8117.47
485.841	7924.96
486.045	8142.04
486.249	7914.72
486.453	7998.68
486.657	7879.9
486.861	8232.15
487.065	8183
487.269	8008.92
487.473	7873.76
487.677	8189.14
487.881	8262.87
488.085	8072.41
488.289	8248.54
488.493	8006.88
488.697	8240.34
488.901	8219.86
489.105	8232.15
489.309	8082.65
489.512	8213.72
489.716	8209.62
489.92	8254.68
490.124	8109.27
490.328	8099.03
490.531	8004.83
490.735	8236.25
490.939	8074.46
491.143	8162.52
491.346	8277.21
491.55	8522.96
491.754	8309.97
491.958	8518.87
492.161	8453.33
492.365	8320.21
492.569	8332.5
492.772	8361.17
492.976	8490.2
493.18	8654.03
493.383	8631.51
493.587	8795.34
493.79	8871.12
493.994	8742.1
494.197	8803.53
494.401	8867.02
494.605	8733.9
494.808	9000.14
495.012	8922.32
495.215	8834.25
495.419	8953.04
495.622	9016.52
495.825	9266.38
496.029	9454.79
496.232	9557.19
496.436	9458.89
496.639	9569.48
496.843	9422.02
497.046	9960.64
497.249	9802.94
497.453	9815.23
497.656	9901.25
497.859	10009.79
498.063	10366.14
498.266	10269.88
498.469	10407.09
498.673	10542.26
498.876	10497.21
499.079	10722.48
499.282	10597.56
499.485	10814.64
499.689	10939.57
499.892	11033.77
500.095	11107.5
500.298	11431.08
500.501	11170.99
500.705	11816.1
500.908	11562.15
501.111	11822.24
501.314	12008.61
501.517	12080.28
501.72	12326.04
501.923	12209.31
502.126	12164.25
502.329	12567.7
502.532	12649.62
502.735	12653.72
502.938	13026.45
503.141	13022.35
503.344	13186.19
503.547	13149.32
503.75	13448.33
503.953	13737.09
504.156	13837.44
504.359	13565.06
504.562	13859.97
504.765	14212.22
504.968	14355.58
505.17	14462.07
505.373	14488.7
505.576	14865.52
505.779	14955.63
505.982	14855.28
506.185	15412.33
506.387	15359.08
506.59	15445.1
506.793	15875.17
506.996	15441
507.198	16155.74
507.401	16039.01
507.604	16417.88
507.807	16600.15
508.009	16438.36
508.212	16630.87
508.415	16774.23
508.617	17026.13
508.82	17204.3
509.022	16987.22
509.225	17605.7
509.428	17534.03
509.63	17642.57
509.833	17900.61
510.035	18082.88
510.238	18003.01
510.44	18435.13
510.643	18691.13
510.845	18988.08
511.048	18715.7
511.25	18918.45
511.453	19160.11
511.655	19678.25
511.858	19532.84
512.06	19563.56
512.262	19960.87
512.465	19803.18
512.667	20343.84
512.87	20247.58
513.072	20341.79
513.274	20845.59
513.477	20950.04
513.679	20884.5
513.881	21373.97
514.084	21562.38
514.286	21257.23
514.488	21521.42
514.69	22057.99
514.893	22115.33
515.095	22373.38
515.297	22381.57
515.499	22309.89
515.701	22678.52
515.904	22830.07
516.106	23235.57
516.308	23129.08
516.51	23428.08
516.712	23239.67
516.914	23663.6
517.116	23981.03
517.318	24056.81
517.52	24089.57
517.722	24488.93
517.925	24724.44
518.127	24972.25
518.329	24783.84
518.531	24589.28
518.733	25103.32
518.935	25193.43
519.136	25545.68
519.338	25541.58
519.54	25537.49
519.742	25824.2
519.944	26065.86
520.146	25985.99
520.348	26221.51
520.55	26710.97
520.752	26696.64
520.954	26944.44
521.155	26665.92
521.357	27210.68
521.559	27077.56
521.761	27495.35
521.963	27628.46
522.164	27802.54
522.366	27925.42
522.568	28244.9
522.77	28406.69
522.971	28488.61
523.173	28150.7
523.375	28414.88
523.576	28302.25
523.778	28537.76
523.98	29051.8
524.181	28869.53
524.383	29025.18
524.584	29422.48
524.786	29502.36
524.988	28916.64
525.189	29723.54
525.391	29440.92
525.592	29619.09
525.794	29676.43
525.995	29643.66
526.197	29883.28
526.398	29868.94
526.6	29952.91
526.801	29946.76
527.003	30016.4
527.204	29995.92
527.406	30331.78
527.607	30317.45
527.808	30094.22
528.01	29946.76
528.211	30278.54
528.412	30870.4
528.614	31003.52
528.815	30618.5
529.016	30636.93
529.218	30632.83
529.419	30806.91
529.62	30724.99
529.822	30456.71
530.023	30671.75
530.224	30577.54
530.425	30710.66
530.626	30933.89
530.828	30514.05
531.029	31169.4
531.23	30608.26
531.431	30636.93
531.632	31114.11
531.833	30905.21
532.035	30851.97
532.236	30849.92
532.437	30968.7
532.638	30565.25
532.839	30878.59
533.04	31200.12
533.241	30692.22
533.442	31327.1
533.643	30858.11
533.844	30804.86
534.045	30872.45
534.246	30747.52
534.447	31261.56
534.648	30821.25
534.849	30835.58
535.05	30577.54
535.251	30874.49
535.451	30825.34
535.652	31034.24
535.853	30716.8
536.054	30749.57
536.255	30950.27
536.456	30569.35
536.657	31249.27
536.857	30739.33
537.058	30901.12
537.259	31214.46
537.46	30804.86
537.66	30471.04
537.861	30829.44
538.062	30518.15
538.263	30710.66
538.463	30763.9
538.664	30796.67
538.865	30741.38
539.065	30745.47
539.266	30514.05
539.466	30722.94
539.667	30538.63
539.868	30739.33
540.068	30579.59
540.269	30657.41
540.469	30452.61
540.67	30438.28
540.87	30598.02
541.071	30393.22
541.271	30440.32
541.472	30368.65
541.672	30116.75
541.873	30202.76
542.073	29846.41
542.274	30174.09
542.474	30145.42
542.675	30274.44
542.875	30657.41
543.075	30509.96
543.276	29774.73
543.476	30036.87
543.676	30032.78
543.877	30337.93
544.077	30264.2
544.277	29846.41
544.478	29881.23
544.678	30151.56
544.878	29809.55
545.078	29975.44
545.279	29977.48
545.479	29914
545.679	29477.78
545.879	29991.82
546.079	29903.76
546.28	29965.2
546.48	29920.14
546.68	30106.51
546.88	30040.97
547.08	29662.1
547.28	29862.8
547.48	29555.6
547.68	29809.55
547.88	29709.2
548.081	29868.94
548.281	29621.14
548.481	29686.67
548.681	29741.97
548.881	30024.59
549.081	29744.02
549.28	29526.93
549.48	29889.42
549.68	29453.2
549.88	29830.03
550.08	29537.17
550.28	29490.07
550.48	29395.86
550.68	29453.2
550.88	29543.31
551.08	29737.87
551.279	29612.95
551.479	29252.5
551.679	29735.82
551.879	29348.76
552.079	29879.18
552.278	29322.13
552.478	29531.03
552.678	29549.46
552.878	29582.23
553.077	29162.39
553.277	29447.06
553.477	29823.89
553.676	29146.01
553.876	29387.67
554.076	29391.76
554.275	29434.77
554.475	28885.92
554.674	29385.62
554.874	29270.93
555.074	29197.21
555.273	29057.95
555.473	29174.68
555.672	28947.36
555.872	28969.88
556.071	29299.61
556.271	28939.16
556.47	29264.79
556.67	28763.04
556.869	28744.61
557.068	29125.53
557.268	28986.27
557.467	29236.12
557.667	28791.71
557.866	28847.01
558.065	28851.1
558.265	28812.19
558.464	28629.92
558.663	29041.56
558.863	28550.05
559.062	29090.71
559.261	28543.91
559.461	28930.97
559.66	28179.37
559.859	28787.61
560.058	28679.07
560.258	28570.53
560.457	28398.5
560.656	29053.85
560.855	28468.13
561.054	28640.16
561.253	28298.15
561.453	28828.57
561.652	28603.3
561.851	28580.77
562.05	28439.46
562.249	28414.88
562.448	28367.78
562.647	28621.73
562.846	28351.4
563.045	28550.05
563.244	28050.35
563.443	28375.97
563.642	28132.26
563.841	28140.46
564.04	28095.4
564.239	28306.34
564.438	28011.43
564.637	28261.29
564.836	28410.79
565.035	27712.43
565.234	28027.82
565.432	27958.19
565.631	28306.34
565.83	27933.61
566.029	27915.18
566.228	28068.78
566.427	27913.13
566.625	27767.73
566.824	27343.8
567.023	27982.76
567.222	27550.64
567.42	27882.41
567.619	27956.14
567.818	27784.11
568.016	27634.61
568.215	28142.5
568.414	27857.84
568.612	27988.91
568.811	27366.32
569.01	27515.83
569.208	27087.8
569.407	27755.44
569.605	27306.93
569.804	27460.53
570.002	27280.31
570.201	27448.24
570.4	27562.93
570.598	27374.52
570.797	27265.97
570.995	27143.1
571.193	26751.93
571.392	27532.21
571.59	27169.72
571.789	27222.97
571.987	27200.44
572.186	27509.68
572.384	27245.49
572.582	27128.76
572.781	26960.83
572.979	27055.03
573.177	27118.52
573.376	26993.59
573.574	27038.65
573.772	27128.76
573.971	27071.42
574.169	26686.4
574.367	26604.48
574.565	27069.37
574.763	26819.52
574.962	26753.98
575.16	26383.3
575.358	26569.66
575.556	26280.9
575.754	26809.28
575.952	26563.52
576.151	26729.41
576.349	26424.26
576.547	26739.65
576.745	26407.87
576.943	26581.95
577.141	26106.82
577.339	26172.36
577.537	26141.64
577.735	26295.24
577.933	25957.32
578.131	26416.07
578.329	26274.76
578.527	25887.69
578.725	26002.38
578.923	26082.25
579.121	25990.09
579.319	25721.8
579.516	26026.95
579.714	26000.33
579.912	25996.23
580.11	25717.71
580.308	25510.86
580.506	25775.05
580.704	25277.4
580.901	25598.93
581.099	25760.72
581.297	25351.12
581.495	25236.44
581.692	25238.48
581.89	25275.35
582.088	25320.4
582.285	25054.17
582.483	25285.59
582.681	25332.69
582.878	25234.39
583.076	25185.24
583.274	25297.88
583.471	25007.06
583.669	24884.19
583.866	24851.42
584.064	25123.8
584.262	24787.93
584.459	24835.03
584.657	24544.22
584.854	24763.36
585.052	24495.07
585.249	24863.71
585.447	24427.49
585.644	24417.25
585.841	24493.02
586.039	24368.1
586.236	24382.43
586.434	24159.2
586.631	24325.09
586.828	24202.21
587.026	24499.17
587.223	24159.2
587.42	24151.01
587.618	23989.22
587.815	23530.48
588.012	23962.6
588.21	23882.73
588.407	24353.76
588.604	23944.17
588.801	23763.95
588.999	23847.91
589.196	24054.76
589.393	23888.87
589.59	23899.11
589.787	23843.82
589.984	23583.73
590.182	23256.05
590.379	23679.98
590.576	23346.16
590.773	23612.4
590.97	23170.04
591.167	23505.9
591.364	23163.89
591.561	23487.47
591.758	23378.93
591.955	23063.54
592.152	23079.93
592.349	23143.41
592.546	23219.19
592.743	23131.12
592.94	22785.02
593.137	22955
593.334	23118.84
593.531	22858.74
593.727	22754.3
593.924	22498.3
594.121	22664.19
594.318	22776.83
594.515	22641.66
594.712	23024.63
594.908	22604.8
595.105	22508.54
595.302	22475.77
595.499	22717.43
595.696	22555.65
595.892	22324.22
596.089	22662.14
596.286	22522.88
596.482	22252.55
596.679	22471.68
596.876	22582.27
597.072	22338.56
597.269	22379.52
597.466	22150.15
597.662	22002.69
597.859	22103.04
598.055	22045.7
598.252	21957.64
598.448	22049.8
598.645	21822.47
598.841	21795.85
599.038	21914.63
599.234	22045.7
599.431	21818.38
599.627	21650.44
599.824	21961.73
600.02	21679.11
600.217	21722.12
600.413	21849.1
600.609	21459.98
600.806	21402.64
601.002	21697.55
601.198	21650.44
601.395	21414.93
601.591	21152.79
601.787	21603.34
601.984	21074.96
602.18	21693.45
602.376	21097.49
602.572	21046.29
602.769	21312.53
602.965	20960.28
603.161	21074.96
603.357	21308.43
603.553	20767.77
603.75	20909.08
603.946	20751.38
604.142	21138.45
604.338	20794.39
604.534	20972.57
604.73	20546.59
604.926	20855.83
605.122	21097.49
605.318	20726.81
605.514	20515.87
605.71	20528.16
605.906	20857.88
606.102	20401.18
606.298	20855.83
606.494	20620.31
606.69	20411.42
606.886	20796.44
607.082	20462.62
607.278	20675.61
607.474	20192.29
607.67	20403.23
607.866	20069.41
608.062	20366.37
608.257	20227.1
608.453	20292.64
608.649	20622.36
608.845	20081.7
609.041	20118.56
609.236	20016.16
609.432	20038.69
609.628	20214.82
609.824	20120.61
610.019	20188.19
610.215	20048.93
610.411	20397.09
610.606	20194.34
610.802	19942.44
610.998	19805.22
611.193	20122.66
611.389	19835.94
611.584	19997.73
611.78	19932.2
611.976	19686.44
612.171	19651.63
612.367	19807.27
612.562	19588.14
612.758	19592.23
612.953	19459.12
613.149	19756.07
613.344	19698.73
613.539	19612.71
613.735	19774.5
613.93	19526.7
614.126	19647.53
614.321	19784.74
614.517	19184.69
614.712	19346.48
614.907	19227.7
615.103	19620.91
615.298	19164.21
615.493	19571.75
615.688	19084.34
615.884	19457.07
616.079	18797.62
616.274	19282.99
616.47	19371.05
616.665	19139.63
616.86	19166.26
617.055	18814.01
617.25	19070
617.445	19414.06
617.641	18596.92
617.836	19278.9
618.031	18826.29
618.226	18670.65
618.421	18760.76
618.616	19029.04
618.811	18596.92
619.006	18979.89
619.201	18435.13
619.396	18506.81
619.591	18263.1
619.786	18510.91
619.981	18289.73
620.176	18048.07
620.371	17857.6
620.566	18011.2
620.761	17960
620.956	18146.37
621.151	18259.01
621.346	18117.7
621.541	17562.7
621.735	17732.68
621.93	17357.9
622.125	17257.55
622.32	17372.24
622.515	17468.49
622.709	17548.36
622.904	17372.24
623.099	16931.92
623.294	17155.15
623.488	16956.5
623.683	17151.06
623.878	16684.12
624.072	16710.74
624.267	16696.41
624.462	16493.66
624.656	16702.55
624.851	16624.73
625.046	16235.61
625.24	16295
625.435	16075.87
625.629	15930.47
625.824	16016.48
626.018	16032.86
626.213	15701.09
626.407	15846.5
626.602	15418.47
626.796	15604.84
626.991	15920.23
627.185	15373.42
627.38	15363.18
627.574	15240.3
627.768	15254.64
627.963	15197.29
628.157	15088.75
628.352	15119.47
628.546	14972.02
628.74	14980.21
628.935	14873.71
629.129	14816.37
629.323	14722.16
629.517	14523.51
629.712	14437.5
629.906	14601.33
630.1	14308.48
630.294	14406.78
630.489	14138.49
630.683	14337.15
630.877	14005.38
631.071	14005.38
631.265	13988.99
631.459	14042.24
631.653	13819.01
631.848	13722.76
632.042	13651.08
632.236	13741.19
632.43	13517.96
632.624	13646.98
632.818	13524.1
633.012	13165.71
633.206	13483.14
633.4	13194.38
633.594	12825.75
633.788	13169.8
633.982	13235.34
634.176	13108.37
634.369	12829.84
634.563	12946.58
634.757	12792.98
634.951	12709.01
635.145	12782.74
635.339	12414.1
635.533	12303.51
635.726	12807.31
635.92	12307.61
636.114	12215.45
636.308	12145.82
636.501	12389.53
636.695	12068
636.889	12223.64
637.083	11922.59
637.276	12035.23
637.47	11828.38
637.664	11809.95
637.857	11832.48
638.051	11680.93
638.244	11527.33
638.438	11396.26
638.632	11439.27
638.825	11332.78
639.019	11324.58
639.212	11277.48
639.406	11506.85
639.599	11113.64
639.793	11005.1
639.986	10865.84
640.18	10923.18
640.373	10914.99
640.567	10841.26
640.76	10841.26
640.954	10697.91
641.147	10716.34
641.34	10611.89
641.534	10603.7
641.727	10480.82
641.92	10501.3
642.114	10359.99
642.307	10433.72
642.5	10419.38
642.694	10187.96
642.887	10007.74
643.08	10196.15
643.273	9917.63
643.467	9977.02
643.66	9983.16
643.853	9895.1
644.046	9833.66
644.239	9632.96
644.432	9630.91
644.626	9403.59
644.819	9567.43
645.012	9575.62
645.205	9508.04
645.398	9419.97
645.591	9215.18
645.784	9518.28
645.977	9125.07
646.17	9190.6
646.363	9026.76
646.556	8981.71
646.749	8973.52
646.942	9030.86
647.135	8819.92
647.328	8946.89
647.521	9008.33
647.714	8760.53
647.907	8721.62
648.099	8500.44
648.292	8752.34
648.485	8510.68
648.678	8574.16
648.871	8395.99
649.064	8453.33
649.256	8373.46
649.449	8309.97
649.642	8199.38
649.835	8195.29
650.027	8152.28
650.22	8015.07
650.413	8025.31
650.605	8135.9
650.798	7967.96
650.991	7826.65
651.183	7808.22
651.376	7746.78
651.568	7947.48
651.761	7599.33
651.954	7828.7
652.146	7589.09
652.339	7619.81
652.531	7525.6
652.724	7623.91
652.916	7349.48
653.109	7535.84
653.301	7529.7
653.494	7464.16
653.686	7326.95
653.879	7453.92
654.071	7132.39
654.263	7259.37
654.456	7253.22
654.648	7220.46
654.84	7054.57
655.033	7023.85
655.225	6950.12
655.417	6876.4
655.61	7091.43
655.802	6917.36
655.994	6956.27
656.186	6884.59
656.379	6857.96
656.571	6737.13
656.763	6685.94
656.955	6665.46
657.148	6722.8
657.34	6651.12
657.532	6704.37
657.724	6733.04
657.916	6513.91
658.108	6573.3
658.3	6474.99
658.492	6386.93
658.684	6366.45
658.876	6341.88
659.068	6274.29
659.26	6106.36
659.452	6132.98
659.644	6233.33
659.836	6044.92
660.028	6180.09
660.22	5958.91
660.412	5958.91
660.604	6014.2
660.796	5928.19
660.988	6003.96
661.18	5956.86
661.372	5788.93
661.563	5917.95
661.755	5651.71
661.947	5754.11
662.139	5494.02
662.331	5747.97
662.522	5713.15
662.714	5670.14
662.906	5518.59
663.097	5649.66
663.289	5596.42
663.481	5709.05
663.673	5467.39
663.864	5475.59
664.056	5446.91
664.247	5436.67
664.439	5274.88
664.631	5414.15
664.822	5395.72
665.014	5453.06
665.205	5264.65
665.397	5283.08
665.588	5221.64
665.78	5065.99
665.971	5197.06
666.163	5098.76
666.354	5274.88
666.546	5057.8
666.737	5160.2
666.929	5137.67
667.12	5160.2
667.311	4850.96
667.503	4887.82
667.694	4988.17
667.885	4726.03
668.077	4973.83
668.268	4715.79
668.459	4914.44
668.651	5008.65
668.842	4844.81
669.033	4803.85
669.224	4807.95
669.416	5020.94
669.607	4926.73
669.798	4728.08
669.989	4779.28
670.18	4775.18
670.371	4838.67
670.563	4656.4
670.754	4783.37
670.945	4687.12
671.136	4523.28
671.327	4588.82
671.518	4568.34
671.709	4594.96
671.9	4676.88
672.091	4521.23
672.282	4554
672.473	4531.47
672.664	4496.66
672.855	4447.51
673.046	4582.67
673.237	4470.03
673.428	4453.65
673.619	4521.23
673.809	4523.28
674	4451.6
674.191	4459.79
674.382	4291.86
674.573	4500.75
674.764	4273.43
674.954	4472.08
675.145	4386.07
675.336	4295.96
675.527	4281.62
675.717	4338.96
675.908	4332.82
676.099	4248.85
676.289	4214.04
676.48	4351.25
676.671	4261.14
676.861	4185.37
677.052	4304.15
677.243	4199.7
677.433	4089.11
677.624	4306.2
677.814	4179.22
678.005	4168.98
678.195	4132.12
678.386	4162.84
678.576	4183.32
678.767	4214.04
678.957	4080.92
679.148	4191.51
679.338	4255
679.529	4085.02
679.719	4089.11
679.909	4154.65
680.1	4179.22
680.29	4222.23
680.481	4011.29
680.671	4070.68
680.861	4056.34
681.052	4085.02
681.242	3994.9
681.432	4166.93
681.622	4064.54
681.813	4072.73
682.003	4082.97
682.193	4013.34
682.383	4179.22
682.573	4015.38
682.764	4033.82
682.954	4052.25
683.144	4089.11
683.334	3945.75
683.524	4078.87
683.714	4062.49
683.904	3990.81
684.094	4005.14
684.284	4062.49
684.474	4109.59
684.664	3921.18
684.854	4056.34
685.044	4046.1
685.234	4066.58
685.424	3962.14
685.614	3970.33
685.804	3982.62
685.994	3941.66
686.184	3990.81
686.374	3849.5
686.564	3839.26
686.753	3960.09
686.943	3802.4
687.133	3964.18
687.323	3917.08
687.513	3974.42
687.702	3896.6
687.892	3808.54
688.082	3853.59
688.272	3876.12
688.461	3790.11
688.651	3736.86
688.841	3777.82
689.03	3656.99
689.22	3749.15
689.41	3783.96
689.599	3863.83
689.789	3636.51
689.979	3736.86
690.168	3611.93
690.358	3697.95
690.547	3783.96
690.737	3669.28
690.926	3677.47
691.116	3734.81
691.305	3634.46
691.495	3745.05
691.684	3599.65
691.874	3605.79
692.063	3724.57
692.252	3665.18
692.442	3716.38
692.631	3534.11
692.82	3685.66
693.01	3495.2
693.199	3583.26
693.388	3693.85
693.578	3505.44
693.767	3611.93
693.956	3587.36
694.146	3505.44
694.335	3542.3
694.524	3577.12
694.713	3622.17
694.902	3665.18
695.092	3712.28
695.281	3697.95
695.47	3648.8
695.659	3603.74
695.848	3743
696.037	3755.29
696.226	3562.78
696.415	3530.02
696.604	3665.18
696.793	3755.29
696.982	3816.73
697.171	3753.24
697.36	3675.42
697.549	3634.46
697.738	3681.57
697.927	3716.38
698.116	3712.28
698.305	3796.25
698.494	3783.96
698.683	3743
698.872	3802.4
699.061	3716.38
699.25	3773.72
699.438	3751.2
699.627	3847.45
699.816	3986.71
700.005	3812.64
700.193	3814.68
700.382	3972.38
700.571	3783.96
700.76	3839.26
700.948	3843.35
701.137	3919.13
701.326	3972.38
701.514	3761.44
701.703	3884.31
701.892	3751.2
702.08	3937.56
702.269	4017.43
702.457	3839.26
702.646	3980.57
702.834	3882.27
703.023	3990.81
703.212	3915.03
703.4	4039.96
703.589	3826.97
703.777	4128.02
703.965	3904.79
704.154	3947.8
704.342	4033.82
704.531	4021.53
704.719	3951.9
704.907	4177.17
705.096	3925.27
705.284	3890.46
705.472	3933.47
705.661	3982.62
705.849	3910.94
706.037	3910.94
706.226	4037.91
706.414	4068.63
706.602	3994.9
706.79	4029.72
706.979	3978.52
707.167	4146.45
707.355	3964.18
707.543	4105.49
707.731	4052.25
707.919	4128.02
708.107	4023.58
708.296	4062.49
708.484	3986.71
708.672	4097.3
708.86	4119.83
709.048	4097.3
709.236	4103.45
709.424	4222.23
709.612	4216.09
709.8	4099.35
709.988	3982.62
710.176	4191.51
710.364	3949.85
710.551	4056.34
710.739	4158.74
710.927	4044.06
711.115	4166.93
711.303	4095.25
711.491	4003.1
711.679	4054.3
711.866	4207.89
712.054	4128.02
712.242	4181.27
712.43	4160.79
712.617	4056.34
712.805	4287.76
712.993	4023.58
713.181	4068.63
713.368	4115.73
713.556	4144.41
713.744	4080.92
713.931	4373.78
714.119	4183.32
714.306	4246.8
714.494	4099.35
714.682	4166.93
714.869	4097.3
715.057	4037.91
715.244	3923.23
715.432	4332.82
715.619	4179.22
715.807	4220.18
715.994	4136.21
716.182	4085.02
716.369	4171.03
716.556	4341.01
716.744	4056.34
716.931	4060.44
717.119	4132.12
717.306	3951.9
717.493	4136.21
717.681	4056.34
717.868	3955.99
718.055	4228.37
718.242	4109.59
718.43	4152.6
718.617	4148.5
718.804	3927.32
718.991	4089.11
719.179	4193.56
719.366	3960.09
719.553	4080.92
719.74	3994.9
719.927	4017.43
720.114	4142.36
720.301	4148.5
720.488	4076.82
720.676	4078.87
720.863	4138.26
721.05	4164.89
721.237	4117.78
721.424	4039.96
721.611	4109.59
721.798	4087.06
721.985	4015.38
722.172	3906.84
722.358	4017.43
722.545	4271.38
722.732	3955.99
722.919	4025.62
723.106	3968.28
723.293	4220.18
723.48	4011.29
723.667	3980.57
723.853	3970.33
724.04	3931.42
724.227	4052.25
724.414	4140.31
724.6	3861.79
724.787	3925.27
724.974	3925.27
725.161	3851.55
725.347	3863.83
725.534	3986.71
725.72	4023.58
725.907	4062.49
726.094	4003.1
726.28	4009.24
726.467	3847.45
726.653	3917.08
726.84	3996.95
727.027	4052.25
727.213	3884.31
727.4	4003.1
727.586	3902.75
727.773	3939.61
727.959	3945.75
728.145	3925.27
728.332	3777.82
728.518	4023.58
728.705	3882.27
728.891	3915.03
729.077	3753.24
729.264	3837.21
729.45	3849.5
729.636	3857.69
729.823	3872.03
730.009	3966.23
730.195	3892.51
730.382	3876.12
730.568	3783.96
730.754	3908.89
730.94	3822.88
731.126	3829.02
731.313	3794.2
731.499	3716.38
731.685	3710.24
731.871	3831.07
732.057	3800.35
732.243	3775.77
732.429	3745.05
732.615	3835.16
732.801	3800.35
732.987	3702.04
733.173	3620.13
733.359	3554.59
733.545	3747.1
733.731	3716.38
733.917	3763.48
734.103	3753.24
734.289	3745.05
734.475	3685.66
734.661	3779.87
734.847	3589.41
735.033	3605.79
735.219	3714.33
735.404	3591.45
735.59	3558.69
735.776	3566.88
735.962	3661.09
736.148	3626.27
736.333	3609.89
736.519	3730.72
736.705	3509.54
736.89	3558.69
737.076	3511.58
737.262	3464.48
737.447	3382.56
737.633	3452.19
737.819	3390.75
738.004	3394.85
738.19	3355.94
738.375	3456.29
738.561	3577.12
738.747	3470.62
738.932	3425.57
739.118	3452.19
739.303	3325.22
739.489	3421.47
739.674	3255.59
739.859	3319.07
740.045	3384.61
740.23	3351.84
740.416	3175.72
740.601	3409.19
740.786	3384.61
740.972	3149.09
741.157	3247.4
741.342	3341.6
741.528	3200.29
741.713	3302.69
741.898	3228.96
742.084	3237.16
742.269	3235.11
742.454	3241.25
742.639	3220.77
742.824	3122.47
743.01	3079.46
743.195	3206.44
743.38	3224.87
743.565	3216.68
743.75	3079.46
743.935	3079.46
744.12	3149.09
744.305	3013.93
744.49	3042.6
744.675	3128.61
744.86	2905.39
745.045	2934.06
745.23	3032.36
745.415	3048.74
745.6	2989.35
745.785	2927.91
745.97	2870.57
746.155	2934.06
746.34	2995.5
746.525	2794.79
746.71	2917.67
746.895	2727.21
747.079	2649.39
747.264	2772.27
747.449	2762.03
747.634	2729.26
747.819	2628.91
748.003	2729.26
748.188	2764.08
748.373	2657.58
748.557	2714.92
748.742	2651.44
748.927	2690.35
749.111	2555.18
749.296	2604.33
749.481	2583.85
749.665	2520.37
749.85	2481.46
750.034	2698.54
750.219	2452.78
750.404	2467.12
750.588	2577.71
750.773	2364.72
750.957	2522.41
751.141	2436.4
751.326	2430.26
751.51	2340.15
751.695	2383.15
751.879	2415.92
752.064	2417.97
752.248	2329.91
752.432	2342.19
752.617	2360.63
752.801	2274.61
752.985	2243.89
753.17	2305.33
753.354	2383.15
753.538	2299.19
753.722	2221.36
753.907	2194.74
754.091	2059.57
754.275	2227.51
754.459	2204.98
754.643	2006.33
754.828	2112.82
755.012	2149.68
755.196	2104.63
755.38	2057.53
755.564	1961.27
755.748	2061.62
755.932	2014.52
756.116	2041.14
756.3	1975.61
756.484	2014.52
756.668	1930.55
756.852	1889.59
757.036	1951.03
757.22	2004.28
757.404	1860.92
757.588	1754.43
757.772	1903.93
757.956	1854.78
758.14	1959.22
758.323	1885.5
758.507	1836.35
758.691	1748.28
758.875	1924.41
759.059	1901.88
759.242	1738.04
759.426	1809.72
759.61	1795.39
759.794	1846.59
759.977	1828.15
760.161	1862.97
760.345	1770.81
760.528	1772.86
760.712	1752.38
760.895	1738.04
761.079	1715.52
761.263	1723.71
761.446	1738.04
761.63	1768.76
761.813	1643.84
761.997	1668.41
762.18	1664.32
762.364	1725.75
762.547	1525.05
762.731	1457.47
762.914	1588.54
763.098	1535.29
763.281	1561.92
763.464	1604.92
763.648	1627.45
763.831	1555.77
764.015	1678.65
764.198	1572.16
764.381	1547.58
764.564	1600.83
764.748	1590.59
764.931	1555.77
765.114	1533.25
765.297	1588.54
765.481	1432.9
765.664	1484.09
765.847	1490.24
766.03	1611.07
766.213	1523.01
766.397	1529.15
766.58	1453.38
766.763	1551.68
766.946	1443.14
767.129	1508.67
767.312	1488.19
767.495	1531.2
767.678	1451.33
767.861	1471.81
768.044	1541.44
768.227	1518.91
768.41	1369.41
768.593	1471.81
768.776	1553.73
768.959	1328.45
769.142	1514.81
769.324	1465.66
769.507	1348.93
769.69	1224
769.873	1379.65
770.056	1480
770.239	1451.33
770.421	1391.94
770.604	1416.51
770.787	1406.27
770.97	1404.22
771.152	1422.66
771.335	1361.22
771.518	1316.16
771.7	1287.49
771.883	1328.45
772.066	1244.48
772.248	1224
772.431	1318.21
772.613	1334.59
772.796	1213.76
772.978	1219.91
773.161	1260.87
773.343	1160.52
773.526	1281.35
773.708	1158.47
773.891	1156.42
774.073	1158.47
774.256	1240.39
774.438	1228.1
774.621	1178.95
774.803	1189.19
774.985	1137.99
775.168	1176.9
775.35	1164.61
775.532	1287.49
775.715	1195.33
775.897	1137.99
776.079	1150.28
776.261	1148.23
776.444	1197.38
776.626	1178.95
776.808	1090.88
776.99	1033.54
777.173	1121.6
777.355	1070.4
777.537	1068.36
777.719	1086.79
777.901	1000.77
778.083	941.38
778.265	972.1
778.447	1117.51
778.629	1080.64
778.811	1086.79
778.993	982.34
779.175	1025.35
779.357	1058.12
779.539	922.95
779.721	949.57
779.903	1090.88
780.085	963.91
780.267	976.2
780.449	951.62
780.631	1078.6
780.812	1068.36
780.994	978.25
781.176	808.27
781.358	927.05
781.54	949.57
781.721	896.33
781.903	908.62
782.085	1011.01
782.267	808.27
782.448	802.12
782.63	718.15
782.812	908.62
782.993	798.03
783.175	818.5
783.357	873.8
783.538	853.32
783.72	789.83
783.901	841.03
784.083	804.17
784.264	800.07
784.446	759.11
784.627	626
784.809	765.26
784.99	775.5
785.172	810.31
785.353	699.72
785.535	736.59
785.716	638.28
785.897	705.87
786.079	748.87
786.26	693.58
786.441	734.54
786.623	722.25
786.804	572.75
786.985	755.02
787.167	671.05
787.348	673.1
787.529	646.48
787.71	783.69
787.891	699.72
788.073	742.73
788.254	679.24
788.435	724.3
788.616	611.66
788.797	589.13
788.978	609.61
789.159	619.85
789.34	765.26
789.522	669
789.703	626
789.884	673.1
790.065	621.9
790.246	644.43
790.427	560.46
790.607	703.82
790.788	697.67
790.969	515.41
791.15	576.84
791.331	505.17
791.512	533.84
791.693	611.66
791.874	574.8
792.054	617.8
792.235	566.6
792.416	527.69
792.597	521.55
792.778	568.65
792.958	542.03
793.139	515.41
793.32	568.65
793.5	441.68
793.681	630.09
793.862	550.22
794.042	525.65
794.223	396.62
794.404	556.36
794.584	367.95
794.765	525.65
794.945	539.98
795.126	552.27
795.306	550.22
795.487	501.07
795.667	445.77
795.848	464.21
796.028	388.43
796.209	458.06
796.389	550.22
796.57	480.59
796.75	494.93
796.93	472.4
797.111	433.49
797.291	464.21
797.471	499.02
797.652	406.86
797.832	456.01
798.012	529.74
798.192	419.15
798.373	396.62
798.553	382.29
798.733	443.73
798.913	398.67
799.093	341.33
799.274	456.01
799.454	410.96
799.634	415.06
799.814	437.58
799.994	496.97
800.174	365.9
800.354	382.29
800.534	363.86
800.714	519.5
800.894	374.1
801.074	415.06
801.254	343.38
801.434	445.77
801.614	402.77
801.794	415.06
801.974	1469.76
802.154	333.14
802.334	388.43
802.514	277.84
802.693	288.08
802.873	314.7
803.053	458.06
803.233	331.09
803.413	329.04
803.592	406.86
803.772	349.52
803.952	288.08
804.131	322.9
804.311	306.51
804.491	357.71
804.67	347.47
804.85	292.18
805.03	394.58
805.209	324.94
805.389	308.56
805.568	333.14
805.748	275.79
805.928	337.23
806.107	245.07
806.287	361.81
806.466	343.38
806.646	253.27
806.825	304.46
807.004	310.61
807.184	232.79
807.363	308.56
807.543	324.94
807.722	269.65
807.901	314.7
808.081	320.85
808.26	212.31
808.439	300.37
808.619	302.42
808.798	224.59
808.977	255.31
809.156	331.09
809.336	329.04
809.515	286.03
809.694	167.25
809.873	281.94
810.052	288.08
810.231	333.14
810.411	312.66
810.59	349.52
810.769	353.62
810.948	234.83
811.127	177.49
811.306	210.26
811.485	251.22
811.664	456.01
811.843	247.12
812.022	177.49
812.201	208.21
812.38	273.75
812.559	271.7
812.737	290.13
812.916	218.45
813.095	238.93
813.274	263.51
813.453	206.16
813.632	222.55
813.811	290.13
813.989	189.78
814.168	310.61
814.347	183.63
814.526	185.68
814.704	222.55
814.883	333.14
815.062	195.92
815.24	259.41
815.419	263.51
815.598	253.27
815.776	173.39
815.955	179.54
816.133	169.3
816.312	245.07
816.49	193.87
816.669	281.94
816.847	275.79
817.026	263.51
817.204	173.39
817.383	249.17
817.561	152.91
817.74	222.55
817.918	261.46
818.097	286.03
818.275	232.79
818.453	222.55
818.632	177.49
818.81	216.4
818.988	191.83
819.167	224.59
819.345	206.16
819.523	159.06
819.701	118.1
819.879	189.78
820.058	226.64
820.236	261.46
820.414	142.68
820.592	183.63
820.77	255.31
820.948	179.54
821.127	136.53
821.305	197.97
821.483	189.78
821.661	195.92
821.839	214.35
822.017	140.63
822.195	169.3
822.373	177.49
822.551	144.72
822.729	204.11
822.907	118.1
823.085	232.79
823.262	122.2
823.44	169.3
823.618	171.35
823.796	230.74
823.974	148.82
824.152	120.15
824.329	187.73
824.507	183.63
824.685	191.83
824.863	161.11
825.04	122.2
825.218	169.3
825.396	185.68
825.574	234.83
825.751	81.24
825.929	136.53
826.107	91.48
826.284	183.63
826.462	243.03
826.639	75.09
826.817	124.24
826.994	197.97
827.172	136.53
827.349	216.4
827.527	206.16
827.704	169.3
827.882	226.64
828.059	144.72
828.237	150.87
828.414	140.63
828.591	54.61
828.769	150.87
828.946	97.62
829.124	191.83
829.301	173.39
829.478	122.2
829.655	152.91
829.833	95.57
830.01	148.82
830.187	132.44
830.364	185.68
830.542	173.39
830.719	103.76
830.896	79.19
831.073	109.91
831.25	138.58
831.427	136.53
831.604	210.26
831.782	66.9
831.959	206.16
832.136	167.25
832.313	103.76
832.49	30.04
832.667	130.39
832.844	66.9
833.021	179.54
833.198	126.29
833.374	101.72
833.551	23.89
833.728	75.09
833.905	154.96
834.082	58.71
834.259	132.44
834.436	202.07
834.612	144.72
834.789	197.97
834.966	27.99
835.143	130.39
835.319	36.18
835.496	167.25
835.673	140.63
835.85	154.96
836.026	93.52
836.203	193.87
836.38	62.8
836.556	124.24
836.733	40.28
836.909	144.72
837.086	38.23
837.262	40.28
837.439	126.29
837.616	130.39
837.792	103.76
837.968	60.76
838.145	25.94
838.321	111.96
838.498	62.8
838.674	83.28
838.851	56.66
839.027	97.62
839.203	83.28
839.38	83.28
839.556	89.43
839.732	132.44
839.909	21.85
840.085	126.29
840.261	103.76
840.437	101.72
840.614	83.28
840.79	140.63
840.966	183.63
841.142	91.48
841.318	79.19
841.494	77.14
841.671	136.53
841.847	32.08
842.023	161.11
842.199	132.44
842.375	103.76
842.551	-0.68
842.727	9.56
842.903	183.63
843.079	68.95
843.255	144.72
843.431	101.72
843.607	138.58
843.783	89.43
843.959	68.95
844.134	32.08
844.31	171.35
844.486	19.8
844.662	89.43
844.838	7.51
845.013	120.15
845.189	42.32
845.365	75.09
845.541	126.29
845.716	95.57
845.892	103.76
846.068	97.62
846.244	56.66
846.419	85.33
846.595	42.32
846.77	71
846.946	101.72
847.122	83.28
847.297	163.15
847.473	136.53
847.648	21.85
847.824	50.52
847.999	9.56
848.175	73.04
848.35	73.04
848.526	179.54
848.701	77.14
848.876	87.38
849.052	167.25
849.227	87.38
849.403	101.72
849.578	79.19
849.753	75.09
849.929	130.39
850.104	23.89
850.279	103.76
850.454	109.91
850.63	93.52
850.805	136.53
850.98	13.65
851.155	19.8
851.33	120.15
851.505	21.85
851.681	89.43
851.856	97.62
852.031	103.76
852.206	132.44
852.381	34.13
852.556	32.08
852.731	62.8
852.906	120.15
853.081	68.95
853.256	101.72
853.431	1.37
853.606	3.41
853.781	83.28
853.956	-15.02
854.131	75.09
854.305	42.32
854.48	-4.78
854.655	-51.88
854.83	13.65
855.005	11.61
855.18	58.71
855.354	124.24
855.529	71
855.704	138.58
855.879	-4.78
856.053	5.46
856.228	124.24
856.403	-33.45
856.577	91.48
856.752	-0.68
856.926	79.19
857.101	111.96
857.276	81.24
857.45	48.47
857.625	77.14
857.799	75.09
857.974	40.28
858.148	-55.98
858.323	11.61
858.497	48.47
858.672	60.76
858.846	-4.78
859.02	30.04
859.195	54.61
859.369	101.72
859.543	68.95
859.718	66.9
859.892	89.43
860.066	46.42
860.241	-29.35
860.415	38.23
860.589	73.04
860.763	34.13
860.938	79.19
861.112	132.44
861.286	71
861.46	64.85
861.634	107.86
861.808	56.66
861.982	-64.17
862.157	17.75
862.331	11.61
862.505	-6.83
862.679	25.94
862.853	56.66
863.027	48.47
863.201	126.29
863.375	15.7
863.549	34.13
863.722	30.04
863.896	36.18
864.07	54.61
864.244	50.52
864.418	126.29
864.592	83.28
864.766	68.95
864.939	15.7
865.113	73.04
865.287	134.48
865.461	52.56
865.634	-10.92
865.808	48.47
865.982	-25.26
866.156	-6.83
866.329	58.71
866.503	27.99
866.676	81.24
866.85	38.23
867.024	-51.88
867.197	64.85
867.371	27.99
867.544	103.76
867.718	1.37
867.891	56.66
868.065	36.18
868.238	87.38
868.412	66.9
868.585	-29.35
868.759	52.56
868.932	85.33
869.105	-4.78
869.279	36.18
869.452	7.51
869.625	71
869.799	54.61
869.972	75.09
870.145	42.32
870.319	62.8
870.492	17.75
870.665	-33.45
870.838	109.91
871.011	-2.73
871.185	40.28
871.358	-27.31
871.531	46.42
871.704	105.81
871.877	62.8
872.05	50.52
872.223	-21.16
872.396	36.18
872.569	-4.78
872.742	52.56
872.915	-33.45
873.088	32.08
873.261	25.94
873.434	126.29
873.607	30.04
873.78	77.14
873.953	-33.45
874.126	19.8
874.299	83.28
874.471	-23.21
874.644	23.89
874.817	-27.31
874.99	126.29
875.163	68.95
875.335	-27.31
875.508	124.24
875.681	27.99
875.853	5.46
876.026	-23.21
876.199	93.52
876.371	9.56
876.544	68.95
876.717	-2.73
876.889	97.62
877.062	73.04
877.234	-29.35
877.407	56.66
877.579	71
877.752	34.13
877.924	79.19
878.097	73.04
878.269	23.89
878.442	21.85
878.614	30.04
878.786	40.28
878.959	52.56
879.131	17.75
879.303	-41.64
879.476	52.56
879.648	62.8
879.82	15.7
879.993	-62.12
880.165	30.04
880.337	27.99
880.509	75.09
880.681	34.13
880.854	44.37
881.026	19.8
881.198	169.3
881.37	-23.21
881.542	13.65
881.714	54.61
881.886	-6.83
882.058	34.13
882.23	11.61
882.402	-0.68
882.574	52.56
882.746	111.96
882.918	83.28
883.09	13.65
883.262	50.52
883.434	-21.16
883.606	-12.97
883.778	-8.87
883.95	107.86
884.122	-25.26
884.293	62.8
884.465	44.37
884.637	71
884.809	-19.11
884.98	79.19
885.152	58.71
885.324	17.75
885.496	-64.17
885.667	64.85
885.839	58.71
886.011	54.61
886.182	54.61
886.354	64.85
886.525	25.94
886.697	34.13
886.869	-35.5
887.04	46.42
887.212	42.32
887.383	103.76
887.555	66.9
887.726	15.7
887.897	-60.07
888.069	17.75
888.24	19.8
888.412	-43.69
888.583	38.23
888.754	9.56
888.926	7.51
889.097	52.56
889.268	-10.92
889.44	5.46
889.611	5.46
889.782	-60.07
889.953	38.23
890.125	79.19
890.296	-66.22
890.467	-23.21
890.638	23.89
890.809	60.76
890.98	-35.5
891.151	32.08
891.323	48.47
891.494	81.24
891.665	-8.87
891.836	40.28
892.007	66.9
892.178	46.42
892.349	11.61
892.52	-125.61
892.691	68.95
892.862	-2.73
893.032	13.65
893.203	-76.46
893.374	-23.21
893.545	34.13
893.716	-19.11
893.887	101.72
894.057	46.42
894.228	91.48
894.399	-27.31
894.57	3.41
894.74	9.56
894.911	58.71
895.082	-90.79
895.253	15.7
895.423	40.28
895.594	56.66
895.764	42.32
895.935	48.47
896.106	30.04
896.276	62.8
896.447	32.08
896.617	66.9
896.788	-72.36
896.958	9.56
897.129	-37.55
897.299	-33.45
897.47	85.33
897.64	46.42
897.81	-27.31
897.981	30.04
898.151	-15.02
898.322	64.85
898.492	-0.68
898.662	-49.83
898.832	-33.45
899.003	58.71
899.173	-6.83
899.343	54.61
899.513	-43.69
