Data from USB4F104151__27__12-00-37-612.txt Node

Date: Fri Mar 14 12:00:37 EDT 2025
User: louis
Spectrometer: USB4F10415
Trigger mode: 4
Integration Time (sec): 2.000000E-2
Scans to average: 1
Electric dark correction enabled: true
Nonlinearity correction enabled: false
Boxcar width: 0
XAxis mode: Wavelengths
Number of Pixels in Spectrum: 3648
>>>>>Begin Spectral Data<<<<<
178.204	-54.95
178.424	-54.95
178.644	-54.95
178.864	-151.21
179.084	-106.15
179.304	-18.09
179.524	-52.91
179.744	47.44
179.964	29.01
180.184	2.39
180.404	65.88
180.624	-46.76
180.844	43.35
181.064	-61.1
181.283	47.44
181.503	-54.95
181.723	-1.71
181.943	-13.99
182.163	35.16
182.383	-13.99
182.602	-26.28
182.822	57.68
183.042	41.3
183.262	8.53
183.482	18.77
183.701	41.3
183.921	47.44
184.141	8.53
184.361	55.64
184.58	-50.86
184.8	57.68
185.02	12.63
185.239	80.21
185.459	-7.85
185.679	51.54
185.898	-1.71
186.118	31.06
186.338	41.3
186.557	63.83
186.777	67.92
186.997	2.39
187.216	-5.8
187.436	37.2
187.655	26.96
187.875	104.79
188.095	57.68
188.314	14.68
188.534	41.3
188.753	47.44
188.973	8.53
189.192	100.69
189.412	39.25
189.631	61.78
189.851	57.68
190.07	24.92
190.29	8.53
190.509	20.82
190.729	26.96
190.948	20.82
191.168	59.73
191.387	33.11
191.607	20.82
191.826	-28.33
192.045	-18.09
192.265	37.2
192.484	-7.85
192.704	55.64
192.923	-50.86
193.142	131.41
193.362	0.34
193.581	-30.38
193.8	2.39
194.02	39.25
194.239	67.92
194.458	43.35
194.678	33.11
194.897	31.06
195.116	-20.14
195.335	6.49
195.555	57.68
195.774	47.44
195.993	22.87
196.212	29.01
196.432	4.44
196.651	-1.71
196.87	-1.71
197.089	98.64
197.308	-36.52
197.528	67.92
197.747	-52.91
197.966	-5.8
198.185	94.55
198.404	96.6
198.623	49.49
198.842	22.87
199.062	31.06
199.281	24.92
199.5	-16.04
199.719	18.77
199.938	-34.47
200.157	78.16
200.376	33.11
200.595	39.25
200.814	41.3
201.033	41.3
201.252	-11.95
201.471	35.16
201.69	8.53
201.909	102.74
202.128	-1.71
202.347	10.58
202.566	4.44
202.785	4.44
203.004	69.97
203.223	88.4
203.442	16.73
203.661	43.35
203.879	74.07
204.098	16.73
204.317	-44.71
204.536	53.59
204.755	12.63
204.974	14.68
205.193	-34.47
205.411	74.07
205.63	74.07
205.849	69.97
206.068	4.44
206.287	55.64
206.505	-7.85
206.724	-20.14
206.943	-24.23
207.162	-42.67
207.381	-30.38
207.599	82.26
207.818	-36.52
208.037	37.2
208.255	55.64
208.474	26.96
208.693	59.73
208.911	33.11
209.13	57.68
209.349	106.84
209.567	72.02
209.786	51.54
210.005	65.88
210.223	33.11
210.442	-16.04
210.661	26.96
210.879	31.06
211.098	33.11
211.316	49.49
211.535	-11.95
211.753	4.44
211.972	67.92
212.191	-26.28
212.409	18.77
212.628	4.44
212.846	-24.23
213.065	18.77
213.283	82.26
213.502	24.92
213.72	12.63
213.938	65.88
214.157	-42.67
214.375	8.53
214.594	12.63
214.812	63.83
215.031	53.59
215.249	-7.85
215.467	37.2
215.686	49.49
215.904	74.07
216.122	22.87
216.341	112.98
216.559	49.49
216.778	35.16
216.996	-1.71
217.214	45.4
217.432	-18.09
217.651	6.49
217.869	12.63
218.087	-13.99
218.306	41.3
218.524	29.01
218.742	-30.38
218.96	55.64
219.179	51.54
219.397	18.77
219.615	61.78
219.833	4.44
220.051	-7.85
220.27	153.94
220.488	18.77
220.706	61.78
220.924	6.49
221.142	-24.23
221.36	31.06
221.578	-16.04
221.796	2.39
222.015	67.92
222.233	74.07
222.451	53.59
222.669	29.01
222.887	14.68
223.105	-5.8
223.323	-3.75
223.541	41.3
223.759	100.69
223.977	-30.38
224.195	51.54
224.413	74.07
224.631	61.78
224.849	8.53
225.067	43.35
225.285	14.68
225.503	69.97
225.721	16.73
225.939	0.34
226.157	18.77
226.375	92.5
226.592	24.92
226.81	49.49
227.028	53.59
227.246	49.49
227.464	-3.75
227.682	55.64
227.9	33.11
228.117	37.2
228.335	55.64
228.553	24.92
228.771	53.59
228.989	26.96
229.206	53.59
229.424	-5.8
229.642	45.4
229.86	10.58
230.077	61.78
230.295	6.49
230.513	0.34
230.731	74.07
230.948	31.06
231.166	110.93
231.384	-16.04
231.601	-18.09
231.819	84.31
232.037	14.68
232.254	110.93
232.472	-26.28
232.689	24.92
232.907	98.64
233.125	14.68
233.342	29.01
233.56	-16.04
233.777	92.5
233.995	41.3
234.213	39.25
234.43	96.6
234.648	26.96
234.865	-5.8
235.083	26.96
235.3	29.01
235.518	80.21
235.735	129.36
235.953	-34.47
236.17	51.54
236.388	49.49
236.605	-18.09
236.822	14.68
237.04	37.2
237.257	117.08
237.475	8.53
237.692	29.01
237.909	72.02
238.127	43.35
238.344	10.58
238.562	69.97
238.779	-44.71
238.996	-5.8
239.214	-18.09
239.431	4.44
239.648	4.44
239.865	55.64
240.083	22.87
240.3	51.54
240.517	51.54
240.735	94.55
240.952	72.02
241.169	94.55
241.386	43.35
241.603	31.06
241.821	-13.99
242.038	59.73
242.255	63.83
242.472	16.73
242.689	102.74
242.907	49.49
243.124	-69.29
243.341	18.77
243.558	35.16
243.775	-18.09
243.992	-46.76
244.209	51.54
244.426	74.07
244.643	80.21
244.86	45.4
245.078	117.08
245.295	57.68
245.512	22.87
245.729	16.73
245.946	45.4
246.163	22.87
246.38	-40.62
246.597	-50.86
246.814	29.01
247.031	51.54
247.248	29.01
247.464	14.68
247.681	14.68
247.898	47.44
248.115	33.11
248.332	37.2
248.549	29.01
248.766	92.5
248.983	33.11
249.2	0.34
249.417	8.53
249.633	-20.14
249.85	31.06
250.067	4.44
250.284	18.77
250.501	63.83
250.717	76.12
250.934	57.68
251.151	8.53
251.368	78.16
251.585	78.16
251.801	100.69
252.018	-24.23
252.235	43.35
252.451	-13.99
252.668	12.63
252.885	76.12
253.102	78.16
253.318	14.68
253.535	100.69
253.752	31.06
253.968	6.49
254.185	39.25
254.401	57.68
254.618	47.44
254.835	18.77
255.051	57.68
255.268	45.4
255.484	84.31
255.701	10.58
255.917	22.87
256.134	35.16
256.351	72.02
256.567	-9.9
256.784	14.68
257	14.68
257.217	43.35
257.433	78.16
257.65	61.78
257.866	82.26
258.082	26.96
258.299	6.49
258.515	49.49
258.732	59.73
258.948	-20.14
259.165	-24.23
259.381	-52.91
259.597	47.44
259.814	-1.71
260.03	-7.85
260.246	112.98
260.463	2.39
260.679	51.54
260.895	35.16
261.112	53.59
261.328	18.77
261.544	67.92
261.761	102.74
261.977	41.3
262.193	123.22
262.409	78.16
262.626	37.2
262.842	26.96
263.058	-57
263.274	26.96
263.49	-57
263.707	31.06
263.923	86.36
264.139	-59.05
264.355	-1.71
264.571	35.16
264.787	78.16
265.004	98.64
265.22	22.87
265.436	78.16
265.652	43.35
265.868	53.59
266.084	29.01
266.3	96.6
266.516	-32.43
266.732	53.59
266.948	8.53
267.164	26.96
267.38	20.82
267.596	20.82
267.812	35.16
268.028	26.96
268.244	74.07
268.46	47.44
268.676	-22.19
268.892	123.22
269.108	61.78
269.324	96.6
269.54	-3.75
269.756	-7.85
269.972	18.77
270.188	51.54
270.403	-24.23
270.619	65.88
270.835	94.55
271.051	-5.8
271.267	-1.71
271.483	-20.14
271.698	76.12
271.914	57.68
272.13	86.36
272.346	45.4
272.562	-28.33
272.777	55.64
272.993	-11.95
273.209	61.78
273.425	2.39
273.64	-24.23
273.856	31.06
274.072	43.35
274.287	10.58
274.503	12.63
274.719	33.11
274.934	78.16
275.15	49.49
275.366	86.36
275.581	59.73
275.797	14.68
276.012	-16.04
276.228	33.11
276.444	8.53
276.659	33.11
276.875	18.77
277.09	88.4
277.306	53.59
277.521	12.63
277.737	-52.91
277.952	67.92
278.168	100.69
278.383	53.59
278.599	0.34
278.814	49.49
279.03	0.34
279.245	57.68
279.461	20.82
279.676	10.58
279.892	49.49
280.107	-3.75
280.322	61.78
280.538	69.97
280.753	88.4
280.969	-18.09
281.184	18.77
281.399	57.68
281.615	69.97
281.83	24.92
282.045	0.34
282.26	24.92
282.476	100.69
282.691	80.21
282.906	37.2
283.122	121.17
283.337	-3.75
283.552	57.68
283.767	53.59
283.983	-20.14
284.198	43.35
284.413	31.06
284.628	-85.67
284.843	49.49
285.058	72.02
285.274	41.3
285.489	-16.04
285.704	102.74
285.919	84.31
286.134	65.88
286.349	117.08
286.564	-7.85
286.779	82.26
286.995	14.68
287.21	26.96
287.425	12.63
287.64	2.39
287.855	45.4
288.07	76.12
288.285	0.34
288.5	96.6
288.715	33.11
288.93	39.25
289.145	10.58
289.36	61.78
289.575	-9.9
289.79	125.27
290.004	37.2
290.219	104.79
290.434	35.16
290.649	160.08
290.864	55.64
291.079	41.3
291.294	72.02
291.509	67.92
291.724	104.79
291.938	24.92
292.153	45.4
292.368	22.87
292.583	12.63
292.798	57.68
293.012	35.16
293.227	24.92
293.442	57.68
293.657	61.78
293.871	12.63
294.086	37.2
294.301	117.08
294.516	-9.9
294.73	98.64
294.945	18.77
295.16	-40.62
295.374	10.58
295.589	20.82
295.804	-7.85
296.018	55.64
296.233	41.3
296.447	2.39
296.662	74.07
296.877	80.21
297.091	2.39
297.306	80.21
297.52	14.68
297.735	22.87
297.949	16.73
298.164	53.59
298.378	53.59
298.593	-1.71
298.807	22.87
299.022	-20.14
299.236	133.46
299.451	45.4
299.665	18.77
299.88	82.26
300.094	72.02
300.309	63.83
300.523	67.92
300.737	39.25
300.952	57.68
301.166	31.06
301.381	-48.81
301.595	18.77
301.809	4.44
302.024	26.96
302.238	-42.67
302.452	69.97
302.667	6.49
302.881	22.87
303.095	26.96
303.309	-7.85
303.524	-18.09
303.738	31.06
303.952	51.54
304.166	45.4
304.381	-73.39
304.595	76.12
304.809	4.44
305.023	-3.75
305.237	131.41
305.452	31.06
305.666	106.84
305.88	98.64
306.094	47.44
306.308	-54.95
306.522	80.21
306.736	24.92
306.95	-36.52
307.164	18.77
307.379	123.22
307.593	47.44
307.807	33.11
308.021	57.68
308.235	22.87
308.449	-7.85
308.663	59.73
308.877	127.32
309.091	24.92
309.305	55.64
309.519	47.44
309.733	49.49
309.947	47.44
310.161	39.25
310.374	88.4
310.588	94.55
310.802	8.53
311.016	55.64
311.23	65.88
311.444	-26.28
311.658	18.77
311.872	0.34
312.085	67.92
312.299	104.79
312.513	53.59
312.727	88.4
312.941	43.35
313.154	110.93
313.368	65.88
313.582	22.87
313.796	29.01
314.009	0.34
314.223	10.58
314.437	37.2
314.651	76.12
314.864	57.68
315.078	57.68
315.292	63.83
315.505	69.97
315.719	78.16
315.933	43.35
316.146	18.77
316.36	22.87
316.573	18.77
316.787	59.73
317.001	106.84
317.214	102.74
317.428	55.64
317.641	82.26
317.855	57.68
318.068	51.54
318.282	33.11
318.495	39.25
318.709	6.49
318.922	12.63
319.136	35.16
319.349	8.53
319.563	90.45
319.776	45.4
319.99	33.11
320.203	41.3
320.417	100.69
320.63	119.12
320.843	143.7
321.057	-36.52
321.27	63.83
321.483	74.07
321.697	104.79
321.91	92.5
322.124	18.77
322.337	98.64
322.55	41.3
322.763	-7.85
322.977	2.39
323.19	-42.67
323.403	41.3
323.617	-7.85
323.83	39.25
324.043	108.88
324.256	61.78
324.469	49.49
324.683	18.77
324.896	24.92
325.109	31.06
325.322	39.25
325.535	41.3
325.748	51.54
325.962	61.78
326.175	31.06
326.388	98.64
326.601	39.25
326.814	49.49
327.027	76.12
327.24	4.44
327.453	90.45
327.666	29.01
327.879	86.36
328.092	72.02
328.305	35.16
328.518	24.92
328.731	82.26
328.944	41.3
329.157	53.59
329.37	20.82
329.583	41.3
329.796	-13.99
330.009	6.49
330.222	90.45
330.435	33.11
330.648	26.96
330.861	74.07
331.073	76.12
331.286	41.3
331.499	-42.67
331.712	0.34
331.925	74.07
332.138	-5.8
332.35	147.8
332.563	2.39
332.776	121.17
332.989	24.92
333.202	-38.57
333.414	-38.57
333.627	26.96
333.84	29.01
334.053	16.73
334.265	53.59
334.478	24.92
334.691	37.2
334.903	4.44
335.116	53.59
335.329	104.79
335.541	-26.28
335.754	33.11
335.966	76.12
336.179	61.78
336.392	10.58
336.604	8.53
336.817	88.4
337.029	76.12
337.242	20.82
337.454	102.74
337.667	45.4
337.88	14.68
338.092	26.96
338.305	72.02
338.517	53.59
338.729	63.83
338.942	59.73
339.154	43.35
339.367	41.3
339.579	67.92
339.792	-36.52
340.004	82.26
340.217	39.25
340.429	39.25
340.641	-26.28
340.854	82.26
341.066	51.54
341.278	72.02
341.491	100.69
341.703	0.34
341.915	39.25
342.128	106.84
342.34	74.07
342.552	59.73
342.764	-9.9
342.977	74.07
343.189	67.92
343.401	-11.95
343.613	14.68
343.826	29.01
344.038	-11.95
344.25	-9.9
344.462	-20.14
344.674	82.26
344.886	82.26
345.099	-16.04
345.311	76.12
345.523	55.64
345.735	6.49
345.947	4.44
346.159	20.82
346.371	31.06
346.583	53.59
346.795	145.75
347.007	72.02
347.219	149.84
347.431	20.82
347.643	65.88
347.855	90.45
348.067	96.6
348.279	117.08
348.491	57.68
348.703	57.68
348.915	86.36
349.127	63.83
349.339	43.35
349.551	55.64
349.763	51.54
349.975	67.92
350.187	106.84
350.399	67.92
350.61	65.88
350.822	6.49
351.034	61.78
351.246	88.4
351.458	82.26
351.669	110.93
351.881	-28.33
352.093	80.21
352.305	47.44
352.517	80.21
352.728	53.59
352.94	98.64
353.152	6.49
353.363	49.49
353.575	131.41
353.787	55.64
353.999	98.64
354.21	51.54
354.422	31.06
354.633	31.06
354.845	108.88
355.057	98.64
355.268	86.36
355.48	37.2
355.692	24.92
355.903	106.84
356.115	-52.91
356.326	41.3
356.538	63.83
356.749	96.6
356.961	59.73
357.172	80.21
357.384	92.5
357.595	76.12
357.807	82.26
358.018	12.63
358.23	82.26
358.441	76.12
358.653	149.84
358.864	43.35
359.075	-5.8
359.287	65.88
359.498	55.64
359.709	96.6
359.921	80.21
360.132	41.3
360.344	43.35
360.555	39.25
360.766	96.6
360.977	125.27
361.189	92.5
361.4	41.3
361.611	80.21
361.823	57.68
362.034	67.92
362.245	-16.04
362.456	69.97
362.667	53.59
362.879	55.64
363.09	115.03
363.301	-5.8
363.512	18.77
363.723	69.97
363.935	43.35
364.146	100.69
364.357	47.44
364.568	33.11
364.779	57.68
364.99	117.08
365.201	123.22
365.412	90.45
365.623	55.64
365.834	4.44
366.045	102.74
366.256	78.16
366.467	16.73
366.678	74.07
366.889	18.77
367.1	98.64
367.311	82.26
367.522	88.4
367.733	4.44
367.944	35.16
368.155	100.69
368.366	115.03
368.577	102.74
368.788	2.39
368.999	18.77
369.209	82.26
369.42	96.6
369.631	135.51
369.842	47.44
370.053	49.49
370.264	127.32
370.474	63.83
370.685	88.4
370.896	106.84
371.107	-5.8
371.317	121.17
371.528	37.2
371.739	117.08
371.95	102.74
372.16	22.87
372.371	-11.95
372.582	67.92
372.792	80.21
373.003	90.45
373.214	61.78
373.424	53.59
373.635	0.34
373.846	98.64
374.056	41.3
374.267	47.44
374.477	92.5
374.688	45.4
374.898	43.35
375.109	49.49
375.319	100.69
375.53	35.16
375.74	90.45
375.951	4.44
376.161	-7.85
376.372	82.26
376.582	72.02
376.793	45.4
377.003	8.53
377.214	39.25
377.424	125.27
377.635	96.6
377.845	-1.71
378.055	59.73
378.266	65.88
378.476	88.4
378.686	55.64
378.897	29.01
379.107	69.97
379.317	57.68
379.528	67.92
379.738	63.83
379.948	94.55
380.158	84.31
380.369	45.4
380.579	33.11
380.789	53.59
380.999	67.92
381.21	31.06
381.42	117.08
381.63	12.63
381.84	110.93
382.05	90.45
382.261	137.56
382.471	141.65
382.681	82.26
382.891	164.18
383.101	39.25
383.311	12.63
383.521	82.26
383.731	57.68
383.941	98.64
384.151	74.07
384.361	10.58
384.571	158.03
384.781	69.97
384.991	86.36
385.201	63.83
385.411	53.59
385.621	39.25
385.831	61.78
386.041	26.96
386.251	80.21
386.461	129.36
386.671	4.44
386.881	98.64
387.091	74.07
387.301	98.64
387.511	112.98
387.72	106.84
387.93	117.08
388.14	94.55
388.35	86.36
388.56	49.49
388.769	18.77
388.979	106.84
389.189	37.2
389.399	86.36
389.609	110.93
389.818	18.77
390.028	18.77
390.238	96.6
390.447	43.35
390.657	51.54
390.867	135.51
391.076	76.12
391.286	16.73
391.496	31.06
391.705	49.49
391.915	115.03
392.125	119.12
392.334	74.07
392.544	90.45
392.753	78.16
392.963	18.77
393.172	98.64
393.382	160.08
393.591	90.45
393.801	106.84
394.01	145.75
394.22	151.89
394.429	59.73
394.639	92.5
394.848	90.45
395.058	110.93
395.267	121.17
395.477	145.75
395.686	151.89
395.895	166.23
396.105	164.18
396.314	98.64
396.524	135.51
396.733	84.31
396.942	90.45
397.152	129.36
397.361	137.56
397.57	192.85
397.78	117.08
397.989	92.5
398.198	188.75
398.407	59.73
398.617	170.32
398.826	106.84
399.035	43.35
399.244	125.27
399.453	112.98
399.663	65.88
399.872	98.64
400.081	143.7
400.29	178.51
400.499	129.36
400.708	151.89
400.917	92.5
401.127	45.4
401.336	155.99
401.545	129.36
401.754	190.8
401.963	176.47
402.172	131.41
402.381	143.7
402.59	106.84
402.799	104.79
403.008	147.8
403.217	207.19
403.426	125.27
403.635	174.42
403.844	125.27
404.053	213.33
404.262	242
404.471	254.29
404.68	213.33
404.888	182.61
405.097	121.17
405.306	196.95
405.515	225.62
405.724	278.87
405.933	194.9
406.142	217.43
406.35	299.34
406.559	260.43
406.768	221.52
406.977	244.05
407.185	260.43
407.394	231.76
407.603	268.63
407.812	258.39
408.02	319.82
408.229	250.19
408.438	221.52
408.646	346.45
408.855	323.92
409.064	356.69
409.272	340.3
409.481	364.88
409.69	416.08
409.898	401.74
410.107	368.98
410.315	457.04
410.524	409.94
410.733	346.45
410.941	454.99
411.15	483.66
411.358	426.32
411.567	444.75
411.775	514.38
411.984	538.96
412.192	637.26
412.401	541.01
412.609	555.34
412.818	694.6
413.026	577.87
413.234	604.49
413.443	700.75
413.651	729.42
413.86	690.51
414.068	790.86
414.276	753.99
414.485	895.3
414.693	821.58
414.901	852.3
415.11	995.65
415.318	899.4
415.526	932.17
415.734	923.98
415.943	885.06
416.151	1055.05
416.359	1034.57
416.567	1026.37
416.776	1186.12
416.984	1218.88
417.192	1284.42
417.4	1313.09
417.608	1288.51
417.817	1268.03
418.025	1380.67
418.233	1495.36
418.441	1515.84
418.649	1499.45
418.857	1681.72
419.065	1685.82
419.273	1661.24
419.481	1814.84
419.689	1876.28
419.897	2001.21
420.105	2060.6
420.313	2140.47
420.521	2087.22
420.729	2126.13
420.937	2163
421.145	2324.79
421.353	2369.84
421.561	2609.45
421.769	2507.06
421.977	2556.21
422.185	2709.8
422.393	2761
422.601	3012.9
422.809	2998.57
423.017	3004.71
423.224	3170.6
423.432	3326.24
423.64	3320.1
423.848	3561.76
424.056	3473.7
424.263	3762.46
424.471	3883.29
424.679	3834.14
424.887	4000.02
425.094	4233.49
425.302	4210.97
425.51	4389.14
425.718	4436.24
425.925	4428.05
426.133	4643.09
426.341	4901.13
426.548	5177.61
426.756	5232.9
426.964	5304.58
427.171	5523.71
427.379	5689.6
427.586	5830.91
427.794	5898.49
428.001	6295.8
428.209	6523.12
428.417	6406.39
428.624	6885.61
428.832	6867.18
429.039	6969.58
429.247	6803.69
429.454	7583.97
429.662	7997.66
429.869	7504.1
430.076	8034.52
430.284	7753.95
430.491	8009.95
430.699	8536.28
430.906	8610
431.114	8743.12
431.321	9259.21
431.528	9267.4
431.736	9726.14
431.943	10031.29
432.15	10033.34
432.358	10152.12
432.565	10893.49
432.772	10807.47
432.979	11223.21
433.187	11313.32
433.394	11315.37
433.601	12159.13
433.808	12462.23
434.016	12064.93
434.223	12716.18
434.43	13547.65
434.637	13095.05
434.844	14051.45
435.052	14303.36
435.259	14260.35
435.466	14358.65
435.673	14135.42
435.88	14938.23
436.087	15693.93
436.294	15958.11
436.501	15638.63
436.708	16025.7
436.915	16568.41
437.122	17295.44
437.329	17117.26
437.537	17856.58
437.743	18018.37
437.95	17784.9
438.157	18866.23
438.364	19509.29
438.571	19417.13
438.778	19439.66
438.985	21041.17
439.192	20246.56
439.399	21075.99
439.606	20678.68
439.813	21907.46
440.02	23306.23
440.227	22843.38
440.433	22700.03
440.64	23197.68
440.847	23023.61
441.054	23646.19
441.261	25352.15
441.467	25055.19
441.674	25499.6
441.881	26269.64
442.088	26392.51
442.294	26038.22
442.501	26933.18
442.708	27584.43
442.914	28575.65
443.121	29620.11
443.328	28866.46
443.534	31080.32
443.741	29972.36
443.948	29337.49
444.154	31944.56
444.361	31520.63
444.568	31858.54
444.774	31962.99
444.981	32182.12
445.187	32970.59
445.394	34651.97
445.6	34023.25
445.807	37590.81
446.013	35766.07
446.22	36214.57
446.426	37865.24
446.633	37916.43
446.839	39472.89
447.046	37615.38
447.252	39819
447.459	39954.16
447.665	39739.13
447.871	41367.26
448.078	42981.06
448.284	41064.16
448.491	41914.07
448.697	43767.48
448.903	44453.55
449.11	44697.26
449.316	44099.25
449.522	44834.47
449.728	45794.97
449.935	46059.16
450.141	45749.92
450.347	47015.56
450.553	45768.35
450.76	46210.71
450.966	47672.96
451.172	46972.55
451.378	48002.68
451.584	47228.55
451.791	48201.33
451.997	47834.75
452.203	48752.24
452.409	48858.73
452.615	48586.35
452.821	46720.65
453.027	46542.48
453.233	48451.19
453.44	46886.54
453.646	47175.3
453.852	47042.18
454.058	48512.63
454.264	46749.32
454.47	47519.36
454.676	46208.66
454.882	48035.45
455.088	43939.51
455.294	44492.46
455.5	44873.38
455.705	45194.92
455.911	43828.92
456.117	42829.51
456.323	42270.42
456.529	39880.44
456.735	41819.86
456.941	40701.67
457.147	40023.79
457.352	38688.52
457.558	38350.6
457.764	38295.31
457.97	37736.21
458.176	36701.99
458.381	36794.15
458.587	34934.59
458.793	34957.12
458.999	33089.37
459.204	35684.15
459.41	34293.58
459.616	32253.8
459.821	32190.31
460.027	32329.58
460.233	31401.85
460.438	29947.79
460.644	30056.33
460.85	28735.39
461.055	28256.17
461.261	28293.03
461.466	26124.23
461.672	25446.35
461.878	27365.3
462.083	25522.13
462.289	24940.5
462.494	24334.31
462.7	23599.09
462.905	23023.61
463.111	23631.85
463.316	23654.38
463.522	23250.93
463.727	23187.44
463.932	23109.62
464.138	22921.21
464.343	23336.95
464.549	22568.96
464.754	23291.89
464.959	22980.6
465.165	22740.99
465.37	22001.67
465.575	21219.35
465.781	22124.55
465.986	22003.72
466.191	21428.24
466.397	21092.37
466.602	19886.12
466.807	21022.74
467.012	20461.6
467.218	20535.32
467.423	20357.15
467.628	20715.55
467.833	21602.32
468.038	20830.23
468.244	19937.32
468.449	20860.95
468.654	20068.39
468.859	20004.9
469.064	19890.21
469.269	19165.23
469.474	19290.16
469.679	19730.47
469.885	18944.05
470.09	19308.59
470.295	19267.63
470.5	18520.12
470.705	19030.07
470.91	18350.14
471.115	18294.85
471.32	18458.68
471.525	18149.44
471.73	17915.97
471.935	17952.84
472.139	17154.13
472.344	17549.39
472.549	17053.78
472.754	17039.44
472.959	16640.09
473.164	16357.47
473.369	16171.1
473.574	16816.21
473.778	16846.93
473.983	16273.5
474.188	16482.39
474.393	15659.11
474.598	15708.26
474.802	15425.64
475.007	15323.24
475.212	15325.29
475.417	14956.66
475.621	14776.44
475.826	14966.9
476.031	14715
476.235	14282.88
476.44	14612.6
476.645	14237.82
476.849	14364.79
477.054	14014.59
477.259	13658.24
477.463	14002.3
477.668	13385.87
477.872	13848.71
478.077	13236.36
478.282	13193.36
478.486	13164.68
478.691	13172.88
478.895	12880.02
479.1	13054.09
479.304	12810.39
479.509	12640.4
479.713	12593.3
479.918	12497.05
480.122	12243.1
480.326	12437.66
480.531	12656.79
480.735	12316.83
480.94	12347.54
481.144	12658.84
481.348	11876.51
481.553	12247.19
481.757	11972.77
481.961	12089.5
482.166	12222.62
482.37	12073.12
482.574	11798.69
482.778	11823.26
482.983	12021.92
483.187	12138.65
483.391	11890.85
483.595	11833.5
483.8	11727.01
484.004	12019.87
484.208	12003.49
484.412	11929.76
484.616	12011.68
484.821	11940
485.025	11645.09
485.229	11911.33
485.433	12062.88
485.637	11948.19
485.841	11772.07
486.045	11776.16
486.249	11933.86
486.453	12015.77
486.657	12003.49
486.861	12046.49
487.065	11544.74
487.269	11671.72
487.473	11716.77
487.677	12005.53
487.881	11759.78
488.085	11804.83
488.289	11995.29
488.493	11647.14
488.697	11819.17
488.901	11860.13
489.105	11937.95
489.309	11866.27
489.512	12050.59
489.716	11886.75
489.92	11952.29
490.124	12030.11
490.328	12370.07
490.531	12093.6
490.735	12279.96
490.939	12185.76
491.143	11833.5
491.346	11970.72
491.55	12234.91
491.754	12302.49
491.958	12308.63
492.161	12271.77
492.365	12408.98
492.569	12523.67
492.772	12468.38
492.976	12511.38
493.18	12703.89
493.383	12832.91
493.587	13160.59
493.79	13164.68
493.994	12855.44
494.197	12916.88
494.401	13154.44
494.605	13203.6
494.808	13324.43
495.012	13387.91
495.215	13357.19
495.419	13625.48
495.622	13797.51
495.825	13826.18
496.029	13643.91
496.232	14061.69
496.436	13967.49
496.639	14270.59
496.843	14217.34
497.046	14440.57
497.249	14585.97
497.453	14653.56
497.656	14975.09
497.859	15057.01
498.063	14907.51
498.266	15239.28
498.469	15249.52
498.673	15417.45
498.876	15802.47
499.079	15587.43
499.282	15798.37
499.485	16347.23
499.689	16142.43
499.892	16734.29
500.095	16738.39
500.298	17029.2
500.501	16642.14
500.705	17436.75
500.908	17469.51
501.111	17320.01
501.314	17883.2
501.517	17856.58
501.72	18116.67
501.923	18034.75
502.126	18718.78
502.329	18575.42
502.532	18823.22
502.735	18851.89
502.938	19408.94
503.141	19286.06
503.344	19908.65
503.547	19630.12
503.75	20131.87
503.953	20351.01
504.156	20633.63
504.359	20733.98
504.562	20959.25
504.765	21415.95
504.968	21538.83
505.17	21659.66
505.373	21651.47
505.576	21782.54
505.779	22263.81
505.982	22532.09
506.185	22904.82
506.387	23060.47
506.59	23154.68
506.793	23662.57
506.996	23427.06
507.198	24029.16
507.401	24111.08
507.604	24164.32
507.807	24926.17
508.009	25303
508.212	25257.94
508.415	25341.91
508.617	25671.63
508.82	25808.84
509.022	25733.07
509.225	26247.11
509.428	26480.58
509.63	26761.15
509.833	27049.91
510.035	27453.36
510.238	27367.35
510.44	27654.06
510.643	28043.18
510.845	28039.08
511.048	28270.5
511.25	28721.06
511.453	28862.36
511.655	29777.81
511.858	29525.91
512.06	29693.84
512.262	30089.1
512.465	30136.2
512.667	30590.85
512.87	30723.97
513.072	30629.76
513.274	31436.66
513.477	31776.62
513.679	32077.68
513.881	32401.25
514.084	32409.45
514.286	32679.78
514.488	32728.93
514.69	33539.93
514.893	33693.52
515.095	33617.75
515.297	34266.95
515.499	34494.28
515.701	34883.39
515.904	35104.57
516.106	35243.84
516.308	35616.57
516.51	35868.47
516.712	35991.34
516.914	36407.08
517.116	36798.24
517.318	36638.5
517.52	37242.65
517.722	37338.91
517.925	37945.11
518.127	38151.95
518.329	38547.21
518.531	38125.33
518.733	39073.54
518.935	39509.75
519.136	39235.33
519.338	39667.45
519.54	39833.33
519.742	40142.58
519.944	40304.37
520.146	41367.26
520.348	40924.9
520.55	41119.46
520.752	41608.92
520.954	42292.94
521.155	41862.87
521.357	42696.39
521.559	43071.17
521.761	42946.25
521.963	43161.28
522.164	43560.64
522.366	43685.56
522.568	44125.88
522.77	43957.94
522.971	44826.28
523.173	44394.16
523.375	44664.49
523.576	44799.66
523.778	44961.45
523.98	45131.43
524.181	45547.17
524.383	45737.63
524.584	46247.57
524.786	46012.06
524.988	46048.92
525.189	46857.87
525.391	46876.3
525.592	47077
525.794	47158.92
525.995	47140.49
526.197	47382.15
526.398	47613.57
526.6	47699.58
526.801	48078.46
527.003	48197.24
527.204	48076.41
527.406	48531.06
527.607	48600.69
527.808	48346.74
528.01	48039.54
528.211	48328.31
528.412	49350.24
528.614	49184.36
528.815	49206.89
529.016	49481.31
529.218	48987.75
529.419	49243.75
529.62	49632.86
529.822	49428.07
530.023	49436.26
530.224	49854.04
530.425	49442.4
530.626	49380.96
530.828	49333.86
531.029	50269.78
531.23	49708.64
531.431	50118.23
531.632	50228.82
531.833	50431.57
532.035	49532.51
532.236	50077.27
532.437	50306.65
532.638	49938.01
532.839	50609.75
533.04	50237.01
533.241	49880.67
533.442	51074.63
533.643	50300.5
533.844	50363.99
534.045	50224.73
534.246	50036.31
534.447	50425.43
534.648	50273.88
534.849	50927.18
535.05	50194.01
535.251	50339.41
535.451	50255.45
535.652	50404.95
535.853	50583.12
536.054	50411.09
536.255	50435.67
536.456	49888.86
536.657	50826.83
536.857	50304.6
537.058	49950.3
537.259	50200.15
537.46	50478.68
537.66	50013.79
537.861	49852
538.062	49706.59
538.263	50759.25
538.463	50259.54
538.664	50107.99
538.865	50191.96
539.065	50310.74
539.266	49696.35
539.466	50558.55
539.667	49895
539.868	50241.11
540.068	49919.58
540.269	49907.29
540.469	50411.09
540.67	50009.69
540.87	49755.74
541.071	50263.64
541.271	49831.52
541.472	49444.45
541.672	49837.66
541.873	49163.88
542.073	49012.33
542.274	50245.21
542.474	49858.14
542.675	49262.18
542.875	49978.97
543.075	49608.29
543.276	48911.98
543.476	50642.51
543.676	49292.9
543.877	49757.79
544.077	49935.96
544.277	49430.12
544.478	49276.52
544.678	49858.14
544.878	49548.9
545.078	49593.95
545.279	49446.5
545.479	49249.89
545.679	49487.46
545.879	49383.01
546.079	48823.92
546.28	49202.79
546.48	49309.28
546.68	49960.54
546.88	49722.97
547.08	49170.02
547.28	49061.48
547.48	48973.42
547.68	49051.24
547.88	48795.24
548.081	49274.47
548.281	49077.86
548.481	48813.68
548.681	49661.54
548.881	48930.41
549.081	49067.62
549.28	48975.47
549.48	49112.68
549.68	48887.4
549.88	49473.12
550.08	48518.77
550.28	48809.58
550.48	49077.86
550.68	49237.61
550.88	48266.87
551.08	48782.96
551.279	48793.2
551.479	48457.33
551.679	48629.36
551.879	48801.39
552.079	49241.7
552.278	48776.81
552.478	48461.43
552.678	48471.67
552.878	48819.82
553.077	48330.36
553.277	48352.88
553.477	48928.36
553.676	48447.09
553.876	48166.52
554.076	48219.77
554.275	47797.88
554.475	47703.68
554.674	48174.71
554.874	48713.33
555.074	48107.13
555.273	48459.38
555.473	48764.53
555.672	48129.65
555.872	47537.79
556.071	48148.09
556.271	48156.28
556.47	47824.51
556.67	47474.3
556.869	47744.64
557.068	48049.78
557.268	47478.4
557.467	47797.88
557.667	47634.05
557.866	47812.22
558.065	47326.85
558.265	47500.93
558.464	47281.8
558.663	47955.58
558.863	47062.66
559.062	47804.03
559.261	46933.64
559.461	47629.95
559.66	46845.58
559.859	47056.52
560.058	47011.46
560.258	46808.72
560.457	46372.5
560.656	46913.16
560.855	47077
561.054	47077
561.253	46456.46
561.453	46515.86
561.652	47056.52
561.851	46730.89
562.05	46335.63
562.249	46302.87
562.448	46579.34
562.647	46341.78
562.846	46003.86
563.045	46139.03
563.244	46085.78
563.443	46376.59
563.642	45444.77
563.841	46114.45
564.04	45760.16
564.239	46104.21
564.438	45328.03
564.637	45694.62
564.836	45954.71
565.035	45207.2
565.234	45561.5
565.432	45266.59
565.631	44832.43
565.83	45659.8
566.029	44799.66
566.228	44975.78
566.427	44668.59
566.625	44529.33
566.824	44095.16
567.023	44641.96
567.222	43693.75
567.42	44779.18
567.619	44517.04
567.818	44648.11
568.016	44013.24
568.215	45151.91
568.414	44302
568.612	44314.29
568.811	43945.65
569.01	44041.91
569.208	43519.68
569.407	44312.24
569.605	43525.82
569.804	43873.98
570.002	43046.6
570.201	44119.73
570.4	43357.89
570.598	42833.61
570.797	43110.08
570.995	43359.94
571.193	42434.25
571.392	43153.09
571.59	42641.1
571.789	42651.34
571.987	42489.55
572.186	42424.01
572.384	42397.39
572.582	42483.41
572.781	42473.17
572.979	41930.45
573.177	42397.39
573.376	42006.23
573.574	42051.28
573.772	41699.03
573.971	41772.76
574.169	41821.91
574.367	41383.65
574.565	42014.42
574.763	40916.71
574.962	41314.01
575.16	41076.45
575.358	41273.06
575.556	40546.03
575.754	40947.43
575.952	40355.57
576.151	40959.72
576.349	40181.49
576.547	40697.58
576.745	40472.3
576.943	40646.38
577.141	40232.69
577.339	40462.06
577.537	40230.64
577.735	40353.52
577.933	39640.82
578.131	39902.96
578.329	39769.85
578.527	39841.53
578.725	39671.54
578.923	39759.61
579.121	39001.86
579.319	39081.73
579.516	39249.66
579.714	39141.12
579.912	39390.97
580.11	38999.81
580.308	38661.9
580.506	38807.3
580.704	38455.05
580.901	38573.83
581.099	38749.96
581.297	38328.08
581.495	38094.61
581.692	38450.95
581.89	37773.08
582.088	38379.28
582.285	37852.95
582.483	38102.8
582.681	37967.63
582.878	37410.59
583.076	37441.31
583.274	37730.07
583.471	37279.52
583.669	37025.57
583.866	36708.13
584.064	37238.56
584.262	36536.1
584.459	37119.77
584.657	36785.96
584.854	36869.92
585.052	36413.23
585.249	36632.36
585.447	36603.69
585.644	35917.62
585.841	36243.24
586.039	36175.66
586.236	35882.8
586.434	35759.92
586.631	35706.68
586.828	35923.76
587.026	35698.48
587.223	35567.41
587.42	35696.44
587.618	35266.36
587.815	34574.15
588.012	35170.11
588.21	34985.79
588.407	35358.52
588.604	34662.21
588.801	34699.08
588.999	34651.97
589.196	34799.43
589.393	34449.22
589.59	34195.28
589.787	34527.05
589.984	33970
590.182	33881.94
590.379	34139.98
590.576	33922.9
590.773	33576.79
590.97	33486.68
591.167	34131.79
591.364	33302.36
591.561	33460.05
591.758	33296.22
591.955	32970.59
592.152	33208.15
592.349	33116
592.546	32878.43
592.743	33218.39
592.94	32380.78
593.137	32855.9
593.334	32798.56
593.531	32169.83
593.727	32339.82
593.924	32427.88
594.121	32014.19
594.318	32364.39
594.515	31489.91
594.712	31786.86
594.908	31526.77
595.105	31674.23
595.302	31324.02
595.499	31725.43
595.696	31668.08
595.892	30973.82
596.089	31438.71
596.286	31260.54
596.482	31045.5
596.679	30857.09
596.876	31027.07
597.072	30662.53
597.269	30928.77
597.466	30082.95
597.662	30418.82
597.859	30343.05
598.055	30547.84
598.252	30125.96
598.448	30384.01
598.645	29935.5
598.841	29742.99
599.038	29824.91
599.234	29941.64
599.431	29314.97
599.627	29183.9
599.824	29712.27
600.02	29167.51
600.217	29659.02
600.413	29286.29
600.609	28958.62
600.806	29198.23
601.002	29247.38
601.198	29028.25
601.395	28653.47
601.591	28792.73
601.787	28534.69
601.984	28327.85
602.18	28960.67
602.376	28377
602.572	28256.17
602.769	27979.69
602.965	27717.55
603.161	27801.52
603.357	28118.95
603.553	27879.34
603.75	27668.4
603.946	27566
604.142	27584.43
604.338	27471.79
604.534	27525.04
604.73	27076.54
604.926	27244.47
605.122	27281.33
605.318	27238.33
605.514	27158.45
605.71	26798.01
605.906	26765.24
606.102	26613.7
606.298	26800.06
606.494	26806.2
606.69	26869.69
606.886	26705.85
607.082	26200.01
607.278	26326.98
607.474	26083.27
607.67	26021.83
607.866	25659.34
608.062	26118.09
608.257	26206.15
608.453	25802.7
608.649	26179.53
608.845	25585.61
609.041	25567.18
609.236	25901
609.432	25759.69
609.628	25575.38
609.824	25606.09
610.019	25579.47
610.215	25515.98
610.411	25575.38
610.606	25298.9
610.802	25442.26
610.998	25090.01
611.193	25038.81
611.389	25331.67
611.584	25212.88
611.78	25008.09
611.976	24815.58
612.171	25040.86
612.367	24645.6
612.562	24733.66
612.758	24475.62
612.953	24661.98
613.149	24899.55
613.344	24631.26
613.539	25126.87
613.735	24498.14
613.93	24586.21
614.126	24430.56
614.321	24870.87
614.517	24160.23
614.712	24309.73
614.907	24387.55
615.103	24250.34
615.298	24147.94
615.493	24195.04
615.688	23986.15
615.884	24463.33
616.079	23597.04
616.274	23750.63
616.47	23764.97
616.665	23857.13
616.86	23642.09
617.055	23570.41
617.25	23459.82
617.445	23826.41
617.641	23160.82
617.836	23328.75
618.031	23216.12
618.226	23635.95
618.421	23240.69
618.616	23234.55
618.811	22908.92
619.006	23375.86
619.201	22550.53
619.396	23056.37
619.591	22564.86
619.786	22732.79
619.981	22245.38
620.176	22536.19
620.371	22278.15
620.566	22067.2
620.761	22018.05
620.956	22179.84
621.151	21753.87
621.346	21987.33
621.541	21772.3
621.735	21790.73
621.93	21803.02
622.125	21653.51
622.32	21454.86
622.515	21395.47
622.709	21325.84
622.904	20924.44
623.099	21010.45
623.294	21067.8
623.488	20607
623.683	20924.44
623.878	20351.01
624.072	20586.52
624.267	20707.35
624.462	20279.33
624.656	19968.04
624.851	19871.78
625.046	19755.05
625.24	19875.88
625.435	19730.47
625.629	19732.52
625.824	19410.99
626.018	19308.59
626.213	19183.66
626.407	19220.53
626.602	18839.61
626.796	19013.68
626.991	18737.21
627.185	18839.61
627.38	18733.11
627.574	18544.7
627.768	18303.04
627.963	18348.09
628.157	17946.69
628.352	17993.79
628.546	17850.44
628.74	18233.41
628.935	17944.64
629.129	18049.09
629.323	17459.27
629.517	17653.83
629.712	17426.51
629.906	17608.78
630.1	16996.43
630.294	17541.19
630.489	16867.41
630.683	17266.77
630.877	17002.58
631.071	16803.92
631.265	16828.5
631.459	16660.57
631.653	16486.49
631.848	16498.78
632.042	16183.39
632.236	16312.41
632.43	16193.63
632.624	16429.15
632.818	15980.64
633.012	15794.28
633.206	15827.04
633.4	15489.13
633.594	15720.55
633.788	15794.28
633.982	15767.65
634.176	15476.84
634.369	15417.45
634.563	15609.96
634.757	15313
634.951	15024.24
635.145	15241.32
635.339	15138.93
635.533	14841.97
635.726	14966.9
635.92	14884.98
636.114	14643.32
636.308	14571.64
636.501	14336.12
636.695	14483.58
636.889	14428.28
637.083	14188.67
637.276	14096.51
637.47	14114.94
637.664	14112.89
637.857	14178.43
638.051	13881.47
638.244	13768.84
638.438	13906.05
638.632	13828.23
638.825	13578.37
639.019	13383.82
639.212	13494.41
639.406	13480.07
639.599	13369.48
639.793	13394.06
639.986	13115.53
640.18	13000.85
640.373	13166.73
640.567	12970.13
640.76	12994.7
640.954	12728.47
641.147	12796.05
641.34	12683.41
641.534	12718.23
641.727	12515.48
641.92	12669.08
642.114	12581.01
642.307	12310.68
642.5	12570.77
642.694	12085.4
642.887	12187.8
643.08	12265.63
643.273	12163.23
643.467	12011.68
643.66	11987.1
643.853	11907.23
644.046	11702.43
644.239	11870.37
644.432	11872.42
644.626	11690.15
644.819	11567.27
645.012	11462.82
645.205	11565.22
645.398	11684
645.591	11385
645.784	11438.25
645.977	11272.36
646.17	10999.98
646.363	10948.78
646.556	10887.34
646.749	10981.55
646.942	11065.52
647.135	10801.33
647.328	10952.88
647.521	10733.75
647.714	10719.41
647.907	10813.62
648.099	10571.96
648.292	10686.64
648.485	10649.78
648.678	10361.02
648.871	10311.86
649.064	10231.99
649.256	10293.43
649.449	10137.79
649.642	10238.14
649.835	10117.31
650.027	10004.67
650.22	9889.98
650.413	9738.43
650.605	9906.37
650.798	9945.28
650.991	9734.34
651.183	9799.87
651.376	9691.33
651.568	9687.23
651.761	9453.77
651.954	9478.34
652.146	9535.68
652.339	9367.75
652.531	9242.82
652.724	9289.93
652.916	9005.26
653.109	9287.88
653.301	9130.19
653.494	8980.68
653.686	9009.36
653.879	8933.58
654.071	8892.62
654.263	8997.07
654.456	8747.22
654.648	8777.94
654.84	8554.71
655.033	8720.59
655.225	8784.08
655.417	8689.87
655.61	8511.7
655.802	8632.53
655.994	8546.51
656.186	8648.91
656.379	8493.27
656.571	8472.79
656.763	8265.94
656.955	8323.29
657.148	8267.99
657.34	8331.48
657.532	8093.91
657.724	8222.94
657.916	8206.55
658.108	8044.76
658.3	7985.37
658.492	8014.04
658.684	7745.76
658.876	7827.68
659.068	7807.2
659.26	7833.82
659.452	7747.81
659.644	7760.09
659.836	7651.55
660.028	7674.08
660.22	7432.42
660.412	7530.72
660.604	7540.96
660.796	7465.19
660.988	7471.33
661.18	7424.23
661.372	7327.97
661.563	7430.37
661.755	7348.45
661.947	7254.25
662.139	7194.86
662.331	7127.27
662.522	7157.99
662.714	7018.73
662.906	7102.7
663.097	6981.87
663.289	6787.31
663.481	6928.62
663.673	6922.48
663.864	6766.83
664.056	6772.97
664.247	6863.08
664.439	6717.68
664.631	6877.42
664.822	6748.4
665.014	6590.7
665.205	6717.68
665.397	6545.65
665.588	6652.14
665.78	6492.4
665.971	6605.04
666.163	6721.77
666.354	6480.11
666.546	6320.37
666.737	6293.75
666.929	6347
667.12	6291.7
667.311	6195.45
667.503	6160.63
667.694	6136.06
667.885	6250.74
668.077	6113.53
668.268	6181.11
668.459	6187.25
668.651	6125.82
668.842	5951.74
669.033	5978.36
669.224	5986.55
669.416	6205.69
669.607	5929.21
669.798	5898.49
669.989	5949.69
670.18	5888.25
670.371	5847.29
670.563	5765.37
670.754	5669.12
670.945	5728.51
671.136	5820.67
671.327	5753.09
671.518	5703.93
671.709	5521.67
671.9	5753.09
672.091	5521.67
672.282	5572.86
672.473	5519.62
672.664	5630.21
672.855	5507.33
673.046	5507.33
673.237	5529.86
673.428	5288.2
673.619	5406.98
673.809	5421.31
674	5404.93
674.191	5308.68
674.382	5386.5
674.573	5441.79
674.764	5224.71
674.954	5181.7
675.145	5267.72
675.336	5282.05
675.527	5161.22
675.717	5122.31
675.908	5089.54
676.099	5157.13
676.289	5169.41
676.48	4915.47
676.671	5021.96
676.861	5128.46
677.052	5048.58
677.243	5013.77
677.433	4851.98
677.624	4884.75
677.814	5003.53
678.005	4968.71
678.195	5042.44
678.386	4981
678.576	4837.64
678.767	4755.72
678.957	4870.41
679.148	4976.91
679.338	4841.74
679.529	4735.25
679.719	4735.25
679.909	4718.86
680.1	4829.45
680.29	4716.81
680.481	4657.42
680.671	4786.44
680.861	4682
681.052	4663.57
681.242	4579.6
681.432	4690.19
681.622	4624.65
681.813	4491.54
682.003	4835.6
682.193	4618.51
682.383	4514.06
682.573	4454.67
682.764	4469.01
682.954	4389.14
683.144	4512.02
683.334	4532.5
683.524	4522.26
683.714	4428.05
683.904	4432.15
684.094	4450.58
684.284	4471.06
684.474	4509.97
684.664	4374.8
684.854	4430.1
685.044	4329.75
685.234	4454.67
685.424	4405.52
685.614	4311.32
685.804	4274.45
685.994	4331.8
686.184	4274.45
686.374	4200.73
686.564	4235.54
686.753	4170.01
686.943	4139.29
687.133	4188.44
687.323	4104.47
687.513	4108.57
687.702	4151.57
687.892	4161.81
688.082	4032.79
688.272	4045.08
688.461	4032.79
688.651	3950.87
688.841	3977.5
689.03	4026.65
689.22	3946.78
689.41	3905.82
689.599	3918.11
689.789	3932.44
689.979	3805.47
690.168	3918.11
690.358	3854.62
690.547	3793.18
690.737	3836.19
690.926	3789.08
691.116	3793.18
691.305	3694.88
691.495	3791.13
691.684	3756.32
691.874	3850.52
692.063	3694.88
692.252	3782.94
692.442	3615.01
692.631	3633.44
692.82	3561.76
693.01	3635.49
693.199	3629.34
693.388	3600.67
693.578	3674.4
693.767	3483.94
693.956	3551.52
694.146	3592.48
694.335	3500.32
694.524	3500.32
694.713	3592.48
694.902	3655.97
695.092	3539.23
695.281	3447.07
695.47	3442.98
695.659	3393.83
695.848	3395.87
696.037	3350.82
696.226	3424.55
696.415	3449.12
696.604	3602.72
696.793	3260.71
696.982	3461.41
697.171	3359.01
697.36	3428.64
697.549	3262.76
697.738	3340.58
697.927	3326.24
698.116	3445.02
698.305	3365.15
698.494	3252.52
698.683	3301.67
698.872	3254.56
699.061	3412.26
699.25	3330.34
699.438	3297.57
699.627	3375.39
699.816	3287.33
700.005	3334.43
700.193	3227.94
700.382	3256.61
700.571	3184.93
700.76	3340.58
700.948	3432.74
701.137	3283.24
701.326	3309.86
701.514	3125.54
701.703	3246.37
701.892	3209.51
702.08	3266.85
702.269	3197.22
702.457	3082.53
702.646	3066.15
702.834	3160.36
703.023	3246.37
703.212	3193.12
703.4	3238.18
703.589	3152.17
703.777	3229.99
703.965	3176.74
704.154	3320.1
704.342	3250.47
704.531	3254.56
704.719	3062.05
704.907	3242.28
705.096	3164.45
705.284	3191.08
705.472	3219.75
705.661	3254.56
705.849	3045.67
706.037	3232.04
706.226	3098.92
706.414	3090.73
706.602	3119.4
706.79	3176.74
706.979	3150.12
707.167	3154.21
707.355	3141.93
707.543	3162.41
707.731	3096.87
707.919	3076.39
708.107	3031.34
708.296	3006.76
708.484	3109.16
708.672	2978.09
708.86	3037.48
709.048	3189.03
709.236	3121.45
709.424	3051.81
709.612	3014.95
709.8	2906.41
709.988	3004.71
710.176	3090.73
710.364	3062.05
710.551	3068.2
710.739	3039.53
710.927	3127.59
711.115	3076.39
711.303	3029.29
711.491	3244.32
711.679	2992.42
711.866	3017
712.054	3139.88
712.242	2951.46
712.43	3055.91
712.617	3062.05
712.805	3049.77
712.993	2928.94
713.181	3029.29
713.368	3107.11
713.556	3162.41
713.744	2963.75
713.931	2922.79
714.119	2883.88
714.306	3047.72
714.494	3223.84
714.682	2955.56
714.869	2971.94
715.057	3031.34
715.244	2898.22
715.432	3049.77
715.619	2926.89
715.807	3045.67
715.994	3109.16
716.182	2930.98
716.369	3025.19
716.556	2943.27
716.744	3025.19
716.931	2947.37
717.119	2855.21
717.306	2906.41
717.493	3139.88
717.681	2961.7
717.868	2951.46
718.055	2935.08
718.242	2830.63
718.43	2908.46
718.617	2808.11
718.804	2885.93
718.991	2875.69
719.179	2857.26
719.366	2980.14
719.553	2879.79
719.74	2853.16
719.927	3051.81
720.114	2722.09
720.301	2851.11
720.488	2842.92
720.676	2847.02
720.863	2896.17
721.05	2797.87
721.237	2844.97
721.424	2881.83
721.611	2887.98
721.798	2832.68
721.985	2705.71
722.172	2758.96
722.358	2816.3
722.545	2871.59
722.732	2906.41
722.919	2793.77
723.106	2701.61
723.293	2748.72
723.48	2851.11
723.667	2887.98
723.853	2814.25
724.04	2859.31
724.227	2826.54
724.414	2781.48
724.6	2740.52
724.787	2859.31
724.974	2715.95
725.161	2789.67
725.347	2728.24
725.534	2732.33
725.72	2816.3
725.907	2738.48
726.094	2730.28
726.28	2752.81
726.467	2701.61
726.653	2666.8
726.84	2662.7
727.027	2732.33
727.213	2738.48
727.4	2722.09
727.586	2820.39
727.773	2726.19
727.959	2687.28
728.145	2695.47
728.332	2777.39
728.518	2736.43
728.705	2687.28
728.891	2795.82
729.077	2621.74
729.264	2595.12
729.45	2654.51
729.636	2789.67
729.823	2674.99
730.009	2660.65
730.195	2603.31
730.382	2691.37
730.568	2564.4
730.754	2617.65
730.94	2554.16
731.126	2588.97
731.313	2656.56
731.499	2724.14
731.685	2709.8
731.871	2650.41
732.057	2662.7
732.243	2705.71
732.429	2603.31
732.615	2607.41
732.801	2646.32
732.987	2654.51
733.173	2619.69
733.359	2636.08
733.545	2613.55
733.731	2584.88
733.917	2644.27
734.103	2652.46
734.289	2617.65
734.475	2568.49
734.661	2687.28
734.847	2515.25
735.033	2601.26
735.219	2531.63
735.404	2588.97
735.59	2423.09
735.776	2500.91
735.962	2484.53
736.148	2459.95
736.333	2533.68
736.519	2529.58
736.705	2572.59
736.89	2472.24
737.076	2439.47
737.262	2505.01
737.447	2519.34
737.633	2541.87
737.819	2410.8
738.004	2459.95
738.19	2351.41
738.375	2439.47
738.561	2373.94
738.747	2443.57
738.932	2480.43
739.118	2418.99
739.303	2451.76
739.489	2427.18
739.674	2480.43
739.859	2382.13
740.045	2318.64
740.23	2363.7
740.416	2326.83
740.601	2392.37
740.786	2310.45
740.972	2382.13
741.157	2375.99
741.342	2365.75
741.528	2216.24
741.713	2234.68
741.898	2228.53
742.084	2246.96
742.269	2335.03
742.454	2228.53
742.639	2228.53
742.824	2165.04
743.01	2302.26
743.195	2197.81
743.38	2412.85
743.565	2300.21
743.75	2306.35
743.935	2185.52
744.12	2115.89
744.305	2208.05
744.49	2251.06
744.675	2126.13
744.86	2107.7
745.045	2054.45
745.23	2191.67
745.415	2169.14
745.6	2093.37
745.785	2040.12
745.97	2064.69
746.155	2025.78
746.34	2013.49
746.525	2064.69
746.71	2017.59
746.895	2001.21
747.079	2013.49
747.264	2021.69
747.449	2025.78
747.634	2036.02
747.819	1876.28
748.003	1919.29
748.188	1966.39
748.373	1931.58
748.557	1921.34
748.742	1835.32
748.927	1927.48
749.111	1796.41
749.296	1843.51
749.481	1935.67
749.665	1863.99
749.85	1896.76
750.034	1919.29
750.219	1808.7
750.404	1751.35
750.588	1737.02
750.773	1728.83
750.957	1734.97
751.141	1710.4
751.326	1784.12
751.51	1610.04
751.695	1718.59
751.879	1706.3
752.064	1683.77
752.248	1696.06
752.432	1724.73
752.617	1661.24
752.801	1603.9
752.985	1556.8
753.17	1614.14
753.354	1564.99
753.538	1530.17
753.722	1515.84
753.907	1497.41
754.091	1558.85
754.275	1472.83
754.459	1458.5
754.643	1544.51
754.828	1483.07
755.012	1464.64
755.196	1507.65
755.38	1493.31
755.564	1585.47
755.748	1378.62
755.932	1501.5
756.116	1399.1
756.3	1501.5
756.484	1411.39
756.668	1302.85
756.852	1323.33
757.036	1331.52
757.22	1452.35
757.404	1280.32
757.588	1290.56
757.772	1290.56
757.956	1356.1
758.14	1390.91
758.323	1286.47
758.507	1329.47
758.691	1229.12
758.875	1349.95
759.059	1323.33
759.242	1339.71
759.426	1212.74
759.61	1165.64
759.794	1167.68
759.977	1278.27
760.161	1323.33
760.345	1231.17
760.528	1270.08
760.712	1290.56
760.895	1175.88
761.079	1161.54
761.263	1159.49
761.446	1163.59
761.63	1177.92
761.813	1141.06
761.997	1112.39
762.18	1141.06
762.364	1151.3
762.547	1120.58
762.731	1227.07
762.914	1161.54
763.098	1229.12
763.281	1071.43
763.464	1173.83
763.648	1100.1
763.831	1120.58
764.015	1040.71
764.198	1110.34
764.381	1083.72
764.564	1145.16
764.748	1118.53
764.931	1065.29
765.114	1087.81
765.297	1122.63
765.481	1048.9
765.664	1098.05
765.847	946.5
766.03	1026.37
766.213	962.89
766.397	1100.1
766.58	981.32
766.763	1022.28
766.946	1081.67
767.129	1059.14
767.312	1005.89
767.495	1032.52
767.678	999.75
767.861	1032.52
768.044	962.89
768.227	964.93
768.41	989.51
768.593	991.56
768.776	917.83
768.959	979.27
769.142	966.98
769.324	1036.61
769.507	1012.04
769.69	977.22
769.873	911.69
770.056	1030.47
770.239	917.83
770.421	954.69
770.604	966.98
770.787	979.27
770.97	1034.57
771.152	995.65
771.335	913.74
771.518	893.26
771.7	913.74
771.883	950.6
772.066	860.49
772.248	874.82
772.431	874.82
772.613	913.74
772.796	819.53
772.978	907.59
773.161	874.82
773.343	850.25
773.526	893.26
773.708	825.67
773.891	790.86
774.073	917.83
774.256	788.81
774.438	774.47
774.621	833.86
774.803	753.99
774.985	782.67
775.168	837.96
775.35	760.14
775.532	805.19
775.715	760.14
775.897	764.23
776.079	813.38
776.261	803.15
776.444	682.31
776.626	700.75
776.808	778.57
776.99	784.71
777.173	774.47
777.355	680.27
777.537	725.32
777.719	751.95
777.901	688.46
778.083	727.37
778.265	672.08
778.447	627.02
778.629	672.08
778.811	696.65
778.993	672.08
779.175	692.55
779.357	651.6
779.539	610.64
779.721	678.22
779.903	629.07
780.085	549.2
780.267	616.78
780.449	614.73
780.631	653.64
780.812	620.88
780.994	600.4
781.176	612.68
781.358	622.92
781.54	600.4
781.721	604.49
781.903	618.83
782.085	514.38
782.267	594.25
782.448	584.01
782.63	541.01
782.812	538.96
782.993	598.35
783.175	506.19
783.357	536.91
783.538	588.11
783.72	532.81
783.901	516.43
784.083	545.1
784.264	559.44
784.446	434.51
784.627	459.09
784.809	528.72
784.99	485.71
785.172	530.77
785.353	512.33
785.535	487.76
785.716	555.34
785.897	389.46
786.079	444.75
786.26	487.76
786.441	514.38
786.623	457.04
786.804	440.65
786.985	420.17
787.167	442.7
787.348	532.81
787.529	469.33
787.71	514.38
787.891	516.43
788.073	459.09
788.254	442.7
788.435	418.13
788.616	430.41
788.797	487.76
788.978	385.36
789.159	438.61
789.34	420.17
789.522	395.6
789.703	416.08
789.884	430.41
790.065	332.11
790.246	430.41
790.427	407.89
790.607	356.69
790.788	393.55
790.969	364.88
791.15	385.36
791.331	362.83
791.512	348.5
791.693	377.17
791.874	285.01
792.054	373.07
792.235	446.8
792.416	397.65
792.597	289.1
792.778	467.28
792.958	364.88
793.139	348.5
793.32	303.44
793.5	348.5
793.681	311.63
793.862	348.5
794.042	360.78
794.223	385.36
794.404	393.55
794.584	309.58
794.765	395.6
794.945	346.45
795.126	305.49
795.306	371.02
795.487	293.2
795.667	299.34
795.848	383.31
796.028	344.4
796.209	377.17
796.389	266.58
796.57	258.39
796.75	266.58
796.93	244.05
797.111	248.15
797.291	313.68
797.471	328.02
797.652	250.19
797.832	295.25
798.012	403.79
798.192	291.15
798.373	262.48
798.553	233.81
798.733	311.63
798.913	299.34
799.093	280.91
799.274	338.26
799.454	219.47
799.634	272.72
799.814	313.68
799.994	282.96
800.174	319.82
800.354	289.1
800.534	272.72
800.714	246.1
800.894	184.66
801.074	237.91
801.254	301.39
801.434	274.77
801.614	295.25
801.794	158.03
801.974	608.59
802.154	252.24
802.334	225.62
802.514	209.23
802.693	237.91
802.873	297.3
803.053	258.39
803.233	237.91
803.413	196.95
803.592	295.25
803.772	180.56
803.952	244.05
804.131	258.39
804.311	237.91
804.491	196.95
804.67	209.23
804.85	215.38
805.03	293.2
805.209	182.61
805.389	215.38
805.568	182.61
805.748	264.53
805.928	211.28
806.107	219.47
806.287	231.76
806.466	285.01
806.646	192.85
806.825	270.67
807.004	260.43
807.184	184.66
807.363	176.47
807.543	246.1
807.722	270.67
807.901	252.24
808.081	213.33
808.26	162.13
808.439	217.43
808.619	231.76
808.798	221.52
808.977	178.51
809.156	227.67
809.336	196.95
809.515	280.91
809.694	184.66
809.873	211.28
810.052	194.9
810.231	209.23
810.411	194.9
810.59	145.75
810.769	182.61
810.948	229.71
811.127	139.6
811.306	180.56
811.485	143.7
811.664	266.58
811.843	182.61
812.022	184.66
812.201	211.28
812.38	141.65
812.559	137.56
812.737	174.42
812.916	133.46
813.095	119.12
813.274	239.95
813.453	106.84
813.632	188.75
813.811	147.8
813.989	53.59
814.168	207.19
814.347	215.38
814.526	188.75
814.704	188.75
814.883	227.67
815.062	166.23
815.24	160.08
815.419	110.93
815.598	106.84
815.776	186.71
815.955	190.8
816.133	117.08
816.312	207.19
816.49	127.32
816.669	143.7
816.847	188.75
817.026	196.95
817.204	147.8
817.383	182.61
817.561	74.07
817.74	143.7
817.918	147.8
818.097	164.18
818.275	125.27
818.453	162.13
818.632	145.75
818.81	20.82
818.988	151.89
819.167	182.61
819.345	160.08
819.523	59.73
819.701	145.75
819.879	172.37
820.058	151.89
820.236	69.97
820.414	119.12
820.592	45.4
820.77	164.18
820.948	139.6
821.127	90.45
821.305	235.86
821.483	108.88
821.661	139.6
821.839	76.12
822.017	125.27
822.195	88.4
822.373	127.32
822.551	125.27
822.729	108.88
822.907	115.03
823.085	223.57
823.262	-7.85
823.44	57.68
823.618	127.32
823.796	147.8
823.974	133.46
824.152	82.26
824.329	102.74
824.507	127.32
824.685	117.08
824.863	90.45
825.04	162.13
825.218	125.27
825.396	121.17
825.574	88.4
825.751	84.31
825.929	78.16
826.107	127.32
826.284	84.31
826.462	129.36
826.639	20.82
826.817	39.25
826.994	55.64
827.172	26.96
827.349	98.64
827.527	47.44
827.704	139.6
827.882	82.26
828.059	123.22
828.237	88.4
828.414	162.13
828.591	119.12
828.769	65.88
828.946	100.69
829.124	112.98
829.301	82.26
829.478	51.54
829.655	61.78
829.833	82.26
830.01	131.41
830.187	110.93
830.364	217.43
830.542	84.31
830.719	96.6
830.896	78.16
831.073	110.93
831.25	37.2
831.427	151.89
831.604	4.44
831.782	80.21
831.959	117.08
832.136	96.6
832.313	143.7
832.49	141.65
832.667	69.97
832.844	84.31
833.021	129.36
833.198	125.27
833.374	82.26
833.551	92.5
833.728	57.68
833.905	106.84
834.082	26.96
834.259	69.97
834.436	147.8
834.612	72.02
834.789	84.31
834.966	117.08
835.143	57.68
835.319	37.2
835.496	78.16
835.673	63.83
835.85	67.92
836.026	106.84
836.203	82.26
836.38	43.35
836.556	29.01
836.733	-13.99
836.909	104.79
837.086	26.96
837.262	86.36
837.439	104.79
837.616	-7.85
837.792	112.98
837.968	106.84
838.145	88.4
838.321	112.98
838.498	33.11
838.674	123.22
838.851	41.3
839.027	41.3
839.203	43.35
839.38	39.25
839.556	57.68
839.732	31.06
839.909	51.54
840.085	59.73
840.261	2.39
840.437	90.45
840.614	92.5
840.79	92.5
840.966	90.45
841.142	22.87
841.318	26.96
841.494	90.45
841.671	8.53
841.847	49.49
842.023	33.11
842.199	61.78
842.375	37.2
842.551	41.3
842.727	37.2
842.903	88.4
843.079	35.16
843.255	125.27
843.431	61.78
843.607	129.36
843.783	39.25
843.959	104.79
844.134	-18.09
844.31	63.83
844.486	82.26
844.662	45.4
844.838	94.55
845.013	110.93
845.189	55.64
845.365	8.53
845.541	-18.09
845.716	104.79
845.892	0.34
846.068	55.64
846.244	8.53
846.419	69.97
846.595	94.55
846.77	14.68
846.946	-38.57
847.122	8.53
847.297	69.97
847.473	100.69
847.648	43.35
847.824	57.68
847.999	14.68
848.175	24.92
848.35	31.06
848.526	49.49
848.701	26.96
848.876	63.83
849.052	53.59
849.227	53.59
849.403	39.25
849.578	121.17
849.753	67.92
849.929	80.21
850.104	37.2
850.279	14.68
850.454	8.53
850.63	80.21
850.805	82.26
850.98	61.78
851.155	47.44
851.33	119.12
851.505	-44.71
851.681	90.45
851.856	53.59
852.031	86.36
852.206	12.63
852.381	-1.71
852.556	29.01
852.731	37.2
852.906	-5.8
853.081	65.88
853.256	6.49
853.431	33.11
853.606	129.36
853.781	53.59
853.956	61.78
854.131	-7.85
854.305	2.39
854.48	49.49
854.655	2.39
854.83	2.39
855.005	102.74
855.18	84.31
855.354	4.44
855.529	119.12
855.704	-30.38
855.879	65.88
856.053	-1.71
856.228	72.02
856.403	-22.19
856.577	104.79
856.752	-22.19
856.926	82.26
857.101	43.35
857.276	-34.47
857.45	55.64
857.625	55.64
857.799	123.22
857.974	43.35
858.148	2.39
858.323	49.49
858.497	8.53
858.672	106.84
858.846	47.44
859.02	143.7
859.195	-22.19
859.369	26.96
859.543	2.39
859.718	72.02
859.892	31.06
860.066	72.02
860.241	31.06
860.415	22.87
860.589	98.64
860.763	47.44
860.938	37.2
861.112	45.4
861.286	-5.8
861.46	86.36
861.634	26.96
861.808	74.07
861.982	24.92
862.157	22.87
862.331	33.11
862.505	49.49
862.679	-11.95
862.853	-24.23
863.027	24.92
863.201	53.59
863.375	8.53
863.549	41.3
863.722	53.59
863.896	61.78
864.07	-75.43
864.244	20.82
864.418	86.36
864.592	18.77
864.766	-32.43
864.939	-11.95
865.113	0.34
865.287	41.3
865.461	-1.71
865.634	100.69
865.808	51.54
865.982	26.96
866.156	10.58
866.329	80.21
866.503	6.49
866.676	123.22
866.85	-11.95
867.024	57.68
867.197	47.44
867.371	76.12
867.544	-9.9
867.718	12.63
867.891	8.53
868.065	4.44
868.238	-9.9
868.412	86.36
868.585	-75.43
868.759	24.92
868.932	47.44
869.105	-40.62
869.279	39.25
869.452	-38.57
869.625	26.96
869.799	0.34
869.972	-11.95
870.145	65.88
870.319	22.87
870.492	-54.95
870.665	-34.47
870.838	33.11
871.011	26.96
871.185	14.68
871.358	-5.8
871.531	78.16
871.704	35.16
871.877	22.87
872.05	-11.95
872.223	16.73
872.396	12.63
872.569	67.92
872.742	12.63
872.915	22.87
873.088	65.88
873.261	10.58
873.434	-63.15
873.607	37.2
873.78	-26.28
873.953	-18.09
874.126	24.92
874.299	33.11
874.471	-18.09
874.644	-34.47
874.817	12.63
874.99	102.74
875.163	-48.81
875.335	-5.8
875.508	67.92
875.681	33.11
875.853	12.63
876.026	-18.09
876.199	53.59
876.371	29.01
876.544	10.58
876.717	-54.95
876.889	16.73
877.062	49.49
877.234	2.39
877.407	31.06
877.579	8.53
877.752	4.44
877.924	20.82
878.097	-63.15
878.269	57.68
878.442	47.44
878.614	14.68
878.786	-11.95
878.959	31.06
879.131	45.4
879.303	-30.38
879.476	37.2
879.648	8.53
879.82	57.68
879.993	2.39
880.165	45.4
880.337	29.01
880.509	-3.75
880.681	26.96
880.854	12.63
881.026	-11.95
881.198	43.35
881.37	-26.28
881.542	-26.28
881.714	10.58
881.886	16.73
882.058	8.53
882.23	4.44
882.402	57.68
882.574	-11.95
882.746	20.82
882.918	41.3
883.09	63.83
883.262	94.55
883.434	29.01
883.606	12.63
883.778	-16.04
883.95	12.63
884.122	26.96
884.293	12.63
884.465	-9.9
884.637	-34.47
884.809	-34.47
884.98	69.97
885.152	59.73
885.324	80.21
885.496	31.06
885.667	-3.75
885.839	22.87
886.011	26.96
886.182	78.16
886.354	16.73
886.525	37.2
886.697	2.39
886.869	-46.76
887.04	67.92
887.212	72.02
887.383	69.97
887.555	16.73
887.726	2.39
887.897	-85.67
888.069	57.68
888.24	-13.99
888.412	10.58
888.583	29.01
888.754	-30.38
888.926	-13.99
889.097	0.34
889.268	55.64
889.44	-11.95
889.611	29.01
889.782	-11.95
889.953	-38.57
890.125	37.2
890.296	-54.95
890.467	31.06
890.638	22.87
890.809	41.3
890.98	-46.76
891.151	53.59
891.323	63.83
891.494	24.92
891.665	47.44
891.836	4.44
892.007	-16.04
892.178	-38.57
892.349	-52.91
892.52	-20.14
892.691	102.74
892.862	6.49
893.032	35.16
893.203	-50.86
893.374	-34.47
893.545	47.44
893.716	-5.8
893.887	76.12
894.057	-57
894.228	24.92
894.399	33.11
894.57	41.3
894.74	-97.96
894.911	14.68
895.082	-50.86
895.253	24.92
895.423	61.78
895.594	80.21
895.764	76.12
895.935	6.49
896.106	4.44
896.276	47.44
896.447	-50.86
896.617	-24.23
896.788	6.49
896.958	-52.91
897.129	4.44
897.299	-7.85
897.47	-5.8
897.64	100.69
897.81	-81.58
897.981	24.92
898.151	-75.43
898.322	-34.47
898.492	47.44
898.662	-34.47
898.832	-7.85
899.003	0.34
899.173	55.64
899.343	74.07
899.513	-30.38
