Data from USB4F104151__60__12-01-45-989.txt Node

Date: Fri Mar 14 12:01:45 EDT 2025
User: louis
Spectrometer: USB4F10415
Trigger mode: 4
Integration Time (sec): 2.000000E-2
Scans to average: 1
Electric dark correction enabled: true
Nonlinearity correction enabled: false
Boxcar width: 0
XAxis mode: Wavelengths
Number of Pixels in Spectrum: 3648
>>>>>Begin Spectral Data<<<<<
178.204	-99.33
178.424	-99.33
178.644	-99.33
178.864	-82.94
179.084	-136.19
179.304	-95.23
179.524	-29.7
179.744	11.26
179.964	1.02
180.184	-9.22
180.404	33.79
180.624	-11.26
180.844	17.41
181.064	29.7
181.283	-3.07
181.503	-7.17
181.723	62.46
181.943	-134.14
182.163	41.98
182.383	-31.74
182.602	21.5
182.822	-37.89
183.042	68.61
183.262	13.31
183.482	-13.31
183.701	-3.07
183.921	-27.65
184.141	-33.79
184.361	39.94
184.58	-56.32
184.8	68.61
185.02	-31.74
185.239	5.12
185.459	1.02
185.679	33.79
185.898	37.89
186.118	-1.02
186.338	5.12
186.557	95.23
186.777	-70.65
186.997	56.32
187.216	-27.65
187.436	39.94
187.655	91.13
187.875	29.7
188.095	-23.55
188.314	-31.74
188.534	13.31
188.753	39.94
188.973	3.07
189.192	9.22
189.412	-25.6
189.631	3.07
189.851	68.61
190.07	52.22
190.29	-13.31
190.509	-15.36
190.729	-33.79
190.948	27.65
191.168	27.65
191.387	-9.22
191.607	19.46
191.826	15.36
192.045	56.32
192.265	33.79
192.484	27.65
192.704	58.37
192.923	-1.02
193.142	93.18
193.362	-19.46
193.581	54.27
193.8	31.74
194.02	23.55
194.239	25.6
194.458	37.89
194.678	44.03
194.897	56.32
195.116	-13.31
195.335	66.56
195.555	58.37
195.774	37.89
195.993	15.36
196.212	50.18
196.432	-31.74
196.651	7.17
196.87	1.02
197.089	64.51
197.308	-15.36
197.528	33.79
197.747	-31.74
197.966	9.22
198.185	56.32
198.404	-58.37
198.623	-5.12
198.842	64.51
199.062	19.46
199.281	54.27
199.5	1.02
199.719	33.79
199.938	-41.98
200.157	25.6
200.376	5.12
200.595	1.02
200.814	17.41
201.033	23.55
201.252	19.46
201.471	48.13
201.69	74.75
201.909	13.31
202.128	17.41
202.347	-3.07
202.566	93.18
202.785	21.5
203.004	17.41
203.223	105.47
203.442	37.89
203.661	9.22
203.879	19.46
204.098	39.94
204.317	19.46
204.536	74.75
204.755	27.65
204.974	-7.17
205.193	66.56
205.411	128
205.63	39.94
205.849	46.08
206.068	9.22
206.287	11.26
206.505	-11.26
206.724	1.02
206.943	-62.46
207.162	19.46
207.381	33.79
207.599	3.07
207.818	25.6
208.037	21.5
208.255	29.7
208.474	-17.41
208.693	1.02
208.911	15.36
209.13	52.22
209.349	-41.98
209.567	56.32
209.786	48.13
210.005	-9.22
210.223	-52.22
210.442	-41.98
210.661	-11.26
210.879	-39.94
211.098	70.65
211.316	60.42
211.535	31.74
211.753	11.26
211.972	60.42
212.191	19.46
212.409	21.5
212.628	-1.02
212.846	27.65
213.065	5.12
213.283	27.65
213.502	39.94
213.72	-13.31
213.938	13.31
214.157	39.94
214.375	-3.07
214.594	13.31
214.812	33.79
215.031	-52.22
215.249	-39.94
215.467	37.89
215.686	27.65
215.904	41.98
216.122	115.71
216.341	33.79
216.559	-5.12
216.778	-13.31
216.996	9.22
217.214	-68.61
217.432	-25.6
217.651	1.02
217.869	-46.08
218.087	3.07
218.306	39.94
218.524	27.65
218.742	13.31
218.96	107.52
219.179	33.79
219.397	5.12
219.615	29.7
219.833	35.84
220.051	13.31
220.27	29.7
220.488	52.22
220.706	41.98
220.924	23.55
221.142	-60.42
221.36	9.22
221.578	-11.26
221.796	-62.46
222.015	-13.31
222.233	-31.74
222.451	1.02
222.669	-23.55
222.887	50.18
223.105	17.41
223.323	-11.26
223.541	7.17
223.759	13.31
223.977	1.02
224.195	3.07
224.413	17.41
224.631	7.17
224.849	-13.31
225.067	7.17
225.285	-9.22
225.503	66.56
225.721	-60.42
225.939	-3.07
226.157	37.89
226.375	-1.02
226.592	21.5
226.81	-58.37
227.028	-35.84
227.246	9.22
227.464	9.22
227.682	-41.98
227.9	-41.98
228.117	39.94
228.335	3.07
228.553	52.22
228.771	58.37
228.989	125.95
229.206	-9.22
229.424	19.46
229.642	-80.89
229.86	48.13
230.077	-27.65
230.295	37.89
230.513	66.56
230.731	-27.65
230.948	107.52
231.166	-1.02
231.384	27.65
231.601	-48.13
231.819	130.05
232.037	-31.74
232.254	54.27
232.472	44.03
232.689	-70.65
232.907	46.08
233.125	29.7
233.342	89.09
233.56	-56.32
233.777	35.84
233.995	44.03
234.213	70.65
234.43	7.17
234.648	39.94
234.865	23.55
235.083	50.18
235.3	-52.22
235.518	-27.65
235.735	23.55
235.953	52.22
236.17	21.5
236.388	-3.07
236.605	21.5
236.822	31.74
237.04	13.31
237.257	41.98
237.475	-46.08
237.692	5.12
237.909	17.41
238.127	44.03
238.344	7.17
238.562	3.07
238.779	3.07
238.996	-15.36
239.214	72.7
239.431	95.23
239.648	35.84
239.865	80.89
240.083	-23.55
240.3	3.07
240.517	-17.41
240.735	68.61
240.952	13.31
241.169	82.94
241.386	-31.74
241.603	31.74
241.821	-54.27
242.038	84.99
242.255	35.84
242.472	23.55
242.689	-3.07
242.907	54.27
243.124	15.36
243.341	29.7
243.558	17.41
243.775	-25.6
243.992	39.94
244.209	52.22
244.426	31.74
244.643	-3.07
244.86	-17.41
245.078	19.46
245.295	5.12
245.512	-3.07
245.729	33.79
245.946	21.5
246.163	-3.07
246.38	41.98
246.597	31.74
246.814	50.18
247.031	-48.13
247.248	56.32
247.464	-46.08
247.681	7.17
247.898	95.23
248.115	11.26
248.332	-25.6
248.549	50.18
248.766	23.55
248.983	29.7
249.2	-19.46
249.417	29.7
249.633	19.46
249.85	3.07
250.067	11.26
250.284	25.6
250.501	-44.03
250.717	13.31
250.934	15.36
251.151	-3.07
251.368	-13.31
251.585	33.79
251.801	-5.12
252.018	-60.42
252.235	56.32
252.451	-1.02
252.668	23.55
252.885	37.89
253.102	-19.46
253.318	-44.03
253.535	-60.42
253.752	17.41
253.968	-23.55
254.185	82.94
254.401	23.55
254.618	7.17
254.835	33.79
255.051	17.41
255.268	35.84
255.484	21.5
255.701	-39.94
255.917	-41.98
256.134	11.26
256.351	68.61
256.567	-46.08
256.784	35.84
257	-13.31
257.217	23.55
257.433	58.37
257.65	23.55
257.866	29.7
258.082	23.55
258.299	13.31
258.515	41.98
258.732	19.46
258.948	19.46
259.165	52.22
259.381	56.32
259.597	-13.31
259.814	9.22
260.03	41.98
260.246	78.85
260.463	-11.26
260.679	13.31
260.895	-13.31
261.112	27.65
261.328	25.6
261.544	72.7
261.761	-23.55
261.977	3.07
262.193	58.37
262.409	15.36
262.626	-39.94
262.842	89.09
263.058	13.31
263.274	56.32
263.49	60.42
263.707	74.75
263.923	68.61
264.139	5.12
264.355	-33.79
264.571	15.36
264.787	64.51
265.004	62.46
265.22	-72.7
265.436	5.12
265.652	-31.74
265.868	19.46
266.084	7.17
266.3	7.17
266.516	13.31
266.732	21.5
266.948	70.65
267.164	21.5
267.38	-11.26
267.596	80.89
267.812	82.94
268.028	-9.22
268.244	15.36
268.46	52.22
268.676	37.89
268.892	-56.32
269.108	-54.27
269.324	-13.31
269.54	9.22
269.756	89.09
269.972	-9.22
270.188	107.52
270.403	52.22
270.619	31.74
270.835	15.36
271.051	66.56
271.267	64.51
271.483	-19.46
271.698	-7.17
271.914	23.55
272.13	-21.5
272.346	27.65
272.562	-52.22
272.777	29.7
272.993	78.85
273.209	5.12
273.425	5.12
273.64	39.94
273.856	-15.36
274.072	44.03
274.287	17.41
274.503	39.94
274.719	13.31
274.934	-39.94
275.15	37.89
275.366	7.17
275.581	31.74
275.797	91.13
276.012	44.03
276.228	48.13
276.444	-19.46
276.659	33.79
276.875	-25.6
277.09	54.27
277.306	33.79
277.521	123.9
277.737	11.26
277.952	3.07
278.168	-9.22
278.383	-9.22
278.599	48.13
278.814	9.22
279.03	46.08
279.245	33.79
279.461	-3.07
279.676	-25.6
279.892	-1.02
280.107	3.07
280.322	-7.17
280.538	48.13
280.753	-9.22
280.969	37.89
281.184	-11.26
281.399	80.89
281.615	-7.17
281.83	66.56
282.045	46.08
282.26	-7.17
282.476	11.26
282.691	37.89
282.906	19.46
283.122	-46.08
283.337	25.6
283.552	31.74
283.767	13.31
283.983	50.18
284.198	-7.17
284.413	46.08
284.628	-15.36
284.843	74.75
285.058	31.74
285.274	37.89
285.489	-31.74
285.704	62.46
285.919	-11.26
286.134	58.37
286.349	15.36
286.564	50.18
286.779	-29.7
286.995	-13.31
287.21	-39.94
287.425	9.22
287.64	91.13
287.855	-27.65
288.07	27.65
288.285	93.18
288.5	60.42
288.715	19.46
288.93	70.65
289.145	25.6
289.36	19.46
289.575	50.18
289.79	31.74
290.004	72.7
290.219	-27.65
290.434	41.98
290.649	44.03
290.864	39.94
291.079	-7.17
291.294	15.36
291.509	95.23
291.724	50.18
291.938	-3.07
292.153	-13.31
292.368	64.51
292.583	3.07
292.798	21.5
293.012	19.46
293.227	-7.17
293.442	-3.07
293.657	37.89
293.871	72.7
294.086	-1.02
294.301	62.46
294.516	128
294.73	66.56
294.945	-5.12
295.16	37.89
295.374	39.94
295.589	37.89
295.804	56.32
296.018	19.46
296.233	31.74
296.447	58.37
296.662	-37.89
296.877	29.7
297.091	-41.98
297.306	35.84
297.52	25.6
297.735	62.46
297.949	-3.07
298.164	31.74
298.378	62.46
298.593	64.51
298.807	29.7
299.022	-39.94
299.236	64.51
299.451	9.22
299.665	19.46
299.88	3.07
300.094	66.56
300.309	46.08
300.523	13.31
300.737	23.55
300.952	41.98
301.166	11.26
301.381	-3.07
301.595	48.13
301.809	-11.26
302.024	31.74
302.238	15.36
302.452	17.41
302.667	-1.02
302.881	107.52
303.095	128
303.309	-23.55
303.524	41.98
303.738	21.5
303.952	17.41
304.166	9.22
304.381	-56.32
304.595	50.18
304.809	31.74
305.023	44.03
305.237	13.31
305.452	52.22
305.666	66.56
305.88	13.31
306.094	25.6
306.308	33.79
306.522	44.03
306.736	13.31
306.95	35.84
307.164	-5.12
307.379	-31.74
307.593	76.8
307.807	113.66
308.021	-29.7
308.235	62.46
308.449	-25.6
308.663	13.31
308.877	44.03
309.091	37.89
309.305	60.42
309.519	-7.17
309.733	91.13
309.947	5.12
310.161	78.85
310.374	121.85
310.588	-1.02
310.802	52.22
311.016	-29.7
311.23	-9.22
311.444	-9.22
311.658	1.02
311.872	72.7
312.085	-27.65
312.299	68.61
312.513	-7.17
312.727	80.89
312.941	-17.41
313.154	48.13
313.368	37.89
313.582	17.41
313.796	21.5
314.009	-9.22
314.223	7.17
314.437	29.7
314.651	-17.41
314.864	1.02
315.078	-19.46
315.292	37.89
315.505	-31.74
315.719	7.17
315.933	41.98
316.146	9.22
316.36	39.94
316.573	58.37
316.787	-31.74
317.001	17.41
317.214	-13.31
317.428	64.51
317.641	13.31
317.855	-3.07
318.068	7.17
318.282	80.89
318.495	44.03
318.709	50.18
318.922	48.13
319.136	-9.22
319.349	11.26
319.563	29.7
319.776	39.94
319.99	25.6
320.203	19.46
320.417	3.07
320.63	54.27
320.843	3.07
321.057	78.85
321.27	33.79
321.483	29.7
321.697	-11.26
321.91	54.27
322.124	58.37
322.337	60.42
322.55	58.37
322.763	1.02
322.977	9.22
323.19	-11.26
323.403	15.36
323.617	84.99
323.83	99.33
324.043	29.7
324.256	68.61
324.469	9.22
324.683	9.22
324.896	21.5
325.109	-1.02
325.322	7.17
325.535	1.02
325.748	11.26
325.962	39.94
326.175	19.46
326.388	-7.17
326.601	115.71
326.814	41.98
327.027	1.02
327.24	52.22
327.453	-3.07
327.666	5.12
327.879	9.22
328.092	25.6
328.305	-15.36
328.518	17.41
328.731	27.65
328.944	56.32
329.157	66.56
329.37	17.41
329.583	99.33
329.796	15.36
330.009	29.7
330.222	21.5
330.435	46.08
330.648	48.13
330.861	9.22
331.073	-9.22
331.286	-31.74
331.499	56.32
331.712	5.12
331.925	41.98
332.138	21.5
332.35	41.98
332.563	-11.26
332.776	46.08
332.989	58.37
333.202	52.22
333.414	66.56
333.627	-7.17
333.84	62.46
334.053	48.13
334.265	-46.08
334.478	-66.56
334.691	25.6
334.903	97.28
335.116	72.7
335.329	3.07
335.541	19.46
335.754	89.09
335.966	11.26
336.179	5.12
336.392	113.66
336.604	11.26
336.817	31.74
337.029	39.94
337.242	50.18
337.454	84.99
337.667	35.84
337.88	115.71
338.092	82.94
338.305	5.12
338.517	52.22
338.729	78.85
338.942	27.65
339.154	11.26
339.367	-13.31
339.579	33.79
339.792	31.74
340.004	72.7
340.217	-9.22
340.429	-27.65
340.641	21.5
340.854	72.7
341.066	37.89
341.278	-5.12
341.491	-1.02
341.703	101.37
341.915	-39.94
342.128	33.79
342.34	21.5
342.552	50.18
342.764	39.94
342.977	9.22
343.189	109.57
343.401	-1.02
343.613	9.22
343.826	41.98
344.038	58.37
344.25	-33.79
344.462	-17.41
344.674	-11.26
344.886	39.94
345.099	103.42
345.311	-11.26
345.523	50.18
345.735	-62.46
345.947	19.46
346.159	9.22
346.371	33.79
346.583	1.02
346.795	78.85
347.007	-11.26
347.219	-37.89
347.431	37.89
347.643	37.89
347.855	11.26
348.067	82.94
348.279	-9.22
348.491	54.27
348.703	76.8
348.915	21.5
349.127	39.94
349.339	74.75
349.551	-31.74
349.763	25.6
349.975	-33.79
350.187	87.04
350.399	52.22
350.61	1.02
350.822	23.55
351.034	11.26
351.246	97.28
351.458	9.22
351.669	56.32
351.881	50.18
352.093	44.03
352.305	62.46
352.517	66.56
352.728	95.23
352.94	21.5
353.152	-9.22
353.363	-60.42
353.575	64.51
353.787	15.36
353.999	13.31
354.21	54.27
354.422	-17.41
354.633	84.99
354.845	3.07
355.057	21.5
355.268	15.36
355.48	7.17
355.692	7.17
355.903	52.22
356.115	-15.36
356.326	-46.08
356.538	56.32
356.749	21.5
356.961	23.55
357.172	13.31
357.384	-29.7
357.595	17.41
357.807	41.98
358.018	17.41
358.23	64.51
358.441	35.84
358.653	56.32
358.864	46.08
359.075	93.18
359.287	48.13
359.498	33.79
359.709	54.27
359.921	37.89
360.132	-48.13
360.344	41.98
360.555	107.52
360.766	142.33
360.977	89.09
361.189	82.94
361.4	54.27
361.611	33.79
361.823	58.37
362.034	41.98
362.245	13.31
362.456	9.22
362.667	21.5
362.879	39.94
363.09	64.51
363.301	62.46
363.512	9.22
363.723	25.6
363.935	82.94
364.146	107.52
364.357	-11.26
364.568	82.94
364.779	-11.26
364.99	82.94
365.201	17.41
365.412	-5.12
365.623	7.17
365.834	35.84
366.045	68.61
366.256	50.18
366.467	78.85
366.678	66.56
366.889	9.22
367.1	33.79
367.311	103.42
367.522	-3.07
367.733	-25.6
367.944	52.22
368.155	50.18
368.366	31.74
368.577	7.17
368.788	23.55
368.999	15.36
369.209	56.32
369.42	70.65
369.631	48.13
369.842	84.99
370.053	66.56
370.264	-17.41
370.474	50.18
370.685	7.17
370.896	54.27
371.107	21.5
371.317	82.94
371.528	27.65
371.739	60.42
371.95	23.55
372.16	107.52
372.371	44.03
372.582	-39.94
372.792	58.37
373.003	31.74
373.214	60.42
373.424	78.85
373.635	58.37
373.846	82.94
374.056	13.31
374.267	44.03
374.477	21.5
374.688	-62.46
374.898	-44.03
375.109	52.22
375.319	101.37
375.53	66.56
375.74	-1.02
375.951	68.61
376.161	-17.41
376.372	74.75
376.582	25.6
376.793	-15.36
377.003	66.56
377.214	23.55
377.424	23.55
377.635	25.6
377.845	27.65
378.055	-1.02
378.266	11.26
378.476	15.36
378.686	15.36
378.897	23.55
379.107	50.18
379.317	15.36
379.528	39.94
379.738	62.46
379.948	37.89
380.158	72.7
380.369	41.98
380.579	97.28
380.789	-37.89
380.999	70.65
381.21	-9.22
381.42	82.94
381.63	35.84
381.84	91.13
382.05	-7.17
382.261	46.08
382.471	76.8
382.681	27.65
382.891	95.23
383.101	31.74
383.311	82.94
383.521	-1.02
383.731	58.37
383.941	58.37
384.151	13.31
384.361	111.61
384.571	31.74
384.781	68.61
384.991	66.56
385.201	50.18
385.411	9.22
385.621	58.37
385.831	21.5
386.041	128
386.251	17.41
386.461	93.18
386.671	-9.22
386.881	58.37
387.091	41.98
387.301	76.8
387.511	9.22
387.72	60.42
387.93	84.99
388.14	39.94
388.35	5.12
388.56	31.74
388.769	25.6
388.979	91.13
389.189	-29.7
389.399	41.98
389.609	109.57
389.818	78.85
390.028	37.89
390.238	27.65
390.447	54.27
390.657	46.08
390.867	-27.65
391.076	-25.6
391.286	68.61
391.496	84.99
391.705	56.32
391.915	54.27
392.125	50.18
392.334	56.32
392.544	128
392.753	54.27
392.963	21.5
393.172	76.8
393.382	97.28
393.591	48.13
393.801	95.23
394.01	91.13
394.22	105.47
394.429	76.8
394.639	29.7
394.848	41.98
395.058	25.6
395.267	33.79
395.477	84.99
395.686	89.09
395.895	107.52
396.105	105.47
396.314	72.7
396.524	48.13
396.733	97.28
396.942	111.61
397.152	35.84
397.361	142.33
397.57	58.37
397.78	44.03
397.989	136.19
398.198	111.61
398.407	125.95
398.617	91.13
398.826	62.46
399.035	74.75
399.244	119.81
399.453	152.57
399.663	105.47
399.872	119.81
400.081	91.13
400.29	146.43
400.499	93.18
400.708	78.85
400.917	76.8
401.127	60.42
401.336	76.8
401.545	216.06
401.754	160.77
401.963	140.29
402.172	91.13
402.381	62.46
402.59	164.86
402.799	101.37
403.008	168.96
403.217	41.98
403.426	105.47
403.635	117.76
403.844	39.94
404.053	128
404.262	119.81
404.471	197.63
404.68	113.66
404.888	132.09
405.097	179.2
405.306	195.58
405.515	82.94
405.724	113.66
405.933	148.48
406.142	156.67
406.35	171.01
406.559	132.09
406.768	177.15
406.977	320.51
407.185	240.64
407.394	197.63
407.603	183.29
407.812	191.49
408.02	193.53
408.229	138.24
408.438	244.73
408.646	173.05
408.855	230.4
409.064	244.73
409.272	259.07
409.481	300.03
409.69	236.54
409.898	234.49
410.107	244.73
410.315	316.41
410.524	326.65
410.733	347.13
410.941	373.75
411.15	373.75
411.358	355.32
411.567	455.67
411.775	392.19
411.984	361.47
412.192	367.61
412.401	390.14
412.609	461.82
412.818	574.46
413.026	508.92
413.234	510.97
413.443	584.7
413.651	521.21
413.86	510.97
414.068	584.7
414.276	584.7
414.485	560.12
414.693	613.37
414.901	656.37
415.11	707.57
415.318	648.18
415.526	744.44
415.734	789.49
415.943	852.98
416.151	779.25
416.359	824.31
416.567	826.36
416.776	1000.43
416.984	895.99
417.192	1045.49
417.4	932.85
417.608	943.09
417.817	992.24
418.025	988.14
418.233	1172.46
418.441	1149.93
418.649	1207.28
418.857	1205.23
419.065	1287.15
419.273	1256.43
419.481	1299.44
419.689	1385.45
419.897	1442.79
420.105	1502.19
420.313	1563.62
420.521	1606.63
420.729	1596.39
420.937	1717.22
421.145	1782.76
421.353	1749.99
421.561	1842.15
421.769	1883.11
421.977	2067.42
422.185	2016.23
422.393	2126.82
422.601	2223.07
422.809	2384.86
423.017	2202.59
423.224	2395.1
423.432	2391
423.64	2456.54
423.848	2618.33
424.056	2716.63
424.263	2798.55
424.471	2825.17
424.679	2804.69
424.887	2946
425.094	3185.62
425.302	3175.38
425.51	3275.73
425.718	3429.32
425.925	3470.28
426.133	3523.53
426.341	3673.03
426.548	3806.15
426.756	3992.52
426.964	3949.51
427.171	4127.68
427.379	4369.34
427.586	4381.63
427.794	4453.31
428.001	4664.25
428.209	4928.44
428.417	4887.48
428.624	5243.82
428.832	5118.9
429.039	5274.54
429.247	5161.91
429.454	5671.85
429.662	6087.59
429.869	5604.27
430.076	6015.91
430.284	5809.06
430.491	6314.91
430.699	6435.74
430.906	6437.79
431.114	6593.44
431.321	6771.61
431.528	7127.96
431.736	7379.86
431.943	7656.33
432.15	7560.08
432.358	7642
432.565	8004.49
432.772	7979.91
432.979	8528.77
433.187	8833.91
433.394	8567.68
433.601	9263.99
433.808	9180.02
434.016	9216.88
434.223	9534.32
434.43	10085.22
434.637	10126.18
434.844	10488.67
435.052	10830.68
435.259	10629.98
435.466	11037.53
435.673	10812.25
435.88	11457.36
436.087	11957.07
436.294	11889.48
436.501	11733.84
436.708	11944.78
436.915	12487.49
437.122	12903.23
437.329	12964.67
437.537	13411.12
437.743	13718.32
437.95	13269.81
438.157	14439.2
438.364	14844.7
438.571	14600.99
438.778	14443.3
438.985	16091.91
439.192	15315.73
439.399	16030.48
439.606	15530.77
439.813	16321.29
440.02	17619.7
440.227	17185.53
440.433	17263.35
440.64	17636.08
440.847	17511.16
441.054	17967.85
441.261	19256.03
441.467	18944.73
441.674	19139.29
441.881	19911.38
442.088	19981.01
442.294	19933.9
442.501	20488.9
442.708	20751.04
442.914	21619.38
443.121	22401.71
443.328	21639.86
443.534	23605.91
443.741	22629.03
443.948	22516.39
444.154	24126.1
444.361	24115.86
444.568	24074.9
444.774	23958.16
444.981	24435.34
445.187	25211.52
445.394	25864.82
445.6	25932.4
445.807	28023.38
446.013	26948.2
446.22	27777.62
446.426	28668.49
446.633	28719.69
446.839	29715
447.046	28711.5
447.252	30505.52
447.459	30212.66
447.665	30288.43
447.871	31543.84
448.078	33040.9
448.284	31134.24
448.491	32211.48
448.697	33499.65
448.903	34036.22
449.11	34165.24
449.316	33606.14
449.522	33913.34
449.728	34865.64
449.935	35453.41
450.141	35387.88
450.347	36125.14
450.553	34920.94
450.76	35267.05
450.966	36698.58
451.172	36342.23
451.378	36696.53
451.584	36323.8
451.791	36878.8
451.997	36923.85
452.203	37845.44
452.409	37693.89
452.615	37220.81
452.821	36182.49
453.027	35510.75
453.233	37753.28
453.44	36256.21
453.646	36231.64
453.852	36370.9
454.058	37026.25
454.264	35957.21
454.47	36833.74
454.676	36094.43
454.882	37167.56
455.088	33614.34
455.294	34296.31
455.5	34566.64
455.705	35011.05
455.911	33387.01
456.117	32776.72
456.323	32897.55
456.529	30820.91
456.735	31912.47
456.941	31662.62
457.147	30892.58
457.352	29837.88
457.558	29637.18
457.764	29387.33
457.97	29030.98
458.176	28623.44
458.381	28731.98
458.587	27021.92
458.793	27277.92
458.999	25774.71
459.204	27277.92
459.41	26688.1
459.616	24865.41
459.821	25246.33
460.027	24693.38
460.233	24091.28
460.438	23208.61
460.644	23306.91
460.85	22241.96
461.055	21787.32
461.261	21871.28
461.466	20323.02
461.672	19718.87
461.878	21226.17
462.083	19675.86
462.289	19301.08
462.494	19061.47
462.7	18371.3
462.905	17965.81
463.111	18539.24
463.316	18336.49
463.522	18074.35
463.727	18113.26
463.932	18082.54
464.138	17754.87
464.343	17980.14
464.549	17435.38
464.754	18027.24
464.959	17750.77
465.165	17545.97
465.37	17138.43
465.575	16448.26
465.781	17136.38
465.986	17468.15
466.191	16698.11
466.397	16196.36
466.602	15557.39
466.807	16130.83
467.012	16159.5
467.218	16036.62
467.423	15975.18
467.628	16055.05
467.833	16438.02
468.038	15934.22
468.244	15442.71
468.449	16272.14
468.654	15563.54
468.859	15573.78
469.064	15624.98
469.269	14727.97
469.474	14994.2
469.679	15270.68
469.885	14582.56
470.09	14879.52
470.295	14748.45
470.5	14611.23
470.705	14400.29
470.91	14271.27
471.115	14089
471.32	14283.56
471.525	14449.44
471.73	14119.72
471.935	13718.32
472.139	13151.03
472.344	13722.41
472.549	13560.63
472.754	13402.93
472.959	13243.19
473.164	12624.7
473.369	12550.98
473.574	13126.46
473.778	12806.97
473.983	12780.35
474.188	12714.81
474.393	12065.61
474.598	12239.69
474.802	12278.6
475.007	12026.7
475.212	12096.33
475.417	11742.03
475.621	11645.77
475.826	11488.08
476.031	11496.27
476.235	11025.24
476.44	11486.03
476.645	11154.26
476.849	11066.2
477.054	10969.94
477.259	10771.29
477.463	10699.61
477.668	10681.18
477.872	10601.31
478.077	10414.95
478.282	10138.47
478.486	10232.68
478.691	10046.31
478.895	9935.72
479.1	10005.35
479.304	10107.75
479.509	9849.71
479.713	9900.9
479.918	9716.59
480.122	9700.2
480.326	9722.73
480.531	9788.27
480.735	9438.06
480.94	9479.02
481.144	9880.43
481.348	9440.11
481.553	9495.41
481.757	9188.21
481.961	9266.03
482.166	9509.74
482.37	9513.84
482.574	9053.05
482.778	9118.58
482.983	9542.51
483.187	9218.93
483.391	9395.06
483.595	9188.21
483.8	9126.77
484.004	9177.97
484.208	9327.47
484.412	8964.98
484.616	9382.77
484.821	9218.93
485.025	8983.41
485.229	9372.53
485.433	9110.39
485.637	9294.71
485.841	9210.74
486.045	8936.31
486.249	9280.37
486.453	8897.4
486.657	9515.89
486.861	9259.89
487.065	8862.58
487.269	9141.11
487.473	9147.25
487.677	9325.43
487.881	9372.53
488.085	9243.51
488.289	9235.32
488.493	9280.37
488.697	9311.09
488.901	9104.25
489.105	9372.53
489.309	9165.68
489.512	9538.41
489.716	9274.23
489.92	9427.82
490.124	8993.65
490.328	9575.28
490.531	9237.36
490.735	9544.56
490.939	9511.79
491.143	9503.6
491.346	9497.46
491.55	9745.26
491.754	9634.67
491.958	9683.82
492.161	9794.41
492.365	9599.85
492.569	9732.97
492.772	9606
492.976	9708.4
493.18	9821.03
493.383	10103.65
493.587	9827.18
493.79	10290.02
493.994	10171.24
494.197	10130.28
494.401	10222.44
494.605	10302.31
494.808	10208.1
495.012	10267.49
495.215	10523.49
495.419	10441.57
495.622	10478.43
495.825	10920.79
496.029	10660.7
496.232	10810.2
496.436	10634.08
496.639	11066.2
496.843	11162.45
497.046	11205.46
497.249	11279.19
497.453	11653.97
497.656	11522.9
497.859	11719.5
498.063	11897.67
498.266	11838.28
498.469	11932.49
498.673	11961.16
498.876	12133.19
499.079	12346.18
499.282	12174.15
499.485	12598.08
499.689	12401.47
499.892	12915.51
500.095	12856.12
500.298	13263.67
500.501	13124.41
500.705	13290.29
500.908	13564.72
501.111	13714.22
501.314	13959.98
501.517	13953.84
501.72	14058.28
501.923	13972.27
502.126	14371.62
502.329	14424.87
502.532	14566.18
502.735	14443.3
502.938	15096.6
503.141	15035.16
503.344	15321.88
503.547	15106.84
503.75	15416.08
503.953	15514.39
504.156	15672.08
504.359	16038.67
504.562	15997.71
504.765	16556.8
504.968	16806.66
505.17	16872.19
505.373	16913.15
505.576	17158.91
505.779	17296.12
505.982	17298.17
506.185	17552.12
506.387	17851.12
506.59	17797.87
506.793	18162.41
506.996	18223.85
507.198	18473.7
507.401	18490.09
507.604	18889.44
507.807	19272.41
508.009	19389.14
508.212	19202.78
508.415	19938
508.617	19639
508.82	19968.72
509.022	19765.97
509.225	20570.82
509.428	20591.3
509.63	20572.87
509.833	20757.19
510.035	21258.94
510.238	21066.43
510.44	21459.64
510.643	21594.81
510.845	21848.75
511.048	21494.46
511.25	22043.31
511.453	22178.48
511.655	23052.96
511.858	22629.03
512.06	22882.98
512.262	22831.78
512.465	23374.49
512.667	23208.61
512.87	23550.62
513.072	24062.61
513.274	24144.53
513.477	24324.75
513.679	24119.95
513.881	24754.82
514.084	25156.22
514.286	24842.88
514.488	25678.46
514.69	25760.37
514.893	25832.05
515.095	25848.44
515.297	26315.37
515.499	26430.06
515.701	26739.3
515.904	27150.95
516.106	26999.4
516.308	27220.58
516.51	27705.95
516.712	27458.14
516.914	27863.64
517.116	28506.7
517.318	28717.64
517.52	28881.48
517.722	28797.51
517.925	29342.27
518.127	29358.66
518.329	29391.42
518.531	29530.69
518.733	29995.57
518.935	30155.32
519.136	30222.9
519.338	30472.75
519.54	30446.13
519.742	30911.02
519.944	31099.43
520.146	31724.06
520.348	31767.07
520.55	31498.78
520.752	31617.57
520.954	32229.91
521.155	32006.68
521.357	32698.89
521.559	32539.15
521.761	33257.99
521.963	33090.06
522.164	33511.94
522.366	33229.32
522.568	33655.29
522.77	33825.28
522.971	34470.39
523.173	34265.59
523.375	34486.77
523.576	34552.3
523.778	34920.94
523.98	35004.91
524.181	35029.48
524.383	35183.08
524.584	35394.02
524.786	35500.51
524.988	35172.84
525.189	35928.54
525.391	36067.8
525.592	36194.78
525.794	35955.16
525.995	36258.26
526.197	36272.6
526.398	36540.88
526.6	36794.83
526.801	36487.64
527.003	37155.27
527.204	36774.35
527.406	37147.08
527.607	37122.51
527.808	37718.46
528.01	36907.47
528.211	37046.73
528.412	37859.77
528.614	37919.17
528.815	37558.72
529.016	38044.09
529.218	37517.76
529.419	37958.08
529.62	38101.43
529.822	38142.39
530.023	38209.98
530.224	38119.87
530.425	38293.94
530.626	37806.53
530.828	38316.47
531.029	38529.46
531.23	38214.07
531.431	37749.18
531.632	38377.91
531.833	38234.55
532.035	38394.29
532.236	38525.36
532.437	38255.03
532.638	38689.2
532.839	38373.81
533.04	38703.54
533.241	38418.87
533.442	38844.85
533.643	38848.94
533.844	38713.78
534.045	38662.58
534.246	38388.15
534.447	38871.47
534.648	38267.32
534.849	38865.33
535.05	38558.13
535.251	38341.05
535.451	38324.66
535.652	38443.45
535.853	38898.09
536.054	38752.69
536.255	38631.86
536.456	38246.84
536.657	38775.22
536.857	38865.33
537.058	38814.13
537.259	39063.98
537.46	38773.17
537.66	38302.14
537.861	38312.38
538.062	38295.99
538.263	38672.82
538.463	38533.56
538.664	38324.66
538.865	38480.31
539.065	38904.24
539.266	38044.09
539.466	38627.76
539.667	38056.38
539.868	38785.46
540.068	38607.28
540.269	38175.16
540.469	38957.49
540.67	38480.31
540.87	38535.6
541.071	38234.55
541.271	38531.51
541.472	38437.3
541.672	38420.92
541.873	38443.45
542.073	37847.49
542.274	38455.73
542.474	38484.4
542.675	38089.15
542.875	38459.83
543.075	38250.94
543.276	37720.51
543.476	38140.35
543.676	38193.59
543.877	38107.58
544.077	37829.05
544.277	37910.97
544.478	38128.06
544.678	38085.05
544.878	37878.21
545.078	37677.51
545.279	37777.86
545.479	38173.11
545.679	38185.4
545.879	37896.64
546.079	38042.04
546.28	38128.06
546.48	37439.94
546.68	38025.66
546.88	38156.73
547.08	37908.93
547.28	38058.43
547.48	37591.49
547.68	38101.43
547.88	37845.44
548.081	38181.31
548.281	37996.99
548.481	37587.39
548.681	37939.65
548.881	37650.88
549.081	37736.9
549.28	37413.32
549.48	38197.69
549.68	37648.83
549.88	37996.99
550.08	37640.64
550.28	37788.1
550.48	37394.89
550.68	37806.53
550.88	37493.19
551.08	37652.93
551.279	37411.27
551.479	37259.72
551.679	37700.03
551.879	37585.35
552.079	37505.48
552.278	37394.89
552.478	37378.5
552.678	37278.15
552.878	37370.31
553.077	37487.04
553.277	37108.17
553.477	37884.35
553.676	37384.65
553.876	37216.71
554.076	36981.2
554.275	37075.4
554.475	37073.35
554.674	37380.55
554.874	37327.3
555.074	37276.1
555.273	37177.8
555.473	37472.71
555.672	36901.32
555.872	37087.69
556.071	37114.31
556.271	37382.6
556.47	36764.11
556.67	36712.91
556.869	36821.45
557.068	36856.27
557.268	36682.19
557.467	36854.22
557.667	36837.84
557.866	36870.61
558.065	36426.2
558.265	36876.75
558.464	36368.85
558.663	37171.66
558.863	36450.77
559.062	36960.72
559.261	36731.34
559.461	36948.43
559.66	36264.41
559.859	36667.86
560.058	36501.97
560.258	36305.37
560.457	35953.12
560.656	36487.64
560.855	35863
561.054	36415.96
561.253	35822.05
561.453	36106.71
561.652	36288.98
561.851	36399.57
562.05	35785.18
562.249	35764.7
562.448	35600.86
562.647	36059.61
562.846	35959.26
563.045	35643.87
563.244	35457.51
563.443	35951.07
563.642	34945.51
563.841	35752.41
564.04	35639.78
564.239	35531.23
564.438	35176.94
564.637	35404.26
564.836	35738.08
565.035	35142.12
565.234	35451.36
565.432	35224.04
565.631	34759.15
565.83	35047.91
566.029	35166.7
566.228	34599.41
566.427	34929.13
566.625	34773.49
566.824	34238.97
567.023	35058.15
567.222	34261.49
567.42	35002.86
567.619	34490.87
567.818	34374.13
568.016	34621.94
568.215	34478.58
568.414	34419.19
568.612	34816.49
568.811	34470.39
569.01	34292.21
569.208	33982.97
569.407	34335.22
569.605	33462.79
569.804	34169.33
570.002	33892.86
570.201	34044.41
570.4	33399.3
570.598	33864.19
570.797	33446.4
570.995	33829.37
571.193	33315.33
571.392	33800.7
571.59	33358.34
571.789	33468.93
571.987	33114.63
572.186	33434.11
572.384	33274.37
572.582	33038.86
572.781	33253.89
572.979	32520.72
573.177	32950.79
573.376	32944.65
573.574	32541.2
573.772	32868.87
573.971	32713.23
574.169	32543.25
574.367	32395.79
574.565	32289.3
574.763	32602.64
574.962	32209.43
575.16	31914.52
575.358	32639.5
575.556	32336.4
575.754	32240.15
575.952	31744.54
576.151	31744.54
576.349	31871.51
576.547	31679
576.745	31801.88
576.943	31914.52
577.141	31775.26
577.339	31427.1
577.537	31470.11
577.735	31545.89
577.933	31300.13
578.131	31253.03
578.329	30960.17
578.527	30956.07
578.725	30919.21
578.923	30849.58
579.121	30822.95
579.319	30638.64
579.516	30911.02
579.714	30675.5
579.912	30806.57
580.11	30396.98
580.308	30491.18
580.506	30562.86
580.704	29669.95
580.901	30343.73
581.099	30620.2
581.297	30063.16
581.495	29551.17
581.692	30282.29
581.89	29884.98
582.088	30161.46
582.285	29657.66
582.483	29962.81
582.681	29878.84
582.878	29545.02
583.076	29141.57
583.274	29934.14
583.471	29182.53
583.669	29334.08
583.866	28985.93
584.064	29289.03
584.262	29131.33
584.459	29485.63
584.657	29022.79
584.854	29059.65
585.052	28445.26
585.249	28875.34
585.447	28830.28
585.644	28465.74
585.841	28656.2
586.039	28801.61
586.236	28426.83
586.434	28455.5
586.631	28068.44
586.828	28306
587.026	28398.16
587.223	28222.03
587.42	27984.47
587.618	27904.6
587.815	27673.18
588.012	27753.05
588.21	27781.72
588.407	28015.19
588.604	27621.98
588.801	27540.06
588.999	27408.99
589.196	27722.33
589.393	27578.97
589.59	27435.61
589.787	27310.69
589.984	26968.68
590.182	26788.46
590.379	26903.14
590.576	26399.34
590.773	26770.02
590.97	26610.28
591.167	26684.01
591.364	26473.07
591.561	26530.41
591.758	26024.56
591.955	26415.72
592.152	26442.35
592.349	25967.22
592.546	26106.48
592.743	26157.68
592.94	25746.04
593.137	25852.53
593.334	26108.53
593.531	25651.83
593.727	25668.22
593.924	25598.59
594.121	25426.56
594.318	25637.5
594.515	25055.87
594.712	25152.13
594.908	25373.31
595.105	25301.63
595.302	24957.57
595.499	25307.77
595.696	24971.91
595.892	24715.91
596.089	25062.02
596.286	24941.19
596.482	24367.76
596.679	24863.36
596.876	24556.17
597.072	24662.66
597.269	24445.58
597.466	24068.75
597.662	24572.55
597.859	24169.1
598.055	24296.08
598.252	23888.53
598.448	24224.4
598.645	24027.79
598.841	23642.78
599.038	23530.14
599.234	23917.2
599.431	23368.35
599.627	23698.07
599.824	23585.43
600.02	23208.61
600.217	23653.02
600.413	23394.97
600.609	23354.01
600.806	22934.18
601.002	23020.19
601.198	22823.59
601.395	23149.21
601.591	23026.34
601.787	22624.93
601.984	22633.13
602.18	22895.27
602.376	22815.4
602.572	22440.62
602.769	22762.15
602.965	22305.45
603.161	22420.14
603.357	22121.13
603.553	22352.55
603.75	22229.68
603.946	21861.04
604.142	22117.04
604.338	21899.95
604.534	21789.36
604.73	21832.37
604.926	21799.6
605.122	21920.43
605.318	21490.36
605.514	21521.08
605.71	21355.19
605.906	21414.59
606.102	21379.77
606.298	21572.28
606.494	21580.47
606.69	21183.16
606.886	21293.76
607.082	20912.83
607.278	21424.83
607.474	20697.8
607.67	21142.21
607.866	20816.58
608.062	20931.26
608.257	20861.63
608.453	21009.09
608.649	20771.52
608.845	20863.68
609.041	20699.84
609.236	20904.64
609.432	20724.42
609.628	20632.26
609.824	20482.76
610.019	20312.78
610.215	20241.1
610.411	20382.41
610.606	20343.5
610.802	20249.29
610.998	20253.39
611.193	20552.39
611.389	20015.82
611.584	20157.13
611.78	19841.75
611.976	20323.02
612.171	20169.42
612.367	19897.04
612.562	20034.25
612.758	19546.84
612.953	19737.3
613.149	19938
613.344	19884.75
613.539	19747.54
613.735	19700.44
613.93	19688.15
614.126	19577.56
614.321	19811.03
614.517	19589.85
614.712	19589.85
614.907	19598.04
615.103	19581.65
615.298	19333.85
615.493	19567.32
615.688	18979.55
615.884	19862.22
616.079	18823.9
616.274	19284.7
616.47	18879.2
616.665	19475.16
616.86	18961.12
617.055	19079.9
617.25	18977.5
617.445	19153.63
617.641	18666.21
617.836	18780.9
618.031	18647.78
618.226	18768.61
618.421	18459.37
618.616	18834.14
618.811	18604.77
619.006	18758.37
619.201	18232.04
619.396	18434.79
619.591	18162.41
619.786	18328.3
619.981	17916.65
620.176	17949.42
620.371	18092.78
620.566	18045.68
620.761	17906.41
620.956	17797.87
621.151	17640.18
621.346	17879.79
621.541	17638.13
621.735	17892.08
621.93	17316.6
622.125	17439.48
622.32	17191.67
622.515	17156.86
622.709	17158.91
622.904	17119.99
623.099	17001.21
623.294	16952.06
623.488	16560.9
623.683	16624.39
623.878	16540.42
624.072	16538.37
624.267	16681.73
624.462	16302.86
624.656	16042.76
624.851	16225.03
625.046	16241.42
625.24	15678.22
625.435	16007.95
625.629	15553.3
625.824	15629.07
626.018	15874.83
626.213	15381.27
626.407	15309.59
626.602	15233.82
626.796	15151.9
626.991	15205.14
627.185	14959.39
627.38	14861.09
627.574	14777.12
627.768	14732.06
627.963	15016.73
628.157	14754.59
628.352	14478.12
628.546	14488.35
628.74	14578.47
628.935	14203.69
629.129	14459.68
629.323	14256.93
629.517	14066.47
629.712	14166.82
629.906	13945.64
630.1	13794.09
630.294	14062.38
630.489	13746.99
630.683	14019.37
630.877	13677.36
631.071	13632.3
631.265	13615.92
631.459	13468.47
631.653	13114.17
631.848	13419.32
632.042	13187.89
632.236	13347.64
632.43	13194.04
632.624	13339.44
632.818	12940.09
633.012	12849.98
633.206	12876.6
633.4	12864.32
633.594	12411.71
633.788	12499.78
633.982	12407.62
634.176	12417.86
634.369	12270.4
634.563	12239.69
634.757	12256.07
634.951	12493.63
635.145	12356.42
635.339	12407.62
635.533	11926.35
635.726	12022.6
635.92	11973.45
636.114	11920.2
636.308	11750.22
636.501	11731.79
636.695	11670.35
636.889	11576.14
637.083	11492.18
637.276	11459.41
637.47	11440.98
637.664	11340.63
637.857	11502.42
638.051	11168.6
638.244	11111.25
638.438	11152.21
638.632	11242.32
638.825	11133.78
639.019	11092.82
639.212	10832.73
639.406	10892.12
639.599	10898.27
639.793	10523.49
639.986	10589.02
640.18	10718.04
640.373	10425.18
640.567	10316.64
640.76	10433.38
640.954	10595.17
641.147	10341.22
641.34	10476.38
641.534	10320.74
641.727	10292.07
641.92	10263.4
642.114	10001.26
642.307	10218.34
642.5	9954.15
642.694	9868.14
642.887	9696.11
643.08	9859.95
643.273	9681.77
643.467	9640.81
643.66	9665.39
643.853	9843.56
644.046	9694.06
644.239	9610.09
644.432	9747.31
644.626	9368.43
644.819	9257.84
645.012	9524.08
645.205	9423.73
645.398	9229.17
645.591	9212.79
645.784	9091.96
645.977	9018.23
646.17	8981.37
646.363	9030.52
646.556	8932.22
646.749	8926.07
646.942	8848.25
647.135	8999.8
647.328	8618.88
647.521	8885.11
647.714	8661.88
647.907	8563.58
648.099	8614.78
648.292	8616.83
648.485	8606.59
648.678	8412.03
648.871	8395.65
649.064	8373.12
649.256	8422.27
649.449	8305.54
649.642	8264.58
649.835	8205.19
650.027	8014.73
650.22	8188.8
650.413	8033.16
650.605	7920.52
650.798	8024.97
650.991	7828.36
651.183	7922.57
651.376	7775.11
651.568	7963.53
651.761	7897.99
651.954	7713.67
652.146	7711.63
652.339	7639.95
652.531	7652.24
652.724	7439.25
652.916	7431.05
653.109	7412.62
653.301	7437.2
653.494	7474.06
653.686	7199.63
653.879	7463.82
654.071	7240.59
654.263	7226.26
654.456	7250.83
654.648	7256.98
654.84	7091.09
655.033	7029.65
655.225	7041.94
655.417	7130
655.61	7097.24
655.802	6984.6
655.994	6874.01
656.186	6908.82
656.379	6874.01
656.571	6755.22
656.763	6517.66
656.955	6744.99
657.148	6740.89
657.34	6724.51
657.532	6718.36
657.724	6556.57
657.916	6575
658.108	6673.31
658.3	6503.32
658.492	6519.71
658.684	6390.69
658.876	6224.8
659.068	6421.41
659.26	6308.77
659.452	6224.8
659.644	6173.6
659.836	6329.25
660.028	6038.44
660.22	6077.35
660.412	6030.24
660.604	6112.16
660.796	6024.1
660.988	6097.83
661.18	5954.47
661.372	5911.46
661.563	6026.15
661.755	6030.24
661.947	6028.2
662.139	5915.56
662.331	5839.78
662.522	5790.63
662.714	5759.91
662.906	5811.11
663.097	5639.08
663.289	5696.43
663.481	5616.55
663.673	5651.37
663.864	5538.73
664.056	5542.83
664.247	5637.03
664.439	5534.64
664.631	5397.42
664.822	5528.49
665.014	5352.37
665.205	5405.61
665.397	5389.23
665.588	5391.28
665.78	5409.71
665.971	5290.93
666.163	5368.75
666.354	5223.34
666.546	5200.82
666.737	5256.11
666.929	5223.34
667.12	5163.95
667.311	5153.71
667.503	5051.31
667.694	5014.45
667.885	5008.31
668.077	4955.06
668.268	4965.3
668.459	4981.68
668.651	5014.45
668.842	4838.33
669.033	4989.88
669.224	4889.53
669.416	4955.06
669.607	4895.67
669.798	4817.85
669.989	4891.57
670.18	4750.26
670.371	4576.19
670.563	4631.48
670.754	4649.91
670.945	4705.21
671.136	4582.33
671.327	4764.6
671.518	4633.53
671.709	4594.62
671.9	4742.07
672.091	4572.09
672.282	4471.74
672.473	4357.05
672.664	4457.4
672.855	4471.74
673.046	4529.08
673.237	4469.69
673.428	4529.08
673.619	4473.79
673.809	4309.95
674	4328.38
674.191	4375.49
674.382	4428.73
674.573	4268.99
674.764	4246.46
674.954	4281.28
675.145	4266.94
675.336	4281.28
675.527	4312
675.717	4109.25
675.908	4152.26
676.099	4215.74
676.289	4123.59
676.48	4004.8
676.671	4133.82
676.861	4213.7
677.052	4096.96
677.243	4236.22
677.433	4092.87
677.624	4287.42
677.814	4117.44
678.005	4002.75
678.195	4101.06
678.386	4027.33
678.576	3994.56
678.767	4012.99
678.957	4135.87
679.148	4160.45
679.338	3978.18
679.529	4045.76
679.719	3996.61
679.909	3965.89
680.1	4004.8
680.29	3982.28
680.481	3838.92
680.671	3793.86
680.861	3965.89
681.052	3840.97
681.242	3771.33
681.432	4021.19
681.622	3912.64
681.813	3849.16
682.003	3814.34
682.193	3662.79
682.383	3802.05
682.573	3775.43
682.764	3822.53
682.954	3845.06
683.144	3843.01
683.334	3726.28
683.524	3767.24
683.714	3847.11
683.904	3742.66
684.094	3840.97
684.284	3687.37
684.474	3716.04
684.664	3726.28
684.854	3480.52
685.044	3593.16
685.234	3650.5
685.424	3566.54
685.614	3570.63
685.804	3468.24
685.994	3656.65
686.184	3517.39
686.374	3556.3
686.564	3498.95
686.753	3640.26
686.943	3458
687.133	3482.57
687.323	3638.22
687.513	3421.13
687.702	3480.52
687.892	3525.58
688.082	3513.29
688.272	3451.85
688.461	3474.38
688.651	3445.71
688.841	3298.25
689.03	3371.98
689.22	3294.16
689.41	3290.06
689.599	3232.72
689.789	3333.07
689.979	3257.29
690.168	3169.23
690.358	3247.05
690.547	3050.45
690.737	3066.83
690.926	3152.85
691.116	3242.96
691.305	3226.57
691.495	3154.9
691.684	3126.22
691.874	3169.23
692.063	3126.22
692.252	3052.5
692.442	2991.06
692.631	3048.4
692.82	2964.43
693.01	3007.44
693.199	3007.44
693.388	3095.5
693.578	3093.46
693.767	3029.97
693.956	2933.72
694.146	2900.95
694.335	3007.44
694.524	2853.84
694.713	2909.14
694.902	2978.77
695.092	2849.75
695.281	2911.19
695.47	2823.12
695.659	2831.32
695.848	2716.63
696.037	2776.02
696.226	2870.23
696.415	2747.35
696.604	2900.95
696.793	2849.75
696.982	2788.31
697.171	2919.38
697.36	2849.75
697.549	2728.92
697.738	2696.15
697.927	2780.12
698.116	2757.59
698.305	2792.41
698.494	2749.4
698.683	2753.49
698.872	2808.79
699.061	2728.92
699.25	2769.88
699.438	2735.06
699.627	2808.79
699.816	2726.87
700.005	2802.65
700.193	2784.21
700.382	2716.63
700.571	2778.07
700.76	2669.53
700.948	2642.9
701.137	2718.68
701.326	2712.53
701.514	2698.2
701.703	2733.01
701.892	2712.53
702.08	2739.16
702.269	2677.72
702.457	2704.34
702.646	2794.45
702.834	2829.27
703.023	2706.39
703.212	2749.4
703.4	2690.01
703.589	2630.62
703.777	2808.79
703.965	2616.28
704.154	2659.29
704.342	2540.51
704.531	2591.7
704.719	2647
704.907	2759.64
705.096	2649.05
705.284	2675.67
705.472	2679.77
705.661	2712.53
705.849	2665.43
706.037	2706.39
706.226	2661.34
706.414	2704.34
706.602	2694.1
706.79	2679.77
706.979	2698.2
707.167	2601.94
707.355	2599.9
707.543	2651.1
707.731	2753.49
707.919	2636.76
708.107	2677.72
708.296	2665.43
708.484	2653.14
708.672	2556.89
708.86	2638.81
709.048	2616.28
709.236	2591.7
709.424	2579.42
709.612	2628.57
709.8	2579.42
709.988	2601.94
710.176	2499.55
710.364	2685.91
710.551	2532.31
710.739	2628.57
710.927	2694.1
711.115	2634.71
711.303	2630.62
711.491	2677.72
711.679	2614.23
711.866	2647
712.054	2626.52
712.242	2632.66
712.43	2673.62
712.617	2681.82
712.805	2585.56
712.993	2540.51
713.181	2395.1
713.368	2595.8
713.556	2558.94
713.744	2544.6
713.931	2636.76
714.119	2657.24
714.306	2593.75
714.494	2659.29
714.682	2595.8
714.869	2507.74
715.057	2536.41
715.244	2603.99
715.432	2526.17
715.619	2524.12
715.807	2642.9
715.994	2571.22
716.182	2407.39
716.369	2581.46
716.556	2585.56
716.744	2565.08
716.931	2673.62
717.119	2612.18
717.306	2630.62
717.493	2687.96
717.681	2620.38
717.868	2456.54
718.055	2608.09
718.242	2567.13
718.43	2675.67
718.617	2565.08
718.804	2534.36
718.991	2577.37
719.179	2489.31
719.366	2454.49
719.553	2565.08
719.74	2497.5
719.927	2548.7
720.114	2638.81
720.301	2597.85
720.488	2538.46
720.676	2626.52
720.863	2532.31
721.05	2536.41
721.237	2524.12
721.424	2575.32
721.611	2548.7
721.798	2634.71
721.985	2427.87
722.172	2556.89
722.358	2483.16
722.545	2497.5
722.732	2505.69
722.919	2554.84
723.106	2501.59
723.293	2452.44
723.48	2540.51
723.667	2454.49
723.853	2567.13
724.04	2464.73
724.227	2460.63
724.414	2640.86
724.6	2534.36
724.787	2581.46
724.974	2528.22
725.161	2501.59
725.347	2444.25
725.534	2456.54
725.72	2483.16
725.907	2597.85
726.094	2515.93
726.28	2421.72
726.467	2499.55
726.653	2378.72
726.84	2540.51
727.027	2542.55
727.213	2423.77
727.4	2472.92
727.586	2456.54
727.773	2337.76
727.959	2563.03
728.145	2456.54
728.332	2331.61
728.518	2472.92
728.705	2393.05
728.891	2294.75
729.077	2413.53
729.264	2460.63
729.45	2345.95
729.636	2485.21
729.823	2474.97
730.009	2388.96
730.195	2343.9
730.382	2448.35
730.568	2474.97
730.754	2427.87
730.94	2425.82
731.126	2399.2
731.313	2382.81
731.499	2481.11
731.685	2440.15
731.871	2481.11
732.057	2444.25
732.243	2327.52
732.429	2341.85
732.615	2386.91
732.801	2438.11
732.987	2261.98
733.173	2470.87
733.359	2329.56
733.545	2372.57
733.731	2354.14
733.917	2354.14
734.103	2415.58
734.289	2341.85
734.475	2368.48
734.661	2292.7
734.847	2309.08
735.033	2212.83
735.219	2284.51
735.404	2329.56
735.59	2360.28
735.776	2395.1
735.962	2409.44
736.148	2337.76
736.333	2280.41
736.519	2335.71
736.705	2333.66
736.89	2255.84
737.076	2282.46
737.262	2239.45
737.447	2368.48
737.633	2331.61
737.819	2288.61
738.004	2276.32
738.19	2249.69
738.375	2243.55
738.561	2282.46
738.747	2155.49
738.932	2309.08
739.118	2221.02
739.303	2237.41
739.489	2169.82
739.674	2221.02
739.859	2206.69
740.045	2079.71
740.23	2094.05
740.416	2126.82
740.601	2057.18
740.786	2104.29
740.972	2118.62
741.157	2149.34
741.342	2106.34
741.528	2085.86
741.713	2194.4
741.898	2128.86
742.084	2206.69
742.269	2173.92
742.454	2108.38
742.639	2008.03
742.824	1971.17
743.01	2020.32
743.195	2092
743.38	2098.14
743.565	1962.98
743.75	2139.1
743.935	1952.74
744.12	1942.5
744.305	2069.47
744.49	2098.14
744.675	2020.32
744.86	1989.6
745.045	1942.5
745.23	1958.88
745.415	1993.7
745.6	1913.83
745.785	1889.25
745.97	1815.52
746.155	1922.02
746.34	1950.69
746.525	1876.96
746.71	1885.16
746.895	1895.4
747.079	1731.56
747.264	1958.88
747.449	1881.06
747.634	1827.81
747.819	1793
748.003	1848.29
748.188	1735.65
748.373	1803.24
748.557	1840.1
748.742	1688.55
748.927	1778.66
749.111	1745.89
749.296	1717.22
749.481	1811.43
749.665	1702.89
749.85	1698.79
750.034	1674.21
750.219	1532.9
750.404	1649.64
750.588	1620.97
750.773	1678.31
750.957	1651.69
751.141	1586.15
751.326	1541.1
751.51	1504.23
751.695	1514.47
751.879	1524.71
752.064	1551.34
752.248	1590.25
752.432	1577.96
752.617	1520.62
752.801	1633.26
752.985	1528.81
753.17	1522.66
753.354	1412.07
753.538	1424.36
753.722	1436.65
753.907	1362.92
754.091	1467.37
754.275	1448.94
754.459	1348.59
754.643	1360.88
754.828	1453.03
755.012	1381.35
755.196	1340.4
755.38	1254.38
755.564	1272.81
755.748	1342.44
755.932	1364.97
756.116	1321.96
756.3	1324.01
756.484	1379.31
756.668	1313.77
756.852	1168.37
757.036	1250.28
757.22	1221.61
757.404	1289.2
757.588	1244.14
757.772	1194.99
757.956	1194.99
758.14	1162.22
758.323	1154.03
758.507	1190.89
758.691	1278.96
758.875	1160.17
759.059	1090.54
759.242	1178.61
759.426	1176.56
759.61	1133.55
759.794	1170.41
759.977	1199.09
760.161	1106.93
760.345	1133.55
760.528	1100.78
760.712	1129.45
760.895	1139.69
761.079	1162.22
761.263	1082.35
761.446	1047.54
761.63	1133.55
761.813	1012.72
761.997	959.47
762.18	1184.75
762.364	1045.49
762.547	984.05
762.731	1154.03
762.914	1020.91
763.098	1049.58
763.281	941.04
763.464	1035.25
763.648	920.56
763.831	953.33
764.015	988.14
764.198	967.67
764.381	1061.87
764.564	959.47
764.748	949.23
764.931	1068.02
765.114	957.43
765.297	994.29
765.481	922.61
765.664	912.37
765.847	1006.58
766.03	986.1
766.213	898.03
766.397	975.86
766.58	920.56
766.763	961.52
766.946	902.13
767.129	957.43
767.312	869.36
767.495	902.13
767.678	922.61
767.861	941.04
768.044	873.46
768.227	908.27
768.41	941.04
768.593	834.55
768.776	887.79
768.959	945.14
769.142	936.95
769.324	881.65
769.507	887.79
769.69	758.77
769.873	898.03
770.056	805.88
770.239	865.27
770.421	838.64
770.604	871.41
770.787	824.31
770.97	844.79
771.152	783.35
771.335	867.31
771.518	785.4
771.7	801.78
771.883	777.2
772.066	834.55
772.248	875.51
772.431	830.45
772.613	801.78
772.796	687.09
772.978	691.19
773.161	830.45
773.343	785.4
773.526	713.72
773.708	738.29
773.891	742.39
774.073	773.11
774.256	728.05
774.438	863.22
774.621	670.71
774.803	693.24
774.985	752.63
775.168	699.38
775.35	693.24
775.532	734.2
775.715	654.33
775.897	775.16
776.079	715.77
776.261	674.81
776.444	711.67
776.626	795.64
776.808	650.23
776.99	631.8
777.173	599.03
777.355	683
777.537	625.65
777.719	637.94
777.901	654.33
778.083	621.56
778.265	596.98
778.447	701.43
778.629	594.93
778.811	607.22
778.993	650.23
779.175	605.17
779.357	629.75
779.539	578.55
779.721	601.08
779.903	572.41
780.085	570.36
780.267	644.09
780.449	519.16
780.631	590.84
780.812	543.74
780.994	539.64
781.176	541.69
781.358	560.12
781.54	453.63
781.721	592.89
781.903	480.25
782.085	541.69
782.267	566.26
782.448	467.96
782.63	510.97
782.812	590.84
782.993	515.06
783.175	537.59
783.357	478.2
783.538	414.71
783.72	502.78
783.901	361.47
784.083	486.39
784.264	410.62
784.446	412.67
784.627	478.2
784.809	496.63
784.99	422.91
785.172	467.96
785.353	445.43
785.535	427
785.716	420.86
785.897	427
786.079	445.43
786.26	484.34
786.441	406.52
786.623	367.61
786.804	363.51
786.985	330.75
787.167	406.52
787.348	429.05
787.529	467.96
787.71	402.43
787.891	340.99
788.073	340.99
788.254	369.66
788.435	297.98
788.616	369.66
788.797	447.48
788.978	381.95
789.159	441.34
789.34	476.15
789.522	381.95
789.703	392.19
789.884	383.99
790.065	369.66
790.246	318.46
790.427	373.75
790.607	406.52
790.788	359.42
790.969	304.12
791.15	355.32
791.331	302.08
791.512	306.17
791.693	363.51
791.874	295.93
792.054	361.47
792.235	347.13
792.416	328.7
792.597	355.32
792.778	304.12
792.958	328.7
793.139	300.03
793.32	271.36
793.5	312.32
793.681	267.26
793.862	295.93
794.042	318.46
794.223	281.6
794.404	279.55
794.584	267.26
794.765	240.64
794.945	246.78
795.126	324.6
795.306	404.47
795.487	254.97
795.667	267.26
795.848	310.27
796.028	300.03
796.209	228.35
796.389	183.29
796.57	279.55
796.75	273.4
796.93	293.88
797.111	220.16
797.291	353.27
797.471	281.6
797.652	265.21
797.832	283.64
798.012	224.25
798.192	271.36
798.373	232.44
798.553	216.06
798.733	277.5
798.913	207.87
799.093	254.97
799.274	203.77
799.454	269.31
799.634	230.4
799.814	207.87
799.994	197.63
800.174	218.11
800.354	201.72
800.534	175.1
800.714	252.92
800.894	252.92
801.074	220.16
801.254	224.25
801.434	269.31
801.614	197.63
801.794	193.53
801.974	607.22
802.154	179.2
802.334	281.6
802.514	224.25
802.693	250.88
802.873	152.57
803.053	273.4
803.233	257.02
803.413	257.02
803.592	261.12
803.772	156.67
803.952	230.4
804.131	158.72
804.311	326.65
804.491	222.2
804.67	113.66
804.85	209.92
805.03	271.36
805.209	273.4
805.389	211.96
805.568	224.25
805.748	234.49
805.928	236.54
806.107	154.62
806.287	197.63
806.466	224.25
806.646	205.82
806.825	113.66
807.004	179.2
807.184	158.72
807.363	138.24
807.543	164.86
807.722	222.2
807.901	240.64
808.081	185.34
808.26	123.9
808.439	91.13
808.619	101.37
808.798	177.15
808.977	160.77
809.156	211.96
809.336	72.7
809.515	220.16
809.694	140.29
809.873	95.23
810.052	199.68
810.231	166.91
810.411	156.67
810.59	138.24
810.769	132.09
810.948	148.48
811.127	107.52
811.306	113.66
811.485	175.1
811.664	211.96
811.843	177.15
812.022	185.34
812.201	99.33
812.38	173.05
812.559	146.43
812.737	154.62
812.916	117.76
813.095	130.05
813.274	117.76
813.453	140.29
813.632	189.44
813.811	173.05
813.989	179.2
814.168	162.81
814.347	37.89
814.526	123.9
814.704	152.57
814.883	107.52
815.062	72.7
815.24	101.37
815.419	130.05
815.598	128
815.776	168.96
815.955	205.82
816.133	58.37
816.312	148.48
816.49	82.94
816.669	148.48
816.847	68.61
817.026	134.14
817.204	130.05
817.383	187.39
817.561	121.85
817.74	84.99
817.918	150.53
818.097	187.39
818.275	148.48
818.453	175.1
818.632	95.23
818.81	52.22
818.988	56.32
819.167	140.29
819.345	119.81
819.523	148.48
819.701	156.67
819.879	97.28
820.058	76.8
820.236	68.61
820.414	105.47
820.592	74.75
820.77	132.09
820.948	123.9
821.127	60.42
821.305	115.71
821.483	89.09
821.661	123.9
821.839	68.61
822.017	80.89
822.195	117.76
822.373	113.66
822.551	140.29
822.729	117.76
822.907	87.04
823.085	97.28
823.262	33.79
823.44	107.52
823.618	82.94
823.796	115.71
823.974	87.04
824.152	62.46
824.329	68.61
824.507	142.33
824.685	64.51
824.863	66.56
825.04	66.56
825.218	35.84
825.396	66.56
825.574	87.04
825.751	125.95
825.929	80.89
826.107	111.61
826.284	82.94
826.462	1.02
826.639	58.37
826.817	64.51
826.994	168.96
827.172	68.61
827.349	138.24
827.527	68.61
827.704	70.65
827.882	103.42
828.059	113.66
828.237	66.56
828.414	119.81
828.591	89.09
828.769	68.61
828.946	37.89
829.124	158.72
829.301	95.23
829.478	82.94
829.655	82.94
829.833	41.98
830.01	91.13
830.187	82.94
830.364	46.08
830.542	103.42
830.719	84.99
830.896	39.94
831.073	99.33
831.25	62.46
831.427	117.76
831.604	119.81
831.782	-31.74
831.959	113.66
832.136	101.37
832.313	97.28
832.49	95.23
832.667	107.52
832.844	13.31
833.021	31.74
833.198	33.79
833.374	123.9
833.551	95.23
833.728	68.61
833.905	115.71
834.082	82.94
834.259	54.27
834.436	87.04
834.612	-19.46
834.789	128
834.966	105.47
835.143	68.61
835.319	46.08
835.496	101.37
835.673	62.46
835.85	130.05
836.026	17.41
836.203	5.12
836.38	128
836.556	62.46
836.733	76.8
836.909	74.75
837.086	37.89
837.262	-11.26
837.439	-13.31
837.616	29.7
837.792	74.75
837.968	64.51
838.145	44.03
838.321	56.32
838.498	31.74
838.674	84.99
838.851	76.8
839.027	54.27
839.203	101.37
839.38	117.76
839.556	74.75
839.732	-1.02
839.909	80.89
840.085	64.51
840.261	19.46
840.437	115.71
840.614	23.55
840.79	33.79
840.966	80.89
841.142	58.37
841.318	41.98
841.494	50.18
841.671	39.94
841.847	48.13
842.023	15.36
842.199	31.74
842.375	87.04
842.551	29.7
842.727	11.26
842.903	91.13
843.079	70.65
843.255	80.89
843.431	58.37
843.607	23.55
843.783	-3.07
843.959	74.75
844.134	27.65
844.31	68.61
844.486	54.27
844.662	64.51
844.838	56.32
845.013	11.26
845.189	35.84
845.365	84.99
845.541	-62.46
845.716	21.5
845.892	-5.12
846.068	15.36
846.244	-5.12
846.419	60.42
846.595	-48.13
846.77	-35.84
846.946	60.42
847.122	3.07
847.297	48.13
847.473	56.32
847.648	25.6
847.824	56.32
847.999	35.84
848.175	33.79
848.35	46.08
848.526	1.02
848.701	115.71
848.876	21.5
849.052	93.18
849.227	91.13
849.403	3.07
849.578	84.99
849.753	78.85
849.929	48.13
850.104	-44.03
850.279	46.08
850.454	66.56
850.63	35.84
850.805	37.89
850.98	80.89
851.155	60.42
851.33	1.02
851.505	-13.31
851.681	72.7
851.856	-21.5
852.031	15.36
852.206	60.42
852.381	56.32
852.556	29.7
852.731	23.55
852.906	33.79
853.081	70.65
853.256	17.41
853.431	52.22
853.606	17.41
853.781	-21.5
853.956	15.36
854.131	9.22
854.305	64.51
854.48	35.84
854.655	29.7
854.83	-1.02
855.005	21.5
855.18	-15.36
855.354	44.03
855.529	29.7
855.704	5.12
855.879	44.03
856.053	-41.98
856.228	41.98
856.403	-17.41
856.577	-1.02
856.752	37.89
856.926	-1.02
857.101	-1.02
857.276	13.31
857.45	21.5
857.625	107.52
857.799	3.07
857.974	1.02
858.148	-80.89
858.323	48.13
858.497	35.84
858.672	52.22
858.846	-27.65
859.02	72.7
859.195	-7.17
859.369	-27.65
859.543	13.31
859.718	27.65
859.892	-3.07
860.066	27.65
860.241	-9.22
860.415	-48.13
860.589	9.22
860.763	17.41
860.938	-3.07
861.112	-17.41
861.286	-3.07
861.46	-15.36
861.634	15.36
861.808	62.46
861.982	80.89
862.157	13.31
862.331	39.94
862.505	23.55
862.679	-5.12
862.853	-11.26
863.027	-1.02
863.201	101.37
863.375	-7.17
863.549	13.31
863.722	5.12
863.896	50.18
864.07	29.7
864.244	37.89
864.418	54.27
864.592	23.55
864.766	-11.26
864.939	91.13
865.113	9.22
865.287	-1.02
865.461	-1.02
865.634	50.18
865.808	70.65
865.982	52.22
866.156	15.36
866.329	13.31
866.503	46.08
866.676	68.61
866.85	25.6
867.024	27.65
867.197	21.5
867.371	44.03
867.544	-19.46
867.718	-19.46
867.891	33.79
868.065	-33.79
868.238	-5.12
868.412	68.61
868.585	54.27
868.759	66.56
868.932	-39.94
869.105	-25.6
869.279	-29.7
869.452	-9.22
869.625	60.42
869.799	11.26
869.972	91.13
870.145	-29.7
870.319	5.12
870.492	-21.5
870.665	9.22
870.838	-11.26
871.011	-1.02
871.185	-15.36
871.358	-48.13
871.531	15.36
871.704	-33.79
871.877	31.74
872.05	9.22
872.223	-9.22
872.396	-29.7
872.569	50.18
872.742	-9.22
872.915	-13.31
873.088	23.55
873.261	-58.37
873.434	29.7
873.607	-1.02
873.78	66.56
873.953	-44.03
874.126	3.07
874.299	-19.46
874.471	-7.17
874.644	-7.17
874.817	44.03
874.99	-11.26
875.163	19.46
875.335	7.17
875.508	-17.41
875.681	76.8
875.853	-39.94
876.026	-54.27
876.199	15.36
876.371	15.36
876.544	80.89
876.717	70.65
876.889	25.6
877.062	64.51
877.234	-97.28
877.407	-7.17
877.579	7.17
877.752	19.46
877.924	1.02
878.097	82.94
878.269	-23.55
878.442	46.08
878.614	-5.12
878.786	-31.74
878.959	-66.56
879.131	5.12
879.303	-56.32
879.476	-1.02
879.648	33.79
879.82	19.46
879.993	-62.46
880.165	68.61
880.337	-39.94
880.509	15.36
880.681	17.41
880.854	29.7
881.026	21.5
881.198	13.31
881.37	-5.12
881.542	-48.13
881.714	-37.89
881.886	33.79
882.058	-13.31
882.23	-23.55
882.402	-13.31
882.574	84.99
882.746	-9.22
882.918	15.36
883.09	-3.07
883.262	44.03
883.434	-41.98
883.606	-7.17
883.778	58.37
883.95	58.37
884.122	-3.07
884.293	115.71
884.465	-25.6
884.637	-9.22
884.809	-29.7
884.98	-46.08
885.152	64.51
885.324	39.94
885.496	50.18
885.667	-31.74
885.839	-62.46
886.011	37.89
886.182	-72.7
886.354	74.75
886.525	33.79
886.697	29.7
886.869	-41.98
887.04	-44.03
887.212	74.75
887.383	89.09
887.555	13.31
887.726	21.5
887.897	-54.27
888.069	-41.98
888.24	7.17
888.412	17.41
888.583	72.7
888.754	39.94
888.926	-1.02
889.097	7.17
889.268	19.46
889.44	-84.99
889.611	-1.02
889.782	-19.46
889.953	-48.13
890.125	-25.6
890.296	-76.8
890.467	-9.22
890.638	-17.41
890.809	37.89
890.98	31.74
891.151	-15.36
891.323	37.89
891.494	-9.22
891.665	31.74
891.836	5.12
892.007	-33.79
892.178	72.7
892.349	17.41
892.52	7.17
892.691	46.08
892.862	25.6
893.032	-3.07
893.203	-3.07
893.374	-25.6
893.545	-19.46
893.716	-11.26
893.887	35.84
894.057	13.31
894.228	54.27
894.399	50.18
894.57	29.7
894.74	-68.61
894.911	27.65
895.082	15.36
895.253	23.55
895.423	-37.89
895.594	62.46
895.764	27.65
895.935	-72.7
896.106	54.27
896.276	-15.36
896.447	5.12
896.617	25.6
896.788	21.5
896.958	9.22
897.129	-68.61
897.299	46.08
897.47	31.74
897.64	103.42
897.81	-5.12
897.981	35.84
898.151	-27.65
898.322	-1.02
898.492	13.31
898.662	46.08
898.832	-7.17
899.003	23.55
899.173	7.17
899.343	7.17
899.513	9.22
