Data from USB4F104151__72__12-02-05-366.txt Node

Date: Fri Mar 14 12:02:05 EDT 2025
User: louis
Spectrometer: USB4F10415
Trigger mode: 4
Integration Time (sec): 2.000000E-2
Scans to average: 1
Electric dark correction enabled: true
Nonlinearity correction enabled: false
Boxcar width: 0
XAxis mode: Wavelengths
Number of Pixels in Spectrum: 3648
>>>>>Begin Spectral Data<<<<<
178.204	-84.14
178.424	-84.14
178.644	-84.14
178.864	-155.82
179.084	-118.95
179.304	-39.08
179.524	8.02
179.744	-20.65
179.964	32.6
180.184	-37.03
180.404	-14.51
180.624	34.64
180.844	-16.55
181.064	-65.71
181.283	18.26
181.503	38.74
181.723	61.27
181.943	46.93
182.163	5.97
182.383	73.56
182.602	-16.55
182.822	-45.23
183.042	-28.84
183.262	-14.51
183.482	-49.32
183.701	34.64
183.921	1.88
184.141	8.02
184.361	26.45
184.58	-2.22
184.8	-18.6
185.02	40.79
185.239	75.6
185.459	42.84
185.679	32.6
185.898	89.94
186.118	85.84
186.338	-18.6
186.557	10.07
186.777	46.93
186.997	20.31
187.216	67.41
187.436	30.55
187.655	-0.17
187.875	18.26
188.095	3.93
188.314	81.75
188.534	51.03
188.753	36.69
188.973	51.03
189.192	-8.36
189.412	18.26
189.631	-28.84
189.851	51.03
190.07	87.89
190.29	-14.51
190.509	89.94
190.729	-28.84
190.948	-0.17
191.168	87.89
191.387	18.26
191.607	61.27
191.826	-14.51
192.045	5.97
192.265	14.17
192.484	53.08
192.704	-14.51
192.923	-73.9
193.142	38.74
193.362	42.84
193.581	89.94
193.8	34.64
194.02	36.69
194.239	53.08
194.458	-0.17
194.678	3.93
194.897	-10.41
195.116	30.55
195.335	-37.03
195.555	42.84
195.774	5.97
195.993	51.03
196.212	-6.31
196.432	38.74
196.651	65.36
196.87	-12.46
197.089	40.79
197.308	55.12
197.528	81.75
197.747	-12.46
197.966	28.5
198.185	34.64
198.404	-0.17
198.623	-10.41
198.842	44.88
199.062	55.12
199.281	83.8
199.5	20.31
199.719	14.17
199.938	98.13
200.157	18.26
200.376	1.88
200.595	67.41
200.814	-14.51
201.033	30.55
201.252	-10.41
201.471	36.69
201.69	-6.31
201.909	48.98
202.128	38.74
202.347	30.55
202.566	30.55
202.785	-16.55
203.004	14.17
203.223	44.88
203.442	12.12
203.661	16.21
203.879	28.5
204.098	55.12
204.317	26.45
204.536	8.02
204.755	42.84
204.974	-22.7
205.193	-2.22
205.411	30.55
205.63	26.45
205.849	34.64
206.068	102.23
206.287	57.17
206.505	135
206.724	-41.13
206.943	-6.31
207.162	69.46
207.381	-14.51
207.599	81.75
207.818	-39.08
208.037	-0.17
208.255	53.08
208.474	51.03
208.693	-6.31
208.911	26.45
209.13	55.12
209.349	59.22
209.567	83.8
209.786	48.98
210.005	-10.41
210.223	48.98
210.442	28.5
210.661	40.79
210.879	46.93
211.098	81.75
211.316	-39.08
211.535	69.46
211.753	-18.6
211.972	110.42
212.191	-43.18
212.409	118.61
212.628	-8.36
212.846	8.02
213.065	26.45
213.283	20.31
213.502	46.93
213.72	77.65
213.938	-2.22
214.157	16.21
214.375	-0.17
214.594	-14.51
214.812	-10.41
215.031	3.93
215.249	20.31
215.467	-16.55
215.686	44.88
215.904	96.08
216.122	-2.22
216.341	1.88
216.559	5.97
216.778	-37.03
216.996	12.12
217.214	20.31
217.432	22.36
217.651	1.88
217.869	36.69
218.087	5.97
218.306	1.88
218.524	100.18
218.742	-8.36
218.96	71.51
219.179	44.88
219.397	135
219.615	57.17
219.833	63.32
220.051	-45.23
220.27	67.41
220.488	59.22
220.706	-8.36
220.924	34.64
221.142	22.36
221.36	44.88
221.578	24.4
221.796	18.26
222.015	3.93
222.233	-39.08
222.451	89.94
222.669	-65.71
222.887	87.89
223.105	-22.7
223.323	42.84
223.541	-16.55
223.759	48.98
223.977	32.6
224.195	48.98
224.413	24.4
224.631	5.97
224.849	3.93
225.067	71.51
225.285	55.12
225.503	14.17
225.721	12.12
225.939	38.74
226.157	42.84
226.375	26.45
226.592	91.99
226.81	71.51
227.028	12.12
227.246	100.18
227.464	18.26
227.682	-49.32
227.9	34.64
228.117	20.31
228.335	73.56
228.553	77.65
228.771	14.17
228.989	8.02
229.206	-80.04
229.424	48.98
229.642	1.88
229.86	40.79
230.077	83.8
230.295	48.98
230.513	-22.7
230.731	61.27
230.948	-2.22
231.166	-18.6
231.384	18.26
231.601	36.69
231.819	44.88
232.037	-10.41
232.254	20.31
232.472	-67.75
232.689	-22.7
232.907	14.17
233.125	20.31
233.342	-32.94
233.56	104.28
233.777	-12.46
233.995	40.79
234.213	96.08
234.43	22.36
234.648	-26.79
234.865	83.8
235.083	59.22
235.3	14.17
235.518	77.65
235.735	5.97
235.953	12.12
236.17	32.6
236.388	48.98
236.605	14.17
236.822	42.84
237.04	5.97
237.257	75.6
237.475	85.84
237.692	48.98
237.909	57.17
238.127	22.36
238.344	57.17
238.562	-8.36
238.779	-22.7
238.996	67.41
239.214	-10.41
239.431	89.94
239.648	3.93
239.865	42.84
240.083	79.7
240.3	5.97
240.517	36.69
240.735	-4.27
240.952	91.99
241.169	8.02
241.386	20.31
241.603	-32.94
241.821	1.88
242.038	26.45
242.255	100.18
242.472	26.45
242.689	44.88
242.907	73.56
243.124	-20.65
243.341	30.55
243.558	-6.31
243.775	-14.51
243.992	8.02
244.209	69.46
244.426	-0.17
244.643	10.07
244.86	32.6
245.078	73.56
245.295	24.4
245.512	-30.89
245.729	10.07
245.946	120.66
246.163	69.46
246.38	44.88
246.597	34.64
246.814	20.31
247.031	59.22
247.248	-12.46
247.464	57.17
247.681	-2.22
247.898	36.69
248.115	65.36
248.332	18.26
248.549	67.41
248.766	63.32
248.983	-45.23
249.2	46.93
249.417	48.98
249.633	10.07
249.85	-26.79
250.067	77.65
250.284	24.4
250.501	1.88
250.717	59.22
250.934	-22.7
251.151	61.27
251.368	26.45
251.585	12.12
251.801	5.97
252.018	38.74
252.235	75.6
252.451	-0.17
252.668	34.64
252.885	-53.42
253.102	46.93
253.318	22.36
253.535	3.93
253.752	20.31
253.968	42.84
254.185	-10.41
254.401	1.88
254.618	34.64
254.835	20.31
255.051	69.46
255.268	12.12
255.484	-22.7
255.701	-16.55
255.917	14.17
256.134	48.98
256.351	5.97
256.567	-14.51
256.784	57.17
257	-8.36
257.217	26.45
257.433	40.79
257.65	36.69
257.866	100.18
258.082	63.32
258.299	-26.79
258.515	87.89
258.732	24.4
258.948	61.27
259.165	67.41
259.381	5.97
259.597	40.79
259.814	10.07
260.03	-2.22
260.246	-6.31
260.463	42.84
260.679	87.89
260.895	-45.23
261.112	65.36
261.328	22.36
261.544	-20.65
261.761	83.8
261.977	-47.27
262.193	3.93
262.409	-4.27
262.626	32.6
262.842	81.75
263.058	44.88
263.274	65.36
263.49	16.21
263.707	24.4
263.923	61.27
264.139	12.12
264.355	-6.31
264.571	63.32
264.787	28.5
265.004	-30.89
265.22	20.31
265.436	-14.51
265.652	87.89
265.868	-32.94
266.084	46.93
266.3	22.36
266.516	-51.37
266.732	91.99
266.948	55.12
267.164	55.12
267.38	71.51
267.596	32.6
267.812	100.18
268.028	100.18
268.244	22.36
268.46	38.74
268.676	8.02
268.892	77.65
269.108	-4.27
269.324	34.64
269.54	-14.51
269.756	32.6
269.972	20.31
270.188	75.6
270.403	28.5
270.619	44.88
270.835	22.36
271.051	89.94
271.267	-24.75
271.483	81.75
271.698	61.27
271.914	-6.31
272.13	-12.46
272.346	69.46
272.562	53.08
272.777	69.46
272.993	14.17
273.209	22.36
273.425	26.45
273.64	106.32
273.856	32.6
274.072	16.21
274.287	-59.56
274.503	46.93
274.719	-47.27
274.934	12.12
275.15	24.4
275.366	83.8
275.581	-28.84
275.797	-8.36
276.012	-18.6
276.228	61.27
276.444	22.36
276.659	26.45
276.875	-24.75
277.09	40.79
277.306	94.04
277.521	87.89
277.737	-43.18
277.952	65.36
278.168	8.02
278.383	-8.36
278.599	-22.7
278.814	46.93
279.03	98.13
279.245	100.18
279.461	24.4
279.676	48.98
279.892	8.02
280.107	24.4
280.322	20.31
280.538	32.6
280.753	67.41
280.969	5.97
281.184	22.36
281.399	85.84
281.615	44.88
281.83	8.02
282.045	-0.17
282.26	8.02
282.476	65.36
282.691	61.27
282.906	46.93
283.122	36.69
283.337	-4.27
283.552	73.56
283.767	-49.32
283.983	87.89
284.198	87.89
284.413	46.93
284.628	59.22
284.843	73.56
285.058	96.08
285.274	-4.27
285.489	24.4
285.704	-14.51
285.919	22.36
286.134	30.55
286.349	71.51
286.564	91.99
286.779	38.74
286.995	57.17
287.21	38.74
287.425	34.64
287.64	18.26
287.855	71.51
288.07	24.4
288.285	32.6
288.5	106.32
288.715	22.36
288.93	-24.75
289.145	12.12
289.36	61.27
289.575	38.74
289.79	5.97
290.004	26.45
290.219	59.22
290.434	14.17
290.649	-4.27
290.864	75.6
291.079	26.45
291.294	46.93
291.509	42.84
291.724	81.75
291.938	61.27
292.153	22.36
292.368	-12.46
292.583	81.75
292.798	20.31
293.012	34.64
293.227	55.12
293.442	-53.42
293.657	-14.51
293.871	32.6
294.086	48.98
294.301	34.64
294.516	44.88
294.73	-2.22
294.945	12.12
295.16	65.36
295.374	16.21
295.589	63.32
295.804	5.97
296.018	-12.46
296.233	75.6
296.447	34.64
296.662	24.4
296.877	18.26
297.091	59.22
297.306	44.88
297.52	-24.75
297.735	28.5
297.949	48.98
298.164	110.42
298.378	36.69
298.593	-4.27
298.807	5.97
299.022	-32.94
299.236	77.65
299.451	-22.7
299.665	48.98
299.88	-12.46
300.094	-6.31
300.309	-34.99
300.523	28.5
300.737	-10.41
300.952	1.88
301.166	44.88
301.381	-10.41
301.595	-10.41
301.809	57.17
302.024	32.6
302.238	77.65
302.452	24.4
302.667	-4.27
302.881	18.26
303.095	106.32
303.309	36.69
303.524	-28.84
303.738	46.93
303.952	38.74
304.166	57.17
304.381	-4.27
304.595	42.84
304.809	5.97
305.023	-10.41
305.237	-22.7
305.452	100.18
305.666	44.88
305.88	24.4
306.094	10.07
306.308	102.23
306.522	42.84
306.736	16.21
306.95	73.56
307.164	51.03
307.379	48.98
307.593	1.88
307.807	96.08
308.021	-6.31
308.235	14.17
308.449	30.55
308.663	34.64
308.877	124.76
309.091	-6.31
309.305	87.89
309.519	8.02
309.733	89.94
309.947	42.84
310.161	42.84
310.374	65.36
310.588	20.31
310.802	-55.47
311.016	26.45
311.23	51.03
311.444	-4.27
311.658	18.26
311.872	83.8
312.085	-6.31
312.299	81.75
312.513	65.36
312.727	65.36
312.941	91.99
313.154	32.6
313.368	1.88
313.582	48.98
313.796	-0.17
314.009	-8.36
314.223	-26.79
314.437	-14.51
314.651	14.17
314.864	18.26
315.078	51.03
315.292	40.79
315.505	55.12
315.719	57.17
315.933	-14.51
316.146	16.21
316.36	-77.99
316.573	98.13
316.787	48.98
317.001	1.88
317.214	-18.6
317.428	22.36
317.641	38.74
317.855	26.45
318.068	75.6
318.282	-18.6
318.495	16.21
318.709	-30.89
318.922	-0.17
319.136	149.33
319.349	57.17
319.563	44.88
319.776	22.36
319.99	-43.18
320.203	-22.7
320.417	120.66
320.63	81.75
320.843	71.51
321.057	-28.84
321.27	36.69
321.483	85.84
321.697	65.36
321.91	-0.17
322.124	42.84
322.337	5.97
322.55	22.36
322.763	20.31
322.977	61.27
323.19	12.12
323.403	77.65
323.617	36.69
323.83	32.6
324.043	-14.51
324.256	42.84
324.469	26.45
324.683	65.36
324.896	-6.31
325.109	71.51
325.322	44.88
325.535	-8.36
325.748	32.6
325.962	55.12
326.175	65.36
326.388	75.6
326.601	91.99
326.814	71.51
327.027	14.17
327.24	26.45
327.453	-41.13
327.666	8.02
327.879	-0.17
328.092	-26.79
328.305	-2.22
328.518	44.88
328.731	-14.51
328.944	48.98
329.157	48.98
329.37	-37.03
329.583	71.51
329.796	124.76
330.009	12.12
330.222	63.32
330.435	42.84
330.648	73.56
330.861	-8.36
331.073	28.5
331.286	91.99
331.499	24.4
331.712	73.56
331.925	-12.46
332.138	32.6
332.35	22.36
332.563	-45.23
332.776	59.22
332.989	34.64
333.202	18.26
333.414	32.6
333.627	71.51
333.84	-12.46
334.053	5.97
334.265	53.08
334.478	53.08
334.691	28.5
334.903	18.26
335.116	114.52
335.329	96.08
335.541	-6.31
335.754	83.8
335.966	-41.13
336.179	38.74
336.392	28.5
336.604	3.93
336.817	59.22
337.029	53.08
337.242	46.93
337.454	102.23
337.667	69.46
337.88	89.94
338.092	-14.51
338.305	94.04
338.517	-10.41
338.729	42.84
338.942	85.84
339.154	28.5
339.367	26.45
339.579	1.88
339.792	57.17
340.004	26.45
340.217	57.17
340.429	55.12
340.641	75.6
340.854	24.4
341.066	65.36
341.278	71.51
341.491	104.28
341.703	85.84
341.915	-59.56
342.128	-18.6
342.34	-26.79
342.552	55.12
342.764	8.02
342.977	65.36
343.189	122.71
343.401	-2.22
343.613	1.88
343.826	81.75
344.038	71.51
344.25	73.56
344.462	14.17
344.674	57.17
344.886	51.03
345.099	96.08
345.311	8.02
345.523	12.12
345.735	-20.65
345.947	26.45
346.159	14.17
346.371	102.23
346.583	65.36
346.795	38.74
347.007	-16.55
347.219	8.02
347.431	77.65
347.643	26.45
347.855	-20.65
348.067	34.64
348.279	44.88
348.491	30.55
348.703	77.65
348.915	73.56
349.127	24.4
349.339	65.36
349.551	-26.79
349.763	73.56
349.975	-20.65
350.187	73.56
350.399	-43.18
350.61	53.08
350.822	12.12
351.034	12.12
351.246	67.41
351.458	104.28
351.669	120.66
351.881	102.23
352.093	22.36
352.305	24.4
352.517	38.74
352.728	44.88
352.94	18.26
353.152	42.84
353.363	30.55
353.575	67.41
353.787	130.9
353.999	18.26
354.21	63.32
354.422	8.02
354.633	16.21
354.845	46.93
355.057	14.17
355.268	40.79
355.48	112.47
355.692	-14.51
355.903	44.88
356.115	22.36
356.326	-2.22
356.538	57.17
356.749	8.02
356.961	108.37
357.172	57.17
357.384	22.36
357.595	67.41
357.807	-10.41
358.018	-10.41
358.23	34.64
358.441	71.51
358.653	46.93
358.864	89.94
359.075	51.03
359.287	51.03
359.498	38.74
359.709	85.84
359.921	102.23
360.132	77.65
360.344	51.03
360.555	89.94
360.766	22.36
360.977	87.89
361.189	102.23
361.4	28.5
361.611	55.12
361.823	71.51
362.034	79.7
362.245	22.36
362.456	46.93
362.667	10.07
362.879	3.93
363.09	12.12
363.301	-41.13
363.512	89.94
363.723	-2.22
363.935	87.89
364.146	32.6
364.357	81.75
364.568	20.31
364.779	-2.22
364.99	55.12
365.201	1.88
365.412	122.71
365.623	28.5
365.834	36.69
366.045	102.23
366.256	55.12
366.467	61.27
366.678	36.69
366.889	55.12
367.1	65.36
367.311	20.31
367.522	-26.79
367.733	57.17
367.944	5.97
368.155	102.23
368.366	36.69
368.577	32.6
368.788	40.79
368.999	14.17
369.209	26.45
369.42	135
369.631	46.93
369.842	87.89
370.053	55.12
370.264	46.93
370.474	12.12
370.685	89.94
370.896	-4.27
371.107	98.13
371.317	104.28
371.528	-2.22
371.739	8.02
371.95	46.93
372.16	51.03
372.371	16.21
372.582	1.88
372.792	24.4
373.003	132.95
373.214	85.84
373.424	75.6
373.635	12.12
373.846	65.36
374.056	32.6
374.267	12.12
374.477	-18.6
374.688	24.4
374.898	10.07
375.109	28.5
375.319	77.65
375.53	108.37
375.74	16.21
375.951	57.17
376.161	14.17
376.372	65.36
376.582	-14.51
376.793	118.61
377.003	-12.46
377.214	42.84
377.424	5.97
377.635	-8.36
377.845	32.6
378.055	32.6
378.266	65.36
378.476	36.69
378.686	12.12
378.897	-10.41
379.107	32.6
379.317	114.52
379.528	63.32
379.738	8.02
379.948	30.55
380.158	110.42
380.369	42.84
380.579	96.08
380.789	57.17
380.999	10.07
381.21	81.75
381.42	96.08
381.63	44.88
381.84	32.6
382.05	85.84
382.261	81.75
382.471	38.74
382.681	-12.46
382.891	-6.31
383.101	1.88
383.311	-28.84
383.521	89.94
383.731	51.03
383.941	73.56
384.151	75.6
384.361	51.03
384.571	81.75
384.781	79.7
384.991	55.12
385.201	102.23
385.411	28.5
385.621	96.08
385.831	94.04
386.041	53.08
386.251	14.17
386.461	10.07
386.671	28.5
386.881	110.42
387.091	48.98
387.301	91.99
387.511	112.47
387.72	122.71
387.93	46.93
388.14	-16.55
388.35	51.03
388.56	8.02
388.769	71.51
388.979	122.71
389.189	-2.22
389.399	69.46
389.609	61.27
389.818	85.84
390.028	83.8
390.238	100.18
390.447	83.8
390.657	46.93
390.867	-0.17
391.076	20.31
391.286	94.04
391.496	42.84
391.705	89.94
391.915	28.5
392.125	65.36
392.334	24.4
392.544	38.74
392.753	1.88
392.963	26.45
393.172	18.26
393.382	83.8
393.591	108.37
393.801	20.31
394.01	126.8
394.22	137.04
394.429	98.13
394.639	53.08
394.848	63.32
395.058	114.52
395.267	57.17
395.477	73.56
395.686	106.32
395.895	55.12
396.105	128.85
396.314	106.32
396.524	20.31
396.733	122.71
396.942	108.37
397.152	104.28
397.361	100.18
397.57	110.42
397.78	48.98
397.989	26.45
398.198	192.34
398.407	96.08
398.617	79.7
398.826	87.89
399.035	94.04
399.244	130.9
399.453	143.19
399.663	94.04
399.872	91.99
400.081	65.36
400.29	161.62
400.499	116.56
400.708	163.67
400.917	116.56
401.127	77.65
401.336	122.71
401.545	147.28
401.754	118.61
401.963	159.57
402.172	100.18
402.381	5.97
402.59	161.62
402.799	149.33
403.008	188.24
403.217	141.14
403.426	237.39
403.635	98.13
403.844	132.95
404.053	161.62
404.262	59.22
404.471	184.15
404.68	141.14
404.888	65.36
405.097	124.76
405.306	122.71
405.515	104.28
405.724	188.24
405.933	132.95
406.142	196.43
406.35	147.28
406.559	173.91
406.768	173.91
406.977	143.19
407.185	165.71
407.394	259.92
407.603	192.34
407.812	118.61
408.02	239.44
408.229	221.01
408.438	196.43
408.646	239.44
408.855	216.91
409.064	282.45
409.272	255.83
409.481	266.07
409.69	284.5
409.898	257.87
410.107	270.16
410.315	247.63
410.524	261.97
410.733	307.02
410.941	239.44
411.15	372.56
411.358	309.07
411.567	329.55
411.775	370.51
411.984	452.43
412.192	304.98
412.401	397.14
412.609	493.39
412.818	474.96
413.026	466.77
413.234	431.95
413.443	462.67
413.651	454.48
413.86	517.97
414.068	589.64
414.276	630.6
414.485	520.01
414.693	622.41
414.901	628.56
415.11	536.4
415.318	626.51
415.526	653.13
415.734	700.23
415.943	767.82
416.151	812.87
416.359	640.84
416.567	681.8
416.776	829.26
416.984	935.75
417.192	958.28
417.4	886.6
417.608	925.51
417.817	923.46
418.025	1093.44
418.233	1089.35
418.441	1048.39
418.649	1034.05
418.857	1244.99
419.065	1187.65
419.273	1161.03
419.481	1355.58
419.689	1367.87
419.897	1402.69
420.105	1410.88
420.313	1392.45
420.521	1404.74
420.729	1455.94
420.937	1517.37
421.145	1670.97
421.353	1740.6
421.561	1728.31
421.769	1769.27
421.977	2019.13
422.185	1945.4
422.393	1926.97
422.601	2199.35
422.809	2133.81
423.017	2160.44
423.224	2150.2
423.432	2236.21
423.64	2377.52
423.848	2514.73
424.056	2484.02
424.263	2572.08
424.471	2713.39
424.679	2703.15
424.887	2912.04
425.094	2860.84
425.302	2869.03
425.51	2981.67
425.718	3153.7
425.925	3161.89
426.133	3366.69
426.341	3489.57
426.548	3514.14
426.756	3585.82
426.964	3618.59
427.171	3837.72
427.379	3880.73
427.586	4067.1
427.794	4175.64
428.001	4241.17
428.209	4517.65
428.417	4460.31
428.624	4826.89
428.832	4808.46
429.039	4740.88
429.247	4787.98
429.454	5265.16
429.662	5644.03
429.869	5129.99
430.076	5515.01
430.284	5435.14
430.491	5857.02
430.699	6016.76
430.906	5961.47
431.114	6059.77
431.321	6315.76
431.528	6459.12
431.736	6936.3
431.943	7112.42
432.15	6907.63
432.358	7116.52
432.565	7368.42
432.772	7261.93
432.979	7767.77
433.187	7892.7
433.394	7980.76
433.601	8523.48
433.808	8488.66
434.016	8634.07
434.223	8744.66
434.43	9569.99
434.637	9307.85
434.844	9647.81
435.052	10002.11
435.259	9914.05
435.466	9866.94
435.673	9858.75
435.88	10600.12
436.087	11103.92
436.294	11159.21
436.501	10593.97
436.708	11024.05
436.915	11368.1
437.122	11933.34
437.329	11929.25
437.537	12338.84
437.743	12381.85
437.95	12424.86
438.157	13076.11
438.364	13397.64
438.571	13479.56
438.778	13706.88
438.985	15054.45
439.192	14161.53
439.399	14681.72
439.606	14306.94
439.813	14941.81
440.02	16266.85
440.227	15808.1
440.433	15724.13
440.64	16088.67
440.847	16154.21
441.054	16508.51
441.261	17497.67
441.467	17348.17
441.674	17727.05
441.881	18687.54
442.088	18384.44
442.294	17960.52
442.501	18542.14
442.708	18968.12
442.914	19893.8
443.121	20874.77
443.328	19664.43
443.534	21456.4
443.741	20903.45
443.948	20489.76
444.154	22117.89
444.361	22011.4
444.568	22138.37
444.774	22097.41
444.981	22349.31
445.187	22904.31
445.394	24149.48
445.6	23703.02
445.807	26394.05
446.013	24886.75
446.22	25173.46
446.426	26326.47
446.633	26510.78
446.839	27743.66
447.046	26547.65
447.252	28024.23
447.459	28046.76
447.665	28036.52
447.871	28999.07
448.078	30268.81
448.284	28532.13
448.491	29427.09
448.697	30684.55
448.903	31436.15
449.11	31694.19
449.316	30840.19
449.522	31761.78
449.728	32120.17
449.935	32701.79
450.141	32580.96
450.347	33547.61
450.553	32347.5
450.76	32750.95
450.966	34002.25
451.172	33504.6
451.378	33891.66
451.584	33828.18
451.791	34045.26
451.997	34069.84
452.203	34622.79
452.409	34479.43
452.615	34331.98
452.821	33281.37
453.027	32732.51
453.233	34497.86
453.44	33406.3
453.646	33979.73
453.852	34049.36
454.058	34366.79
454.264	33168.73
454.47	34032.97
454.676	32996.7
454.882	34354.51
455.088	31335.8
455.294	31960.43
455.5	32197.99
455.705	33037.66
455.911	31198.59
456.117	30686.59
456.323	30168.46
456.529	28401.06
456.735	29967.76
456.941	29230.49
457.147	28974.49
457.352	27973.03
457.558	27620.78
457.764	27368.88
457.97	26688.96
458.176	26604.99
458.381	26478.02
458.587	25054.68
458.793	25081.3
458.999	24133.09
459.204	25802.19
459.41	24886.75
459.616	22930.94
459.821	23410.16
460.027	22920.7
460.233	22619.64
460.438	21530.12
460.644	21800.46
460.85	20901.4
461.055	20917.78
461.261	20301.34
461.466	18959.92
461.672	18574.91
461.878	19791.4
462.083	18390.59
462.289	17837.64
462.494	17681.99
462.7	17047.12
462.905	16623.19
463.111	17061.46
463.316	17374.8
463.522	16774.74
463.727	16858.71
463.932	16690.77
464.138	16600.66
464.343	16633.43
464.549	15998.56
464.754	16844.37
464.959	16660.06
465.165	16408.15
465.37	15752.8
465.575	15343.21
465.781	16131.68
465.986	16227.93
466.191	15468.14
466.397	15177.33
466.602	14509.69
466.807	14866.03
467.012	14929.52
467.218	14763.64
467.423	14788.21
467.628	14933.62
467.833	15640.17
468.038	14952.05
468.244	14380.67
468.449	15015.54
468.654	14612.09
468.859	14577.27
469.064	14360.19
469.269	13958.78
469.474	13956.74
469.679	14290.56
469.885	13645.45
470.09	13751.94
470.295	13962.88
470.5	13567.62
470.705	13420.17
470.91	13248.14
471.115	13160.08
471.32	13377.16
471.525	13182.6
471.73	13131.4
471.935	12983.95
472.139	12547.73
472.344	12600.98
472.549	12586.65
472.754	12555.93
472.959	12150.43
473.164	11959.97
473.369	11613.86
473.574	12156.57
473.778	12068.51
473.983	11986.59
474.188	12027.55
474.393	11243.18
474.598	11470.5
474.802	11128.49
475.007	11132.59
475.212	11298.47
475.417	10766
475.621	11030.19
475.826	10770.1
476.031	10679.99
476.235	10497.72
476.44	10868.4
476.645	10274.49
476.849	10401.46
477.054	10409.65
477.259	10202.81
477.463	10098.36
477.668	9760.45
477.872	9977.53
478.077	9688.77
478.282	9535.17
478.486	9582.28
478.691	9375.43
478.895	9475.78
479.1	9418.44
479.304	9410.25
479.509	9103.05
479.713	9248.46
479.918	9137.87
480.122	8769.23
480.326	8945.36
480.531	9060.04
480.735	8816.33
480.94	8953.55
481.144	9045.71
481.348	8570.58
481.553	8953.55
481.757	8621.78
481.961	8734.42
482.166	8636.11
482.37	8728.27
482.574	8707.79
482.778	8826.57
482.983	8609.49
483.187	8756.94
483.391	8726.22
483.595	8697.55
483.8	8447.7
484.004	8662.74
484.208	8857.29
484.412	8761.04
484.616	8611.54
484.821	8546
485.025	8666.83
485.229	8875.73
485.433	8511.19
485.637	8783.57
485.841	8689.36
486.045	8482.52
486.249	8492.76
486.453	8533.72
486.657	8546
486.861	8777.42
487.065	8259.29
487.269	8566.48
487.473	8474.32
487.677	8679.12
487.881	8732.37
488.085	8627.92
488.289	8648.4
488.493	8589.01
488.697	8765.14
488.901	8820.43
489.105	8629.97
489.309	8736.46
489.512	8746.7
489.716	8517.33
489.92	8666.83
490.124	8806.09
490.328	9017.04
490.531	8828.62
490.735	8797.9
490.939	8994.51
491.143	8867.53
491.346	8795.86
491.55	9037.52
491.754	9068.23
491.958	9045.71
492.161	9107.15
492.365	9019.08
492.569	9201.35
492.772	8994.51
492.976	9051.85
493.18	9166.54
493.383	9270.98
493.587	9453.25
493.79	9629.38
493.994	9631.43
494.197	9467.59
494.401	9586.37
494.605	9594.56
494.808	9696.96
495.012	9649.86
495.215	9752.26
495.419	9920.19
495.622	9832.13
495.825	10016.44
496.029	9979.58
496.232	10198.71
496.436	9899.71
496.639	10456.76
496.843	10217.15
497.046	10571.44
497.249	10575.54
497.453	10606.26
497.656	10677.94
497.859	10696.37
498.063	10987.18
498.266	11130.54
498.469	11069.1
498.673	11290.28
498.876	11226.79
499.079	11204.27
499.282	11413.16
499.485	11761.31
499.689	11734.69
499.892	11884.19
500.095	11947.68
500.298	12418.71
500.501	12254.87
500.705	12383.9
500.908	12844.69
501.111	12537.49
501.314	12803.73
501.517	12762.77
501.72	12871.31
501.923	13088.4
502.126	13592.2
502.329	13852.29
502.532	13620.87
502.735	13774.47
502.938	14007.94
503.141	14167.68
503.344	14397.05
503.547	14184.06
503.75	14546.55
503.953	14728.82
504.156	14734.96
504.359	14734.96
504.562	14870.13
504.765	15457.9
504.968	15466.09
505.17	15537.77
505.373	15711.85
505.576	15840.87
505.779	16123.49
505.982	16307.8
506.185	16510.55
506.387	16756.31
506.59	16866.9
506.793	17102.42
506.996	16985.68
507.198	17372.75
507.401	17352.27
507.604	17622.6
507.807	17944.13
508.009	18001.47
508.212	18067.01
508.415	18046.53
508.617	18210.37
508.82	18755.13
509.022	18574.91
509.225	19050.03
509.428	19052.08
509.63	19359.28
509.833	19447.34
510.035	19666.47
510.238	19705.38
510.44	19977.76
510.643	20260.38
510.845	20246.05
511.048	20233.76
511.25	20645.4
511.453	20721.18
511.655	21378.58
511.858	21302.8
512.06	21800.46
512.262	21685.77
512.465	21497.36
512.667	22138.37
512.87	22138.37
513.072	22326.78
513.274	22644.22
513.477	23107.06
513.679	22975.99
513.881	23221.75
514.084	23514.61
514.286	23182.84
514.488	23264.75
514.69	24444.38
514.893	23856.62
515.095	24159.72
515.297	24872.41
515.499	24452.58
515.701	25040.34
515.904	25400.79
516.106	25591.25
516.308	25621.97
516.51	25736.65
516.712	25890.25
516.914	25961.93
517.116	26373.57
517.318	26379.71
517.52	26703.29
517.722	26584.51
517.925	27274.68
518.127	27239.86
518.329	27977.13
518.531	27428.27
518.733	27833.77
518.935	28255.65
519.136	28210.6
519.338	28732.83
519.54	28945.82
519.742	28720.54
519.944	28972.44
520.146	29619.6
520.348	29605.27
520.55	29762.96
520.752	29447.57
520.954	30135.69
521.155	29762.96
521.357	30305.67
521.559	30264.71
521.761	31165.82
521.963	30590.34
522.164	30842.24
522.366	31073.66
522.568	31612.27
522.77	31733.11
522.971	31763.82
523.173	31776.11
523.375	32324.97
523.576	31974.77
523.778	32071.02
523.98	32277.86
524.181	32699.75
524.383	32748.9
524.584	33054.04
524.786	32972.13
524.988	32947.55
525.189	33391.96
525.391	33455.45
525.592	33514.84
525.794	33404.25
525.995	33531.22
526.197	33611.09
526.398	33899.86
526.6	34008.4
526.801	34020.69
527.003	33953.1
527.204	34071.89
527.406	34364.74
527.607	34403.66
527.808	34626.88
528.01	34176.33
528.211	34512.2
528.412	35063.1
528.614	35042.62
528.815	34938.18
529.016	35429.69
529.218	34839.87
529.419	35249.47
529.62	34962.75
529.822	34907.46
530.023	34999.62
530.224	35370.3
530.425	35310.91
530.626	34993.47
530.828	35228.99
531.029	35913.01
531.23	35288.38
531.431	35482.94
531.632	35538.23
531.833	35945.78
532.035	35681.59
532.236	35468.6
532.437	35448.12
532.638	35458.36
532.839	35712.31
533.04	35544.37
533.241	35396.92
533.442	36119.85
533.643	35560.76
533.844	35593.53
534.045	35538.23
534.246	35140.93
534.447	35927.35
534.648	35546.42
534.849	35272
535.05	35740.98
535.251	35446.07
535.451	35646.77
535.652	36091.18
535.853	35548.47
536.054	35630.39
536.255	35820.85
536.456	35327.29
536.657	35876.15
536.857	35593.53
537.058	35607.86
537.259	35945.78
537.46	35724.6
537.66	35370.3
537.861	35695.92
538.062	35198.27
538.263	35845.43
538.463	35331.39
538.664	35614.01
538.865	35683.64
539.065	35745.08
539.266	35319.1
539.466	35745.08
539.667	34936.13
539.868	35675.44
540.068	35321.15
540.269	35491.13
540.469	35495.22
540.67	35358.01
540.87	35085.63
541.071	35077.44
541.271	35464.5
541.472	35284.28
541.672	35421.5
541.873	35454.26
542.073	35040.57
542.274	35675.44
542.474	35018.05
542.675	34966.85
542.875	35779.89
543.075	35374.39
543.276	35288.38
543.476	35362.11
543.676	35298.62
543.877	34989.38
544.077	35341.63
544.277	35130.69
544.478	34886.98
544.678	35374.39
544.878	35228.99
545.078	35411.26
545.279	34626.88
545.479	34835.78
545.679	35077.44
545.879	35040.57
546.079	35071.29
546.28	35329.34
546.48	34655.56
546.68	35065.15
546.88	35345.72
547.08	35171.64
547.28	34577.73
547.48	34653.51
547.68	34936.13
547.88	34641.22
548.081	35222.84
548.281	34461
548.481	34837.83
548.681	35056.96
548.881	34968.9
549.081	34819.39
549.28	34239.82
549.48	34692.42
549.68	34721.09
549.88	35061.05
550.08	34383.18
550.28	34831.68
550.48	34917.7
550.68	34872.64
550.88	34708.8
551.08	34725.19
551.279	34712.9
551.479	34438.47
551.679	34125.13
551.879	34522.44
552.079	34821.44
552.278	34268.49
552.478	34751.81
552.678	34610.5
552.878	35067.2
553.077	34563.4
553.277	34258.25
553.477	34882.88
553.676	34508.1
553.876	34495.81
554.076	34669.89
554.275	34256.2
554.475	34192.72
554.674	34325.83
554.874	34430.28
555.074	34395.46
555.273	34608.45
555.473	34612.55
555.672	34510.15
555.872	34073.93
556.071	34485.58
556.271	34405.7
556.47	34299.21
556.67	34211.15
556.869	33879.38
557.068	34481.48
557.268	33803.6
557.467	34045.26
557.667	34229.58
557.866	34264.39
558.065	34313.55
558.265	33756.5
558.464	33957.2
558.663	34096.46
558.863	33807.7
559.062	34131.28
559.261	34012.49
559.461	34217.29
559.66	33733.97
559.859	34018.64
560.058	33254.75
560.258	33961.3
560.457	33553.75
560.656	33770.83
560.855	33543.51
561.054	33709.39
561.253	33563.99
561.453	33801.55
561.652	33611.09
561.851	33971.53
562.05	33344.86
562.249	32824.67
562.448	33709.39
562.647	33584.47
562.846	33373.53
563.045	33217.88
563.244	33092.96
563.443	33267.03
563.642	33029.47
563.841	33152.35
564.04	33107.29
564.239	33226.07
564.438	32656.74
564.637	33305.95
564.836	32599.4
565.035	32664.93
565.234	32890.21
565.432	32529.76
565.631	32537.96
565.83	33172.83
566.029	32740.71
566.228	32243.05
566.427	33041.76
566.625	32882.02
566.824	32324.97
567.023	32908.64
567.222	32212.33
567.42	32998.75
567.619	32453.99
567.818	32386.41
568.016	32406.89
568.215	32529.76
568.414	32122.22
568.612	32742.75
568.811	32046.44
569.01	32255.34
569.208	31817.07
569.407	31974.77
569.605	31827.31
569.804	31972.72
570.002	31786.35
570.201	32318.82
570.4	31948.14
570.598	31454.58
570.797	31628.66
570.995	31757.68
571.193	31604.08
571.392	31741.3
571.59	31497.59
571.789	31671.67
571.987	31427.96
572.186	31518.07
572.384	31206.78
572.582	31188.35
572.781	31370.61
572.979	30956.92
573.177	31214.97
573.376	31354.23
573.574	31044.99
573.772	30717.31
573.971	30907.77
574.169	30815.62
574.367	30543.24
574.565	30852.48
574.763	30780.8
574.962	30657.92
575.16	30262.66
575.358	30678.4
575.556	30260.62
575.754	30522.76
575.952	30064.01
576.151	30645.63
576.349	29953.42
576.547	30406.02
576.745	30078.35
576.943	29992.33
577.141	30174.6
577.339	30055.82
577.537	29916.56
577.735	29898.13
577.933	29531.54
578.131	29461.91
578.329	29795.73
578.527	29353.37
578.725	29466
578.923	29357.46
579.121	29347.22
579.319	28964.25
579.516	29269.4
579.714	29519.25
579.912	29816.21
580.11	29150.62
580.308	29162.9
580.506	29052.31
580.704	28577.19
580.901	28771.74
581.099	29121.94
581.297	28648.86
581.495	28468.64
581.692	29005.21
581.89	28505.51
582.088	28687.78
582.285	28274.09
582.483	28489.12
582.681	28136.87
582.878	28290.47
583.076	28069.29
583.274	28259.75
583.471	27956.65
583.669	28134.82
583.866	27917.74
584.064	28130.73
584.262	27325.88
584.459	27936.17
584.657	27659.7
584.854	28063.15
585.052	27000.25
585.249	27899.31
585.447	27723.18
585.644	27469.23
585.841	27274.68
586.039	27315.64
586.236	26961.34
586.434	27141.56
586.631	26723.77
586.828	27203
587.026	27045.3
587.223	26947
587.42	26774.97
587.618	26817.98
587.815	26695.1
588.012	26537.41
588.21	26428.87
588.407	26568.13
588.604	26373.57
588.801	26082.76
588.999	26383.81
589.196	26381.76
589.393	26027.46
589.59	25972.17
589.787	25941.45
589.984	25859.53
590.182	25859.53
590.379	26000.84
590.576	25724.36
590.773	25646.54
590.97	25738.7
591.167	25533.9
591.364	25451.98
591.561	25458.13
591.758	25234.9
591.955	25134.55
592.152	25513.42
592.349	25155.03
592.546	25052.63
592.743	25026.01
592.94	24837.59
593.137	24911.32
593.334	24894.94
593.531	24487.39
593.727	24704.48
593.924	24780.25
594.121	24309.22
594.318	24466.91
594.515	24425.95
594.712	24139.24
594.908	24288.74
595.105	24370.66
595.302	24079.85
595.499	24272.35
595.696	23971.3
595.892	23897.58
596.089	23711.21
596.286	24139.24
596.482	23817.71
596.679	23465.46
596.876	23455.22
597.072	23717.36
597.269	23533.04
597.466	23338.48
597.662	23274.99
597.859	23633.39
598.055	23318
598.252	23254.51
598.448	23240.18
598.645	23279.09
598.841	22980.09
599.038	22900.22
599.234	22685.18
599.431	22928.89
599.627	22590.97
599.824	22642.17
600.02	22646.27
600.217	22355.46
600.413	22255.11
600.609	22337.02
600.806	22193.67
601.002	22445.57
601.198	22072.84
601.395	22152.71
601.591	22001.16
601.787	22060.55
601.984	21962.25
602.18	22124.04
602.376	21822.98
602.572	21911.05
602.769	21929.48
602.965	21351.95
603.161	21478.93
603.357	21437.97
603.553	21327.38
603.75	21298.7
603.946	21397.01
604.142	21245.46
604.338	20968.98
604.534	21397.01
604.73	21224.98
604.926	20799
605.122	21204.5
605.318	20653.59
605.514	21098
605.71	20573.72
605.906	21044.76
606.102	20385.31
606.298	20782.62
606.494	20715.03
606.69	20467.23
606.886	20887.06
607.082	20461.09
607.278	20758.04
607.474	20063.78
607.67	20567.58
607.866	20100.64
608.062	20411.93
608.257	20188.71
608.453	20002.34
608.649	20381.21
608.845	19963.43
609.041	20026.92
609.236	20006.44
609.432	19813.93
609.628	19940.9
609.824	19787.3
610.019	19670.57
610.215	19463.72
610.411	19725.86
610.606	19584.55
610.802	19650.09
610.998	19635.75
611.193	19633.71
611.389	19248.69
611.584	19633.71
611.78	19439.15
611.976	19572.27
612.171	19562.03
612.367	19484.2
612.562	19267.12
612.758	18777.65
612.953	19177.01
613.149	19177.01
613.344	19009.08
613.539	19447.34
613.735	19500.59
613.93	19058.23
614.126	19027.51
614.321	19209.78
614.517	18875.96
614.712	19134
614.907	18914.87
615.103	19201.58
615.298	18554.43
615.493	18904.63
615.688	18626.11
615.884	18955.83
616.079	18648.63
616.274	18703.93
616.47	18673.21
616.665	18783.8
616.86	18370.11
617.055	18435.64
617.25	18462.27
617.445	18638.39
617.641	18282.05
617.836	18345.53
618.031	18013.76
618.226	18347.58
618.421	18310.72
618.616	18337.34
618.811	17903.17
619.006	18241.09
619.201	17618.5
619.396	17813.06
619.591	17524.3
619.786	17708.62
619.981	17530.44
620.176	17798.73
620.371	17532.49
620.566	17409.61
620.761	17524.3
620.956	17299.02
621.151	17145.42
621.346	17358.41
621.541	16924.24
621.735	17301.07
621.93	16889.43
622.125	16696.92
622.32	16553.56
622.515	16946.77
622.709	16549.46
622.904	16356.96
623.099	16404.06
623.294	16277.08
623.488	16320.09
623.683	16135.78
623.878	16205.41
624.072	16211.55
624.267	16029.28
624.462	15744.61
624.656	15711.85
624.851	15801.96
625.046	15789.67
625.24	15769.19
625.435	15308.4
625.629	15564.39
625.824	15265.39
626.018	15396.46
626.213	14974.58
626.407	15068.78
626.602	14782.07
626.796	14886.51
626.991	14923.38
627.185	14700.15
627.38	14610.04
627.574	14421.63
627.768	14507.64
627.963	14415.48
628.157	14202.49
628.352	14354.04
628.546	14151.29
628.74	14171.77
628.935	13993.6
629.129	14356.09
629.323	13835.91
629.517	13649.54
629.712	13799.04
629.906	13627.01
630.1	13487.75
630.294	13461.13
630.489	13381.26
630.683	13516.42
630.877	13006.48
631.071	13254.28
631.265	13475.46
631.459	12973.71
631.653	12988.05
631.848	13043.34
632.042	13119.12
632.236	12981.9
632.43	12891.79
632.624	12742.29
632.818	12627.6
633.012	12605.08
633.206	12500.63
633.4	12537.49
633.594	12232.35
633.788	12312.22
633.982	12166.81
634.176	12347.03
634.369	12189.34
634.563	12054.17
634.757	12084.89
634.951	12129.95
635.145	12017.31
635.339	11878.05
635.533	11859.62
635.726	11771.55
635.92	11646.63
636.114	11601.57
636.308	11482.79
636.501	11585.19
636.695	11507.37
636.889	11249.32
637.083	11189.93
637.276	11296.42
637.47	11232.94
637.664	11011.76
637.857	11050.67
638.051	11159.21
638.244	10884.78
638.438	11058.86
638.632	10813.1
638.825	10766
639.019	10628.79
639.212	10778.29
639.406	10479.29
639.599	10507.96
639.793	10589.88
639.986	10538.68
640.18	10268.34
640.373	10309.3
640.567	10243.77
640.76	10294.97
640.954	10059.45
641.147	10041.02
641.34	10010.3
641.534	10092.22
641.727	10028.73
641.92	9838.27
642.114	9787.07
642.307	9840.32
642.5	9553.6
642.694	9512.64
642.887	9596.61
643.08	9598.66
643.273	9340.61
643.467	9420.49
643.66	9445.06
643.853	9447.11
644.046	9338.57
644.239	9391.81
644.432	9240.26
644.626	9254.6
644.819	9133.77
645.012	9189.07
645.205	8939.21
645.398	8939.21
645.591	8908.49
645.784	8984.27
645.977	8947.4
646.17	8677.07
646.363	8543.95
646.556	8652.5
646.749	8648.4
646.942	8572.63
647.135	8427.22
647.328	8523.48
647.521	8402.65
647.714	8296.15
647.907	8386.26
648.099	8447.7
648.292	8402.65
648.485	8320.73
648.678	8146.65
648.871	8199.9
649.064	8105.69
649.256	8218.33
649.449	7991
649.642	8011.48
649.835	7921.37
650.027	7816.93
650.22	7827.17
650.413	7612.13
650.605	7843.55
650.798	7679.71
650.991	7421.67
651.183	7567.07
651.376	7532.26
651.568	7704.29
651.761	7522.02
651.954	7450.34
652.146	7540.45
652.339	7421.67
652.531	7450.34
652.724	7393
652.916	7175.91
653.109	7220.97
653.301	7093.99
653.494	7302.89
653.686	6975.21
653.879	7126.76
654.071	7104.23
654.263	7081.71
654.456	7102.18
654.648	6971.11
654.84	6991.59
655.033	6866.67
655.225	6807.28
655.417	6776.56
655.61	6829.81
655.802	6737.65
655.994	6663.92
656.186	6561.52
656.379	6758.13
656.571	6643.44
656.763	6416.12
656.955	6475.51
657.148	6577.9
657.34	6428.4
657.532	6493.94
657.724	6264.57
657.916	6463.22
658.108	6346.48
658.3	6289.14
658.492	6297.33
658.684	6217.46
658.876	6215.41
659.068	6110.97
659.26	6061.82
659.452	5983.99
659.644	6053.62
659.836	6106.87
660.028	6039.29
660.22	6115.06
660.412	6131.45
660.604	5809.92
660.796	5809.92
660.988	5953.27
661.18	5814.01
661.372	5861.12
661.563	5889.79
661.755	5797.63
661.947	5826.3
662.139	5617.41
662.331	5590.78
662.522	5568.26
662.714	5650.18
662.906	5332.74
663.097	5590.78
663.289	5580.54
663.481	5451.52
663.673	5527.3
663.864	5439.23
664.056	5314.31
664.247	5410.56
664.439	5244.68
664.631	5285.64
664.822	5312.26
665.014	5338.88
665.205	5254.92
665.397	5134.09
665.588	5228.29
665.78	5381.89
665.971	5078.79
666.163	5222.15
666.354	5111.56
666.546	5078.79
666.737	4914.95
666.929	4984.59
667.12	4917
667.311	4906.76
667.503	4923.15
667.694	4904.71
667.885	4847.37
668.077	4919.05
668.268	4681.49
668.459	4759.31
668.651	4781.84
668.842	4738.83
669.033	4777.74
669.224	4681.49
669.416	4769.55
669.607	4706.06
669.798	4652.81
669.989	4683.53
670.18	4534.03
670.371	4607.76
670.563	4550.42
670.754	4697.87
670.945	4620.05
671.136	4568.85
671.327	4589.33
671.518	4402.96
671.709	4529.94
671.9	4513.55
672.091	4491.02
672.282	4441.87
672.473	4296.47
672.664	4415.25
672.855	4341.52
673.046	4306.71
673.237	4300.56
673.428	4286.23
673.619	4337.43
673.809	4261.65
674	4427.54
674.191	4210.45
674.382	4142.87
674.573	4321.04
674.764	4237.08
674.954	4183.83
675.145	4116.25
675.336	4169.49
675.527	4136.73
675.717	4177.69
675.908	4161.3
676.099	4134.68
676.289	3952.41
676.48	3981.08
676.671	3964.7
676.861	4038.42
677.052	3964.7
677.243	3999.51
677.433	4058.9
677.624	3997.46
677.814	3850.01
678.005	3960.6
678.195	4177.69
678.386	3966.74
678.576	3940.12
678.767	3837.72
678.957	3778.33
679.148	3929.88
679.338	3768.09
679.529	3890.97
679.719	3886.87
679.909	3897.11
680.1	3802.91
680.29	3923.74
680.481	3729.18
680.671	3739.42
680.861	3745.56
681.052	3841.82
681.242	3794.72
681.432	3837.72
681.622	3737.37
681.813	3622.69
682.003	3594.01
682.193	3546.91
682.383	3665.69
682.573	3686.17
682.764	3583.77
682.954	3723.04
683.144	3598.11
683.334	3710.75
683.524	3702.56
683.714	3544.86
683.904	3489.57
684.094	3598.11
684.284	3534.62
684.474	3778.33
684.664	3651.36
684.854	3673.89
685.044	3444.51
685.234	3514.14
685.424	3555.1
685.614	3323.68
685.804	3454.75
685.994	3649.31
686.184	3452.7
686.374	3471.14
686.564	3350.31
686.753	3473.18
686.943	3454.75
687.133	3399.46
687.323	3342.11
687.513	3387.17
687.702	3376.93
687.892	3286.82
688.082	3141.41
688.272	3243.81
688.461	3313.44
688.651	3133.22
688.841	3223.33
689.03	3184.42
689.22	3219.24
689.41	3159.85
689.599	3104.55
689.789	3209
689.979	3075.88
690.168	3280.68
690.358	3110.69
690.547	3045.16
690.737	3137.32
690.926	3235.62
691.116	3010.34
691.305	3137.32
691.495	3079.97
691.684	3071.78
691.874	2987.82
692.063	2981.67
692.252	3039.01
692.442	3039.01
692.631	3028.78
692.82	2860.84
693.01	2920.23
693.199	2942.76
693.388	2928.42
693.578	2764.59
693.767	2916.14
693.956	2758.44
694.146	2815.79
694.335	2819.88
694.524	2760.49
694.713	2789.16
694.902	2842.41
695.092	2869.03
695.281	2813.74
695.47	2701.1
695.659	2836.27
695.848	2793.26
696.037	2643.76
696.226	2803.5
696.415	2805.55
696.604	2760.49
696.793	2733.87
696.982	2711.34
697.171	2674.48
697.36	2783.02
697.549	2838.31
697.738	2697
697.927	2762.54
698.116	2737.96
698.305	2770.73
698.494	2832.17
698.683	2785.07
698.872	2774.83
699.061	2694.96
699.25	2756.4
699.438	2623.28
699.627	2555.69
699.816	2754.35
700.005	2688.81
700.193	2709.29
700.382	2682.67
700.571	2668.33
700.76	2645.8
700.948	2701.1
701.137	2778.92
701.326	2752.3
701.514	2686.76
701.703	2670.38
701.892	2602.8
702.08	2596.65
702.269	2617.13
702.457	2527.02
702.646	2705.2
702.834	2629.42
703.023	2701.1
703.212	2750.25
703.4	2654
703.589	2570.03
703.777	2686.76
703.965	2574.13
704.154	2725.68
704.342	2592.56
704.531	2549.55
704.719	2567.98
704.907	2676.52
705.096	2522.93
705.284	2588.46
705.472	2535.21
705.661	2598.7
705.849	2602.8
706.037	2662.19
706.226	2418.48
706.414	2539.31
706.602	2604.85
706.79	2553.65
706.979	2588.46
707.167	2703.15
707.355	2565.93
707.543	2668.33
707.731	2531.12
707.919	2625.33
708.107	2633.52
708.296	2649.9
708.484	2557.74
708.672	2565.93
708.86	2563.89
709.048	2610.99
709.236	2654
709.424	2586.41
709.612	2567.98
709.8	2522.93
709.988	2520.88
710.176	2660.14
710.364	2621.23
710.551	2615.09
710.739	2473.78
710.927	2594.61
711.115	2518.83
711.303	2641.71
711.491	2557.74
711.679	2465.58
711.866	2494.26
712.054	2520.88
712.242	2514.73
712.43	2594.61
712.617	2557.74
712.805	2527.02
712.993	2570.03
713.181	2447.15
713.368	2535.21
713.556	2551.6
713.744	2438.96
713.931	2635.57
714.119	2594.61
714.306	2533.17
714.494	2506.54
714.682	2514.73
714.869	2453.3
715.057	2504.5
715.244	2541.36
715.432	2488.11
715.619	2529.07
715.807	2553.65
715.994	2606.89
716.182	2490.16
716.369	2510.64
716.556	2524.97
716.744	2268.98
716.931	2387.76
717.119	2567.98
717.306	2553.65
717.493	2486.06
717.681	2522.93
717.868	2457.39
718.055	2391.86
718.242	2432.82
718.43	2502.45
718.617	2475.82
718.804	2617.13
718.991	2520.88
719.179	2434.86
719.366	2467.63
719.553	2518.83
719.74	2496.3
719.927	2570.03
720.114	2449.2
720.301	2393.9
720.488	2287.41
720.676	2410.29
720.863	2524.97
721.05	2432.82
721.237	2334.51
721.424	2430.77
721.611	2473.78
721.798	2295.6
721.985	2400.05
722.172	2500.4
722.358	2359.09
722.545	2449.2
722.732	2420.53
722.919	2365.23
723.106	2342.71
723.293	2377.52
723.48	2205.49
723.667	2381.62
723.853	2430.77
724.04	2391.86
724.227	2303.79
724.414	2416.43
724.6	2295.6
724.787	2326.32
724.974	2350.9
725.161	2281.27
725.347	2262.83
725.534	2400.05
725.72	2428.72
725.907	2260.79
726.094	2271.03
726.28	2420.53
726.467	2170.68
726.653	2285.36
726.84	2338.61
727.027	2299.7
727.213	2314.03
727.4	2340.66
727.586	2465.58
727.773	2207.54
727.959	2334.51
728.145	2254.64
728.332	2109.24
728.518	2223.92
728.705	2273.07
728.891	2230.07
729.077	2234.16
729.264	2250.55
729.45	2215.73
729.636	2283.31
729.823	2238.26
730.009	2260.79
730.195	2187.06
730.382	2215.73
730.568	2266.93
730.754	2209.59
730.94	2268.98
731.126	2256.69
731.313	2236.21
731.499	2289.46
731.685	2193.2
731.871	2197.3
732.057	2236.21
732.243	2322.23
732.429	2234.16
732.615	2215.73
732.801	2215.73
732.987	2215.73
733.173	2230.07
733.359	2127.67
733.545	2342.71
733.731	2103.09
733.917	2246.45
734.103	2139.96
734.289	2189.11
734.475	2082.61
734.661	2189.11
734.847	2146.1
735.033	2199.35
735.219	2058.04
735.404	2109.24
735.59	2197.3
735.776	2082.61
735.962	2201.4
736.148	2115.38
736.333	2193.2
736.519	2078.52
736.705	2025.27
736.89	2154.29
737.076	1965.88
737.262	2162.48
737.447	2133.81
737.633	2101.05
737.819	2127.67
738.004	2008.89
738.19	2021.17
738.375	2055.99
738.561	2125.62
738.747	2033.46
738.932	2109.24
739.118	2064.18
739.303	2041.65
739.489	1978.17
739.674	1929.02
739.859	2017.08
740.045	1869.62
740.23	1902.39
740.416	2015.03
740.601	1959.74
740.786	1976.12
740.972	1886.01
741.157	1931.06
741.342	1892.15
741.528	1953.59
741.713	1906.49
741.898	1849.15
742.084	1947.45
742.269	1965.88
742.454	1847.1
742.639	2002.74
742.824	1877.82
743.01	1933.11
743.195	1920.82
743.38	1904.44
743.565	1916.73
743.75	1861.43
743.935	1888.06
744.12	1791.8
744.305	1849.15
744.49	1799.99
744.675	1666.88
744.86	1709.88
745.045	1742.65
745.23	1879.86
745.415	1810.23
745.6	1814.33
745.785	1781.56
745.97	1855.29
746.155	1791.8
746.34	1781.56
746.525	1730.36
746.71	1640.25
746.895	1691.45
747.079	1777.47
747.264	1656.64
747.449	1720.12
747.634	1673.02
747.819	1630.01
748.003	1634.11
748.188	1582.91
748.373	1654.59
748.557	1652.54
748.742	1646.4
748.927	1597.24
749.111	1638.2
749.296	1597.24
749.481	1556.29
749.665	1468.22
749.85	1613.63
750.034	1599.29
750.219	1480.51
750.404	1535.81
750.588	1488.7
750.773	1482.56
750.957	1498.94
751.141	1447.74
751.326	1388.35
751.51	1425.22
751.695	1464.13
751.879	1371.97
752.064	1443.65
752.248	1361.73
752.432	1402.69
752.617	1414.98
752.801	1378.11
752.985	1439.55
753.17	1351.49
753.354	1388.35
753.538	1275.71
753.722	1273.67
753.907	1353.54
754.091	1302.34
754.275	1240.9
754.459	1253.19
754.643	1216.32
754.828	1249.09
755.012	1212.23
755.196	1324.87
755.38	1206.08
755.564	1224.51
755.748	1163.08
755.932	1195.84
756.116	1144.64
756.3	1152.84
756.484	1199.94
756.668	1187.65
756.852	1173.32
757.036	1169.22
757.22	1175.36
757.404	1083.2
757.588	1158.98
757.772	1136.45
757.956	1042.25
758.14	1072.96
758.323	1070.92
758.507	1175.36
758.691	1005.38
758.875	1060.68
759.059	1146.69
759.242	1056.58
759.426	1044.29
759.61	1029.96
759.794	1019.72
759.977	1089.35
760.161	1126.21
760.345	968.52
760.528	1060.68
760.712	1021.77
760.895	1029.96
761.079	966.47
761.263	1038.15
761.446	956.23
761.63	1005.38
761.813	1005.38
761.997	1032.01
762.18	927.56
762.364	950.09
762.547	960.33
762.731	937.8
762.914	948.04
763.098	890.7
763.281	884.55
763.464	943.94
763.648	900.94
763.831	986.95
764.015	933.7
764.198	956.23
764.381	851.78
764.564	968.52
764.748	890.7
764.931	827.21
765.114	835.4
765.297	911.18
765.481	814.92
765.664	849.74
765.847	933.7
766.03	833.35
766.213	847.69
766.397	821.06
766.58	886.6
766.763	874.31
766.946	853.83
767.129	851.78
767.312	827.21
767.495	917.32
767.678	933.7
767.861	784.2
768.044	812.87
768.227	890.7
768.41	845.64
768.593	786.25
768.776	771.91
768.959	823.11
769.142	784.2
769.324	708.43
769.507	825.16
769.69	843.59
769.873	761.67
770.056	831.3
770.239	739.15
770.421	816.97
770.604	743.24
770.787	810.82
770.97	773.96
771.152	751.43
771.335	771.91
771.518	771.91
771.7	716.62
771.883	747.34
772.066	771.91
772.248	716.62
772.431	739.15
772.613	679.75
772.796	755.53
772.978	714.57
773.161	735.05
773.343	616.27
773.526	689.99
773.708	655.18
773.891	589.64
774.073	702.28
774.256	595.79
774.438	653.13
774.621	677.71
774.803	679.75
774.985	712.52
775.168	599.88
775.35	687.95
775.532	712.52
775.715	575.31
775.897	733
776.079	620.36
776.261	587.6
776.444	624.46
776.626	681.8
776.808	565.07
776.99	651.08
777.173	677.71
777.355	601.93
777.537	542.54
777.719	552.78
777.901	522.06
778.083	567.12
778.265	603.98
778.447	601.93
778.629	534.35
778.811	509.77
778.993	601.93
779.175	552.78
779.357	485.2
779.539	511.82
779.721	556.88
779.903	560.97
780.085	522.06
780.267	485.2
780.449	563.02
780.631	522.06
780.812	546.64
780.994	479.05
781.176	534.35
781.358	538.45
781.54	522.06
781.721	436.05
781.903	509.77
782.085	479.05
782.267	509.77
782.448	403.28
782.63	429.9
782.812	526.16
782.993	470.86
783.175	546.64
783.357	378.7
783.538	526.16
783.72	462.67
783.901	431.95
784.083	452.43
784.264	423.76
784.446	397.14
784.627	352.08
784.809	403.28
784.99	419.66
785.172	397.14
785.353	438.09
785.535	493.39
785.716	442.19
785.897	366.42
786.079	395.09
786.26	378.7
786.441	460.62
786.623	352.08
786.804	415.57
786.985	329.55
787.167	300.88
787.348	427.85
787.529	413.52
787.71	401.23
787.891	419.66
788.073	366.42
788.254	356.18
788.435	329.55
788.616	360.27
788.797	403.28
788.978	343.89
789.159	358.22
789.34	366.42
789.522	382.8
789.703	329.55
789.884	352.08
790.065	368.46
790.246	323.41
790.427	278.35
790.607	307.02
790.788	382.8
790.969	362.32
791.15	259.92
791.331	352.08
791.512	280.4
791.693	241.49
791.874	302.93
792.054	376.66
792.235	309.07
792.416	233.3
792.597	317.26
792.778	339.79
792.958	274.26
793.139	317.26
793.32	278.35
793.5	288.59
793.681	368.46
793.862	286.54
794.042	278.35
794.223	304.98
794.404	311.12
794.584	255.83
794.765	282.45
794.945	323.41
795.126	296.78
795.306	290.64
795.487	296.78
795.667	251.73
795.848	274.26
796.028	304.98
796.209	268.11
796.389	251.73
796.57	272.21
796.75	290.64
796.93	341.84
797.111	171.86
797.291	218.96
797.471	192.34
797.652	294.74
797.832	186.19
798.012	249.68
798.192	243.54
798.373	247.63
798.553	272.21
798.733	257.87
798.913	245.59
799.093	300.88
799.274	198.48
799.454	304.98
799.634	200.53
799.814	173.91
799.994	190.29
800.174	216.91
800.354	190.29
800.534	196.43
800.714	225.11
800.894	227.15
801.074	247.63
801.254	161.62
801.434	173.91
801.614	304.98
801.794	210.77
801.974	608.08
802.154	255.83
802.334	235.35
802.514	247.63
802.693	268.11
802.873	159.57
803.053	175.95
803.233	255.83
803.413	249.68
803.592	270.16
803.772	159.57
803.952	243.54
804.131	165.71
804.311	212.82
804.491	235.35
804.67	237.39
804.85	227.15
805.03	83.8
805.209	180.05
805.389	202.58
805.568	175.95
805.748	130.9
805.928	190.29
806.107	128.85
806.287	237.39
806.466	202.58
806.646	198.48
806.825	151.38
807.004	157.52
807.184	175.95
807.363	216.91
807.543	135
807.722	171.86
807.901	139.09
808.081	206.67
808.26	157.52
808.439	81.75
808.619	218.96
808.798	157.52
808.977	155.47
809.156	143.19
809.336	178
809.515	165.71
809.694	132.95
809.873	161.62
810.052	175.95
810.231	200.53
810.411	94.04
810.59	114.52
810.769	243.54
810.948	169.81
811.127	153.43
811.306	73.56
811.485	169.81
811.664	200.53
811.843	91.99
812.022	163.67
812.201	124.76
812.38	102.23
812.559	114.52
812.737	175.95
812.916	139.09
813.095	118.61
813.274	135
813.453	190.29
813.632	128.85
813.811	190.29
813.989	104.28
814.168	192.34
814.347	-22.7
814.526	124.76
814.704	147.28
814.883	155.47
815.062	169.81
815.24	116.56
815.419	163.67
815.598	100.18
815.776	116.56
815.955	132.95
816.133	108.37
816.312	163.67
816.49	157.52
816.669	149.33
816.847	132.95
817.026	159.57
817.204	79.7
817.383	106.32
817.561	91.99
817.74	94.04
817.918	182.1
818.097	124.76
818.275	91.99
818.453	87.89
818.632	48.98
818.81	61.27
818.988	67.41
819.167	143.19
819.345	132.95
819.523	67.41
819.701	132.95
819.879	139.09
820.058	102.23
820.236	83.8
820.414	141.14
820.592	153.43
820.77	40.79
820.948	91.99
821.127	130.9
821.305	89.94
821.483	163.67
821.661	128.85
821.839	100.18
822.017	102.23
822.195	120.66
822.373	182.1
822.551	126.8
822.729	55.12
822.907	22.36
823.085	77.65
823.262	118.61
823.44	73.56
823.618	120.66
823.796	63.32
823.974	77.65
824.152	71.51
824.329	94.04
824.507	147.28
824.685	114.52
824.863	135
825.04	126.8
825.218	83.8
825.396	20.31
825.574	40.79
825.751	67.41
825.929	67.41
826.107	44.88
826.284	67.41
826.462	167.76
826.639	104.28
826.817	57.17
826.994	184.15
827.172	79.7
827.349	126.8
827.527	108.37
827.704	71.51
827.882	38.74
828.059	91.99
828.237	85.84
828.414	108.37
828.591	89.94
828.769	149.33
828.946	114.52
829.124	151.38
829.301	147.28
829.478	120.66
829.655	89.94
829.833	69.46
830.01	30.55
830.187	128.85
830.364	67.41
830.542	53.08
830.719	46.93
830.896	85.84
831.073	20.31
831.25	75.6
831.427	71.51
831.604	61.27
831.782	91.99
831.959	51.03
832.136	83.8
832.313	98.13
832.49	67.41
832.667	55.12
832.844	8.02
833.021	79.7
833.198	67.41
833.374	55.12
833.551	83.8
833.728	36.69
833.905	81.75
834.082	-65.71
834.259	59.22
834.436	89.94
834.612	16.21
834.789	63.32
834.966	42.84
835.143	69.46
835.319	20.31
835.496	28.5
835.673	83.8
835.85	36.69
836.026	5.97
836.203	-4.27
836.38	30.55
836.556	116.56
836.733	-2.22
836.909	75.6
837.086	14.17
837.262	65.36
837.439	83.8
837.616	59.22
837.792	38.74
837.968	104.28
838.145	26.45
838.321	81.75
838.498	28.5
838.674	69.46
838.851	83.8
839.027	48.98
839.203	53.08
839.38	77.65
839.556	87.89
839.732	46.93
839.909	-0.17
840.085	65.36
840.261	89.94
840.437	40.79
840.614	5.97
840.79	20.31
840.966	22.36
841.142	16.21
841.318	-16.55
841.494	12.12
841.671	12.12
841.847	-18.6
842.023	14.17
842.199	1.88
842.375	77.65
842.551	16.21
842.727	110.42
842.903	116.56
843.079	42.84
843.255	36.69
843.431	-63.66
843.607	89.94
843.783	42.84
843.959	30.55
844.134	75.6
844.31	-63.66
844.486	69.46
844.662	-22.7
844.838	61.27
845.013	98.13
845.189	30.55
845.365	36.69
845.541	65.36
845.716	16.21
845.892	67.41
846.068	30.55
846.244	46.93
846.419	53.08
846.595	67.41
846.77	34.64
846.946	26.45
847.122	-6.31
847.297	10.07
847.473	55.12
847.648	8.02
847.824	126.8
847.999	18.26
848.175	-37.03
848.35	98.13
848.526	14.17
848.701	73.56
848.876	124.76
849.052	34.64
849.227	1.88
849.403	28.5
849.578	36.69
849.753	14.17
849.929	89.94
850.104	-37.03
850.279	32.6
850.454	-0.17
850.63	-30.89
850.805	73.56
850.98	28.5
851.155	53.08
851.33	91.99
851.505	63.32
851.681	83.8
851.856	-20.65
852.031	38.74
852.206	12.12
852.381	-16.55
852.556	34.64
852.731	34.64
852.906	46.93
853.081	36.69
853.256	48.98
853.431	44.88
853.606	24.4
853.781	85.84
853.956	75.6
854.131	3.93
854.305	-69.8
854.48	-8.36
854.655	-71.85
854.83	100.18
855.005	40.79
855.18	73.56
855.354	38.74
855.529	53.08
855.704	1.88
855.879	104.28
856.053	42.84
856.228	100.18
856.403	22.36
856.577	59.22
856.752	55.12
856.926	36.69
857.101	12.12
857.276	42.84
857.45	22.36
857.625	137.04
857.799	42.84
857.974	32.6
858.148	69.46
858.323	71.51
858.497	40.79
858.672	18.26
858.846	79.7
859.02	24.4
859.195	-22.7
859.369	36.69
859.543	-24.75
859.718	30.55
859.892	28.5
860.066	-34.99
860.241	18.26
860.415	51.03
860.589	-28.84
860.763	38.74
860.938	-34.99
861.112	24.4
861.286	-24.75
861.46	75.6
861.634	-55.47
861.808	65.36
861.982	63.32
862.157	-12.46
862.331	26.45
862.505	-47.27
862.679	-49.32
862.853	-0.17
863.027	8.02
863.201	40.79
863.375	34.64
863.549	51.03
863.722	40.79
863.896	83.8
864.07	12.12
864.244	3.93
864.418	26.45
864.592	-30.89
864.766	-24.75
864.939	-6.31
865.113	16.21
865.287	32.6
865.461	42.84
865.634	46.93
865.808	30.55
865.982	63.32
866.156	-12.46
866.329	48.98
866.503	44.88
866.676	16.21
866.85	32.6
867.024	36.69
867.197	-61.61
867.371	100.18
867.544	12.12
867.718	-30.89
867.891	-10.41
868.065	-57.51
868.238	12.12
868.412	-26.79
868.585	10.07
868.759	24.4
868.932	1.88
869.105	14.17
869.279	-14.51
869.452	40.79
869.625	94.04
869.799	-41.13
869.972	-51.37
870.145	53.08
870.319	61.27
870.492	24.4
870.665	26.45
870.838	-2.22
871.011	12.12
871.185	28.5
871.358	34.64
871.531	46.93
871.704	18.26
871.877	53.08
872.05	-0.17
872.223	79.7
872.396	-37.03
872.569	38.74
872.742	30.55
872.915	-16.55
873.088	-16.55
873.261	69.46
873.434	22.36
873.607	14.17
873.78	61.27
873.953	14.17
874.126	24.4
874.299	-6.31
874.471	1.88
874.644	14.17
874.817	63.32
874.99	-18.6
875.163	-20.65
875.335	-45.23
875.508	-22.7
875.681	87.89
875.853	28.5
876.026	28.5
876.199	-34.99
876.371	-65.71
876.544	18.26
876.717	14.17
876.889	8.02
877.062	-32.94
877.234	-16.55
877.407	32.6
877.579	40.79
877.752	-20.65
877.924	20.31
878.097	57.17
878.269	-71.85
878.442	1.88
878.614	46.93
878.786	46.93
878.959	40.79
879.131	77.65
879.303	-10.41
879.476	-20.65
879.648	36.69
879.82	-0.17
879.993	65.36
880.165	53.08
880.337	14.17
880.509	30.55
880.681	24.4
880.854	-14.51
881.026	-4.27
881.198	100.18
881.37	-65.71
881.542	8.02
881.714	-4.27
881.886	30.55
882.058	38.74
882.23	65.36
882.402	98.13
882.574	-14.51
882.746	14.17
882.918	77.65
883.09	16.21
883.262	16.21
883.434	-0.17
883.606	-20.65
883.778	40.79
883.95	51.03
884.122	26.45
884.293	46.93
884.465	-0.17
884.637	-4.27
884.809	-4.27
884.98	-28.84
885.152	18.26
885.324	-6.31
885.496	32.6
885.667	-69.8
885.839	-8.36
886.011	61.27
886.182	28.5
886.354	-96.43
886.525	3.93
886.697	22.36
886.869	-41.13
887.04	28.5
887.212	36.69
887.383	51.03
887.555	-4.27
887.726	-2.22
887.897	48.98
888.069	96.08
888.24	67.41
888.412	24.4
888.583	16.21
888.754	-22.7
888.926	44.88
889.097	48.98
889.268	5.97
889.44	-14.51
889.611	5.97
889.782	44.88
889.953	-24.75
890.125	-10.41
890.296	-16.55
890.467	-32.94
890.638	-22.7
890.809	-6.31
890.98	8.02
891.151	71.51
891.323	55.12
891.494	24.4
891.665	18.26
891.836	83.8
892.007	-10.41
892.178	1.88
892.349	-22.7
892.52	61.27
892.691	40.79
892.862	-24.75
893.032	-10.41
893.203	-28.84
893.374	42.84
893.545	53.08
893.716	-20.65
893.887	-47.27
894.057	28.5
894.228	10.07
894.399	-43.18
894.57	16.21
894.74	3.93
894.911	36.69
895.082	1.88
895.253	40.79
895.423	-8.36
895.594	53.08
895.764	77.65
895.935	-16.55
896.106	-14.51
896.276	34.64
896.447	8.02
896.617	-8.36
896.788	22.36
896.958	53.08
897.129	-43.18
897.299	-28.84
897.47	61.27
897.64	26.45
897.81	14.17
897.981	28.5
898.151	-57.51
898.322	-6.31
898.492	32.6
898.662	40.79
898.832	12.12
899.003	83.8
899.173	-16.55
899.343	-32.94
899.513	10.07
