Data from USB4F104151__81__12-02-15-465.txt Node

Date: Fri Mar 14 12:02:15 EDT 2025
User: louis
Spectrometer: USB4F10415
Trigger mode: 4
Integration Time (sec): 2.000000E-2
Scans to average: 1
Electric dark correction enabled: true
Nonlinearity correction enabled: false
Boxcar width: 0
XAxis mode: Wavelengths
Number of Pixels in Spectrum: 3648
>>>>>Begin Spectral Data<<<<<
178.204	-77.14
178.424	-77.14
178.644	-77.14
178.864	-75.09
179.084	-148.82
179.304	6.83
179.524	12.97
179.744	-21.85
179.964	23.21
180.184	-48.47
180.404	-17.75
180.624	-36.18
180.844	49.83
181.064	-38.23
181.283	-19.8
181.503	37.55
181.723	51.88
181.943	4.78
182.163	121.51
182.383	-5.46
182.602	27.31
182.822	19.11
183.042	45.74
183.262	41.64
183.482	-38.23
183.701	-42.32
183.921	12.97
184.141	15.02
184.361	37.55
184.58	37.55
184.8	-5.46
185.02	37.55
185.239	82.6
185.459	90.79
185.679	107.18
185.898	8.87
186.118	84.65
186.338	25.26
186.557	53.93
186.777	15.02
186.997	109.22
187.216	70.31
187.436	105.13
187.655	84.65
187.875	82.6
188.095	35.5
188.314	78.51
188.534	12.97
188.753	19.11
188.973	-1.37
189.192	62.12
189.412	96.94
189.631	17.07
189.851	78.51
190.07	58.03
190.29	-21.85
190.509	82.6
190.729	68.27
190.948	115.37
191.168	105.13
191.387	39.59
191.607	37.55
191.826	29.35
192.045	39.59
192.265	0.68
192.484	-3.41
192.704	-9.56
192.923	-66.9
193.142	86.7
193.362	29.35
193.581	35.5
193.8	0.68
194.02	98.99
194.239	37.55
194.458	15.02
194.678	55.98
194.897	12.97
195.116	60.07
195.335	70.31
195.555	103.08
195.774	90.79
195.993	148.14
196.212	-21.85
196.432	33.45
196.651	-27.99
196.87	41.64
197.089	60.07
197.308	10.92
197.528	60.07
197.747	-9.56
197.966	86.7
198.185	129.7
198.404	29.35
198.623	88.75
198.842	72.36
199.062	35.5
199.281	68.27
199.5	21.16
199.719	6.83
199.938	37.55
200.157	137.9
200.376	45.74
200.595	47.79
200.814	53.93
201.033	-15.7
201.252	98.99
201.471	51.88
201.69	66.22
201.909	-23.89
202.128	6.83
202.347	4.78
202.566	-46.42
202.785	25.26
203.004	25.26
203.223	43.69
203.442	60.07
203.661	49.83
203.879	70.31
204.098	72.36
204.317	-30.04
204.536	29.35
204.755	68.27
204.974	31.4
205.193	31.4
205.411	101.03
205.63	64.17
205.849	-11.61
206.068	49.83
206.287	-48.47
206.505	33.45
206.724	8.87
206.943	-13.65
207.162	37.55
207.381	62.12
207.599	72.36
207.818	10.92
208.037	43.69
208.255	-44.37
208.474	101.03
208.693	25.26
208.911	17.07
209.13	37.55
209.349	6.83
209.567	62.12
209.786	-3.41
210.005	-21.85
210.223	35.5
210.442	76.46
210.661	-13.65
210.879	31.4
211.098	60.07
211.316	64.17
211.535	55.98
211.753	37.55
211.972	66.22
212.191	45.74
212.409	94.89
212.628	70.31
212.846	17.07
213.065	12.97
213.283	82.6
213.502	21.16
213.72	25.26
213.938	41.64
214.157	43.69
214.375	68.27
214.594	-1.37
214.812	58.03
215.031	68.27
215.249	47.79
215.467	23.21
215.686	17.07
215.904	119.46
216.122	47.79
216.341	109.22
216.559	109.22
216.778	58.03
216.996	80.55
217.214	-25.94
217.432	66.22
217.651	35.5
217.869	-25.94
218.087	-15.7
218.306	41.64
218.524	94.89
218.742	53.93
218.96	19.11
219.179	-36.18
219.397	70.31
219.615	23.21
219.833	45.74
220.051	-25.94
220.27	53.93
220.488	47.79
220.706	111.27
220.924	27.31
221.142	43.69
221.36	23.21
221.578	17.07
221.796	49.83
222.015	-23.89
222.233	-11.61
222.451	39.59
222.669	8.87
222.887	21.16
223.105	53.93
223.323	80.55
223.541	82.6
223.759	-1.37
223.977	-1.37
224.195	-9.56
224.413	107.18
224.631	90.79
224.849	29.35
225.067	27.31
225.285	58.03
225.503	-34.13
225.721	2.73
225.939	-27.99
226.157	66.22
226.375	107.18
226.592	2.73
226.81	70.31
227.028	45.74
227.246	62.12
227.464	-21.85
227.682	84.65
227.9	103.08
228.117	47.79
228.335	64.17
228.553	49.83
228.771	2.73
228.989	68.27
229.206	-11.61
229.424	-7.51
229.642	80.55
229.86	-7.51
230.077	66.22
230.295	-42.32
230.513	25.26
230.731	68.27
230.948	92.84
231.166	82.6
231.384	35.5
231.601	37.55
231.819	39.59
232.037	119.46
232.254	-7.51
232.472	49.83
232.689	-21.85
232.907	47.79
233.125	84.65
233.342	19.11
233.56	37.55
233.777	47.79
233.995	15.02
234.213	115.37
234.43	49.83
234.648	55.98
234.865	66.22
235.083	51.88
235.3	53.93
235.518	15.02
235.735	107.18
235.953	62.12
236.17	47.79
236.388	-9.56
236.605	27.31
236.822	39.59
237.04	0.68
237.257	-1.37
237.475	43.69
237.692	60.07
237.909	72.36
238.127	88.75
238.344	60.07
238.562	113.32
238.779	31.4
238.996	23.21
239.214	45.74
239.431	25.26
239.648	70.31
239.865	51.88
240.083	94.89
240.3	76.46
240.517	-40.28
240.735	76.46
240.952	64.17
241.169	62.12
241.386	68.27
241.603	12.97
241.821	6.83
242.038	39.59
242.255	8.87
242.472	29.35
242.689	-7.51
242.907	86.7
243.124	41.64
243.341	2.73
243.558	21.16
243.775	21.16
243.992	4.78
244.209	55.98
244.426	70.31
244.643	66.22
244.86	21.16
245.078	66.22
245.295	19.11
245.512	76.46
245.729	-11.61
245.946	-11.61
246.163	70.31
246.38	82.6
246.597	47.79
246.814	10.92
247.031	72.36
247.248	-13.65
247.464	76.46
247.681	23.21
247.898	21.16
248.115	-25.94
248.332	-48.47
248.549	103.08
248.766	76.46
248.983	25.26
249.2	37.55
249.417	66.22
249.633	-27.99
249.85	72.36
250.067	39.59
250.284	-48.47
250.501	31.4
250.717	96.94
250.934	80.55
251.151	94.89
251.368	-7.51
251.585	21.16
251.801	2.73
252.018	19.11
252.235	82.6
252.451	45.74
252.668	12.97
252.885	90.79
253.102	0.68
253.318	33.45
253.535	86.7
253.752	15.02
253.968	41.64
254.185	58.03
254.401	-1.37
254.618	33.45
254.835	29.35
255.051	78.51
255.268	101.03
255.484	70.31
255.701	-1.37
255.917	27.31
256.134	12.97
256.351	80.55
256.567	66.22
256.784	29.35
257	4.78
257.217	96.94
257.433	66.22
257.65	129.7
257.866	35.5
258.082	-46.42
258.299	45.74
258.515	53.93
258.732	-36.18
258.948	15.02
259.165	21.16
259.381	-15.7
259.597	-36.18
259.814	31.4
260.03	8.87
260.246	2.73
260.463	90.79
260.679	53.93
260.895	-36.18
261.112	72.36
261.328	17.07
261.544	37.55
261.761	88.75
261.977	-9.56
262.193	53.93
262.409	33.45
262.626	37.55
262.842	84.65
263.058	2.73
263.274	23.21
263.49	19.11
263.707	12.97
263.923	74.41
264.139	2.73
264.355	78.51
264.571	31.4
264.787	127.66
265.004	21.16
265.22	152.23
265.436	82.6
265.652	-103.76
265.868	-7.51
266.084	8.87
266.3	64.17
266.516	-5.46
266.732	66.22
266.948	43.69
267.164	43.69
267.38	62.12
267.596	68.27
267.812	121.51
268.028	-17.75
268.244	-30.04
268.46	101.03
268.676	19.11
268.892	6.83
269.108	35.5
269.324	70.31
269.54	37.55
269.756	103.08
269.972	-44.37
270.188	37.55
270.403	-50.52
270.619	37.55
270.835	109.22
271.051	43.69
271.267	41.64
271.483	139.94
271.698	98.99
271.914	90.79
272.13	131.75
272.346	29.35
272.562	-5.46
272.777	70.31
272.993	53.93
273.209	119.46
273.425	0.68
273.64	45.74
273.856	98.99
274.072	43.69
274.287	-48.47
274.503	131.75
274.719	47.79
274.934	33.45
275.15	31.4
275.366	68.27
275.581	68.27
275.797	-1.37
276.012	76.46
276.228	-11.61
276.444	53.93
276.659	25.26
276.875	8.87
277.09	35.5
277.306	43.69
277.521	64.17
277.737	17.07
277.952	4.78
278.168	45.74
278.383	58.03
278.599	33.45
278.814	76.46
279.03	-15.7
279.245	23.21
279.461	-46.42
279.676	74.41
279.892	-7.51
280.107	47.79
280.322	17.07
280.538	58.03
280.753	10.92
280.969	103.08
281.184	39.59
281.399	60.07
281.615	39.59
281.83	45.74
282.045	47.79
282.26	-11.61
282.476	47.79
282.691	60.07
282.906	84.65
283.122	76.46
283.337	41.64
283.552	66.22
283.767	80.55
283.983	82.6
284.198	23.21
284.413	58.03
284.628	0.68
284.843	72.36
285.058	27.31
285.274	98.99
285.489	-9.56
285.704	51.88
285.919	-7.51
286.134	31.4
286.349	23.21
286.564	25.26
286.779	84.65
286.995	-9.56
287.21	-79.19
287.425	45.74
287.64	86.7
287.855	68.27
288.07	8.87
288.285	78.51
288.5	103.08
288.715	84.65
288.93	-5.46
289.145	53.93
289.36	33.45
289.575	41.64
289.79	33.45
290.004	101.03
290.219	47.79
290.434	-3.41
290.649	-1.37
290.864	15.02
291.079	33.45
291.294	-17.75
291.509	74.41
291.724	66.22
291.938	-19.8
292.153	92.84
292.368	53.93
292.583	49.83
292.798	82.6
293.012	58.03
293.227	47.79
293.442	-1.37
293.657	60.07
293.871	45.74
294.086	43.69
294.301	2.73
294.516	33.45
294.73	33.45
294.945	4.78
295.16	37.55
295.374	135.85
295.589	82.6
295.804	4.78
296.018	27.31
296.233	51.88
296.447	76.46
296.662	4.78
296.877	49.83
297.091	49.83
297.306	-13.65
297.52	41.64
297.735	74.41
297.949	64.17
298.164	84.65
298.378	37.55
298.593	6.83
298.807	39.59
299.022	39.59
299.236	74.41
299.451	41.64
299.665	-5.46
299.88	66.22
300.094	125.61
300.309	47.79
300.523	51.88
300.737	51.88
300.952	-5.46
301.166	66.22
301.381	78.51
301.595	19.11
301.809	62.12
302.024	-9.56
302.238	23.21
302.452	152.23
302.667	51.88
302.881	17.07
303.095	94.89
303.309	74.41
303.524	29.35
303.738	96.94
303.952	4.78
304.166	94.89
304.381	-1.37
304.595	10.92
304.809	37.55
305.023	90.79
305.237	45.74
305.452	74.41
305.666	41.64
305.88	135.85
306.094	49.83
306.308	29.35
306.522	37.55
306.736	49.83
306.95	15.02
307.164	25.26
307.379	98.99
307.593	94.89
307.807	35.5
308.021	82.6
308.235	72.36
308.449	45.74
308.663	60.07
308.877	45.74
309.091	39.59
309.305	144.04
309.519	12.97
309.733	90.79
309.947	29.35
310.161	51.88
310.374	78.51
310.588	109.22
310.802	74.41
311.016	17.07
311.23	49.83
311.444	64.17
311.658	76.46
311.872	33.45
312.085	94.89
312.299	19.11
312.513	60.07
312.727	47.79
312.941	86.7
313.154	47.79
313.368	58.03
313.582	37.55
313.796	80.55
314.009	23.21
314.223	21.16
314.437	58.03
314.651	84.65
314.864	-1.37
315.078	41.64
315.292	17.07
315.505	8.87
315.719	76.46
315.933	15.02
316.146	-1.37
316.36	17.07
316.573	51.88
316.787	62.12
317.001	125.61
317.214	43.69
317.428	64.17
317.641	12.97
317.855	43.69
318.068	37.55
318.282	2.73
318.495	68.27
318.709	107.18
318.922	90.79
319.136	68.27
319.349	33.45
319.563	80.55
319.776	27.31
319.99	64.17
320.203	-5.46
320.417	68.27
320.63	-21.85
320.843	121.51
321.057	58.03
321.27	4.78
321.483	45.74
321.697	76.46
321.91	29.35
322.124	80.55
322.337	19.11
322.55	33.45
322.763	21.16
322.977	8.87
323.19	-17.75
323.403	58.03
323.617	41.64
323.83	66.22
324.043	55.98
324.256	90.79
324.469	60.07
324.683	84.65
324.896	117.42
325.109	43.69
325.322	-32.08
325.535	80.55
325.748	64.17
325.962	53.93
326.175	33.45
326.388	25.26
326.601	76.46
326.814	51.88
327.027	49.83
327.24	51.88
327.453	-1.37
327.666	101.03
327.879	86.7
328.092	66.22
328.305	141.99
328.518	6.83
328.731	31.4
328.944	6.83
329.157	-17.75
329.37	58.03
329.583	21.16
329.796	154.28
330.009	17.07
330.222	90.79
330.435	127.66
330.648	82.6
330.861	62.12
331.073	53.93
331.286	60.07
331.499	-15.7
331.712	-7.51
331.925	-32.08
332.138	60.07
332.35	68.27
332.563	39.59
332.776	103.08
332.989	64.17
333.202	17.07
333.414	-3.41
333.627	27.31
333.84	35.5
334.053	55.98
334.265	19.11
334.478	8.87
334.691	51.88
334.903	80.55
335.116	51.88
335.329	74.41
335.541	41.64
335.754	113.32
335.966	21.16
336.179	64.17
336.392	82.6
336.604	62.12
336.817	43.69
337.029	150.18
337.242	-23.89
337.454	17.07
337.667	70.31
337.88	174.76
338.092	41.64
338.305	4.78
338.517	31.4
338.729	66.22
338.942	58.03
339.154	-7.51
339.367	45.74
339.579	53.93
339.792	17.07
340.004	146.09
340.217	72.36
340.429	53.93
340.641	2.73
340.854	103.08
341.066	23.21
341.278	70.31
341.491	60.07
341.703	72.36
341.915	-5.46
342.128	121.51
342.34	29.35
342.552	111.27
342.764	88.75
342.977	64.17
343.189	47.79
343.401	41.64
343.613	47.79
343.826	51.88
344.038	-3.41
344.25	105.13
344.462	111.27
344.674	29.35
344.886	37.55
345.099	111.27
345.311	-21.85
345.523	0.68
345.735	90.79
345.947	96.94
346.159	41.64
346.371	64.17
346.583	111.27
346.795	195.24
347.007	60.07
347.219	86.7
347.431	0.68
347.643	23.21
347.855	37.55
348.067	115.37
348.279	76.46
348.491	80.55
348.703	-7.51
348.915	119.46
349.127	35.5
349.339	45.74
349.551	35.5
349.763	-15.7
349.975	6.83
350.187	123.56
350.399	90.79
350.61	72.36
350.822	74.41
351.034	62.12
351.246	119.46
351.458	35.5
351.669	8.87
351.881	70.31
352.093	88.75
352.305	101.03
352.517	113.32
352.728	135.85
352.94	-19.8
353.152	25.26
353.363	68.27
353.575	80.55
353.787	158.38
353.999	17.07
354.21	64.17
354.422	-3.41
354.633	127.66
354.845	103.08
355.057	-17.75
355.268	90.79
355.48	12.97
355.692	31.4
355.903	84.65
356.115	55.98
356.326	55.98
356.538	76.46
356.749	127.66
356.961	113.32
357.172	-21.85
357.384	47.79
357.595	115.37
357.807	105.13
358.018	23.21
358.23	66.22
358.441	92.84
358.653	51.88
358.864	70.31
359.075	33.45
359.287	70.31
359.498	-38.23
359.709	55.98
359.921	146.09
360.132	117.42
360.344	121.51
360.555	96.94
360.766	62.12
360.977	19.11
361.189	74.41
361.4	51.88
361.611	113.32
361.823	23.21
362.034	17.07
362.245	37.55
362.456	55.98
362.667	47.79
362.879	113.32
363.09	53.93
363.301	137.9
363.512	35.5
363.723	47.79
363.935	33.45
364.146	117.42
364.357	119.46
364.568	41.64
364.779	107.18
364.99	58.03
365.201	43.69
365.412	105.13
365.623	68.27
365.834	62.12
366.045	12.97
366.256	41.64
366.467	164.52
366.678	37.55
366.889	51.88
367.1	41.64
367.311	82.6
367.522	98.99
367.733	84.65
367.944	146.09
368.155	37.55
368.366	119.46
368.577	139.94
368.788	58.03
368.999	72.36
369.209	111.27
369.42	96.94
369.631	113.32
369.842	31.4
370.053	41.64
370.264	23.21
370.474	19.11
370.685	-1.37
370.896	162.47
371.107	64.17
371.317	98.99
371.528	35.5
371.739	66.22
371.95	105.13
372.16	72.36
372.371	43.69
372.582	90.79
372.792	62.12
373.003	62.12
373.214	76.46
373.424	70.31
373.635	27.31
373.846	90.79
374.056	70.31
374.267	125.61
374.477	115.37
374.688	60.07
374.898	58.03
375.109	90.79
375.319	88.75
375.53	78.51
375.74	144.04
375.951	45.74
376.161	76.46
376.372	86.7
376.582	43.69
376.793	129.7
377.003	19.11
377.214	78.51
377.424	90.79
377.635	101.03
377.845	135.85
378.055	68.27
378.266	90.79
378.476	47.79
378.686	133.8
378.897	19.11
379.107	12.97
379.317	78.51
379.528	62.12
379.738	82.6
379.948	74.41
380.158	123.56
380.369	68.27
380.579	37.55
380.789	103.08
380.999	101.03
381.21	31.4
381.42	170.66
381.63	21.16
381.84	111.27
382.05	154.28
382.261	-15.7
382.471	86.7
382.681	43.69
382.891	51.88
383.101	98.99
383.311	41.64
383.521	49.83
383.731	160.42
383.941	80.55
384.151	111.27
384.361	72.36
384.571	21.16
384.781	74.41
384.991	154.28
385.201	137.9
385.411	90.79
385.621	90.79
385.831	41.64
386.041	182.95
386.251	103.08
386.461	72.36
386.671	64.17
386.881	45.74
387.091	31.4
387.301	66.22
387.511	111.27
387.72	68.27
387.93	51.88
388.14	68.27
388.35	29.35
388.56	96.94
388.769	80.55
388.979	121.51
389.189	66.22
389.399	66.22
389.609	76.46
389.818	174.76
390.028	119.46
390.238	125.61
390.447	117.42
390.657	96.94
390.867	62.12
391.076	49.83
391.286	111.27
391.496	101.03
391.705	123.56
391.915	47.79
392.125	115.37
392.334	113.32
392.544	119.46
392.753	152.23
392.963	41.64
393.172	121.51
393.382	92.84
393.591	146.09
393.801	103.08
394.01	68.27
394.22	133.8
394.429	135.85
394.639	88.75
394.848	123.56
395.058	80.55
395.267	111.27
395.477	111.27
395.686	180.9
395.895	180.9
396.105	199.34
396.314	228.01
396.524	139.94
396.733	43.69
396.942	78.51
397.152	144.04
397.361	144.04
397.57	109.22
397.78	135.85
397.989	105.13
398.198	215.72
398.407	125.61
398.617	88.75
398.826	152.23
399.035	129.7
399.244	164.52
399.453	189.1
399.663	123.56
399.872	131.75
400.081	111.27
400.29	105.13
400.499	193.19
400.708	121.51
400.917	135.85
401.127	268.97
401.336	166.57
401.545	191.14
401.754	158.38
401.963	182.95
402.172	117.42
402.381	195.24
402.59	236.2
402.799	84.65
403.008	223.91
403.217	258.73
403.426	189.1
403.635	144.04
403.844	199.34
404.053	238.25
404.262	193.19
404.471	195.24
404.68	172.71
404.888	266.92
405.097	189.1
405.306	256.68
405.515	307.88
405.724	180.9
405.933	256.68
406.142	250.53
406.35	203.43
406.559	279.21
406.768	225.96
406.977	307.88
407.185	271.01
407.394	228.01
407.603	354.98
407.812	232.1
408.02	373.41
408.229	293.54
408.438	387.75
408.646	311.97
408.855	330.41
409.064	438.95
409.272	344.74
409.481	426.66
409.69	340.65
409.898	379.56
410.107	391.84
410.315	428.71
410.524	527.01
410.733	531.11
410.941	498.34
411.15	494.24
411.358	535.2
411.567	625.31
411.775	594.59
411.984	567.97
412.192	670.37
412.401	537.25
412.609	658.08
412.818	686.75
413.026	754.34
413.234	715.42
413.443	807.58
413.651	750.24
413.86	801.44
414.068	967.32
414.276	881.31
414.485	809.63
414.693	909.98
414.901	977.56
415.11	991.9
415.318	996
415.526	1047.19
415.734	1090.2
415.943	1069.72
416.151	1147.55
416.359	1204.89
416.567	1170.07
416.776	1399.45
416.984	1338.01
417.192	1424.02
417.4	1528.47
417.608	1409.69
417.817	1428.12
418.025	1616.53
418.233	1628.82
418.441	1550.99
418.649	1680.02
418.857	1788.56
419.065	1833.61
419.273	1874.57
419.481	1913.49
419.689	2050.7
419.897	2136.71
420.105	2138.76
420.313	2300.55
420.521	2364.04
420.729	2325.13
420.937	2515.59
421.145	2515.59
421.353	2613.89
421.561	2783.87
421.769	2742.91
421.977	3013.24
422.185	2906.75
422.393	3166.84
422.601	3355.26
422.809	3275.38
423.017	3369.59
423.224	3527.28
423.432	3541.62
423.64	3621.49
423.848	3994.22
424.056	3783.28
424.263	4100.72
424.471	4201.07
424.679	4219.5
424.887	4369
425.094	4620.9
425.302	4616.8
425.51	4823.65
425.718	5048.93
425.925	5145.18
426.133	5274.2
426.341	5474.9
426.548	5833.3
426.756	5712.47
426.964	5743.19
427.171	6134.35
427.379	6427.21
427.586	6429.26
427.794	6605.38
428.001	7012.93
428.209	7033.41
428.417	7127.61
428.624	7557.69
428.832	7723.57
429.039	7705.14
429.247	7565.88
429.454	8264.24
429.662	8794.66
429.869	8249.9
430.076	8849.96
430.284	8530.47
430.491	9110.05
430.699	9407
430.906	9263.65
431.114	9550.36
431.321	10232.33
431.528	10138.13
431.736	10899.97
431.943	11205.12
432.15	10922.5
432.358	11350.53
432.565	11627
432.772	11504.12
432.979	12192.24
433.187	12421.61
433.394	12669.42
433.601	13447.65
433.808	13285.86
434.016	13265.38
434.223	13754.84
434.43	14911.94
434.637	14496.21
434.844	15319.49
435.052	15724.99
435.259	15411.65
435.466	15460.8
435.673	15532.48
435.88	16499.12
436.087	17400.23
436.294	17338.79
436.501	17072.55
436.708	17361.31
436.915	18022.81
437.122	18715.02
437.329	18604.43
437.537	19466.63
437.743	19642.75
437.95	19489.15
438.157	20769.13
438.364	20963.69
438.571	21068.14
438.778	21094.76
438.985	23318.85
439.192	22047.07
439.399	22866.25
439.606	22444.37
439.813	23580.99
440.02	25049.39
440.227	24506.68
440.433	24426.81
440.64	25045.29
440.847	25035.05
441.054	25674.02
441.261	27353.35
441.467	26964.24
441.674	27455.75
441.881	28631.29
442.088	28367.1
442.294	28268.8
442.501	28981.49
442.708	29788.39
442.914	30734.55
443.121	32344.25
443.328	31385.8
443.534	33196.21
443.741	32465.08
443.948	31815.88
444.154	34617.5
444.361	33878.18
444.568	34238.62
444.774	34222.24
444.981	34836.63
445.187	35504.27
445.394	37255.28
445.6	36962.42
445.807	40114.25
446.013	38518.88
446.22	39549.01
446.426	40546.37
446.633	40814.65
446.839	42106.92
447.046	40779.84
447.252	42829.85
447.459	42956.83
447.665	42440.74
447.871	44275.72
448.078	46239.72
448.284	44136.46
448.491	45004.8
448.697	46759.91
448.903	47898.58
449.11	47779.79
449.316	46888.93
449.522	48332.75
449.728	49037.25
449.935	49399.74
450.141	49360.83
450.347	50284.46
450.553	48785.35
450.76	49428.41
450.966	51021.73
451.172	50616.23
451.378	51754.9
451.584	50890.66
451.791	51845.01
451.997	51838.87
452.203	52352.91
452.409	52731.78
452.615	52369.29
452.821	50524.07
453.027	49821.62
453.233	51996.56
453.44	50325.42
453.646	50976.67
453.852	51074.98
454.058	51849.11
454.264	50255.79
454.47	51435.42
454.676	49833.91
454.882	51652.5
455.088	47239.13
455.294	47757.27
455.5	48478.15
455.705	48988.1
455.911	47013.85
456.117	46262.25
456.323	45815.79
456.529	43202.58
456.735	45170.68
456.941	43765.77
457.147	43198.49
457.352	41984.04
457.558	41793.58
457.764	41740.33
457.97	40503.36
458.176	40040.52
458.381	39481.42
458.587	37812.33
458.793	38113.38
458.999	36292.74
459.204	38590.56
459.41	37519.47
459.616	35154.07
459.821	35039.38
460.027	34674.84
460.233	34275.49
460.438	32184.51
460.644	32899.25
460.85	31320.27
461.055	30882
461.261	30699.73
461.466	28440.82
461.672	27332.87
461.878	29800.68
462.083	27478.28
462.289	27048.21
462.494	26702.1
462.7	25671.97
462.905	24912.17
463.111	25729.31
463.316	26126.62
463.522	25463.08
463.727	25272.62
463.932	25350.44
464.138	25039.15
464.343	24883.5
464.549	24035.64
464.754	25295.14
464.959	25100.59
465.165	24893.74
465.37	23855.42
465.575	23064.91
465.781	23976.25
465.986	24273.21
466.191	23361.86
466.397	22976.84
466.602	21899.61
466.807	22546.77
467.012	22575.44
467.218	22210.9
467.423	22186.33
467.628	22573.39
467.833	23316.81
468.038	22681.94
468.244	21608.8
468.449	22749.52
468.654	21838.17
468.859	21842.27
469.064	21535.07
469.269	21025.13
469.474	20992.36
469.679	21182.82
469.885	20689.26
470.09	20926.83
470.295	20959.59
470.5	20500.85
470.705	20758.89
470.91	19861.88
471.115	19865.98
471.32	20189.56
471.525	20152.7
471.73	19595.65
471.935	19347.84
472.139	18778.51
472.344	19020.17
472.549	19212.68
472.754	18651.53
472.959	18192.79
473.164	17805.72
473.369	17801.63
473.574	18461.07
473.778	18368.91
473.983	18106.77
474.188	17770.91
474.393	17506.72
474.598	17267.11
474.802	16751.02
475.007	16802.22
475.212	16671.15
475.417	16370.1
475.621	16269.75
475.826	16474.54
476.031	16007.61
476.235	15577.53
476.44	16087.48
476.645	15794.62
476.849	15573.44
477.054	15327.68
477.259	15120.84
477.463	15317.44
477.668	14924.23
477.872	15245.76
478.077	14739.91
478.282	14424.53
478.486	14148.05
478.691	14254.55
478.895	14291.41
479.1	14043.6
479.304	14103
479.509	13736.41
479.713	14082.52
479.918	13849.05
480.122	13259.23
480.326	13625.82
480.531	13681.11
480.735	13507.04
480.94	13572.57
481.144	13783.51
481.348	13132.26
481.553	13304.29
481.757	12886.5
481.961	13212.13
482.166	13263.33
482.37	13302.24
482.574	12874.21
482.778	13064.68
482.983	13349.34
483.187	13101.54
483.391	13079.01
483.595	13060.58
483.8	12927.46
484.004	13160.93
484.208	13226.46
484.412	13167.07
484.616	13050.34
484.821	13173.22
485.025	12831.21
485.229	13269.47
485.433	13005.28
485.637	13033.96
485.841	12943.85
486.045	12935.65
486.249	13036
486.453	12984.8
486.657	13130.21
486.861	13087.2
487.065	12720.62
487.269	13052.39
487.473	12947.94
487.677	13210.08
487.881	13033.96
488.085	12941.8
488.289	13101.54
488.493	12974.56
488.697	13263.33
488.901	13402.59
489.105	13081.06
489.309	13171.17
489.512	13138.4
489.716	13261.28
489.92	13281.76
490.124	13320.67
490.328	13545.95
490.531	13203.94
490.735	13365.73
490.939	13373.92
491.143	13287.9
491.346	13525.47
491.55	13414.88
491.754	13611.48
491.958	13769.18
492.161	13832.66
492.365	13627.87
492.569	13847
492.772	13730.27
492.976	13828.57
493.18	14086.61
493.383	14186.96
493.587	14055.89
493.79	14361.04
493.994	14213.59
494.197	14555.6
494.401	14320.08
494.605	14703.05
494.808	14811.59
495.012	14733.77
495.215	14901.7
495.419	14965.19
495.622	15016.39
495.825	15176.13
496.029	14979.53
496.232	15458.75
496.436	15509.95
496.639	15501.76
496.843	15825.34
497.046	16128.44
497.249	16196.02
497.453	16187.83
497.656	16515.5
497.859	16802.22
498.063	16433.58
498.266	17056.17
498.469	16984.49
498.673	17250.72
498.876	17461.66
499.079	17516.96
499.282	17420.7
499.485	17828.25
499.689	17963.42
499.892	18135.45
500.095	18471.31
500.298	18684.3
500.501	18373.01
500.705	18973.07
500.908	19220.87
501.111	19573.12
501.314	19683.71
501.517	19868.03
501.72	20119.93
501.923	19796.35
502.126	20775.28
502.329	20783.47
502.532	20892.01
502.735	20916.59
502.938	21397.86
503.141	21686.62
503.344	21971.29
503.547	21616.99
503.75	22327.64
503.953	22567.25
504.156	22913.36
504.359	22659.41
504.562	22958.41
504.765	23648.58
504.968	24019.26
505.17	24013.12
505.373	23902.53
505.576	24938.8
505.779	24920.37
505.982	24801.58
506.185	25362.73
506.387	25356.58
506.59	25536.81
506.793	26087.71
506.996	25923.87
507.198	26831.12
507.401	26745.11
507.604	26767.63
507.807	27334.92
508.009	27705.6
508.212	27885.83
508.415	28107.01
508.617	28444.92
508.82	28768.5
509.022	28479.74
509.225	29446.38
509.428	29669.61
509.63	29368.55
509.833	29663.46
510.035	30314.72
510.238	30464.22
510.44	30865.62
510.643	30990.55
510.845	31334.6
511.048	31305.93
511.25	32192.7
511.453	32067.78
511.655	33192.11
511.858	32645.3
512.06	33196.21
512.262	33204.4
512.465	33468.59
512.667	33818.79
512.87	34277.54
513.072	34429.09
513.274	35199.12
513.477	35045.52
513.679	35373.2
513.881	35676.3
514.084	36327.55
514.286	35895.43
514.488	36276.35
514.69	37652.59
514.893	37539.95
515.095	37488.75
515.297	37986.41
515.499	38088.81
515.701	38588.51
515.904	38678.62
516.106	38860.89
516.308	39022.68
516.51	39977.03
516.712	39630.93
516.914	40507.46
517.116	40802.36
517.318	40843.32
517.52	41322.55
517.722	41386.04
517.925	41803.82
518.127	42260.52
518.329	42620.96
518.531	42471.46
518.733	42899.48
518.935	43655.18
519.136	43819.02
519.338	44490.76
519.54	44017.67
519.742	44623.87
519.944	44759.04
520.146	45451.25
520.348	45246.46
520.55	45750.26
520.752	46192.62
520.954	46561.25
521.155	46045.16
521.357	47161.31
521.559	47597.52
521.761	48021.45
521.963	47368.15
522.164	47814.61
522.366	47812.56
522.568	48408.52
522.77	48512.97
522.971	49641.4
523.173	49131.45
523.375	49670.07
523.576	49690.55
523.778	49584.05
523.98	50028.46
524.181	49903.54
524.383	50573.22
524.584	50952.1
524.786	51111.84
524.988	50753.44
525.189	51244.96
525.391	51468.19
525.592	51738.52
525.794	52002.71
525.995	51984.27
526.197	52326.28
526.398	52287.37
526.6	52555.66
526.801	52598.66
527.003	52936.58
527.204	53043.07
527.406	53360.51
527.607	53362.56
527.808	53915.51
528.01	52731.78
528.211	53163.9
528.412	54310.77
528.614	54024.05
528.815	53868.4
529.016	54560.62
529.218	53827.45
529.419	54216.56
529.62	54431.6
529.822	54081.39
530.023	54544.23
530.224	54402.92
530.425	54402.92
530.626	54376.3
530.828	54224.75
531.029	55029.6
531.23	54585.19
531.431	54513.51
531.632	54884.2
531.833	55123.81
532.035	54771.56
532.236	54755.18
532.437	54988.64
532.638	55002.98
532.839	54929.25
533.04	54976.36
533.241	54720.36
533.442	55326.56
533.643	54744.94
533.844	54417.26
534.045	55359.33
534.246	54648.68
534.447	55410.53
534.648	54953.83
534.849	55002.98
535.05	54853.48
535.251	55230.3
535.451	55074.66
535.652	55246.69
535.853	54916.96
536.054	55037.79
536.255	54986.6
536.456	54916.96
536.657	55404.38
536.857	54785.89
537.058	54724.46
537.259	55246.69
537.46	55299.93
537.66	54947.68
537.861	54581.1
538.062	54746.98
538.263	54894.44
538.463	54431.6
538.664	54591.34
538.865	54869.86
539.065	54802.28
539.266	54267.76
539.466	54861.67
539.667	54073.2
539.868	55052.13
540.068	54476.65
540.269	54861.67
540.469	54589.29
540.67	54501.23
540.87	54151.02
541.071	54085.49
541.271	54638.44
541.472	54187.89
541.672	54167.41
541.873	54073.2
542.073	53454.71
542.274	54847.33
542.474	54226.8
542.675	54128.5
542.875	54429.55
543.075	54230.9
543.276	53483.39
543.476	54634.35
543.676	53892.98
543.877	54155.12
544.077	53663.61
544.277	54017.91
544.478	53888.88
544.678	54335.34
544.878	53763.96
545.078	53978.99
545.279	53440.38
545.479	53946.23
545.679	54155.12
545.879	53929.84
546.079	53616.5
546.28	53811.06
546.48	53231.49
546.68	53313.41
546.88	53288.83
547.08	53405.56
547.28	53254.01
547.48	52858.76
547.68	53413.76
547.88	53180.29
548.081	53356.41
548.281	53407.61
548.481	52840.32
548.681	53237.63
548.881	53141.38
549.081	53499.77
549.28	52739.97
549.48	53090.18
549.68	52971.39
549.88	53596.02
550.08	52565.9
550.28	53309.31
550.48	52791.17
550.68	53041.03
550.88	52680.58
551.08	52723.59
551.279	53079.94
551.479	52635.53
551.679	53161.86
551.879	52565.9
552.079	52744.07
552.278	52635.53
552.478	52881.28
552.678	52479.88
552.878	53208.96
553.077	52098.96
553.277	51779.48
553.477	52727.69
553.676	52060.05
553.876	52496.27
554.076	52326.28
554.275	52246.41
554.475	51926.93
554.674	52117.39
554.874	52162.45
555.074	52053.9
555.273	52221.84
555.473	52230.03
555.672	51711.89
555.872	51988.37
556.071	51914.64
556.271	52053.9
556.47	51787.67
556.67	51296.16
556.869	51670.93
557.068	51822.48
557.268	51425.18
557.467	51226.53
557.667	51513.24
557.866	51541.91
558.065	51214.24
558.265	50861.99
558.464	50902.95
558.663	51568.54
558.863	50796.45
559.062	51797.91
559.261	50538.41
559.461	51249.05
559.66	50423.72
559.859	51271.58
560.058	50466.73
560.258	51115.93
560.457	50460.58
560.656	50823.08
560.855	50458.54
561.054	50055.09
561.253	50161.58
561.453	50257.84
561.652	50417.58
561.851	50304.94
562.05	49964.98
562.249	50349.99
562.448	50321.32
562.647	49913.78
562.846	50157.49
563.045	49715.12
563.244	49391.54
563.443	49946.54
563.642	49121.21
563.841	49895.35
564.04	49229.76
564.239	49838
564.438	48951.23
564.637	49555.38
564.836	49522.61
565.035	48990.14
565.234	49082.3
565.432	48809.92
565.631	48637.89
565.83	49094.59
566.029	48854.98
566.228	48820.16
566.427	48134.09
566.625	48338.89
566.824	47892.43
567.023	48564.17
567.222	47773.65
567.42	48531.4
567.619	47863.76
567.818	47878.1
568.016	47519.7
568.215	48043.98
568.414	47988.69
568.612	48019.41
568.811	47777.75
569.01	47644.63
569.208	47212.51
569.407	47378.39
569.605	46637.03
569.804	47249.37
570.002	46874.59
570.201	47069.15
570.4	46403.56
570.598	46649.31
570.797	46559.2
570.995	46430.18
571.193	46090.22
571.392	46749.67
571.59	45871.09
571.789	46000.11
571.987	46223.34
572.186	45987.82
572.384	45918.19
572.582	46200.81
572.781	45610.99
572.979	45479.92
573.177	45664.24
573.376	45381.62
573.574	44955.64
573.772	45156.35
573.971	45039.61
574.169	44849.15
574.367	44501
574.565	44634.11
574.763	44742.66
574.962	44738.56
575.16	44181.51
575.358	44361.73
575.556	44144.65
575.754	44361.73
575.952	43837.45
576.151	44494.85
576.349	43833.36
576.547	43178.01
576.745	44066.83
576.943	43849.74
577.141	43345.94
577.339	43313.17
577.537	43423.76
577.735	43507.73
577.933	43085.85
578.131	43155.48
578.329	42975.26
578.527	42534.95
578.725	42817.57
578.923	42737.69
579.121	42580
579.319	42336.29
579.516	42786.85
579.714	42385.44
579.912	42295.33
580.11	41998.38
580.308	42401.83
580.506	42059.82
580.704	40994.87
580.901	41357.36
581.099	41740.33
581.297	41226.29
581.495	41328.69
581.692	41513.01
581.89	41027.64
582.088	41685.04
582.285	41185.33
582.483	40712.25
582.681	41111.61
582.878	40609.85
583.076	40724.54
583.274	40476.74
583.471	39794.76
583.669	40142.92
583.866	39966.79
584.064	40187.97
584.262	39635.02
584.459	39729.23
584.657	39733.32
584.854	39831.63
585.052	38887.51
585.249	39557.2
585.447	39762
585.644	39028.82
585.841	39329.87
586.039	39260.24
586.236	38428.77
586.434	38733.92
586.631	38631.52
586.828	38672.48
587.026	38881.37
587.223	38260.83
587.42	38473.82
587.618	38289.51
587.815	37980.26
588.012	37779.56
588.21	37423.22
588.407	38174.82
588.604	37691.5
588.801	37257.33
588.999	37331.06
589.196	37517.42
589.393	37269.62
589.59	36995.19
589.787	36771.96
589.984	36776.06
590.182	36636.8
590.379	37015.67
590.576	36397.18
590.773	36460.67
590.97	36436.09
591.167	36634.75
591.364	36161.67
591.561	36173.95
591.758	35948.68
591.955	35801.22
592.152	36350.08
592.349	35469.45
592.546	35561.61
592.743	35369.1
592.94	35197.07
593.137	35582.09
593.334	35508.36
593.531	34568.35
593.727	35289.23
593.924	35131.54
594.121	34476.19
594.318	34736.28
594.515	34379.93
594.712	34805.91
594.908	34470.04
595.105	34537.63
595.302	34033.83
595.499	34293.92
595.696	33861.8
595.892	33867.94
596.089	34121.89
596.286	33560.75
596.482	33319.09
596.679	33292.46
596.876	33435.82
597.072	33171.63
597.269	33394.86
597.466	32602.3
597.662	32565.43
597.859	32815.29
598.055	32884.92
598.252	32940.21
598.448	32882.87
598.645	32493.75
598.841	32118.98
599.038	32389.31
599.234	32248
599.431	31772.87
599.627	32090.31
599.824	31830.21
600.02	31711.43
600.217	31807.69
600.413	31842.5
600.609	31414.48
600.806	31480.01
601.002	31596.74
601.198	31164.62
601.395	31234.25
601.591	30912.72
601.787	31234.25
601.984	30947.54
602.18	31291.6
602.376	31000.79
602.572	30423.26
602.769	30435.55
602.965	30230.75
603.161	30175.45
603.357	30054.62
603.553	29880.55
603.75	30413.02
603.946	29999.33
604.142	29860.07
604.338	29407.47
604.534	30042.34
604.73	29325.55
604.926	29544.68
605.122	29774.05
605.318	29399.27
605.514	28788.98
605.71	28924.15
605.906	28823.79
606.102	28965.1
606.298	29143.28
606.494	28801.27
606.69	29079.79
606.886	28860.66
607.082	28430.58
607.278	28692.72
607.474	28283.13
607.67	28432.63
607.866	28141.82
608.062	28455.16
608.257	28436.73
608.453	28260.6
608.649	28004.61
608.845	27820.29
609.041	27980.03
609.236	28309.75
609.432	27879.68
609.628	27777.28
609.824	27818.24
610.019	27480.33
610.215	27576.58
610.411	27965.7
610.606	27457.8
610.802	27930.88
610.998	27388.17
611.193	27654.4
611.389	27281.67
611.584	26921.23
611.78	27046.16
611.976	27023.63
612.171	27027.73
612.367	27017.49
612.562	26587.41
612.758	26843.41
612.953	26611.99
613.149	26980.62
613.344	26726.67
613.539	26966.29
613.735	26493.21
613.93	26542.36
614.126	26454.29
614.321	26872.08
614.517	26599.7
614.712	26472.73
614.907	26157.34
615.103	26312.99
615.298	26153.24
615.493	26442.01
615.688	26065.18
615.884	26302.75
616.079	25757.99
616.274	26181.92
616.47	25841.95
616.665	26294.55
616.86	25807.14
617.055	25792.8
617.25	25700.64
617.445	25991.45
617.641	25444.65
617.836	25712.93
618.031	25166.12
618.226	25579.81
618.421	25180.46
618.616	25368.87
618.811	24901.93
619.006	25022.76
619.201	24521.01
619.396	25030.96
619.591	24693.04
619.786	24666.42
619.981	24334.65
620.176	24654.13
620.371	23775.55
620.566	24310.07
620.761	23955.77
620.956	24566.07
621.151	23730.5
621.346	24039.74
621.541	23327.05
621.735	23910.72
621.93	23478.6
622.125	23550.28
622.32	22999.37
622.515	23308.62
622.709	23003.47
622.904	22974.8
623.099	22794.57
623.294	22864.21
623.488	22800.72
623.683	22577.49
623.878	22258.01
624.072	22364.5
624.267	22278.49
624.462	22237.53
624.656	21987.68
624.851	21885.28
625.046	21680.48
625.24	21289.32
625.435	21352.8
625.629	21639.52
625.824	21453.16
626.018	21256.55
626.213	20781.42
626.407	21141.86
626.602	20611.44
626.796	20785.52
626.991	20554.1
627.185	20513.14
627.38	20472.18
627.574	20199.8
627.768	19968.38
627.963	20150.65
628.157	19747.2
628.352	19917.18
628.546	19417.47
628.74	19972.47
628.935	19104.14
629.129	19382.66
629.323	19104.14
629.517	19083.66
629.712	19562.88
629.906	18856.33
630.1	18479.5
630.294	18981.26
630.489	18434.45
630.683	18731.4
630.877	18530.7
631.071	18420.11
631.265	18266.52
631.459	18016.66
631.653	17887.64
631.848	18135.45
632.042	17967.51
632.236	18041.24
632.43	17596.83
632.624	17914.27
632.818	17523.1
633.012	17498.53
633.206	17459.62
633.4	17498.53
633.594	17172.9
633.788	17201.57
633.982	17062.31
634.176	17166.76
634.369	17002.92
634.563	16800.17
634.757	16849.32
634.951	16613.81
635.145	16646.57
635.339	16685.48
635.533	16017.85
635.726	16345.52
635.92	15886.78
636.114	16232.88
636.308	15940.02
636.501	16073.14
636.695	15968.69
636.889	15843.77
637.083	15827.39
637.276	15415.74
637.47	15325.63
637.664	15454.65
637.857	15331.78
638.051	15225.28
638.244	15389.12
638.438	15071.68
638.632	15104.45
638.825	15077.83
639.019	14950.85
639.212	14911.94
639.406	14750.15
639.599	14715.34
639.793	14391.76
639.986	14500.3
640.18	14522.83
640.373	14426.57
640.567	14068.18
640.76	14195.15
640.954	14184.91
641.147	14088.66
641.34	13949.4
641.534	13824.47
641.727	13728.22
641.92	13703.64
642.114	13668.83
642.307	13687.26
642.5	13677.02
642.694	13455.84
642.887	13285.86
643.08	13707.74
643.273	13285.86
643.467	13472.22
643.66	12968.42
643.853	12749.29
644.046	13005.28
644.239	12745.19
644.432	12939.75
644.626	12550.64
644.819	12532.2
645.012	12708.33
645.205	12714.47
645.398	12483.05
645.591	12376.56
645.784	12290.54
645.977	12394.99
646.17	12298.73
646.363	12173.81
646.556	11987.44
646.749	11876.85
646.942	11983.35
647.135	11876.85
647.328	11883
647.521	11928.05
647.714	11557.37
647.907	11569.66
648.099	11459.07
648.292	11551.23
648.485	11440.64
648.678	11362.81
648.871	11461.12
649.064	11192.83
649.256	11282.94
649.449	11373.05
649.642	11260.41
649.835	11035.14
650.027	11028.99
650.22	11098.63
650.413	11049.47
650.605	10715.66
650.798	10660.36
650.991	10617.35
651.183	10867.2
651.376	10486.28
651.568	10512.91
651.761	10340.88
651.954	10543.63
652.146	10318.35
652.339	10400.27
652.531	10394.12
652.724	10310.16
652.916	10031.63
653.109	10035.73
653.301	10103.31
653.494	10023.44
653.686	9951.76
653.879	10179.09
654.071	9798.17
654.263	9927.19
654.456	9681.43
654.648	9828.88
654.84	9585.18
655.033	9753.11
655.225	9462.3
655.417	9499.16
655.61	9447.96
655.802	9425.43
655.994	9460.25
656.186	9452.06
656.379	9464.35
656.571	9302.56
656.763	9232.93
656.955	9185.82
657.148	9089.57
657.34	9005.6
657.532	8821.28
657.724	8790.56
657.916	9064.99
658.108	8866.34
658.3	8901.15
658.492	8768.04
658.684	8813.09
658.876	8837.67
659.068	8530.47
659.26	8563.24
659.452	8536.62
659.644	8509.99
659.836	8462.89
660.028	8333.87
660.22	8452.65
660.412	8210.99
660.604	8028.72
660.796	8229.42
660.988	8108.59
661.18	8184.37
661.372	8172.08
661.563	8124.97
661.755	7969.33
661.947	8055.34
662.139	7819.83
662.331	8067.63
662.522	7721.52
662.714	8092.21
662.906	7924.27
663.097	7846.45
663.289	7649.85
663.481	7592.5
663.673	7668.28
663.864	7549.5
664.056	7488.06
664.247	7328.31
664.439	7363.13
664.631	7459.38
664.822	7340.6
665.014	7346.75
665.205	7397.95
665.397	7191.1
665.588	7365.18
665.78	7088.7
665.971	7201.34
666.163	7176.77
666.354	7072.32
666.546	7144
666.737	6967.87
666.929	6840.9
667.12	7086.65
667.311	6945.34
667.503	6840.9
667.694	6914.63
667.885	6750.79
668.077	6914.63
668.268	6861.38
668.459	6857.28
668.651	6742.6
668.842	6611.53
669.033	6644.29
669.224	6502.98
669.416	6502.98
669.607	6459.98
669.798	6539.85
669.989	6529.61
670.18	6384.2
670.371	6470.22
670.563	6376.01
670.754	6392.39
670.945	6136.4
671.136	6302.28
671.327	6251.08
671.518	6179.4
671.709	6257.23
671.9	6343.24
672.091	6138.44
672.282	6109.77
672.473	6115.92
672.664	6154.83
672.855	6113.87
673.046	5962.32
673.237	6234.7
673.428	5950.03
673.619	6175.31
673.809	5972.56
674	5876.31
674.191	5933.65
674.382	5921.36
674.573	5790.29
674.764	5702.23
674.954	5829.2
675.145	5702.23
675.336	5843.54
675.527	5767.76
675.717	5659.22
675.908	5696.08
676.099	5702.23
676.289	5648.98
676.48	5737.04
676.671	5749.33
676.861	5724.76
677.052	5548.63
677.243	5290.59
677.433	5616.21
677.624	5354.07
677.814	5317.21
678.005	5468.76
678.195	5306.97
678.386	5474.9
678.576	5362.26
678.767	5409.37
678.957	5251.67
679.148	5315.16
679.338	5413.46
679.529	5405.27
679.719	5435.99
679.909	5345.88
680.1	5173.85
680.29	5180
680.481	5202.52
680.671	5196.38
680.861	5067.36
681.052	5126.75
681.242	4971.1
681.432	5192.28
681.622	5173.85
681.813	5196.38
682.003	5079.65
682.193	5018.21
682.383	5274.2
682.573	5024.35
682.764	5120.6
682.954	4954.72
683.144	4956.77
683.334	4860.51
683.524	4907.62
683.714	4821.6
683.904	4819.55
684.094	5005.92
684.284	4864.61
684.474	4862.56
684.664	4807.27
684.854	4837.98
685.044	4788.83
685.234	4801.12
685.424	4686.44
685.614	4672.1
685.804	4786.79
685.994	4549.22
686.184	4608.61
686.374	4553.32
686.564	4629.09
686.753	4692.58
686.943	4403.82
687.133	4635.24
687.323	4538.98
687.513	4512.36
687.702	4510.31
687.892	4377.19
688.082	4416.1
688.272	4428.39
688.461	4412.01
688.651	4471.4
688.841	4272.75
689.03	4399.72
689.22	4325.99
689.41	4409.96
689.599	4307.56
689.789	4348.52
689.979	4301.42
690.168	4264.55
690.358	4184.68
690.547	4239.98
690.737	4063.85
690.926	4276.84
691.116	3998.32
691.305	4270.7
691.495	4035.18
691.684	4029.04
691.874	4121.2
692.063	4100.72
692.252	4131.44
692.442	4246.12
692.631	4033.13
692.82	4119.15
693.01	3881.58
693.199	3930.73
693.388	3932.78
693.578	3795.57
693.767	4059.76
693.956	4000.37
694.146	4004.46
694.335	3893.87
694.524	3787.38
694.713	3977.84
694.902	3805.81
695.092	3930.73
695.281	3734.13
695.47	3854.96
695.659	4002.41
695.848	3852.91
696.037	3680.88
696.226	3926.64
696.415	3736.18
696.604	3787.38
696.793	3723.89
696.982	3820.14
697.171	3844.72
697.36	3873.39
697.549	3775.09
697.738	3820.14
697.927	3656.31
698.116	3562.1
698.305	3627.64
698.494	3758.71
698.683	3672.69
698.872	3697.27
699.061	3564.15
699.25	3605.11
699.438	3711.6
699.627	3674.74
699.816	3635.83
700.005	3596.92
700.193	3609.2
700.382	3682.93
700.571	3676.79
700.76	3658.35
700.948	3551.86
701.137	3648.11
701.326	3611.25
701.514	3500.66
701.703	3613.3
701.892	3478.13
702.08	3465.85
702.269	3506.81
702.457	3562.1
702.646	3510.9
702.834	3500.66
703.023	3449.46
703.212	3381.88
703.4	3609.2
703.589	3586.68
703.777	3611.25
703.965	3467.89
704.154	3476.09
704.342	3471.99
704.531	3383.93
704.719	3416.69
704.907	3469.94
705.096	3332.73
705.284	3289.72
705.472	3349.11
705.661	3402.36
705.849	3439.22
706.037	3506.81
706.226	3449.46
706.414	3388.02
706.602	3248.76
706.79	3359.35
706.979	3416.69
707.167	3441.27
707.355	3224.19
707.543	3279.48
707.731	3361.4
707.919	3228.28
708.107	3166.84
708.296	3183.23
708.484	3179.13
708.672	3283.58
708.86	3314.3
709.048	3234.43
709.236	3263.1
709.424	3369.59
709.612	3269.24
709.8	3279.48
709.988	3170.94
710.176	3179.13
710.364	3250.81
710.551	3406.45
710.739	3031.68
710.927	3148.41
711.115	3252.86
711.303	3295.86
711.491	3220.09
711.679	3226.23
711.866	3189.37
712.054	3125.88
712.242	3156.6
712.43	3213.95
712.617	3177.08
712.805	3080.83
712.993	3172.99
713.181	3111.55
713.368	3136.12
713.556	3113.6
713.744	2990.72
713.931	3211.9
714.119	3144.31
714.306	3140.22
714.494	3144.31
714.682	3103.36
714.869	3021.44
715.057	3043.96
715.244	2984.57
715.432	3084.92
715.619	2925.18
715.807	3072.64
715.994	2976.38
716.182	3007.1
716.369	3086.97
716.556	3058.3
716.744	2955.9
716.931	2955.9
717.119	2908.8
717.306	3019.39
717.493	2960
717.681	2941.57
717.868	3031.68
718.055	2912.89
718.242	2904.7
718.43	2933.37
718.617	2853.5
718.804	2851.46
718.991	2865.79
719.179	2890.37
719.366	2914.94
719.553	2812.54
719.74	2878.08
719.927	2787.97
720.114	2828.93
720.301	2790.02
720.488	2806.4
720.676	2802.3
720.863	2945.66
721.05	2841.22
721.237	2798.21
721.424	2783.87
721.611	2714.24
721.798	2908.8
721.985	2828.93
722.172	2716.29
722.358	2794.11
722.545	2753.15
722.732	2747.01
722.919	2738.82
723.106	2558.6
723.293	2658.95
723.48	2677.38
723.667	2888.32
723.853	2579.08
724.04	2763.39
724.227	2646.66
724.414	2699.91
724.6	2632.32
724.787	2605.7
724.974	2597.51
725.161	2626.18
725.347	2638.47
725.534	2644.61
725.72	2552.45
725.907	2699.91
726.094	2640.51
726.28	2579.08
726.467	2460.29
726.653	2607.75
726.84	2628.23
727.027	2722.43
727.213	2460.29
727.4	2665.09
727.586	2558.6
727.773	2640.51
727.959	2603.65
728.145	2536.07
728.332	2544.26
728.518	2572.93
728.705	2439.81
728.891	2486.92
729.077	2581.12
729.264	2501.25
729.45	2538.12
729.636	2491.01
729.823	2472.58
730.009	2505.35
730.195	2491.01
730.382	2405
730.568	2501.25
730.754	2429.57
730.94	2519.68
731.126	2388.61
731.313	2443.91
731.499	2239.11
731.685	2411.14
731.871	2450.05
732.057	2429.57
732.243	2529.92
732.429	2400.9
732.615	2394.76
732.801	2230.92
732.987	2398.85
733.173	2359.94
733.359	2288.26
733.545	2368.13
733.731	2259.59
733.917	2327.18
734.103	2257.54
734.289	2273.93
734.475	2353.8
734.661	2239.11
734.847	2247.3
735.033	2454.15
735.219	2323.08
735.404	2206.35
735.59	2179.72
735.776	2202.25
735.962	2321.03
736.148	2269.83
736.333	2196.11
736.519	2267.78
736.705	2376.33
736.89	2202.25
737.076	2128.52
737.262	2278.02
737.447	2251.4
737.633	2169.48
737.819	2108.04
738.004	2138.76
738.19	2278.02
738.375	2073.23
738.561	2175.63
738.747	2019.98
738.932	2136.71
739.118	2222.73
739.303	2126.47
739.489	2077.32
739.674	2122.38
739.859	2230.92
740.045	2058.89
740.23	2146.95
740.416	2038.41
740.601	2069.13
740.786	2060.94
740.972	1991.31
741.157	2069.13
741.342	2122.38
741.528	2017.93
741.713	1903.25
741.898	1936.01
742.084	1989.26
742.269	2062.99
742.454	1938.06
742.639	1979.02
742.824	1936.01
743.01	1948.3
743.195	2054.8
743.38	1915.53
743.565	1954.44
743.75	1903.25
743.935	1997.45
744.12	1880.72
744.305	1903.25
744.49	1833.61
744.675	1946.25
744.86	1782.42
745.045	1921.68
745.23	1809.04
745.415	1862.29
745.6	1944.2
745.785	1790.61
745.97	1743.5
746.155	1723.02
746.34	1716.88
746.525	1714.83
746.71	1768.08
746.895	1610.39
747.079	1796.75
747.264	1792.66
747.449	1753.74
747.634	1690.26
747.819	1718.93
748.003	1718.93
748.188	1669.78
748.373	1680.02
748.557	1737.36
748.742	1690.26
748.927	1612.43
749.111	1661.59
749.296	1571.47
749.481	1622.67
749.665	1628.82
749.85	1612.43
750.034	1610.39
750.219	1598.1
750.404	1514.13
750.588	1661.59
750.773	1620.63
750.957	1499.8
751.141	1524.37
751.326	1524.37
751.51	1411.73
751.695	1542.8
751.879	1473.17
752.064	1438.36
752.248	1385.11
752.432	1417.88
752.617	1450.64
752.801	1462.93
752.985	1485.46
753.17	1430.16
753.354	1338.01
753.538	1444.5
753.722	1284.76
753.907	1389.21
754.091	1292.95
754.275	1315.48
754.459	1272.47
754.643	1362.58
754.828	1415.83
755.012	1292.95
755.196	1155.74
755.38	1247.9
755.564	1335.96
755.748	1272.47
755.932	1338.01
756.116	1237.66
756.3	1213.08
756.484	1172.12
756.668	1213.08
756.852	1172.12
757.036	1172.12
757.22	1188.5
757.404	1235.61
757.588	1184.41
757.772	1215.13
757.956	1129.11
758.14	1147.55
758.323	1104.54
758.507	1133.21
758.691	1098.39
758.875	1055.39
759.059	1086.11
759.242	1190.55
759.426	983.71
759.61	1022.62
759.794	1161.88
759.977	1161.88
760.161	1184.41
760.345	1077.91
760.528	1024.67
760.712	1024.67
760.895	1014.43
761.079	1002.14
761.263	971.42
761.446	918.17
761.63	981.66
761.813	1098.39
761.997	1016.48
762.18	928.41
762.364	1041.05
762.547	985.76
762.731	950.94
762.914	1006.24
763.098	1032.86
763.281	903.84
763.464	924.32
763.648	934.56
763.831	981.66
764.015	922.27
764.198	1010.33
764.381	856.73
764.564	985.76
764.748	924.32
764.931	934.56
765.114	899.74
765.297	950.94
765.481	817.82
765.664	912.03
765.847	836.25
766.03	998.04
766.213	922.27
766.397	903.84
766.58	869.02
766.763	940.7
766.946	895.64
767.129	959.13
767.312	924.32
767.495	856.73
767.678	856.73
767.861	785.05
768.044	873.12
768.227	879.26
768.41	907.93
768.593	778.91
768.776	807.58
768.959	848.54
769.142	776.86
769.324	809.63
769.507	787.1
769.69	774.81
769.873	858.78
770.056	881.31
770.239	832.16
770.421	819.87
770.604	842.4
770.787	686.75
770.97	828.06
771.152	721.57
771.335	674.46
771.518	713.38
771.7	723.62
771.883	907.93
772.066	762.53
772.248	811.68
772.431	713.38
772.613	737.95
772.796	778.91
772.978	756.38
773.161	731.81
773.343	694.94
773.526	774.81
773.708	719.52
773.891	694.94
774.073	713.38
774.256	606.88
774.438	717.47
774.621	703.14
774.803	774.81
774.985	604.83
775.168	713.38
775.35	696.99
775.532	647.84
775.715	631.46
775.897	715.42
776.079	680.61
776.261	623.27
776.444	690.85
776.626	627.36
776.808	703.14
776.99	639.65
777.173	596.64
777.355	637.6
777.537	664.22
777.719	606.88
777.901	629.41
778.083	602.79
778.265	627.36
778.447	653.98
778.629	623.27
778.811	623.27
778.993	594.59
779.175	598.69
779.357	584.35
779.539	555.68
779.721	674.46
779.903	625.31
780.085	670.37
780.267	578.21
780.449	549.54
780.631	522.91
780.812	543.39
780.994	557.73
781.176	518.82
781.358	500.39
781.54	584.35
781.721	527.01
781.903	576.16
782.085	522.91
782.267	555.68
782.448	490.15
782.63	522.91
782.812	465.57
782.993	484
783.175	555.68
783.357	473.76
783.538	537.25
783.72	451.24
783.901	473.76
784.083	506.53
784.264	445.09
784.446	473.76
784.627	541.35
784.809	449.19
784.99	484
785.172	516.77
785.353	484
785.535	492.2
785.716	445.09
785.897	422.56
786.079	432.8
786.26	518.82
786.441	465.57
786.623	434.85
786.804	479.91
786.985	395.94
787.167	447.14
787.348	314.02
787.529	430.76
787.71	404.13
787.891	389.8
788.073	393.89
788.254	373.41
788.435	404.13
788.616	383.65
788.797	340.65
788.978	361.13
789.159	285.35
789.34	336.55
789.522	404.13
789.703	391.84
789.884	393.89
790.065	371.37
790.246	391.84
790.427	385.7
790.607	334.5
790.788	361.13
790.969	338.6
791.15	424.61
791.331	273.06
791.512	314.02
791.693	336.55
791.874	277.16
792.054	320.17
792.235	357.03
792.416	297.64
792.597	283.3
792.778	301.73
792.958	262.82
793.139	379.56
793.32	350.89
793.5	283.3
793.681	332.45
793.862	314.02
794.042	330.41
794.223	244.39
794.404	244.39
794.584	291.49
794.765	242.34
794.945	318.12
795.126	273.06
795.306	387.75
795.487	346.79
795.667	314.02
795.848	242.34
796.028	293.54
796.209	248.49
796.389	285.35
796.57	299.69
796.75	350.89
796.93	283.3
797.111	232.1
797.291	271.01
797.471	260.77
797.652	297.64
797.832	256.68
798.012	299.69
798.192	252.58
798.373	320.17
798.553	279.21
798.733	264.87
798.913	289.45
799.093	228.01
799.274	248.49
799.454	209.58
799.634	244.39
799.814	221.86
799.994	246.44
800.174	254.63
800.354	244.39
800.534	246.44
800.714	156.33
800.894	283.3
801.074	213.67
801.254	305.83
801.434	279.21
801.614	234.15
801.794	189.1
801.974	608.93
802.154	273.06
802.334	297.64
802.514	234.15
802.693	166.57
802.873	262.82
803.053	262.82
803.233	246.44
803.413	191.14
803.592	189.1
803.772	215.72
803.952	240.29
804.131	230.06
804.311	252.58
804.491	195.24
804.67	166.57
804.85	168.62
805.03	193.19
805.209	266.92
805.389	180.9
805.568	256.68
805.748	217.77
805.928	152.23
806.107	225.96
806.287	289.45
806.466	244.39
806.646	250.53
806.825	217.77
807.004	76.46
807.184	182.95
807.363	172.71
807.543	168.62
807.722	160.42
807.901	133.8
808.081	232.1
808.26	152.23
808.439	158.38
808.619	232.1
808.798	203.43
808.977	225.96
809.156	215.72
809.336	174.76
809.515	256.68
809.694	203.43
809.873	101.03
810.052	201.38
810.231	203.43
810.411	240.29
810.59	170.66
810.769	154.28
810.948	113.32
811.127	150.18
811.306	191.14
811.485	172.71
811.664	172.71
811.843	107.18
812.022	180.9
812.201	150.18
812.38	189.1
812.559	211.62
812.737	160.42
812.916	148.14
813.095	182.95
813.274	150.18
813.453	115.37
813.632	146.09
813.811	168.62
813.989	133.8
814.168	203.43
814.347	139.94
814.526	203.43
814.704	139.94
814.883	92.84
815.062	152.23
815.24	131.75
815.419	166.57
815.598	131.75
815.776	146.09
815.955	121.51
816.133	123.56
816.312	211.62
816.49	103.08
816.669	168.62
816.847	137.9
817.026	170.66
817.204	74.41
817.383	113.32
817.561	156.33
817.74	156.33
817.918	150.18
818.097	80.55
818.275	146.09
818.453	160.42
818.632	178.86
818.81	137.9
818.988	62.12
819.167	90.79
819.345	205.48
819.523	96.94
819.701	103.08
819.879	141.99
820.058	113.32
820.236	150.18
820.414	41.64
820.592	115.37
820.77	94.89
820.948	121.51
821.127	66.22
821.305	141.99
821.483	119.46
821.661	111.27
821.839	94.89
822.017	178.86
822.195	123.56
822.373	31.4
822.551	94.89
822.729	201.38
822.907	90.79
823.085	92.84
823.262	60.07
823.44	109.22
823.618	154.28
823.796	166.57
823.974	137.9
824.152	23.21
824.329	86.7
824.507	125.61
824.685	94.89
824.863	35.5
825.04	88.75
825.218	70.31
825.396	172.71
825.574	115.37
825.751	115.37
825.929	127.66
826.107	64.17
826.284	94.89
826.462	55.98
826.639	88.75
826.817	55.98
826.994	76.46
827.172	64.17
827.349	127.66
827.527	101.03
827.704	125.61
827.882	47.79
828.059	139.94
828.237	76.46
828.414	107.18
828.591	70.31
828.769	98.99
828.946	47.79
829.124	96.94
829.301	148.14
829.478	207.53
829.655	158.38
829.833	187.05
830.01	117.42
830.187	131.75
830.364	33.45
830.542	107.18
830.719	129.7
830.896	98.99
831.073	109.22
831.25	103.08
831.427	123.56
831.604	164.52
831.782	41.64
831.959	103.08
832.136	82.6
832.313	141.99
832.49	78.51
832.667	111.27
832.844	51.88
833.021	152.23
833.198	33.45
833.374	123.56
833.551	82.6
833.728	82.6
833.905	60.07
834.082	19.11
834.259	105.13
834.436	84.65
834.612	82.6
834.789	76.46
834.966	72.36
835.143	60.07
835.319	2.73
835.496	92.84
835.673	39.59
835.85	107.18
836.026	64.17
836.203	121.51
836.38	25.26
836.556	27.31
836.733	74.41
836.909	123.56
837.086	41.64
837.262	141.99
837.439	82.6
837.616	92.84
837.792	8.87
837.968	58.03
838.145	107.18
838.321	133.8
838.498	90.79
838.674	129.7
838.851	154.28
839.027	55.98
839.203	90.79
839.38	19.11
839.556	84.65
839.732	115.37
839.909	25.26
840.085	94.89
840.261	41.64
840.437	23.21
840.614	41.64
840.79	78.51
840.966	90.79
841.142	64.17
841.318	72.36
841.494	101.03
841.671	94.89
841.847	105.13
842.023	43.69
842.199	66.22
842.375	86.7
842.551	72.36
842.727	-7.51
842.903	25.26
843.079	94.89
843.255	64.17
843.431	62.12
843.607	72.36
843.783	-3.41
843.959	55.98
844.134	105.13
844.31	55.98
844.486	-13.65
844.662	58.03
844.838	25.26
845.013	109.22
845.189	80.55
845.365	25.26
845.541	62.12
845.716	78.51
845.892	41.64
846.068	121.51
846.244	2.73
846.419	62.12
846.595	-5.46
846.77	2.73
846.946	60.07
847.122	51.88
847.297	19.11
847.473	74.41
847.648	-7.51
847.824	-7.51
847.999	53.93
848.175	51.88
848.35	64.17
848.526	33.45
848.701	41.64
848.876	66.22
849.052	90.79
849.227	51.88
849.403	23.21
849.578	21.16
849.753	35.5
849.929	15.02
850.104	6.83
850.279	4.78
850.454	-9.56
850.63	17.07
850.805	17.07
850.98	62.12
851.155	-7.51
851.33	31.4
851.505	-3.41
851.681	64.17
851.856	27.31
852.031	115.37
852.206	27.31
852.381	86.7
852.556	88.75
852.731	39.59
852.906	-9.56
853.081	25.26
853.256	90.79
853.431	84.65
853.606	-7.51
853.781	12.97
853.956	58.03
854.131	41.64
854.305	39.59
854.48	64.17
854.655	31.4
854.83	-60.76
855.005	-3.41
855.18	109.22
855.354	-7.51
855.529	-11.61
855.704	-15.7
855.879	80.55
856.053	90.79
856.228	82.6
856.403	27.31
856.577	78.51
856.752	-13.65
856.926	53.93
857.101	35.5
857.276	62.12
857.45	23.21
857.625	15.02
857.799	2.73
857.974	39.59
858.148	29.35
858.323	53.93
858.497	37.55
858.672	62.12
858.846	66.22
859.02	8.87
859.195	12.97
859.369	-5.46
859.543	-30.04
859.718	82.6
859.892	60.07
860.066	64.17
860.241	-11.61
860.415	-32.08
860.589	58.03
860.763	94.89
860.938	-19.8
861.112	90.79
861.286	41.64
861.46	-11.61
861.634	62.12
861.808	51.88
861.982	-71
862.157	-17.75
862.331	-19.8
862.505	-1.37
862.679	47.79
862.853	37.55
863.027	8.87
863.201	144.04
863.375	-21.85
863.549	72.36
863.722	78.51
863.896	49.83
864.07	0.68
864.244	47.79
864.418	37.55
864.592	72.36
864.766	-21.85
864.939	-11.61
865.113	10.92
865.287	35.5
865.461	-68.95
865.634	-23.89
865.808	-7.51
865.982	47.79
866.156	-9.56
866.329	-3.41
866.503	43.69
866.676	35.5
866.85	55.98
867.024	-95.57
867.197	0.68
867.371	64.17
867.544	25.26
867.718	47.79
867.891	31.4
868.065	2.73
868.238	29.35
868.412	-1.37
868.585	35.5
868.759	49.83
868.932	-32.08
869.105	15.02
869.279	39.59
869.452	-50.52
869.625	74.41
869.799	47.79
869.972	-50.52
870.145	43.69
870.319	45.74
870.492	19.11
870.665	-7.51
870.838	78.51
871.011	-25.94
871.185	84.65
871.358	-54.61
871.531	35.5
871.704	31.4
871.877	-3.41
872.05	43.69
872.223	33.45
872.396	39.59
872.569	72.36
872.742	-56.66
872.915	117.42
873.088	10.92
873.261	17.07
873.434	-5.46
873.607	-50.52
873.78	-5.46
873.953	-3.41
874.126	-27.99
874.299	37.55
874.471	-7.51
874.644	53.93
874.817	35.5
874.99	27.31
875.163	-54.61
875.335	53.93
875.508	68.27
875.681	17.07
875.853	2.73
876.026	4.78
876.199	-15.7
876.371	2.73
876.544	21.16
876.717	51.88
876.889	-17.75
877.062	-3.41
877.234	-38.23
877.407	33.45
877.579	45.74
877.752	23.21
877.924	55.98
878.097	-64.85
878.269	37.55
878.442	62.12
878.614	55.98
878.786	58.03
878.959	37.55
879.131	8.87
879.303	-7.51
879.476	31.4
879.648	-1.37
879.82	-7.51
879.993	-34.13
880.165	-21.85
880.337	-23.89
880.509	70.31
880.681	-15.7
880.854	-13.65
881.026	17.07
881.198	27.31
881.37	37.55
881.542	90.79
881.714	-1.37
881.886	-11.61
882.058	35.5
882.23	47.79
882.402	27.31
882.574	33.45
882.746	66.22
882.918	-3.41
883.09	27.31
883.262	43.69
883.434	-32.08
883.606	-7.51
883.778	4.78
883.95	31.4
884.122	-32.08
884.293	80.55
884.465	64.17
884.637	35.5
884.809	-23.89
884.98	-50.52
885.152	-15.7
885.324	12.97
885.496	-1.37
885.667	92.84
885.839	-3.41
886.011	-1.37
886.182	92.84
886.354	43.69
886.525	84.65
886.697	-5.46
886.869	21.16
887.04	82.6
887.212	49.83
887.383	76.46
887.555	62.12
887.726	82.6
887.897	2.73
888.069	-13.65
888.24	19.11
888.412	70.31
888.583	49.83
888.754	37.55
888.926	21.16
889.097	88.75
889.268	33.45
889.44	-7.51
889.611	-27.99
889.782	31.4
889.953	25.26
890.125	66.22
890.296	-36.18
890.467	-5.46
890.638	-15.7
890.809	37.55
890.98	-34.13
891.151	-50.52
891.323	53.93
891.494	10.92
891.665	27.31
891.836	98.99
892.007	47.79
892.178	82.6
892.349	51.88
892.52	-36.18
892.691	29.35
892.862	96.94
893.032	6.83
893.203	-21.85
893.374	-58.71
893.545	45.74
893.716	-58.71
893.887	41.64
894.057	84.65
894.228	15.02
894.399	-34.13
894.57	43.69
894.74	-7.51
894.911	-5.46
895.082	-3.41
895.253	-5.46
895.423	41.64
895.594	70.31
895.764	-46.42
895.935	-19.8
896.106	70.31
896.276	4.78
896.447	12.97
896.617	-77.14
896.788	47.79
896.958	23.21
897.129	27.31
897.299	10.92
897.47	-15.7
897.64	-19.8
897.81	-56.66
897.981	-11.61
898.151	17.07
898.322	17.07
898.492	53.93
898.662	35.5
898.832	-30.04
899.003	45.74
899.173	17.07
899.343	-15.7
899.513	-30.04
