Data from USB4F104151__45__12-00-55-929.txt Node

Date: Fri Mar 14 12:00:55 EDT 2025
User: louis
Spectrometer: USB4F10415
Trigger mode: 4
Integration Time (sec): 2.000000E-2
Scans to average: 1
Electric dark correction enabled: true
Nonlinearity correction enabled: false
Boxcar width: 0
XAxis mode: Wavelengths
Number of Pixels in Spectrum: 3648
>>>>>Begin Spectral Data<<<<<
178.204	-49.66
178.424	-49.66
178.644	-49.66
178.864	-158.21
179.084	-51.71
179.304	-12.8
179.524	38.4
179.744	7.68
179.964	-10.75
180.184	62.98
180.404	-72.19
180.624	-20.99
180.844	-10.75
181.064	28.16
181.283	-66.05
181.503	22.02
181.723	34.3
181.943	-37.38
182.163	-23.04
182.383	17.92
182.602	15.87
182.822	28.16
183.042	-0.51
183.262	-0.51
183.482	-23.04
183.701	11.78
183.921	1.54
184.141	-23.04
184.361	28.16
184.58	-37.38
184.8	-6.66
185.02	48.64
185.239	36.35
185.459	-16.9
185.679	24.06
185.898	65.02
186.118	36.35
186.338	-18.94
186.557	-14.85
186.777	54.78
186.997	22.02
187.216	38.4
187.436	83.45
187.655	36.35
187.875	36.35
188.095	-16.9
188.314	56.83
188.534	50.69
188.753	-18.94
188.973	38.4
189.192	28.16
189.412	44.54
189.631	-4.61
189.851	71.17
190.07	28.16
190.29	-39.42
190.509	42.5
190.729	3.58
190.948	19.97
191.168	60.93
191.387	7.68
191.607	-47.62
191.826	-27.14
192.045	46.59
192.265	40.45
192.484	-31.23
192.704	13.82
192.923	-4.61
193.142	69.12
193.362	32.26
193.581	-49.66
193.8	42.5
194.02	-12.8
194.239	32.26
194.458	-20.99
194.678	-4.61
194.897	87.55
195.116	5.63
195.335	24.06
195.555	15.87
195.774	-0.51
195.993	-18.94
196.212	-8.7
196.432	15.87
196.651	36.35
196.87	-25.09
197.089	-16.9
197.308	32.26
197.528	32.26
197.747	-66.05
197.966	-0.51
198.185	50.69
198.404	-4.61
198.623	60.93
198.842	50.69
199.062	54.78
199.281	32.26
199.5	-35.33
199.719	7.68
199.938	26.11
200.157	44.54
200.376	-20.99
200.595	15.87
200.814	9.73
201.033	1.54
201.252	13.82
201.471	17.92
201.69	-86.53
201.909	3.58
202.128	38.4
202.347	-16.9
202.566	-51.71
202.785	81.41
203.004	67.07
203.223	67.07
203.442	-92.67
203.661	7.68
203.879	15.87
204.098	22.02
204.317	-12.8
204.536	42.5
204.755	44.54
204.974	75.26
205.193	50.69
205.411	58.88
205.63	5.63
205.849	-4.61
206.068	95.74
206.287	-2.56
206.505	77.31
206.724	60.93
206.943	-59.9
207.162	-51.71
207.381	9.73
207.599	3.58
207.818	28.16
208.037	38.4
208.255	54.78
208.474	13.82
208.693	-12.8
208.911	-12.8
209.13	-51.71
209.349	-12.8
209.567	26.11
209.786	87.55
210.005	56.83
210.223	34.3
210.442	-16.9
210.661	62.98
210.879	81.41
211.098	-37.38
211.316	-0.51
211.535	28.16
211.753	52.74
211.972	19.97
212.191	-25.09
212.409	22.02
212.628	7.68
212.846	-25.09
213.065	19.97
213.283	15.87
213.502	-6.66
213.72	9.73
213.938	-2.56
214.157	13.82
214.375	48.64
214.594	-55.81
214.812	32.26
215.031	28.16
215.249	-78.33
215.467	28.16
215.686	-47.62
215.904	48.64
216.122	-2.56
216.341	-14.85
216.559	36.35
216.778	26.11
216.996	52.74
217.214	95.74
217.432	87.55
217.651	-39.42
217.869	-31.23
218.087	44.54
218.306	48.64
218.524	9.73
218.742	-25.09
218.96	22.02
219.179	-18.94
219.397	-14.85
219.615	75.26
219.833	54.78
220.051	97.79
220.27	34.3
220.488	67.07
220.706	46.59
220.924	-8.7
221.142	32.26
221.36	7.68
221.578	56.83
221.796	-43.52
222.015	73.21
222.233	-35.33
222.451	48.64
222.669	-102.91
222.887	-4.61
223.105	-6.66
223.323	36.35
223.541	-74.24
223.759	50.69
223.977	-53.76
224.195	118.27
224.413	46.59
224.631	77.31
224.849	-39.42
225.067	87.55
225.285	38.4
225.503	5.63
225.721	-31.23
225.939	22.02
226.157	22.02
226.375	83.45
226.592	1.54
226.81	13.82
227.028	7.68
227.246	15.87
227.464	11.78
227.682	7.68
227.9	24.06
228.117	30.21
228.335	22.02
228.553	-51.71
228.771	9.73
228.989	9.73
229.206	5.63
229.424	-6.66
229.642	-10.75
229.86	-20.99
230.077	56.83
230.295	-35.33
230.513	-12.8
230.731	-18.94
230.948	56.83
231.166	79.36
231.384	-31.23
231.601	-29.18
231.819	67.07
232.037	3.58
232.254	17.92
232.472	-20.99
232.689	48.64
232.907	75.26
233.125	24.06
233.342	26.11
233.56	-39.42
233.777	26.11
233.995	36.35
234.213	30.21
234.43	52.74
234.648	42.5
234.865	-14.85
235.083	3.58
235.3	48.64
235.518	-6.66
235.735	144.89
235.953	93.69
236.17	-12.8
236.388	40.45
236.605	50.69
236.822	-25.09
237.04	9.73
237.257	67.07
237.475	40.45
237.692	118.27
237.909	22.02
238.127	54.78
238.344	-0.51
238.562	87.55
238.779	71.17
238.996	46.59
239.214	38.4
239.431	-27.14
239.648	-25.09
239.865	7.68
240.083	52.74
240.3	-20.99
240.517	60.93
240.735	17.92
240.952	3.58
241.169	48.64
241.386	-20.99
241.603	15.87
241.821	-39.42
242.038	89.6
242.255	-25.09
242.472	1.54
242.689	67.07
242.907	32.26
243.124	46.59
243.341	-57.86
243.558	-12.8
243.775	-25.09
243.992	-8.7
244.209	81.41
244.426	46.59
244.643	-18.94
244.86	26.11
245.078	93.69
245.295	-57.86
245.512	11.78
245.729	-0.51
245.946	56.83
246.163	1.54
246.38	62.98
246.597	9.73
246.814	65.02
247.031	60.93
247.248	30.21
247.464	-31.23
247.681	46.59
247.898	-0.51
248.115	40.45
248.332	3.58
248.549	124.41
248.766	-33.28
248.983	26.11
249.2	-14.85
249.417	24.06
249.633	-47.62
249.85	65.02
250.067	11.78
250.284	22.02
250.501	15.87
250.717	46.59
250.934	-2.56
251.151	13.82
251.368	30.21
251.585	19.97
251.801	13.82
252.018	11.78
252.235	58.88
252.451	48.64
252.668	36.35
252.885	34.3
253.102	17.92
253.318	17.92
253.535	-64
253.752	-66.05
253.968	85.5
254.185	-18.94
254.401	38.4
254.618	15.87
254.835	17.92
255.051	103.93
255.268	56.83
255.484	28.16
255.701	-18.94
255.917	40.45
256.134	-33.28
256.351	-29.18
256.567	36.35
256.784	48.64
257	-66.05
257.217	34.3
257.433	40.45
257.65	5.63
257.866	81.41
258.082	-47.62
258.299	-39.42
258.515	-8.7
258.732	42.5
258.948	-18.94
259.165	36.35
259.381	7.68
259.597	-12.8
259.814	17.92
260.03	-6.66
260.246	32.26
260.463	-2.56
260.679	-2.56
260.895	28.16
261.112	52.74
261.328	24.06
261.544	-49.66
261.761	126.46
261.977	-6.66
262.193	-12.8
262.409	36.35
262.626	54.78
262.842	58.88
263.058	58.88
263.274	19.97
263.49	-25.09
263.707	26.11
263.923	46.59
264.139	15.87
264.355	58.88
264.571	85.5
264.787	3.58
265.004	5.63
265.22	-6.66
265.436	-6.66
265.652	54.78
265.868	9.73
266.084	-2.56
266.3	87.55
266.516	19.97
266.732	22.02
266.948	22.02
267.164	56.83
267.38	24.06
267.596	36.35
267.812	95.74
268.028	-27.14
268.244	-6.66
268.46	11.78
268.676	5.63
268.892	7.68
269.108	-0.51
269.324	-16.9
269.54	-61.95
269.756	36.35
269.972	58.88
270.188	48.64
270.403	-47.62
270.619	9.73
270.835	3.58
271.051	-8.7
271.267	46.59
271.483	30.21
271.698	87.55
271.914	-51.71
272.13	5.63
272.346	13.82
272.562	-37.38
272.777	60.93
272.993	-12.8
273.209	-45.57
273.425	-31.23
273.64	-16.9
273.856	85.5
274.072	19.97
274.287	-12.8
274.503	46.59
274.719	67.07
274.934	9.73
275.15	-86.53
275.366	-6.66
275.581	65.02
275.797	-8.7
276.012	-18.94
276.228	-20.99
276.444	-33.28
276.659	99.84
276.875	19.97
277.09	-23.04
277.306	-31.23
277.521	75.26
277.737	-25.09
277.952	15.87
278.168	34.3
278.383	52.74
278.599	-14.85
278.814	24.06
279.03	1.54
279.245	-35.33
279.461	32.26
279.676	38.4
279.892	3.58
280.107	9.73
280.322	-33.28
280.538	116.22
280.753	-0.51
280.969	40.45
281.184	-53.76
281.399	85.5
281.615	101.89
281.83	99.84
282.045	-6.66
282.26	-18.94
282.476	38.4
282.691	83.45
282.906	58.88
283.122	52.74
283.337	-47.62
283.552	108.03
283.767	-68.09
283.983	24.06
284.198	1.54
284.413	48.64
284.628	-43.52
284.843	93.69
285.058	26.11
285.274	38.4
285.489	26.11
285.704	42.5
285.919	7.68
286.134	30.21
286.349	-51.71
286.564	11.78
286.779	67.07
286.995	54.78
287.21	28.16
287.425	75.26
287.64	-8.7
287.855	40.45
288.07	9.73
288.285	11.78
288.5	32.26
288.715	89.6
288.93	15.87
289.145	56.83
289.36	26.11
289.575	-6.66
289.79	65.02
290.004	30.21
290.219	28.16
290.434	-4.61
290.649	22.02
290.864	79.36
291.079	-33.28
291.294	38.4
291.509	26.11
291.724	26.11
291.938	13.82
292.153	77.31
292.368	32.26
292.583	79.36
292.798	-25.09
293.012	-10.75
293.227	-14.85
293.442	-4.61
293.657	60.93
293.871	54.78
294.086	-39.42
294.301	30.21
294.516	36.35
294.73	-8.7
294.945	19.97
295.16	67.07
295.374	30.21
295.589	48.64
295.804	7.68
296.018	-20.99
296.233	3.58
296.447	30.21
296.662	-51.71
296.877	65.02
297.091	15.87
297.306	-43.52
297.52	3.58
297.735	17.92
297.949	9.73
298.164	44.54
298.378	-14.85
298.593	-33.28
298.807	11.78
299.022	-18.94
299.236	56.83
299.451	50.69
299.665	-23.04
299.88	30.21
300.094	-45.57
300.309	22.02
300.523	-49.66
300.737	120.32
300.952	60.93
301.166	7.68
301.381	-23.04
301.595	46.59
301.809	-74.24
302.024	-4.61
302.238	-12.8
302.452	122.37
302.667	-0.51
302.881	67.07
303.095	48.64
303.309	81.41
303.524	40.45
303.738	19.97
303.952	24.06
304.166	48.64
304.381	-35.33
304.595	9.73
304.809	-43.52
305.023	44.54
305.237	-68.09
305.452	67.07
305.666	26.11
305.88	19.97
306.094	22.02
306.308	32.26
306.522	77.31
306.736	62.98
306.95	30.21
307.164	-6.66
307.379	24.06
307.593	87.55
307.807	44.54
308.021	30.21
308.235	83.45
308.449	28.16
308.663	28.16
308.877	79.36
309.091	40.45
309.305	67.07
309.519	-49.66
309.733	22.02
309.947	32.26
310.161	73.21
310.374	24.06
310.588	-23.04
310.802	-18.94
311.016	-33.28
311.23	48.64
311.444	-23.04
311.658	60.93
311.872	-8.7
312.085	42.5
312.299	91.65
312.513	1.54
312.727	114.17
312.941	-18.94
313.154	58.88
313.368	40.45
313.582	38.4
313.796	67.07
314.009	-8.7
314.223	46.59
314.437	81.41
314.651	58.88
314.864	114.17
315.078	40.45
315.292	-0.51
315.505	-16.9
315.719	-25.09
315.933	-41.47
316.146	30.21
316.36	5.63
316.573	-39.42
316.787	75.26
317.001	56.83
317.214	34.3
317.428	34.3
317.641	-70.14
317.855	87.55
318.068	1.54
318.282	42.5
318.495	40.45
318.709	79.36
318.922	22.02
319.136	69.12
319.349	65.02
319.563	67.07
319.776	-18.94
319.99	5.63
320.203	-0.51
320.417	-0.51
320.63	38.4
320.843	17.92
321.057	62.98
321.27	32.26
321.483	95.74
321.697	54.78
321.91	42.5
322.124	73.21
322.337	48.64
322.55	-35.33
322.763	-0.51
322.977	38.4
323.19	50.69
323.403	48.64
323.617	-23.04
323.83	13.82
324.043	52.74
324.256	-4.61
324.469	11.78
324.683	71.17
324.896	-10.75
325.109	40.45
325.322	-12.8
325.535	-0.51
325.748	36.35
325.962	30.21
326.175	38.4
326.388	65.02
326.601	22.02
326.814	-23.04
327.027	1.54
327.24	46.59
327.453	26.11
327.666	91.65
327.879	99.84
328.092	114.17
328.305	19.97
328.518	40.45
328.731	-27.14
328.944	71.17
329.157	73.21
329.37	19.97
329.583	-29.18
329.796	26.11
330.009	-16.9
330.222	13.82
330.435	52.74
330.648	71.17
330.861	11.78
331.073	65.02
331.286	85.5
331.499	73.21
331.712	-39.42
331.925	-49.66
332.138	52.74
332.35	81.41
332.563	-4.61
332.776	42.5
332.989	-0.51
333.202	46.59
333.414	60.93
333.627	3.58
333.84	-6.66
334.053	19.97
334.265	40.45
334.478	-10.75
334.691	89.6
334.903	50.69
335.116	77.31
335.329	9.73
335.541	79.36
335.754	151.04
335.966	62.98
336.179	24.06
336.392	17.92
336.604	11.78
336.817	44.54
337.029	44.54
337.242	7.68
337.454	81.41
337.667	99.84
337.88	44.54
338.092	42.5
338.305	60.93
338.517	114.17
338.729	50.69
338.942	-51.71
339.154	48.64
339.367	19.97
339.579	50.69
339.792	-51.71
340.004	93.69
340.217	50.69
340.429	71.17
340.641	34.3
340.854	7.68
341.066	9.73
341.278	26.11
341.491	-18.94
341.703	40.45
341.915	-10.75
342.128	22.02
342.34	67.07
342.552	-16.9
342.764	38.4
342.977	-6.66
343.189	15.87
343.401	-8.7
343.613	40.45
343.826	11.78
344.038	11.78
344.25	5.63
344.462	60.93
344.674	50.69
344.886	52.74
345.099	13.82
345.311	60.93
345.523	36.35
345.735	1.54
345.947	-25.09
346.159	1.54
346.371	26.11
346.583	-4.61
346.795	42.5
347.007	5.63
347.219	75.26
347.431	40.45
347.643	50.69
347.855	7.68
348.067	118.27
348.279	44.54
348.491	95.74
348.703	69.12
348.915	69.12
349.127	-16.9
349.339	103.93
349.551	24.06
349.763	7.68
349.975	-2.56
350.187	9.73
350.399	77.31
350.61	38.4
350.822	38.4
351.034	50.69
351.246	52.74
351.458	56.83
351.669	32.26
351.881	13.82
352.093	60.93
352.305	42.5
352.517	34.3
352.728	44.54
352.94	32.26
353.152	15.87
353.363	54.78
353.575	46.59
353.787	30.21
353.999	54.78
354.21	60.93
354.422	56.83
354.633	-2.56
354.845	15.87
355.057	32.26
355.268	56.83
355.48	24.06
355.692	-61.95
355.903	58.88
356.115	120.32
356.326	34.3
356.538	87.55
356.749	62.98
356.961	54.78
357.172	19.97
357.384	65.02
357.595	50.69
357.807	71.17
358.018	24.06
358.23	-0.51
358.441	-0.51
358.653	-12.8
358.864	-25.09
359.075	32.26
359.287	3.58
359.498	44.54
359.709	48.64
359.921	101.89
360.132	42.5
360.344	13.82
360.555	11.78
360.766	77.31
360.977	60.93
361.189	17.92
361.4	-41.47
361.611	42.5
361.823	-4.61
362.034	42.5
362.245	-31.23
362.456	48.64
362.667	3.58
362.879	1.54
363.09	5.63
363.301	5.63
363.512	56.83
363.723	22.02
363.935	-25.09
364.146	36.35
364.357	11.78
364.568	75.26
364.779	-111.1
364.99	30.21
365.201	38.4
365.412	3.58
365.623	-2.56
365.834	5.63
366.045	71.17
366.256	91.65
366.467	-43.52
366.678	24.06
366.889	-64
367.1	48.64
367.311	71.17
367.522	73.21
367.733	56.83
367.944	-2.56
368.155	26.11
368.366	62.98
368.577	91.65
368.788	-6.66
368.999	5.63
369.209	22.02
369.42	62.98
369.631	17.92
369.842	5.63
370.053	13.82
370.264	65.02
370.474	-18.94
370.685	15.87
370.896	44.54
371.107	-12.8
371.317	-33.28
371.528	-6.66
371.739	54.78
371.95	128.51
372.16	56.83
372.371	3.58
372.582	71.17
372.792	24.06
373.003	54.78
373.214	60.93
373.424	93.69
373.635	-2.56
373.846	50.69
374.056	-6.66
374.267	-18.94
374.477	108.03
374.688	17.92
374.898	7.68
375.109	81.41
375.319	138.75
375.53	108.03
375.74	32.26
375.951	75.26
376.161	-2.56
376.372	30.21
376.582	-20.99
376.793	-12.8
377.003	-43.52
377.214	67.07
377.424	7.68
377.635	17.92
377.845	-16.9
378.055	32.26
378.266	-29.18
378.476	-37.38
378.686	24.06
378.897	22.02
379.107	95.74
379.317	58.88
379.528	54.78
379.738	-2.56
379.948	24.06
380.158	46.59
380.369	103.93
380.579	13.82
380.789	13.82
380.999	116.22
381.21	7.68
381.42	73.21
381.63	77.31
381.84	-23.04
382.05	83.45
382.261	48.64
382.471	48.64
382.681	75.26
382.891	77.31
383.101	56.83
383.311	-14.85
383.521	-16.9
383.731	91.65
383.941	60.93
384.151	40.45
384.361	126.46
384.571	-12.8
384.781	56.83
384.991	73.21
385.201	48.64
385.411	91.65
385.621	-14.85
385.831	-23.04
386.041	56.83
386.251	44.54
386.461	40.45
386.671	-0.51
386.881	60.93
387.091	19.97
387.301	103.93
387.511	138.75
387.72	13.82
387.93	42.5
388.14	-23.04
388.35	124.41
388.56	36.35
388.769	15.87
388.979	62.98
389.189	38.4
389.399	62.98
389.609	95.74
389.818	93.69
390.028	101.89
390.238	-25.09
390.447	77.31
390.657	87.55
390.867	22.02
391.076	95.74
391.286	62.98
391.496	38.4
391.705	22.02
391.915	1.54
392.125	30.21
392.334	-16.9
392.544	112.13
392.753	120.32
392.963	48.64
393.172	54.78
393.382	75.26
393.591	69.12
393.801	42.5
394.01	124.41
394.22	-2.56
394.429	30.21
394.639	103.93
394.848	103.93
395.058	69.12
395.267	42.5
395.477	79.36
395.686	110.08
395.895	60.93
396.105	177.66
396.314	183.81
396.524	87.55
396.733	-2.56
396.942	132.61
397.152	81.41
397.361	93.69
397.57	17.92
397.78	79.36
397.989	128.51
398.198	126.46
398.407	146.94
398.617	95.74
398.826	144.89
399.035	54.78
399.244	50.69
399.453	52.74
399.663	62.98
399.872	79.36
400.081	58.88
400.29	177.66
400.499	103.93
400.708	118.27
400.917	22.02
401.127	52.74
401.336	136.7
401.545	103.93
401.754	200.19
401.963	138.75
402.172	50.69
402.381	79.36
402.59	58.88
402.799	58.88
403.008	171.52
403.217	126.46
403.426	122.37
403.635	183.81
403.844	99.84
404.053	128.51
404.262	69.12
404.471	87.55
404.68	142.85
404.888	114.17
405.097	198.14
405.306	58.88
405.515	130.56
405.724	128.51
405.933	118.27
406.142	126.46
406.35	146.94
406.559	161.28
406.768	196.09
406.977	259.58
407.185	220.67
407.394	165.37
407.603	194.05
407.812	212.48
408.02	253.44
408.229	171.52
408.438	175.61
408.646	151.04
408.855	235
409.064	230.91
409.272	286.2
409.481	251.39
409.69	275.96
409.898	206.33
410.107	263.68
410.315	335.35
410.524	306.68
410.733	304.64
410.941	265.72
411.15	347.64
411.358	390.65
411.567	318.97
411.775	325.12
411.984	450.04
412.192	413.18
412.401	355.83
412.609	431.61
412.818	519.67
413.026	435.71
413.234	501.24
413.443	454.14
413.651	534.01
413.86	554.49
414.068	585.21
414.276	574.97
414.485	611.83
414.693	624.12
414.901	628.21
415.11	605.69
415.318	589.3
415.526	652.79
415.734	675.32
415.943	753.14
416.151	792.05
416.359	718.33
416.567	824.82
416.776	896.5
416.984	951.79
417.192	900.59
417.4	912.88
417.608	935.41
417.817	988.66
418.025	1011.18
418.233	1078.77
418.441	1152.49
418.649	1195.5
418.857	1168.88
419.065	1236.46
419.273	1213.93
419.481	1328.62
419.689	1273.32
419.897	1326.57
420.105	1367.53
420.313	1424.87
420.521	1547.75
420.729	1590.76
420.937	1506.79
421.145	1574.38
421.353	1760.74
421.561	1625.58
421.769	1879.52
421.977	1877.48
422.185	1879.52
422.393	2106.85
422.601	2127.33
422.809	2090.46
423.017	2221.53
423.224	2145.76
423.432	2305.5
423.64	2434.52
423.848	2543.07
424.056	2512.35
424.263	2788.82
424.471	2620.89
424.679	2717.14
424.887	2807.25
425.094	2993.62
425.302	3079.63
425.51	3122.64
425.718	3130.83
425.925	3173.84
426.133	3302.86
426.341	3417.55
426.548	3653.06
426.756	3759.56
426.964	3710.41
427.171	4093.38
427.379	4093.38
427.586	4128.19
427.794	4246.98
428.001	4515.26
428.209	4773.3
428.417	4447.68
428.624	4873.65
428.832	4914.61
429.039	5008.82
429.247	4879.8
429.454	5285.3
429.662	5719.46
429.869	5260.72
430.076	5887.4
430.284	5340.59
430.491	5741.99
430.699	6311.33
430.906	6102.43
431.114	6196.64
431.321	6321.57
431.528	6493.6
431.736	6958.49
431.943	7368.08
432.15	6962.58
432.358	7306.64
432.565	7589.26
432.772	7450
432.979	7824.78
433.187	8134.02
433.394	8295.81
433.601	8648.06
433.808	8729.98
434.016	8682.88
434.223	9041.27
434.43	9416.05
434.637	9330.03
434.844	9868.65
435.052	10186.08
435.259	9973.1
435.466	10141.03
435.673	10042.73
435.88	10704.22
436.087	11476.3
436.294	11314.52
436.501	10999.13
436.708	11304.28
436.915	11500.88
437.122	12248.39
437.329	12182.85
437.537	12694.85
437.743	12844.35
437.95	12795.2
438.157	13337.91
438.364	13870.38
438.571	13743.41
438.778	14058.79
438.985	15168.79
439.192	14585.12
439.399	15162.65
439.606	14632.22
439.813	15562
440.02	16235.78
440.227	16135.43
440.433	15971.6
440.64	16459.01
440.847	16534.79
441.054	16688.39
441.261	18148.59
441.467	17841.39
441.674	18232.55
441.881	18549.99
442.088	18676.96
442.294	18625.76
442.501	19322.07
442.708	19473.62
442.914	20288.71
443.121	21169.34
443.328	20923.58
443.534	22133.93
443.741	21421.24
443.948	21038.27
444.154	22719.65
444.361	22486.18
444.568	22697.13
444.774	22674.6
444.981	22772.9
445.187	23737.49
445.394	24583.3
445.6	24312.97
445.807	26444.91
446.013	25441.4
446.22	25838.71
446.426	27016.29
446.633	27225.18
446.839	28398.67
447.046	27176.03
447.252	28488.78
447.459	28140.63
447.665	28107.86
447.871	29457.47
448.078	30684.2
448.284	29088.84
448.491	30506.03
448.697	31208.48
448.903	31749.15
449.11	31863.83
449.316	31628.32
449.522	31994.9
449.728	32941.07
449.935	32930.83
450.141	32941.07
450.347	33709.05
450.553	32527.38
450.76	33227.78
450.966	34116.6
451.172	33981.43
451.378	34378.74
451.584	34016.25
451.791	34747.37
451.997	34733.04
452.203	35285.99
452.409	35402.72
452.615	34935.79
452.821	33733.63
453.027	33219.59
453.233	35134.44
453.44	33653.76
453.646	33854.46
453.852	34081.78
454.058	34788.33
454.264	33780.73
454.47	34315.25
454.676	33334.28
454.882	34444.27
455.088	31519.78
455.294	32150.55
455.5	32230.42
455.705	32848.91
455.911	31577.12
456.117	30766.12
456.323	30684.2
456.529	28925
456.735	30010.42
456.941	29254.72
457.147	28998.73
457.352	27917.4
457.558	27376.73
457.764	27710.55
457.97	27057.25
458.176	26741.86
458.381	26215.54
458.587	25103.49
458.793	25027.71
458.999	23628.95
459.204	25468.03
459.41	24863.88
459.616	22973.6
459.821	23284.89
460.027	22848.68
460.233	22373.55
460.438	21386.43
460.644	21730.48
460.85	20550.85
461.055	20477.13
461.261	20550.85
461.466	18713.83
461.672	18179.31
461.878	19641.56
462.083	17915.12
462.289	17892.59
462.494	17624.31
462.7	16766.21
462.905	16413.96
463.111	17040.64
463.316	17030.4
463.522	16510.21
463.727	16743.68
463.932	16604.42
464.138	16669.95
464.343	16538.88
464.549	16117
464.754	16631.04
464.959	16639.23
465.165	16329.99
465.37	15633.68
465.575	15312.15
465.781	15965.45
465.986	16006.41
466.191	15527.19
466.397	15306.01
466.602	14517.54
466.807	14959.9
467.012	15193.37
467.218	14845.21
467.423	14445.86
467.628	14826.78
467.833	15545.62
468.038	14859.55
468.244	14269.73
468.449	14894.36
468.654	14617.89
468.859	14347.56
469.064	14175.53
469.269	13610.29
469.474	13839.66
469.679	13954.35
469.885	13653.3
470.09	13929.77
470.295	13481.27
470.5	13491.51
470.705	13458.74
470.91	13294.9
471.115	13188.41
471.32	13395.25
471.525	13122.87
471.73	13002.04
471.935	12834.11
472.139	12369.22
472.344	12555.58
472.549	12358.98
472.754	12315.97
472.959	11863.37
473.164	11793.74
473.369	11599.18
473.574	12197.19
473.778	11857.23
473.983	11660.62
474.188	11701.58
474.393	10988.89
474.598	11079
474.802	11093.33
475.007	10978.65
475.212	11058.52
475.417	10835.29
475.621	10638.69
475.826	10583.39
476.031	10298.72
476.235	10282.34
476.44	10464.61
476.645	10198.37
476.849	10036.58
477.054	10122.6
477.259	9911.66
477.463	9983.34
477.668	9803.11
477.872	9809.26
478.077	9639.28
478.282	9440.62
478.486	9346.42
478.691	9233.78
478.895	9174.39
479.1	9164.15
479.304	9256.31
479.509	8916.34
479.713	9135.48
479.918	8723.83
480.122	8777.08
480.326	9110.9
480.531	8949.11
480.735	8734.07
480.94	8899.96
481.144	9014.65
481.348	8496.51
481.553	8699.26
481.757	8584.57
481.961	8736.12
482.166	8541.57
482.37	8693.12
482.574	8361.34
482.778	8641.92
482.983	8691.07
483.187	8418.69
483.391	8617.34
483.595	8715.64
483.8	8525.18
484.004	8570.24
484.208	8631.68
484.412	8502.65
484.616	8551.81
484.821	8412.54
485.025	8383.87
485.229	8672.64
485.433	8449.41
485.637	8435.07
485.841	8310.15
486.045	8390.02
486.249	8543.61
486.453	8539.52
486.657	8525.18
486.861	8748.41
487.065	8164.74
487.269	8414.59
487.473	8408.45
487.677	8519.04
487.881	8537.47
488.085	8668.54
488.289	8506.75
488.493	8412.54
488.697	8672.64
488.901	8635.77
489.105	8381.82
489.309	8670.59
489.512	8648.06
489.716	8486.27
489.92	8605.05
490.124	8369.54
490.328	8883.58
490.531	8543.61
490.735	8789.37
490.939	8711.55
491.143	8684.92
491.346	8545.66
491.55	8754.55
491.754	8807.8
491.958	8863.1
492.161	8785.27
492.365	8912.25
492.569	8904.06
492.772	9115
492.976	8973.69
493.18	9000.31
493.383	9219.44
493.587	9250.16
493.79	9186.68
493.994	9133.43
494.197	9282.93
494.401	9450.86
494.605	9342.32
494.808	9422.19
495.012	9565.55
495.215	9641.32
495.419	9684.33
495.622	9665.9
495.825	9741.68
496.029	9989.48
496.232	10093.93
496.436	9942.38
496.639	10294.63
496.843	10485.09
497.046	10429.79
497.249	10382.69
497.453	10399.07
497.656	10579.29
497.859	10632.54
498.063	10679.65
498.266	10839.39
498.469	10997.08
498.673	11013.46
498.876	11201.88
499.079	11447.63
499.282	11367.76
499.485	11846.99
499.689	11609.42
499.892	11922.76
500.095	11951.43
500.298	12211.53
500.501	12143.94
500.705	12332.36
500.908	12272.96
501.111	12516.67
501.314	12678.46
501.517	12805.44
501.72	12815.68
501.923	12846.4
502.126	13241.65
502.329	13509.94
502.532	13622.58
502.735	13620.53
502.938	13862.19
503.141	13925.68
503.344	14140.71
503.547	14103.85
503.75	14159.14
503.953	14484.77
504.156	14751.01
504.359	14763.29
504.562	14861.6
504.765	15095.07
504.968	15310.1
505.17	15369.49
505.373	15494.42
505.576	15832.33
505.779	15854.86
505.982	15936.78
506.185	16286.98
506.387	16416.01
506.59	16569.6
506.793	16897.28
506.996	16727.3
507.198	17210.62
507.401	17026.3
507.604	17194.23
507.807	17603.83
508.009	17855.73
508.212	17796.34
508.415	17945.84
508.617	18087.15
508.82	18216.17
509.022	18226.41
509.225	18685.15
509.428	18779.36
509.63	18771.17
509.833	19254.49
510.035	19406.04
510.238	19094.75
510.44	19573.97
510.643	20161.74
510.845	20382.92
511.048	19817.68
511.25	20282.57
511.453	20559.05
511.655	21224.64
511.858	20952.26
512.06	20997.31
512.262	21390.52
512.465	21370.04
512.667	21662.9
512.87	21908.66
513.072	22043.82
513.274	22566.06
513.477	22551.72
513.679	22672.55
513.881	22766.76
514.084	22690.98
514.286	23266.46
514.488	23295.13
514.69	23827.6
514.893	23977.11
515.095	23753.88
515.297	24206.48
515.499	24378.51
515.701	24587.4
515.904	24820.87
516.106	24808.58
516.308	25181.31
516.51	25373.82
516.712	25060.48
516.914	25857.14
517.116	26096.75
517.318	26139.76
517.52	26246.26
517.722	26410.09
517.925	26801.26
518.127	27206.75
518.329	27128.93
518.531	27190.37
518.733	27741.27
518.935	27757.66
519.136	27677.79
519.338	28326.99
519.54	28165.2
519.742	28779.59
519.944	28570.7
520.146	29033.54
520.348	29103.17
520.55	29176.9
520.752	29551.68
520.954	29807.67
521.155	29621.31
521.357	30284.85
521.559	30288.95
521.761	30524.46
521.963	30610.48
522.164	30596.14
522.366	30776.36
522.568	31075.37
522.77	31216.68
522.971	31640.61
523.173	31482.91
523.375	31826.97
523.576	31792.15
523.778	31935.51
523.98	32263.19
524.181	32713.74
524.383	32463.89
524.584	32865.29
524.786	32400.4
524.988	32707.6
525.189	33125.38
525.391	33240.07
525.592	33700.86
525.794	33448.96
525.995	33709.05
526.197	33549.31
526.398	33643.52
526.6	33780.73
526.801	34030.58
527.003	33795.07
527.204	34333.68
527.406	34307.06
527.607	34540.53
527.808	34618.35
528.01	34212.85
528.211	34548.72
528.412	35060.71
528.614	34849.77
528.815	34266.1
529.016	35353.57
529.218	34806.76
529.419	35103.72
529.62	35234.79
529.822	35199.97
530.023	35230.69
530.224	35302.37
530.425	35333.09
530.626	35187.69
530.828	35085.29
531.029	35515.36
531.23	35206.12
531.431	35279.85
531.632	35222.5
531.833	35625.95
532.035	35732.45
532.236	35681.25
532.437	35423.2
532.638	35431.4
532.839	35687.39
533.04	35802.08
533.241	35412.96
533.442	36226.01
533.643	35337.19
533.844	35507.17
534.045	35808.22
534.246	35357.67
534.447	36156.38
534.648	35658.72
534.849	35754.97
535.05	35789.79
535.251	35470.31
535.451	35568.61
535.652	35681.25
535.853	35376.1
536.054	36033.5
536.255	35632.1
536.456	35376.1
536.657	36105.18
536.857	35808.22
537.058	35529.7
537.259	35820.51
537.46	35853.28
537.66	35607.52
537.861	35564.51
538.062	35611.62
538.263	35638.24
538.463	35541.99
538.664	35570.66
538.865	35519.46
539.065	35685.34
539.266	35156.97
539.466	36068.31
539.667	35404.77
539.868	35865.56
540.068	35195.88
540.269	35351.52
540.469	35789.79
540.67	35654.62
540.87	35283.94
541.071	35298.28
541.271	35531.75
541.472	35267.56
541.672	35120.1
541.873	35652.58
542.073	34960.36
542.274	35578.85
542.474	35187.69
542.675	35175.4
542.875	35898.33
543.075	35378.15
543.276	35120.1
543.476	35470.31
543.676	35267.56
543.877	34946.03
544.077	35226.6
544.277	35263.46
544.478	35208.17
544.678	35255.27
544.878	35183.59
545.078	35029.99
545.279	34782.19
545.479	34911.21
545.679	35533.79
545.879	35202.02
546.079	35107.82
546.28	34839.53
546.48	34870.25
546.68	35197.93
546.88	35167.21
547.08	34941.93
547.28	34747.37
547.48	34737.13
547.68	35148.78
547.88	34743.28
548.081	35032.04
548.281	35099.62
548.481	34683.89
548.681	34905.07
548.881	35152.87
549.081	34817
549.28	34481.14
549.48	35075.05
549.68	34700.27
549.88	35062.76
550.08	34450.42
550.28	34890.73
550.48	34591.73
550.68	34825.2
550.88	34561.01
551.08	34661.36
551.279	35249.13
551.479	34474.99
551.679	34628.59
551.879	34358.26
552.079	34839.53
552.278	34583.54
552.478	34872.3
552.678	34608.11
552.878	34571.25
553.077	34337.78
553.277	34305.01
553.477	34872.3
553.676	34743.28
553.876	34456.56
554.076	34288.63
554.275	34485.23
554.475	34067.45
554.674	34581.49
554.874	34518
555.074	33985.53
555.273	34233.33
555.473	34489.33
555.672	34274.29
555.872	34051.06
556.071	34288.63
556.271	34153.46
556.47	34413.55
556.67	34018.3
556.869	34087.93
557.068	34241.53
557.268	33727.49
557.467	33938.43
557.667	34008.06
557.866	33823.74
558.065	33479.68
558.265	33266.69
558.464	33534.98
558.663	34098.17
558.863	33330.18
559.062	33915.9
559.261	33522.69
559.461	33862.65
559.66	33522.69
559.859	33668.09
560.058	33145.86
560.258	33319.94
560.457	33207.3
560.656	33211.4
560.855	33201.16
561.054	33637.37
561.253	32896.01
561.453	33371.14
561.652	33426.43
561.851	33283.08
562.05	32926.73
562.249	32973.83
562.448	33260.55
562.647	32916.49
562.846	32779.28
563.045	32799.76
563.244	32574.48
563.443	33448.96
563.642	32474.13
563.841	32848.91
564.04	32658.45
564.239	32896.01
564.438	32121.88
564.637	32435.22
564.836	32551.95
565.035	32177.17
565.234	32601.1
565.432	32015.38
565.631	32035.86
565.83	32031.77
566.029	32068.63
566.228	31958.04
566.427	32285.72
566.625	32136.21
566.824	31562.78
567.023	31923.22
567.222	31294.5
567.42	32089.11
567.619	31726.62
567.818	31521.82
568.016	31314.98
568.215	31697.95
568.414	31353.89
568.612	31704.09
568.811	31570.97
569.01	31400.99
569.208	31190.05
569.407	31235.11
569.605	30815.27
569.804	31396.9
570.002	30626.86
570.201	31323.17
570.4	30516.27
570.598	30372.91
570.797	30288.95
570.995	30258.23
571.193	30387.25
571.392	30712.88
571.59	30139.44
571.789	30628.91
571.987	30391.34
572.186	29918.26
572.384	30000.18
572.582	30155.83
572.781	30420.02
572.979	29770.81
573.177	29979.7
573.376	29918.26
573.574	29731.9
573.772	30114.87
573.971	29189.19
574.169	29662.27
574.367	29455.42
574.565	29664.32
574.763	29510.72
574.962	29293.63
575.16	29111.36
575.358	29021.25
575.556	28748.87
575.754	29451.33
575.952	29078.6
576.151	29283.39
576.349	28703.82
576.547	28904.52
576.745	28836.94
576.943	29031.49
577.141	28793.93
577.339	28830.79
577.537	28714.06
577.735	28738.63
577.933	28331.09
578.131	28759.11
578.329	28283.98
578.527	28195.92
578.725	28046.42
578.923	28191.83
579.121	27888.73
579.319	27858.01
579.516	28130.39
579.714	28077.14
579.912	28015.7
580.11	27761.75
580.308	27561.05
580.506	27763.8
580.704	27315.3
580.901	27581.53
581.099	27831.38
581.297	27014.24
581.495	27350.11
581.692	27456.61
581.89	27065.44
582.088	27458.65
582.285	26965.09
582.483	27260
582.681	27102.31
582.878	26723.43
583.076	26344.56
583.274	26700.9
583.471	26692.71
583.669	26815.59
583.866	26236.02
584.064	26659.95
584.262	26119.28
584.459	26383.47
584.657	26086.51
584.854	26258.54
585.052	25662.58
585.249	25918.58
585.447	26092.66
585.644	25674.87
585.841	25820.28
586.039	26109.04
586.236	25672.82
586.434	25511.03
586.631	25494.65
586.828	25666.68
587.026	25693.3
587.223	25480.32
587.42	25197.7
587.618	25476.22
587.815	24919.17
588.012	25119.87
588.21	25097.35
588.407	25390.2
588.604	25025.67
588.801	24589.45
588.999	24886.4
589.196	24771.72
589.393	24876.16
589.59	24622.22
589.787	24820.87
589.984	23932.05
590.182	24196.24
590.379	24542.35
590.576	24263.82
590.773	24167.57
590.97	24204.43
591.167	24319.12
591.364	23862.42
591.561	23774.36
591.758	23678.1
591.955	23829.65
592.152	23835.8
592.349	23544.98
592.546	23694.49
592.743	23458.97
592.94	23082.14
593.137	23553.18
593.334	23340.19
593.531	23082.14
593.727	23059.62
593.924	23176.35
594.121	22998.18
594.318	23162.01
594.515	22748.32
594.712	22934.69
594.908	22875.3
595.105	22541.48
595.302	22494.38
595.499	22588.58
595.696	22604.97
595.892	22434.99
596.089	22377.64
596.286	22647.97
596.482	22189.23
596.679	22240.43
596.876	22232.24
597.072	22052.02
597.269	21857.46
597.466	22043.82
597.662	21800.12
597.859	21931.19
598.055	21671.09
598.252	21374.14
598.448	21488.82
598.645	21621.94
598.841	21087.42
599.038	21372.09
599.234	21341.37
599.431	20915.39
599.627	21228.73
599.824	21142.72
600.02	21013.7
600.217	21044.41
600.413	20901.06
600.609	20774.08
600.806	20960.45
601.002	21052.61
601.198	20884.67
601.395	20591.81
601.591	20954.3
601.787	20759.75
601.984	20403.4
602.18	20618.44
602.376	20419.78
602.572	20372.68
602.769	20294.86
602.965	20214.99
603.161	20272.33
603.357	20018.38
603.553	20171.98
603.75	20114.64
603.946	19817.68
604.142	19870.93
604.338	19569.88
604.534	19832.02
604.73	19389.66
604.926	19557.59
605.122	19549.4
605.318	19389.66
605.514	19193.05
605.71	19100.89
605.906	19182.81
606.102	19426.52
606.298	19457.24
606.494	19299.55
606.69	19139.8
606.886	19166.43
607.082	19002.59
607.278	18918.62
607.474	18758.88
607.67	19234.01
607.866	18699.49
608.062	19121.37
608.257	18593
608.453	18867.42
608.649	18826.46
608.845	18332.9
609.041	18371.82
609.236	18451.69
609.432	18697.44
609.628	18529.51
609.824	18238.7
610.019	18337
610.215	18648.29
610.411	18341.1
610.606	18312.42
610.802	18439.4
610.998	18488.55
611.193	18396.39
611.389	18140.4
611.584	18076.91
611.78	18121.96
611.976	18134.25
612.171	17906.93
612.367	18035.95
612.562	17915.12
612.758	17835.25
612.953	17507.57
613.149	18134.25
613.344	17532.15
613.539	17906.93
613.735	17841.39
613.93	17661.17
614.126	17837.3
614.321	17622.26
614.517	17605.88
614.712	17466.61
614.907	17288.44
615.103	17689.84
615.298	17505.52
615.493	17712.37
615.688	16905.47
615.884	17763.57
616.079	17360.12
616.274	17300.73
616.47	17298.68
616.665	17345.78
616.86	17200.38
617.055	17054.97
617.25	17102.08
617.445	17261.82
617.641	16614.66
617.836	17208.57
618.031	16844.03
618.226	16936.19
618.421	16962.81
618.616	16911.61
618.811	16782.59
619.006	16889.09
619.201	16397.57
619.396	16672
619.591	16278.79
619.786	16426.25
619.981	16190.73
620.176	16309.51
620.371	16055.56
620.566	15990.03
620.761	16014.6
620.956	16045.32
621.151	15707.41
621.346	15854.86
621.541	15738.13
621.735	15861.01
621.93	15406.36
622.125	15758.61
622.32	15385.88
622.515	15430.93
622.709	15250.71
622.904	15308.05
623.099	15258.9
623.294	15080.73
623.488	14888.22
623.683	15076.63
623.878	14914.84
624.072	14689.57
624.267	14853.41
624.462	14634.27
624.656	14488.87
624.851	14384.42
625.046	14464.29
625.24	14279.97
625.435	14175.53
625.629	14142.76
625.824	14169.38
626.018	14159.14
626.213	13716.78
626.407	13845.8
626.602	13784.37
626.796	13724.97
626.991	13528.37
627.185	13577.52
627.38	13391.16
627.574	13468.98
627.768	13409.59
627.963	13483.31
628.157	13163.83
628.352	13208.89
628.546	13190.45
628.74	13260.09
628.935	12844.35
629.129	12932.41
629.323	12651.84
629.517	12868.92
629.712	12762.43
629.906	12750.14
630.1	12516.67
630.294	12451.14
630.489	12420.42
630.683	12483.91
630.877	12301.64
631.071	12197.19
631.265	12336.45
631.459	12027.21
631.653	12086.6
631.848	11896.14
632.042	11924.81
632.236	11914.57
632.43	11689.29
632.624	11611.47
632.818	11724.11
633.012	11572.56
633.206	11439.44
633.4	11418.96
633.594	11406.67
633.788	11304.28
633.982	11351.38
634.176	11396.43
634.369	11162.97
634.563	11068.76
634.757	11093.33
634.951	11183.45
635.145	10933.59
635.339	10896.73
635.533	10823
635.726	10855.77
635.92	10612.06
636.114	10499.42
636.308	10644.83
636.501	10374.5
636.695	10698.08
636.889	10409.31
637.083	10425.7
637.276	10313.06
637.47	10415.46
637.664	10081.64
637.857	10141.03
638.051	10153.32
638.244	10202.47
638.438	9932.14
638.632	9956.71
638.825	9991.53
639.019	9829.74
639.212	9565.55
639.406	9835.88
639.599	9631.09
639.793	9766.25
639.986	9518.45
640.18	9794.92
640.373	9606.51
640.567	9307.51
640.76	9457.01
640.954	9254.26
641.147	9190.77
641.34	9237.88
641.534	9172.34
641.727	9178.48
641.92	9170.29
642.114	8902.01
642.307	9053.56
642.5	8830.33
642.694	8856.95
642.887	8781.18
643.08	8779.13
643.273	8658.3
643.467	8689.02
643.66	8514.94
643.853	8615.29
644.046	8254.85
644.239	8359.3
644.432	8453.5
644.626	8279.43
644.819	8412.54
645.012	8424.83
645.205	8396.16
645.398	8443.26
645.591	8109.44
645.784	8256.9
645.977	8054.15
646.17	8023.43
646.363	7994.76
646.556	8093.06
646.749	7927.18
646.942	7845.26
647.135	7902.6
647.328	7714.19
647.521	7798.15
647.714	7722.38
647.907	7824.78
648.099	7757.19
648.292	7746.95
648.485	7552.4
648.678	7609.74
648.871	7392.66
649.064	7409.04
649.256	7298.45
649.449	7390.61
649.642	7392.66
649.835	7312.78
650.027	7339.41
650.22	6970.77
650.413	7120.28
650.605	7267.73
650.798	7040.4
650.991	6960.53
651.183	7050.64
651.376	6903.19
651.568	6899.09
651.761	7112.08
651.954	6888.85
652.146	6751.64
652.339	6759.83
652.531	6798.74
652.724	6686.11
652.916	6720.92
653.109	6749.59
653.301	6727.07
653.494	6704.54
653.686	6555.04
653.879	6630.81
654.071	6522.27
654.263	6540.7
654.456	6305.18
654.648	6327.71
654.84	6405.53
655.033	6364.57
655.225	6342.05
655.417	6323.62
655.61	6204.83
655.802	6274.46
655.994	6155.68
656.186	6319.52
656.379	6096.29
656.571	5848.49
656.763	6098.34
656.955	6051.24
657.148	6190.5
657.34	5997.99
657.532	5797.29
657.724	5842.34
657.916	5754.28
658.108	5735.85
658.3	5860.77
658.492	5737.9
658.684	5641.64
658.876	5887.4
659.068	5608.87
659.26	5756.33
659.452	5510.57
659.644	5643.69
659.836	5604.78
660.028	5494.19
660.22	5545.39
660.412	5395.89
660.604	5356.97
660.796	5313.97
660.988	5479.85
661.18	5309.87
661.372	5289.39
661.563	5320.11
661.755	5199.28
661.947	5232.05
662.139	5225.9
662.331	5289.39
662.522	5158.32
662.714	5098.93
662.906	5004.72
663.097	4984.24
663.289	5090.74
663.481	4875.7
663.673	5057.97
663.864	5004.72
664.056	4949.43
664.247	4961.72
664.439	4861.37
664.631	4988.34
664.822	4775.35
665.014	4812.21
665.205	4789.69
665.397	4750.78
665.588	4613.56
665.78	4642.23
665.971	4814.26
666.163	4623.8
666.354	4609.47
666.546	4617.66
666.737	4736.44
666.929	4554.17
667.12	4539.83
667.311	4580.79
667.503	4562.36
667.694	4480.44
667.885	4496.83
668.077	4464.06
668.268	4427.2
668.459	4298.17
668.651	4402.62
668.842	4251.07
669.033	4425.15
669.224	4330.94
669.416	4488.64
669.607	4216.26
669.798	4408.76
669.989	4425.15
670.18	4294.08
670.371	4294.08
670.563	4296.13
670.754	4249.02
670.945	4163.01
671.136	4169.15
671.327	4167.1
671.518	4074.95
671.709	4189.63
671.9	4036.03
672.091	4056.51
672.282	3962.31
672.473	4140.48
672.664	4068.8
672.855	3974.6
673.046	3935.68
673.237	4025.79
673.428	3976.64
673.619	3884.48
673.809	3886.53
674	3921.35
674.191	3919.3
674.382	3845.57
674.573	3806.66
674.764	3841.48
674.954	3851.72
675.145	3911.11
675.336	3790.28
675.527	3710.41
675.717	3796.42
675.908	3685.83
676.099	3722.7
676.289	3763.65
676.48	3696.07
676.671	3728.84
676.861	3667.4
677.052	3712.46
677.243	3663.3
677.433	3777.99
677.624	3804.61
677.814	3554.76
678.005	3675.59
678.195	3777.99
678.386	3575.24
678.576	3425.74
678.767	3644.87
678.957	3614.15
679.148	3657.16
679.338	3521.99
679.529	3435.98
679.719	3468.75
679.909	3573.19
680.1	3442.12
680.29	3569.1
680.481	3554.76
680.671	3546.57
680.861	3595.72
681.052	3462.6
681.242	3567.05
681.432	3489.23
681.622	3503.56
681.813	3513.8
682.003	3360.2
682.193	3452.36
682.383	3429.84
682.573	3493.32
682.764	3411.4
682.954	3438.03
683.144	3427.79
683.334	3358.16
683.524	3339.73
683.714	3380.68
683.904	3407.31
684.094	3401.16
684.284	3321.29
684.474	3395.02
684.664	3315.15
684.854	3380.68
685.044	3380.68
685.234	3288.53
685.424	3300.81
685.614	3288.53
685.804	3380.68
685.994	3386.83
686.184	3390.92
686.374	3235.28
686.564	3134.93
686.753	3237.33
686.943	3139.02
687.133	3192.27
687.323	3198.42
687.513	3147.22
687.702	3216.85
687.892	3075.54
688.082	3124.69
688.272	3061.2
688.461	3091.92
688.651	3044.82
688.841	3075.54
689.03	3120.59
689.22	2926.04
689.41	3040.72
689.599	3083.73
689.789	2938.32
689.979	2991.57
690.168	2921.94
690.358	2977.23
690.547	2962.9
690.737	2833.88
690.926	2913.75
691.116	2780.63
691.305	2844.12
691.495	2891.22
691.684	2799.06
691.874	2866.64
692.063	2876.88
692.252	2731.48
692.442	2876.88
692.631	2682.33
692.82	2835.92
693.01	2772.44
693.199	2799.06
693.388	2749.91
693.578	2897.36
693.767	2672.09
693.956	2614.74
694.146	2663.9
694.335	2715.09
694.524	2708.95
694.713	2610.65
694.902	2774.49
695.092	2667.99
695.281	2618.84
695.47	2639.32
695.659	2538.97
695.848	2631.13
696.037	2610.65
696.226	2559.45
696.415	2620.89
696.604	2670.04
696.793	2495.96
696.982	2516.44
697.171	2604.5
697.36	2532.83
697.549	2678.23
697.738	2571.74
697.927	2674.14
698.116	2534.87
698.305	2624.98
698.494	2543.07
698.683	2596.31
698.872	2575.83
699.061	2586.07
699.25	2465.24
699.438	2680.28
699.627	2584.02
699.816	2479.58
700.005	2530.78
700.193	2534.87
700.382	2588.12
700.571	2502.11
700.76	2573.78
700.948	2493.91
701.137	2516.44
701.326	2551.26
701.514	2495.96
701.703	2655.7
701.892	2473.43
702.08	2684.38
702.269	2520.54
702.457	2432.47
702.646	2618.84
702.834	2479.58
703.023	2379.23
703.212	2516.44
703.4	2567.64
703.589	2459.1
703.777	2649.56
703.965	2553.31
704.154	2502.11
704.342	2483.67
704.531	2559.45
704.719	2520.54
704.907	2477.53
705.096	2676.18
705.284	2530.78
705.472	2528.73
705.661	2577.88
705.849	2592.22
706.037	2670.04
706.226	2493.91
706.414	2551.26
706.602	2489.82
706.79	2588.12
706.979	2538.97
707.167	2534.87
707.355	2473.43
707.543	2524.63
707.731	2557.4
707.919	2538.97
708.107	2569.69
708.296	2620.89
708.484	2629.08
708.672	2500.06
708.86	2506.2
709.048	2581.98
709.236	2516.44
709.424	2498.01
709.612	2473.43
709.8	2543.07
709.988	2547.16
710.176	2571.74
710.364	2581.98
710.551	2553.31
710.739	2518.49
710.927	2547.16
711.115	2686.42
711.303	2598.36
711.491	2573.78
711.679	2500.06
711.866	2555.35
712.054	2637.27
712.242	2489.82
712.43	2588.12
712.617	2602.46
712.805	2569.69
712.993	2518.49
713.181	2606.55
713.368	2551.26
713.556	2620.89
713.744	2467.29
713.931	2469.34
714.119	2581.98
714.306	2500.06
714.494	2573.78
714.682	2424.28
714.869	2635.22
715.057	2520.54
715.244	2651.61
715.432	2645.46
715.619	2536.92
715.807	2534.87
715.994	2532.83
716.182	2563.54
716.369	2532.83
716.556	2563.54
716.744	2485.72
716.931	2498.01
717.119	2450.91
717.306	2520.54
717.493	2549.21
717.681	2579.93
717.868	2469.34
718.055	2637.27
718.242	2536.92
718.43	2543.07
718.617	2573.78
718.804	2502.11
718.991	2588.12
719.179	2543.07
719.366	2588.12
719.553	2643.42
719.74	2653.66
719.927	2534.87
720.114	2442.71
720.301	2629.08
720.488	2524.63
720.676	2545.11
720.863	2551.26
721.05	2338.27
721.237	2483.67
721.424	2557.4
721.611	2506.2
721.798	2477.53
721.985	2442.71
722.172	2428.38
722.358	2471.39
722.545	2479.58
722.732	2534.87
722.919	2567.64
723.106	2436.57
723.293	2409.95
723.48	2575.83
723.667	2518.49
723.853	2508.25
724.04	2473.43
724.227	2434.52
724.414	2379.23
724.6	2524.63
724.787	2469.34
724.974	2485.72
725.161	2520.54
725.347	2424.28
725.534	2452.95
725.72	2444.76
725.907	2450.91
726.094	2526.68
726.28	2479.58
726.467	2461.15
726.653	2418.14
726.84	2510.3
727.027	2573.78
727.213	2336.22
727.4	2510.3
727.586	2622.94
727.773	2311.64
727.959	2471.39
728.145	2541.02
728.332	2483.67
728.518	2264.54
728.705	2368.99
728.891	2375.13
729.077	2364.89
729.264	2440.67
729.45	2340.32
729.636	2414.04
729.823	2321.88
730.009	2385.37
730.195	2436.57
730.382	2485.72
730.568	2455
730.754	2442.71
730.94	2463.19
731.126	2291.17
731.313	2375.13
731.499	2373.08
731.685	2397.66
731.871	2315.74
732.057	2358.75
732.243	2506.2
732.429	2436.57
732.615	2414.04
732.801	2317.79
732.987	2358.75
733.173	2311.64
733.359	2364.89
733.545	2414.04
733.731	2368.99
733.917	2325.98
734.103	2426.33
734.289	2377.18
734.475	2301.4
734.661	2272.73
734.847	2303.45
735.033	2270.69
735.219	2303.45
735.404	2364.89
735.59	2299.36
735.776	2364.89
735.962	2358.75
736.148	2248.16
736.333	2293.21
736.519	2250.21
736.705	2354.65
736.89	2434.52
737.076	2325.98
737.262	2330.08
737.447	2201.05
737.633	2332.12
737.819	2293.21
738.004	2274.78
738.19	2258.4
738.375	2225.63
738.561	2350.56
738.747	2266.59
738.932	2280.93
739.118	2246.11
739.303	2336.22
739.489	2207.2
739.674	2268.64
739.859	2164.19
740.045	2076.13
740.23	2170.33
740.416	2184.67
740.601	2217.44
740.786	2127.33
740.972	2147.81
741.157	2088.42
741.342	2151.9
741.528	2053.6
741.713	2125.28
741.898	2012.64
742.084	2176.48
742.269	2092.51
742.454	2039.26
742.639	2080.22
742.824	2135.52
743.01	2112.99
743.195	2178.53
743.38	2051.55
743.565	2033.12
743.75	2102.75
743.935	2059.74
744.12	2024.93
744.305	2029.03
744.49	2061.79
744.675	2074.08
744.86	2014.69
745.045	1996.26
745.23	2047.46
745.415	1973.73
745.6	1822.18
745.785	1922.53
745.97	1981.92
746.155	1902.05
746.34	1953.25
746.525	1846.76
746.71	1949.15
746.895	1883.62
747.079	1795.56
747.264	1820.13
747.449	1813.99
747.634	1922.53
747.819	1719.78
748.003	1824.23
748.188	1857
748.373	1744.36
748.557	1715.69
748.742	1758.69
748.927	1752.55
749.111	1641.96
749.296	1758.69
749.481	1734.12
749.665	1691.11
749.85	1695.21
750.034	1699.3
750.219	1668.58
750.404	1654.25
750.588	1684.97
750.773	1498.6
750.957	1629.67
751.141	1644.01
751.326	1494.51
751.51	1537.51
751.695	1607.14
751.879	1578.47
752.064	1535.46
752.248	1547.75
752.432	1603.05
752.617	1549.8
752.801	1541.61
752.985	1439.21
753.17	1588.71
753.354	1478.12
753.538	1498.6
753.722	1529.32
753.907	1457.64
754.091	1510.89
754.275	1345
754.459	1326.57
754.643	1320.43
754.828	1514.98
755.012	1332.72
755.196	1340.91
755.38	1320.43
755.564	1375.72
755.748	1390.06
755.932	1308.14
756.116	1369.58
756.3	1306.09
756.484	1312.24
756.668	1351.15
756.852	1322.48
757.036	1236.46
757.22	1308.14
757.404	1281.52
757.588	1265.13
757.772	1193.45
757.956	1271.28
758.14	1250.8
758.323	1283.56
758.507	1359.34
758.691	1181.17
758.875	1215.98
759.059	1222.13
759.242	1164.78
759.426	1179.12
759.61	1056.24
759.794	1152.49
759.977	1199.6
760.161	1162.73
760.345	1132.01
760.528	1111.54
760.712	1168.88
760.895	1117.68
761.079	1064.43
761.263	1054.19
761.446	1078.77
761.63	1023.47
761.813	1019.38
761.997	982.51
762.18	1125.87
762.364	1091.06
762.547	1058.29
762.731	1029.62
762.914	1005.04
763.098	1046
763.281	1113.58
763.464	1021.42
763.648	974.32
763.831	1023.47
764.015	984.56
764.198	1007.09
764.381	1015.28
764.564	1013.23
764.748	939.51
764.931	1023.47
765.114	982.51
765.297	1015.28
765.481	882.16
765.664	1007.09
765.847	990.7
766.03	953.84
766.213	931.31
766.397	986.61
766.58	923.12
766.763	968.18
766.946	931.31
767.129	906.74
767.312	900.59
767.495	955.89
767.678	972.27
767.861	878.07
768.044	871.92
768.227	935.41
768.41	919.03
768.593	857.59
768.776	984.56
768.959	912.88
769.142	892.4
769.324	988.66
769.507	839.16
769.69	900.59
769.873	904.69
770.056	886.26
770.239	851.44
770.421	851.44
770.604	841.2
770.787	847.35
770.97	896.5
771.152	808.44
771.335	763.38
771.518	771.57
771.7	728.56
771.883	822.77
772.066	736.76
772.248	896.5
772.431	769.52
772.613	845.3
772.796	736.76
772.978	779.76
773.161	767.48
773.343	765.43
773.526	755.19
773.708	701.94
773.891	824.82
774.073	769.52
774.256	706.04
774.438	857.59
774.621	685.56
774.803	701.94
774.985	708.09
775.168	779.76
775.35	667.13
775.532	736.76
775.715	732.66
775.897	699.89
776.079	687.61
776.261	765.43
776.444	691.7
776.626	734.71
776.808	730.61
776.99	689.65
777.173	611.83
777.355	658.93
777.537	736.76
777.719	710.13
777.901	593.4
778.083	650.74
778.265	564.73
778.447	593.4
778.629	589.3
778.811	577.02
778.993	626.17
779.175	607.73
779.357	568.82
779.539	560.63
779.721	566.78
779.903	587.26
780.085	634.36
780.267	673.27
780.449	587.26
780.631	595.45
780.812	667.13
780.994	562.68
781.176	574.97
781.358	517.62
781.54	574.97
781.721	531.96
781.903	536.06
782.085	495.1
782.267	493.05
782.448	511.48
782.63	566.78
782.812	388.6
782.993	447.99
783.175	462.33
783.357	480.76
783.538	470.52
783.72	409.08
783.901	458.23
784.083	521.72
784.264	458.23
784.446	456.19
784.627	450.04
784.809	464.38
784.99	413.18
785.172	480.76
785.353	439.8
785.535	507.38
785.716	404.99
785.897	460.28
786.079	503.29
786.26	460.28
786.441	366.07
786.623	396.79
786.804	407.03
786.985	394.75
787.167	464.38
787.348	318.97
787.529	439.8
787.71	331.26
787.891	456.19
788.073	425.47
788.254	357.88
788.435	366.07
788.616	392.7
788.797	372.22
788.978	388.6
789.159	386.55
789.34	331.26
789.522	343.55
789.703	366.07
789.884	452.09
790.065	380.41
790.246	349.69
790.427	407.03
790.607	366.07
790.788	316.92
790.969	333.31
791.15	386.55
791.331	409.08
791.512	321.02
791.693	347.64
791.874	364.03
792.054	343.55
792.235	355.83
792.416	302.59
792.597	275.96
792.778	347.64
792.958	321.02
793.139	386.55
793.32	327.16
793.5	302.59
793.681	409.08
793.862	308.73
794.042	355.83
794.223	263.68
794.404	314.88
794.584	228.86
794.765	347.64
794.945	265.72
795.126	325.12
795.306	298.49
795.487	312.83
795.667	327.16
795.848	314.88
796.028	308.73
796.209	312.83
796.389	294.4
796.57	232.96
796.75	294.4
796.93	314.88
797.111	235
797.291	235
797.471	187.9
797.652	269.82
797.832	208.38
798.012	304.64
798.192	187.9
798.373	202.24
798.553	224.76
798.733	312.83
798.913	218.62
799.093	222.72
799.274	282.11
799.454	226.81
799.634	245.24
799.814	202.24
799.994	255.48
800.174	232.96
800.354	259.58
800.534	265.72
800.714	222.72
800.894	216.57
801.074	187.9
801.254	259.58
801.434	245.24
801.614	245.24
801.794	202.24
801.974	622.07
802.154	189.95
802.334	220.67
802.514	165.37
802.693	142.85
802.873	284.16
803.053	181.76
803.233	220.67
803.413	183.81
803.592	245.24
803.772	202.24
803.952	169.47
804.131	142.85
804.311	278.01
804.491	218.62
804.67	196.09
804.85	159.23
805.03	216.57
805.209	169.47
805.389	167.42
805.568	179.71
805.748	189.95
805.928	212.48
806.107	269.82
806.287	153.09
806.466	171.52
806.646	206.33
806.825	200.19
807.004	116.22
807.184	206.33
807.363	239.1
807.543	206.33
807.722	210.43
807.901	198.14
808.081	218.62
808.26	206.33
808.439	198.14
808.619	159.23
808.798	222.72
808.977	148.99
809.156	196.09
809.336	202.24
809.515	159.23
809.694	146.94
809.873	204.28
810.052	159.23
810.231	200.19
810.411	142.85
810.59	151.04
810.769	194.05
810.948	142.85
811.127	118.27
811.306	108.03
811.485	282.11
811.664	175.61
811.843	189.95
812.022	140.8
812.201	50.69
812.38	128.51
812.559	175.61
812.737	208.38
812.916	120.32
813.095	185.85
813.274	114.17
813.453	163.33
813.632	128.51
813.811	105.98
813.989	103.93
814.168	130.56
814.347	153.09
814.526	118.27
814.704	216.57
814.883	110.08
815.062	110.08
815.24	110.08
815.419	202.24
815.598	153.09
815.776	136.7
815.955	124.41
816.133	167.42
816.312	65.02
816.49	153.09
816.669	144.89
816.847	85.5
817.026	177.66
817.204	138.75
817.383	187.9
817.561	151.04
817.74	132.61
817.918	114.17
818.097	208.38
818.275	67.07
818.453	108.03
818.632	9.73
818.81	155.13
818.988	142.85
819.167	50.69
819.345	108.03
819.523	91.65
819.701	81.41
819.879	112.13
820.058	99.84
820.236	54.78
820.414	175.61
820.592	173.57
820.77	163.33
820.948	124.41
821.127	157.18
821.305	101.89
821.483	38.4
821.661	157.18
821.839	169.47
822.017	56.83
822.195	46.59
822.373	134.65
822.551	69.12
822.729	79.36
822.907	120.32
823.085	95.74
823.262	118.27
823.44	167.42
823.618	116.22
823.796	120.32
823.974	-31.23
824.152	101.89
824.329	81.41
824.507	110.08
824.685	67.07
824.863	85.5
825.04	79.36
825.218	44.54
825.396	50.69
825.574	165.37
825.751	19.97
825.929	108.03
826.107	114.17
826.284	48.64
826.462	108.03
826.639	142.85
826.817	89.6
826.994	26.11
827.172	62.98
827.349	56.83
827.527	60.93
827.704	5.63
827.882	105.98
828.059	155.13
828.237	58.88
828.414	83.45
828.591	50.69
828.769	30.21
828.946	24.06
829.124	91.65
829.301	67.07
829.478	50.69
829.655	101.89
829.833	38.4
830.01	11.78
830.187	40.45
830.364	101.89
830.542	112.13
830.719	99.84
830.896	108.03
831.073	103.93
831.25	95.74
831.427	24.06
831.604	79.36
831.782	126.46
831.959	54.78
832.136	62.98
832.313	50.69
832.49	48.64
832.667	67.07
832.844	103.93
833.021	130.56
833.198	73.21
833.374	44.54
833.551	-0.51
833.728	5.63
833.905	52.74
834.082	132.61
834.259	99.84
834.436	110.08
834.612	-31.23
834.789	116.22
834.966	19.97
835.143	97.79
835.319	65.02
835.496	60.93
835.673	128.51
835.85	58.88
836.026	77.31
836.203	83.45
836.38	75.26
836.556	71.17
836.733	48.64
836.909	58.88
837.086	-2.56
837.262	3.58
837.439	28.16
837.616	54.78
837.792	75.26
837.968	83.45
838.145	22.02
838.321	91.65
838.498	167.42
838.674	89.6
838.851	79.36
839.027	118.27
839.203	44.54
839.38	-18.94
839.556	46.59
839.732	62.98
839.909	52.74
840.085	38.4
840.261	11.78
840.437	120.32
840.614	50.69
840.79	79.36
840.966	60.93
841.142	15.87
841.318	3.58
841.494	32.26
841.671	38.4
841.847	36.35
842.023	26.11
842.199	56.83
842.375	81.41
842.551	69.12
842.727	62.98
842.903	128.51
843.079	32.26
843.255	30.21
843.431	32.26
843.607	97.79
843.783	32.26
843.959	71.17
844.134	77.31
844.31	114.17
844.486	5.63
844.662	28.16
844.838	79.36
845.013	89.6
845.189	17.92
845.365	9.73
845.541	-12.8
845.716	60.93
845.892	-33.28
846.068	69.12
846.244	116.22
846.419	71.17
846.595	54.78
846.77	62.98
846.946	65.02
847.122	52.74
847.297	22.02
847.473	28.16
847.648	7.68
847.824	65.02
847.999	38.4
848.175	46.59
848.35	126.46
848.526	40.45
848.701	44.54
848.876	71.17
849.052	81.41
849.227	40.45
849.403	79.36
849.578	36.35
849.753	36.35
849.929	32.26
850.104	3.58
850.279	-6.66
850.454	60.93
850.63	30.21
850.805	-35.33
850.98	24.06
851.155	7.68
851.33	1.54
851.505	26.11
851.681	60.93
851.856	83.45
852.031	52.74
852.206	32.26
852.381	9.73
852.556	34.3
852.731	22.02
852.906	73.21
853.081	-37.38
853.256	-37.38
853.431	50.69
853.606	-14.85
853.781	3.58
853.956	-31.23
854.131	38.4
854.305	30.21
854.48	34.3
854.655	-27.14
854.83	69.12
855.005	24.06
855.18	5.63
855.354	26.11
855.529	46.59
855.704	40.45
855.879	97.79
856.053	-16.9
856.228	89.6
856.403	9.73
856.577	-0.51
856.752	91.65
856.926	28.16
857.101	46.59
857.276	13.82
857.45	36.35
857.625	30.21
857.799	89.6
857.974	85.5
858.148	1.54
858.323	19.97
858.497	-2.56
858.672	7.68
858.846	9.73
859.02	13.82
859.195	-61.95
859.369	46.59
859.543	22.02
859.718	69.12
859.892	38.4
860.066	30.21
860.241	34.3
860.415	-25.09
860.589	-20.99
860.763	-6.66
860.938	-12.8
861.112	17.92
861.286	50.69
861.46	-20.99
861.634	99.84
861.808	24.06
861.982	-23.04
862.157	-82.43
862.331	11.78
862.505	81.41
862.679	11.78
862.853	34.3
863.027	-0.51
863.201	-57.86
863.375	-29.18
863.549	9.73
863.722	46.59
863.896	30.21
864.07	-14.85
864.244	-29.18
864.418	15.87
864.592	34.3
864.766	-27.14
864.939	9.73
865.113	13.82
865.287	54.78
865.461	22.02
865.634	38.4
865.808	69.12
865.982	-37.38
866.156	-0.51
866.329	5.63
866.503	-0.51
866.676	32.26
866.85	-29.18
867.024	103.93
867.197	32.26
867.371	65.02
867.544	58.88
867.718	-33.28
867.891	79.36
868.065	-31.23
868.238	-39.42
868.412	36.35
868.585	50.69
868.759	-49.66
868.932	48.64
869.105	44.54
869.279	1.54
869.452	34.3
869.625	26.11
869.799	58.88
869.972	44.54
870.145	-59.9
870.319	-6.66
870.492	-37.38
870.665	36.35
870.838	40.45
871.011	5.63
871.185	52.74
871.358	-33.28
871.531	65.02
871.704	54.78
871.877	40.45
872.05	-47.62
872.223	40.45
872.396	9.73
872.569	58.88
872.742	-18.94
872.915	30.21
873.088	19.97
873.261	56.83
873.434	42.5
873.607	3.58
873.78	9.73
873.953	-2.56
874.126	26.11
874.299	-2.56
874.471	42.5
874.644	1.54
874.817	9.73
874.99	114.17
875.163	7.68
875.335	38.4
875.508	1.54
875.681	40.45
875.853	-27.14
876.026	56.83
876.199	-25.09
876.371	-43.52
876.544	-2.56
876.717	32.26
876.889	48.64
877.062	40.45
877.234	-20.99
877.407	67.07
877.579	-2.56
877.752	15.87
877.924	-49.66
878.097	-2.56
878.269	11.78
878.442	22.02
878.614	50.69
878.786	-33.28
878.959	32.26
879.131	46.59
879.303	-35.33
879.476	13.82
879.648	-0.51
879.82	28.16
879.993	-25.09
880.165	52.74
880.337	-20.99
880.509	30.21
880.681	56.83
880.854	1.54
881.026	-55.81
881.198	36.35
881.37	-10.75
881.542	15.87
881.714	22.02
881.886	-8.7
882.058	17.92
882.23	-16.9
882.402	-51.71
882.574	-20.99
882.746	-2.56
882.918	52.74
883.09	-10.75
883.262	-74.24
883.434	-37.38
883.606	28.16
883.778	-6.66
883.95	114.17
884.122	36.35
884.293	75.26
884.465	3.58
884.637	13.82
884.809	-27.14
884.98	11.78
885.152	46.59
885.324	73.21
885.496	-23.04
885.667	7.68
885.839	28.16
886.011	71.17
886.182	9.73
886.354	-33.28
886.525	-10.75
886.697	38.4
886.869	79.36
887.04	-57.86
887.212	44.54
887.383	-4.61
887.555	54.78
887.726	-8.7
887.897	-55.81
888.069	5.63
888.24	-12.8
888.412	30.21
888.583	19.97
888.754	19.97
888.926	-55.81
889.097	3.58
889.268	-14.85
889.44	-74.24
889.611	-18.94
889.782	-18.94
889.953	-25.09
890.125	-29.18
890.296	54.78
890.467	13.82
890.638	-70.14
890.809	7.68
890.98	42.5
891.151	22.02
891.323	-2.56
891.494	-10.75
891.665	-20.99
891.836	-47.62
892.007	30.21
892.178	9.73
892.349	-51.71
892.52	-14.85
892.691	-66.05
892.862	-27.14
893.032	7.68
893.203	-29.18
893.374	42.5
893.545	-31.23
893.716	-18.94
893.887	58.88
894.057	-14.85
894.228	-27.14
894.399	54.78
894.57	17.92
894.74	17.92
894.911	30.21
895.082	11.78
895.253	5.63
895.423	-0.51
895.594	40.45
895.764	26.11
895.935	-57.86
896.106	83.45
896.276	60.93
896.447	19.97
896.617	65.02
896.788	-57.86
896.958	-33.28
897.129	-6.66
897.299	42.5
897.47	32.26
897.64	32.26
897.81	17.92
897.981	-55.81
898.151	-33.28
898.322	32.26
898.492	65.02
898.662	-35.33
898.832	-49.66
899.003	-39.42
899.173	75.26
899.343	38.4
899.513	-57.86
