Data from USB4F104151__9__12-00-21-874.txt Node

Date: Fri Mar 14 12:00:21 EDT 2025
User: louis
Spectrometer: USB4F10415
Trigger mode: 4
Integration Time (sec): 2.000000E-2
Scans to average: 1
Electric dark correction enabled: true
Nonlinearity correction enabled: false
Boxcar width: 0
XAxis mode: Wavelengths
Number of Pixels in Spectrum: 3648
>>>>>Begin Spectral Data<<<<<
178.204	-92.67
178.424	-92.67
178.644	-92.67
178.864	-145.92
179.084	-70.14
179.304	-49.66
179.524	1.54
179.744	-37.38
179.964	38.4
180.184	-2.56
180.404	26.11
180.624	-64
180.844	46.59
181.064	38.4
181.283	-14.85
181.503	-49.66
181.723	67.07
181.943	-29.18
182.163	-27.14
182.383	-20.99
182.602	65.02
182.822	19.97
183.042	1.54
183.262	-8.7
183.482	71.17
183.701	-31.23
183.921	1.54
184.141	24.06
184.361	73.21
184.58	19.97
184.8	5.63
185.02	-2.56
185.239	15.87
185.459	-20.99
185.679	38.4
185.898	-0.51
186.118	-8.7
186.338	22.02
186.557	34.3
186.777	-27.14
186.997	22.02
187.216	-31.23
187.436	42.5
187.655	54.78
187.875	9.73
188.095	-66.05
188.314	54.78
188.534	52.74
188.753	7.68
188.973	-10.75
189.192	-2.56
189.412	-51.71
189.631	-8.7
189.851	32.26
190.07	11.78
190.29	-0.51
190.509	-6.66
190.729	-72.19
190.948	42.5
191.168	11.78
191.387	75.26
191.607	38.4
191.826	3.58
192.045	-8.7
192.265	65.02
192.484	-45.57
192.704	-64
192.923	-57.86
193.142	-27.14
193.362	34.3
193.581	17.92
193.8	69.12
194.02	17.92
194.239	-61.95
194.458	44.54
194.678	48.64
194.897	11.78
195.116	-39.42
195.335	-8.7
195.555	5.63
195.774	-43.52
195.993	-41.47
196.212	22.02
196.432	-76.29
196.651	19.97
196.87	-43.52
197.089	-0.51
197.308	32.26
197.528	101.89
197.747	26.11
197.966	26.11
198.185	58.88
198.404	-12.8
198.623	13.82
198.842	7.68
199.062	-53.76
199.281	75.26
199.5	-6.66
199.719	-23.04
199.938	9.73
200.157	-29.18
200.376	-53.76
200.595	-12.8
200.814	9.73
201.033	-49.66
201.252	-47.62
201.471	79.36
201.69	36.35
201.909	-10.75
202.128	-14.85
202.347	103.93
202.566	89.6
202.785	40.45
203.004	-53.76
203.223	77.31
203.442	7.68
203.661	-0.51
203.879	36.35
204.098	19.97
204.317	-57.86
204.536	5.63
204.755	-27.14
204.974	30.21
205.193	-18.94
205.411	28.16
205.63	19.97
205.849	13.82
206.068	38.4
206.287	-41.47
206.505	-23.04
206.724	3.58
206.943	-37.38
207.162	-43.52
207.381	-47.62
207.599	-29.18
207.818	-33.28
208.037	15.87
208.255	60.93
208.474	83.45
208.693	-45.57
208.911	11.78
209.13	42.5
209.349	-0.51
209.567	-6.66
209.786	52.74
210.005	-27.14
210.223	-27.14
210.442	-104.96
210.661	22.02
210.879	62.98
211.098	-51.71
211.316	56.83
211.535	7.68
211.753	36.35
211.972	65.02
212.191	46.59
212.409	-35.33
212.628	-57.86
212.846	-25.09
213.065	-10.75
213.283	132.61
213.502	13.82
213.72	-0.51
213.938	13.82
214.157	30.21
214.375	54.78
214.594	34.3
214.812	5.63
215.031	38.4
215.249	-20.99
215.467	71.17
215.686	17.92
215.904	-16.9
216.122	-6.66
216.341	1.54
216.559	9.73
216.778	32.26
216.996	30.21
217.214	19.97
217.432	15.87
217.651	-29.18
217.869	-35.33
218.087	65.02
218.306	24.06
218.524	-25.09
218.742	22.02
218.96	5.63
219.179	-35.33
219.397	-4.61
219.615	50.69
219.833	67.07
220.051	-12.8
220.27	-0.51
220.488	26.11
220.706	24.06
220.924	17.92
221.142	26.11
221.36	-76.29
221.578	5.63
221.796	26.11
222.015	54.78
222.233	17.92
222.451	24.06
222.669	-18.94
222.887	-47.62
223.105	-10.75
223.323	-66.05
223.541	-23.04
223.759	69.12
223.977	-64
224.195	42.5
224.413	44.54
224.631	89.6
224.849	-12.8
225.067	-35.33
225.285	-14.85
225.503	-35.33
225.721	-64
225.939	19.97
226.157	36.35
226.375	56.83
226.592	17.92
226.81	1.54
227.028	32.26
227.246	52.74
227.464	11.78
227.682	1.54
227.9	13.82
228.117	93.69
228.335	30.21
228.553	-31.23
228.771	26.11
228.989	54.78
229.206	7.68
229.424	-8.7
229.642	-27.14
229.86	-31.23
230.077	7.68
230.295	-59.9
230.513	24.06
230.731	34.3
230.948	-14.85
231.166	1.54
231.384	15.87
231.601	22.02
231.819	-51.71
232.037	-49.66
232.254	-27.14
232.472	13.82
232.689	-6.66
232.907	-0.51
233.125	-14.85
233.342	36.35
233.56	-16.9
233.777	58.88
233.995	7.68
234.213	7.68
234.43	32.26
234.648	-31.23
234.865	-6.66
235.083	58.88
235.3	-45.57
235.518	-10.75
235.735	-4.61
235.953	11.78
236.17	-47.62
236.388	56.83
236.605	-8.7
236.822	13.82
237.04	71.17
237.257	-14.85
237.475	-59.9
237.692	-18.94
237.909	34.3
238.127	-23.04
238.344	22.02
238.562	15.87
238.779	19.97
238.996	38.4
239.214	-35.33
239.431	75.26
239.648	-12.8
239.865	22.02
240.083	-23.04
240.3	11.78
240.517	5.63
240.735	75.26
240.952	77.31
241.169	30.21
241.386	-4.61
241.603	44.54
241.821	-51.71
242.038	38.4
242.255	-10.75
242.472	24.06
242.689	46.59
242.907	-20.99
243.124	-14.85
243.341	38.4
243.558	-10.75
243.775	-35.33
243.992	-59.9
244.209	40.45
244.426	36.35
244.643	-25.09
244.86	-45.57
245.078	38.4
245.295	-6.66
245.512	-23.04
245.729	-16.9
245.946	-51.71
246.163	24.06
246.38	3.58
246.597	-0.51
246.814	9.73
247.031	-2.56
247.248	-16.9
247.464	26.11
247.681	7.68
247.898	-4.61
248.115	99.84
248.332	36.35
248.549	9.73
248.766	-25.09
248.983	-27.14
249.2	-8.7
249.417	65.02
249.633	3.58
249.85	17.92
250.067	-37.38
250.284	28.16
250.501	3.58
250.717	32.26
250.934	-39.42
251.151	26.11
251.368	-12.8
251.585	34.3
251.801	17.92
252.018	13.82
252.235	54.78
252.451	-12.8
252.668	7.68
252.885	54.78
253.102	22.02
253.318	42.5
253.535	-29.18
253.752	9.73
253.968	-2.56
254.185	-35.33
254.401	-64
254.618	50.69
254.835	-49.66
255.051	58.88
255.268	-12.8
255.484	38.4
255.701	-39.42
255.917	87.55
256.134	-4.61
256.351	38.4
256.567	38.4
256.784	34.3
257	-23.04
257.217	-23.04
257.433	-31.23
257.65	56.83
257.866	19.97
258.082	44.54
258.299	60.93
258.515	17.92
258.732	5.63
258.948	28.16
259.165	-51.71
259.381	-47.62
259.597	26.11
259.814	32.26
260.03	-47.62
260.246	71.17
260.463	34.3
260.679	30.21
260.895	19.97
261.112	54.78
261.328	-33.28
261.544	1.54
261.761	52.74
261.977	-2.56
262.193	-100.86
262.409	58.88
262.626	-16.9
262.842	17.92
263.058	-86.53
263.274	52.74
263.49	54.78
263.707	17.92
263.923	34.3
264.139	-47.62
264.355	-0.51
264.571	-2.56
264.787	-61.95
265.004	32.26
265.22	28.16
265.436	-29.18
265.652	-41.47
265.868	99.84
266.084	11.78
266.3	79.36
266.516	-33.28
266.732	40.45
266.948	-25.09
267.164	73.21
267.38	67.07
267.596	-23.04
267.812	69.12
268.028	9.73
268.244	-49.66
268.46	-39.42
268.676	3.58
268.892	-47.62
269.108	17.92
269.324	-14.85
269.54	-4.61
269.756	11.78
269.972	-8.7
270.188	73.21
270.403	-25.09
270.619	36.35
270.835	-35.33
271.051	-6.66
271.267	30.21
271.483	15.87
271.698	-53.76
271.914	87.55
272.13	-12.8
272.346	-47.62
272.562	19.97
272.777	40.45
272.993	-14.85
273.209	-8.7
273.425	77.31
273.64	3.58
273.856	40.45
274.072	32.26
274.287	11.78
274.503	-25.09
274.719	44.54
274.934	-4.61
275.15	9.73
275.366	-20.99
275.581	22.02
275.797	-4.61
276.012	38.4
276.228	-27.14
276.444	-37.38
276.659	-31.23
276.875	-6.66
277.09	19.97
277.306	5.63
277.521	15.87
277.737	42.5
277.952	69.12
278.168	-4.61
278.383	1.54
278.599	28.16
278.814	73.21
279.03	24.06
279.245	-51.71
279.461	11.78
279.676	-27.14
279.892	32.26
280.107	34.3
280.322	-18.94
280.538	-18.94
280.753	-8.7
280.969	32.26
281.184	28.16
281.399	17.92
281.615	3.58
281.83	13.82
282.045	-25.09
282.26	9.73
282.476	-16.9
282.691	75.26
282.906	17.92
283.122	38.4
283.337	-4.61
283.552	50.69
283.767	-35.33
283.983	30.21
284.198	-18.94
284.413	-41.47
284.628	-41.47
284.843	1.54
285.058	-18.94
285.274	-10.75
285.489	-68.09
285.704	24.06
285.919	26.11
286.134	-61.95
286.349	-43.52
286.564	79.36
286.779	38.4
286.995	-43.52
287.21	52.74
287.425	-39.42
287.64	26.11
287.855	5.63
288.07	-10.75
288.285	46.59
288.5	-10.75
288.715	11.78
288.93	42.5
289.145	50.69
289.36	24.06
289.575	-6.66
289.79	-14.85
290.004	-16.9
290.219	-25.09
290.434	26.11
290.649	9.73
290.864	-4.61
291.079	-23.04
291.294	-0.51
291.509	-20.99
291.724	40.45
291.938	-39.42
292.153	24.06
292.368	3.58
292.583	-41.47
292.798	-49.66
293.012	-41.47
293.227	54.78
293.442	3.58
293.657	7.68
293.871	7.68
294.086	17.92
294.301	-23.04
294.516	-10.75
294.73	89.6
294.945	-82.43
295.16	44.54
295.374	-37.38
295.589	62.98
295.804	44.54
296.018	9.73
296.233	-0.51
296.447	73.21
296.662	30.21
296.877	17.92
297.091	-51.71
297.306	-16.9
297.52	71.17
297.735	36.35
297.949	-0.51
298.164	30.21
298.378	48.64
298.593	-0.51
298.807	-6.66
299.022	40.45
299.236	-8.7
299.451	11.78
299.665	26.11
299.88	42.5
300.094	17.92
300.309	17.92
300.523	50.69
300.737	15.87
300.952	26.11
301.166	-8.7
301.381	-16.9
301.595	-0.51
301.809	-43.52
302.024	26.11
302.238	-49.66
302.452	40.45
302.667	24.06
302.881	-45.57
303.095	40.45
303.309	3.58
303.524	11.78
303.738	40.45
303.952	-8.7
304.166	24.06
304.381	-33.28
304.595	-31.23
304.809	62.98
305.023	-14.85
305.237	19.97
305.452	22.02
305.666	24.06
305.88	34.3
306.094	-33.28
306.308	1.54
306.522	54.78
306.736	-10.75
306.95	-25.09
307.164	28.16
307.379	36.35
307.593	-14.85
307.807	77.31
308.021	-31.23
308.235	-10.75
308.449	-82.43
308.663	-45.57
308.877	67.07
309.091	52.74
309.305	13.82
309.519	-27.14
309.733	112.13
309.947	-51.71
310.161	65.02
310.374	60.93
310.588	15.87
310.802	28.16
311.016	-14.85
311.23	44.54
311.444	-49.66
311.658	11.78
311.872	30.21
312.085	28.16
312.299	-0.51
312.513	15.87
312.727	-0.51
312.941	52.74
313.154	52.74
313.368	-8.7
313.582	32.26
313.796	42.5
314.009	1.54
314.223	-29.18
314.437	9.73
314.651	65.02
314.864	22.02
315.078	11.78
315.292	19.97
315.505	-6.66
315.719	44.54
315.933	-43.52
316.146	7.68
316.36	-16.9
316.573	48.64
316.787	30.21
317.001	-8.7
317.214	-55.81
317.428	28.16
317.641	34.3
317.855	-57.86
318.068	38.4
318.282	58.88
318.495	-49.66
318.709	91.65
318.922	30.21
319.136	13.82
319.349	38.4
319.563	15.87
319.776	-45.57
319.99	-25.09
320.203	-23.04
320.417	67.07
320.63	-4.61
320.843	-2.56
321.057	34.3
321.27	44.54
321.483	-35.33
321.697	46.59
321.91	-27.14
322.124	24.06
322.337	-6.66
322.55	26.11
322.763	28.16
322.977	56.83
323.19	-23.04
323.403	-37.38
323.617	-16.9
323.83	-12.8
324.043	-16.9
324.256	-16.9
324.469	69.12
324.683	28.16
324.896	24.06
325.109	-37.38
325.322	-12.8
325.535	56.83
325.748	40.45
325.962	-14.85
326.175	91.65
326.388	5.63
326.601	-20.99
326.814	9.73
327.027	-0.51
327.24	-2.56
327.453	-49.66
327.666	40.45
327.879	54.78
328.092	3.58
328.305	-41.47
328.518	-0.51
328.731	26.11
328.944	24.06
329.157	36.35
329.37	17.92
329.583	9.73
329.796	75.26
330.009	-68.09
330.222	56.83
330.435	-12.8
330.648	22.02
330.861	-12.8
331.073	3.58
331.286	58.88
331.499	71.17
331.712	48.64
331.925	-25.09
332.138	-45.57
332.35	28.16
332.563	-45.57
332.776	28.16
332.989	-14.85
333.202	28.16
333.414	17.92
333.627	22.02
333.84	-16.9
334.053	-12.8
334.265	1.54
334.478	24.06
334.691	-31.23
334.903	32.26
335.116	-29.18
335.329	11.78
335.541	-64
335.754	89.6
335.966	-4.61
336.179	62.98
336.392	28.16
336.604	-80.38
336.817	38.4
337.029	-33.28
337.242	-4.61
337.454	11.78
337.667	-6.66
337.88	36.35
338.092	-68.09
338.305	19.97
338.517	-4.61
338.729	50.69
338.942	28.16
339.154	81.41
339.367	-80.38
339.579	60.93
339.792	71.17
340.004	73.21
340.217	17.92
340.429	60.93
340.641	-25.09
340.854	-4.61
341.066	-10.75
341.278	17.92
341.491	38.4
341.703	19.97
341.915	-55.81
342.128	56.83
342.34	-10.75
342.552	13.82
342.764	-8.7
342.977	58.88
343.189	26.11
343.401	22.02
343.613	-12.8
343.826	99.84
344.038	58.88
344.25	-23.04
344.462	-12.8
344.674	26.11
344.886	-78.33
345.099	11.78
345.311	-6.66
345.523	34.3
345.735	28.16
345.947	44.54
346.159	-8.7
346.371	67.07
346.583	7.68
346.795	13.82
347.007	28.16
347.219	40.45
347.431	9.73
347.643	26.11
347.855	65.02
348.067	34.3
348.279	5.63
348.491	-29.18
348.703	32.26
348.915	19.97
349.127	-6.66
349.339	7.68
349.551	87.55
349.763	19.97
349.975	-2.56
350.187	91.65
350.399	69.12
350.61	7.68
350.822	-94.72
351.034	34.3
351.246	52.74
351.458	24.06
351.669	28.16
351.881	-33.28
352.093	13.82
352.305	-10.75
352.517	-35.33
352.728	28.16
352.94	34.3
353.152	-0.51
353.363	-35.33
353.575	116.22
353.787	15.87
353.999	-0.51
354.21	1.54
354.422	24.06
354.633	3.58
354.845	101.89
355.057	69.12
355.268	-10.75
355.48	-16.9
355.692	38.4
355.903	3.58
356.115	-51.71
356.326	36.35
356.538	-10.75
356.749	-18.94
356.961	-49.66
357.172	-43.52
357.384	42.5
357.595	52.74
357.807	7.68
358.018	91.65
358.23	-6.66
358.441	48.64
358.653	83.45
358.864	-8.7
359.075	48.64
359.287	-23.04
359.498	67.07
359.709	36.35
359.921	-43.52
360.132	58.88
360.344	11.78
360.555	-2.56
360.766	17.92
360.977	54.78
361.189	-10.75
361.4	-37.38
361.611	112.13
361.823	-39.42
362.034	-43.52
362.245	-33.28
362.456	5.63
362.667	-20.99
362.879	15.87
363.09	-0.51
363.301	34.3
363.512	77.31
363.723	11.78
363.935	-37.38
364.146	-16.9
364.357	-35.33
364.568	7.68
364.779	79.36
364.99	32.26
365.201	-51.71
365.412	-33.28
365.623	-10.75
365.834	24.06
366.045	40.45
366.256	36.35
366.467	-35.33
366.678	30.21
366.889	-25.09
367.1	38.4
367.311	79.36
367.522	-4.61
367.733	30.21
367.944	44.54
368.155	-39.42
368.366	28.16
368.577	99.84
368.788	-41.47
368.999	19.97
369.209	-6.66
369.42	103.93
369.631	142.85
369.842	1.54
370.053	83.45
370.264	36.35
370.474	40.45
370.685	-2.56
370.896	138.75
371.107	50.69
371.317	48.64
371.528	-23.04
371.739	34.3
371.95	30.21
372.16	-51.71
372.371	30.21
372.582	-37.38
372.792	-18.94
373.003	24.06
373.214	-2.56
373.424	54.78
373.635	32.26
373.846	46.59
374.056	44.54
374.267	56.83
374.477	-27.14
374.688	13.82
374.898	-80.38
375.109	62.98
375.319	7.68
375.53	69.12
375.74	-10.75
375.951	60.93
376.161	40.45
376.372	26.11
376.582	9.73
376.793	77.31
377.003	28.16
377.214	48.64
377.424	-12.8
377.635	5.63
377.845	11.78
378.055	83.45
378.266	1.54
378.476	40.45
378.686	15.87
378.897	67.07
379.107	56.83
379.317	1.54
379.528	56.83
379.738	-10.75
379.948	5.63
380.158	75.26
380.369	118.27
380.579	40.45
380.789	-23.04
380.999	75.26
381.21	50.69
381.42	93.69
381.63	-16.9
381.84	-6.66
382.05	40.45
382.261	30.21
382.471	77.31
382.681	7.68
382.891	-6.66
383.101	54.78
383.311	24.06
383.521	-39.42
383.731	13.82
383.941	17.92
384.151	30.21
384.361	60.93
384.571	-18.94
384.781	-10.75
384.991	-12.8
385.201	32.26
385.411	85.5
385.621	-2.56
385.831	67.07
386.041	11.78
386.251	-16.9
386.461	-20.99
386.671	32.26
386.881	1.54
387.091	-12.8
387.301	-10.75
387.511	13.82
387.72	60.93
387.93	-43.52
388.14	11.78
388.35	67.07
388.56	44.54
388.769	38.4
388.979	110.08
389.189	17.92
389.399	-12.8
389.609	22.02
389.818	32.26
390.028	19.97
390.238	89.6
390.447	19.97
390.657	44.54
390.867	34.3
391.076	40.45
391.286	69.12
391.496	48.64
391.705	38.4
391.915	67.07
392.125	48.64
392.334	-6.66
392.544	19.97
392.753	19.97
392.963	22.02
393.172	62.98
393.382	5.63
393.591	52.74
393.801	32.26
394.01	50.69
394.22	108.03
394.429	26.11
394.639	56.83
394.848	99.84
395.058	44.54
395.267	48.64
395.477	77.31
395.686	116.22
395.895	126.46
396.105	93.69
396.314	54.78
396.524	28.16
396.733	42.5
396.942	73.21
397.152	24.06
397.361	95.74
397.57	34.3
397.78	15.87
397.989	99.84
398.198	97.79
398.407	58.88
398.617	97.79
398.826	116.22
399.035	69.12
399.244	136.7
399.453	38.4
399.663	67.07
399.872	67.07
400.081	30.21
400.29	118.27
400.499	99.84
400.708	91.65
400.917	50.69
401.127	122.37
401.336	103.93
401.545	163.33
401.754	118.27
401.963	140.8
402.172	110.08
402.381	79.36
402.59	95.74
402.799	101.89
403.008	93.69
403.217	89.6
403.426	62.98
403.635	34.3
403.844	91.65
404.053	95.74
404.262	83.45
404.471	165.37
404.68	99.84
404.888	136.7
405.097	99.84
405.306	101.89
405.515	124.41
405.724	126.46
405.933	136.7
406.142	128.51
406.35	153.09
406.559	60.93
406.768	128.51
406.977	138.75
407.185	192
407.394	136.7
407.603	122.37
407.812	77.31
408.02	146.94
408.229	146.94
408.438	222.72
408.646	241.15
408.855	167.42
409.064	185.85
409.272	185.85
409.481	222.72
409.69	171.52
409.898	155.13
410.107	241.15
410.315	196.09
410.524	198.14
410.733	257.53
410.941	214.52
411.15	273.92
411.358	249.34
411.567	361.98
411.775	267.77
411.984	316.92
412.192	386.55
412.401	329.21
412.609	400.89
412.818	345.59
413.026	343.55
413.234	331.26
413.443	454.14
413.651	441.85
413.86	491
414.068	398.84
414.276	509.43
414.485	454.14
414.693	548.34
414.901	542.2
415.11	538.1
415.318	572.92
415.526	591.35
415.734	703.99
415.943	599.54
416.151	648.69
416.359	687.61
416.567	699.89
416.776	722.42
416.984	777.72
417.192	802.29
417.4	884.21
417.608	779.76
417.817	824.82
418.025	855.54
418.233	906.74
418.441	974.32
418.649	900.59
418.857	1033.71
419.065	1117.68
419.273	1015.28
419.481	1072.62
419.689	1218.03
419.897	1258.99
420.105	1226.22
420.313	1281.52
420.521	1297.9
420.729	1416.68
420.937	1400.3
421.145	1322.48
421.353	1480.17
421.561	1541.61
421.769	1545.7
421.977	1697.25
422.185	1691.11
422.393	1740.26
422.601	1885.67
422.809	1916.39
423.017	1971.68
423.224	1959.39
423.432	2090.46
423.64	1914.34
423.848	2168.29
424.056	2323.93
424.263	2424.28
424.471	2399.71
424.679	2450.91
424.887	2635.22
425.094	2528.73
425.302	2704.85
425.51	2764.25
425.718	2713.05
425.925	2893.27
426.133	2995.67
426.341	3145.17
426.548	3257.81
426.756	3304.91
426.964	3431.88
427.171	3456.46
427.379	3665.35
427.586	3587.53
427.794	3751.37
428.001	4013.51
428.209	3962.31
428.417	4160.96
428.624	4472.25
428.832	4378.05
429.039	4312.51
429.247	4287.93
429.454	4830.65
429.662	5060.02
429.869	4756.92
430.076	5133.75
430.284	4818.36
430.491	5230
430.699	5356.97
430.906	5549.48
431.114	5369.26
431.321	5871.01
431.528	5682.6
431.736	6165.92
431.943	6741.4
432.15	6157.73
432.358	6514.08
432.565	6940.05
432.772	6712.73
432.979	7118.23
433.187	7243.15
433.394	7187.86
433.601	7730.57
433.808	7855.5
434.016	7656.84
434.223	8144.26
434.43	8539.52
434.637	8263.04
434.844	8899.96
435.052	9145.72
435.259	9010.55
435.466	9129.33
435.673	9071.99
435.88	9655.66
436.087	10048.87
436.294	10091.88
436.501	9735.53
436.708	10052.97
436.915	10534.24
437.122	11031.9
437.329	10843.48
437.537	11230.55
437.743	11445.59
437.95	11294.04
438.157	11926.86
438.364	12338.5
438.571	12281.16
438.778	12412.23
438.985	13571.38
439.192	12975.42
439.399	13511.99
439.606	13030.71
439.813	14026.03
440.02	14871.84
440.227	14439.72
440.433	14265.64
440.64	14892.32
440.847	14535.97
441.054	14929.18
441.261	15918.35
441.467	15924.49
441.674	16104.71
441.881	16743.68
442.088	16823.55
442.294	16604.42
442.501	17026.3
442.708	17335.54
442.914	18085.1
443.121	18719.97
443.328	18511.08
443.534	19657.94
443.741	19082.46
443.948	18943.2
444.154	20296.91
444.361	20194.51
444.568	20106.45
444.774	20049.1
444.981	20397.26
445.187	21028.03
445.394	21879.99
445.6	21636.28
445.807	23542.94
446.013	22660.26
446.22	23272.6
446.426	24081.55
446.633	24261.77
446.839	25349.25
447.046	24003.73
447.252	25607.29
447.459	25476.22
447.665	25535.61
447.871	26483.82
448.078	27446.37
448.284	26467.44
448.491	27157.6
448.697	28181.59
448.903	28550.22
449.11	28673.1
449.316	28019.8
449.522	28683.34
449.728	29318.21
449.935	29803.58
450.141	29383.74
450.347	30245.94
450.553	29172.8
450.76	29662.27
450.966	30766.12
451.172	30424.11
451.378	30727.21
451.584	30360.62
451.791	31026.21
451.997	30923.82
452.203	31525.92
452.409	31513.63
452.615	31151.14
452.821	30313.52
453.027	29926.46
453.233	31237.16
453.44	29848.63
453.646	30426.16
453.852	30446.64
454.058	30977.06
454.264	30047.29
454.47	30778.41
454.676	29559.87
454.882	30739.5
455.088	28357.71
455.294	28253.26
455.5	28585.04
455.705	28947.53
455.911	28034.13
456.117	27057.25
456.323	26887.27
456.529	25885.81
456.735	26700.9
456.941	25969.78
457.147	25732.22
457.352	24624.26
457.558	24167.57
457.764	24239.25
457.97	24005.78
458.176	23334.04
458.381	23467.16
458.587	22125.74
458.793	22371.5
458.999	21173.44
459.204	22727.85
459.41	21423.29
459.616	20430.02
459.821	20384.97
460.027	20384.97
460.233	20073.68
460.438	19121.37
460.644	19254.49
460.85	18167.02
461.055	17939.69
461.261	17695.99
461.466	16393.48
461.672	16006.41
461.878	17054.97
462.083	16248.07
462.289	15815.95
462.494	15789.33
462.7	15056.15
462.905	14753.05
463.111	15158.55
463.316	14978.33
463.522	14990.62
463.727	14691.62
463.932	14972.19
464.138	14558.5
464.343	14574.88
464.549	14382.37
464.754	14855.45
464.959	14664.99
465.165	14404.9
465.37	13729.07
465.575	13372.72
465.781	13966.63
465.986	14171.43
466.191	13471.03
466.397	13417.78
466.602	12649.79
466.807	12993.85
467.012	13151.54
467.218	13081.91
467.423	12944.7
467.628	12975.42
467.833	13782.32
468.038	13120.82
468.244	12657.98
468.449	12969.27
468.654	12602.69
468.859	12660.03
469.064	12569.92
469.269	12016.97
469.474	12170.57
469.679	12508.48
469.885	12014.92
470.09	12180.81
470.295	12102.98
470.5	11787.6
470.705	12070.22
470.91	11634
471.115	11496.78
471.32	11699.53
471.525	11590.99
471.73	11384.15
471.935	11529.55
472.139	10728.8
472.344	10968.41
472.549	10949.98
472.754	11083.09
472.959	10691.93
473.164	10485.09
473.369	10153.32
473.574	10669.41
473.778	10573.15
473.983	10411.36
474.188	10337.63
474.393	9856.36
474.598	9973.1
474.802	9792.87
475.007	9807.21
475.212	9923.94
475.417	9405.81
475.621	9368.95
475.826	9600.37
476.031	9334.13
476.235	9162.1
476.44	9088.37
476.645	9086.33
476.849	8920.44
477.054	8977.78
477.259	8734.07
477.463	8719.74
477.668	8521.09
477.872	8748.41
478.077	8457.6
478.282	8228.23
478.486	8142.21
478.691	8220.03
478.895	8136.07
479.1	8246.66
479.304	8109.44
479.509	7904.65
479.713	8215.94
479.918	7847.3
480.122	7691.66
480.326	7779.72
480.531	8013.19
480.735	7880.07
480.94	7710.09
481.144	8217.99
481.348	7558.54
481.553	7636.36
481.757	7431.57
481.961	7773.58
482.166	7837.06
482.37	7648.65
482.574	7548.3
482.778	7527.82
482.983	7675.27
483.187	7769.48
483.391	7558.54
483.595	7429.52
483.8	7619.98
484.004	7669.13
484.208	7619.98
484.412	7808.39
484.616	7613.84
484.821	7542.16
485.025	7493.01
485.229	7566.73
485.433	7505.29
485.637	7499.15
485.841	7337.36
486.045	7509.39
486.249	7415.18
486.453	7488.91
486.657	7513.49
486.861	7450
487.065	7394.7
487.269	7488.91
487.473	7466.38
487.677	7761.29
487.881	7550.35
488.085	7431.57
488.289	7439.76
488.493	7554.44
488.697	7617.93
488.901	7579.02
489.105	7626.12
489.309	7724.43
489.512	7619.98
489.716	7789.96
489.92	7605.64
490.124	7648.65
490.328	7759.24
490.531	7558.54
490.735	7703.95
490.939	7640.46
491.143	7497.1
491.346	7779.72
491.55	7949.7
491.754	7849.35
491.958	7904.65
492.161	7841.16
492.365	7939.46
492.569	7947.65
492.772	7904.65
492.976	8043.91
493.18	7947.65
493.383	8076.68
493.587	8076.68
493.79	8433.02
493.994	8258.95
494.197	8215.94
494.401	8306.05
494.605	8361.34
494.808	8351.1
495.012	8355.2
495.215	8486.27
495.419	8594.81
495.622	8496.51
495.825	8639.87
496.029	8846.71
496.232	8912.25
496.436	8777.08
496.639	9033.08
496.843	9057.65
497.046	9235.83
497.249	9362.8
497.453	9295.22
497.656	9475.44
497.859	9528.69
498.063	9555.31
498.266	10061.16
498.469	9833.83
498.673	9743.72
498.876	9925.99
499.079	10257.76
499.282	10026.34
499.485	10173.8
499.689	10458.46
499.892	10683.74
500.095	10632.54
500.298	10816.86
500.501	10868.06
500.705	10927.45
500.908	11111.77
501.111	11089.24
501.314	11222.36
501.517	11214.16
501.72	11566.42
501.923	11568.46
502.126	11765.07
502.329	12025.16
502.532	11941.19
502.735	12000.58
502.938	12244.29
503.141	12248.39
503.344	12621.12
503.547	12559.68
503.75	12815.68
503.953	12942.65
504.156	13043
504.359	13344.05
504.562	13014.33
504.765	13475.12
504.968	13575.47
505.17	14028.07
505.373	13503.79
505.576	13927.72
505.779	14243.11
505.982	14298.41
506.185	14542.11
506.387	14695.71
506.59	14689.57
506.793	15119.64
506.996	14724.38
507.198	15349.01
507.401	15371.54
507.604	15475.99
507.807	15619.35
508.009	15797.52
508.212	15820.05
508.415	16100.62
508.617	16346.37
508.82	16325.89
509.022	16241.93
509.225	16612.61
509.428	16948.48
509.63	16958.72
509.833	16952.57
510.035	17446.13
510.238	17120.51
510.44	17437.94
510.643	17937.65
510.845	18189.55
511.048	17720.56
511.25	18480.36
511.453	18291.94
511.655	19066.08
511.858	18597.09
512.06	18668.77
512.262	19174.62
512.465	19270.87
512.667	19234.01
512.87	19367.13
513.072	19633.36
513.274	19856.59
513.477	20124.88
513.679	20255.95
513.881	20540.61
514.084	20491.46
514.286	20499.66
514.488	20483.27
514.69	21212.35
514.893	21562.55
515.095	21423.29
515.297	21419.19
515.499	21839.03
515.701	22021.3
515.904	22574.25
516.106	22492.33
516.308	22553.77
516.51	22971.55
516.712	22727.85
516.914	22764.71
517.116	23301.28
517.318	23327.9
517.52	23563.42
517.722	23520.41
517.925	23882.9
518.127	24315.02
518.329	24241.29
518.531	24153.23
518.733	24607.88
518.935	24888.45
519.136	24673.42
519.338	25300.09
519.54	25017.47
519.742	25392.25
519.944	25545.85
520.146	25975.92
520.348	26186.86
520.55	25967.73
520.752	25922.68
520.954	26838.12
521.155	26614.89
521.357	26979.43
521.559	27280.48
521.761	27176.03
521.963	27069.54
522.164	27485.28
522.366	27606.11
522.568	27804.76
522.77	28013.65
522.971	27903.06
523.173	28179.54
523.375	28341.33
523.576	28345.42
523.778	28486.73
523.98	28859.46
524.181	28791.88
524.383	28957.77
524.584	29146.18
524.786	29187.14
524.988	29183.04
525.189	29594.68
525.391	29813.82
525.592	29664.32
525.794	30264.37
525.995	29815.87
526.197	30174.26
526.398	30028.85
526.6	30106.68
526.801	30268.47
527.003	30362.67
527.204	30483.5
527.406	30741.55
527.607	30684.2
527.808	30741.55
528.01	30458.93
528.211	31142.95
528.412	31411.23
528.614	31376.42
528.815	31101.99
529.016	31353.89
529.218	30997.54
529.419	31239.2
529.62	31697.95
529.822	31431.71
530.023	31464.48
530.224	31335.46
530.425	31380.51
530.626	30999.59
530.828	31128.61
531.029	31898.65
531.23	31550.49
531.431	31491.1
531.632	31769.63
531.833	32197.65
532.035	32013.34
532.236	31915.03
532.437	31898.65
532.638	31712.28
532.839	31886.36
533.04	32105.49
533.241	31685.66
533.442	32048.15
533.643	32302.1
533.844	31747.1
534.045	31933.46
534.246	31710.24
534.447	31992.86
534.648	31771.68
534.849	32289.81
535.05	31620.13
535.251	31935.51
535.451	32154.65
535.652	32048.15
535.853	31915.03
536.054	31902.75
536.255	32140.31
536.456	31857.69
536.657	32001.05
536.857	32027.67
537.058	31702.04
537.259	32101.4
537.46	32234.52
537.66	31947.8
537.861	31888.41
538.062	31796.25
538.263	31818.78
538.463	31992.86
538.664	31898.65
538.865	31808.54
539.065	31931.42
539.266	31599.65
539.466	31824.92
539.667	31296.55
539.868	32226.32
540.068	31747.1
540.269	31437.86
540.469	32072.73
540.67	31570.97
540.87	31849.5
541.071	31857.69
541.271	31902.75
541.472	31700
541.672	31597.6
541.873	31833.11
542.073	31566.88
542.274	32025.62
542.474	31749.15
542.675	31372.32
542.875	31937.56
543.075	31814.68
543.276	31290.4
543.476	31577.12
543.676	31433.76
543.877	31710.24
544.077	31570.97
544.277	31536.16
544.478	31263.78
544.678	31341.6
544.878	31579.17
545.078	31499.3
545.279	31181.86
545.479	31349.79
545.679	31568.93
545.879	31370.27
546.079	31208.48
546.28	31521.82
546.48	31239.2
546.68	31673.37
546.88	31147.04
547.08	31304.74
547.28	31165.48
547.48	31093.8
547.68	31411.23
547.88	30940.2
548.081	31190.05
548.281	30993.45
548.481	30641.2
548.681	31396.9
548.881	31009.83
549.081	31151.14
549.28	31235.11
549.48	31329.31
549.68	31101.99
549.88	31441.95
550.08	31001.64
550.28	31220.77
550.48	30866.47
550.68	30966.82
550.88	31005.73
551.08	31095.85
551.279	31366.18
551.479	30706.73
551.679	30641.2
551.879	30811.18
552.079	31179.81
552.278	30905.38
552.478	30862.38
552.678	31136.8
552.878	31095.85
553.077	30809.13
553.277	30788.65
553.477	31079.46
553.676	30831.66
553.876	30755.88
554.076	30788.65
554.275	30903.34
554.475	30303.28
554.674	30522.41
554.874	30880.81
555.074	30645.29
555.273	30719.02
555.473	30702.64
555.672	30241.84
555.872	30618.67
556.071	30653.48
556.271	30653.48
556.47	30524.46
556.67	29961.27
556.869	30198.84
557.068	30587.95
557.268	30587.95
557.467	30493.74
557.667	30503.98
557.866	30409.78
558.065	30426.16
558.265	30473.26
558.464	30186.55
558.663	30329.91
558.863	29750.33
559.062	30485.55
559.261	30137.4
559.461	30118.96
559.66	29592.64
559.859	30004.28
560.058	29527.1
560.258	29840.44
560.457	29561.92
560.656	30067.77
560.855	29572.16
561.054	30032.95
561.253	29670.46
561.453	29817.91
561.652	29699.13
561.851	29824.06
562.05	29629.5
562.249	29299.78
562.448	29664.32
562.647	29588.54
562.846	29338.69
563.045	29412.42
563.244	29209.67
563.443	29701.18
563.642	29328.45
563.841	29322.3
564.04	29211.71
564.239	29488.19
564.438	28789.83
564.637	29086.79
564.836	29410.37
565.035	28775.5
565.234	29123.65
565.432	28732.49
565.631	28726.35
565.83	28787.78
566.029	28042.32
566.228	28623.95
566.427	28769.35
566.625	28634.19
566.824	28505.17
567.023	28744.78
567.222	27800.66
567.42	28658.76
567.619	28548.17
567.818	28294.22
568.016	28386.38
568.215	28271.7
568.414	28263.5
568.612	28693.58
568.811	28208.21
569.01	28173.39
569.208	27880.53
569.407	28163.15
569.605	27522.14
569.804	28097.62
570.002	27771.99
570.201	27747.42
570.4	27606.11
570.598	27774.04
570.797	27008.1
570.995	27333.73
571.193	27372.64
571.392	27702.36
571.59	27063.4
571.789	27167.84
571.987	27200.61
572.186	27018.34
572.384	27079.78
572.582	27094.11
572.781	26848.36
572.979	26389.61
573.177	26983.52
573.376	27053.16
573.574	26451.05
573.772	26668.14
573.971	26477.68
574.169	26311.79
574.367	26059.89
574.565	26604.65
574.763	26412.14
574.962	26150
575.16	26035.31
575.358	26174.58
575.556	25803.89
575.754	26205.3
575.952	25887.86
576.151	26256.5
576.349	25963.64
576.547	25707.64
576.745	25758.84
576.943	25779.32
577.141	25371.77
577.339	25580.67
577.537	25683.06
577.735	25635.96
577.933	25097.35
578.131	25613.43
578.329	24953.99
578.527	25033.86
578.725	25218.18
578.923	25017.47
579.121	25197.7
579.319	24792.2
579.516	25310.33
579.714	24933.51
579.912	24784.01
580.11	24796.29
580.308	24800.39
580.506	24620.17
580.704	24200.33
580.901	24562.83
581.099	24530.06
581.297	24134.8
581.495	24335.5
581.692	24249.49
581.89	24059.02
582.088	24155.28
582.285	24132.75
582.483	24175.76
582.681	24151.18
582.878	23950.48
583.076	23723.16
583.274	23889.04
583.471	23749.78
583.669	23835.8
583.866	23366.81
584.064	23676.05
584.262	23338.14
584.459	23518.36
584.657	23354.52
584.854	23415.96
585.052	22787.24
585.249	23135.39
585.447	23303.32
585.644	22969.51
585.841	23051.42
586.039	23317.66
586.236	23026.85
586.434	22910.11
586.631	22703.27
586.828	22957.22
587.026	22940.83
587.223	22541.48
587.42	22516.9
587.618	22725.8
587.815	22484.14
588.012	22267.05
588.21	22244.52
588.407	22711.46
588.604	22207.66
588.801	22174.89
588.999	22072.5
589.196	21988.53
589.393	22123.69
589.59	22146.22
589.787	22035.63
589.984	21685.43
590.182	21757.11
590.379	22025.39
590.576	21454.01
590.773	21454.01
590.97	21347.51
591.167	21429.43
591.364	21040.32
591.561	21277.88
591.758	21136.57
591.955	21011.65
592.152	21398.71
592.349	21099.71
592.546	20843.71
592.743	21177.53
592.94	20540.61
593.137	21109.95
593.334	20980.93
593.531	20491.46
593.727	20794.56
593.924	20507.85
594.121	20536.52
594.318	20739.27
594.515	20323.53
594.712	20253.9
594.908	20128.97
595.105	20649.16
595.302	20067.53
595.499	20364.49
595.696	20243.66
595.892	20079.82
596.089	20071.63
596.286	19963.09
596.482	19903.7
596.679	20006.09
596.876	19860.69
597.072	19856.59
597.269	19645.65
597.466	19217.63
597.662	19401.94
597.859	19637.46
598.055	19465.43
598.252	19332.31
598.448	19326.17
598.645	19223.77
598.841	18812.13
599.038	19592.41
599.234	18982.11
599.431	18861.28
599.627	18889.95
599.824	19057.89
600.02	18697.44
600.217	18896.1
600.413	18885.86
600.609	18846.94
600.806	18418.92
601.002	18611.43
601.198	18402.54
601.395	18595.04
601.591	18427.11
601.787	18109.68
601.984	17978.61
602.18	18310.38
602.376	18140.4
602.572	18027.76
602.769	18310.38
602.965	18042.09
603.161	17896.69
603.357	17976.56
603.553	17835.25
603.75	17927.41
603.946	17855.73
604.142	17663.22
604.338	17349.88
604.534	17935.6
604.73	17353.98
604.926	17786.1
605.122	17638.64
605.318	17544.44
605.514	17181.95
605.71	17128.7
605.906	17081.6
606.102	17552.63
606.298	17126.65
606.494	16966.91
606.69	16944.38
606.886	17048.83
607.082	16776.45
607.278	17118.46
607.474	16833.79
607.67	16915.71
607.866	16577.8
608.062	16784.64
608.257	16786.69
608.453	16694.53
608.649	16809.22
608.845	16649.47
609.041	16590.08
609.236	16866.56
609.432	16680.19
609.628	16577.8
609.824	16479.49
610.019	16395.53
610.215	16411.91
610.411	16481.54
610.606	16286.98
610.802	16278.79
610.998	16403.72
611.193	16284.94
611.389	16217.35
611.584	16436.49
611.78	16151.82
611.976	16026.89
612.171	16160.01
612.367	16250.12
612.562	15768.85
612.758	15613.2
612.953	15906.06
613.149	16035.08
613.344	15596.82
613.539	16203.02
613.735	15826.19
613.93	15803.66
614.126	15539.47
614.321	15674.64
614.517	15848.72
614.712	15641.87
614.907	15445.27
615.103	15686.93
615.298	15641.87
615.493	15666.45
615.688	15496.47
615.884	15723.79
616.079	15273.24
616.274	15658.26
616.47	15564.05
616.665	15373.59
616.86	15306.01
617.055	15293.72
617.25	15246.62
617.445	15607.06
617.641	15002.91
617.836	15250.71
618.031	15068.44
618.226	15217.94
618.421	14761.25
618.616	15142.17
618.811	14947.61
619.006	15027.48
619.201	14658.85
619.396	15072.54
619.591	14556.45
619.786	14730.53
619.981	14433.57
620.176	14572.83
620.371	14470.44
620.566	14443.81
620.761	14472.48
620.956	14204.2
621.151	14071.08
621.346	14208.3
621.541	13974.83
621.735	14099.75
621.93	13684.02
622.125	13835.56
622.32	13761.84
622.515	13954.35
622.709	13559.09
622.904	13606.19
623.099	13546.8
623.294	13579.57
623.488	13325.62
623.683	13380.92
623.878	13233.46
624.072	13190.45
624.267	13090.1
624.462	13002.04
624.656	13075.77
624.851	13069.62
625.046	12836.16
625.24	12459.33
625.435	12678.46
625.629	12645.7
625.824	12453.19
626.018	12842.3
626.213	12299.59
626.407	12565.82
626.602	12170.57
626.796	12506.43
626.991	12131.65
627.185	12094.79
627.38	12176.71
627.574	12082.5
627.768	11693.39
627.963	11916.62
628.157	11550.03
628.352	11871.56
628.546	11511.12
628.74	11734.35
628.935	11474.26
629.129	11664.72
629.323	11494.74
629.517	11388.24
629.712	11314.52
629.906	11498.83
630.1	11203.93
630.294	11296.08
630.489	11013.46
630.683	11296.08
630.877	10892.63
631.071	10833.24
631.265	10939.74
631.459	10628.45
631.653	10859.87
631.848	10835.29
632.042	10765.66
632.236	10765.66
632.43	10413.41
632.624	10452.32
632.818	10394.98
633.012	10386.79
633.206	10214.76
633.4	10136.93
633.594	10120.55
633.788	10239.33
633.982	9993.58
634.176	10040.68
634.369	9915.75
634.563	10040.68
634.757	9952.62
634.951	9897.32
635.145	9715.05
635.339	9764.2
635.533	9563.5
635.726	9815.4
635.92	9446.77
636.114	9745.77
636.308	9659.76
636.501	9616.75
636.695	9182.58
636.889	9407.86
637.083	9055.61
637.276	9282.93
637.47	9102.71
637.664	9094.52
637.857	9250.16
638.051	8924.54
638.244	8711.55
638.438	8936.82
638.632	8914.3
638.825	8861.05
639.019	8854.9
639.212	8547.71
639.406	8748.41
639.599	8746.36
639.793	8646.01
639.986	8478.08
640.18	8582.53
640.373	8629.63
640.567	8301.95
640.76	8553.85
640.954	8324.48
641.147	8404.35
641.34	8185.22
641.534	8158.6
641.727	8181.12
641.92	8093.06
642.114	8138.12
642.307	8084.87
642.5	8029.57
642.694	7867.78
642.887	7789.96
643.08	7949.7
643.273	7902.6
643.467	7822.73
643.66	7681.42
643.853	7587.21
644.046	7718.28
644.239	7499.15
644.432	7605.64
644.626	7456.14
644.819	7462.29
645.012	7589.26
645.205	7447.95
645.398	7347.6
645.591	7357.84
645.784	7314.83
645.977	7085.46
646.17	7314.83
646.363	7128.47
646.556	7077.27
646.749	7265.68
646.942	7036.31
647.135	7007.64
647.328	7103.89
647.521	6921.62
647.714	6948.25
647.907	6938.01
648.099	6858.14
648.292	6991.25
648.485	6722.97
648.678	6712.73
648.871	6866.33
649.064	6563.23
649.256	6684.06
649.449	6555.04
649.642	6628.76
649.835	6368.67
650.027	6446.49
650.22	6487.45
650.413	6532.51
650.605	6344.1
650.798	6333.86
650.991	6329.76
651.183	6462.88
651.376	6221.22
651.568	6264.22
651.761	6145.44
651.954	6296.99
652.146	6133.15
652.339	6153.63
652.531	5981.6
652.724	5957.03
652.916	5907.88
653.109	5950.89
653.301	5916.07
653.494	5815.72
653.686	5838.25
653.879	5815.72
654.071	5840.29
654.263	5666.22
654.456	5727.66
654.648	5707.18
654.84	5639.59
655.033	5578.15
655.225	5676.46
655.417	5641.64
655.61	5674.41
655.802	5518.76
655.994	5463.47
656.186	5584.3
656.379	5424.56
656.571	5301.68
656.763	5283.25
656.955	5330.35
657.148	5346.73
657.34	5236.14
657.532	5234.1
657.724	5389.74
657.916	5354.93
658.108	5305.78
658.3	5039.54
658.492	5184.94
658.684	5193.14
658.876	4996.53
659.068	5064.11
659.26	5105.07
659.452	4920.76
659.644	5078.45
659.836	4767.16
660.028	4949.43
660.22	4953.52
660.412	4863.41
660.604	4761.02
660.796	4650.43
660.988	4767.16
661.18	4785.59
661.372	4709.82
661.563	4679.1
661.755	4656.57
661.947	4765.11
662.139	4660.66
662.331	4775.35
662.522	4527.55
662.714	4623.8
662.906	4490.68
663.097	4517.31
663.289	4584.89
663.481	4496.83
663.673	4423.1
663.864	4347.33
664.056	4429.24
664.247	4455.87
664.439	4324.8
664.631	4437.44
664.822	4443.58
665.014	4322.75
665.205	4294.08
665.397	4165.06
665.588	4244.93
665.78	4255.17
665.971	4216.26
666.163	4220.35
666.354	4081.09
666.546	4122.05
666.737	4095.43
666.929	4081.09
667.12	4019.65
667.311	4058.56
667.503	4193.73
667.694	4128.19
667.885	4105.67
668.077	3900.87
668.268	4005.31
668.459	3892.68
668.651	3923.4
668.842	3913.16
669.033	3907.01
669.224	3952.07
669.416	3864.01
669.607	3907.01
669.798	3784.13
669.989	3884.48
670.18	3765.7
670.371	3767.75
670.563	3714.5
670.754	3800.52
670.945	3782.09
671.136	3835.33
671.327	3591.63
671.518	3673.54
671.709	3655.11
671.9	3804.61
672.091	3618.25
672.282	3599.82
672.473	3517.9
672.664	3583.43
672.855	3524.04
673.046	3663.3
673.237	3589.58
673.428	3653.06
673.619	3448.27
673.809	3472.84
674	3499.47
674.191	3511.75
674.382	3405.26
674.573	3501.51
674.764	3409.36
674.954	3493.32
675.145	3382.73
675.336	3577.29
675.527	3427.79
675.717	3409.36
675.908	3372.49
676.099	3419.6
676.289	3497.42
676.48	3206.61
676.671	3263.95
676.861	3306.96
677.052	3284.43
677.243	3306.96
677.433	3184.08
677.624	3212.75
677.814	3231.18
678.005	3165.65
678.195	3280.33
678.386	3255.76
678.576	3270.09
678.767	3235.28
678.957	3268.05
679.148	3286.48
679.338	3184.08
679.529	3179.98
679.719	3120.59
679.909	3122.64
680.1	3110.35
680.29	3288.53
680.481	3179.98
680.671	3151.31
680.861	3136.98
681.052	3159.5
681.242	3179.98
681.432	3188.18
681.622	3102.16
681.813	3069.39
682.003	2985.43
682.193	3104.21
682.383	3122.64
682.573	3044.82
682.764	3036.63
682.954	3042.77
683.144	2926.04
683.334	2956.75
683.524	3061.2
683.714	2981.33
683.904	2930.13
684.094	2956.75
684.284	2921.94
684.474	3044.82
684.664	3040.72
684.854	2850.26
685.044	2932.18
685.234	2917.84
685.424	2897.36
685.614	2829.78
685.804	2835.92
685.994	2938.32
686.184	2919.89
686.374	2862.55
686.564	2860.5
686.753	2962.9
686.943	2760.15
687.133	2897.36
687.323	2883.03
687.513	2678.23
687.702	2686.42
687.892	2737.62
688.082	2702.81
688.272	2749.91
688.461	2680.28
688.651	2844.12
688.841	2674.14
689.03	2700.76
689.22	2661.85
689.41	2616.79
689.599	2653.66
689.789	2627.03
689.979	2661.85
690.168	2667.99
690.358	2555.35
690.547	2651.61
690.737	2528.73
690.926	2508.25
691.116	2635.22
691.305	2663.9
691.495	2549.21
691.684	2483.67
691.874	2495.96
692.063	2368.99
692.252	2510.3
692.442	2526.68
692.631	2508.25
692.82	2395.61
693.01	2420.19
693.199	2520.54
693.388	2328.03
693.578	2463.19
693.767	2481.63
693.956	2362.84
694.146	2332.12
694.335	2379.23
694.524	2282.97
694.713	2426.33
694.902	2291.17
695.092	2338.27
695.281	2354.65
695.47	2393.56
695.659	2303.45
695.848	2309.6
696.037	2325.98
696.226	2250.21
696.415	2268.64
696.604	2242.01
696.793	2272.73
696.982	2213.34
697.171	2246.11
697.36	2280.93
697.549	2336.22
697.738	2188.77
697.927	2227.68
698.116	2272.73
698.305	2270.69
698.494	2184.67
698.683	2227.68
698.872	2199.01
699.061	2315.74
699.25	2242.01
699.438	2203.1
699.627	2180.57
699.816	2256.35
700.005	2190.81
700.193	2229.73
700.382	2231.77
700.571	2156
700.76	2235.87
700.948	2104.8
701.137	2219.49
701.326	2176.48
701.514	2217.44
701.703	2219.49
701.892	2186.72
702.08	2321.88
702.269	2076.13
702.457	2045.41
702.646	2225.63
702.834	2270.69
703.023	2223.58
703.212	2164.19
703.4	2209.25
703.589	2211.29
703.777	2217.44
703.965	2186.72
704.154	2217.44
704.342	2192.86
704.531	2096.61
704.719	2149.86
704.907	2211.29
705.096	2254.3
705.284	2199.01
705.472	2405.85
705.661	2217.44
705.849	2188.77
706.037	2235.87
706.226	2287.07
706.414	2280.93
706.602	2133.47
706.79	2231.77
706.979	2172.38
707.167	2233.82
707.355	2184.67
707.543	2272.73
707.731	2229.73
707.919	2100.7
708.107	2137.57
708.296	2178.53
708.484	2133.47
708.672	2196.96
708.86	2242.01
709.048	2258.4
709.236	2119.14
709.424	2215.39
709.612	2248.16
709.8	2121.18
709.988	2156
710.176	2266.59
710.364	2246.11
710.551	2221.53
710.739	2266.59
710.927	2291.17
711.115	2196.96
711.303	2268.64
711.491	2393.56
711.679	2239.97
711.866	2256.35
712.054	2205.15
712.242	2115.04
712.43	2373.08
712.617	2199.01
712.805	2106.85
712.993	2295.26
713.181	2207.2
713.368	2293.21
713.556	2223.58
713.744	2135.52
713.931	2297.31
714.119	2268.64
714.306	2194.91
714.494	2282.97
714.682	2131.42
714.869	2209.25
715.057	2233.82
715.244	2143.71
715.432	2184.67
715.619	2278.88
715.807	2211.29
715.994	2239.97
716.182	2242.01
716.369	2260.45
716.556	2254.3
716.744	2176.48
716.931	2156
717.119	2334.17
717.306	2196.96
717.493	2160.1
717.681	2307.55
717.868	2250.21
718.055	2235.87
718.242	2356.7
718.43	2270.69
718.617	2244.06
718.804	2223.58
718.991	2196.96
719.179	2233.82
719.366	2143.71
719.553	2221.53
719.74	2274.78
719.927	2319.84
720.114	2237.92
720.301	2151.9
720.488	2221.53
720.676	2229.73
720.863	2254.3
721.05	2192.86
721.237	2225.63
721.424	2199.01
721.611	2213.34
721.798	2225.63
721.985	2141.66
722.172	2133.47
722.358	2196.96
722.545	2182.62
722.732	2119.14
722.919	2319.84
723.106	2196.96
723.293	2160.1
723.48	2248.16
723.667	2166.24
723.853	2082.27
724.04	2156
724.227	2168.29
724.414	2244.06
724.6	2213.34
724.787	2164.19
724.974	2319.84
725.161	2196.96
725.347	2221.53
725.534	2217.44
725.72	2065.89
725.907	2389.47
726.094	2256.35
726.28	2176.48
726.467	2172.38
726.653	2235.87
726.84	2201.05
727.027	2213.34
727.213	2205.15
727.4	2074.08
727.586	2217.44
727.773	2166.24
727.959	2254.3
728.145	2145.76
728.332	2172.38
728.518	2213.34
728.705	2219.49
728.891	2168.29
729.077	2256.35
729.264	2235.87
729.45	2180.57
729.636	2184.67
729.823	2112.99
730.009	2106.85
730.195	2041.31
730.382	2000.35
730.568	2248.16
730.754	2141.66
730.94	2065.89
731.126	2123.23
731.313	2213.34
731.499	2153.95
731.685	2121.18
731.871	2057.7
732.057	2178.53
732.243	2190.81
732.429	2098.66
732.615	2235.87
732.801	2074.08
732.987	2196.96
733.173	2006.5
733.359	2016.74
733.545	2133.47
733.731	2090.46
733.917	2233.82
734.103	2094.56
734.289	2180.57
734.475	2203.1
734.661	2106.85
734.847	2108.9
735.033	2170.33
735.219	2129.38
735.404	2112.99
735.59	2020.83
735.776	2047.46
735.962	2196.96
736.148	2137.57
736.333	2078.18
736.519	2018.79
736.705	2006.5
736.89	2047.46
737.076	2090.46
737.262	1994.21
737.447	2063.84
737.633	2047.46
737.819	2000.35
738.004	1951.2
738.19	2008.55
738.375	1965.54
738.561	2186.72
738.747	2024.93
738.932	2096.61
739.118	2049.5
739.303	1916.39
739.489	1973.73
739.674	1955.3
739.859	2045.41
740.045	1930.72
740.23	1959.39
740.416	1799.65
740.601	1867.24
740.786	1983.97
740.972	2074.08
741.157	1947.11
741.342	1932.77
741.528	1932.77
741.713	1867.24
741.898	1973.73
742.084	1893.86
742.269	1824.23
742.454	1850.85
742.639	1920.48
742.824	1965.54
743.01	1885.67
743.195	1940.96
743.38	1861.09
743.565	1787.36
743.75	1830.37
743.935	1824.23
744.12	1813.99
744.305	1785.32
744.49	1727.97
744.675	1773.03
744.86	1805.8
745.045	1760.74
745.23	1795.56
745.415	1834.47
745.6	1807.84
745.785	1744.36
745.97	1826.28
746.155	1631.72
746.34	1770.98
746.525	1762.79
746.71	1699.3
746.895	1627.62
747.079	1682.92
747.264	1678.82
747.449	1680.87
747.634	1678.82
747.819	1664.49
748.003	1646.05
748.188	1664.49
748.373	1611.24
748.557	1594.86
748.742	1609.19
748.927	1519.08
749.111	1615.34
749.296	1680.87
749.481	1502.7
749.665	1541.61
749.85	1549.8
750.034	1601
750.219	1576.42
750.404	1574.38
750.588	1443.31
750.773	1416.68
750.957	1414.63
751.141	1435.11
751.326	1416.68
751.51	1353.2
751.695	1334.76
751.879	1447.4
752.064	1459.69
752.248	1369.58
752.432	1340.91
752.617	1336.81
752.801	1355.24
752.985	1279.47
753.17	1375.72
753.354	1357.29
753.538	1297.9
753.722	1314.28
753.907	1248.75
754.091	1271.28
754.275	1320.43
754.459	1213.93
754.643	1244.65
754.828	1324.52
755.012	1269.23
755.196	1279.47
755.38	1246.7
755.564	1177.07
755.748	1197.55
755.932	1197.55
756.116	1248.75
756.3	1172.97
756.484	1142.25
756.668	1191.41
756.852	1140.21
757.036	1093.1
757.22	1138.16
757.404	1181.17
757.588	1048.05
757.772	1160.69
757.956	1113.58
758.14	1150.45
758.323	1015.28
758.507	1162.73
758.691	1035.76
758.875	1097.2
759.059	1121.77
759.242	1109.49
759.426	1142.25
759.61	1062.38
759.794	1033.71
759.977	1076.72
760.161	1091.06
760.345	1054.19
760.528	941.55
760.712	1097.2
760.895	890.35
761.079	1021.42
761.263	994.8
761.446	951.79
761.63	968.18
761.813	988.66
761.997	968.18
762.18	1009.14
762.364	1025.52
762.547	898.55
762.731	847.35
762.914	955.89
763.098	1043.95
763.281	1025.52
763.464	925.17
763.648	882.16
763.831	968.18
764.015	1005.04
764.198	890.35
764.381	947.7
764.564	957.94
764.748	855.54
764.931	880.11
765.114	931.31
765.297	888.31
765.481	865.78
765.664	859.63
765.847	902.64
766.03	966.13
766.213	812.53
766.397	792.05
766.58	783.86
766.763	843.25
766.946	839.16
767.129	820.72
767.312	841.2
767.495	808.44
767.678	749.04
767.861	830.96
768.044	794.1
768.227	892.4
768.41	837.11
768.593	800.24
768.776	714.23
768.959	808.44
769.142	779.76
769.324	794.1
769.507	773.62
769.69	755.19
769.873	794.1
770.056	814.58
770.239	810.48
770.421	761.33
770.604	724.47
770.787	773.62
770.97	775.67
771.152	777.72
771.335	689.65
771.518	771.57
771.7	771.57
771.883	736.76
772.066	710.13
772.248	724.47
772.431	683.51
772.613	691.7
772.796	642.55
772.978	728.56
773.161	660.98
773.343	740.85
773.526	693.75
773.708	747
773.891	648.69
774.073	665.08
774.256	734.71
774.438	624.12
774.621	577.02
774.803	701.94
774.985	675.32
775.168	646.65
775.35	644.6
775.532	603.64
775.715	710.13
775.897	622.07
776.079	626.17
776.261	599.54
776.444	640.5
776.626	591.35
776.808	577.02
776.99	577.02
777.173	587.26
777.355	611.83
777.537	665.08
777.719	566.78
777.901	624.12
778.083	505.34
778.265	548.34
778.447	591.35
778.629	560.63
778.811	456.19
778.993	484.86
779.175	654.84
779.357	493.05
779.539	599.54
779.721	509.43
779.903	466.42
780.085	488.95
780.267	546.3
780.449	513.53
780.631	484.86
780.812	452.09
780.994	527.86
781.176	501.24
781.358	443.9
781.54	517.62
781.721	458.23
781.903	343.55
782.085	554.49
782.267	493.05
782.448	464.38
782.63	484.86
782.812	544.25
782.993	364.03
783.175	476.66
783.357	427.51
783.538	458.23
783.72	445.95
783.901	435.71
784.083	431.61
784.264	415.23
784.446	329.21
784.627	431.61
784.809	392.7
784.99	417.27
785.172	439.8
785.353	382.46
785.535	327.16
785.716	331.26
785.897	351.74
786.079	384.51
786.26	456.19
786.441	384.51
786.623	382.46
786.804	441.85
786.985	312.83
787.167	392.7
787.348	339.45
787.529	321.02
787.71	288.25
787.891	345.59
788.073	411.13
788.254	306.68
788.435	374.27
788.616	327.16
788.797	312.83
788.978	359.93
789.159	261.63
789.34	325.12
789.522	390.65
789.703	245.24
789.884	351.74
790.065	343.55
790.246	398.84
790.427	374.27
790.607	325.12
790.788	347.64
790.969	323.07
791.15	329.21
791.331	269.82
791.512	275.96
791.693	247.29
791.874	265.72
792.054	376.31
792.235	368.12
792.416	220.67
792.597	273.92
792.778	273.92
792.958	189.95
793.139	255.48
793.32	269.82
793.5	235
793.681	402.94
793.862	261.63
794.042	243.2
794.223	278.01
794.404	275.96
794.584	189.95
794.765	220.67
794.945	239.1
795.126	228.86
795.306	308.73
795.487	200.19
795.667	292.35
795.848	298.49
796.028	298.49
796.209	253.44
796.389	288.25
796.57	265.72
796.75	243.2
796.93	257.53
797.111	208.38
797.291	261.63
797.471	292.35
797.652	294.4
797.832	255.48
798.012	173.57
798.192	171.52
798.373	153.09
798.553	275.96
798.733	198.14
798.913	224.76
799.093	257.53
799.274	220.67
799.454	181.76
799.634	208.38
799.814	175.61
799.994	235
800.174	134.65
800.354	167.42
800.534	294.4
800.714	226.81
800.894	187.9
801.074	161.28
801.254	189.95
801.434	214.52
801.614	245.24
801.794	142.85
801.974	517.62
802.154	228.86
802.334	185.85
802.514	183.81
802.693	185.85
802.873	196.09
803.053	206.33
803.233	169.47
803.413	196.09
803.592	171.52
803.772	130.56
803.952	181.76
804.131	253.44
804.311	167.42
804.491	251.39
804.67	210.43
804.85	130.56
805.03	204.28
805.209	187.9
805.389	128.51
805.568	132.61
805.748	181.76
805.928	204.28
806.107	163.33
806.287	185.85
806.466	196.09
806.646	179.71
806.825	110.08
807.004	173.57
807.184	110.08
807.363	185.85
807.543	159.23
807.722	114.17
807.901	175.61
808.081	138.75
808.26	179.71
808.439	151.04
808.619	161.28
808.798	97.79
808.977	62.98
809.156	126.46
809.336	163.33
809.515	132.61
809.694	138.75
809.873	144.89
810.052	75.26
810.231	144.89
810.411	138.75
810.59	146.94
810.769	185.85
810.948	167.42
811.127	151.04
811.306	138.75
811.485	167.42
811.664	171.52
811.843	112.13
812.022	114.17
812.201	134.65
812.38	124.41
812.559	79.36
812.737	148.99
812.916	189.95
813.095	103.93
813.274	138.75
813.453	40.45
813.632	165.37
813.811	144.89
813.989	71.17
814.168	181.76
814.347	89.6
814.526	108.03
814.704	181.76
814.883	118.27
815.062	112.13
815.24	103.93
815.419	32.26
815.598	142.85
815.776	13.82
815.955	99.84
816.133	44.54
816.312	87.55
816.49	110.08
816.669	122.37
816.847	105.98
817.026	124.41
817.204	11.78
817.383	42.5
817.561	73.21
817.74	185.85
817.918	128.51
818.097	112.13
818.275	108.03
818.453	136.7
818.632	-4.61
818.81	40.45
818.988	95.74
819.167	62.98
819.345	81.41
819.523	1.54
819.701	77.31
819.879	128.51
820.058	17.92
820.236	83.45
820.414	56.83
820.592	50.69
820.77	7.68
820.948	71.17
821.127	69.12
821.305	91.65
821.483	122.37
821.661	136.7
821.839	54.78
822.017	65.02
822.195	81.41
822.373	91.65
822.551	56.83
822.729	87.55
822.907	65.02
823.085	132.61
823.262	50.69
823.44	75.26
823.618	42.5
823.796	62.98
823.974	112.13
824.152	36.35
824.329	34.3
824.507	40.45
824.685	77.31
824.863	56.83
825.04	-20.99
825.218	120.32
825.396	85.5
825.574	99.84
825.751	93.69
825.929	120.32
826.107	22.02
826.284	122.37
826.462	34.3
826.639	30.21
826.817	22.02
826.994	97.79
827.172	-16.9
827.349	91.65
827.527	83.45
827.704	79.36
827.882	32.26
828.059	114.17
828.237	65.02
828.414	54.78
828.591	69.12
828.769	110.08
828.946	105.98
829.124	48.64
829.301	52.74
829.478	28.16
829.655	62.98
829.833	52.74
830.01	50.69
830.187	24.06
830.364	44.54
830.542	54.78
830.719	89.6
830.896	19.97
831.073	73.21
831.25	48.64
831.427	69.12
831.604	42.5
831.782	22.02
831.959	60.93
832.136	101.89
832.313	-18.94
832.49	75.26
832.667	38.4
832.844	24.06
833.021	11.78
833.198	75.26
833.374	30.21
833.551	65.02
833.728	17.92
833.905	15.87
834.082	42.5
834.259	22.02
834.436	60.93
834.612	65.02
834.789	44.54
834.966	67.07
835.143	112.13
835.319	15.87
835.496	75.26
835.673	36.35
835.85	93.69
836.026	46.59
836.203	42.5
836.38	40.45
836.556	103.93
836.733	-18.94
836.909	83.45
837.086	81.41
837.262	85.5
837.439	34.3
837.616	7.68
837.792	32.26
837.968	-4.61
838.145	24.06
838.321	17.92
838.498	71.17
838.674	1.54
838.851	65.02
839.027	-16.9
839.203	38.4
839.38	114.17
839.556	3.58
839.732	-14.85
839.909	60.93
840.085	87.55
840.261	46.59
840.437	56.83
840.614	110.08
840.79	75.26
840.966	54.78
841.142	73.21
841.318	52.74
841.494	60.93
841.671	-12.8
841.847	62.98
842.023	48.64
842.199	3.58
842.375	-2.56
842.551	-27.14
842.727	67.07
842.903	85.5
843.079	32.26
843.255	-12.8
843.431	-2.56
843.607	48.64
843.783	-64
843.959	-0.51
844.134	26.11
844.31	40.45
844.486	50.69
844.662	11.78
844.838	60.93
845.013	1.54
845.189	54.78
845.365	30.21
845.541	-14.85
845.716	28.16
845.892	67.07
846.068	36.35
846.244	-2.56
846.419	-18.94
846.595	42.5
846.77	-0.51
846.946	44.54
847.122	32.26
847.297	-39.42
847.473	-0.51
847.648	-10.75
847.824	44.54
847.999	-57.86
848.175	-80.38
848.35	30.21
848.526	83.45
848.701	17.92
848.876	44.54
849.052	32.26
849.227	38.4
849.403	-2.56
849.578	9.73
849.753	-0.51
849.929	28.16
850.104	22.02
850.279	99.84
850.454	54.78
850.63	89.6
850.805	-12.8
850.98	79.36
851.155	44.54
851.33	1.54
851.505	-16.9
851.681	-27.14
851.856	9.73
852.031	67.07
852.206	73.21
852.381	1.54
852.556	11.78
852.731	9.73
852.906	40.45
853.081	69.12
853.256	-2.56
853.431	-2.56
853.606	-6.66
853.781	97.79
853.956	-6.66
854.131	-4.61
854.305	-55.81
854.48	65.02
854.655	3.58
854.83	-6.66
855.005	44.54
855.18	-16.9
855.354	19.97
855.529	-31.23
855.704	5.63
855.879	22.02
856.053	-35.33
856.228	-57.86
856.403	28.16
856.577	-29.18
856.752	-2.56
856.926	71.17
857.101	19.97
857.276	40.45
857.45	-68.09
857.625	50.69
857.799	58.88
857.974	-0.51
858.148	-94.72
858.323	-16.9
858.497	-18.94
858.672	28.16
858.846	7.68
859.02	40.45
859.195	30.21
859.369	22.02
859.543	19.97
859.718	65.02
859.892	24.06
860.066	-18.94
860.241	-55.81
860.415	-41.47
860.589	-12.8
860.763	24.06
860.938	-41.47
861.112	34.3
861.286	-29.18
861.46	40.45
861.634	-16.9
861.808	36.35
861.982	-6.66
862.157	-14.85
862.331	30.21
862.505	-59.9
862.679	-0.51
862.853	19.97
863.027	-37.38
863.201	19.97
863.375	26.11
863.549	71.17
863.722	13.82
863.896	13.82
864.07	-0.51
864.244	24.06
864.418	-27.14
864.592	-23.04
864.766	-6.66
864.939	-35.33
865.113	9.73
865.287	5.63
865.461	1.54
865.634	58.88
865.808	3.58
865.982	-20.99
866.156	-27.14
866.329	-6.66
866.503	-4.61
866.676	40.45
866.85	-20.99
867.024	73.21
867.197	65.02
867.371	-0.51
867.544	-18.94
867.718	-14.85
867.891	52.74
868.065	9.73
868.238	-66.05
868.412	-43.52
868.585	11.78
868.759	-45.57
868.932	-51.71
869.105	19.97
869.279	-25.09
869.452	-80.38
869.625	32.26
869.799	-41.47
869.972	-27.14
870.145	-6.66
870.319	3.58
870.492	11.78
870.665	-14.85
870.838	9.73
871.011	-10.75
871.185	46.59
871.358	-4.61
871.531	-31.23
871.704	-27.14
871.877	19.97
872.05	34.3
872.223	34.3
872.396	-8.7
872.569	-33.28
872.742	-78.33
872.915	-20.99
873.088	-2.56
873.261	11.78
873.434	26.11
873.607	-23.04
873.78	71.17
873.953	-6.66
874.126	-23.04
874.299	40.45
874.471	5.63
874.644	-82.43
874.817	-18.94
874.99	73.21
875.163	-4.61
875.335	24.06
875.508	7.68
875.681	30.21
875.853	81.41
876.026	-45.57
876.199	9.73
876.371	77.31
876.544	-31.23
876.717	-53.76
876.889	-18.94
877.062	-14.85
877.234	-6.66
877.407	-43.52
877.579	-43.52
877.752	54.78
877.924	-2.56
878.097	38.4
878.269	-82.43
878.442	19.97
878.614	-18.94
878.786	-10.75
878.959	-37.38
879.131	24.06
879.303	-51.71
879.476	-31.23
879.648	-20.99
879.82	9.73
879.993	44.54
880.165	-51.71
880.337	-41.47
880.509	67.07
880.681	-20.99
880.854	-25.09
881.026	22.02
881.198	-45.57
881.37	-47.62
881.542	26.11
881.714	24.06
881.886	-25.09
882.058	-53.76
882.23	34.3
882.402	-16.9
882.574	15.87
882.746	22.02
882.918	-37.38
883.09	-20.99
883.262	-76.29
883.434	34.3
883.606	-18.94
883.778	36.35
883.95	71.17
884.122	7.68
884.293	-92.67
884.465	-47.62
884.637	3.58
884.809	-35.33
884.98	-49.66
885.152	-66.05
885.324	-25.09
885.496	-20.99
885.667	-4.61
885.839	-14.85
886.011	69.12
886.182	-72.19
886.354	44.54
886.525	15.87
886.697	-20.99
886.869	-98.81
887.04	-49.66
887.212	44.54
887.383	3.58
887.555	-20.99
887.726	32.26
887.897	-20.99
888.069	1.54
888.24	1.54
888.412	-8.7
888.583	-47.62
888.754	-57.86
888.926	-10.75
889.097	1.54
889.268	-117.25
889.44	-72.19
889.611	-20.99
889.782	-45.57
889.953	-33.28
890.125	17.92
890.296	-8.7
890.467	-51.71
890.638	62.98
890.809	-20.99
890.98	-64
891.151	-2.56
891.323	3.58
891.494	54.78
891.665	19.97
891.836	46.59
892.007	-80.38
892.178	17.92
892.349	17.92
892.52	-0.51
892.691	-33.28
892.862	42.5
893.032	-102.91
893.203	32.26
893.374	-31.23
893.545	9.73
893.716	-64
893.887	-27.14
894.057	44.54
894.228	-14.85
894.399	-14.85
894.57	77.31
894.74	-18.94
894.911	11.78
895.082	13.82
895.253	-47.62
895.423	-31.23
895.594	34.3
895.764	-2.56
895.935	-39.42
896.106	-2.56
896.276	-45.57
896.447	-51.71
896.617	1.54
896.788	-43.52
896.958	-27.14
897.129	1.54
897.299	-51.71
897.47	30.21
897.64	5.63
897.81	-0.51
897.981	-25.09
898.151	-6.66
898.322	-20.99
898.492	46.59
898.662	-27.14
898.832	9.73
899.003	-0.51
899.173	13.82
899.343	-33.28
899.513	-2.56
