Data from USB4F104151__99__12-02-41-123.txt Node

Date: Fri Mar 14 12:02:41 EDT 2025
User: louis
Spectrometer: USB4F10415
Trigger mode: 4
Integration Time (sec): 2.000000E-2
Scans to average: 1
Electric dark correction enabled: true
Nonlinearity correction enabled: false
Boxcar width: 0
XAxis mode: Wavelengths
Number of Pixels in Spectrum: 3648
>>>>>Begin Spectral Data<<<<<
178.204	-36.01
178.424	-36.01
178.644	-36.01
178.864	-165.03
179.084	-89.26
179.304	13.14
179.524	9.05
179.744	2.9
179.964	33.62
180.184	39.76
180.404	-11.43
180.624	-66.73
180.844	-11.43
181.064	-15.53
181.283	23.38
181.503	-15.53
181.723	-1.19
181.943	15.19
182.163	84.82
182.383	-21.67
182.602	31.57
182.822	15.19
183.042	21.33
183.262	-13.48
183.482	80.72
183.701	-29.87
183.921	-29.87
184.141	-23.72
184.361	56.15
184.58	76.63
184.8	7
185.02	-9.39
185.239	68.44
185.459	-13.48
185.679	90.96
185.898	-9.39
186.118	27.48
186.338	-33.96
186.557	19.29
186.777	105.3
186.997	19.29
187.216	15.19
187.436	101.2
187.655	-15.53
187.875	52.05
188.095	-64.68
188.314	-38.06
188.534	-1.19
188.753	-15.53
188.973	-19.63
189.192	74.58
189.412	86.87
189.631	43.86
189.851	15.19
190.07	-31.91
190.29	-15.53
190.509	27.48
190.729	2.9
190.948	66.39
191.168	133.97
191.387	95.06
191.607	93.01
191.826	52.05
192.045	-54.44
192.265	-23.72
192.484	-1.19
192.704	39.76
192.923	4.95
193.142	47.96
193.362	56.15
193.581	133.97
193.8	60.24
194.02	52.05
194.239	-89.26
194.458	35.67
194.678	-23.72
194.897	19.29
195.116	-7.34
195.335	52.05
195.555	-9.39
195.774	54.1
195.993	43.86
196.212	37.72
196.432	11.09
196.651	-44.2
196.87	-68.78
197.089	117.59
197.308	19.29
197.528	29.52
197.747	37.72
197.966	54.1
198.185	66.39
198.404	37.72
198.623	82.77
198.842	58.2
199.062	50
199.281	54.1
199.5	0.85
199.719	-23.72
199.938	-36.01
200.157	15.19
200.376	-11.43
200.595	41.81
200.814	41.81
201.033	27.48
201.252	29.52
201.471	43.86
201.69	86.87
201.909	-17.58
202.128	-42.15
202.347	50
202.566	41.81
202.785	33.62
203.004	43.86
203.223	82.77
203.442	58.2
203.661	-9.39
203.879	-38.06
204.098	78.68
204.317	17.24
204.536	80.72
204.755	138.07
204.974	23.38
205.193	45.91
205.411	97.11
205.63	0.85
205.849	-11.43
206.068	11.09
206.287	45.91
206.505	50
206.724	37.72
206.943	66.39
207.162	25.43
207.381	29.52
207.599	66.39
207.818	4.95
208.037	35.67
208.255	-38.06
208.474	-17.58
208.693	23.38
208.911	-15.53
209.13	-3.24
209.349	80.72
209.567	-3.24
209.786	90.96
210.005	41.81
210.223	35.67
210.442	0.85
210.661	-3.24
210.879	21.33
211.098	33.62
211.316	2.9
211.535	62.29
211.753	-38.06
211.972	86.87
212.191	-29.87
212.409	41.81
212.628	-33.96
212.846	43.86
213.065	-7.34
213.283	45.91
213.502	-19.63
213.72	33.62
213.938	43.86
214.157	58.2
214.375	31.57
214.594	25.43
214.812	11.09
215.031	80.72
215.249	-21.67
215.467	35.67
215.686	54.1
215.904	50
216.122	23.38
216.341	70.48
216.559	35.67
216.778	90.96
216.996	68.44
217.214	29.52
217.432	0.85
217.651	21.33
217.869	31.57
218.087	19.29
218.306	13.14
218.524	52.05
218.742	-33.96
218.96	105.3
219.179	-25.77
219.397	35.67
219.615	90.96
219.833	21.33
220.051	-17.58
220.27	64.34
220.488	17.24
220.706	41.81
220.924	43.86
221.142	9.05
221.36	-1.19
221.578	-27.82
221.796	21.33
222.015	66.39
222.233	4.95
222.451	88.92
222.669	-27.82
222.887	56.15
223.105	54.1
223.323	64.34
223.541	52.05
223.759	90.96
223.977	33.62
224.195	-1.19
224.413	43.86
224.631	56.15
224.849	88.92
225.067	93.01
225.285	74.58
225.503	35.67
225.721	29.52
225.939	95.06
226.157	39.76
226.375	90.96
226.592	2.9
226.81	9.05
227.028	17.24
227.246	47.96
227.464	43.86
227.682	21.33
227.9	76.63
228.117	105.3
228.335	13.14
228.553	70.48
228.771	-79.02
228.989	9.05
229.206	2.9
229.424	15.19
229.642	-5.29
229.86	86.87
230.077	70.48
230.295	17.24
230.513	15.19
230.731	129.88
230.948	31.57
231.166	76.63
231.384	-19.63
231.601	27.48
231.819	-31.91
232.037	27.48
232.254	68.44
232.472	72.53
232.689	41.81
232.907	54.1
233.125	29.52
233.342	-23.72
233.56	62.29
233.777	-23.72
233.995	-33.96
234.213	27.48
234.43	17.24
234.648	37.72
234.865	21.33
235.083	21.33
235.3	-31.91
235.518	9.05
235.735	80.72
235.953	31.57
236.17	52.05
236.388	90.96
236.605	-48.3
236.822	43.86
237.04	11.09
237.257	19.29
237.475	13.14
237.692	17.24
237.909	-19.63
238.127	17.24
238.344	76.63
238.562	86.87
238.779	47.96
238.996	2.9
239.214	7
239.431	150.36
239.648	-5.29
239.865	33.62
240.083	39.76
240.3	52.05
240.517	-36.01
240.735	-5.29
240.952	31.57
241.169	99.16
241.386	-23.72
241.603	84.82
241.821	-23.72
242.038	74.58
242.255	47.96
242.472	-19.63
242.689	99.16
242.907	-13.48
243.124	-13.48
243.341	39.76
243.558	84.82
243.775	35.67
243.992	43.86
244.209	-50.35
244.426	76.63
244.643	101.2
244.86	-11.43
245.078	23.38
245.295	136.02
245.512	-33.96
245.729	50
245.946	45.91
246.163	-58.54
246.38	15.19
246.597	25.43
246.814	23.38
247.031	4.95
247.248	17.24
247.464	66.39
247.681	66.39
247.898	45.91
248.115	70.48
248.332	47.96
248.549	-3.24
248.766	52.05
248.983	2.9
249.2	-36.01
249.417	39.76
249.633	13.14
249.85	41.81
250.067	23.38
250.284	41.81
250.501	52.05
250.717	52.05
250.934	37.72
251.151	33.62
251.368	-42.15
251.585	17.24
251.801	58.2
252.018	-31.91
252.235	76.63
252.451	54.1
252.668	-33.96
252.885	90.96
253.102	103.25
253.318	17.24
253.535	41.81
253.752	-17.58
253.968	68.44
254.185	-40.11
254.401	37.72
254.618	111.44
254.835	29.52
255.051	64.34
255.268	7
255.484	105.3
255.701	62.29
255.917	105.3
256.134	-23.72
256.351	37.72
256.567	43.86
256.784	27.48
257	-5.29
257.217	41.81
257.433	58.2
257.65	23.38
257.866	37.72
258.082	39.76
258.299	31.57
258.515	58.2
258.732	50
258.948	64.34
259.165	47.96
259.381	-19.63
259.597	47.96
259.814	29.52
260.03	107.35
260.246	31.57
260.463	-21.67
260.679	74.58
260.895	-3.24
261.112	58.2
261.328	11.09
261.544	-44.2
261.761	66.39
261.977	68.44
262.193	-27.82
262.409	76.63
262.626	45.91
262.842	25.43
263.058	-7.34
263.274	9.05
263.49	11.09
263.707	45.91
263.923	7
264.139	41.81
264.355	27.48
264.571	17.24
264.787	-38.06
265.004	72.53
265.22	64.34
265.436	56.15
265.652	-13.48
265.868	27.48
266.084	-46.25
266.3	70.48
266.516	-36.01
266.732	31.57
266.948	-38.06
267.164	58.2
267.38	37.72
267.596	56.15
267.812	33.62
268.028	-48.3
268.244	19.29
268.46	56.15
268.676	0.85
268.892	25.43
269.108	-9.39
269.324	45.91
269.54	17.24
269.756	86.87
269.972	-25.77
270.188	15.19
270.403	70.48
270.619	2.9
270.835	37.72
271.051	19.29
271.267	43.86
271.483	-25.77
271.698	-62.63
271.914	33.62
272.13	60.24
272.346	11.09
272.562	43.86
272.777	105.3
272.993	72.53
273.209	70.48
273.425	13.14
273.64	-44.2
273.856	27.48
274.072	52.05
274.287	17.24
274.503	25.43
274.719	60.24
274.934	23.38
275.15	78.68
275.366	41.81
275.581	29.52
275.797	-9.39
276.012	43.86
276.228	33.62
276.444	-9.39
276.659	41.81
276.875	31.57
277.09	47.96
277.306	45.91
277.521	41.81
277.737	-40.11
277.952	50
278.168	78.68
278.383	-11.43
278.599	39.76
278.814	80.72
279.03	74.58
279.245	-7.34
279.461	99.16
279.676	43.86
279.892	17.24
280.107	72.53
280.322	19.29
280.538	31.57
280.753	9.05
280.969	-17.58
281.184	7
281.399	17.24
281.615	43.86
281.83	66.39
282.045	84.82
282.26	41.81
282.476	23.38
282.691	56.15
282.906	56.15
283.122	93.01
283.337	56.15
283.552	17.24
283.767	-3.24
283.983	50
284.198	-29.87
284.413	21.33
284.628	-1.19
284.843	119.64
285.058	0.85
285.274	52.05
285.489	-33.96
285.704	101.2
285.919	80.72
286.134	39.76
286.349	-7.34
286.564	47.96
286.779	50
286.995	13.14
287.21	4.95
287.425	29.52
287.64	35.67
287.855	52.05
288.07	2.9
288.285	-5.29
288.5	4.95
288.715	11.09
288.93	-21.67
289.145	21.33
289.36	52.05
289.575	-23.72
289.79	37.72
290.004	29.52
290.219	2.9
290.434	41.81
290.649	25.43
290.864	19.29
291.079	15.19
291.294	117.59
291.509	39.76
291.724	39.76
291.938	7
292.153	39.76
292.368	23.38
292.583	66.39
292.798	21.33
293.012	31.57
293.227	86.87
293.442	17.24
293.657	0.85
293.871	60.24
294.086	56.15
294.301	58.2
294.516	52.05
294.73	50
294.945	-7.34
295.16	21.33
295.374	11.09
295.589	68.44
295.804	37.72
296.018	27.48
296.233	11.09
296.447	72.53
296.662	-1.19
296.877	62.29
297.091	43.86
297.306	37.72
297.52	21.33
297.735	101.2
297.949	21.33
298.164	-21.67
298.378	45.91
298.593	58.2
298.807	43.86
299.022	37.72
299.236	4.95
299.451	27.48
299.665	-58.54
299.88	13.14
300.094	7
300.309	-42.15
300.523	68.44
300.737	19.29
300.952	45.91
301.166	88.92
301.381	50
301.595	88.92
301.809	-7.34
302.024	47.96
302.238	-7.34
302.452	80.72
302.667	2.9
302.881	27.48
303.095	15.19
303.309	-48.3
303.524	9.05
303.738	25.43
303.952	27.48
304.166	25.43
304.381	-42.15
304.595	-3.24
304.809	-7.34
305.023	37.72
305.237	17.24
305.452	13.14
305.666	117.59
305.88	33.62
306.094	86.87
306.308	78.68
306.522	4.95
306.736	78.68
306.95	-3.24
307.164	13.14
307.379	-29.87
307.593	41.81
307.807	37.72
308.021	7
308.235	76.63
308.449	15.19
308.663	4.95
308.877	45.91
309.091	93.01
309.305	140.12
309.519	64.34
309.733	27.48
309.947	-52.39
310.161	11.09
310.374	68.44
310.588	78.68
310.802	11.09
311.016	86.87
311.23	19.29
311.444	25.43
311.658	39.76
311.872	4.95
312.085	60.24
312.299	58.2
312.513	144.21
312.727	7
312.941	29.52
313.154	62.29
313.368	-52.39
313.582	146.26
313.796	-33.96
314.009	58.2
314.223	27.48
314.437	29.52
314.651	15.19
314.864	60.24
315.078	-17.58
315.292	25.43
315.505	68.44
315.719	64.34
315.933	21.33
316.146	-66.73
316.36	-66.73
316.573	23.38
316.787	47.96
317.001	-23.72
317.214	109.4
317.428	117.59
317.641	-58.54
317.855	39.76
318.068	29.52
318.282	138.07
318.495	62.29
318.709	25.43
318.922	17.24
319.136	105.3
319.349	115.54
319.563	35.67
319.776	21.33
319.99	-9.39
320.203	-36.01
320.417	19.29
320.63	50
320.843	-7.34
321.057	45.91
321.27	82.77
321.483	74.58
321.697	64.34
321.91	60.24
322.124	103.25
322.337	47.96
322.55	82.77
322.763	50
322.977	95.06
323.19	27.48
323.403	50
323.617	-1.19
323.83	78.68
324.043	9.05
324.256	21.33
324.469	2.9
324.683	17.24
324.896	95.06
325.109	9.05
325.322	4.95
325.535	2.9
325.748	-29.87
325.962	-3.24
326.175	70.48
326.388	-7.34
326.601	-25.77
326.814	33.62
327.027	64.34
327.24	60.24
327.453	33.62
327.666	41.81
327.879	76.63
328.092	107.35
328.305	25.43
328.518	97.11
328.731	-60.59
328.944	-9.39
329.157	33.62
329.37	-27.82
329.583	17.24
329.796	66.39
330.009	39.76
330.222	74.58
330.435	15.19
330.648	93.01
330.861	29.52
331.073	54.1
331.286	31.57
331.499	103.25
331.712	-56.49
331.925	58.2
332.138	4.95
332.35	47.96
332.563	27.48
332.776	25.43
332.989	33.62
333.202	11.09
333.414	17.24
333.627	-29.87
333.84	60.24
334.053	88.92
334.265	84.82
334.478	-7.34
334.691	-29.87
334.903	7
335.116	-66.73
335.329	17.24
335.541	74.58
335.754	43.86
335.966	0.85
336.179	95.06
336.392	21.33
336.604	58.2
336.817	39.76
337.029	66.39
337.242	56.15
337.454	43.86
337.667	-15.53
337.88	82.77
338.092	80.72
338.305	78.68
338.517	39.76
338.729	0.85
338.942	72.53
339.154	-60.59
339.367	-50.35
339.579	31.57
339.792	68.44
340.004	39.76
340.217	4.95
340.429	47.96
340.641	-40.11
340.854	84.82
341.066	-11.43
341.278	41.81
341.491	31.57
341.703	31.57
341.915	78.68
342.128	-9.39
342.34	76.63
342.552	21.33
342.764	-21.67
342.977	25.43
343.189	4.95
343.401	52.05
343.613	-11.43
343.826	33.62
344.038	33.62
344.25	-17.58
344.462	-7.34
344.674	35.67
344.886	58.2
345.099	60.24
345.311	50
345.523	95.06
345.735	54.1
345.947	4.95
346.159	52.05
346.371	64.34
346.583	-21.67
346.795	76.63
347.007	33.62
347.219	-5.29
347.431	27.48
347.643	76.63
347.855	15.19
348.067	84.82
348.279	17.24
348.491	13.14
348.703	-9.39
348.915	37.72
349.127	21.33
349.339	15.19
349.551	29.52
349.763	78.68
349.975	33.62
350.187	82.77
350.399	103.25
350.61	105.3
350.822	50
351.034	41.81
351.246	43.86
351.458	117.59
351.669	58.2
351.881	-27.82
352.093	39.76
352.305	66.39
352.517	56.15
352.728	68.44
352.94	37.72
353.152	86.87
353.363	-3.24
353.575	88.92
353.787	-54.44
353.999	17.24
354.21	19.29
354.422	-7.34
354.633	35.67
354.845	93.01
355.057	72.53
355.268	39.76
355.48	4.95
355.692	66.39
355.903	-25.77
356.115	45.91
356.326	64.34
356.538	29.52
356.749	58.2
356.961	121.68
357.172	35.67
357.384	50
357.595	76.63
357.807	88.92
358.018	-25.77
358.23	50
358.441	127.83
358.653	25.43
358.864	-13.48
359.075	9.05
359.287	74.58
359.498	107.35
359.709	0.85
359.921	43.86
360.132	-9.39
360.344	105.3
360.555	86.87
360.766	25.43
360.977	-13.48
361.189	45.91
361.4	50
361.611	66.39
361.823	88.92
362.034	82.77
362.245	50
362.456	13.14
362.667	23.38
362.879	37.72
363.09	64.34
363.301	-29.87
363.512	31.57
363.723	35.67
363.935	4.95
364.146	35.67
364.357	37.72
364.568	76.63
364.779	23.38
364.99	131.92
365.201	88.92
365.412	90.96
365.623	41.81
365.834	45.91
366.045	41.81
366.256	97.11
366.467	62.29
366.678	-3.24
366.889	97.11
367.1	27.48
367.311	54.1
367.522	41.81
367.733	13.14
367.944	58.2
368.155	60.24
368.366	84.82
368.577	68.44
368.788	33.62
368.999	37.72
369.209	76.63
369.42	70.48
369.631	27.48
369.842	39.76
370.053	29.52
370.264	146.26
370.474	64.34
370.685	41.81
370.896	47.96
371.107	29.52
371.317	9.05
371.528	31.57
371.739	95.06
371.95	64.34
372.16	88.92
372.371	37.72
372.582	156.5
372.792	2.9
373.003	119.64
373.214	0.85
373.424	111.44
373.635	25.43
373.846	64.34
374.056	45.91
374.267	17.24
374.477	33.62
374.688	37.72
374.898	27.48
375.109	78.68
375.319	29.52
375.53	80.72
375.74	50
375.951	70.48
376.161	-5.29
376.372	74.58
376.582	93.01
376.793	52.05
377.003	45.91
377.214	37.72
377.424	13.14
377.635	29.52
377.845	27.48
378.055	123.73
378.266	9.05
378.476	58.2
378.686	23.38
378.897	76.63
379.107	50
379.317	70.48
379.528	17.24
379.738	56.15
379.948	54.1
380.158	68.44
380.369	80.72
380.579	101.2
380.789	58.2
380.999	115.54
381.21	52.05
381.42	86.87
381.63	17.24
381.84	68.44
382.05	76.63
382.261	66.39
382.471	64.34
382.681	74.58
382.891	58.2
383.101	9.05
383.311	47.96
383.521	52.05
383.731	70.48
383.941	-31.91
384.151	105.3
384.361	7
384.571	11.09
384.781	131.92
384.991	52.05
385.201	35.67
385.411	21.33
385.621	35.67
385.831	25.43
386.041	66.39
386.251	33.62
386.461	31.57
386.671	76.63
386.881	62.29
387.091	50
387.301	25.43
387.511	80.72
387.72	45.91
387.93	111.44
388.14	56.15
388.35	115.54
388.56	101.2
388.769	76.63
388.979	37.72
389.189	95.06
389.399	17.24
389.609	-17.58
389.818	127.83
390.028	-11.43
390.238	105.3
390.447	86.87
390.657	117.59
390.867	140.12
391.076	58.2
391.286	144.21
391.496	74.58
391.705	43.86
391.915	148.31
392.125	35.67
392.334	-1.19
392.544	109.4
392.753	144.21
392.963	0.85
393.172	68.44
393.382	99.16
393.591	103.25
393.801	72.53
394.01	86.87
394.22	103.25
394.429	43.86
394.639	64.34
394.848	33.62
395.058	64.34
395.267	123.73
395.477	25.43
395.686	97.11
395.895	158.55
396.105	121.68
396.314	76.63
396.524	74.58
396.733	68.44
396.942	127.83
397.152	60.24
397.361	80.72
397.57	39.76
397.78	105.3
397.989	131.92
398.198	170.83
398.407	11.09
398.617	82.77
398.826	142.16
399.035	66.39
399.244	107.35
399.453	103.25
399.663	136.02
399.872	52.05
400.081	131.92
400.29	101.2
400.499	64.34
400.708	60.24
400.917	107.35
401.127	160.59
401.336	72.53
401.545	64.34
401.754	150.36
401.963	140.12
402.172	121.68
402.381	109.4
402.59	117.59
402.799	109.4
403.008	74.58
403.217	121.68
403.426	199.51
403.635	148.31
403.844	129.88
404.053	97.11
404.262	105.3
404.471	152.4
404.68	179.03
404.888	150.36
405.097	129.88
405.306	156.5
405.515	160.59
405.724	142.16
405.933	189.27
406.142	164.69
406.35	203.6
406.559	197.46
406.768	172.88
406.977	234.32
407.185	211.79
407.394	197.46
407.603	117.59
407.812	236.37
408.02	195.41
408.229	279.38
408.438	195.41
408.646	215.89
408.855	219.99
409.064	215.89
409.272	156.5
409.481	248.66
409.69	250.71
409.898	275.28
410.107	265.04
410.315	219.99
410.524	258.9
410.733	209.75
410.941	271.19
411.15	316.24
411.358	342.86
411.567	402.26
411.775	367.44
411.984	404.3
412.192	394.06
412.401	312.14
412.609	447.31
412.818	457.55
413.026	521.04
413.234	459.6
413.443	504.65
413.651	539.47
413.86	482.13
414.068	562
414.276	617.29
414.485	484.17
414.693	609.1
414.901	697.16
415.11	537.42
415.318	637.77
415.526	693.07
415.734	756.55
415.943	713.55
416.151	709.45
416.359	652.11
416.567	774.99
416.776	873.29
416.984	924.49
417.192	975.69
417.4	965.45
417.608	901.96
417.817	904.01
418.025	1030.98
418.233	1020.74
418.441	1102.66
418.649	1135.43
418.857	1076.04
419.065	1194.82
419.273	1157.96
419.481	1276.74
419.689	1381.18
419.897	1428.29
420.105	1452.86
420.313	1506.11
420.521	1485.63
420.729	1573.69
420.937	1561.41
421.145	1610.56
421.353	1661.76
421.561	1721.15
421.769	1741.63
421.977	1753.91
422.185	1934.14
422.393	1942.33
422.601	2190.13
422.809	2093.88
423.017	2181.94
423.224	2224.95
423.432	2358.07
423.64	2259.76
423.848	2503.47
424.056	2560.81
424.263	2652.97
424.471	2661.16
424.679	2829.1
424.887	2831.15
425.094	2870.06
425.302	2923.3
425.51	3078.95
425.718	3281.7
425.925	3148.58
426.133	3279.65
426.341	3386.15
426.548	3547.94
426.756	3590.94
426.964	3638.05
427.171	3894.04
427.379	3984.15
427.586	4016.92
427.794	4154.13
428.001	4350.74
428.209	4483.86
428.417	4621.07
428.624	4842.25
428.832	4805.39
429.039	4811.53
429.247	4750.09
429.454	5280.52
429.662	5532.42
429.869	5096.2
430.076	5655.3
430.284	5636.86
430.491	5749.5
430.699	6159.1
430.906	5774.08
431.114	6038.27
431.321	6384.37
431.528	6501.11
431.736	6771.44
431.943	6931.18
432.15	7015.15
432.358	7166.7
432.565	7310.05
432.772	7353.06
432.979	7791.33
433.187	8004.32
433.394	7820
433.601	8395.48
433.808	8567.51
434.016	8590.03
434.223	8733.39
434.43	9429.7
434.637	9317.06
434.844	9847.49
435.052	9804.48
435.259	9827.01
435.466	9951.93
435.673	9812.67
435.88	10586.8
436.087	10967.73
436.294	10965.68
436.501	10613.43
436.708	10975.92
436.915	11401.9
437.122	11938.46
437.329	11850.4
437.537	12157.6
437.743	12556.95
437.95	12337.82
438.157	13001.36
438.364	13486.73
438.571	13517.45
438.778	13527.69
438.985	14912.11
439.192	13988.48
439.399	14523
439.606	14350.97
439.813	14977.65
440.02	15911.52
440.227	15635.05
440.433	15252.08
440.64	15983.2
440.847	15735.4
441.054	16171.61
441.261	17435.21
441.467	17171.02
441.674	17640.01
441.881	18453.05
442.088	18135.62
442.294	17715.78
442.501	18285.12
442.708	18631.23
442.914	19661.35
443.121	20494.88
443.328	19808.81
443.534	21258.77
443.741	20548.12
443.948	20255.26
444.154	22016.52
444.361	21856.78
444.568	22026.76
444.774	21985.8
444.981	22166.02
445.187	22942.2
445.394	23890.41
445.6	23513.58
445.807	25690.57
446.013	24482.27
446.22	25076.18
446.426	26106.31
446.633	26132.93
446.839	27101.62
447.046	25874.89
447.252	27163.06
447.459	27107.77
447.665	27404.72
447.871	28477.86
448.078	29987.21
448.284	28344.74
448.491	28826.01
448.697	30341.51
448.903	31109.5
449.11	31125.88
449.316	30210.44
449.522	31066.49
449.728	32045.42
449.935	31959.41
450.141	31719.79
450.347	32876.9
450.553	31601.01
450.76	32039.28
450.966	33440.09
451.172	32487.78
451.378	33747.28
451.584	33005.92
451.791	33311.07
451.997	33775.95
452.203	33902.93
452.409	34066.77
452.615	33767.76
452.821	32545.12
453.027	32428.39
453.233	33694.04
453.44	32465.25
453.646	33073.5
453.852	33005.92
454.058	33497.43
454.264	32227.69
454.47	33249.63
454.676	32516.45
454.882	33282.39
455.088	30757.25
455.294	30919.04
455.5	31570.29
455.705	31822.19
455.911	30630.27
456.117	30001.55
456.323	29682.06
456.529	27937.2
456.735	29180.31
456.941	28596.64
457.147	28086.7
457.352	27314.61
457.558	26708.41
457.764	26950.07
457.97	26239.43
458.176	25905.61
458.381	25983.43
458.587	24230.37
458.793	24728.03
458.999	23169.52
459.204	24517.09
459.41	24117.73
459.616	22413.82
459.821	22290.95
460.027	22430.21
460.233	21996.04
460.438	20892.18
460.644	20972.05
460.85	20300.32
461.055	19917.35
461.261	19886.63
461.466	18309.69
461.672	17762.89
461.878	18868.79
462.083	17877.57
462.289	17312.33
462.494	17474.12
462.7	16628.31
462.905	16028.26
463.111	16513.63
463.316	16757.33
463.522	16409.18
463.727	16112.22
463.932	16257.63
464.138	16188
464.343	16118.37
464.549	15538.79
464.754	16519.77
464.959	16114.27
465.165	15909.47
465.37	15342.19
465.575	14881.39
465.781	15532.65
465.986	15620.71
466.191	15102.57
466.397	14858.87
466.602	13884.03
466.807	14613.11
467.012	14535.29
467.218	14400.12
467.423	14518.9
467.628	14469.75
467.833	14887.54
468.038	14469.75
468.244	14187.13
468.449	14754.42
468.654	13933.18
468.859	13986.43
469.064	13941.38
469.269	13410.95
469.474	13464.2
469.679	13888.13
469.885	13292.17
470.09	13718.15
470.295	13363.85
470.5	12794.51
470.705	13378.19
470.91	13001.36
471.115	12802.71
471.32	13046.41
471.525	12812.95
471.73	12448.41
471.935	12673.68
472.139	12100.25
472.344	12364.44
472.549	12198.56
472.754	12130.97
472.959	11524.77
473.164	11483.81
473.369	11387.56
473.574	11891.36
473.778	11600.55
473.983	11563.68
474.188	11561.64
474.393	10928.81
474.598	11055.79
474.802	10945.2
475.007	10891.95
475.212	10906.29
475.417	10431.16
475.621	10527.41
475.826	10533.56
476.031	10093.24
476.235	9933.5
476.44	10369.72
476.645	10011.32
476.849	10029.76
477.054	9722.56
477.259	9661.12
477.463	9968.32
477.668	9489.09
477.872	9589.44
478.077	9507.52
478.282	9372.36
478.486	9114.31
478.691	9341.64
478.895	9155.27
479.1	9163.47
479.304	9028.3
479.509	8821.45
479.713	9153.23
479.918	8698.58
480.122	8706.77
480.326	8751.82
480.531	8768.21
480.735	8684.24
480.94	8598.23
481.144	9011.92
481.348	8436.44
481.553	8477.4
481.757	8452.82
481.961	8528.6
482.166	8555.22
482.37	8587.99
482.574	8366.81
482.778	8477.4
482.983	8420.05
483.187	8520.4
483.391	8624.85
483.595	8440.53
483.8	8256.22
484.004	8403.67
484.208	8594.13
484.412	8266.46
484.616	8547.03
484.821	8540.88
485.025	8286.93
485.229	8571.6
485.433	8329.94
485.637	8258.26
485.841	8395.48
486.045	8190.68
486.249	8340.18
486.453	8456.92
486.657	8340.18
486.861	8532.69
487.065	8346.33
487.269	8344.28
487.473	8207.06
487.677	8565.46
487.881	8555.22
488.085	8375
488.289	8530.64
488.493	8688.34
488.697	8624.85
488.901	8544.98
489.105	8573.65
489.309	8418
489.512	8684.24
489.716	8463.06
489.92	8538.84
490.124	8780.5
490.328	8684.24
490.531	8522.45
490.735	8626.9
490.939	8698.58
491.143	8487.64
491.346	8700.62
491.55	8934.09
491.754	8671.95
491.958	8925.9
492.161	8901.33
492.365	9085.64
492.569	9155.27
492.772	8798.93
492.976	8915.66
493.18	9030.35
493.383	9063.12
493.587	8964.81
493.79	9323.21
493.994	9085.64
494.197	9315.02
494.401	9401.03
494.605	9454.28
494.808	9536.2
495.012	9364.17
495.215	9845.44
495.419	9751.23
495.622	9700.03
495.825	9702.08
496.029	9593.54
496.232	10121.91
496.436	10009.28
496.639	10379.96
496.843	10123.96
497.046	10386.1
497.249	10425.01
497.453	10486.45
497.656	10463.93
497.859	10656.43
498.063	10683.06
498.266	10945.2
498.469	10875.57
498.673	11074.22
498.876	11207.34
499.079	11145.9
499.282	11152.04
499.485	11502.25
499.689	11690.66
499.892	11879.07
500.095	11881.12
500.298	12028.57
500.501	11870.88
500.705	12339.87
500.908	12235.42
501.111	12548.76
501.314	12497.56
501.517	12890.77
501.72	12808.85
501.923	13103.76
502.126	13372.04
502.329	13314.7
502.532	13367.95
502.735	13675.14
502.938	13773.44
503.141	13607.56
503.344	14043.78
503.547	14066.3
503.75	14432.89
503.953	14500.47
504.156	14619.25
504.359	14760.56
504.562	14832.24
504.765	15227.5
504.968	15145.58
505.17	15321.71
505.373	15317.61
505.576	15624.81
505.779	15858.28
505.982	15966.82
506.185	16456.28
506.387	16382.56
506.59	16593.5
506.793	16765.53
506.996	16634.46
507.198	17107.54
507.401	17140.3
507.604	17101.39
507.807	17791.56
508.009	17541.71
508.212	17809.99
508.415	17910.34
508.617	18229.82
508.82	18281.02
509.022	18278.97
509.225	18821.69
509.428	18731.58
509.63	18952.76
509.833	19221.04
510.035	19730.98
510.238	19569.19
510.44	19663.4
510.643	20042.28
510.845	20226.59
511.048	20220.45
511.25	20455.97
511.453	20546.08
511.655	21252.63
511.858	20759.06
512.06	21152.27
512.262	21305.87
512.465	21414.41
512.667	21578.25
512.87	21830.15
513.072	21731.85
513.274	22272.51
513.477	22639.1
513.679	22665.72
513.881	22735.35
514.084	23163.38
514.286	23312.88
514.488	23163.38
514.69	24074.73
514.893	23919.08
515.095	24207.84
515.297	24390.11
515.499	24523.23
515.701	24918.49
515.904	24852.95
516.106	24861.15
516.308	24979.93
516.51	25416.15
516.712	25657.81
516.914	25854.41
517.116	26202.57
517.318	26546.62
517.52	26669.5
517.722	26550.72
517.925	27298.23
518.127	27181.49
518.329	27347.38
518.531	27124.15
518.733	27728.3
518.935	27943.34
519.136	27625.9
519.338	28414.37
519.54	28797.34
519.742	29098.39
519.944	29114.78
520.146	29438.36
520.348	29270.42
520.55	29391.25
520.752	29628.82
520.954	29960.59
521.155	30048.65
521.357	30488.96
521.559	30376.33
521.761	31021.44
521.963	31275.38
522.164	31113.59
522.366	30931.33
522.568	31648.11
522.77	31433.08
522.971	32160.11
523.173	31678.83
523.375	32145.77
523.576	32139.63
523.778	32252.27
523.98	32561.51
524.181	32754.02
524.383	32754.02
524.584	33007.97
524.786	32977.25
524.988	33399.13
525.189	33821.01
525.391	33587.54
525.592	33319.26
525.794	33825.11
525.995	33904.98
526.197	33761.62
526.398	34150.73
526.6	34666.82
526.801	34589
527.003	34732.36
527.204	34748.74
527.406	35047.74
527.607	34507.08
527.808	35029.31
528.01	34750.79
528.211	34834.75
528.412	35711.28
528.614	35451.19
528.815	35359.03
529.016	35328.31
529.218	35004.74
529.419	35404.09
529.62	35522.87
529.822	35694.9
530.023	35551.54
530.224	35309.88
530.425	35594.55
530.626	35303.74
530.828	35365.18
531.029	36274.48
531.23	35397.95
531.431	35721.52
531.632	36008.24
531.833	36081.97
532.035	35911.99
532.236	36231.47
532.437	35987.76
532.638	35942.7
532.839	36571.43
533.04	36057.39
533.241	35801.4
533.442	36563.24
533.643	36544.81
533.844	35971.38
534.045	36370.73
534.246	35905.84
534.447	36745.51
534.648	36491.56
534.849	36524.33
535.05	36114.73
535.251	36532.52
535.451	36061.49
535.652	36225.32
535.853	36266.28
536.054	36370.73
536.255	36180.27
536.456	35881.27
536.657	36751.65
536.857	35983.66
537.058	35780.92
537.259	36032.82
537.46	36114.73
537.66	36282.67
537.861	35883.31
538.062	35768.63
538.263	36200.75
538.463	36043.06
538.664	35983.66
538.865	35987.76
539.065	36178.22
539.266	35793.2
539.466	36266.28
539.667	35651.89
539.868	36524.33
540.068	35889.46
540.269	35729.72
540.469	36153.65
540.67	35655.99
540.87	35971.38
541.071	35873.07
541.271	36198.7
541.472	36030.77
541.672	35551.54
541.873	35834.16
542.073	35596.6
542.274	36200.75
542.474	35858.74
542.675	35727.67
542.875	35877.17
543.075	35701.04
543.276	35391.8
543.476	35856.69
543.676	35746.1
543.877	35838.26
544.077	35911.99
544.277	35576.12
544.478	35721.52
544.678	35701.04
544.878	35488.06
545.078	35457.34
545.279	35299.64
545.479	35375.42
545.679	35359.03
545.879	35344.7
546.079	35416.38
546.28	35424.57
546.48	35375.42
546.68	35574.07
546.88	35453.24
547.08	35385.66
547.28	35152.19
547.48	35410.23
547.68	35547.45
547.88	34976.06
548.081	35381.56
548.281	35483.96
548.481	34963.78
548.681	35361.08
548.881	35152.19
549.081	35258.68
549.28	35465.53
549.48	35569.97
549.68	35000.64
549.88	35742
550.08	35166.52
550.28	35283.26
550.48	34943.3
550.68	35463.48
550.88	34763.07
551.08	34967.87
551.279	35035.45
551.479	35193.15
551.679	35107.13
551.879	35062.08
552.079	34955.58
552.278	34705.73
552.478	35080.51
552.678	34826.56
552.878	34992.45
553.077	34949.44
553.277	34695.49
553.477	35336.51
553.676	34750.79
553.876	34629.96
554.076	34455.88
554.275	34589
554.475	34273.61
554.674	34869.57
554.874	34550.09
555.074	34580.81
555.273	34939.2
555.473	34851.14
555.672	34378.06
555.872	34629.96
556.071	34728.26
556.271	34820.42
556.47	34459.98
556.67	34306.38
556.869	34318.67
557.068	34918.72
557.268	34277.71
557.467	34466.12
557.667	33974.61
557.866	34144.59
558.065	33978.7
558.265	34005.33
558.464	33945.94
558.663	34435.4
558.863	33919.31
559.062	34675.01
559.261	33798.48
559.461	34568.52
559.66	33757.52
559.859	33419.61
560.058	33468.76
560.258	33509.72
560.457	33487.19
560.656	34040.14
560.855	33702.23
561.054	34019.66
561.253	33548.63
561.453	33550.68
561.652	33610.07
561.851	33712.47
562.05	33231.19
562.249	33247.58
562.448	33554.77
562.647	33601.88
562.846	33030.49
563.045	33345.88
563.244	32876.9
563.443	33374.55
563.642	32651.62
563.841	32921.95
564.04	32721.25
564.239	33188.19
564.438	32770.4
564.637	32811.36
564.836	32747.87
565.035	32299.37
565.234	32655.72
565.432	32506.21
565.631	32463.21
565.83	32379.24
566.029	31889.77
566.228	32239.98
566.427	32180.59
566.625	31938.93
566.824	31785.33
567.023	32137.58
567.222	31471.99
567.42	32256.36
567.619	32022.89
567.818	31859.06
568.016	31723.89
568.215	32276.84
568.414	31740.27
568.612	31887.73
568.811	31197.56
569.01	31412.6
569.208	31191.42
569.407	31345.02
569.605	31023.48
569.804	31471.99
570.002	31185.27
570.201	31043.96
570.4	31013.24
570.598	30968.19
570.797	31035.77
570.995	31039.87
571.193	30632.32
571.392	31015.29
571.59	30316.93
571.789	30546.31
571.987	30495.11
572.186	30296.46
572.384	30474.63
572.582	30142.86
572.781	30607.75
572.979	29972.88
573.177	29954.44
573.376	30382.47
573.574	29618.58
573.772	29661.58
573.971	29884.81
574.169	29643.15
574.367	29628.82
574.565	29962.64
574.763	29641.11
574.962	29677.97
575.16	29344.15
575.358	29696.4
575.556	29143.45
575.754	29393.3
575.952	29151.64
576.151	29258.13
576.349	29020.57
576.547	29110.68
576.745	28783.01
576.943	28971.42
577.141	28694.94
577.339	28723.62
577.537	28864.92
577.735	28662.18
577.933	28228.01
578.131	28719.52
578.329	28422.56
578.527	28211.62
578.725	28268.97
578.923	28385.7
579.121	28168.62
579.319	28055.98
579.516	28264.87
579.714	28156.33
579.912	28000.68
580.11	27826.6
580.308	28012.97
580.506	27425.2
580.704	27527.6
580.901	27457.97
581.099	27824.56
581.297	27623.86
581.495	27382.2
581.692	27836.84
581.89	26988.99
582.088	27402.68
582.285	27642.29
582.483	27394.48
582.681	27281.85
582.878	27009.47
583.076	26847.68
583.274	26993.08
583.471	26440.13
583.669	26720.7
583.866	26677.69
584.064	26614.21
584.262	26266.05
584.459	26728.89
584.657	26122.69
584.854	26366.4
585.052	26100.17
585.249	26198.47
585.447	26315.2
585.644	25891.27
585.841	26321.35
586.039	26020.3
586.236	25702.86
586.434	25960.91
586.631	25579.98
586.828	25835.98
587.026	25700.81
587.223	25704.91
587.42	25528.78
587.618	25485.78
587.815	25225.68
588.012	25350.61
588.21	24953.3
588.407	25188.82
588.604	24865.24
588.801	24873.43
588.999	24789.47
589.196	24773.08
589.393	24912.35
589.59	24660.45
589.787	24644.06
589.984	24547.81
590.182	24035.81
590.379	24541.66
590.576	24203.75
590.773	24523.23
590.97	24136.17
591.167	24304.1
591.364	23904.74
591.561	24386.02
591.758	24162.79
591.955	23978.47
592.152	24023.53
592.349	23585.26
592.546	23609.84
592.743	23894.5
592.94	23548.4
593.137	23671.28
593.334	23757.29
593.531	23230.96
593.727	23095.8
593.924	23355.89
594.121	22979.06
594.318	23439.86
594.515	22804.99
594.712	23286.26
594.908	22860.28
595.105	22977.01
595.302	22682.11
595.499	22733.31
595.696	22829.56
595.892	22827.51
596.089	22465.02
596.286	22616.57
596.482	22573.56
596.679	22645.24
596.876	22604.28
597.072	22481.41
597.269	22266.37
597.466	21819.91
597.662	21959.17
597.859	22041.09
598.055	22024.71
598.252	21983.75
598.448	21748.23
598.645	21621.26
598.841	21633.55
599.038	21596.68
599.234	21682.7
599.431	21377.55
599.627	21410.32
599.824	21410.32
600.02	21045.78
600.217	21185.04
600.413	21260.82
600.609	21144.08
600.806	20916.76
601.002	21223.95
601.198	20873.75
601.395	21174.8
601.591	20834.84
601.787	20869.65
601.984	20775.45
602.18	20937.24
602.376	20419.1
602.572	20335.14
602.769	20722.2
602.965	20376.09
603.161	20531.74
603.357	20277.79
603.553	20142.63
603.75	20335.14
603.946	19976.74
604.142	20230.69
604.338	19843.62
604.534	19946.02
604.73	19730.98
604.926	19878.44
605.122	19886.63
605.318	19884.58
605.514	19786.28
605.71	19610.15
605.906	19495.47
606.102	19329.58
606.298	19307.05
606.494	19413.55
606.69	19483.18
606.886	19284.53
607.082	19143.22
607.278	19522.09
607.474	19069.49
607.67	19499.56
607.866	18954.8
608.062	19221.04
608.257	19055.15
608.453	19186.22
608.649	19169.84
608.845	18842.17
609.041	18764.34
609.236	19186.22
609.432	19010.1
609.628	18782.77
609.824	18987.57
610.019	18473.53
610.215	18598.46
610.411	18733.62
610.606	18397.76
610.802	18539.07
610.998	18496.06
611.193	18532.92
611.389	18434.62
611.584	18268.73
611.78	18281.02
611.976	18307.65
612.171	18444.86
612.367	18332.22
612.562	17969.73
612.758	17795.65
612.953	18020.93
613.149	18174.53
613.344	17728.07
613.539	18362.94
613.735	17969.73
613.93	18061.89
614.126	17754.69
614.321	18027.07
614.517	17922.63
614.712	17830.47
614.907	17777.22
615.103	18049.6
615.298	17648.2
615.493	17912.39
615.688	17883.72
615.884	17873.48
616.079	17607.24
616.274	17541.71
616.47	17576.52
616.665	17553.99
616.86	17449.55
617.055	17367.63
617.25	17615.43
617.445	17384.01
617.641	17119.82
617.836	17541.71
618.031	17132.11
618.226	17005.14
618.421	16904.79
618.616	17209.93
618.811	16915.03
619.006	17187.41
619.201	16941.65
619.396	16898.64
619.591	16804.44
619.786	16945.75
619.981	16396.89
620.176	16630.36
620.371	16306.78
620.566	16589.4
620.761	16321.12
620.956	16380.51
621.151	16108.13
621.346	16120.42
621.541	15878.76
621.735	16177.76
621.93	15985.25
622.125	15843.94
622.32	15491.69
622.515	16071.26
622.709	15596.14
622.904	15764.07
623.099	15247.98
623.294	15420.01
623.488	15557.22
623.683	15481.45
623.878	15032.94
624.072	15192.69
624.267	15149.68
624.462	14686.84
624.656	14920.31
624.851	14832.24
625.046	14742.13
625.24	14789.24
625.435	14387.83
625.629	14502.52
625.824	14328.44
626.018	14580.34
626.213	14260.86
626.407	14303.87
626.602	13830.79
626.796	14156.41
626.991	14068.35
627.185	13916.8
627.38	14017.15
627.574	13677.19
627.768	13726.34
627.963	13650.57
628.157	13398.66
628.352	13335.18
628.546	13484.68
628.74	13660.8
628.935	13214.35
629.129	13245.07
629.323	12886.67
629.517	13357.71
629.712	13116.05
629.906	12876.43
630.1	12800.66
630.294	12722.84
630.489	12581.53
630.683	12917.39
630.877	12520.09
631.071	12417.69
631.265	12565.14
631.459	12495.51
631.653	12216.99
631.848	12247.71
632.042	12077.73
632.236	12208.8
632.43	11963.04
632.624	12141.21
632.818	11942.56
633.012	11743.91
633.206	11770.53
633.4	11848.35
633.594	11772.58
633.788	11821.73
633.982	11647.65
634.176	11571.88
634.369	11532.97
634.563	11780.77
634.757	11344.55
634.951	11281.07
635.145	11489.96
635.339	11115.18
635.533	11262.63
635.726	10998.45
635.92	10715.83
636.114	10881.71
636.308	11059.88
636.501	10783.41
636.695	10738.35
636.889	10834.61
637.083	10633.91
637.276	10396.34
637.47	10656.43
637.664	10498.74
637.857	10494.65
638.051	10373.82
638.244	10150.59
638.438	10373.82
638.632	10150.59
638.825	10003.13
639.019	10117.82
639.212	10099.39
639.406	10132.15
639.599	9931.45
639.793	10062.52
639.986	9814.72
640.18	9964.22
640.373	9691.84
640.567	9792.19
640.76	9661.12
640.954	9642.69
641.147	9476.8
641.34	9495.24
641.534	9595.59
641.727	9591.49
641.92	9208.52
642.114	9456.33
642.307	9319.11
642.5	9112.27
642.694	9016.01
642.887	9118.41
643.08	9169.61
643.273	9054.92
643.467	8927.95
643.66	8778.45
643.853	8913.61
644.046	8717.01
644.239	8827.6
644.432	8729.3
644.626	8649.43
644.819	8516.31
645.012	8590.03
645.205	8551.12
645.398	8614.61
645.591	8590.03
645.784	8469.2
645.977	8299.22
646.17	8276.7
646.363	8260.31
646.556	8274.65
646.749	8127.19
646.942	8317.65
647.135	8035.03
647.328	8000.22
647.521	7869.15
647.714	7873.25
647.907	7807.71
648.099	7738.08
648.292	8075.99
648.485	7854.81
648.678	7643.87
648.871	7633.63
649.064	7582.43
649.256	7647.97
649.449	7641.82
649.642	7434.98
649.835	7613.15
650.027	7535.33
650.22	7541.47
650.413	7412.45
650.605	7408.36
650.798	7238.37
650.991	7301.86
651.183	7250.66
651.376	7189.22
651.568	7004.91
651.761	7201.51
651.954	7158.5
652.146	7152.36
652.339	7062.25
652.531	7015.15
652.724	6992.62
652.916	6892.27
653.109	6875.88
653.301	6841.07
653.494	6777.58
653.686	6605.55
653.879	6781.68
654.071	6724.33
654.263	6654.7
654.456	6554.35
654.648	6578.93
654.84	6515.44
655.033	6537.97
655.225	6376.18
655.417	6445.81
655.61	6427.38
655.802	6347.51
655.994	6329.08
656.186	6365.94
656.379	6361.84
656.571	6374.13
656.763	6052.6
656.955	6320.88
657.148	6060.79
657.34	6046.46
657.532	5991.16
657.724	5913.34
657.916	5939.96
658.108	6122.23
658.3	6001.4
658.492	6062.84
658.684	5929.72
658.876	5919.48
659.068	5823.23
659.26	5772.03
659.452	5698.3
659.644	5853.95
659.836	5798.65
660.028	5573.38
660.22	5632.77
660.412	5612.29
660.604	5550.85
660.796	5624.58
660.988	5583.62
661.18	5565.18
661.372	5401.35
661.563	5481.22
661.755	5434.11
661.947	5288.71
662.139	5409.54
662.331	5397.25
662.522	5317.38
662.714	5356.29
662.906	5282.56
663.097	5196.55
663.289	5120.78
663.481	5393.16
663.673	5356.29
663.864	5139.21
664.056	5077.77
664.247	5102.34
664.439	5079.82
664.631	5112.58
664.822	4999.95
665.014	4934.41
665.205	4815.63
665.397	4987.66
665.588	4885.26
665.78	4909.83
665.971	4932.36
666.163	4985.61
666.354	4844.3
666.546	4752.14
666.737	4616.97
666.929	4733.71
667.12	4733.71
667.311	4805.39
667.503	4795.15
667.694	4586.26
667.885	4666.13
668.077	4672.27
668.268	4549.39
668.459	4676.37
668.651	4436.75
668.842	4696.85
669.033	4676.37
669.224	4408.08
669.416	4545.3
669.607	4428.56
669.798	4338.45
669.989	4385.55
670.18	4238.1
670.371	4406.03
670.563	4381.46
670.754	4293.4
670.945	4256.53
671.136	4262.68
671.327	4238.1
671.518	4193.05
671.709	4262.68
671.9	4152.09
672.091	4139.8
672.282	4158.23
672.473	4213.53
672.664	4236.05
672.855	4059.93
673.046	4195.09
673.237	4299.54
673.428	4090.65
673.619	4068.12
673.809	4021.02
674	4131.61
674.191	4068.12
674.382	4193.05
674.573	4080.41
674.764	4043.54
674.954	4031.26
675.145	3978.01
675.336	3926.81
675.527	4131.61
675.717	3951.39
675.908	3926.81
676.099	3832.6
676.289	3963.67
676.48	3877.66
676.671	3959.58
676.861	3844.89
677.052	3975.96
677.243	3765.02
677.433	3900.19
677.624	3717.92
677.814	3736.35
678.005	3855.13
678.195	3863.32
678.386	3812.12
678.576	3762.97
678.767	3781.4
678.957	3562.27
679.148	3785.5
679.338	3756.83
679.529	3760.92
679.719	3703.58
679.909	3691.29
680.1	3652.38
680.29	3752.73
680.481	3711.77
680.671	3633.95
680.861	3652.38
681.052	3595.04
681.242	3486.5
681.432	3719.96
681.622	3535.65
681.813	3771.16
682.003	3459.87
682.193	3541.79
682.383	3603.23
682.573	3627.81
682.764	3492.64
682.954	3676.96
683.144	3597.09
683.334	3443.49
683.524	3543.84
683.714	3556.13
683.904	3420.96
684.094	3617.57
684.284	3525.41
684.474	3683.1
684.664	3529.5
684.854	3476.26
685.044	3484.45
685.234	3484.45
685.424	3320.61
685.614	3253.03
685.804	3296.04
685.994	3326.75
686.184	3451.68
686.374	3459.87
686.564	3304.23
686.753	3269.41
686.943	3312.42
687.133	3306.27
687.323	3336.99
687.513	3134.25
687.702	3283.75
687.892	3203.88
688.082	3115.81
688.272	3160.87
688.461	3158.82
688.651	3238.69
688.841	3128.1
689.03	3103.53
689.22	3093.29
689.41	3154.73
689.599	3040.04
689.789	3119.91
689.979	3005.22
690.168	3035.94
690.358	3068.71
690.547	2999.08
690.737	2974.5
690.926	2939.69
691.116	2839.34
691.305	2906.92
691.495	2904.87
691.684	2857.77
691.874	3013.42
692.063	2814.76
692.252	3070.76
692.442	2988.84
692.631	2851.63
692.82	2972.46
693.01	2818.86
693.199	2806.57
693.388	2900.78
693.578	2831.15
693.767	2716.46
693.956	2775.85
694.146	2700.08
694.335	2745.13
694.524	2777.9
694.713	2765.61
694.902	2798.38
695.092	2732.84
695.281	2667.31
695.47	2706.22
695.659	2626.35
695.848	2712.36
696.037	2585.39
696.226	2728.75
696.415	2612.01
696.604	2722.6
696.793	2644.78
696.982	2732.84
697.171	2646.83
697.36	2779.95
697.549	2759.47
697.738	2689.84
697.927	2683.69
698.116	2597.68
698.305	2681.64
698.494	2665.26
698.683	2642.73
698.872	2806.57
699.061	2695.98
699.25	2706.22
699.438	2583.34
699.627	2519.85
699.816	2655.02
700.005	2681.64
700.193	2601.77
700.382	2601.77
700.571	2712.36
700.76	2650.92
700.948	2648.88
701.137	2487.09
701.326	2628.4
701.514	2628.4
701.703	2681.64
701.892	2601.77
702.08	2603.82
702.269	2652.97
702.457	2712.36
702.646	2712.36
702.834	2648.88
703.023	2710.32
703.212	2609.97
703.4	2855.72
703.589	2624.3
703.777	2566.96
703.965	2689.84
704.154	2644.78
704.342	2642.73
704.531	2644.78
704.719	2646.83
704.907	2612.01
705.096	2583.34
705.284	2681.64
705.472	2765.61
705.661	2601.77
705.849	2677.55
706.037	2722.6
706.226	2716.46
706.414	2659.12
706.602	2691.88
706.79	2620.21
706.979	2646.83
707.167	2607.92
707.355	2673.45
707.543	2607.92
707.731	2761.52
707.919	2831.15
708.107	2632.49
708.296	2569.01
708.484	2624.3
708.672	2702.12
708.86	2681.64
709.048	2534.19
709.236	2677.55
709.424	2556.72
709.612	2644.78
709.8	2683.69
709.988	2663.21
710.176	2710.32
710.364	2704.17
710.551	2630.45
710.739	2558.77
710.927	2560.81
711.115	2497.33
711.303	2597.68
711.491	2702.12
711.679	2626.35
711.866	2722.6
712.054	2652.97
712.242	2601.77
712.43	2532.14
712.617	2765.61
712.805	2675.5
712.993	2636.59
713.181	2636.59
713.368	2554.67
713.556	2763.56
713.744	2530.09
713.931	2825
714.119	2708.27
714.306	2562.86
714.494	2636.59
714.682	2618.16
714.869	2685.74
715.057	2628.4
715.244	2661.16
715.432	2671.4
715.619	2724.65
715.807	2591.53
715.994	2609.97
716.182	2575.15
716.369	2689.84
716.556	2630.45
716.744	2542.38
716.931	2685.74
717.119	2644.78
717.306	2569.01
717.493	2605.87
717.681	2691.88
717.868	2515.76
718.055	2620.21
718.242	2607.92
718.43	2626.35
718.617	2575.15
718.804	2534.19
718.991	2687.79
719.179	2519.85
719.366	2675.5
719.553	2708.27
719.74	2638.64
719.927	2569.01
720.114	2423.6
720.301	2720.56
720.488	2493.23
720.676	2503.47
720.863	2603.82
721.05	2657.07
721.237	2616.11
721.424	2571.05
721.611	2609.97
721.798	2534.19
721.985	2517.81
722.172	2526
722.358	2564.91
722.545	2585.39
722.732	2466.61
722.919	2642.73
723.106	2489.14
723.293	2575.15
723.48	2579.25
723.667	2421.55
723.853	2437.94
724.04	2556.72
724.227	2581.29
724.414	2566.96
724.6	2480.94
724.787	2544.43
724.974	2538.29
725.161	2513.71
725.347	2513.71
725.534	2530.09
725.72	2616.11
725.907	2571.05
726.094	2495.28
726.28	2468.66
726.467	2571.05
726.653	2491.18
726.84	2476.85
727.027	2507.57
727.213	2521.9
727.4	2601.77
727.586	2425.65
727.773	2435.89
727.959	2384.69
728.145	2487.09
728.332	2448.18
728.518	2462.51
728.705	2507.57
728.891	2501.42
729.077	2462.51
729.264	2417.46
729.45	2528.05
729.636	2419.5
729.823	2448.18
730.009	2571.05
730.195	2415.41
730.382	2444.08
730.568	2411.31
730.754	2439.98
730.94	2493.23
731.126	2378.55
731.313	2310.96
731.499	2544.43
731.685	2323.25
731.871	2466.61
732.057	2370.35
732.243	2454.32
732.429	2423.6
732.615	2407.22
732.801	2304.82
732.987	2339.63
733.173	2560.81
733.359	2386.74
733.545	2450.22
733.731	2515.76
733.917	2386.74
734.103	2413.36
734.289	2427.7
734.475	2249.52
734.661	2534.19
734.847	2392.88
735.033	2366.26
735.219	2296.63
735.404	2448.18
735.59	2255.67
735.776	2327.35
735.962	2401.07
736.148	2300.72
736.333	2317.11
736.519	2298.67
736.705	2325.3
736.89	2313.01
737.076	2356.02
737.262	2366.26
737.447	2249.52
737.633	2114.36
737.819	2263.86
738.004	2218.8
738.19	2278.19
738.375	2274.1
738.561	2243.38
738.747	2261.81
738.932	2270
739.118	2270
739.303	2220.85
739.489	2192.18
739.674	2210.61
739.859	2183.99
740.045	2065.21
740.23	2171.7
740.416	2188.08
740.601	2257.71
740.786	2116.41
740.972	2175.8
741.157	2149.17
741.342	2179.89
741.528	2042.68
741.713	2126.64
741.898	1985.34
742.084	2087.73
742.269	2155.32
742.454	2126.64
742.639	2091.83
742.824	2081.59
743.01	2071.35
743.195	2128.69
743.38	2016.05
743.565	2046.77
743.75	2054.97
743.935	2009.91
744.12	2153.27
744.305	2009.91
744.49	1971
744.675	1903.42
744.86	2014.01
745.045	1966.9
745.23	1864.5
745.415	1948.47
745.6	1968.95
745.785	1966.9
745.97	2038.58
746.155	1958.71
746.34	1905.46
746.525	1950.52
746.71	1964.86
746.895	1727.29
747.079	1837.88
747.264	1844.03
747.449	1796.92
747.634	1760.06
747.819	1864.5
748.003	1735.48
748.188	1723.2
748.373	1805.11
748.557	1657.66
748.742	1805.11
748.927	1809.21
749.111	1704.76
749.296	1645.37
749.481	1758.01
749.665	1616.7
749.85	1639.23
750.034	1663.8
750.219	1588.03
750.404	1665.85
750.588	1583.93
750.773	1639.23
750.957	1612.6
751.141	1487.68
751.326	1626.94
751.51	1585.98
751.695	1600.32
751.879	1641.28
752.064	1538.88
752.248	1547.07
752.432	1534.78
752.617	1551.17
752.801	1571.65
752.985	1540.93
753.17	1516.35
753.354	1542.97
753.538	1477.44
753.722	1450.82
753.907	1411.9
754.091	1438.53
754.275	1317.7
754.459	1387.33
754.643	1418.05
754.828	1342.27
755.012	1413.95
755.196	1344.32
755.38	1352.51
755.564	1213.25
755.748	1274.69
755.932	1381.18
756.116	1360.7
756.3	1248.07
756.484	1266.5
756.668	1297.22
756.852	1231.68
757.036	1346.37
757.22	1327.94
757.404	1184.58
757.588	1315.65
757.772	1205.06
757.956	1139.52
758.14	1211.2
758.323	1180.48
758.507	1151.81
758.691	1241.92
758.875	1215.3
759.059	1096.52
759.242	1162.05
759.426	1119.04
759.61	1084.23
759.794	1121.09
759.977	1141.57
760.161	1250.11
760.345	1155.91
760.528	1192.77
760.712	1135.43
760.895	1129.28
761.079	1063.75
761.263	969.54
761.446	942.92
761.63	1026.89
761.813	1153.86
761.997	1055.56
762.18	998.21
762.364	1069.89
762.547	1069.89
762.731	1108.8
762.914	1016.65
763.098	1057.61
763.281	1018.69
763.464	1119.04
763.648	1041.22
763.831	983.88
764.015	1059.65
764.198	998.21
764.381	1057.61
764.564	1010.5
764.748	914.25
764.931	990.02
765.114	1014.6
765.297	957.25
765.481	889.67
765.664	951.11
765.847	969.54
766.03	955.21
766.213	906.06
766.397	990.02
766.58	947.01
766.763	912.2
766.946	885.58
767.129	932.68
767.312	920.39
767.495	869.19
767.678	926.54
767.861	822.09
768.044	912.2
768.227	944.97
768.41	891.72
768.593	973.64
768.776	918.34
768.959	799.56
769.142	924.49
769.324	836.42
769.507	930.63
769.69	861
769.873	842.57
770.056	852.81
770.239	871.24
770.421	920.39
770.604	822.09
770.787	803.66
770.97	822.09
771.152	758.6
771.335	936.78
771.518	867.14
771.7	826.18
771.883	836.42
772.066	832.33
772.248	861
772.431	813.9
772.613	785.23
772.796	836.42
772.978	711.5
773.161	813.9
773.343	836.42
773.526	731.98
773.708	750.41
773.891	731.98
774.073	746.31
774.256	727.88
774.438	772.94
774.621	670.54
774.803	670.54
774.985	643.92
775.168	789.32
775.35	713.55
775.532	684.87
775.715	693.07
775.897	734.03
776.079	672.59
776.261	688.97
776.444	658.25
776.626	670.54
776.808	660.3
776.99	607.05
777.173	594.76
777.355	654.16
777.537	615.24
777.719	615.24
777.901	648.01
778.083	562
778.265	596.81
778.447	527.18
778.629	590.67
778.811	666.44
778.993	576.33
779.175	609.1
779.357	674.64
779.539	584.52
779.721	572.24
779.903	600.91
780.085	639.82
780.267	631.63
780.449	564.04
780.631	557.9
780.812	543.57
780.994	600.91
781.176	576.33
781.358	588.62
781.54	590.67
781.721	631.63
781.903	543.57
782.085	475.98
782.267	518.99
782.448	541.52
782.63	502.61
782.812	557.9
782.993	475.98
783.175	490.32
783.357	488.27
783.538	521.04
783.72	578.38
783.901	496.46
784.083	426.83
784.264	516.94
784.446	521.04
784.627	459.6
784.809	408.4
784.99	426.83
785.172	447.31
785.353	471.89
785.535	369.49
785.716	353.1
785.897	475.98
786.079	492.37
786.26	385.87
786.441	439.12
786.623	432.97
786.804	459.6
786.985	445.26
787.167	394.06
787.348	381.78
787.529	455.5
787.71	412.5
787.891	453.45
788.073	453.45
788.254	338.77
788.435	455.5
788.616	299.86
788.797	328.53
788.978	295.76
789.159	299.86
789.34	346.96
789.522	400.21
789.703	373.58
789.884	346.96
790.065	346.96
790.246	357.2
790.427	344.91
790.607	353.1
790.788	324.43
790.969	334.67
791.15	406.35
791.331	353.1
791.512	344.91
791.693	295.76
791.874	330.58
792.054	342.86
792.235	246.61
792.416	332.62
792.597	334.67
792.778	236.37
792.958	297.81
793.139	357.2
793.32	283.47
793.5	258.9
793.681	381.78
793.862	279.38
794.042	318.29
794.223	269.14
794.404	236.37
794.584	316.24
794.765	262.99
794.945	336.72
795.126	295.76
795.306	265.04
795.487	260.95
795.667	271.19
795.848	242.51
796.028	195.41
796.209	234.32
796.389	299.86
796.57	342.86
796.75	236.37
796.93	277.33
797.111	211.79
797.291	279.38
797.471	322.38
797.652	185.17
797.832	205.65
798.012	262.99
798.192	273.23
798.373	240.47
798.553	217.94
798.733	199.51
798.913	238.42
799.093	226.13
799.274	219.99
799.454	224.08
799.634	267.09
799.814	222.03
799.994	201.55
800.174	293.71
800.354	224.08
800.534	193.36
800.714	224.08
800.894	240.47
801.074	201.55
801.254	205.65
801.434	267.09
801.614	230.23
801.794	250.71
801.974	648.01
802.154	205.65
802.334	176.98
802.514	176.98
802.693	215.89
802.873	246.61
803.053	297.81
803.233	217.94
803.413	262.99
803.592	207.7
803.772	193.36
803.952	215.89
804.131	226.13
804.311	219.99
804.491	217.94
804.67	187.22
804.85	258.9
805.03	238.42
805.209	258.9
805.389	193.36
805.568	170.83
805.748	211.79
805.928	164.69
806.107	273.23
806.287	219.99
806.466	140.12
806.646	217.94
806.825	228.18
807.004	222.03
807.184	131.92
807.363	205.65
807.543	121.68
807.722	127.83
807.901	142.16
808.081	207.7
808.26	150.36
808.439	176.98
808.619	150.36
808.798	258.9
808.977	201.55
809.156	219.99
809.336	162.64
809.515	152.4
809.694	160.59
809.873	172.88
810.052	197.46
810.231	234.32
810.411	156.5
810.59	207.7
810.769	195.41
810.948	183.12
811.127	230.23
811.306	150.36
811.485	201.55
811.664	138.07
811.843	187.22
812.022	215.89
812.201	74.58
812.38	162.64
812.559	183.12
812.737	158.55
812.916	150.36
813.095	146.26
813.274	117.59
813.453	203.6
813.632	166.74
813.811	115.54
813.989	150.36
814.168	99.16
814.347	162.64
814.526	133.97
814.704	166.74
814.883	123.73
815.062	131.92
815.24	142.16
815.419	172.88
815.598	101.2
815.776	121.68
815.955	150.36
816.133	72.53
816.312	150.36
816.49	90.96
816.669	156.5
816.847	179.03
817.026	142.16
817.204	90.96
817.383	156.5
817.561	97.11
817.74	150.36
817.918	123.73
818.097	105.3
818.275	174.93
818.453	181.07
818.632	222.03
818.81	78.68
818.988	150.36
819.167	144.21
819.345	162.64
819.523	127.83
819.701	170.83
819.879	125.78
820.058	97.11
820.236	125.78
820.414	74.58
820.592	140.12
820.77	117.59
820.948	88.92
821.127	99.16
821.305	72.53
821.483	121.68
821.661	66.39
821.839	95.06
822.017	109.4
822.195	109.4
822.373	181.07
822.551	60.24
822.729	127.83
822.907	90.96
823.085	119.64
823.262	56.15
823.44	133.97
823.618	152.4
823.796	90.96
823.974	47.96
824.152	23.38
824.329	37.72
824.507	84.82
824.685	144.21
824.863	99.16
825.04	119.64
825.218	45.91
825.396	84.82
825.574	115.54
825.751	111.44
825.929	115.54
826.107	103.25
826.284	90.96
826.462	84.82
826.639	80.72
826.817	113.49
826.994	113.49
827.172	107.35
827.349	123.73
827.527	72.53
827.704	113.49
827.882	31.57
828.059	187.22
828.237	82.77
828.414	117.59
828.591	97.11
828.769	107.35
828.946	41.81
829.124	64.34
829.301	80.72
829.478	76.63
829.655	125.78
829.833	76.63
830.01	70.48
830.187	54.1
830.364	76.63
830.542	86.87
830.719	103.25
830.896	45.91
831.073	56.15
831.25	45.91
831.427	97.11
831.604	33.62
831.782	117.59
831.959	-5.29
832.136	33.62
832.313	97.11
832.49	90.96
832.667	50
832.844	56.15
833.021	109.4
833.198	93.01
833.374	150.36
833.551	88.92
833.728	95.06
833.905	119.64
834.082	43.86
834.259	80.72
834.436	113.49
834.612	76.63
834.789	138.07
834.966	27.48
835.143	105.3
835.319	64.34
835.496	117.59
835.673	66.39
835.85	101.2
836.026	76.63
836.203	86.87
836.38	133.97
836.556	117.59
836.733	52.05
836.909	127.83
837.086	-9.39
837.262	-5.29
837.439	31.57
837.616	31.57
837.792	123.73
837.968	97.11
838.145	-15.53
838.321	103.25
838.498	11.09
838.674	95.06
838.851	76.63
839.027	68.44
839.203	15.19
839.38	90.96
839.556	60.24
839.732	72.53
839.909	27.48
840.085	99.16
840.261	54.1
840.437	78.68
840.614	27.48
840.79	129.88
840.966	88.92
841.142	60.24
841.318	76.63
841.494	101.2
841.671	23.38
841.847	21.33
842.023	19.29
842.199	150.36
842.375	7
842.551	50
842.727	66.39
842.903	50
843.079	15.19
843.255	82.77
843.431	-13.48
843.607	99.16
843.783	4.95
843.959	41.81
844.134	-13.48
844.31	52.05
844.486	27.48
844.662	25.43
844.838	62.29
845.013	136.02
845.189	-9.39
845.365	35.67
845.541	95.06
845.716	29.52
845.892	88.92
846.068	82.77
846.244	66.39
846.419	45.91
846.595	19.29
846.77	45.91
846.946	84.82
847.122	-9.39
847.297	43.86
847.473	-15.53
847.648	-3.24
847.824	19.29
847.999	13.14
848.175	97.11
848.35	82.77
848.526	17.24
848.701	54.1
848.876	50
849.052	70.48
849.227	25.43
849.403	58.2
849.578	80.72
849.753	-27.82
849.929	101.2
850.104	15.19
850.279	-40.11
850.454	78.68
850.63	29.52
850.805	-11.43
850.98	52.05
851.155	19.29
851.33	76.63
851.505	78.68
851.681	56.15
851.856	58.2
852.031	-27.82
852.206	60.24
852.381	23.38
852.556	31.57
852.731	43.86
852.906	78.68
853.081	31.57
853.256	58.2
853.431	31.57
853.606	31.57
853.781	52.05
853.956	43.86
854.131	105.3
854.305	-31.91
854.48	33.62
854.655	-1.19
854.83	62.29
855.005	52.05
855.18	33.62
855.354	84.82
855.529	60.24
855.704	29.52
855.879	25.43
856.053	0.85
856.228	39.76
856.403	4.95
856.577	-31.91
856.752	39.76
856.926	50
857.101	29.52
857.276	-13.48
857.45	11.09
857.625	-27.82
857.799	-38.06
857.974	68.44
858.148	-5.29
858.323	56.15
858.497	82.77
858.672	117.59
858.846	-3.24
859.02	76.63
859.195	58.2
859.369	45.91
859.543	11.09
859.718	103.25
859.892	15.19
860.066	33.62
860.241	15.19
860.415	72.53
860.589	60.24
860.763	31.57
860.938	11.09
861.112	74.58
861.286	4.95
861.46	33.62
861.634	19.29
861.808	74.58
861.982	35.67
862.157	-1.19
862.331	29.52
862.505	-23.72
862.679	-3.24
862.853	31.57
863.027	-42.15
863.201	2.9
863.375	-17.58
863.549	13.14
863.722	15.19
863.896	60.24
864.07	60.24
864.244	52.05
864.418	41.81
864.592	99.16
864.766	105.3
864.939	35.67
865.113	7
865.287	74.58
865.461	-5.29
865.634	0.85
865.808	90.96
865.982	23.38
866.156	25.43
866.329	31.57
866.503	50
866.676	43.86
866.85	72.53
867.024	50
867.197	101.2
867.371	105.3
867.544	-93.35
867.718	25.43
867.891	2.9
868.065	23.38
868.238	39.76
868.412	0.85
868.585	7
868.759	47.96
868.932	-3.24
869.105	13.14
869.279	62.29
869.452	2.9
869.625	33.62
869.799	-5.29
869.972	17.24
870.145	25.43
870.319	9.05
870.492	-44.2
870.665	74.58
870.838	54.1
871.011	-21.67
871.185	-25.77
871.358	-33.96
871.531	47.96
871.704	4.95
871.877	41.81
872.05	-11.43
872.223	56.15
872.396	9.05
872.569	17.24
872.742	0.85
872.915	45.91
873.088	11.09
873.261	52.05
873.434	72.53
873.607	138.07
873.78	17.24
873.953	47.96
874.126	97.11
874.299	31.57
874.471	23.38
874.644	-11.43
874.817	0.85
874.99	9.05
875.163	-15.53
875.335	9.05
875.508	23.38
875.681	4.95
875.853	43.86
876.026	86.87
876.199	27.48
876.371	11.09
876.544	-13.48
876.717	19.29
876.889	0.85
877.062	21.33
877.234	17.24
877.407	-40.11
877.579	-11.43
877.752	80.72
877.924	9.05
878.097	-7.34
878.269	17.24
878.442	84.82
878.614	-13.48
878.786	19.29
878.959	35.67
879.131	-56.49
879.303	-9.39
879.476	47.96
879.648	-7.34
879.82	52.05
879.993	-15.53
880.165	25.43
880.337	-5.29
880.509	58.2
880.681	31.57
880.854	29.52
881.026	80.72
881.198	99.16
881.37	4.95
881.542	29.52
881.714	72.53
881.886	-23.72
882.058	37.72
882.23	70.48
882.402	7
882.574	-38.06
882.746	23.38
882.918	41.81
883.09	13.14
883.262	-11.43
883.434	31.57
883.606	-7.34
883.778	68.44
883.95	25.43
884.122	-13.48
884.293	60.24
884.465	15.19
884.637	0.85
884.809	-5.29
884.98	27.48
885.152	-23.72
885.324	52.05
885.496	-38.06
885.667	-52.39
885.839	-36.01
886.011	-13.48
886.182	-3.24
886.354	47.96
886.525	-44.2
886.697	-9.39
886.869	60.24
887.04	64.34
887.212	39.76
887.383	2.9
887.555	70.48
887.726	41.81
887.897	-48.3
888.069	58.2
888.24	-7.34
888.412	82.77
888.583	-17.58
888.754	37.72
888.926	-36.01
889.097	88.92
889.268	-11.43
889.44	72.53
889.611	-3.24
889.782	-46.25
889.953	15.19
890.125	93.01
890.296	21.33
890.467	2.9
890.638	-33.96
890.809	90.96
890.98	-36.01
891.151	4.95
891.323	25.43
891.494	78.68
891.665	-7.34
891.836	19.29
892.007	-31.91
892.178	-50.35
892.349	0.85
892.52	-21.67
892.691	80.72
892.862	19.29
893.032	-62.63
893.203	-17.58
893.374	33.62
893.545	47.96
893.716	45.91
893.887	0.85
894.057	-29.87
894.228	31.57
894.399	-13.48
894.57	17.24
894.74	78.68
894.911	23.38
895.082	-7.34
895.253	0.85
895.423	-58.54
895.594	47.96
895.764	9.05
895.935	-31.91
896.106	-54.44
896.276	52.05
896.447	70.48
896.617	-74.92
896.788	-50.35
896.958	31.57
897.129	-85.16
897.299	9.05
897.47	-33.96
897.64	-1.19
897.81	45.91
897.981	21.33
898.151	-21.67
898.322	-11.43
898.492	-83.11
898.662	-7.34
898.832	76.63
899.003	45.91
899.173	-5.29
899.343	62.29
899.513	-15.53
