Data from USB4F104151__20__12-15-11-721.txt Node

Date: Wed Feb 19 12:15:11 EST 2025
User: louis
Spectrometer: USB4F10415
Trigger mode: 4
Integration Time (sec): 2.250200E-1
Scans to average: 1
Electric dark correction enabled: true
Nonlinearity correction enabled: false
Boxcar width: 0
XAxis mode: Wavelengths
Number of Pixels in Spectrum: 3648
>>>>>Begin Spectral Data<<<<<
178.204	-787.96
178.424	-787.96
178.644	-787.96
178.864	-800.24
179.084	-865.78
179.304	117.25
179.524	117.25
179.744	-26.11
179.964	-253.44
180.184	231.93
180.404	182.78
180.624	-173.57
180.844	-97.79
181.064	-7.68
181.283	219.64
181.503	-198.14
181.723	-112.13
181.943	-71.17
182.163	406.01
182.383	-224.76
182.602	-208.38
182.822	360.95
183.042	188.93
183.262	-185.85
183.482	-101.89
183.701	279.04
183.921	233.98
184.141	-171.52
184.361	-151.04
184.58	315.9
184.8	258.56
185.02	-271.87
185.239	-142.85
185.459	274.94
185.679	406.01
185.898	-245.24
186.118	-226.81
186.338	252.41
186.557	352.76
186.777	-204.28
186.997	-124.41
187.216	260.6
187.436	489.98
187.655	-67.07
187.875	-50.69
188.095	227.84
188.314	389.63
188.534	-30.21
188.753	-237.05
188.973	401.91
189.192	520.7
189.412	-253.44
189.631	-224.76
189.851	309.76
190.07	473.59
190.29	-228.86
190.509	-290.3
190.729	154.11
190.948	430.59
191.168	-22.02
191.387	-181.76
191.607	164.35
191.826	246.27
192.045	-48.64
192.265	-194.05
192.484	348.67
192.704	246.27
192.923	-214.52
193.142	-24.06
193.362	311.8
193.581	303.61
193.8	-52.74
194.02	-69.12
194.239	274.94
194.458	324.09
194.678	-79.36
194.897	-183.81
195.116	342.52
195.335	299.52
195.555	-183.81
195.774	-278.01
195.993	344.57
196.212	236.03
196.432	-93.69
196.651	-204.28
196.87	209.4
197.089	553.46
197.308	-189.95
197.528	-112.13
197.747	104.96
197.966	203.26
198.185	-34.3
198.404	-239.1
198.623	256.51
198.842	356.86
199.062	-161.28
199.281	-110.08
199.5	244.22
199.719	291.32
199.938	-194.05
200.157	-142.85
200.376	340.47
200.595	453.11
200.814	-134.65
201.033	-189.95
201.252	461.3
201.471	254.46
201.69	-185.85
201.909	-202.24
202.128	281.08
202.347	301.56
202.566	-132.61
202.785	-265.72
203.004	125.44
203.223	498.17
203.442	-208.38
203.661	-222.72
203.879	348.67
204.098	373.24
204.317	-275.96
204.536	6.66
204.755	373.24
204.974	272.89
205.193	-273.92
205.411	-140.8
205.63	324.09
205.849	326.14
206.068	-159.23
206.287	-318.97
206.505	395.77
206.724	178.69
206.943	-239.1
207.162	-151.04
207.381	250.36
207.599	197.12
207.818	-124.41
208.037	-271.87
208.255	145.92
208.474	252.41
208.693	-124.41
208.911	-175.61
209.13	379.39
209.349	293.37
209.567	-32.26
209.786	-44.54
210.005	291.32
210.223	98.81
210.442	-329.21
210.661	-269.82
210.879	330.23
211.098	152.06
211.316	-120.32
211.535	-77.31
211.753	272.89
211.972	283.13
212.191	-212.48
212.409	-173.57
212.628	406.01
212.846	107.01
213.065	-343.55
213.283	-128.51
213.502	225.79
213.72	305.66
213.938	-198.14
214.157	-163.33
214.375	334.33
214.594	131.58
214.812	-77.31
215.031	-239.1
215.249	205.31
215.467	252.41
215.686	-38.4
215.904	-206.33
216.122	203.26
216.341	367.1
216.559	-22.02
216.778	-36.35
216.996	465.4
217.214	80.38
217.432	-122.37
217.651	-300.54
217.869	250.36
218.087	211.45
218.306	-212.48
218.524	-187.9
218.742	223.74
218.96	377.34
219.179	-173.57
219.397	-224.76
219.615	455.16
219.833	283.13
220.051	-282.11
220.27	-108.03
220.488	360.95
220.706	233.98
220.924	-228.86
221.142	-138.75
221.36	356.86
221.578	274.94
221.796	-175.61
222.015	-108.03
222.233	225.79
222.451	385.53
222.669	-114.17
222.887	-65.02
223.105	147.97
223.323	147.97
223.541	-124.41
223.759	-114.17
223.977	145.92
224.195	426.49
224.413	-112.13
224.631	-159.23
224.849	227.84
225.067	451.07
225.285	-65.02
225.503	-189.95
225.721	-26.11
225.939	258.56
226.157	-67.07
226.375	113.15
226.592	98.81
226.81	152.06
227.028	-38.4
227.246	-144.89
227.464	213.5
227.682	315.9
227.9	-171.52
228.117	-81.41
228.335	295.42
228.553	174.59
228.771	-194.05
228.989	-151.04
229.206	266.75
229.424	111.1
229.642	-202.24
229.86	-173.57
230.077	363
230.295	262.65
230.513	-28.16
230.731	-140.8
230.948	442.87
231.166	383.48
231.384	-101.89
231.601	-165.37
231.819	451.07
232.037	84.48
232.254	-124.41
232.472	-101.89
232.689	229.88
232.907	344.57
233.125	-214.52
233.342	-183.81
233.56	147.97
233.777	170.49
233.995	-171.52
234.213	-118.27
234.43	301.56
234.648	94.72
234.865	-167.42
235.083	-103.93
235.3	225.79
235.518	250.36
235.735	-108.03
235.953	-122.37
236.17	197.12
236.388	107.01
236.605	-1.54
236.822	-136.7
237.04	311.8
237.257	213.5
237.475	-204.28
237.692	-116.22
237.909	301.56
238.127	238.08
238.344	-87.55
238.562	-89.6
238.779	82.43
238.996	-15.87
239.214	-62.98
239.431	-110.08
239.648	147.97
239.865	268.8
240.083	-142.85
240.3	-241.15
240.517	160.25
240.735	160.25
240.952	45.57
241.169	-298.49
241.386	301.56
241.603	131.58
241.821	-194.05
242.038	-122.37
242.255	311.8
242.472	45.57
242.689	-99.84
242.907	-163.33
243.124	238.08
243.341	223.74
243.558	-91.65
243.775	-171.52
243.992	104.96
244.209	322.04
244.426	-40.45
244.643	-116.22
244.86	170.49
245.078	268.8
245.295	-101.89
245.512	-167.42
245.729	117.25
245.946	244.22
246.163	-159.23
246.38	-183.81
246.597	236.03
246.814	186.88
247.031	-58.88
247.248	-159.23
247.464	274.94
247.681	197.12
247.898	-34.3
248.115	35.33
248.332	49.66
248.549	289.28
248.766	-34.3
248.983	-48.64
249.2	322.04
249.417	356.86
249.633	-44.54
249.85	-1.54
250.067	244.22
250.284	246.27
250.501	-138.75
250.717	-140.8
250.934	31.23
251.151	252.41
251.368	-46.59
251.585	-101.89
251.801	211.45
252.018	37.38
252.235	43.52
252.451	-116.22
252.668	133.63
252.885	358.91
253.102	-157.18
253.318	-142.85
253.535	111.1
253.752	147.97
253.968	-138.75
254.185	-222.72
254.401	326.14
254.618	283.13
254.835	-93.69
255.051	-89.6
255.268	311.8
255.484	233.98
255.701	-71.17
255.917	-89.6
256.134	20.99
256.351	154.11
256.567	-159.23
256.784	8.7
257	37.38
257.217	332.28
257.433	49.66
257.65	-42.5
257.866	365.05
258.082	18.94
258.299	-155.13
258.515	-54.78
258.732	166.4
258.948	127.49
259.165	-116.22
259.381	-183.81
259.597	313.85
259.814	160.25
260.03	-148.99
260.246	-50.69
260.463	299.52
260.679	264.7
260.895	-97.79
261.112	-81.41
261.328	274.94
261.544	86.53
261.761	-22.02
261.977	-91.65
262.193	6.66
262.409	324.09
262.626	20.99
262.842	-118.27
263.058	141.82
263.274	301.56
263.49	-105.98
263.707	-130.56
263.923	291.32
264.139	-93.69
264.355	-60.93
264.571	-11.78
264.787	221.69
265.004	389.63
265.22	12.8
265.436	-110.08
265.652	158.21
265.868	231.93
266.084	-222.72
266.3	-85.5
266.516	53.76
266.732	233.98
266.948	-85.5
267.164	-175.61
267.38	317.95
267.596	307.71
267.812	31.23
268.028	-67.07
268.244	76.29
268.46	233.98
268.676	-126.46
268.892	-5.63
269.108	111.1
269.324	43.52
269.54	-198.14
269.756	-99.84
269.972	84.48
270.188	172.54
270.403	-189.95
270.619	-87.55
270.835	246.27
271.051	268.8
271.267	-126.46
271.483	-187.9
271.698	281.08
271.914	193.02
272.13	-15.87
272.346	-110.08
272.562	223.74
272.777	381.43
272.993	-52.74
273.209	-44.54
273.425	266.75
273.64	-7.68
273.856	-38.4
274.072	-198.14
274.287	150.01
274.503	238.08
274.719	12.8
274.934	-159.23
275.15	-30.21
275.366	201.21
275.581	-105.98
275.797	45.57
276.012	270.84
276.228	37.38
276.444	12.8
276.659	14.85
276.875	104.96
277.09	119.29
277.306	-73.21
277.521	-40.45
277.737	233.98
277.952	201.21
278.168	-62.98
278.383	-65.02
278.599	190.97
278.814	258.56
279.03	-99.84
279.245	45.57
279.461	127.49
279.676	244.22
279.892	-1.54
280.107	-136.7
280.322	51.71
280.538	268.8
280.753	-165.37
280.969	-105.98
281.184	242.17
281.399	367.1
281.615	-15.87
281.83	102.91
282.045	-28.16
282.26	102.91
282.476	16.9
282.691	84.48
282.906	160.25
283.122	164.35
283.337	78.33
283.552	8.7
283.767	147.97
283.983	127.49
284.198	-54.78
284.413	-71.17
284.628	39.42
284.843	305.66
285.058	-15.87
285.274	-44.54
285.489	53.76
285.704	168.45
285.919	35.33
286.134	-50.69
286.349	238.08
286.564	98.81
286.779	-15.87
286.995	45.57
287.21	18.94
287.425	225.79
287.64	-67.07
287.855	143.87
288.07	-11.78
288.285	336.38
288.5	-7.68
288.715	-42.5
288.93	211.45
289.145	88.57
289.36	-32.26
289.575	-3.58
289.79	293.37
290.004	23.04
290.219	-3.58
290.434	-142.85
290.649	78.33
290.864	115.2
291.079	-1.54
291.294	-13.82
291.509	240.12
291.724	135.68
291.938	-73.21
292.153	-75.26
292.368	158.21
292.583	162.3
292.798	4.61
293.012	-13.82
293.227	217.6
293.442	168.45
293.657	74.24
293.871	45.57
294.086	295.42
294.301	270.84
294.516	41.47
294.73	29.18
294.945	137.73
295.16	164.35
295.374	76.29
295.589	61.95
295.804	109.05
296.018	109.05
296.233	-28.16
296.447	80.38
296.662	127.49
296.877	311.8
297.091	25.09
297.306	-9.73
297.52	98.81
297.735	307.71
297.949	33.28
298.164	-91.65
298.378	133.63
298.593	76.29
298.807	-9.73
299.022	39.42
299.236	295.42
299.451	20.99
299.665	27.14
299.88	100.86
300.094	281.08
300.309	70.14
300.523	-19.97
300.737	-60.93
300.952	268.8
301.166	260.6
301.381	-81.41
301.595	-175.61
301.809	170.49
302.024	168.45
302.238	-30.21
302.452	100.86
302.667	176.64
302.881	338.43
303.095	57.86
303.309	-7.68
303.524	123.39
303.738	94.72
303.952	72.19
304.166	10.75
304.381	-71.17
304.595	266.75
304.809	-7.68
305.023	-7.68
305.237	139.77
305.452	70.14
305.666	-48.64
305.88	-24.06
306.094	211.45
306.308	201.21
306.522	12.8
306.736	66.05
306.95	315.9
307.164	94.72
307.379	14.85
307.593	98.81
307.807	252.41
308.021	244.22
308.235	12.8
308.449	-134.65
308.663	109.05
308.877	575.99
309.091	98.81
309.305	25.09
309.519	18.94
309.733	229.88
309.947	-132.61
310.161	-48.64
310.374	162.3
310.588	291.32
310.802	-89.6
311.016	33.28
311.23	182.78
311.444	53.76
311.658	16.9
311.872	190.97
312.085	315.9
312.299	258.56
312.513	152.06
312.727	-85.5
312.941	12.8
313.154	102.91
313.368	-7.68
313.582	4.61
313.796	180.73
314.009	143.87
314.223	86.53
314.437	39.42
314.651	207.36
314.864	199.16
315.078	-13.82
315.292	-85.5
315.505	96.77
315.719	164.35
315.933	57.86
316.146	-83.45
316.36	82.43
316.573	250.36
316.787	182.78
317.001	43.52
317.214	4.61
317.428	160.25
317.641	-77.31
317.855	20.99
318.068	221.69
318.282	111.1
318.495	94.72
318.709	-1.54
318.922	150.01
319.136	330.23
319.349	29.18
319.563	-52.74
319.776	291.32
319.99	-28.16
320.203	43.52
320.417	-77.31
320.63	160.25
320.843	281.08
321.057	70.14
321.27	-36.35
321.483	217.6
321.697	223.74
321.91	23.04
322.124	49.66
322.337	186.88
322.55	84.48
322.763	-140.8
322.977	-50.69
323.19	66.05
323.403	154.11
323.617	86.53
323.83	248.32
324.043	172.54
324.256	92.67
324.469	-187.9
324.683	119.29
324.896	158.21
325.109	104.96
325.322	-73.21
325.535	33.28
325.748	307.71
325.962	104.96
326.175	-1.54
326.388	-89.6
326.601	225.79
326.814	111.1
327.027	-15.87
327.24	121.34
327.453	12.8
327.666	207.36
327.879	207.36
328.092	12.8
328.305	260.6
328.518	119.29
328.731	35.33
328.944	25.09
329.157	150.01
329.37	25.09
329.583	86.53
329.796	51.71
330.009	-22.02
330.222	279.04
330.435	33.28
330.648	20.99
330.861	209.4
331.073	180.73
331.286	31.23
331.499	51.71
331.712	145.92
331.925	197.12
332.138	25.09
332.35	-19.97
332.563	154.11
332.776	311.8
332.989	-128.51
333.202	-28.16
333.414	195.07
333.627	145.92
333.84	-73.21
334.053	45.57
334.265	72.19
334.478	55.81
334.691	-7.68
334.903	104.96
335.116	94.72
335.329	150.01
335.541	33.28
335.754	236.03
335.966	115.2
336.179	184.83
336.392	-44.54
336.604	37.38
336.817	254.46
337.029	186.88
337.242	-22.02
337.454	59.9
337.667	180.73
337.88	238.08
338.092	109.05
338.305	84.48
338.517	70.14
338.729	274.94
338.942	-30.21
339.154	-36.35
339.367	78.33
339.579	305.66
339.792	-108.03
340.004	86.53
340.217	94.72
340.429	115.2
340.641	-73.21
340.854	-71.17
341.066	233.98
341.278	268.8
341.491	121.34
341.703	39.42
341.915	18.94
342.128	260.6
342.34	82.43
342.552	-40.45
342.764	156.16
342.977	158.21
343.189	29.18
343.401	92.67
343.613	-69.12
343.826	156.16
344.038	-5.63
344.25	49.66
344.462	16.9
344.674	231.93
344.886	-89.6
345.099	16.9
345.311	213.5
345.523	55.81
345.735	-189.95
345.947	45.57
346.159	248.32
346.371	174.59
346.583	53.76
346.795	127.49
347.007	35.33
347.219	250.36
347.431	-11.78
347.643	94.72
347.855	115.2
348.067	283.13
348.279	-24.06
348.491	-91.65
348.703	301.56
348.915	72.19
349.127	25.09
349.339	16.9
349.551	57.86
349.763	266.75
349.975	-36.35
350.187	117.25
350.399	393.72
350.61	176.64
350.822	-1.54
351.034	68.09
351.246	227.84
351.458	154.11
351.669	0.51
351.881	55.81
352.093	268.8
352.305	260.6
352.517	-42.5
352.728	72.19
352.94	168.45
353.152	336.38
353.363	-87.55
353.575	29.18
353.787	379.39
353.999	119.29
354.21	123.39
354.422	-116.22
354.633	178.69
354.845	217.6
355.057	25.09
355.268	-22.02
355.48	227.84
355.692	-19.97
355.903	78.33
356.115	-69.12
356.326	-22.02
356.538	348.67
356.749	18.94
356.961	39.42
357.172	180.73
357.384	-3.58
357.595	262.65
357.807	23.04
358.018	172.54
358.23	190.97
358.441	-46.59
358.653	14.85
358.864	131.58
359.075	-7.68
359.287	64
359.498	68.09
359.709	258.56
359.921	217.6
360.132	12.8
360.344	45.57
360.555	209.4
360.766	176.64
360.977	20.99
361.189	86.53
361.4	203.26
361.611	258.56
361.823	41.47
362.034	-36.35
362.245	-1.54
362.456	133.63
362.667	168.45
362.879	-65.02
363.09	309.76
363.301	227.84
363.512	29.18
363.723	-5.63
363.935	186.88
364.146	246.27
364.357	14.85
364.568	-34.3
364.779	-19.97
364.99	291.32
365.201	64
365.412	174.59
365.623	-34.3
365.834	250.36
366.045	102.91
366.256	23.04
366.467	291.32
366.678	113.15
366.889	57.86
367.1	-54.78
367.311	260.6
367.522	180.73
367.733	29.18
367.944	18.94
368.155	115.2
368.366	258.56
368.577	86.53
368.788	174.59
368.999	70.14
369.209	129.53
369.42	86.53
369.631	346.62
369.842	145.92
370.053	238.08
370.264	64
370.474	-11.78
370.685	309.76
370.896	90.62
371.107	102.91
371.317	-26.11
371.528	242.17
371.739	367.1
371.95	80.38
372.16	10.75
372.371	-1.54
372.582	86.53
372.792	25.09
373.003	143.87
373.214	231.93
373.424	184.83
373.635	8.7
373.846	139.77
374.056	262.65
374.267	164.35
374.477	162.3
374.688	-30.21
374.898	322.04
375.109	170.49
375.319	20.99
375.53	49.66
375.74	227.84
375.951	135.68
376.161	158.21
376.372	100.86
376.582	113.15
376.793	297.47
377.003	-28.16
377.214	-42.5
377.424	258.56
377.635	252.41
377.845	57.86
378.055	176.64
378.266	37.38
378.476	174.59
378.686	31.23
378.897	35.33
379.107	342.52
379.317	242.17
379.528	-87.55
379.738	137.73
379.948	72.19
380.158	328.19
380.369	141.82
380.579	55.81
380.789	209.4
380.999	246.27
381.21	201.21
381.42	201.21
381.63	135.68
381.84	303.61
382.05	152.06
382.261	145.92
382.471	285.18
382.681	68.09
382.891	80.38
383.101	84.48
383.311	150.01
383.521	121.34
383.731	-44.54
383.941	233.98
384.151	215.55
384.361	102.91
384.571	49.66
384.781	12.8
384.991	326.14
385.201	422.39
385.411	203.26
385.621	16.9
385.831	229.88
386.041	244.22
386.251	92.67
386.461	145.92
386.671	201.21
386.881	233.98
387.091	-65.02
387.301	156.16
387.511	246.27
387.72	219.64
387.93	125.44
388.14	-1.54
388.35	152.06
388.56	342.52
388.769	20.99
388.979	61.95
389.189	104.96
389.399	219.64
389.609	109.05
389.818	49.66
390.028	201.21
390.238	231.93
390.447	-22.02
390.657	-36.35
390.867	264.7
391.076	39.42
391.286	49.66
391.496	-36.35
391.705	197.12
391.915	401.91
392.125	-11.78
392.334	119.29
392.544	348.67
392.753	170.49
392.963	29.18
393.172	43.52
393.382	135.68
393.591	424.44
393.801	-56.83
394.01	109.05
394.22	244.22
394.429	195.07
394.639	51.71
394.848	92.67
395.058	254.46
395.267	229.88
395.477	147.97
395.686	88.57
395.895	506.36
396.105	365.05
396.314	96.77
396.524	76.29
396.733	133.63
396.942	324.09
397.152	121.34
397.361	145.92
397.57	227.84
397.78	92.67
397.989	178.69
398.198	266.75
398.407	195.07
398.617	215.55
398.826	33.28
399.035	43.52
399.244	217.6
399.453	213.5
399.663	6.66
399.872	-75.26
400.081	137.73
400.29	410.11
400.499	33.28
400.708	193.02
400.917	102.91
401.127	244.22
401.336	49.66
401.545	330.23
401.754	383.48
401.963	281.08
402.172	113.15
402.381	70.14
402.59	279.04
402.799	197.12
403.008	268.8
403.217	154.11
403.426	367.1
403.635	-7.68
403.844	29.18
404.053	8.7
404.262	131.58
404.471	350.71
404.68	94.72
404.888	96.77
405.097	143.87
405.306	246.27
405.515	127.49
405.724	57.86
405.933	344.57
406.142	221.69
406.35	61.95
406.559	78.33
406.768	262.65
406.977	393.72
407.185	86.53
407.394	102.91
407.603	84.48
407.812	186.88
408.02	225.79
408.229	66.05
408.438	250.36
408.646	133.63
408.855	12.8
409.064	39.42
409.272	172.54
409.481	262.65
409.69	45.57
409.898	-11.78
410.107	258.56
410.315	358.91
410.524	147.97
410.733	33.28
410.941	309.76
411.15	332.28
411.358	78.33
411.567	223.74
411.775	344.57
411.984	178.69
412.192	78.33
412.401	51.71
412.609	455.16
412.818	369.15
413.026	129.53
413.234	14.85
413.443	229.88
413.651	111.1
413.86	-40.45
414.068	244.22
414.276	463.35
414.485	135.68
414.693	125.44
414.901	330.23
415.11	281.08
415.318	176.64
415.526	131.58
415.734	186.88
415.943	193.02
416.151	381.43
416.359	10.75
416.567	225.79
416.776	254.46
416.984	311.8
417.192	252.41
417.4	-11.78
417.608	113.15
417.817	90.62
418.025	170.49
418.233	190.97
418.441	107.01
418.649	39.42
418.857	129.53
419.065	109.05
419.273	182.78
419.481	283.13
419.689	184.83
419.897	-15.87
420.105	82.43
420.313	328.19
420.521	182.78
420.729	158.21
420.937	145.92
421.145	102.91
421.353	186.88
421.561	133.63
421.769	311.8
421.977	184.83
422.185	55.81
422.393	78.33
422.601	246.27
422.809	279.04
423.017	121.34
423.224	45.57
423.432	307.71
423.64	193.02
423.848	45.57
424.056	59.9
424.263	365.05
424.471	119.29
424.679	281.08
424.887	20.99
425.094	467.45
425.302	324.09
425.51	-60.93
425.718	125.44
425.925	223.74
426.133	113.15
426.341	233.98
426.548	137.73
426.756	143.87
426.964	315.9
427.171	14.85
427.379	76.29
427.586	162.3
427.794	307.71
428.001	170.49
428.209	180.73
428.417	377.34
428.624	332.28
428.832	64
429.039	96.77
429.247	295.42
429.454	225.79
429.662	258.56
429.869	168.45
430.076	299.52
430.284	291.32
430.491	135.68
430.699	197.12
430.906	381.43
431.114	336.38
431.321	139.77
431.528	102.91
431.736	299.52
431.943	256.51
432.15	178.69
432.358	123.39
432.565	469.5
432.772	25.09
432.979	287.23
433.187	184.83
433.394	395.77
433.601	190.97
433.808	197.12
434.016	225.79
434.223	231.93
434.43	217.6
434.637	162.3
434.844	291.32
435.052	377.34
435.259	383.48
435.466	201.21
435.673	246.27
435.88	399.87
436.087	418.3
436.294	373.24
436.501	307.71
436.708	367.1
436.915	360.95
437.122	340.47
437.329	92.67
437.537	307.71
437.743	363
437.95	371.19
438.157	252.41
438.364	334.33
438.571	315.9
438.778	197.12
438.985	291.32
439.192	438.78
439.399	356.86
439.606	305.66
439.813	315.9
440.02	735.73
440.227	743.92
440.433	295.42
440.64	352.76
440.847	403.96
441.054	455.16
441.261	373.24
441.467	338.43
441.674	479.74
441.881	592.37
442.088	350.71
442.294	406.01
442.501	629.24
442.708	580.09
442.914	385.53
443.121	422.39
443.328	543.22
443.534	729.59
443.741	406.01
443.948	444.92
444.154	682.49
444.361	782.84
444.568	461.3
444.774	526.84
444.981	561.66
445.187	821.75
445.394	557.56
445.6	573.94
445.807	825.84
446.013	784.88
446.22	619
446.426	762.36
446.633	987.63
446.839	1032.69
447.046	608.76
447.252	834.04
447.459	956.91
447.665	852.47
447.871	702.97
448.078	1112.56
448.284	1098.22
448.491	1145.33
448.697	1012.21
448.903	1036.78
449.11	1286.64
449.316	1126.89
449.522	1188.33
449.728	1243.63
449.935	1323.5
450.141	1161.71
450.347	1329.64
450.553	1200.62
450.76	1440.23
450.966	1462.76
451.172	1405.42
451.378	1507.82
451.584	1632.74
451.791	1888.74
451.997	1595.88
452.203	1655.27
452.409	1923.55
452.615	1892.84
452.821	1739.24
453.027	1667.56
453.233	2163.17
453.44	1880.55
453.646	1753.57
453.852	1876.45
454.058	2011.62
454.264	2150.88
454.47	2175.45
454.676	1999.33
454.882	2423.26
455.088	2253.28
455.294	2066.91
455.5	2284
455.705	2451.93
455.911	2509.27
456.117	2234.85
456.323	2339.29
456.529	2298.33
456.735	2443.74
456.941	2167.26
457.147	2281.95
457.352	2531.8
457.558	2341.34
457.764	2392.54
457.97	2306.52
458.176	2609.62
458.381	2472.41
458.587	2503.13
458.793	2402.78
458.999	2249.18
459.204	2544.09
459.41	2392.54
459.616	2421.21
459.821	2587.1
460.027	2335.2
460.233	2507.23
460.438	2365.92
460.644	2470.36
460.85	2349.53
461.055	2423.26
461.261	2367.96
461.466	2068.96
461.672	2210.27
461.878	2138.59
462.083	2159.07
462.289	1962.47
462.494	2204.13
462.7	1964.51
462.905	1917.41
463.111	2286.05
463.316	2249.18
463.522	1997.28
463.727	1954.27
463.932	2130.4
464.138	2146.78
464.343	2085.34
464.549	1888.74
464.754	2335.2
464.959	2288.09
465.165	1982.95
465.37	1944.03
465.575	1991.14
465.781	2101.73
465.986	1892.84
466.191	1763.81
466.397	2058.72
466.602	2126.3
466.807	1815.01
467.012	1917.41
467.218	1987.04
467.423	2003.43
467.628	1786.34
467.833	1819.11
468.038	2001.38
468.244	1706.47
468.449	1851.88
468.654	1735.14
468.859	1860.07
469.064	1913.31
469.269	1626.6
469.474	1767.91
469.679	2071.01
469.885	2021.86
470.09	1903.07
470.295	1808.87
470.5	1882.6
470.705	1999.33
470.91	1872.36
471.115	1776.1
471.32	2030.05
471.525	2179.55
471.73	1767.91
471.935	1939.94
472.139	1858.02
472.344	1872.36
472.549	1974.75
472.754	1937.89
472.959	2030.05
473.164	2062.82
473.369	1786.34
473.574	1972.71
473.778	2097.63
473.983	2093.54
474.188	2134.5
474.393	1884.64
474.598	2142.69
474.802	2060.77
475.007	2025.95
475.212	2009.57
475.417	2015.71
475.621	2132.45
475.826	1960.42
476.031	2023.91
476.235	2134.5
476.44	2032.1
476.645	1995.23
476.849	1911.27
477.054	1995.23
477.259	2025.95
477.463	2093.54
477.668	2134.5
477.872	2406.88
478.077	2101.73
478.282	1868.26
478.486	2130.4
478.691	2185.69
478.895	2163.17
479.1	2202.08
479.304	2136.54
479.509	2103.78
479.713	2327
479.918	2189.79
480.122	2040.29
480.326	2216.41
480.531	2163.17
480.735	2216.41
480.94	2038.24
481.144	2410.97
481.348	2220.51
481.553	2085.34
481.757	2130.4
481.961	2191.84
482.166	2232.8
482.37	2017.76
482.574	2126.3
482.778	2191.84
482.983	2351.58
483.187	2050.53
483.391	2261.47
483.595	2175.45
483.8	2464.22
484.004	2284
484.208	2189.79
484.412	2462.17
484.616	2425.31
484.821	2284
485.025	2355.68
485.229	2382.3
485.433	2503.13
485.637	2195.93
485.841	2281.95
486.045	2527.71
486.249	2714.07
486.453	2421.21
486.657	2206.17
486.861	2292.19
487.065	2556.38
487.269	2390.49
487.473	2314.72
487.677	2673.11
487.881	2937.3
488.085	2488.79
488.289	2566.62
488.493	2695.64
488.697	3011.03
488.901	2693.59
489.105	2648.54
489.309	2812.37
489.512	2955.73
489.716	2851.28
489.92	2742.74
490.124	2920.92
490.328	3103.18
490.531	2914.77
490.735	2816.47
490.939	2931.16
491.143	3027.41
491.346	2802.13
491.55	3111.38
491.754	3250.64
491.958	3178.96
492.161	3027.41
492.365	3154.38
492.569	3131.86
492.772	3402.19
492.976	3275.21
493.18	3344.84
493.383	3412.43
493.587	3471.82
493.79	3336.65
493.994	3385.8
494.197	3379.66
494.401	3541.45
494.605	3389.9
494.808	3613.13
495.012	3711.43
495.215	3869.12
495.419	3805.64
495.622	3613.13
495.825	3910.08
496.029	3783.11
496.232	3928.52
496.436	3715.53
496.639	4250.05
496.843	3867.08
497.046	3955.14
497.249	4204.99
497.453	4194.75
497.656	4159.94
497.859	4299.2
498.063	4297.15
498.266	4434.36
498.469	4520.38
498.673	4364.73
498.876	4383.17
499.079	4624.83
499.282	4751.8
499.485	4714.94
499.689	4919.73
499.892	4997.56
500.095	4831.67
500.298	5003.7
500.501	4854.2
500.705	5302.7
500.908	5351.85
501.111	5204.4
501.314	5190.06
501.517	5591.47
501.72	5702.06
501.923	5564.84
502.126	5646.76
502.329	6035.88
502.532	6175.14
502.735	5863.85
502.938	6074.79
503.141	6338.98
503.344	6171.04
503.547	6298.02
503.75	6345.12
503.953	6463.9
504.156	6734.23
504.359	6554.01
504.562	6611.36
504.765	6834.58
504.968	7125.4
505.17	7078.29
505.373	6967.7
505.576	7457.17
505.779	7569.8
505.982	7242.13
506.185	7633.29
506.387	7745.93
506.59	8034.69
506.793	8085.89
506.996	7850.38
507.198	8620.41
507.401	8528.25
507.604	8255.87
507.807	8542.59
508.009	9003.38
508.212	8821.11
508.415	8913.27
508.617	8712.57
508.82	9118.07
509.022	9171.32
509.225	9462.13
509.428	9384.3
509.63	9679.21
509.833	9664.88
510.035	10240.36
510.238	10242.4
510.44	10119.53
510.643	10461.54
510.845	10453.34
511.048	10608.99
511.25	10516.83
511.453	11014.49
511.655	11264.34
511.858	11012.44
512.06	11440.47
512.262	11422.03
512.465	11653.45
512.667	11743.56
512.87	11938.12
513.072	12472.64
513.274	12325.19
513.477	12427.59
513.679	12745.02
513.881	12785.98
514.084	12874.04
514.286	12931.39
514.488	13158.71
514.69	13470
514.893	13519.15
515.095	13818.16
515.297	14129.45
515.499	14166.31
515.701	14131.5
515.904	14528.8
516.106	14879
516.308	15227.16
516.51	14946.59
516.712	14979.36
516.914	15343.89
517.116	15440.15
517.318	15792.4
517.52	15700.24
517.722	16169.23
517.925	16482.56
518.127	16548.1
518.329	16638.21
518.531	16374.02
518.733	17058.04
518.935	17078.52
519.136	17475.83
519.338	17412.34
519.54	18026.73
519.742	17905.9
519.944	18305.26
520.146	18663.65
520.348	18725.09
520.55	18772.19
520.752	18884.83
520.954	19376.34
521.155	19460.31
521.357	19560.66
521.559	19968.21
521.761	20365.51
521.963	20216.01
522.164	20359.37
522.366	20334.79
522.568	20498.63
522.77	21299.39
522.971	21123.26
523.173	20771.01
523.375	21508.28
523.576	21264.57
523.778	21788.85
523.98	22177.97
524.181	22263.98
524.383	22593.7
524.584	22229.16
524.786	22653.09
524.988	22515.88
525.189	22847.65
525.391	23253.15
525.592	23011.49
525.794	23439.51
525.995	23376.03
526.197	23570.58
526.398	23525.53
526.6	23836.82
526.801	24150.16
527.003	24174.74
527.204	23984.27
527.406	24387.72
527.607	24359.05
527.808	24729.73
528.01	24404.11
528.211	24848.52
528.412	24901.76
528.614	25028.74
528.815	24916.1
529.016	25256.06
529.218	25292.93
529.419	25280.64
529.62	25217.15
529.822	25340.03
530.023	25626.74
530.224	25587.83
530.425	25761.91
530.626	25440.38
530.828	25682.04
531.029	25911.41
531.23	25624.7
531.431	25901.17
531.632	26243.18
531.833	26003.57
532.035	26536.04
532.236	25944.18
532.437	26835.05
532.638	26429.55
532.839	26038.39
533.04	26746.98
533.241	26155.12
533.442	26570.86
533.643	26521.71
533.844	26589.29
534.045	26536.04
534.246	26378.35
534.447	26853.48
534.648	26556.52
534.849	26812.52
535.05	26683.5
535.251	26714.22
535.451	27076.71
535.652	26808.42
535.853	26691.69
536.054	26849.38
536.255	26972.26
536.456	26816.61
536.657	27365.47
536.857	26826.85
537.058	27312.22
537.259	27146.34
537.46	27250.78
537.66	26761.32
537.861	27095.14
538.062	26894.44
538.263	27041.89
538.463	27283.55
538.664	27236.45
538.865	27082.85
539.065	27076.71
539.266	27056.23
539.466	27060.32
539.667	27111.52
539.868	27418.72
540.068	27375.71
540.269	27611.23
540.469	27680.86
540.67	27093.09
540.87	27011.17
541.071	27005.03
541.271	27695.19
541.472	27273.31
541.672	27422.81
541.873	27388
542.073	26990.69
542.274	27627.61
542.474	27578.46
542.675	27431.01
542.875	27408.48
543.075	27265.12
543.276	27486.3
543.476	27695.19
543.676	27467.87
543.877	27261.02
544.077	27557.98
544.277	27490.4
544.478	27359.33
544.678	27220.06
544.878	27357.28
545.078	27340.89
545.279	27508.83
545.479	27021.41
545.679	27476.06
545.879	27517.02
546.079	27375.71
546.28	27392.09
546.48	27322.46
546.68	27916.37
546.88	27879.51
547.08	27600.99
547.28	27854.93
547.48	27441.25
547.68	27971.67
547.88	27687
548.081	27650.14
548.281	27488.35
548.481	27695.19
548.681	27607.13
548.881	27897.94
549.081	28225.62
549.28	27838.55
549.48	28270.67
549.68	27746.39
549.88	28094.55
550.08	27441.25
550.28	27932.76
550.48	28045.4
550.68	28274.77
550.88	27730.01
551.08	28065.88
551.279	27959.38
551.479	27738.2
551.679	28008.53
551.879	27752.54
552.079	28196.95
552.278	28168.27
552.478	28354.64
552.678	27795.54
552.878	28213.33
553.077	28074.07
553.277	27934.81
553.477	28379.21
553.676	28069.97
553.876	28239.95
554.076	28180.56
554.275	28190.8
554.475	27813.98
554.674	28278.86
554.874	28360.78
555.074	27594.84
555.273	28205.14
555.473	28299.34
555.672	27947.09
555.872	27967.57
556.071	28196.95
556.271	28160.08
556.47	28264.53
556.67	27908.18
556.869	27856.98
557.068	27945.05
557.268	28008.53
557.467	27670.62
557.667	27936.85
557.866	28147.79
558.065	27947.09
558.265	27471.96
558.464	27480.16
558.663	27775.06
558.863	27682.91
559.062	27703.39
559.261	27197.54
559.461	28065.88
559.66	27484.25
559.859	27390.05
560.058	27064.42
560.258	27510.88
560.457	27306.08
560.656	27807.83
560.855	27283.55
561.054	27603.03
561.253	27226.21
561.453	27019.36
561.652	27193.44
561.851	27598.94
562.05	26720.36
562.249	26744.94
562.448	27215.97
562.647	27193.44
562.846	26632.3
563.045	26859.62
563.244	26605.67
563.443	27070.56
563.642	26730.6
563.841	26652.78
564.04	26490.99
564.239	26949.73
564.438	26486.89
564.637	26454.12
564.836	26321.01
565.035	26263.66
565.234	26171.5
565.432	25931.89
565.631	26071.15
565.83	26001.52
566.029	25895.03
566.228	25694.33
566.427	25763.96
566.625	25256.06
566.824	25315.45
567.023	25735.29
567.222	25069.7
567.42	25874.55
567.619	25649.27
567.818	25292.93
568.016	25251.97
568.215	25532.54
568.414	25243.77
568.612	25190.53
568.811	25165.95
569.01	25079.94
569.208	24696.97
569.407	24905.86
569.605	24557.71
569.804	24811.65
570.002	24449.16
570.201	24361.1
570.4	24101.01
570.598	24248.46
570.797	24131.73
570.995	23908.5
571.193	23865.49
571.392	23834.77
571.59	23447.71
571.789	23609.5
571.987	23629.98
572.186	23730.33
572.384	23400.6
572.582	23599.26
572.781	23314.59
572.979	22923.43
573.177	23318.68
573.376	23117.98
573.574	22761.64
573.772	23312.54
573.971	22550.7
574.169	22794.4
574.367	22603.94
574.565	22571.18
574.763	22585.51
574.962	22206.64
575.16	22278.32
575.358	22456.49
575.556	22065.33
575.754	22055.09
575.952	21915.83
576.151	22091.95
576.349	22075.57
576.547	21596.34
576.745	21987.5
576.943	21754.04
577.141	21729.46
577.339	21571.77
577.537	21385.4
577.735	21387.45
577.933	21465.27
578.131	21156.03
578.329	21248.19
578.527	21203.13
578.725	21373.11
578.923	21086.4
579.121	21094.59
579.319	20805.83
579.516	20994.24
579.714	20930.75
579.912	20775.11
580.11	20754.63
580.308	20764.87
580.506	20644.04
580.704	20015.31
580.901	20560.07
581.099	20930.75
581.297	20154.57
581.495	20322.51
581.692	20648.13
581.89	20480.2
582.088	20375.75
582.285	20218.06
582.483	20318.41
582.681	20048.08
582.878	20177.1
583.076	19869.9
583.274	20025.55
583.471	20136.14
583.669	19960.02
583.866	19624.15
584.064	19714.26
584.262	19669.2
584.459	19652.82
584.657	19194.08
584.854	20205.77
585.052	19341.53
585.249	19351.77
585.447	19597.52
585.644	19202.27
585.841	19480.79
586.039	19362.01
586.236	19110.11
586.434	19091.68
586.631	19222.75
586.828	19060.96
587.026	19192.03
587.223	19015.9
587.42	19120.35
587.618	18985.18
587.815	18884.83
588.012	18923.74
588.21	18573.54
588.407	19093.72
588.604	18782.43
588.801	18782.43
588.999	18677.99
589.196	18342.12
589.393	18520.29
589.59	18657.51
589.787	18624.74
589.984	18434.28
590.182	18587.88
590.379	18555.11
590.576	18510.05
590.773	18452.71
590.97	18032.88
591.167	18690.27
591.364	18266.35
591.561	18370.79
591.758	18335.98
591.955	18409.7
592.152	18342.12
592.349	18100.46
592.546	18161.9
592.743	18186.47
592.94	18018.54
593.137	18077.93
593.334	18450.66
593.531	17803.5
593.727	18247.91
593.924	17834.22
594.121	17860.85
594.318	18153.71
594.515	18073.84
594.712	18043.12
594.908	17791.22
595.105	17707.25
595.302	17756.4
595.499	17916.14
595.696	17871.09
595.892	17764.59
596.089	18194.67
596.286	17969.39
596.482	17844.46
596.679	17920.24
596.876	17797.36
597.072	17578.23
597.269	17744.11
597.466	17686.77
597.662	17930.48
597.859	17510.64
598.055	17772.78
598.252	17703.15
598.448	17965.29
598.645	17547.51
598.841	17709.3
599.038	17881.33
599.234	18108.65
599.431	17611
599.627	17537.27
599.824	17711.35
600.02	17520.88
600.217	17639.67
600.413	17414.39
600.609	17555.7
600.806	18030.83
601.002	17459.45
601.198	17291.51
601.395	17699.06
601.591	17670.39
601.787	17461.49
601.984	17357.05
602.18	17535.22
602.376	17574.13
602.572	17121.53
602.769	17342.71
602.965	17250.55
603.161	17492.21
603.357	17404.15
603.553	17236.22
603.75	17406.2
603.946	17242.36
604.142	17062.14
604.338	17023.23
604.534	17457.4
604.73	17056
604.926	17346.81
605.122	17209.59
605.318	17029.37
605.514	17334.52
605.71	16978.17
605.906	17043.71
606.102	17250.55
606.298	17494.26
606.494	17142.01
606.69	16972.03
606.886	17271.03
607.082	16965.89
607.278	16826.62
607.474	16836.86
607.67	17209.59
607.866	16537.86
608.062	17256.7
608.257	16924.93
608.453	16941.31
608.649	17101.05
608.845	16494.85
609.041	16707.84
609.236	17154.3
609.432	16863.49
609.628	16693.51
609.824	16650.5
610.019	16879.87
610.215	16914.69
610.411	16800
610.606	16597.25
610.802	16836.86
610.998	16892.16
611.193	16617.73
611.389	16367.88
611.584	16738.56
611.78	16464.13
611.976	16464.13
612.171	16658.69
612.367	16810.24
612.562	16670.98
612.758	16285.96
612.953	16419.08
613.149	16716.03
613.344	16605.44
613.539	16431.37
613.735	16498.95
613.93	16593.15
614.126	16478.47
614.321	16521.48
614.517	16455.94
614.712	16443.65
614.907	16482.56
615.103	16582.91
615.298	16242.95
615.493	16376.07
615.688	16120.07
615.884	16388.36
616.079	15872.27
616.274	16396.55
616.47	16029.96
616.665	16161.03
616.86	16161.03
617.055	15980.81
617.25	16062.73
617.445	16146.7
617.641	15954.19
617.836	16079.11
618.031	15724.82
618.226	16068.87
618.421	15704.34
618.616	16017.68
618.811	15866.13
619.006	15849.74
619.201	15397.14
619.396	15749.39
619.591	15628.56
619.786	15765.78
619.981	15712.53
620.176	15970.57
620.371	15610.13
620.566	15499.54
620.761	15429.91
620.956	15724.82
621.151	15386.9
621.346	15501.59
621.541	14895.39
621.735	15765.78
621.93	15214.87
622.125	15304.98
622.32	14846.24
622.515	15022.36
622.709	15155.48
622.904	14899.48
623.099	14909.72
623.294	15210.78
623.488	14956.83
623.683	14807.33
623.878	14393.64
624.072	14864.67
624.267	14653.73
624.462	14561.57
624.656	14354.72
624.851	14831.9
625.046	14668.06
625.24	14475.56
625.435	14379.3
625.629	14416.16
625.824	14670.11
626.018	14321.96
626.213	14344.49
626.407	14281
626.602	14115.11
626.796	14262.57
626.991	14305.57
627.185	14096.68
627.38	14201.13
627.574	13938.99
627.768	13846.83
627.963	13789.49
628.157	13924.65
628.352	13578.54
628.546	13642.03
628.74	13934.89
628.935	13629.74
629.129	13644.08
629.323	13449.52
629.517	13492.53
629.712	13750.57
629.906	13351.22
630.1	13547.83
630.294	13652.27
630.489	13525.3
630.683	13383.99
630.877	13304.12
631.071	13324.6
631.265	13340.98
631.459	13214.01
631.653	13291.83
631.848	13318.45
632.042	13357.36
632.236	12939.58
632.43	13072.7
632.624	12949.82
632.818	13078.84
633.012	12695.87
633.206	12605.76
633.4	12884.28
633.594	12503.36
633.788	12656.96
633.982	12638.53
634.176	12740.93
634.369	12667.2
634.563	12433.73
634.757	12093.77
634.951	12583.23
635.145	12691.77
635.339	12366.15
635.533	12267.84
635.726	12265.8
635.92	12101.96
636.114	11841.87
636.308	11809.1
636.501	11919.69
636.695	11903.31
636.889	11506
637.083	11592.02
637.276	11643.21
637.47	11432.27
637.664	11114.84
637.857	11383.12
638.051	11458.9
638.244	11069.78
638.438	11151.7
638.632	11032.92
638.825	10531.17
639.019	11016.54
639.212	10656.09
639.406	10576.22
639.599	10635.61
639.793	10537.31
639.986	10279.27
640.18	10420.58
640.373	10158.44
640.567	10021.22
640.76	10154.34
640.954	9912.68
641.147	9951.59
641.34	9738.6
641.534	9742.7
641.727	9597.29
641.92	9834.86
642.114	9392.5
642.307	9161.08
642.5	9351.54
642.694	9187.7
642.887	8829.31
643.08	9101.69
643.273	8735.1
643.467	8823.16
643.66	8667.52
643.853	8384.9
644.046	8577.41
644.239	8348.03
644.432	8214.91
644.626	8235.39
644.819	7965.06
645.012	8176
645.205	8001.93
645.398	8089.99
645.591	7682.44
645.784	7799.18
645.977	7530.89
646.17	7612.81
646.363	7307.66
646.556	7375.25
646.749	7393.68
646.942	7334.29
647.135	7049.62
647.328	7192.98
647.521	7063.96
647.714	6783.38
647.907	6998.42
648.099	6789.53
648.292	7043.48
648.485	6930.84
648.678	6515.1
648.871	6605.21
649.064	6539.68
649.256	6482.33
649.449	6455.71
649.642	6265.25
649.835	6371.74
650.027	6140.32
650.22	6138.27
650.413	6162.85
650.605	6373.79
650.798	6144.42
650.991	5882.28
651.183	6009.25
651.376	5996.96
651.568	5986.72
651.761	5716.39
651.954	6013.35
652.146	5839.27
652.339	5824.94
652.531	5927.33
652.724	5767.59
652.916	5454.25
653.109	5288.37
653.301	5552.56
653.494	5724.58
653.686	5575.08
653.879	5591.47
654.071	5462.44
654.263	5470.64
654.456	5380.53
654.648	5228.98
654.84	5165.49
655.033	5157.3
655.225	5480.88
655.417	4870.58
655.61	5206.45
655.802	5120.43
655.994	5355.95
656.186	4905.4
656.379	4999.6
656.571	4862.39
656.763	4854.2
656.955	4921.78
657.148	4676.02
657.34	4966.84
657.532	4698.55
657.724	4618.68
657.916	4719.03
658.108	4866.49
658.3	4741.56
658.492	4604.35
658.684	4366.78
658.876	4688.31
659.068	4307.39
659.26	4145.6
659.452	4088.26
659.644	4493.76
659.836	4530.62
660.028	4168.13
660.22	3953.09
660.412	4215.23
660.604	4168.13
660.796	3922.37
660.988	3987.91
661.18	3932.61
661.372	3932.61
661.563	3719.62
661.755	3649.99
661.947	3764.68
662.139	3783.11
662.331	3604.94
662.522	3625.42
662.714	3549.64
662.906	3404.24
663.097	3312.08
663.289	3174.86
663.481	3328.46
663.673	3271.12
663.864	3066.32
664.056	3039.7
664.247	3029.46
664.439	3201.49
664.631	2902.48
664.822	3015.12
665.014	3029.46
665.205	2732.5
665.397	2693.59
665.588	2785.75
665.78	2810.33
665.971	2918.87
666.163	2437.59
666.354	2486.75
666.546	2542.04
666.737	2580.95
666.929	2494.94
667.12	2539.99
667.311	2535.9
667.503	2327
667.694	2390.49
667.885	2394.59
668.077	2333.15
668.268	2128.35
668.459	2331.1
668.651	2255.33
668.842	2187.74
669.033	2066.91
669.224	2019.81
669.416	2281.95
669.607	2111.97
669.798	1989.09
669.989	1929.7
670.18	1868.26
670.371	2030.05
670.563	1901.03
670.754	2046.43
670.945	1913.31
671.136	1974.75
671.327	1831.4
671.518	1827.3
671.709	1849.83
671.9	2046.43
672.091	2097.63
672.282	1825.25
672.473	1585.64
672.664	1757.67
672.855	1757.67
673.046	1769.96
673.237	1669.61
673.428	1835.49
673.619	1933.79
673.809	1567.21
674	1579.5
674.191	1843.68
674.382	1653.22
674.573	1655.27
674.764	1581.54
674.954	1894.88
675.145	1470.95
675.336	1389.03
675.527	1458.67
675.717	1681.89
675.908	1608.17
676.099	1563.11
676.289	1513.96
676.48	1423.85
676.671	1616.36
676.861	1419.75
677.052	1393.13
677.243	1577.45
677.433	1466.86
677.624	1481.19
677.814	1464.81
678.005	1462.76
678.195	1702.37
678.386	1382.89
678.576	1374.7
678.767	1305.07
678.957	1503.72
679.148	1577.45
679.338	1485.29
679.529	1647.08
679.719	1542.63
679.909	1616.36
680.1	1419.75
680.29	1716.71
680.481	1507.82
680.671	1561.06
680.861	1405.42
681.052	1647.08
681.242	1407.47
681.432	1499.63
681.622	1491.43
681.813	1407.47
682.003	1681.89
682.193	1479.15
682.383	1614.31
682.573	1645.03
682.764	1747.43
682.954	1677.8
683.144	1751.53
683.334	1751.53
683.524	1835.49
683.714	1642.98
683.904	1669.61
684.094	1874.4
684.284	1903.07
684.474	2001.38
684.664	1868.26
684.854	2138.59
685.044	2019.81
685.234	1999.33
685.424	2030.05
685.614	2103.78
685.804	2421.21
685.994	2118.11
686.184	2214.37
686.374	2449.88
686.564	2343.39
686.753	2320.86
686.943	2306.52
687.133	2662.87
687.323	2539.99
687.513	2628.06
687.702	2560.47
687.892	2742.74
688.082	2839
688.272	2730.45
688.461	2849.24
688.651	3236.3
688.841	3121.62
689.03	2970.07
689.22	2978.26
689.41	3453.39
689.599	3346.89
689.789	3322.32
689.979	3516.87
690.168	3666.38
690.358	3697.1
690.547	3703.24
690.737	3750.34
690.926	3799.49
691.116	4035.01
691.305	4014.53
691.495	4012.48
691.684	3959.24
691.874	4219.33
692.063	4239.81
692.252	4309.44
692.442	4649.4
692.631	4434.36
692.82	4436.41
693.01	4577.72
693.199	4796.85
693.388	4921.78
693.578	4811.19
693.767	5188.02
693.956	5067.19
694.146	5087.67
694.335	5151.15
694.524	5159.35
694.713	5591.47
694.902	5382.57
695.092	5513.64
695.281	5372.33
695.47	5714.34
695.659	5708.2
695.848	5577.13
696.037	5728.68
696.226	6060.45
696.415	5919.14
696.604	6226.34
696.793	5900.71
696.982	6144.42
697.171	6240.67
697.36	6144.42
697.549	6162.85
697.738	6259.1
697.927	6504.86
698.116	6474.14
698.305	6390.17
698.494	6629.79
698.683	6709.66
698.872	6519.2
699.061	6449.57
699.25	6607.26
699.438	6805.91
699.627	6783.38
699.816	6910.36
700.005	6709.66
700.193	6859.16
700.382	6889.88
700.571	6955.41
700.76	7154.07
700.948	7362.96
701.137	6779.29
701.326	7197.07
701.514	7162.26
701.703	7242.13
701.892	7123.35
702.08	7192.98
702.269	7213.46
702.457	7068.05
702.646	7328.14
702.834	6971.8
703.023	7483.79
703.212	7682.44
703.4	7197.07
703.589	7240.08
703.777	7534.99
703.965	7244.18
704.154	7133.59
704.342	7262.61
704.531	7395.73
704.719	7547.28
704.907	7604.62
705.096	7369.1
705.284	7414.16
705.472	7500.17
705.661	7436.69
705.849	7520.65
706.037	7817.61
706.226	7694.73
706.414	7725.45
706.602	7393.68
706.79	7846.28
706.979	7498.13
707.167	7537.04
707.355	7416.21
707.543	7764.36
707.731	7664.01
707.919	7557.52
708.107	7549.32
708.296	7682.44
708.484	7604.62
708.672	7715.21
708.86	7494.03
709.048	7639.44
709.236	7631.24
709.424	7448.97
709.612	7641.48
709.8	7483.79
709.988	7682.44
710.176	7573.9
710.364	7608.72
710.551	7672.2
710.739	7428.49
710.927	7502.22
711.115	7528.85
711.303	7793.03
711.491	7670.15
711.679	7401.87
711.866	7516.56
712.054	7537.04
712.242	7623.05
712.43	7731.59
712.617	7397.78
712.805	7633.29
712.993	7510.41
713.181	7268.75
713.368	7356.82
713.556	7524.75
713.744	7401.87
713.931	7457.17
714.119	7297.42
714.306	7422.35
714.494	7305.62
714.682	7369.1
714.869	7072.15
715.057	7303.57
715.244	7049.62
715.432	7270.8
715.619	7031.19
715.807	7328.14
715.994	6996.37
716.182	7225.75
716.369	7223.7
716.556	7252.37
716.744	6984.09
716.931	6957.46
717.119	7104.92
717.306	7090.58
717.493	7188.88
717.681	6853.02
717.868	6826.39
718.055	7020.95
718.242	7074.2
718.43	6875.54
718.617	6660.51
718.804	6787.48
718.991	6881.69
719.179	6773.14
719.366	6736.28
719.553	6646.17
719.74	6777.24
719.927	6687.13
720.114	6556.06
720.301	6660.51
720.488	6472.09
720.676	6353.31
720.863	6814.1
721.05	6965.65
721.237	6668.7
721.424	6615.45
721.611	6554.01
721.798	6412.7
721.985	6494.62
722.172	6363.55
722.358	6336.93
722.545	6707.61
722.732	6355.36
722.919	6410.65
723.106	6242.72
723.293	6302.11
723.48	6351.26
723.667	6033.83
723.853	6355.36
724.04	6502.81
724.227	6341.02
724.414	6230.43
724.6	6205.86
724.787	6408.61
724.974	6508.96
725.161	5937.57
725.347	5829.03
725.534	6197.67
725.72	6160.8
725.907	5964.2
726.094	5929.38
726.28	5929.38
726.467	5966.24
726.653	5935.53
726.84	5941.67
727.027	6261.15
727.213	5898.66
727.4	5718.44
727.586	5771.69
727.773	6017.44
727.959	6054.31
728.145	5720.49
728.332	5665.19
728.518	5890.47
728.705	5800.36
728.891	5521.84
729.077	5685.67
729.264	5497.26
729.45	5710.25
729.636	5620.14
729.823	5458.35
730.009	5683.63
730.195	5566.89
730.382	5593.51
730.568	5364.14
730.754	5675.43
730.94	5499.31
731.126	5439.92
731.313	5368.24
731.499	5501.36
731.685	5421.49
731.871	5599.66
732.057	5403.05
732.243	5495.21
732.429	5503.4
732.615	5253.55
732.801	5173.68
732.987	5421.49
733.173	5353.9
733.359	5167.54
733.545	5231.02
733.731	5292.46
733.917	5372.33
734.103	5081.52
734.289	5214.64
734.475	5106.1
734.661	5470.64
734.847	5091.76
735.033	4958.64
735.219	5241.26
735.404	4991.41
735.59	5044.66
735.776	4825.53
735.962	5153.2
736.148	5102
736.333	4991.41
736.519	4962.74
736.705	5116.34
736.89	4991.41
737.076	4837.81
737.262	4741.56
737.447	4676.02
737.633	4755.9
737.819	4790.71
738.004	4708.79
738.19	4874.68
738.375	4876.73
738.561	4905.4
738.747	4731.32
738.932	4538.81
739.118	4946.36
739.303	4729.27
739.489	4731.32
739.674	4536.76
739.859	4549.05
740.045	4559.29
740.23	4518.33
740.416	4164.03
740.601	4653.5
740.786	4393.4
740.972	4102.59
741.157	4360.64
741.342	4350.4
741.528	4374.97
741.713	4377.02
741.898	4508.09
742.084	4491.71
742.269	4245.95
742.454	4217.28
742.639	4516.28
742.824	4336.06
743.01	4284.86
743.195	4270.53
743.38	4377.02
743.565	4233.66
743.75	4125.12
743.935	4073.92
744.12	4372.93
744.305	3881.41
744.49	4051.39
744.675	4061.63
744.86	4106.69
745.045	4143.55
745.23	3852.74
745.415	3912.13
745.6	4125.12
745.785	4094.4
745.97	3903.94
746.155	3776.97
746.34	4151.74
746.525	3996.1
746.71	3850.69
746.895	3690.95
747.079	3752.39
747.264	3754.44
747.449	3635.66
747.634	3684.81
747.819	3899.84
748.003	3666.38
748.188	3531.21
748.373	3551.69
748.557	3680.71
748.742	3602.89
748.927	3504.59
749.111	3396.04
749.296	3492.3
749.481	3551.69
749.665	3412.43
749.85	3404.24
750.034	3508.68
750.219	3609.03
750.404	3193.3
750.588	3387.85
750.773	3353.04
750.957	3383.76
751.141	3097.04
751.326	3240.4
751.51	3119.57
751.695	3217.87
751.879	3131.86
752.064	3398.09
752.248	3281.36
752.432	3533.26
752.617	2982.35
752.801	3051.99
752.985	3051.99
753.17	3355.08
753.354	2965.97
753.538	2963.92
753.722	3025.36
753.907	2920.92
754.091	2904.53
754.275	2906.58
754.459	2916.82
754.643	2937.3
754.828	3021.27
755.012	2892.24
755.196	2839
755.38	3019.22
755.564	2718.17
755.748	2691.54
755.932	3058.13
756.116	2789.85
756.3	2808.28
756.484	2693.59
756.668	2882
756.852	2564.57
757.036	2789.85
757.22	2558.42
757.404	2583
757.588	2556.38
757.772	2789.85
757.956	2623.96
758.14	2884.05
758.323	2492.89
758.507	2478.55
758.691	2529.75
758.875	2634.2
759.059	2568.66
759.242	2306.52
759.426	2310.62
759.61	2359.77
759.794	2138.59
759.977	2302.43
760.161	2595.29
760.345	2290.14
760.528	2220.51
760.712	2019.81
760.895	2154.98
761.079	2034.14
761.263	1946.08
761.446	1808.87
761.63	1872.36
761.813	2068.96
761.997	1954.27
762.18	1780.2
762.364	2087.39
762.547	1724.9
762.731	1939.94
762.914	1970.66
763.098	1749.48
763.281	2003.43
763.464	1882.6
763.648	1884.64
763.831	1825.25
764.015	1937.89
764.198	2062.82
764.381	1972.71
764.564	1823.2
764.748	1919.46
764.931	2056.67
765.114	1774.05
765.297	1964.51
765.481	1833.44
765.664	2015.71
765.847	1862.12
766.03	1880.55
766.213	1915.36
766.397	1978.85
766.58	1841.64
766.763	2052.58
766.946	1982.95
767.129	2062.82
767.312	1845.73
767.495	1954.27
767.678	2060.77
767.861	2150.88
768.044	1972.71
768.227	1872.36
768.41	2040.29
768.593	2079.2
768.776	2107.87
768.959	2073.06
769.142	2310.62
769.324	2079.2
769.507	1919.46
769.69	2032.1
769.873	2046.43
770.056	2365.92
770.239	1993.19
770.421	2093.54
770.604	2103.78
770.787	2048.48
770.97	1933.79
771.152	1917.41
771.335	2169.31
771.518	1864.16
771.7	1866.21
771.883	2101.73
772.066	2064.86
772.248	2116.06
772.431	2097.63
772.613	1890.79
772.796	1995.23
772.978	2013.67
773.161	1984.99
773.343	1845.73
773.526	1939.94
773.708	1808.87
773.891	1647.08
774.073	1743.33
774.256	1966.56
774.438	2292.19
774.621	1722.85
774.803	1952.23
774.985	1843.68
775.168	2091.49
775.35	1782.24
775.532	1810.92
775.715	1747.43
775.897	1901.03
776.079	1839.59
776.261	1831.4
776.444	1790.44
776.626	1733.09
776.808	1788.39
776.99	1473
777.173	1722.85
777.355	1671.65
777.537	1632.74
777.719	1692.13
777.901	1640.93
778.083	1538.54
778.265	1581.54
778.447	1647.08
778.629	1610.22
778.811	1657.32
778.993	1673.7
779.175	1688.04
779.357	1620.46
779.539	1481.19
779.721	1524.2
779.903	1608.17
780.085	1696.23
780.267	1634.79
780.449	1466.86
780.631	1556.97
780.812	1790.44
780.994	1489.39
781.176	1442.28
781.358	1389.03
781.54	1522.15
781.721	1591.78
781.903	1303.02
782.085	1348.08
782.267	1634.79
782.448	1255.92
782.63	1448.43
782.812	1346.03
782.993	1544.68
783.175	1503.72
783.357	1284.59
783.538	1360.36
783.72	1335.79
783.901	1440.23
784.083	1296.88
784.264	1356.27
784.446	1219.05
784.627	1225.2
784.809	1290.73
784.99	1169.9
785.172	1419.75
785.353	1243.63
785.535	1296.88
785.716	1139.18
785.897	1034.74
786.079	1251.82
786.26	1194.48
786.441	1274.35
786.623	1198.57
786.804	1149.42
786.985	1096.18
787.167	1114.61
787.348	1083.89
787.529	1241.58
787.71	1260.01
787.891	1151.47
788.073	1079.79
788.254	928.24
788.435	1264.11
788.616	1061.36
788.797	993.78
788.978	1130.99
789.159	1053.17
789.34	1139.18
789.522	1126.89
789.703	987.63
789.884	1020.4
790.065	1079.79
790.246	1323.5
790.427	913.91
790.607	1038.83
790.788	963.06
790.969	950.77
791.15	1042.93
791.331	981.49
791.512	946.67
791.693	907.76
791.874	1022.45
792.054	1186.29
792.235	1069.55
792.416	883.19
792.597	840.18
792.778	1026.54
792.958	901.62
793.139	1100.27
793.32	989.68
793.5	682.49
793.681	946.67
793.862	954.87
794.042	934.39
794.223	752.12
794.404	877.04
794.584	735.73
794.765	864.75
794.945	918
795.126	848.37
795.306	997.87
795.487	852.47
795.667	786.93
795.848	727.54
796.028	981.49
796.209	879.09
796.389	940.53
796.57	786.93
796.75	911.86
796.93	846.32
797.111	799.22
797.291	754.16
797.471	899.57
797.652	819.7
797.832	805.36
798.012	797.17
798.192	750.07
798.373	596.47
798.553	762.36
798.733	1026.54
798.913	741.88
799.093	793.08
799.274	758.26
799.454	852.47
799.634	995.82
799.814	895.47
799.994	791.03
800.174	883.19
800.354	850.42
800.534	612.85
800.714	702.97
800.894	575.99
801.074	643.57
801.254	680.44
801.434	799.22
801.614	696.82
801.794	745.97
801.974	5056.95
802.154	627.19
802.334	764.4
802.514	625.14
802.693	735.73
802.873	586.23
803.053	700.92
803.233	748.02
803.413	707.06
803.592	639.48
803.772	537.08
803.952	733.68
804.131	455.16
804.311	645.62
804.491	682.49
804.67	596.47
804.85	494.07
805.03	719.35
805.209	827.89
805.389	686.58
805.568	635.38
805.748	553.46
805.928	647.67
806.107	743.92
806.287	651.77
806.466	637.43
806.646	619
806.825	672.25
807.004	598.52
807.184	551.42
807.363	625.14
807.543	770.55
807.722	498.17
807.901	637.43
808.081	547.32
808.26	373.24
808.439	668.15
808.619	506.36
808.798	508.41
808.977	705.01
809.156	834.04
809.336	670.2
809.515	539.13
809.694	547.32
809.873	569.85
810.052	467.45
810.231	680.44
810.411	621.05
810.59	774.64
810.769	449.02
810.948	627.19
811.127	385.53
811.306	532.98
811.485	422.39
811.664	575.99
811.843	557.56
812.022	670.2
812.201	457.21
812.38	381.43
812.559	528.89
812.737	623.09
812.916	291.32
813.095	475.64
813.274	569.85
813.453	561.66
813.632	504.31
813.811	573.94
813.989	326.14
814.168	520.7
814.347	311.8
814.526	469.5
814.704	651.77
814.883	702.97
815.062	383.48
815.24	418.3
815.419	408.06
815.598	571.9
815.776	328.19
815.955	395.77
816.133	244.22
816.312	541.18
816.49	401.91
816.669	430.59
816.847	455.16
817.026	500.22
817.204	358.91
817.383	406.01
817.561	418.3
817.74	463.35
817.918	320
818.097	334.33
818.275	422.39
818.453	473.59
818.632	422.39
818.81	272.89
818.988	403.96
819.167	338.43
819.345	311.8
819.523	330.23
819.701	549.37
819.879	539.13
820.058	459.26
820.236	385.53
820.414	487.93
820.592	381.43
820.77	315.9
820.948	254.46
821.127	340.47
821.305	512.5
821.483	180.73
821.661	340.47
821.839	518.65
822.017	348.67
822.195	291.32
822.373	348.67
822.551	457.21
822.729	397.82
822.907	326.14
823.085	307.71
823.262	440.83
823.44	305.66
823.618	367.1
823.796	297.47
823.974	414.2
824.152	283.13
824.329	289.28
824.507	416.25
824.685	424.44
824.863	453.11
825.04	250.36
825.218	379.39
825.396	455.16
825.574	412.15
825.751	365.05
825.929	233.98
826.107	270.84
826.284	465.4
826.462	258.56
826.639	268.8
826.817	201.21
826.994	348.67
827.172	164.35
827.349	365.05
827.527	467.45
827.704	365.05
827.882	436.73
828.059	276.99
828.237	344.57
828.414	367.1
828.591	100.86
828.769	311.8
828.946	223.74
829.124	489.98
829.301	414.2
829.478	166.4
829.655	381.43
829.833	403.96
830.01	78.33
830.187	393.72
830.364	449.02
830.542	389.63
830.719	303.61
830.896	367.1
831.073	420.35
831.25	408.06
831.427	201.21
831.604	274.94
831.782	365.05
831.959	377.34
832.136	260.6
832.313	326.14
832.49	272.89
832.667	338.43
832.844	158.21
833.021	559.61
833.198	502.26
833.374	393.72
833.551	250.36
833.728	172.54
833.905	446.97
834.082	94.72
834.259	324.09
834.436	356.86
834.612	268.8
834.789	459.26
834.966	301.56
835.143	311.8
835.319	266.75
835.496	436.73
835.673	332.28
835.85	258.56
836.026	385.53
836.203	457.21
836.38	254.46
836.556	242.17
836.733	213.5
836.909	530.94
837.086	297.47
837.262	104.96
837.439	295.42
837.616	334.33
837.792	227.84
837.968	283.13
838.145	72.19
838.321	209.4
838.498	242.17
838.674	377.34
838.851	326.14
839.027	256.51
839.203	256.51
839.38	336.38
839.556	260.6
839.732	436.73
839.909	215.55
840.085	184.83
840.261	268.8
840.437	320
840.614	236.03
840.79	260.6
840.966	479.74
841.142	346.62
841.318	215.55
841.494	170.49
841.671	489.98
841.847	178.69
842.023	102.91
842.199	211.45
842.375	520.7
842.551	102.91
842.727	135.68
842.903	340.47
843.079	203.26
843.255	451.07
843.431	152.06
843.607	387.58
843.783	20.99
843.959	375.29
844.134	174.59
844.31	342.52
844.486	172.54
844.662	217.6
844.838	240.12
845.013	166.4
845.189	459.26
845.365	342.52
845.541	221.69
845.716	236.03
845.892	459.26
846.068	186.88
846.244	211.45
846.419	147.97
846.595	156.16
846.77	162.3
846.946	258.56
847.122	188.93
847.297	162.3
847.473	569.85
847.648	33.28
847.824	193.02
847.999	64
848.175	324.09
848.35	303.61
848.526	356.86
848.701	387.58
848.876	377.34
849.052	442.87
849.227	199.16
849.403	233.98
849.578	195.07
849.753	256.51
849.929	137.73
850.104	82.43
850.279	346.62
850.454	238.08
850.63	195.07
850.805	276.99
850.98	287.23
851.155	147.97
851.33	315.9
851.505	86.53
851.681	369.15
851.856	57.86
852.031	221.69
852.206	295.42
852.381	141.82
852.556	205.31
852.731	152.06
852.906	363
853.081	315.9
853.256	307.71
853.431	143.87
853.606	145.92
853.781	186.88
853.956	-26.11
854.131	141.82
854.305	201.21
854.48	248.32
854.655	145.92
854.83	76.29
855.005	256.51
855.18	242.17
855.354	86.53
855.529	195.07
855.704	182.78
855.879	281.08
856.053	86.53
856.228	176.64
856.403	119.29
856.577	322.04
856.752	-40.45
856.926	113.15
857.101	334.33
857.276	20.99
857.45	188.93
857.625	272.89
857.799	324.09
857.974	158.21
858.148	14.85
858.323	180.73
858.497	293.37
858.672	145.92
858.846	162.3
859.02	211.45
859.195	27.14
859.369	217.6
859.543	256.51
859.718	143.87
859.892	205.31
860.066	256.51
860.241	211.45
860.415	61.95
860.589	221.69
860.763	190.97
860.938	195.07
861.112	107.01
861.286	203.26
861.46	295.42
861.634	137.73
861.808	201.21
861.982	147.97
862.157	160.25
862.331	186.88
862.505	10.75
862.679	145.92
862.853	125.44
863.027	143.87
863.201	180.73
863.375	109.05
863.549	254.46
863.722	201.21
863.896	254.46
864.07	184.83
864.244	135.68
864.418	238.08
864.592	113.15
864.766	295.42
864.939	186.88
865.113	170.49
865.287	244.22
865.461	57.86
865.634	270.84
865.808	76.29
865.982	78.33
866.156	141.82
866.329	49.66
866.503	172.54
866.676	137.73
866.85	221.69
867.024	129.53
867.197	258.56
867.371	68.09
867.544	367.1
867.718	57.86
867.891	276.99
868.065	27.14
868.238	270.84
868.412	328.19
868.585	197.12
868.759	4.61
868.932	160.25
869.105	33.28
869.279	289.28
869.452	-11.78
869.625	387.58
869.799	162.3
869.972	-19.97
870.145	193.02
870.319	358.91
870.492	96.77
870.665	88.57
870.838	94.72
871.011	-69.12
871.185	182.78
871.358	70.14
871.531	287.23
871.704	125.44
871.877	223.74
872.05	84.48
872.223	29.18
872.396	389.63
872.569	307.71
872.742	33.28
872.915	276.99
873.088	164.35
873.261	68.09
873.434	295.42
873.607	111.1
873.78	438.78
873.953	-42.5
874.126	127.49
874.299	213.5
874.471	195.07
874.644	133.63
874.817	274.94
874.99	352.76
875.163	127.49
875.335	225.79
875.508	113.15
875.681	213.5
875.853	197.12
876.026	164.35
876.199	244.22
876.371	113.15
876.544	193.02
876.717	240.12
876.889	117.25
877.062	145.92
877.234	-5.63
877.407	113.15
877.579	137.73
877.752	139.77
877.924	369.15
878.097	307.71
878.269	162.3
878.442	141.82
878.614	236.03
878.786	291.32
878.959	6.66
879.131	117.25
879.303	-75.26
879.476	78.33
879.648	283.13
879.82	-1.54
879.993	160.25
880.165	94.72
880.337	4.61
880.509	117.25
880.681	-7.68
880.854	113.15
881.026	244.22
881.198	344.57
881.37	231.93
881.542	209.4
881.714	66.05
881.886	76.29
882.058	293.37
882.23	176.64
882.402	117.25
882.574	184.83
882.746	340.47
882.918	291.32
883.09	197.12
883.262	117.25
883.434	260.6
883.606	-42.5
883.778	0.51
883.95	242.17
884.122	102.91
884.293	279.04
884.465	113.15
884.637	244.22
884.809	80.38
884.98	227.84
885.152	201.21
885.324	152.06
885.496	84.48
885.667	51.71
885.839	88.57
886.011	160.25
886.182	315.9
886.354	236.03
886.525	201.21
886.697	104.96
886.869	78.33
887.04	199.16
887.212	338.43
887.383	221.69
887.555	252.41
887.726	76.29
887.897	129.53
888.069	86.53
888.24	387.58
888.412	147.97
888.583	59.9
888.754	57.86
888.926	-69.12
889.097	127.49
889.268	-22.02
889.44	12.8
889.611	80.38
889.782	-22.02
889.953	-40.45
890.125	211.45
890.296	18.94
890.467	98.81
890.638	168.45
890.809	72.19
890.98	51.71
891.151	266.75
891.323	231.93
891.494	78.33
891.665	152.06
891.836	102.91
892.007	141.82
892.178	172.54
892.349	227.84
892.52	-28.16
892.691	150.01
892.862	61.95
893.032	20.99
893.203	4.61
893.374	131.58
893.545	170.49
893.716	135.68
893.887	317.95
894.057	27.14
894.228	8.7
894.399	135.68
894.57	354.81
894.74	127.49
894.911	121.34
895.082	221.69
895.253	45.57
895.423	178.69
895.594	186.88
895.764	201.21
895.935	27.14
896.106	213.5
896.276	-58.88
896.447	233.98
896.617	33.28
896.788	-32.26
896.958	68.09
897.129	43.52
897.299	47.62
897.47	205.31
897.64	104.96
897.81	100.86
897.981	262.65
898.151	78.33
898.322	141.82
898.492	287.23
898.662	35.33
898.832	20.99
899.003	-91.65
899.173	221.69
899.343	-9.73
899.513	-42.5
