Data from USB4F104151__2__09-13-53-425.txt Node

Date: Wed Feb 26 09:13:53 EST 2025
User: louis
Spectrometer: USB4F10415
Trigger mode: 4
Integration Time (sec): 4.000000E-1
Scans to average: 1
Electric dark correction enabled: true
Nonlinearity correction enabled: false
Boxcar width: 0
XAxis mode: Wavelengths
Number of Pixels in Spectrum: 3648
>>>>>Begin Spectral Data<<<<<
178.204	-897.18
178.424	-897.18
178.644	-897.18
178.864	-856.22
179.084	-860.32
179.304	223.06
179.524	159.57
179.744	-59.56
179.964	-252.07
180.184	298.83
180.404	216.91
180.624	-305.32
180.844	-161.96
181.064	46.93
181.283	233.3
181.503	-192.68
181.723	-207.02
181.943	-51.37
182.163	427.85
182.383	-305.32
182.602	-286.89
182.822	456.53
183.042	333.65
183.262	-260.26
183.482	-174.25
183.701	290.64
183.921	380.75
184.141	-243.88
184.361	-151.72
184.58	270.16
184.8	270.16
185.02	-274.6
185.239	-45.23
185.459	407.38
185.679	491.34
185.898	-321.7
186.118	-342.18
186.338	341.84
186.557	382.8
186.777	-288.93
186.997	-223.4
187.216	243.54
187.436	517.97
187.655	-202.92
187.875	-59.56
188.095	304.98
188.314	431.95
188.534	-145.58
188.753	-317.61
188.973	280.4
189.192	511.82
189.412	-256.17
189.631	-217.26
189.851	390.99
190.07	563.02
190.29	-250.02
190.509	-317.61
190.729	218.96
190.948	477.01
191.168	-108.71
191.387	-239.78
191.607	259.92
191.826	345.94
192.045	-266.41
192.265	-141.48
192.484	390.99
192.704	327.5
192.923	-133.29
193.142	-125.1
193.362	350.03
193.581	311.12
193.8	-190.63
194.02	-198.82
194.239	292.69
194.458	378.7
194.678	-186.54
194.897	-258.21
195.116	358.22
195.335	358.22
195.555	-256.17
195.774	-293.03
195.993	450.38
196.212	223.06
196.432	-127.14
196.651	-336.04
196.87	278.35
197.089	646.99
197.308	-235.69
197.528	-213.16
197.747	63.32
197.966	407.38
198.185	-90.28
198.404	-288.93
198.623	380.75
198.842	388.94
199.062	-161.96
199.281	-100.52
199.5	268.11
199.719	378.7
199.938	-225.45
200.157	-225.45
200.376	517.97
200.595	517.97
200.814	-116.9
201.033	-231.59
201.252	581.45
201.471	282.45
201.69	-135.34
201.909	-159.91
202.128	290.64
202.347	309.07
202.566	-213.16
202.785	-303.27
203.004	218.96
203.223	448.33
203.442	-231.59
203.661	-299.17
203.879	317.26
204.098	409.42
204.317	-272.55
204.536	-43.18
204.755	419.66
204.974	380.75
205.193	-331.94
205.411	-92.33
205.63	477.01
205.849	335.7
206.068	-215.21
206.287	-319.65
206.505	487.25
206.724	358.22
206.943	-317.61
207.162	-247.97
207.381	290.64
207.599	266.07
207.818	-190.63
208.037	-284.84
208.255	276.31
208.474	259.92
208.693	-184.49
208.911	-145.58
209.13	343.89
209.349	378.7
209.567	-133.29
209.786	-233.64
210.005	429.9
210.223	159.57
210.442	-420
210.661	-301.22
210.879	325.46
211.098	323.41
211.316	-198.82
211.535	-192.68
211.753	339.79
211.972	399.18
212.191	-178.34
212.409	-186.54
212.628	448.33
212.846	204.63
213.065	-348.33
213.283	-159.91
213.502	212.82
213.72	325.46
213.938	-202.92
214.157	-194.73
214.375	413.52
214.594	221.01
214.812	-180.39
215.031	-262.31
215.249	233.3
215.467	298.83
215.686	-96.43
215.904	-258.21
216.122	313.17
216.341	401.23
216.559	-67.75
216.778	-59.56
216.996	462.67
217.214	268.11
217.432	-166.06
217.651	-293.03
217.869	278.35
218.087	304.98
218.306	-260.26
218.524	-166.06
218.742	274.26
218.96	479.05
219.179	-233.64
219.397	-247.97
219.615	474.96
219.833	296.78
220.051	-256.17
220.27	-123.05
220.488	429.9
220.706	341.84
220.924	-336.04
221.142	-227.5
221.36	347.98
221.578	331.6
221.796	-180.39
222.015	-80.04
222.233	325.46
222.451	440.14
222.669	-141.48
222.887	-129.19
223.105	178
223.323	227.15
223.541	-118.95
223.759	-157.86
223.977	276.31
224.195	479.05
224.413	-176.3
224.631	-166.06
224.849	270.16
225.067	536.4
225.285	-94.38
225.503	-202.92
225.721	-41.13
225.939	290.64
226.157	-198.82
226.375	63.32
226.592	192.34
226.81	225.11
227.028	-88.23
227.246	-231.59
227.464	300.88
227.682	300.88
227.9	-141.48
228.117	-129.19
228.335	300.88
228.553	276.31
228.771	-288.93
228.989	-157.86
229.206	370.51
229.424	202.58
229.642	-178.34
229.86	-129.19
230.077	458.57
230.295	175.95
230.513	22.36
230.731	-198.82
230.948	372.56
231.166	411.47
231.384	-129.19
231.601	-233.64
231.819	493.39
232.037	167.76
232.254	-192.68
232.472	-207.02
232.689	180.05
232.907	413.52
233.125	-340.13
233.342	-270.5
233.56	229.2
233.777	112.47
233.995	-221.35
234.213	-192.68
234.43	376.66
234.648	286.54
234.865	-184.49
235.083	-168.1
235.3	223.06
235.518	300.88
235.735	-110.76
235.953	-112.81
236.17	350.03
236.388	153.43
236.605	-84.14
236.822	-174.25
237.04	374.61
237.257	253.78
237.475	-157.86
237.692	-186.54
237.909	358.22
238.127	171.86
238.344	-28.84
238.562	-188.58
238.779	192.34
238.996	120.66
239.214	-53.42
239.431	-94.38
239.648	190.29
239.865	304.98
240.083	-102.57
240.3	-272.55
240.517	259.92
240.735	235.35
240.952	91.99
241.169	-227.5
241.386	307.02
241.603	206.67
241.821	-159.91
242.038	-135.34
242.255	499.53
242.472	143.19
242.689	-157.86
242.907	-235.69
243.124	229.2
243.341	321.36
243.558	-84.14
243.775	-170.15
243.992	91.99
244.209	284.5
244.426	-39.08
244.643	-114.86
244.86	296.78
245.078	350.03
245.295	-131.24
245.512	-245.93
245.729	145.24
245.946	296.78
246.163	-157.86
246.38	-204.97
246.597	186.19
246.814	229.2
247.031	-159.91
247.248	-254.12
247.464	382.8
247.681	202.58
247.898	-159.91
248.115	-106.67
248.332	135
248.549	413.52
248.766	-28.84
248.983	-225.45
249.2	364.37
249.417	446.29
249.633	-151.72
249.85	-24.75
250.067	198.48
250.284	216.91
250.501	-239.78
250.717	-200.87
250.934	137.04
251.151	198.48
251.368	-114.86
251.585	-133.29
251.801	264.02
252.018	180.05
252.235	-82.09
252.451	-194.73
252.668	241.49
252.885	405.33
253.102	-174.25
253.318	-207.02
253.535	171.86
253.752	141.14
253.968	-188.58
254.185	-274.6
254.401	296.78
254.618	345.94
254.835	-96.43
255.051	-129.19
255.268	444.24
255.484	276.31
255.701	-100.52
255.917	-88.23
256.134	190.29
256.351	247.63
256.567	-264.36
256.784	-8.36
257	159.57
257.217	380.75
257.433	-10.41
257.65	-182.44
257.866	427.85
258.082	104.28
258.299	-176.3
258.515	-96.43
258.732	290.64
258.948	104.28
259.165	-100.52
259.381	-252.07
259.597	440.14
259.814	218.96
260.03	-202.92
260.246	-116.9
260.463	415.57
260.679	284.5
260.895	-34.99
261.112	-84.14
261.328	251.73
261.544	128.85
261.761	-110.76
261.977	-137.38
262.193	61.27
262.409	362.32
262.626	-10.41
262.842	-149.67
263.058	276.31
263.274	444.24
263.49	-75.95
263.707	-215.21
263.923	354.13
264.139	3.93
264.355	-75.95
264.571	-6.31
264.787	382.8
265.004	313.17
265.22	-88.23
265.436	-112.81
265.652	229.2
265.868	309.07
266.084	-145.58
266.3	-174.25
266.516	96.08
266.732	300.88
266.948	-43.18
267.164	-280.74
267.38	345.94
267.596	409.42
267.812	12.12
268.028	-139.43
268.244	194.39
268.46	239.44
268.676	-112.81
268.892	-69.8
269.108	102.23
269.324	175.95
269.54	-80.04
269.756	-164.01
269.972	112.47
270.188	259.92
270.403	-125.1
270.619	-196.78
270.835	196.43
271.051	235.35
271.267	-157.86
271.483	-237.74
271.698	321.36
271.914	419.66
272.13	-73.9
272.346	-141.48
272.562	214.87
272.777	411.47
272.993	-104.62
273.209	-157.86
273.425	302.93
273.64	79.7
273.856	-215.21
274.072	-266.41
274.287	165.71
274.503	296.78
274.719	5.97
274.934	-278.69
275.15	28.5
275.366	186.19
275.581	-188.58
275.797	-114.86
276.012	233.3
276.228	175.95
276.444	-94.38
276.659	38.74
276.875	87.89
277.09	79.7
277.306	-149.67
277.521	-57.51
277.737	173.91
277.952	143.19
278.168	-104.62
278.383	32.6
278.599	171.86
278.814	208.72
279.03	-217.26
279.245	-59.56
279.461	233.3
279.676	290.64
279.892	-102.57
280.107	-147.62
280.322	159.57
280.538	337.74
280.753	-135.34
280.969	-145.58
281.184	268.11
281.399	317.26
281.615	-63.66
281.83	38.74
282.045	12.12
282.26	63.32
282.476	-102.57
282.691	67.41
282.906	274.26
283.122	122.71
283.337	-80.04
283.552	32.6
283.767	116.56
283.983	229.2
284.198	-98.47
284.413	-121
284.628	91.99
284.843	169.81
285.058	-10.41
285.274	-108.71
285.489	85.84
285.704	153.43
285.919	-55.47
286.134	5.97
286.349	231.25
286.564	202.58
286.779	18.26
286.995	-47.27
287.21	-34.99
287.425	186.19
287.64	-96.43
287.855	10.07
288.07	-28.84
288.285	251.73
288.5	-4.27
288.715	-67.75
288.93	141.14
289.145	130.9
289.36	-118.95
289.575	14.17
289.79	292.69
290.004	112.47
290.219	5.97
290.434	-104.62
290.649	120.66
290.864	175.95
291.079	-116.9
291.294	-77.99
291.509	261.97
291.724	143.19
291.938	-73.9
292.153	-108.71
292.368	249.68
292.583	259.92
292.798	-37.03
293.012	-32.94
293.227	333.65
293.442	132.95
293.657	-12.46
293.871	-77.99
294.086	321.36
294.301	286.54
294.516	-20.65
294.73	104.28
294.945	143.19
295.16	178
295.374	-67.75
295.589	65.36
295.804	130.9
296.018	143.19
296.233	-151.72
296.447	-0.17
296.662	96.08
296.877	368.46
297.091	-86.19
297.306	-10.41
297.52	112.47
297.735	309.07
297.949	46.93
298.164	-229.54
298.378	163.67
298.593	8.02
298.807	-84.14
299.022	-39.08
299.236	280.4
299.451	16.21
299.665	-10.41
299.88	67.41
300.094	304.98
300.309	137.04
300.523	-26.79
300.737	-75.95
300.952	368.46
301.166	339.79
301.381	-104.62
301.595	-108.71
301.809	157.52
302.024	110.42
302.238	-96.43
302.452	20.31
302.667	184.15
302.881	274.26
303.095	5.97
303.309	5.97
303.524	96.08
303.738	227.15
303.952	-43.18
304.166	5.97
304.381	-16.55
304.595	270.16
304.809	5.97
305.023	-194.73
305.237	102.23
305.452	100.18
305.666	-86.19
305.88	18.26
306.094	231.25
306.308	247.63
306.522	-69.8
306.736	14.17
306.95	364.37
307.164	3.93
307.379	61.27
307.593	-43.18
307.807	259.92
308.021	225.11
308.235	192.34
308.449	-151.72
308.663	235.35
308.877	552.78
309.091	-73.9
309.305	98.13
309.519	1.88
309.733	331.6
309.947	-10.41
310.161	-125.1
310.374	153.43
310.588	276.31
310.802	-161.96
311.016	-139.43
311.23	218.96
311.444	73.56
311.658	-51.37
311.872	153.43
312.085	296.78
312.299	331.6
312.513	165.71
312.727	-121
312.941	163.67
313.154	110.42
313.368	-53.42
313.582	-96.43
313.796	235.35
314.009	132.95
314.223	159.57
314.437	10.07
314.651	227.15
314.864	137.04
315.078	-77.99
315.292	-80.04
315.505	153.43
315.719	132.95
315.933	81.75
316.146	-198.82
316.36	153.43
316.573	186.19
316.787	116.56
317.001	-61.61
317.214	46.93
317.428	225.11
317.641	-131.24
317.855	-71.85
318.068	237.39
318.282	169.81
318.495	55.12
318.709	-84.14
318.922	272.21
319.136	300.88
319.349	-2.22
319.563	-51.37
319.776	276.31
319.99	-75.95
320.203	-102.57
320.417	-51.37
320.63	112.47
320.843	233.3
321.057	79.7
321.27	-49.32
321.483	311.12
321.697	204.63
321.91	-80.04
322.124	38.74
322.337	151.38
322.55	87.89
322.763	-121
322.977	-53.42
323.19	61.27
323.403	63.32
323.617	-18.6
323.83	167.76
324.043	206.67
324.256	122.71
324.469	-231.59
324.683	94.04
324.896	218.96
325.109	178
325.322	-100.52
325.535	-43.18
325.748	315.22
325.962	218.96
326.175	-20.65
326.388	-77.99
326.601	255.83
326.814	116.56
327.027	44.88
327.24	20.31
327.453	34.64
327.666	241.49
327.879	178
328.092	-55.47
328.305	337.74
328.518	96.08
328.731	-30.89
328.944	-192.68
329.157	139.09
329.37	44.88
329.583	22.36
329.796	-22.7
330.009	-57.51
330.222	288.59
330.435	-18.6
330.648	26.45
330.861	233.3
331.073	210.77
331.286	38.74
331.499	16.21
331.712	141.14
331.925	128.85
332.138	-30.89
332.35	-114.86
332.563	141.14
332.776	323.41
332.989	24.4
333.202	-149.67
333.414	178
333.627	128.85
333.84	-100.52
334.053	-57.51
334.265	51.03
334.478	63.32
334.691	-39.08
334.903	69.46
335.116	151.38
335.329	155.47
335.541	30.55
335.754	196.43
335.966	218.96
336.179	196.43
336.392	1.88
336.604	-10.41
336.817	178
337.029	190.29
337.242	-88.23
337.454	98.13
337.667	196.43
337.88	251.73
338.092	-18.6
338.305	46.93
338.517	79.7
338.729	204.63
338.942	55.12
339.154	-133.29
339.367	102.23
339.579	235.35
339.792	-186.54
340.004	-47.27
340.217	188.24
340.429	325.46
340.641	-39.08
340.854	-196.78
341.066	173.91
341.278	319.31
341.491	153.43
341.703	-10.41
341.915	67.41
342.128	399.18
342.34	3.93
342.552	-151.72
342.764	231.25
342.977	161.62
343.189	-14.51
343.401	34.64
343.613	20.31
343.826	132.95
344.038	-28.84
344.25	-45.23
344.462	87.89
344.674	175.95
344.886	-125.1
345.099	-2.22
345.311	264.02
345.523	157.52
345.735	-143.53
345.947	67.41
346.159	231.25
346.371	241.49
346.583	1.88
346.795	42.84
347.007	114.52
347.219	255.83
347.431	40.79
347.643	137.04
347.855	149.33
348.067	276.31
348.279	-20.65
348.491	-67.75
348.703	388.94
348.915	173.91
349.127	-110.76
349.339	1.88
349.551	108.37
349.763	434
349.975	-63.66
350.187	-10.41
350.399	345.94
350.61	75.6
350.822	-65.71
351.034	-12.46
351.246	350.03
351.458	147.28
351.669	-2.22
351.881	-6.31
352.093	382.8
352.305	284.5
352.517	-86.19
352.728	67.41
352.94	153.43
353.152	231.25
353.363	-75.95
353.575	42.84
353.787	407.38
353.999	210.77
354.21	198.48
354.422	-100.52
354.633	198.48
354.845	167.76
355.057	20.31
355.268	14.17
355.48	333.65
355.692	-10.41
355.903	3.93
356.115	-47.27
356.326	-59.56
356.538	405.33
356.749	-34.99
356.961	180.05
357.172	194.39
357.384	14.17
357.595	202.58
357.807	-71.85
358.018	128.85
358.23	186.19
358.441	-77.99
358.653	-26.79
358.864	128.85
359.075	3.93
359.287	3.93
359.498	26.45
359.709	249.68
359.921	233.3
360.132	44.88
360.344	-178.34
360.555	59.22
360.766	227.15
360.977	-82.09
361.189	67.41
361.4	251.73
361.611	257.87
361.823	18.26
362.034	-82.09
362.245	-39.08
362.456	145.24
362.667	22.36
362.879	-96.43
363.09	280.4
363.301	251.73
363.512	-51.37
363.723	-53.42
363.935	210.77
364.146	233.3
364.357	-51.37
364.568	-43.18
364.779	-20.65
364.99	292.69
365.201	-14.51
365.412	18.26
365.623	-61.61
365.834	227.15
366.045	132.95
366.256	38.74
366.467	276.31
366.678	83.8
366.889	-12.46
367.1	-51.37
367.311	309.07
367.522	145.24
367.733	77.65
367.944	36.69
368.155	229.2
368.366	280.4
368.577	-80.04
368.788	69.46
368.999	91.99
369.209	98.13
369.42	34.64
369.631	286.54
369.842	227.15
370.053	192.34
370.264	-75.95
370.474	-137.38
370.685	350.03
370.896	124.76
371.107	38.74
371.317	-47.27
371.528	153.43
371.739	352.08
371.95	12.12
372.16	-0.17
372.371	18.26
372.582	208.72
372.792	-135.34
373.003	153.43
373.214	249.68
373.424	235.35
373.635	-86.19
373.846	98.13
374.056	194.39
374.267	141.14
374.477	63.32
374.688	53.08
374.898	241.49
375.109	155.47
375.319	12.12
375.53	-55.47
375.74	257.87
375.951	5.97
376.161	98.13
376.372	5.97
376.582	153.43
376.793	208.72
377.003	26.45
377.214	-61.61
377.424	276.31
377.635	278.35
377.845	-32.94
378.055	132.95
378.266	-14.51
378.476	218.96
378.686	30.55
378.897	-22.7
379.107	350.03
379.317	253.78
379.528	-250.02
379.738	-34.99
379.948	14.17
380.158	313.17
380.369	-45.23
380.579	5.97
380.789	120.66
380.999	223.06
381.21	75.6
381.42	180.05
381.63	132.95
381.84	284.5
382.05	14.17
382.261	87.89
382.471	327.5
382.681	87.89
382.891	55.12
383.101	120.66
383.311	110.42
383.521	227.15
383.731	-26.79
383.941	128.85
384.151	239.44
384.361	61.27
384.571	-43.18
384.781	16.21
384.991	128.85
385.201	415.57
385.411	186.19
385.621	-28.84
385.831	302.93
386.041	212.82
386.251	71.51
386.461	137.04
386.671	124.76
386.881	274.26
387.091	14.17
387.301	79.7
387.511	182.1
387.72	135
387.93	91.99
388.14	-82.09
388.35	128.85
388.56	415.57
388.769	-26.79
388.979	-98.47
389.189	145.24
389.399	190.29
389.609	-2.22
389.818	-28.84
390.028	257.87
390.238	227.15
390.447	-75.95
390.657	14.17
390.867	145.24
391.076	-24.75
391.286	-47.27
391.496	-67.75
391.705	94.04
391.915	417.61
392.125	-69.8
392.334	-51.37
392.544	284.5
392.753	210.77
392.963	51.03
393.172	5.97
393.382	200.53
393.591	378.7
393.801	-26.79
394.01	-28.84
394.22	264.02
394.429	145.24
394.639	48.98
394.848	36.69
395.058	274.26
395.267	214.87
395.477	96.08
395.686	-71.85
395.895	542.54
396.105	317.26
396.314	3.93
396.524	5.97
396.733	118.61
396.942	292.69
397.152	-37.03
397.361	110.42
397.57	192.34
397.78	194.39
397.989	55.12
398.198	216.91
398.407	159.57
398.617	149.33
398.826	-6.31
399.035	-69.8
399.244	153.43
399.453	196.43
399.663	-59.56
399.872	-92.33
400.081	108.37
400.29	261.97
400.499	-116.9
400.708	116.56
400.917	178
401.127	126.8
401.336	-10.41
401.545	274.26
401.754	325.46
401.963	259.92
402.172	-61.61
402.381	-94.38
402.59	235.35
402.799	157.52
403.008	132.95
403.217	44.88
403.426	268.11
403.635	14.17
403.844	-96.43
404.053	-73.9
404.262	221.01
404.471	198.48
404.68	36.69
404.888	36.69
405.097	128.85
405.306	249.68
405.515	5.97
405.724	-51.37
405.933	341.84
406.142	264.02
406.35	-53.42
406.559	32.6
406.768	180.05
406.977	397.14
407.185	36.69
407.394	38.74
407.603	57.17
407.812	198.48
408.02	171.86
408.229	51.03
408.438	200.53
408.646	24.4
408.855	-75.95
409.064	20.31
409.272	137.04
409.481	245.59
409.69	-75.95
409.898	-51.37
410.107	192.34
410.315	251.73
410.524	145.24
410.733	12.12
410.941	241.49
411.15	335.7
411.358	38.74
411.567	106.32
411.775	255.83
411.984	290.64
412.192	98.13
412.401	28.5
412.609	446.29
412.818	251.73
413.026	20.31
413.234	-34.99
413.443	255.83
413.651	96.08
413.86	-184.49
414.068	137.04
414.276	477.01
414.485	151.38
414.693	132.95
414.901	298.83
415.11	218.96
415.318	212.82
415.526	44.88
415.734	141.14
415.943	227.15
416.151	292.69
416.359	-61.61
416.567	28.5
416.776	313.17
416.984	223.06
417.192	130.9
417.4	24.4
417.608	42.84
417.817	130.9
418.025	143.19
418.233	-10.41
418.441	110.42
418.649	91.99
418.857	14.17
419.065	46.93
419.273	128.85
419.481	249.68
419.689	63.32
419.897	-49.32
420.105	-10.41
420.313	345.94
420.521	104.28
420.729	44.88
420.937	157.52
421.145	106.32
421.353	46.93
421.561	161.62
421.769	333.65
421.977	26.45
422.185	55.12
422.393	61.27
422.601	178
422.809	302.93
423.017	-18.6
423.224	38.74
423.432	407.38
423.64	290.64
423.848	-55.47
424.056	-20.65
424.263	380.75
424.471	233.3
424.679	200.53
424.887	-4.27
425.094	393.04
425.302	294.74
425.51	-116.9
425.718	51.03
425.925	223.06
426.133	85.84
426.341	241.49
426.548	10.07
426.756	173.91
426.964	282.45
427.171	22.36
427.379	-6.31
427.586	251.73
427.794	368.46
428.001	194.39
428.209	112.47
428.417	335.7
428.624	341.84
428.832	94.04
429.039	122.71
429.247	307.02
429.454	259.92
429.662	161.62
429.869	104.28
430.076	356.18
430.284	323.41
430.491	165.71
430.699	208.72
430.906	431.95
431.114	362.32
431.321	210.77
431.528	194.39
431.736	202.58
431.943	247.63
432.15	167.76
432.358	85.84
432.565	499.53
432.772	104.28
432.979	282.45
433.187	180.05
433.394	477.01
433.601	284.5
433.808	186.19
434.016	190.29
434.223	315.22
434.43	403.28
434.637	194.39
434.844	378.7
435.052	448.33
435.259	440.14
435.466	399.18
435.673	280.4
435.88	606.03
436.087	540.49
436.294	593.74
436.501	356.18
436.708	575.31
436.915	544.59
437.122	540.49
437.329	243.54
437.537	464.72
437.743	575.31
437.95	571.21
438.157	481.1
438.364	661.32
438.571	577.36
438.778	505.68
438.985	606.03
439.192	718.67
439.399	722.76
439.606	585.55
439.813	733
440.02	980.81
440.227	1089.35
440.433	634.7
440.64	661.32
440.847	792.39
441.054	788.3
441.261	726.86
441.467	761.67
441.674	962.37
441.881	1158.98
442.088	782.15
442.294	874.31
442.501	1218.37
442.708	1251.14
442.914	1032.01
443.121	1054.53
443.328	1343.3
443.534	1437.5
443.741	1126.21
443.948	1044.29
444.154	1558.33
444.361	1652.54
444.568	1421.12
444.774	1443.65
444.981	1453.89
445.187	1875.77
445.394	1685.31
445.6	1601.34
445.807	1996.6
446.013	1857.34
446.22	1533.76
446.426	1972.02
446.633	2070.33
446.839	2367.28
447.046	1904.44
447.252	2197.3
447.459	2422.58
447.665	2463.54
447.871	2328.37
448.078	2799.4
448.284	2760.49
448.491	2895.66
448.697	2828.07
448.903	2924.33
449.11	3215.14
449.316	3036.97
449.522	3194.66
449.728	3229.48
449.935	3618.59
450.141	3594.01
450.347	3776.28
450.553	3706.65
450.76	4091.67
450.966	4128.53
451.172	4134.68
451.378	4323.09
451.584	4501.26
451.791	4714.25
451.997	4804.36
452.203	4759.31
452.409	5289.73
452.615	5488.39
452.821	5175.05
453.027	5302.02
453.233	6231.8
453.44	6121.21
453.646	6027
453.852	6391.54
454.058	6657.78
454.264	7075.56
454.47	7083.75
454.676	7358.18
454.882	8203.99
455.088	7665.38
455.294	8001.24
455.5	8527.57
455.705	9131.72
455.911	9033.42
456.117	9133.77
456.323	9637.57
456.529	9768.64
456.735	10575.54
456.941	10266.3
457.147	11132.59
457.352	11566.76
457.558	11957.92
457.764	12361.37
457.97	12535.45
458.176	13536.9
458.381	13993.6
458.587	14110.33
458.793	14880.37
458.999	14868.08
459.204	16817.75
459.41	17221.2
459.616	16889.43
459.821	18253.37
460.027	18765.37
460.233	19533.36
460.438	19795.5
460.644	20934.17
460.85	21409.29
461.055	21958.15
461.261	22789.63
461.466	22597.12
461.672	22918.65
461.878	25318.87
462.083	25398.74
462.289	26068.42
462.494	26856.89
462.7	26820.03
462.905	27577.78
463.111	29846.93
463.316	30866.81
463.522	31524.21
463.727	32324.97
463.932	33813.84
464.138	34788.67
464.343	35874.1
464.549	36080.94
464.754	38913.28
464.959	40213.74
465.165	40486.12
465.37	40389.87
465.575	40238.32
465.781	43001.03
465.986	44211.38
466.191	43375.81
466.397	44035.25
466.602	43214.02
466.807	45063.33
467.012	45540.51
467.218	47121.54
467.423	46734.48
467.628	47824
467.833	50297.94
468.038	49726.56
468.244	48864.36
468.449	51158.09
468.654	50003.03
468.859	50330.71
469.064	50013.27
469.269	48712.81
469.474	48929.9
469.679	50547.79
469.885	49284.2
470.09	49978.46
470.295	49790.05
470.5	48798.83
470.705	48890.99
470.91	47842.43
471.115	47705.21
471.32	48323.7
471.525	47840.38
471.73	45825.18
471.935	46326.93
472.139	44510.38
472.344	45024.42
472.549	44131.51
472.754	43318.46
472.959	42663.11
473.164	41598.17
473.369	40596.71
473.574	41692.38
473.778	41114.85
473.983	40086.77
474.188	39449.85
474.393	37530.9
474.598	37903.63
474.802	36666.66
475.007	36054.32
475.212	35646.77
475.417	34585.93
475.621	34389.32
475.826	33766.74
476.031	32988.51
476.235	32513.38
476.44	32497
476.645	31096.19
476.849	30881.15
477.054	30694.78
477.259	30117.26
477.463	29787.53
477.668	29007.26
477.872	29625.75
478.077	28525.99
478.282	27219.38
478.486	27246.01
478.691	27266.49
478.895	26783.16
479.1	26619.33
479.304	26691.01
479.509	25664.97
479.713	26029.51
479.918	25331.15
480.122	24798.68
480.326	24825.31
480.531	25077.21
480.735	24692.19
480.94	24131.05
481.144	24985.05
481.348	23944.68
481.553	23924.2
481.757	23293.43
481.961	23381.49
482.166	23979.5
482.37	23291.38
482.574	22420.99
482.778	22580.73
482.983	23287.28
483.187	22085.12
483.391	22398.46
483.595	22025.73
483.8	21757.45
484.004	21554.7
484.208	21892.62
484.412	21626.38
484.616	20987.41
484.821	20854.3
485.025	20301.34
485.229	20553.24
485.433	20428.32
485.637	19836.45
485.841	19455.53
486.045	19498.54
486.249	19568.17
486.453	18984.5
486.657	18302.53
486.861	18374.2
487.065	17694.28
487.269	17530.44
487.473	16983.63
487.677	17661.51
487.881	17249.87
488.085	16502.36
488.289	16615
488.493	15947.36
488.697	16348.76
488.901	15414.89
489.105	15115.89
489.309	15267.44
489.512	15029.87
489.716	14599.8
489.92	14415.48
490.124	14321.27
490.328	14315.13
490.531	13541
490.735	13467.27
490.939	13280.91
491.143	12961.42
491.346	12854.93
491.55	12627.6
491.754	12392.09
491.958	12379.8
492.161	12095.13
492.365	11796.13
492.569	11738.79
492.772	11519.65
492.976	11384.49
493.18	11228.84
493.383	11167.4
493.587	11142.83
493.79	10671.79
493.994	10362.55
494.197	10692.27
494.401	10573.49
494.605	10159.8
494.808	10143.42
495.012	10516.15
495.215	10288.82
495.419	10311.35
495.622	9764.54
495.825	9903.81
496.029	9864.89
496.232	9887.42
496.436	9656
496.639	10049.21
496.843	9830.08
497.046	9758.4
497.249	9713.35
497.453	9989.82
497.656	9860.8
497.859	9842.37
498.063	9631.43
498.266	10184.38
498.469	9866.94
498.673	9868.99
498.876	9778.88
499.079	10167.99
499.282	9979.58
499.485	10071.74
499.689	9879.23
499.892	10473.14
500.095	10219.19
500.298	10342.07
500.501	10206.91
500.705	10747.57
500.908	10677.94
501.111	10747.57
501.314	10612.4
501.517	11040.43
501.72	11091.63
501.923	10710.71
502.126	11194.03
502.329	11515.56
502.532	11577
502.735	11329.19
502.938	11884.19
503.141	12052.13
503.344	11896.48
503.547	12154.52
503.75	11892.38
503.953	12392.09
504.156	12816.02
504.359	12627.6
504.562	12795.54
504.765	13446.79
504.968	13551.24
505.17	13395.59
505.373	13346.44
505.576	13885.06
505.779	14190.2
505.982	13923.97
506.185	14483.06
506.387	14863.99
506.59	14964.34
506.793	15263.34
506.996	15496.81
507.198	16313.95
507.401	16139.87
507.604	16361.05
507.807	16688.73
508.009	16901.72
508.212	17438.28
508.415	17598.02
508.617	17790.53
508.82	18265.66
509.022	18275.9
509.225	19052.08
509.428	19379.76
509.63	19607.08
509.833	20108.83
510.035	20753.94
510.238	21083.67
510.44	21380.62
510.643	22109.7
510.845	22216.19
511.048	22351.36
511.25	23143.92
511.453	23385.58
511.655	24509.92
511.858	24274.4
512.06	25214.42
512.262	25880.01
512.465	25923.02
512.667	26600.9
512.87	27407.8
513.072	27878.83
513.274	28501.41
513.477	29007.26
513.679	29474.2
513.881	30348.68
514.084	30938.49
514.286	30997.88
514.488	31823.22
514.69	33348.95
514.893	33348.95
515.095	34004.3
515.297	34469.19
515.499	34878.79
515.701	35515.7
515.904	36629.8
516.106	37453.08
516.308	37995.79
516.51	38616.33
516.712	38993.15
516.914	39779.57
517.116	40471.79
517.318	41092.32
517.52	41524.44
517.722	42509.52
517.925	43070.66
518.127	43746.49
518.329	44444.85
518.531	44311.73
518.733	45249.7
518.935	45968.54
519.136	46875.79
519.338	47479.94
519.54	48008.31
519.742	48231.54
519.944	49185.89
520.146	50265.17
520.348	50431.06
520.55	50644.05
520.752	50945.1
520.954	52143.16
521.155	51842.11
521.357	52692.02
521.559	53206.06
521.761	54527
521.963	53935.13
522.164	54174.75
522.366	54189.08
522.568	54967.31
522.77	55430.15
522.971	55827.46
523.173	55507.97
523.375	56278.01
523.576	55919.62
523.778	55921.66
523.98	56990.7
524.181	56787.95
524.383	56589.3
524.584	56886.26
524.786	56427.51
524.988	56384.5
525.189	56990.7
525.391	56726.52
525.592	56740.85
525.794	56544.25
525.995	55979.01
526.197	55905.28
526.398	55692.29
526.6	55899.14
526.801	55917.57
527.003	55221.26
527.204	55204.87
527.406	55569.41
527.607	54139.93
527.808	54821.9
528.01	53513.25
528.211	53480.49
528.412	53845.02
528.614	53296.17
528.815	52507.7
529.016	53046.32
529.218	50955.34
529.419	51215.43
529.62	50244.69
529.822	50416.72
530.023	49714.27
530.224	49310.82
530.425	48716.91
530.626	48090.23
530.828	47578.24
531.029	47727.74
531.23	46091.41
531.431	45892.76
531.632	45542.56
531.833	45001.89
532.035	43883.7
532.236	43830.46
532.437	43240.64
532.638	42460.37
532.839	42063.06
533.04	41657.56
533.241	41028.84
533.442	40897.77
533.643	40232.18
533.844	39220.48
534.045	39036.16
534.246	37950.74
534.447	37514.52
534.648	37287.2
534.849	36986.14
535.05	35824.95
535.251	35538.23
535.451	35255.61
535.652	34934.08
535.853	34069.84
536.054	33817.94
536.255	33156.44
536.456	32685.41
536.657	32656.74
536.857	31970.67
537.058	31599.99
537.259	31180.15
537.46	30825.85
537.66	30160.27
537.861	29912.46
538.062	29257.11
538.263	28868
538.463	28857.76
538.664	28558.75
538.865	28102.06
539.065	27702.7
539.266	26887.61
539.466	27213.24
539.667	26629.57
539.868	26410.43
540.068	25951.69
540.269	25669.07
540.469	25476.56
540.67	24788.44
540.87	24520.16
541.071	24417.76
541.271	24536.54
541.472	24032.74
541.672	23746.03
541.873	23354.86
542.073	22654.46
542.274	22883.83
542.474	22363.65
542.675	22208
542.875	22144.52
543.075	21696.01
543.276	21087.76
543.476	21779.98
543.676	21251.6
543.877	20794.9
544.077	20586.01
544.277	20225.57
544.478	20153.89
544.678	19877.41
544.878	19799.59
545.078	19482.16
545.279	18980.4
545.479	18452.03
545.679	18517.56
545.879	18538.04
546.079	18042.43
546.28	17616.46
546.48	17700.42
546.68	17940.04
546.88	17536.59
547.08	17004.11
547.28	16934.48
547.48	16791.13
547.68	16821.84
547.88	16248.41
548.081	16037.47
548.281	16039.52
548.481	15668.84
548.681	15537.77
548.881	15210.09
549.081	15363.69
549.28	14620.28
549.48	14610.04
549.68	14425.72
549.88	14698.1
550.08	13823.62
550.28	13991.55
550.48	13696.64
550.68	14216.83
550.88	13364.87
551.08	13133.45
551.279	12965.52
551.479	12678.8
551.679	12740.24
551.879	12387.99
552.079	12166.81
552.278	12080.8
552.478	11996.83
552.678	11583.14
552.878	11615.91
553.077	11341.48
553.277	11048.62
553.477	11103.92
553.676	10712.75
553.876	10948.27
554.076	10499.77
554.275	10571.44
554.475	9862.85
554.674	10489.53
554.874	9803.46
555.074	9754.3
555.273	9492.16
555.473	9301.7
555.672	9434.82
555.872	9246.41
556.071	8976.08
556.271	9244.36
556.47	8828.62
556.67	8306.39
556.869	8386.26
557.068	8525.52
557.268	8353.49
557.467	8001.24
557.667	8015.58
557.866	8126.17
558.065	7900.89
558.265	7489.25
558.464	7304.93
558.663	7448.29
558.863	7304.93
559.062	7280.36
559.261	6776.56
559.461	7116.52
559.66	6614.77
559.859	6885.1
560.058	6362.87
560.258	6418.16
560.457	6274.81
560.656	6469.36
560.855	6047.48
561.054	6418.16
561.253	6133.5
561.453	5857.02
561.652	5965.56
561.851	6127.35
562.05	5678.85
562.249	5248.77
562.448	5433.09
562.647	5418.75
562.846	5302.02
563.045	5314.31
563.244	5195.53
563.443	5308.16
563.642	5140.23
563.841	5125.9
564.04	4943.63
564.239	4904.71
564.438	5003.02
564.637	4550.42
564.836	4671.25
565.035	4595.47
565.234	4527.89
565.432	4378.39
565.631	4335.38
565.83	4511.5
566.029	4394.77
566.228	4022.04
566.427	4175.64
566.625	4116.25
566.824	4140.82
567.023	4019.99
567.222	3886.87
567.42	4091.67
567.619	3907.35
567.818	3690.27
568.016	3942.17
568.215	3770.14
568.414	3813.15
568.612	3444.51
568.811	3551.01
569.01	3602.21
569.208	3651.36
569.407	3512.1
569.605	3307.3
569.804	3452.7
570.002	3540.77
570.201	3319.59
570.4	3288.87
570.598	3354.4
570.797	3297.06
570.995	2983.72
571.193	3028.78
571.392	3282.72
571.59	2938.66
571.789	3036.97
571.987	2879.27
572.186	2912.04
572.384	2834.22
572.582	2682.67
572.781	2903.85
572.979	2674.48
573.177	2633.52
573.376	2563.89
573.574	2590.51
573.772	2647.85
573.971	2537.26
574.169	2367.28
574.367	2512.69
574.565	2574.13
574.763	2453.3
574.962	2176.82
575.16	2354.99
575.358	2369.33
575.556	2387.76
575.754	2152.24
575.952	2107.19
576.151	2248.5
576.349	2297.65
576.547	1924.92
576.745	2015.03
576.943	2238.26
577.141	1941.3
577.339	1767.23
577.537	1750.84
577.735	2103.09
577.933	1881.91
578.131	1769.27
578.329	1709.88
578.527	1943.35
578.725	2055.99
578.923	1439.55
579.121	1703.74
579.319	1496.89
579.516	1779.51
579.714	1713.98
579.912	1711.93
580.11	1625.92
580.308	1693.5
580.506	1529.66
580.704	1210.18
580.901	1546.05
581.099	1773.37
581.297	1488.7
581.495	1394.5
581.692	1537.85
581.89	1548.09
582.088	1519.42
582.285	1304.39
582.483	1423.17
582.681	1470.27
582.878	1271.62
583.076	1374.02
583.274	1513.28
583.471	1587.01
583.669	1226.56
583.866	1191.75
584.064	1361.73
584.262	1128.26
584.459	1062.73
584.657	1199.94
584.854	1349.44
585.052	1300.29
585.249	1095.49
585.447	986.95
585.644	1021.77
585.841	1371.97
586.039	1087.3
586.236	958.28
586.434	1242.95
586.631	1042.25
586.828	812.87
587.026	857.93
587.223	945.99
587.42	945.99
587.618	923.46
587.815	939.85
588.012	1191.75
588.21	939.85
588.407	874.31
588.604	892.74
588.801	974.66
588.999	1034.05
589.196	907.08
589.393	739.15
589.59	1154.88
589.787	1126.21
589.984	743.24
590.182	964.42
590.379	937.8
590.576	902.98
590.773	726.86
590.97	616.27
591.167	1165.12
591.364	1103.68
591.561	739.15
591.758	831.3
591.955	1054.53
592.152	859.98
592.349	921.42
592.546	720.71
592.743	939.85
592.94	917.32
593.137	857.93
593.334	989
593.531	1070.92
593.727	937.8
593.924	888.65
594.121	782.15
594.318	878.41
594.515	1019.72
594.712	868.17
594.908	851.78
595.105	706.38
595.302	997.19
595.499	755.53
595.696	1021.77
595.892	905.03
596.089	1183.56
596.286	976.71
596.482	923.46
596.679	1183.56
596.876	1019.72
597.072	972.61
597.269	888.65
597.466	1171.27
597.662	1169.22
597.859	1029.96
598.055	1118.02
598.252	1265.47
598.448	1421.12
598.645	1206.08
598.841	1306.43
599.038	1615.68
599.234	1822.52
599.431	1402.69
599.627	1402.69
599.824	1734.46
600.02	1756.99
600.217	1529.66
600.413	1556.29
600.609	1914.68
600.806	2201.4
601.002	1894.2
601.198	1783.61
601.395	2324.27
601.591	2307.89
601.787	2295.6
601.984	2199.35
602.18	2510.64
602.376	2567.98
602.572	2410.29
602.769	2711.34
602.965	2821.93
603.161	2940.71
603.357	2950.95
603.553	3086.12
603.75	3108.65
603.946	3247.91
604.142	3346.21
604.338	3378.98
604.534	3608.35
604.73	3745.56
604.926	3807
605.122	3938.07
605.318	4187.93
605.514	4402.96
605.71	4126.49
605.906	4507.41
606.102	4566.8
606.298	4880.14
606.494	4802.32
606.69	5056.26
606.886	5199.62
607.082	5363.46
607.278	5351.17
607.474	5584.64
607.67	5969.66
607.866	5793.53
608.062	6137.59
608.257	6076.15
608.453	6559.47
608.649	6610.67
608.845	6491.89
609.041	6805.23
609.236	7180.01
609.432	7499.49
609.628	7323.37
609.824	7495.39
610.019	7804.64
610.215	8189.66
610.411	8390.36
610.606	8586.96
610.802	8718.03
610.998	9103.05
611.193	9283.27
611.389	9287.37
611.584	9729.73
611.78	9744.06
611.976	10151.61
612.171	10649.27
612.367	10888.88
612.562	10948.27
612.758	11269.8
612.953	11577
613.149	11878.05
613.344	12314.27
613.539	12639.89
613.735	12742.29
613.93	13244.04
614.126	13237.9
614.321	13715.08
614.517	14038.66
614.712	14845.55
614.907	14878.32
615.103	15421.03
615.298	15435.37
615.493	16191.07
615.688	16377.44
615.884	17186.38
616.079	17153.62
616.274	17837.64
616.47	18241.09
616.665	18613.82
616.86	18697.78
617.055	19572.27
617.25	20061.73
617.445	20837.91
617.641	20811.29
617.836	21313.04
618.031	21734.92
618.226	22648.32
618.421	23238.13
618.616	23700.97
618.811	24016.36
619.006	24853.98
619.201	24628.7
619.396	25738.7
619.591	25771.47
619.786	26963.39
619.981	27121.08
620.176	28116.39
620.371	28521.89
620.566	29179.29
620.761	29558.16
620.956	30981.5
621.151	30776.7
621.346	31649.14
621.541	31833.46
621.735	33119.58
621.93	33084.76
622.125	33817.94
622.32	34080.08
622.515	35052.86
622.709	35769.65
622.904	36205.87
623.099	36711.72
623.294	37608.73
623.488	38454.54
623.683	38847.75
623.878	38931.72
624.072	40080.63
624.267	41065.7
624.462	41352.41
624.656	41503.96
624.851	42433.74
625.046	42978.5
625.24	43556.03
625.435	43785.4
625.629	44926.12
625.824	45325.47
626.018	45939.86
626.213	45720.73
626.407	47049.86
626.602	47395.97
626.796	48096.38
626.991	48055.42
627.185	48219.25
627.38	48850.03
627.574	49298.53
627.768	49300.58
627.963	49646.69
628.157	50160.73
628.352	50052.19
628.546	49380.45
628.74	50314.33
628.935	50269.27
629.129	50383.96
629.323	50183.26
629.517	49577.06
629.712	49658.98
629.906	49280.1
630.1	48671.85
630.294	48774.25
630.489	48123
630.683	47717.5
630.877	46398.61
631.071	45649.05
631.265	45307.04
631.459	44842.15
631.653	43320.51
631.848	43041.99
632.042	42001.62
632.236	41415.9
632.43	39576.83
632.624	39349.5
632.818	37676.31
633.012	36322.6
633.206	35226.94
633.4	34635.08
633.594	33107.29
633.788	32494.95
633.982	31354.23
634.176	30369.16
634.369	28773.79
634.563	28194.22
634.757	27008.44
634.951	26322.37
635.145	25232.85
635.339	24161.76
635.533	23211.51
635.726	22681.08
635.92	21489.17
636.114	20510.24
636.308	19641.9
636.501	18937.4
636.695	18132.54
636.889	17466.95
637.083	16488.03
637.276	16178.78
637.47	15369.83
637.664	14880.37
637.857	14159.49
638.051	13856.39
638.244	13194.89
638.438	12584.6
638.632	12033.69
638.825	11544.23
639.019	11396.78
639.212	10600.12
639.406	10491.57
639.599	9875.13
639.793	9875.13
639.986	8896.21
640.18	8933.07
640.373	8742.61
640.567	8193.75
640.76	7993.05
640.954	7515.87
641.147	7413.48
641.34	7108.33
641.534	6665.97
641.727	6563.57
641.92	6631.15
642.114	6174.46
642.307	5711.61
642.5	5490.43
642.694	5658.37
642.887	5375.75
643.08	5203.72
643.273	4808.46
643.467	4781.84
643.66	4503.31
643.853	4224.79
644.046	4230.93
644.239	4024.09
644.432	3774.24
644.626	3424.03
644.819	3403.55
645.012	3495.71
645.205	3499.81
645.398	3194.66
645.591	3110.69
645.784	2979.62
645.977	2676.52
646.17	2717.48
646.363	2627.37
646.556	2541.36
646.749	2330.42
646.942	2314.03
647.135	2189.11
647.328	2266.93
647.521	2199.35
647.714	1814.33
647.907	1963.83
648.099	1781.56
648.292	1994.55
648.485	1838.91
648.678	1537.85
648.871	1716.03
649.064	1722.17
649.256	1421.12
649.449	1341.25
649.642	1333.06
649.835	1419.07
650.027	1242.95
650.22	1320.77
650.413	1349.44
650.605	1316.67
650.798	1193.8
650.991	1021.77
651.183	1177.41
651.376	1161.03
651.568	968.52
651.761	907.08
651.954	1175.36
652.146	989
652.339	931.66
652.531	964.42
652.724	812.87
652.916	913.22
653.109	522.06
653.301	739.15
653.494	986.95
653.686	874.31
653.879	702.28
654.071	706.38
654.263	671.56
654.456	692.04
654.648	595.79
654.84	599.88
655.033	591.69
655.225	825.16
655.417	415.57
655.61	542.54
655.802	812.87
655.994	870.22
656.186	331.6
656.379	534.35
656.571	481.1
656.763	548.68
656.955	448.33
657.148	388.94
657.34	714.57
657.532	509.77
657.724	290.64
657.916	366.42
658.108	595.79
658.3	620.36
658.492	497.49
658.684	288.59
658.876	696.14
659.068	345.94
659.26	194.39
659.452	184.15
659.644	431.95
659.836	745.29
660.028	343.89
660.22	245.59
660.412	489.29
660.604	339.79
660.796	300.88
660.988	243.54
661.18	354.13
661.372	444.24
661.563	282.45
661.755	178
661.947	329.55
662.139	405.33
662.331	261.97
662.522	225.11
662.714	286.54
662.906	243.54
663.097	157.52
663.289	130.9
663.481	147.28
663.673	390.99
663.864	137.04
664.056	186.19
664.247	235.35
664.439	448.33
664.631	108.37
664.822	153.43
665.014	325.46
665.205	194.39
665.397	128.85
665.588	112.47
665.78	333.65
665.971	399.18
666.163	63.32
666.354	14.17
666.546	223.06
666.737	249.68
666.929	173.91
667.12	157.52
667.311	296.78
667.503	264.02
667.694	221.01
667.885	130.9
668.077	280.4
668.268	53.08
668.459	77.65
668.651	161.62
668.842	221.01
669.033	208.72
669.224	1.88
669.416	343.89
669.607	165.71
669.798	94.04
669.989	20.31
670.18	53.08
670.371	358.22
670.563	87.89
670.754	194.39
670.945	163.67
671.136	395.09
671.327	124.76
671.518	48.98
671.709	118.61
671.9	374.61
672.091	366.42
672.282	71.51
672.473	-63.66
672.664	14.17
672.855	317.26
673.046	44.88
673.237	100.18
673.428	231.25
673.619	272.21
673.809	-18.6
674	87.89
674.191	370.51
674.382	208.72
674.573	20.31
674.764	77.65
674.954	329.55
675.145	83.8
675.336	-26.79
675.527	-14.51
675.717	81.75
675.908	196.43
676.099	20.31
676.289	-34.99
676.48	-73.9
676.671	157.52
676.861	-43.18
677.052	-112.81
677.243	141.14
677.433	36.69
677.624	96.08
677.814	-10.41
678.005	112.47
678.195	397.14
678.386	38.74
678.576	42.84
678.767	-2.22
678.957	208.72
679.148	145.24
679.338	61.27
679.529	309.07
679.719	65.36
679.909	96.08
680.1	-59.56
680.29	251.73
680.481	-2.22
680.671	71.51
680.861	-4.27
681.052	270.16
681.242	-2.22
681.432	71.51
681.622	-34.99
681.813	-45.23
682.003	182.1
682.193	-135.34
682.383	-26.79
682.573	259.92
682.764	55.12
682.954	75.6
683.144	175.95
683.334	184.15
683.524	175.95
683.714	145.24
683.904	81.75
684.094	132.95
684.284	149.33
684.474	69.46
684.664	30.55
684.854	106.32
685.044	141.14
685.234	38.74
685.424	48.98
685.614	30.55
685.804	358.22
685.994	-6.31
686.184	32.6
686.374	298.83
686.564	155.47
686.753	77.65
686.943	-112.81
687.133	96.08
687.323	132.95
687.513	63.32
687.702	-84.14
687.892	106.32
688.082	210.77
688.272	22.36
688.461	63.32
688.651	247.63
688.841	218.96
689.03	-45.23
689.22	-26.79
689.41	341.84
689.599	227.15
689.789	30.55
689.979	178
690.168	145.24
690.358	274.26
690.547	-59.56
690.737	22.36
690.926	292.69
691.116	206.67
691.305	32.6
691.495	26.45
691.684	61.27
691.874	135
692.063	-59.56
692.252	10.07
692.442	296.78
692.631	214.87
692.82	-43.18
693.01	157.52
693.199	233.3
693.388	194.39
693.578	34.64
693.767	96.08
693.956	296.78
694.146	178
694.335	38.74
694.524	-16.55
694.713	329.55
694.902	178
695.092	-43.18
695.281	122.71
695.47	128.85
695.659	79.7
695.848	-86.19
696.037	-2.22
696.226	292.69
696.415	202.58
696.604	235.35
696.793	100.18
696.982	198.48
697.171	311.12
697.36	-94.38
697.549	-51.37
697.738	-75.95
697.927	102.23
698.116	-0.17
698.305	151.38
698.494	249.68
698.683	153.43
698.872	51.03
699.061	-30.89
699.25	132.95
699.438	169.81
699.627	-22.7
699.816	180.05
700.005	63.32
700.193	14.17
700.382	149.33
700.571	14.17
700.76	280.4
700.948	354.13
701.137	-90.28
701.326	178
701.514	208.72
701.703	264.02
701.892	24.4
702.08	98.13
702.269	239.44
702.457	118.61
702.646	38.74
702.834	-59.56
703.023	333.65
703.212	397.14
703.4	-6.31
703.589	10.07
703.777	218.96
703.965	14.17
704.154	-137.38
704.342	-61.61
704.531	79.7
704.719	182.1
704.907	55.12
705.096	-37.03
705.284	87.89
705.472	169.81
705.661	38.74
705.849	18.26
706.037	341.84
706.226	266.07
706.414	-18.6
706.602	-114.86
706.79	307.02
706.979	100.18
707.167	102.23
707.355	-86.19
707.543	161.62
707.731	175.95
707.919	-10.41
708.107	-10.41
708.296	118.61
708.484	40.79
708.672	137.04
708.86	-90.28
709.048	169.81
709.236	48.98
709.424	12.12
709.612	63.32
709.8	30.55
709.988	169.81
710.176	46.93
710.364	98.13
710.551	167.76
710.739	175.95
710.927	-102.57
711.115	-65.71
711.303	272.21
711.491	261.97
711.679	-77.99
711.866	96.08
712.054	143.19
712.242	137.04
712.43	91.99
712.617	-30.89
712.805	311.12
712.993	194.39
713.181	1.88
713.368	18.26
713.556	200.53
713.744	94.04
713.931	91.99
714.119	42.84
714.306	128.85
714.494	110.42
714.682	1.88
714.869	-106.67
715.057	145.24
715.244	-96.43
715.432	71.51
715.619	-143.53
715.807	120.66
715.994	-14.51
716.182	-43.18
716.369	104.28
716.556	227.15
716.744	-6.31
716.931	-14.51
717.119	5.97
717.306	165.71
717.493	259.92
717.681	-55.47
717.868	-151.72
718.055	309.07
718.242	83.8
718.43	-67.75
718.617	-14.51
718.804	184.15
718.991	282.45
719.179	-92.33
719.366	10.07
719.553	239.44
719.74	169.81
719.927	-2.22
720.114	106.32
720.301	53.08
720.488	18.26
720.676	-174.25
720.863	116.56
721.05	511.82
721.237	290.64
721.424	30.55
721.611	-28.84
721.798	-14.51
721.985	24.4
722.172	51.03
722.358	-47.27
722.545	300.88
722.732	257.87
722.919	120.66
723.106	5.97
723.293	122.71
723.48	225.11
723.667	44.88
723.853	53.08
724.04	243.54
724.227	288.59
724.414	-18.6
724.6	34.64
724.787	274.26
724.974	382.8
725.161	128.85
725.347	-22.7
725.534	268.11
725.72	120.66
725.907	63.32
726.094	22.36
726.28	112.47
726.467	169.81
726.653	-133.29
726.84	30.55
727.027	290.64
727.213	96.08
727.4	85.84
727.586	55.12
727.773	251.73
727.959	157.52
728.145	38.74
728.332	-80.04
728.518	120.66
728.705	272.21
728.891	-135.34
729.077	28.5
729.264	22.36
729.45	159.57
729.636	-77.99
729.823	20.31
730.009	300.88
730.195	198.48
730.382	63.32
730.568	-129.19
730.754	208.72
730.94	112.47
731.126	-28.84
731.313	-135.34
731.499	208.72
731.685	227.15
731.871	81.75
732.057	30.55
732.243	274.26
732.429	245.59
732.615	36.69
732.801	20.31
732.987	141.14
733.173	190.29
733.359	-49.32
733.545	96.08
733.731	98.13
733.917	366.42
734.103	10.07
734.289	112.47
734.475	124.76
734.661	341.84
734.847	63.32
735.033	-26.79
735.219	280.4
735.404	161.62
735.59	38.74
735.776	14.17
735.962	210.77
736.148	239.44
736.333	89.94
736.519	44.88
736.705	132.95
736.89	153.43
737.076	-47.27
737.262	-114.86
737.447	87.89
737.633	143.19
737.819	28.5
738.004	-26.79
738.19	55.12
738.375	212.82
738.561	63.32
738.747	22.36
738.932	118.61
739.118	401.23
739.303	71.51
739.489	96.08
739.674	155.47
739.859	20.31
740.045	63.32
740.23	34.64
740.416	-77.99
740.601	190.29
740.786	96.08
740.972	-135.34
741.157	126.8
741.342	91.99
741.528	10.07
741.713	55.12
741.898	63.32
742.084	200.53
742.269	8.02
742.454	18.26
742.639	313.17
742.824	206.67
743.01	190.29
743.195	77.65
743.38	231.25
743.565	186.19
743.75	-6.31
743.935	71.51
744.12	266.07
744.305	71.51
744.49	67.41
744.675	-51.37
744.86	161.62
745.045	272.21
745.23	-104.62
745.415	-37.03
745.6	325.46
745.785	132.95
745.97	51.03
746.155	42.84
746.34	337.74
746.525	223.06
746.71	94.04
746.895	26.45
747.079	87.89
747.264	153.43
747.449	112.47
747.634	5.97
747.819	239.44
748.003	270.16
748.188	-98.47
748.373	53.08
748.557	227.15
748.742	147.28
748.927	69.46
749.111	5.97
749.296	126.8
749.481	280.4
749.665	22.36
749.85	94.04
750.034	188.24
750.219	210.77
750.404	-12.46
750.588	-86.19
750.773	167.76
750.957	178
751.141	-30.89
751.326	28.5
751.51	61.27
751.695	122.71
751.879	161.62
752.064	186.19
752.248	149.33
752.432	364.37
752.617	-63.66
752.801	149.33
752.985	241.49
753.17	307.02
753.354	-20.65
753.538	34.64
753.722	167.76
753.907	126.8
754.091	30.55
754.275	63.32
754.459	44.88
754.643	75.6
754.828	30.55
755.012	42.84
755.196	36.69
755.38	333.65
755.564	-10.41
755.748	51.03
755.932	251.73
756.116	247.63
756.3	85.84
756.484	-4.27
756.668	249.68
756.852	-47.27
757.036	-32.94
757.22	-14.51
757.404	63.32
757.588	112.47
757.772	83.8
757.956	36.69
758.14	378.7
758.323	24.4
758.507	-43.18
758.691	-10.41
758.875	350.03
759.059	364.37
759.242	-80.04
759.426	135
759.61	247.63
759.794	46.93
759.977	190.29
760.161	601.93
760.345	345.94
760.528	343.89
760.712	87.89
760.895	110.42
761.079	202.58
761.263	38.74
761.446	-47.27
761.63	-184.49
761.813	118.61
761.997	34.64
762.18	3.93
762.364	126.8
762.547	18.26
762.731	165.71
762.914	137.04
763.098	53.08
763.281	169.81
763.464	112.47
763.648	71.51
763.831	-18.6
764.015	132.95
764.198	333.65
764.381	79.7
764.564	-34.99
764.748	210.77
764.931	292.69
765.114	-6.31
765.297	85.84
765.481	-6.31
765.664	151.38
765.847	-49.32
766.03	79.7
766.213	153.43
766.397	135
766.58	-69.8
766.763	135
766.946	165.71
767.129	112.47
767.312	-41.13
767.495	40.79
767.678	51.03
767.861	270.16
768.044	-86.19
768.227	-18.6
768.41	143.19
768.593	239.44
768.776	171.86
768.959	38.74
769.142	298.83
769.324	87.89
769.507	14.17
769.69	-67.75
769.873	202.58
770.056	534.35
770.239	-28.84
770.421	198.48
770.604	190.29
770.787	120.66
770.97	-6.31
771.152	-26.79
771.335	204.63
771.518	91.99
771.7	5.97
771.883	126.8
772.066	59.22
772.248	364.37
772.431	116.56
772.613	30.55
772.796	153.43
772.978	257.87
773.161	161.62
773.343	-51.37
773.526	149.33
773.708	-10.41
773.891	-131.24
774.073	18.26
774.256	87.89
774.438	429.9
774.621	-116.9
774.803	30.55
774.985	128.85
775.168	292.69
775.35	-4.27
775.532	53.08
775.715	57.17
775.897	251.73
776.079	5.97
776.261	120.66
776.444	227.15
776.626	55.12
776.808	87.89
776.99	-166.06
777.173	264.02
777.355	141.14
777.537	-47.27
777.719	38.74
777.901	153.43
778.083	83.8
778.265	-98.47
778.447	102.23
778.629	141.14
778.811	137.04
778.993	132.95
779.175	-2.22
779.357	120.66
779.539	14.17
779.721	120.66
779.903	59.22
780.085	83.8
780.267	247.63
780.449	-28.84
780.631	137.04
780.812	284.5
780.994	124.76
781.176	-20.65
781.358	10.07
781.54	192.34
781.721	251.73
781.903	-77.99
782.085	-16.55
782.267	206.67
782.448	-2.22
782.63	40.79
782.812	34.64
782.993	276.31
783.175	257.87
783.357	-24.75
783.538	255.83
783.72	149.33
783.901	169.81
784.083	30.55
784.264	120.66
784.446	1.88
784.627	44.88
784.809	122.71
784.99	-67.75
785.172	227.15
785.353	169.81
785.535	-55.47
785.716	-39.08
785.897	100.18
786.079	159.57
786.26	34.64
786.441	100.18
786.623	-69.8
786.804	-20.65
786.985	12.12
787.167	-39.08
787.348	159.57
787.529	69.46
787.71	24.4
787.891	69.46
788.073	112.47
788.254	1.88
788.435	141.14
788.616	-47.27
788.797	46.93
788.978	104.28
789.159	14.17
789.34	137.04
789.522	169.81
789.703	96.08
789.884	85.84
790.065	155.47
790.246	415.57
790.427	55.12
790.607	26.45
790.788	110.42
790.969	63.32
791.15	296.78
791.331	10.07
791.512	34.64
791.693	112.47
791.874	38.74
792.054	169.81
792.235	61.27
792.416	42.84
792.597	-24.75
792.778	157.52
792.958	-6.31
793.139	223.06
793.32	120.66
793.5	-75.95
793.681	120.66
793.862	309.07
794.042	108.37
794.223	-151.72
794.404	-20.65
794.584	-98.47
794.765	79.7
794.945	102.23
795.126	83.8
795.306	214.87
795.487	130.9
795.667	-53.42
795.848	3.93
796.028	212.82
796.209	159.57
796.389	245.59
796.57	24.4
796.75	139.09
796.93	85.84
797.111	-18.6
797.291	-94.38
797.471	276.31
797.652	175.95
797.832	-12.46
798.012	89.94
798.192	124.76
798.373	-102.57
798.553	46.93
798.733	96.08
798.913	18.26
799.093	155.47
799.274	-53.42
799.454	14.17
799.634	296.78
799.814	278.35
799.994	38.74
800.174	112.47
800.354	161.62
800.534	-71.85
800.714	85.84
800.894	-112.81
801.074	3.93
801.254	22.36
801.434	128.85
801.614	-26.79
801.794	59.22
801.974	5682.94
802.154	-77.99
802.334	149.33
802.514	71.51
802.693	42.84
802.873	-71.85
803.053	198.48
803.233	218.96
803.413	190.29
803.592	-73.9
803.772	34.64
803.952	153.43
804.131	-39.08
804.311	96.08
804.491	69.46
804.67	53.08
804.85	63.32
805.03	120.66
805.209	276.31
805.389	155.47
805.568	126.8
805.748	63.32
805.928	63.32
806.107	235.35
806.287	100.18
806.466	145.24
806.646	42.84
806.825	147.28
807.004	42.84
807.184	55.12
807.363	36.69
807.543	135
807.722	30.55
807.901	145.24
808.081	65.36
808.26	-182.44
808.439	137.04
808.619	-88.23
808.798	-92.33
808.977	231.25
809.156	296.78
809.336	135
809.515	44.88
809.694	55.12
809.873	71.51
810.052	14.17
810.231	190.29
810.411	194.39
810.59	276.31
810.769	63.32
810.948	85.84
811.127	-39.08
811.306	-34.99
811.485	-34.99
811.664	94.04
811.843	178
812.022	216.91
812.201	-182.44
812.38	-100.52
812.559	106.32
812.737	173.91
812.916	-71.85
813.095	-47.27
813.274	255.83
813.453	135
813.632	83.8
813.811	198.48
813.989	-8.36
814.168	83.8
814.347	-217.26
814.526	42.84
814.704	323.41
814.883	397.14
815.062	-96.43
815.24	10.07
815.419	14.17
815.598	268.11
815.776	-180.39
815.955	14.17
816.133	-153.77
816.312	157.52
816.49	-18.6
816.669	12.12
816.847	141.14
817.026	198.48
817.204	-57.51
817.383	-10.41
817.561	77.65
817.74	227.15
817.918	3.93
818.097	-51.37
818.275	55.12
818.453	198.48
818.632	89.94
818.81	55.12
818.988	98.13
819.167	63.32
819.345	48.98
819.523	-51.37
819.701	270.16
819.879	182.1
820.058	128.85
820.236	-139.43
820.414	214.87
820.592	51.03
820.77	44.88
820.948	-145.58
821.127	120.66
821.305	206.67
821.483	-176.3
821.661	96.08
821.839	184.15
822.017	63.32
822.195	-88.23
822.373	-2.22
822.551	194.39
822.729	194.39
822.907	-34.99
823.085	73.56
823.262	178
823.44	5.97
823.618	57.17
823.796	-26.79
823.974	38.74
824.152	-57.51
824.329	30.55
824.507	20.31
824.685	261.97
824.863	112.47
825.04	-94.38
825.218	-118.95
825.396	186.19
825.574	104.28
825.751	102.23
825.929	-47.27
826.107	5.97
826.284	143.19
826.462	-22.7
826.639	-8.36
826.817	-6.31
826.994	132.95
827.172	-121
827.349	1.88
827.527	171.86
827.704	149.33
827.882	153.43
828.059	-10.41
828.237	71.51
828.414	247.63
828.591	-114.86
828.769	-20.65
828.946	71.51
829.124	251.73
829.301	67.41
829.478	-96.43
829.655	143.19
829.833	157.52
830.01	-198.82
830.187	178
830.364	208.72
830.542	204.63
830.719	26.45
830.896	38.74
831.073	253.78
831.25	214.87
831.427	-92.33
831.604	44.88
831.782	22.36
831.959	225.11
832.136	36.69
832.313	63.32
832.49	69.46
832.667	137.04
832.844	-75.95
833.021	218.96
833.198	169.81
833.374	200.53
833.551	12.12
833.728	-10.41
833.905	212.82
834.082	-110.76
834.259	163.67
834.436	75.6
834.612	102.23
834.789	259.92
834.966	18.26
835.143	38.74
835.319	38.74
835.496	165.71
835.673	-8.36
835.85	108.37
836.026	200.53
836.203	315.22
836.38	-82.09
836.556	5.97
836.733	69.46
836.909	358.22
837.086	-22.7
837.262	-84.14
837.439	128.85
837.616	16.21
837.792	53.08
837.968	-143.53
838.145	-125.1
838.321	102.23
838.498	5.97
838.674	104.28
838.851	178
839.027	22.36
839.203	61.27
839.38	151.38
839.556	59.22
839.732	175.95
839.909	-41.13
840.085	-16.55
840.261	126.8
840.437	233.3
840.614	96.08
840.79	57.17
840.966	208.72
841.142	151.38
841.318	10.07
841.494	10.07
841.671	202.58
841.847	-6.31
842.023	-96.43
842.199	-2.22
842.375	345.94
842.551	-16.55
842.727	-26.79
842.903	87.89
843.079	-18.6
843.255	327.5
843.431	5.97
843.607	96.08
843.783	-200.87
843.959	259.92
844.134	44.88
844.31	165.71
844.486	137.04
844.662	110.42
844.838	20.31
845.013	-69.8
845.189	339.79
845.365	120.66
845.541	-20.65
845.716	77.65
845.892	259.92
846.068	85.84
846.244	-37.03
846.419	-43.18
846.595	28.5
846.77	-0.17
846.946	55.12
847.122	-2.22
847.297	155.47
847.473	415.57
847.648	-75.95
847.824	-10.41
847.999	-100.52
848.175	210.77
848.35	247.63
848.526	151.38
848.701	327.5
848.876	204.63
849.052	282.45
849.227	26.45
849.403	167.76
849.578	118.61
849.753	104.28
849.929	-16.55
850.104	28.5
850.279	161.62
850.454	124.76
850.63	91.99
850.805	98.13
850.98	200.53
851.155	55.12
851.33	96.08
851.505	59.22
851.681	280.4
851.856	1.88
852.031	63.32
852.206	210.77
852.381	36.69
852.556	14.17
852.731	-125.1
852.906	280.4
853.081	198.48
853.256	110.42
853.431	-67.75
853.606	89.94
853.781	42.84
853.956	-133.29
854.131	44.88
854.305	-18.6
854.48	112.47
854.655	-53.42
854.83	-6.31
855.005	161.62
855.18	188.24
855.354	-61.61
855.529	-53.42
855.704	124.76
855.879	169.81
856.053	24.4
856.228	46.93
856.403	51.03
856.577	233.3
856.752	-59.56
856.926	38.74
857.101	196.43
857.276	-26.79
857.45	69.46
857.625	91.99
857.799	175.95
857.974	153.43
858.148	-133.29
858.323	98.13
858.497	202.58
858.672	42.84
858.846	10.07
859.02	55.12
859.195	24.4
859.369	175.95
859.543	112.47
859.718	186.19
859.892	290.64
860.066	243.54
860.241	-2.22
860.415	-2.22
860.589	87.89
860.763	180.05
860.938	59.22
861.112	12.12
861.286	79.7
861.46	194.39
861.634	96.08
861.808	14.17
861.982	87.89
862.157	-43.18
862.331	-43.18
862.505	-143.53
862.679	-24.75
862.853	51.03
863.027	96.08
863.201	-6.31
863.375	69.46
863.549	132.95
863.722	132.95
863.896	112.47
864.07	145.24
864.244	173.91
864.418	112.47
864.592	48.98
864.766	333.65
864.939	153.43
865.113	28.5
865.287	61.27
865.461	34.64
865.634	143.19
865.808	-45.23
865.982	40.79
866.156	16.21
866.329	-26.79
866.503	87.89
866.676	26.45
866.85	239.44
867.024	1.88
867.197	200.53
867.371	30.55
867.544	227.15
867.718	-47.27
867.891	194.39
868.065	-80.04
868.238	223.06
868.412	227.15
868.585	147.28
868.759	63.32
868.932	85.84
869.105	10.07
869.279	118.61
869.452	-92.33
869.625	319.31
869.799	73.56
869.972	-61.61
870.145	42.84
870.319	415.57
870.492	71.51
870.665	-14.51
870.838	-71.85
871.011	-129.19
871.185	83.8
871.358	75.6
871.531	218.96
871.704	77.65
871.877	128.85
872.05	-34.99
872.223	-34.99
872.396	347.98
872.569	247.63
872.742	-63.66
872.915	100.18
873.088	51.03
873.261	38.74
873.434	175.95
873.607	-43.18
873.78	374.61
873.953	-71.85
874.126	61.27
874.299	57.17
874.471	143.19
874.644	128.85
874.817	165.71
874.99	218.96
875.163	143.19
875.335	145.24
875.508	-49.32
875.681	137.04
875.853	63.32
876.026	108.37
876.199	175.95
876.371	-6.31
876.544	139.09
876.717	137.04
876.889	3.93
877.062	143.19
877.234	40.79
877.407	22.36
877.579	96.08
877.752	63.32
877.924	274.26
878.097	251.73
878.269	67.41
878.442	126.8
878.614	218.96
878.786	225.11
878.959	14.17
879.131	130.9
879.303	-6.31
879.476	116.56
879.648	190.29
879.82	-112.81
879.993	149.33
880.165	75.6
880.337	30.55
880.509	77.65
880.681	-26.79
880.854	30.55
881.026	124.76
881.198	151.38
881.37	155.47
881.542	210.77
881.714	46.93
881.886	46.93
882.058	159.57
882.23	153.43
882.402	71.51
882.574	141.14
882.746	407.38
882.918	208.72
883.09	239.44
883.262	-18.6
883.434	268.11
883.606	-28.84
883.778	85.84
883.95	24.4
884.122	104.28
884.293	345.94
884.465	22.36
884.637	122.71
884.809	38.74
884.98	204.63
885.152	108.37
885.324	69.46
885.496	85.84
885.667	186.19
885.839	-4.27
886.011	-10.41
886.182	296.78
886.354	276.31
886.525	200.53
886.697	14.17
886.869	75.6
887.04	137.04
887.212	251.73
887.383	227.15
887.555	216.91
887.726	40.79
887.897	30.55
888.069	94.04
888.24	307.02
888.412	192.34
888.583	69.46
888.754	-24.75
888.926	-20.65
889.097	61.27
889.268	-55.47
889.44	-45.23
889.611	-12.46
889.782	-61.61
889.953	71.51
890.125	91.99
890.296	77.65
890.467	124.76
890.638	-32.94
890.809	83.8
890.98	116.56
891.151	229.2
891.323	151.38
891.494	32.6
891.665	161.62
891.836	-10.41
892.007	24.4
892.178	196.43
892.349	227.15
892.52	38.74
892.691	5.97
892.862	3.93
893.032	3.93
893.203	132.95
893.374	53.08
893.545	112.47
893.716	110.42
893.887	323.41
894.057	-34.99
894.228	26.45
894.399	89.94
894.57	341.84
894.74	128.85
894.911	202.58
895.082	231.25
895.253	96.08
895.423	77.65
895.594	204.63
895.764	218.96
895.935	5.97
896.106	104.28
896.276	-125.1
896.447	259.92
896.617	-12.46
896.788	-0.17
896.958	46.93
897.129	87.89
897.299	53.08
897.47	208.72
897.64	38.74
897.81	77.65
897.981	259.92
898.151	85.84
898.322	28.5
898.492	370.51
898.662	18.26
898.832	67.41
899.003	-10.41
899.173	282.45
899.343	100.18
899.513	-37.03
