Data from USB4F104151__0__09-13-49-047.txt Node

Date: Wed Feb 26 09:13:49 EST 2025
User: louis
Spectrometer: USB4F10415
Trigger mode: 4
Integration Time (sec): 4.000000E-1
Scans to average: 1
Electric dark correction enabled: true
Nonlinearity correction enabled: false
Boxcar width: 0
XAxis mode: Wavelengths
Number of Pixels in Spectrum: 3648
>>>>>Begin Spectral Data<<<<<
178.204	-906.91
178.424	-906.91
178.644	-906.91
178.864	-827.04
179.084	-863.9
179.304	184.66
179.524	143.7
179.744	-26.28
179.964	-251.56
180.184	285.01
180.404	139.6
180.624	-239.27
180.844	-122.54
181.064	22.87
181.283	198.99
181.503	-190.12
181.723	-145.06
181.943	-57
182.163	473.42
182.383	-276.13
182.602	-251.56
182.822	493.9
183.042	330.06
183.262	-204.46
183.482	-202.41
183.701	256.34
183.921	280.91
184.141	-259.75
184.361	-226.98
184.58	346.45
184.8	295.25
185.02	-269.99
185.239	-118.44
185.459	387.41
185.679	485.71
185.898	-315.05
186.118	-278.18
186.338	336.21
186.557	293.2
186.777	-261.8
186.997	-280.23
187.216	223.57
187.436	543.05
187.655	-210.6
187.875	-89.77
188.095	190.8
188.314	450.89
188.534	-100.01
188.753	-341.67
188.973	358.74
189.192	586.06
189.412	-327.33
189.631	-243.37
189.851	409.94
190.07	522.57
190.29	-210.6
190.509	-253.61
190.729	248.15
190.948	440.65
191.168	-102.06
191.387	-194.22
191.607	203.09
191.826	338.26
192.045	-140.97
192.265	-292.52
192.484	407.89
192.704	358.74
192.923	-173.74
193.142	-104.11
193.362	321.87
193.581	465.23
193.8	-167.59
194.02	-149.16
194.239	313.68
194.458	334.16
194.678	-89.77
194.897	-276.13
195.116	354.64
195.335	366.93
195.555	-210.6
195.774	-319.14
195.993	428.37
196.212	285.01
196.432	-104.11
196.651	-341.67
196.87	270.67
197.089	616.78
197.308	-243.37
197.528	-124.58
197.747	133.46
197.966	422.22
198.185	-61.1
198.404	-282.28
198.623	346.45
198.842	424.27
199.062	-218.79
199.281	-173.74
199.5	305.49
199.719	321.87
199.938	-214.7
200.157	-224.94
200.376	485.71
200.595	534.86
200.814	-136.87
201.033	-186.02
201.252	500.05
201.471	231.76
201.69	-147.11
201.909	-169.64
202.128	452.94
202.347	323.92
202.566	-186.02
202.785	-337.57
203.004	139.6
203.223	563.53
203.442	-218.79
203.661	-276.13
203.879	401.74
204.098	440.65
204.317	-229.03
204.536	-57
204.755	444.75
204.974	377.17
205.193	-267.94
205.411	-149.16
205.63	450.89
205.849	467.28
206.068	-229.03
206.287	-272.04
206.505	473.42
206.724	239.95
206.943	-243.37
207.162	-165.54
207.381	293.2
207.599	297.3
207.818	-42.67
208.037	-399.01
208.255	264.53
208.474	366.93
208.693	-202.41
208.911	-181.93
209.13	407.89
209.349	297.3
209.567	-7.85
209.786	-218.79
210.005	426.32
210.223	266.58
210.442	-435.88
210.661	-329.38
210.879	360.78
211.098	313.68
211.316	-155.3
211.535	-276.13
211.753	289.1
211.972	323.92
212.191	-204.46
212.409	-153.26
212.628	428.37
212.846	182.61
213.065	-235.18
213.283	-183.98
213.502	254.29
213.72	246.1
213.938	-186.02
214.157	-226.98
214.375	366.93
214.594	219.47
214.812	-114.34
215.031	-235.18
215.249	276.82
215.467	280.91
215.686	-147.11
215.904	-235.18
216.122	375.12
216.341	422.22
216.559	-11.95
216.778	-65.19
216.996	567.63
217.214	209.23
217.432	-173.74
217.651	-317.09
217.869	293.2
218.087	260.43
218.306	-177.83
218.524	-179.88
218.742	244.05
218.96	403.79
219.179	-212.65
219.397	-251.56
219.615	502.09
219.833	403.79
220.051	-269.99
220.27	-79.53
220.488	452.94
220.706	317.78
220.924	-269.99
221.142	-243.37
221.36	383.31
221.578	280.91
221.796	-192.17
222.015	-140.97
222.233	248.15
222.451	487.76
222.669	-85.67
222.887	-73.39
223.105	192.85
223.323	272.72
223.541	-114.34
223.759	-241.32
223.977	272.72
224.195	520.53
224.413	-147.11
224.631	-198.31
224.849	270.67
225.067	551.24
225.285	-61.1
225.503	-259.75
225.721	35.16
225.939	282.96
226.157	-124.58
226.375	43.35
226.592	223.57
226.81	211.28
227.028	10.58
227.246	-198.31
227.464	387.41
227.682	330.06
227.9	-128.68
228.117	-177.83
228.335	297.3
228.553	254.29
228.771	-310.95
228.989	-171.69
229.206	428.37
229.424	207.19
229.642	-206.5
229.86	-165.54
230.077	479.57
230.295	305.49
230.513	-40.62
230.731	-151.21
230.948	547.15
231.166	465.23
231.384	-173.74
231.601	-288.42
231.819	543.05
232.037	221.52
232.254	-91.82
232.472	-196.26
232.689	229.71
232.907	358.74
233.125	-259.75
233.342	-269.99
233.56	231.76
233.777	172.37
233.995	-249.51
234.213	-116.39
234.43	368.98
234.648	287.06
234.865	-214.7
235.083	-145.06
235.3	287.06
235.518	342.35
235.735	-157.35
235.953	-138.92
236.17	418.13
236.388	149.84
236.605	-3.75
236.822	-120.49
237.04	354.64
237.257	264.53
237.475	-87.72
237.692	-208.55
237.909	379.22
238.127	223.57
238.344	-16.04
238.562	-181.93
238.779	133.46
238.996	104.79
239.214	-69.29
239.431	-138.92
239.648	203.09
239.865	307.54
240.083	-163.5
240.3	-280.23
240.517	309.58
240.735	303.44
240.952	55.64
241.169	-136.87
241.386	416.08
241.603	178.51
241.821	-173.74
242.038	-124.58
242.255	448.85
242.472	69.97
242.689	-173.74
242.907	-149.16
243.124	262.48
243.341	334.16
243.558	-128.68
243.775	-196.26
243.992	43.35
244.209	336.21
244.426	-59.05
244.643	-177.83
244.86	282.96
245.078	418.13
245.295	-16.04
245.512	-130.73
245.729	108.88
245.946	311.63
246.163	-145.06
246.38	-188.07
246.597	289.1
246.814	198.99
247.031	-95.91
247.248	-286.37
247.464	385.36
247.681	207.19
247.898	-138.92
248.115	-120.49
248.332	198.99
248.549	446.8
248.766	-42.67
248.983	-85.67
249.2	362.83
249.417	432.46
249.633	-179.88
249.85	-22.19
250.067	346.45
250.284	215.38
250.501	-210.6
250.717	-112.3
250.934	67.92
251.151	194.9
251.368	-87.72
251.585	-79.53
251.801	297.3
252.018	53.59
252.235	-65.19
252.451	-255.65
252.668	270.67
252.885	360.78
253.102	-149.16
253.318	-204.46
253.535	174.42
253.752	158.03
253.968	-126.63
254.185	-239.27
254.401	338.26
254.618	338.26
254.835	-134.82
255.051	-210.6
255.268	377.17
255.484	227.67
255.701	-122.54
255.917	-118.44
256.134	213.33
256.351	219.47
256.567	-276.13
256.784	-28.33
257	84.31
257.217	348.5
257.433	14.68
257.65	-161.45
257.866	430.41
258.082	121.17
258.299	-149.16
258.515	-89.77
258.732	209.23
258.948	133.46
259.165	-81.58
259.381	-245.41
259.597	362.83
259.814	280.91
260.03	-284.33
260.246	-177.83
260.463	379.22
260.679	338.26
260.895	-71.34
261.112	-122.54
261.328	289.1
261.544	139.6
261.761	-188.07
261.977	-112.3
262.193	149.84
262.409	330.06
262.626	-26.28
262.842	-194.22
263.058	155.99
263.274	366.93
263.49	-83.63
263.707	-210.6
263.923	420.17
264.139	90.45
264.355	-89.77
264.571	-16.04
264.787	321.87
265.004	338.26
265.22	-79.53
265.436	-65.19
265.652	213.33
265.868	289.1
266.084	-181.93
266.3	-226.98
266.516	164.18
266.732	313.68
266.948	-108.2
267.164	-265.89
267.38	358.74
267.596	336.21
267.812	-1.71
268.028	-145.06
268.244	215.38
268.46	307.54
268.676	-145.06
268.892	-104.11
269.108	174.42
269.324	98.64
269.54	-179.88
269.756	-93.87
269.972	194.9
270.188	215.38
270.403	-110.25
270.619	-114.34
270.835	297.3
271.051	270.67
271.267	-186.02
271.483	-226.98
271.698	362.83
271.914	239.95
272.13	-83.63
272.346	-97.96
272.562	270.67
272.777	479.57
272.993	-11.95
273.209	-149.16
273.425	321.87
273.64	18.77
273.856	-93.87
274.072	-220.84
274.287	151.89
274.503	248.15
274.719	-71.34
274.934	-188.07
275.15	-28.33
275.366	244.05
275.581	-181.93
275.797	-54.95
276.012	268.63
276.228	190.8
276.444	-54.95
276.659	31.06
276.875	133.46
277.09	186.71
277.306	-57
277.521	-1.71
277.737	137.56
277.952	139.6
278.168	-95.91
278.383	-50.86
278.599	131.41
278.814	246.1
279.03	-167.59
279.245	-40.62
279.461	182.61
279.676	235.86
279.892	-120.49
280.107	-40.62
280.322	84.31
280.538	321.87
280.753	-136.87
280.969	-104.11
281.184	211.28
281.399	328.02
281.615	-22.19
281.83	92.5
282.045	10.58
282.26	168.27
282.476	-118.44
282.691	90.45
282.906	272.72
283.122	33.11
283.337	-114.34
283.552	-38.57
283.767	166.23
283.983	250.19
284.198	-30.38
284.413	-54.95
284.628	123.22
284.843	196.95
285.058	-75.43
285.274	-73.39
285.489	248.15
285.704	149.84
285.919	-79.53
286.134	-11.95
286.349	74.07
286.564	112.98
286.779	-1.71
286.995	-95.91
287.21	-38.57
287.425	231.76
287.64	-124.58
287.855	100.69
288.07	39.25
288.285	293.2
288.5	-40.62
288.715	-81.58
288.93	131.41
289.145	166.23
289.36	-69.29
289.575	-26.28
289.79	325.97
290.004	88.4
290.219	2.39
290.434	-38.57
290.649	149.84
290.864	133.46
291.079	-40.62
291.294	-34.47
291.509	321.87
291.724	117.08
291.938	-54.95
292.153	-106.15
292.368	276.82
292.583	297.3
292.798	26.96
293.012	-16.04
293.227	219.47
293.442	184.66
293.657	6.49
293.871	0.34
294.086	246.1
294.301	229.71
294.516	47.44
294.73	108.88
294.945	174.42
295.16	196.95
295.374	-40.62
295.589	-7.85
295.804	133.46
296.018	188.75
296.233	-97.96
296.447	24.92
296.662	145.75
296.877	409.94
297.091	-36.52
297.306	-38.57
297.52	125.27
297.735	264.53
297.949	-5.8
298.164	-175.78
298.378	211.28
298.593	29.01
298.807	-38.57
299.022	-32.43
299.236	297.3
299.451	84.31
299.665	2.39
299.88	31.06
300.094	287.06
300.309	182.61
300.523	-106.15
300.737	-57
300.952	285.01
301.166	325.97
301.381	-63.15
301.595	-163.5
301.809	207.19
302.024	158.03
302.238	-42.67
302.452	98.64
302.667	248.15
302.881	321.87
303.095	-30.38
303.309	55.64
303.524	141.65
303.738	198.99
303.952	31.06
304.166	-5.8
304.381	-87.72
304.595	260.43
304.809	-104.11
305.023	-79.53
305.237	115.03
305.452	76.12
305.666	-122.54
305.88	2.39
306.094	260.43
306.308	106.84
306.522	-120.49
306.736	-9.9
306.95	190.8
307.164	125.27
307.379	57.68
307.593	-1.71
307.807	233.81
308.021	252.24
308.235	82.26
308.449	-136.87
308.663	121.17
308.877	608.59
309.091	35.16
309.305	121.17
309.519	-79.53
309.733	227.67
309.947	-30.38
310.161	-50.86
310.374	133.46
310.588	260.43
310.802	-136.87
311.016	-73.39
311.23	215.38
311.444	76.12
311.658	51.54
311.872	158.03
312.085	313.68
312.299	350.54
312.513	141.65
312.727	-112.3
312.941	108.88
313.154	211.28
313.368	-16.04
313.582	-75.43
313.796	278.87
314.009	233.81
314.223	74.07
314.437	63.83
314.651	211.28
314.864	158.03
315.078	-16.04
315.292	-120.49
315.505	141.65
315.719	158.03
315.933	26.96
316.146	-136.87
316.36	59.73
316.573	235.86
316.787	242
317.001	26.96
317.214	143.7
317.428	248.15
317.641	-194.22
317.855	-13.99
318.068	246.1
318.282	227.67
318.495	125.27
318.709	-57
318.922	133.46
319.136	330.06
319.349	53.59
319.563	-140.97
319.776	272.72
319.99	-42.67
320.203	-34.47
320.417	-48.81
320.63	215.38
320.843	272.72
321.057	65.88
321.27	-7.85
321.483	315.73
321.697	258.39
321.91	-145.06
322.124	-3.75
322.337	205.14
322.55	49.49
322.763	-69.29
322.977	-120.49
323.19	90.45
323.403	123.22
323.617	-18.09
323.83	203.09
324.043	192.85
324.256	117.08
324.469	-259.75
324.683	72.02
324.896	211.28
325.109	98.64
325.322	-147.11
325.535	-9.9
325.748	356.69
325.962	194.9
326.175	10.58
326.388	-145.06
326.601	266.58
326.814	39.25
327.027	14.68
327.24	88.4
327.453	69.97
327.666	289.1
327.879	139.6
328.092	0.34
328.305	305.49
328.518	80.21
328.731	-46.76
328.944	-71.34
329.157	121.17
329.37	125.27
329.583	108.88
329.796	29.01
330.009	-42.67
330.222	346.45
330.435	72.02
330.648	0.34
330.861	264.53
331.073	131.41
331.286	121.17
331.499	-46.76
331.712	215.38
331.925	178.51
332.138	-1.71
332.35	0.34
332.563	168.27
332.776	311.63
332.989	0.34
333.202	-149.16
333.414	278.87
333.627	123.22
333.84	-161.45
334.053	72.02
334.265	74.07
334.478	100.69
334.691	-63.15
334.903	67.92
335.116	141.65
335.329	153.94
335.541	43.35
335.754	213.33
335.966	190.8
336.179	186.71
336.392	43.35
336.604	18.77
336.817	186.71
337.029	244.05
337.242	-85.67
337.454	76.12
337.667	252.24
337.88	227.67
338.092	108.88
338.305	117.08
338.517	117.08
338.729	174.42
338.942	-24.23
339.154	-100.01
339.367	106.84
339.579	248.15
339.792	-194.22
340.004	18.77
340.217	201.04
340.429	223.57
340.641	-87.72
340.854	-112.3
341.066	198.99
341.278	219.47
341.491	106.84
341.703	-48.81
341.915	100.69
342.128	354.64
342.34	-32.43
342.552	-108.2
342.764	248.15
342.977	166.23
343.189	-5.8
343.401	82.26
343.613	4.44
343.826	172.37
344.038	-36.52
344.25	53.59
344.462	92.5
344.674	190.8
344.886	-147.11
345.099	-3.75
345.311	237.91
345.523	129.36
345.735	-143.02
345.947	22.87
346.159	172.37
346.371	186.71
346.583	-22.19
346.795	55.64
347.007	67.92
347.219	221.52
347.431	22.87
347.643	147.8
347.855	133.46
348.067	340.3
348.279	-30.38
348.491	-63.15
348.703	319.82
348.915	123.22
349.127	-22.19
349.339	2.39
349.551	188.75
349.763	368.98
349.975	-5.8
350.187	10.58
350.399	411.98
350.61	223.57
350.822	-1.71
351.034	-63.15
351.246	342.35
351.458	192.85
351.669	-18.09
351.881	2.39
352.093	452.94
352.305	217.43
352.517	-65.19
352.728	41.3
352.94	100.69
353.152	338.26
353.363	-65.19
353.575	2.39
353.787	506.19
353.999	272.72
354.21	88.4
354.422	-132.78
354.633	198.99
354.845	188.75
355.057	100.69
355.268	2.39
355.48	315.73
355.692	100.69
355.903	-1.71
356.115	-100.01
356.326	-9.9
356.538	387.41
356.749	-63.15
356.961	63.83
357.172	201.04
357.384	57.68
357.595	178.51
357.807	0.34
358.018	129.36
358.23	285.01
358.441	-134.82
358.653	-67.24
358.864	201.04
359.075	59.73
359.287	-79.53
359.498	-32.43
359.709	297.3
359.921	258.39
360.132	-1.71
360.344	-165.54
360.555	139.6
360.766	301.39
360.977	-65.19
361.189	76.12
361.4	145.75
361.611	340.3
361.823	39.25
362.034	-24.23
362.245	-22.19
362.456	184.66
362.667	59.73
362.879	-128.68
363.09	272.72
363.301	278.87
363.512	-48.81
363.723	-87.72
363.935	158.03
364.146	260.43
364.357	-9.9
364.568	-50.86
364.779	-32.43
364.99	276.82
365.201	0.34
365.412	92.5
365.623	31.06
365.834	272.72
366.045	65.88
366.256	-18.09
366.467	278.87
366.678	213.33
366.889	-22.19
367.1	-42.67
367.311	366.93
367.522	57.68
367.733	55.64
367.944	0.34
368.155	172.37
368.366	223.57
368.577	-30.38
368.788	74.07
368.999	112.98
369.209	145.75
369.42	100.69
369.631	344.4
369.842	270.67
370.053	180.56
370.264	-79.53
370.474	-54.95
370.685	295.25
370.896	162.13
371.107	74.07
371.317	-18.09
371.528	227.67
371.739	328.02
371.95	-7.85
372.16	14.68
372.371	-34.47
372.582	174.42
372.792	-16.04
373.003	131.41
373.214	166.23
373.424	106.84
373.635	-24.23
373.846	141.65
374.056	229.71
374.267	215.38
374.477	33.11
374.688	39.25
374.898	264.53
375.109	94.55
375.319	67.92
375.53	55.64
375.74	354.64
375.951	176.47
376.161	8.53
376.372	24.92
376.582	182.61
376.793	244.05
377.003	-18.09
377.214	-38.57
377.424	276.82
377.635	188.75
377.845	-24.23
378.055	72.02
378.266	43.35
378.476	182.61
378.686	22.87
378.897	-11.95
379.107	395.6
379.317	311.63
379.528	-97.96
379.738	76.12
379.948	76.12
380.158	297.3
380.369	-38.57
380.579	106.84
380.789	215.38
380.999	182.61
381.21	174.42
381.42	164.18
381.63	106.84
381.84	256.34
382.05	72.02
382.261	65.88
382.471	338.26
382.681	174.42
382.891	39.25
383.101	112.98
383.311	63.83
383.521	100.69
383.731	10.58
383.941	190.8
384.151	227.67
384.361	84.31
384.571	-30.38
384.781	29.01
384.991	282.96
385.201	387.41
385.411	207.19
385.621	63.83
385.831	289.1
386.041	188.75
386.251	49.49
386.461	106.84
386.671	287.06
386.881	215.38
387.091	-5.8
387.301	158.03
387.511	182.61
387.72	160.08
387.93	76.12
388.14	-57
388.35	235.86
388.56	338.26
388.769	49.49
388.979	8.53
389.189	33.11
389.399	98.64
389.609	-30.38
389.818	31.06
390.028	235.86
390.238	256.34
390.447	-130.73
390.657	-5.8
390.867	229.71
391.076	-32.43
391.286	-13.99
391.496	-50.86
391.705	332.11
391.915	362.83
392.125	-73.39
392.334	-28.33
392.544	362.83
392.753	207.19
392.963	2.39
393.172	-48.81
393.382	201.04
393.591	305.49
393.801	-38.57
394.01	61.78
394.22	246.1
394.429	237.91
394.639	76.12
394.848	80.21
395.058	239.95
395.267	198.99
395.477	49.49
395.686	59.73
395.895	565.58
396.105	330.06
396.314	84.31
396.524	8.53
396.733	133.46
396.942	338.26
397.152	26.96
397.361	180.56
397.57	231.76
397.78	104.79
397.989	112.98
398.198	188.75
398.407	57.68
398.617	172.37
398.826	63.83
399.035	12.63
399.244	223.57
399.453	162.13
399.663	-65.19
399.872	-147.11
400.081	63.83
400.29	295.25
400.499	-52.91
400.708	94.55
400.917	178.51
401.127	207.19
401.336	-40.62
401.545	276.82
401.754	268.63
401.963	280.91
402.172	80.21
402.381	-112.3
402.59	166.23
402.799	141.65
403.008	76.12
403.217	90.45
403.426	239.95
403.635	-26.28
403.844	-63.15
404.053	-26.28
404.262	299.34
404.471	334.16
404.68	47.44
404.888	33.11
405.097	174.42
405.306	180.56
405.515	26.96
405.724	-7.85
405.933	256.34
406.142	305.49
406.35	-24.23
406.559	-5.8
406.768	190.8
406.977	469.33
407.185	10.58
407.394	80.21
407.603	80.21
407.812	215.38
408.02	76.12
408.229	-16.04
408.438	272.72
408.646	0.34
408.855	-11.95
409.064	14.68
409.272	178.51
409.481	149.84
409.69	22.87
409.898	-54.95
410.107	211.28
410.315	287.06
410.524	37.2
410.733	-42.67
410.941	285.01
411.15	354.64
411.358	166.23
411.567	184.66
411.775	256.34
411.984	192.85
412.192	135.51
412.401	-46.76
412.609	477.52
412.818	301.39
413.026	102.74
413.234	14.68
413.443	256.34
413.651	6.49
413.86	-190.12
414.068	198.99
414.276	426.32
414.485	178.51
414.693	92.5
414.901	125.27
415.11	266.58
415.318	229.71
415.526	41.3
415.734	145.75
415.943	215.38
416.151	342.35
416.359	-13.99
416.567	74.07
416.776	264.53
416.984	178.51
417.192	78.16
417.4	18.77
417.608	98.64
417.817	59.73
418.025	155.99
418.233	43.35
418.441	190.8
418.649	65.88
418.857	74.07
419.065	-1.71
419.273	141.65
419.481	231.76
419.689	55.64
419.897	10.58
420.105	190.8
420.313	350.54
420.521	94.55
420.729	94.55
420.937	172.37
421.145	76.12
421.353	102.74
421.561	186.71
421.769	309.58
421.977	164.18
422.185	125.27
422.393	129.36
422.601	209.23
422.809	303.44
423.017	98.64
423.224	-1.71
423.432	416.08
423.64	188.75
423.848	10.58
424.056	8.53
424.263	459.09
424.471	260.43
424.679	180.56
424.887	-13.99
425.094	444.75
425.302	280.91
425.51	-50.86
425.718	51.54
425.925	256.34
426.133	121.17
426.341	151.89
426.548	35.16
426.756	215.38
426.964	364.88
427.171	59.73
427.379	35.16
427.586	285.01
427.794	287.06
428.001	139.6
428.209	147.8
428.417	366.93
428.624	399.7
428.832	94.55
429.039	235.86
429.247	256.34
429.454	252.24
429.662	174.42
429.869	82.26
430.076	338.26
430.284	231.76
430.491	96.6
430.699	84.31
430.906	428.37
431.114	360.78
431.321	215.38
431.528	264.53
431.736	387.41
431.943	489.81
432.15	149.84
432.358	108.88
432.565	502.09
432.772	155.99
432.979	248.15
433.187	219.47
433.394	547.15
433.601	278.87
433.808	207.19
434.016	280.91
434.223	407.89
434.43	383.31
434.637	131.41
434.844	414.03
435.052	403.79
435.259	407.89
435.466	336.21
435.673	334.16
435.88	631.12
436.087	592.2
436.294	551.24
436.501	371.02
436.708	575.82
436.915	571.72
437.122	510.29
437.329	305.49
437.537	510.29
437.743	581.96
437.95	442.7
438.157	498
438.364	676.17
438.571	592.2
438.778	508.24
438.985	567.63
439.192	745.8
439.399	649.55
439.606	584.01
439.813	706.89
440.02	975.17
440.227	1073.48
440.433	577.87
440.64	690.51
440.847	835.91
441.054	889.16
441.261	788.81
441.467	764.23
441.674	913.74
441.881	1196.36
442.088	936.26
442.294	960.84
442.501	1233.22
442.708	1278.27
442.914	1091.91
443.121	1073.48
443.328	1354.05
443.534	1431.87
443.741	1143.11
443.948	1132.87
444.154	1507.65
444.361	1685.82
444.568	1261.89
444.774	1362.24
444.981	1360.19
445.187	1763.64
445.394	1724.73
445.6	1583.42
445.807	1954.1
446.013	1788.22
446.22	1632.57
446.426	1976.63
446.633	2242.87
446.839	2386.22
447.046	1945.91
447.252	2230.58
447.459	2365.75
447.665	2363.7
447.871	2298.16
448.078	2761
448.284	2738.48
448.491	2939.18
448.697	2754.86
448.903	2840.87
449.11	3205.41
449.316	3141.93
449.522	3279.14
449.728	3313.95
449.935	3606.81
450.141	3537.18
450.347	3754.27
450.553	3627.29
450.76	3981.59
450.966	4045.08
451.172	4315.41
451.378	4258.07
451.584	4413.71
451.791	4890.89
451.997	4825.36
452.203	4981
452.409	5345.54
452.615	5460.23
452.821	5048.58
453.027	5329.16
453.233	6310.13
453.44	5878.01
453.646	6121.72
453.852	6396.15
454.058	6668.53
454.264	6897.9
454.47	7176.42
454.676	7272.68
454.882	8075.48
455.088	7753.95
455.294	8052.95
455.5	8585.43
455.705	9121.99
455.911	9185.48
456.117	9103.56
456.323	9502.92
456.529	9789.63
456.735	10729.65
456.941	10377.4
457.147	10969.26
457.352	11505.83
457.558	11839.65
457.764	12146.84
457.97	12581.01
458.176	13346.95
458.381	14071.93
458.587	14325.88
458.793	14913.65
458.999	14850.16
459.204	16695.38
459.41	17213.52
459.616	16797.78
459.821	18186.3
460.027	18849.85
460.233	19472.43
460.438	19709.99
460.644	20981.78
460.85	21075.99
461.055	21739.53
461.261	22953.98
461.466	22435.84
461.672	22843.38
461.878	25438.16
462.083	25188.31
462.289	25710.54
462.494	27017.15
462.7	26994.62
462.905	27264.95
463.111	29673.36
463.316	31117.18
463.522	31235.96
463.727	32403.3
463.932	33896.27
464.138	34719.56
464.343	35559.22
464.549	36110.13
464.754	38723.33
464.959	39698.17
465.165	40619.75
465.37	39894.77
465.575	40115.95
465.781	42743.5
465.986	43892.41
466.191	43124.42
466.397	43691.71
466.602	42913.48
466.807	44785.32
467.012	46030.49
467.218	46685.84
467.423	46370.45
467.628	48242.29
467.833	50189.91
468.038	49483.36
468.244	48500.34
468.449	51236.42
468.654	49684.06
468.859	49591.9
469.064	49942.11
469.269	48414.32
469.474	48641.65
469.679	50208.34
469.885	49757.79
470.09	49591.9
470.295	49575.52
470.5	48705.13
470.705	48918.12
470.91	47769.21
471.115	47160.97
471.32	48207.48
471.525	47861.37
471.73	46194.32
471.935	46034.58
472.139	44244.66
472.344	44449.46
472.549	44125.88
472.754	43384.51
472.959	42505.93
473.164	41471.71
473.369	40120.05
473.574	41627.35
473.778	40750.82
473.983	39950.07
474.188	39618.3
474.393	37490.46
474.598	37472.03
474.802	36820.77
475.007	36202.28
475.212	35632.95
475.417	34475.85
475.621	34152.27
475.826	33685.33
476.031	32790.37
476.235	32462.69
476.44	32276.33
476.645	31121.27
476.849	30816.13
477.054	30799.74
477.259	29863.82
477.463	29642.64
477.668	28903.32
477.872	29333.4
478.077	28290.98
478.282	27629.49
478.486	27234.23
478.691	26914.75
478.895	26984.38
479.1	26638.27
479.304	26429.38
479.509	25685.97
479.713	26329.03
479.918	24926.17
480.122	24653.79
480.326	24981.46
480.531	24817.63
480.735	24322.02
480.94	24100.84
481.144	25096.15
481.348	23547.89
481.553	23775.21
481.757	23017.46
481.961	23592.94
482.166	23412.72
482.37	22978.55
482.574	22413.31
482.778	22927.35
482.983	22788.09
483.187	22251.52
483.391	22415.36
483.595	22185.99
483.8	21698.57
484.004	21807.11
484.208	21471.25
484.412	21440.53
484.616	21192.72
484.821	20824.09
485.025	19947.56
485.229	20555.8
485.433	20168.74
485.637	19427.37
485.841	19488.81
486.045	19521.58
486.249	19400.75
486.453	18448.44
486.657	18450.49
486.861	18057.28
487.065	17879.11
487.269	17379.4
487.473	16932.95
487.677	17412.17
487.881	17285.2
488.085	16461.91
488.289	16431.19
488.493	16250.97
488.697	16205.92
488.901	15878.24
489.105	15247.47
489.309	15212.65
489.512	15005.81
489.716	14428.28
489.92	14405.75
490.124	14203
490.328	14084.22
490.531	13518.98
490.735	13381.77
490.939	13140.11
491.143	12996.75
491.346	12624.02
491.55	12656.79
491.754	12503.19
491.958	12261.53
492.161	11796.64
492.365	11581.6
492.569	11743.39
492.772	11417.77
492.976	11276.46
493.18	11071.66
493.383	10981.55
493.587	11016.37
493.79	10760.37
493.994	10328.25
494.197	10610.87
494.401	10576.05
494.605	10256.57
494.808	10199.23
495.012	10361.02
495.215	10389.69
495.419	10111.16
495.622	9885.89
495.825	9990.33
496.029	10002.62
496.232	10002.62
496.436	9736.38
496.639	10170.55
496.843	9971.9
497.046	9838.78
497.249	9746.62
497.453	9803.97
497.656	9885.89
497.859	9726.14
498.063	9726.14
498.266	10064.06
498.469	9763.01
498.673	9842.88
498.876	9842.88
499.079	10279.1
499.282	9871.55
499.485	10012.86
499.689	10094.78
499.892	10377.4
500.095	10229.95
500.298	10387.64
500.501	10158.27
500.705	10504.37
500.908	10723.51
501.111	10584.24
501.314	10668.21
501.517	11020.46
501.72	11016.37
501.923	11092.14
502.126	11135.15
502.329	11632.8
502.532	11364.52
502.735	11245.74
502.938	11714.72
503.141	11724.96
503.344	11770.02
503.547	11954.33
503.75	12056.73
503.953	12652.69
504.156	12748.95
504.359	12681.36
504.562	12748.95
504.765	13172.88
504.968	13490.31
505.17	13176.97
505.373	13502.6
505.576	13817.99
505.779	13940.86
505.982	13973.63
506.185	14669.94
506.387	14790.77
506.59	15003.76
506.793	15161.45
506.996	15296.62
507.198	16375.9
507.401	16148.57
507.604	16037.98
507.807	16889.94
508.009	17115.22
508.212	17645.64
508.415	17418.32
508.617	17815.62
508.82	18532.41
509.022	18391.1
509.225	18806.84
509.428	19114.03
509.63	19847.21
509.833	20099.11
510.035	20908.05
510.238	20453.41
510.44	21321.74
510.643	21878.79
510.845	21993.48
511.048	22720.51
511.25	23128.05
511.453	23431.15
511.655	24336.35
511.858	24659.93
512.06	25208.79
512.262	25472.98
512.465	25870.28
512.667	26492.87
512.87	27168.69
513.072	27981.74
513.274	28137.38
513.477	28704.67
513.679	29460.37
513.881	30089.1
514.084	30629.76
514.286	30912.38
514.488	32120.68
514.69	33128.28
514.893	33167.2
515.095	33566.55
515.297	34660.16
515.499	34959.17
515.701	35385.15
515.904	36423.47
516.106	37238.56
516.308	37797.65
516.51	38481.67
516.712	38563.59
516.914	39966.45
517.116	40417
517.318	41041.64
517.52	41414.37
517.722	42063.57
517.925	43249.35
518.127	44127.92
518.329	44490.41
518.531	44773.03
518.733	45233.83
518.935	45883.03
519.136	46397.07
519.338	47543.94
519.54	48453.23
519.742	48242.29
519.944	49041
520.146	49938.01
520.348	50312.79
520.55	50433.62
520.752	50703.95
520.954	52129.34
521.155	51656.26
521.357	52237.88
521.559	53145.13
521.761	53890.59
521.963	53868.06
522.164	54435.35
522.366	54111.77
522.568	54660.63
522.77	55119.37
522.971	55619.08
523.173	55074.32
523.375	56020.48
523.576	55848.45
523.778	55647.75
523.98	56380.92
524.181	56454.65
524.383	56301.05
524.584	56446.46
524.786	56233.47
524.988	56362.49
525.189	56974.83
525.391	56933.87
525.592	56724.98
525.794	56446.46
525.995	56079.87
526.197	55840.26
526.398	56004.09
526.6	56221.18
526.801	56131.07
527.003	55209.48
527.204	55076.36
527.406	55588.36
527.607	55082.51
527.808	54271.51
528.01	53177.9
528.211	53702.18
528.412	53548.58
528.614	53083.69
528.815	52670
529.016	52829.74
529.218	51500.61
529.419	51048.01
529.62	50134.62
529.822	50136.66
530.023	49698.4
530.224	48836.2
530.425	48152.18
530.626	47648.38
530.828	46929.55
531.029	47312.52
531.23	46689.93
531.431	45944.47
531.632	45633.18
531.833	45133.48
532.035	44232.37
532.236	43806.39
532.437	43409.09
532.638	42417.87
532.839	42053.33
533.04	41701.08
533.241	40716.01
533.442	40548.07
533.643	39814.9
533.844	39384.83
534.045	38731.53
534.246	37623.58
534.447	37529.37
534.648	37134.11
534.849	36828.96
535.05	35774.26
535.251	35395.39
535.451	35061.57
535.652	34496.33
535.853	34068.3
536.054	33795.92
536.255	33386.33
536.456	32665.44
536.657	32544.61
536.857	31823.73
537.058	31432.57
537.259	31176.57
537.46	30623.62
537.66	30093.19
537.861	30232.46
538.062	29677.46
538.263	28981.15
538.463	28589.99
538.664	28374.95
538.865	28127.14
539.065	27865
539.266	26767.29
539.466	26939.32
539.667	26724.29
539.868	26210.25
540.068	25915.34
540.269	25667.53
540.469	25249.75
540.67	24580.06
540.87	24805.34
541.071	24195.04
541.271	24055.78
541.472	23750.63
541.672	23525.36
541.873	23160.82
542.073	23123.96
542.274	22792.19
542.474	22282.24
542.675	22364.16
542.875	22020.1
543.075	21461.01
543.276	21219.35
543.476	21426.19
543.676	20928.53
543.877	20660.25
544.077	20449.31
544.277	20578.33
544.478	20056.1
544.678	19695.66
544.878	19593.26
545.078	19386.41
545.279	19007.54
545.479	18698.3
545.679	18624.57
545.879	18434.11
546.079	18298.94
546.28	18044.99
546.48	17561.67
546.68	17901.64
546.88	17756.23
547.08	17178.7
547.28	16625.75
547.48	16836.69
547.68	16691.29
547.88	15880.29
548.081	16062.56
548.281	15738.98
548.481	15499.37
548.681	15685.73
548.881	15259.76
549.081	15337.58
549.28	14868.59
549.48	14712.95
549.68	14653.56
549.88	14428.28
550.08	14108.8
550.28	14026.88
550.48	13850.75
550.68	13979.78
550.88	13299.85
551.08	13109.39
551.279	12898.45
551.479	12644.5
551.679	12816.53
551.879	12329.11
552.079	12175.52
552.278	12085.4
552.478	12093.6
552.678	11454.63
552.878	11479.21
553.077	11407.53
553.277	11178.15
553.477	11057.32
553.676	10848.43
553.876	10866.86
554.076	10660.02
554.275	10350.78
554.475	9904.32
554.674	10236.09
554.874	10059.96
555.074	9808.06
555.273	9617.6
555.473	9705.67
555.672	9394.37
555.872	9019.6
556.071	9062.6
556.271	9117.9
556.47	8679.63
556.67	8470.74
556.869	8329.43
557.068	8407.25
557.268	8159.45
557.467	8038.62
557.667	7842.01
557.866	7901.4
558.065	7766.24
558.265	7563.49
558.464	7389.41
558.663	7477.48
558.863	7448.8
559.062	6854.89
559.261	6891.76
559.461	7067.88
559.66	6689.01
559.859	6541.55
560.058	6521.07
560.258	6553.84
560.457	6390
560.656	6332.66
560.855	5996.79
561.054	6340.85
561.253	6185.21
561.453	6080.76
561.652	6064.38
561.851	6011.13
562.05	5734.65
562.249	5409.03
562.448	5538.05
562.647	5353.73
562.846	5404.93
563.045	5339.4
563.244	5193.99
563.443	5310.72
563.642	5126.41
563.841	5005.58
564.04	4880.65
564.239	5073.16
564.438	4981
564.637	4768.01
564.836	4722.96
565.035	4688.14
565.234	4552.98
565.432	4595.98
565.631	4352.27
565.83	4426
566.029	4477.2
566.228	4184.34
566.427	4249.88
566.625	4147.48
566.824	4319.51
567.023	4049.18
567.222	3995.93
567.42	4077.85
567.619	3940.63
567.818	3752.22
568.016	3979.54
568.215	3883.29
568.414	3936.54
568.612	3537.18
568.811	3545.38
569.01	3705.12
569.208	3574.05
569.407	3551.52
569.605	3430.69
569.804	3363.11
570.002	3557.66
570.201	3236.13
570.4	3412.26
570.598	3236.13
570.797	3139.88
570.995	3053.86
571.193	3164.45
571.392	3137.83
571.59	2967.85
571.789	3107.11
571.987	2910.5
572.186	3051.81
572.384	2812.2
572.582	2826.54
572.781	2824.49
572.979	2674.99
573.177	2826.54
573.376	2681.13
573.574	2588.97
573.772	2726.19
573.971	2543.92
574.169	2464.05
574.367	2447.66
574.565	2593.07
574.763	2482.48
574.962	2228.53
575.16	2378.03
575.358	2285.87
575.556	2378.03
575.754	2074.93
575.952	2064.69
576.151	2355.51
576.349	2332.98
576.547	1892.66
576.745	2031.93
576.943	2312.5
577.141	2046.26
577.339	1909.05
577.537	1868.09
577.735	2275.63
577.933	2054.45
578.131	1732.92
578.329	1808.7
578.527	1952.06
578.725	2072.89
578.923	1495.36
579.121	1614.14
579.319	1556.8
579.516	1853.75
579.714	1808.7
579.912	1702.2
580.11	1640.76
580.308	1608
580.506	1403.2
580.704	1220.93
580.901	1616.19
581.099	1853.75
581.297	1419.58
581.495	1448.26
581.692	1481.02
581.89	1689.92
582.088	1458.5
582.285	1335.62
582.483	1515.84
582.681	1411.39
582.878	1268.03
583.076	1272.13
583.274	1362.24
583.471	1663.29
583.669	1190.21
583.866	1184.07
584.064	1280.32
584.262	1243.46
584.459	999.75
584.657	1120.58
584.854	1442.11
585.052	1276.23
585.249	985.41
585.447	1026.37
585.644	1141.06
585.841	1370.43
586.039	1048.9
586.236	938.31
586.434	1204.55
586.631	977.22
586.828	829.77
587.026	895.3
587.223	1038.66
587.42	1046.85
587.618	1032.52
587.815	938.31
588.012	1083.72
588.21	1091.91
588.407	1009.99
588.604	887.11
588.801	999.75
588.999	1018.18
589.196	872.78
589.393	809.29
589.59	1030.47
589.787	1009.99
589.984	774.47
590.182	891.21
590.379	866.63
590.576	993.61
590.773	706.89
590.97	665.93
591.167	1147.2
591.364	1132.87
591.561	801.1
591.758	821.58
591.955	1124.68
592.152	842.06
592.349	862.54
592.546	680.27
592.743	960.84
592.94	825.67
593.137	794.95
593.334	919.88
593.531	983.37
593.727	1001.8
593.924	819.53
594.121	788.81
594.318	895.3
594.515	944.45
594.712	999.75
594.908	911.69
595.105	782.67
595.302	960.84
595.499	819.53
595.696	1022.28
595.892	895.3
596.089	1130.82
596.286	837.96
596.482	936.26
596.679	1139.01
596.876	1034.57
597.072	981.32
597.269	919.88
597.466	1102.15
597.662	1198.4
597.859	905.54
598.055	1059.14
598.252	1270.08
598.448	1483.07
598.645	1214.79
598.841	1321.28
599.038	1597.76
599.234	1698.11
599.431	1419.58
599.627	1460.54
599.824	1775.93
600.02	1710.4
600.217	1573.18
600.413	1554.75
600.609	1845.56
600.806	2130.23
601.002	1878.33
601.198	1694.01
601.395	2345.27
601.591	2230.58
601.787	2263.35
601.984	2238.77
602.18	2505.01
602.376	2548.01
602.572	2566.45
602.769	2761
602.965	2677.04
603.161	3033.38
603.357	2943.27
603.553	2990.38
603.75	3152.17
603.946	3227.94
604.142	3174.69
604.338	3307.81
604.534	3621.15
604.73	3754.27
604.926	3930.39
605.122	4057.37
605.318	4096.28
605.514	4372.75
605.71	4110.61
605.906	4426
606.102	4628.75
606.298	4870.41
606.494	4929.8
606.69	4870.41
606.886	5212.42
607.082	5357.83
607.278	5273.86
607.474	5499.14
607.67	5966.07
607.866	5763.33
608.062	6181.11
608.257	6191.35
608.453	6260.98
608.649	6736.11
608.845	6367.48
609.041	6543.6
609.236	7201
609.432	7454.95
609.628	7364.84
609.824	7608.55
610.019	7952.6
610.215	8255.7
610.411	8241.37
610.606	8548.56
610.802	8726.74
610.998	8880.33
611.193	9248.97
611.389	9197.77
611.584	9832.64
611.78	9961.66
611.976	9971.9
612.171	10688.69
612.367	10913.97
612.562	11036.84
612.758	11212.97
612.953	11247.79
613.149	12007.58
613.344	12204.19
613.539	12408.98
613.735	12703.89
613.93	13090.96
614.126	13385.87
614.321	13670.53
614.517	13942.91
614.712	14776.44
614.907	14813.3
615.103	15315.05
615.298	15360.11
615.493	15892.58
615.688	16083.04
615.884	16873.56
616.079	17205.33
616.274	17815.62
616.47	17995.84
616.665	18489.4
616.86	19001.4
617.055	19570.73
617.25	19841.06
617.445	20723.74
617.641	20785.18
617.836	21272.59
618.031	21911.56
618.226	22484.99
618.421	23109.62
618.616	23965.67
618.811	23816.17
619.006	24709.08
619.201	24723.42
619.396	25995.21
619.591	25903.05
619.786	27011
619.981	27201.46
620.176	28288.93
620.371	28381.09
620.566	29073.31
620.761	29757.33
620.956	30691.2
621.151	30697.34
621.346	31467.38
621.541	31295.35
621.735	32800.61
621.93	32948.06
622.125	33863.5
622.32	33634.13
622.515	35131.2
622.709	35520.31
622.904	36581.16
623.099	36710.18
623.294	37818.13
623.488	37941.01
623.683	39030.53
623.878	38897.41
624.072	40101.62
624.267	40582.89
624.462	41258.72
624.656	41522.91
624.851	42688.2
625.046	42737.35
625.24	43699.9
625.435	43781.82
625.629	45035.17
625.824	45178.53
626.018	45485.73
626.213	45389.47
626.407	46947.98
626.602	47300.23
626.796	47873.66
626.991	48299.64
627.185	48668.27
627.38	48754.29
627.574	49163.88
627.768	49397.35
627.963	49770.08
628.157	49696.35
628.352	50015.83
628.546	49483.36
628.74	50478.68
628.935	50089.56
629.129	49968.73
629.323	49458.79
629.517	49806.94
629.712	49798.75
629.906	48819.82
630.1	48483.95
630.294	48385.65
630.489	47951.48
630.683	47562.37
630.877	46179.99
631.071	45946.52
631.265	45321.89
631.459	44652.2
631.653	43204.29
631.848	42665.67
632.042	41451.23
632.236	40572.65
632.43	39251.71
632.624	39010.05
632.818	37467.93
633.012	36372.27
633.206	35446.58
633.4	34373.45
633.594	33279.83
633.788	32106.35
633.982	31287.16
634.176	30271.37
634.369	28782.49
634.563	27932.59
634.757	26484.67
634.951	26171.33
635.145	25274.32
635.339	23934.95
635.533	23255.03
635.726	22915.06
635.92	20951.06
636.114	20213.79
636.308	19648.55
636.501	19081.27
636.695	18208.83
636.889	17324.11
637.083	16334.94
637.276	16115.81
637.47	15341.68
637.664	14786.68
637.857	14043.26
638.051	13850.75
638.244	12984.46
638.438	12460.18
638.632	11786.4
638.825	11471.01
639.019	11411.62
639.212	10619.06
639.406	10381.49
639.599	9887.93
639.793	9627.84
639.986	8892.62
640.18	8947.92
640.373	8632.53
640.567	8198.36
640.76	8046.81
640.954	7657.7
641.147	7506.15
641.34	7141.61
641.534	6682.86
641.727	6484.21
641.92	6490.35
642.114	6011.13
642.307	5925.11
642.5	5646.59
642.694	5384.45
642.887	5224.71
643.08	5079.3
643.273	4813.07
643.467	4720.91
643.66	4481.3
643.853	4079.9
644.046	4239.64
644.239	4145.43
644.432	3778.84
644.626	3479.84
644.819	3195.17
645.012	3512.61
645.205	3445.02
645.398	3109.16
645.591	3137.83
645.784	2853.16
645.977	2697.52
646.17	2816.3
646.363	2500.91
646.556	2582.83
646.749	2513.2
646.942	2292.02
647.135	2169.14
647.328	2167.09
647.521	2195.76
647.714	1958.2
647.907	2001.21
648.099	1866.04
648.292	1964.34
648.485	1878.33
648.678	1657.15
648.871	1657.15
649.064	1712.44
649.256	1421.63
649.449	1311.04
649.642	1278.27
649.835	1419.58
650.027	1239.36
650.22	1354.05
650.413	1343.81
650.605	1370.43
650.798	1059.14
650.991	1018.18
651.183	1218.88
651.376	1268.03
651.568	1067.33
651.761	780.62
651.954	1155.4
652.146	962.89
652.339	895.3
652.531	907.59
652.724	837.96
652.916	868.68
653.109	409.94
653.301	790.86
653.494	956.74
653.686	835.91
653.879	721.23
654.071	710.99
654.263	731.47
654.456	756.04
654.648	524.62
654.84	522.57
655.033	672.08
655.225	899.4
655.417	246.1
655.61	571.72
655.802	721.23
655.994	825.67
656.186	342.35
656.379	555.34
656.571	547.15
656.763	506.19
656.955	493.9
657.148	330.06
657.34	739.66
657.532	514.38
657.724	338.26
657.916	391.5
658.108	696.65
658.3	561.48
658.492	518.48
658.684	360.78
658.876	704.84
659.068	317.78
659.26	229.71
659.452	287.06
659.644	493.9
659.836	788.81
660.028	295.25
660.22	180.56
660.412	428.37
660.604	360.78
660.796	346.45
660.988	211.28
661.18	301.39
661.372	452.94
661.563	213.33
661.755	158.03
661.947	274.77
662.139	301.39
662.331	321.87
662.522	188.75
662.714	139.6
662.906	215.38
663.097	149.84
663.289	112.98
663.481	182.61
663.673	387.41
663.864	207.19
664.056	190.8
664.247	219.47
664.439	512.33
664.631	100.69
664.822	155.99
665.014	438.61
665.205	254.29
665.397	139.6
665.588	88.4
665.78	313.68
665.971	414.03
666.163	100.69
666.354	-22.19
666.546	141.65
666.737	289.1
666.929	221.52
667.12	67.92
667.311	352.59
667.503	330.06
667.694	233.81
667.885	166.23
668.077	352.59
668.268	49.49
668.459	26.96
668.651	133.46
668.842	256.34
669.033	133.46
669.224	57.68
669.416	336.21
669.607	274.77
669.798	153.94
669.989	14.68
670.18	51.54
670.371	297.3
670.563	82.26
670.754	231.76
670.945	72.02
671.136	293.2
671.327	178.51
671.518	65.88
671.709	145.75
671.9	444.75
672.091	454.99
672.282	129.36
672.473	24.92
672.664	194.9
672.855	332.11
673.046	43.35
673.237	141.65
673.428	285.01
673.619	239.95
673.809	10.58
674	35.16
674.191	366.93
674.382	215.38
674.573	67.92
674.764	100.69
674.954	309.58
675.145	166.23
675.336	-85.67
675.527	-46.76
675.717	137.56
675.908	96.6
676.099	8.53
676.289	31.06
676.48	14.68
676.671	256.34
676.861	24.92
677.052	-87.72
677.243	237.91
677.433	139.6
677.624	22.87
677.814	63.83
678.005	145.75
678.195	346.45
678.386	10.58
678.576	-1.71
678.767	-48.81
678.957	203.09
679.148	47.44
679.338	88.4
679.529	426.32
679.719	112.98
679.909	43.35
680.1	-42.67
680.29	180.56
680.481	-18.09
680.671	6.49
680.861	-24.23
681.052	217.43
681.242	-24.23
681.432	90.45
681.622	-73.39
681.813	-16.04
682.003	213.33
682.193	-73.39
682.383	14.68
682.573	100.69
682.764	137.56
682.954	74.07
683.144	178.51
683.334	74.07
683.524	155.99
683.714	53.59
683.904	10.58
684.094	127.32
684.284	217.43
684.474	8.53
684.664	35.16
684.854	174.42
685.044	133.46
685.234	16.73
685.424	-24.23
685.614	-30.38
685.804	330.06
685.994	59.73
686.184	76.12
686.374	174.42
686.564	176.47
686.753	74.07
686.943	-34.47
687.133	76.12
687.323	207.19
687.513	84.31
687.702	26.96
687.892	123.22
688.082	244.05
688.272	39.25
688.461	0.34
688.651	303.44
688.841	395.6
689.03	-95.91
689.22	8.53
689.41	315.73
689.599	330.06
689.789	45.4
689.979	141.65
690.168	239.95
690.358	272.72
690.547	6.49
690.737	108.88
690.926	231.76
691.116	235.86
691.305	96.6
691.495	37.2
691.684	172.37
691.874	149.84
692.063	-38.57
692.252	-13.99
692.442	354.64
692.631	145.75
692.82	-75.43
693.01	96.6
693.199	190.8
693.388	184.66
693.578	104.79
693.767	67.92
693.956	387.41
694.146	223.57
694.335	57.68
694.524	26.96
694.713	348.5
694.902	205.14
695.092	16.73
695.281	90.45
695.47	178.51
695.659	108.88
695.848	96.6
696.037	43.35
696.226	239.95
696.415	145.75
696.604	270.67
696.793	108.88
696.982	266.58
697.171	328.02
697.36	-26.28
697.549	-59.05
697.738	72.02
697.927	141.65
698.116	-7.85
698.305	102.74
698.494	264.53
698.683	219.47
698.872	110.93
699.061	33.11
699.25	227.67
699.438	231.76
699.627	12.63
699.816	211.28
700.005	24.92
700.193	139.6
700.382	145.75
700.571	76.12
700.76	280.91
700.948	321.87
701.137	-95.91
701.326	98.64
701.514	141.65
701.703	256.34
701.892	82.26
702.08	82.26
702.269	207.19
702.457	166.23
702.646	24.92
702.834	-26.28
703.023	344.4
703.212	344.4
703.4	39.25
703.589	8.53
703.777	125.27
703.965	198.99
704.154	-165.54
704.342	-116.39
704.531	123.22
704.719	57.68
704.907	96.6
705.096	-50.86
705.284	51.54
705.472	252.24
705.661	59.73
705.849	43.35
706.037	317.78
706.226	217.43
706.414	57.68
706.602	35.16
706.79	221.52
706.979	57.68
707.167	63.83
707.355	-130.73
707.543	340.3
707.731	248.15
707.919	86.36
708.107	-63.15
708.296	141.65
708.484	76.12
708.672	106.84
708.86	76.12
709.048	254.29
709.236	51.54
709.424	2.39
709.612	67.92
709.8	51.54
709.988	147.8
710.176	61.78
710.364	82.26
710.551	264.53
710.739	254.29
710.927	-130.73
711.115	51.54
711.303	278.87
711.491	360.78
711.679	-104.11
711.866	115.03
712.054	104.79
712.242	227.67
712.43	129.36
712.617	-9.9
712.805	330.06
712.993	223.57
713.181	-95.91
713.368	37.2
713.556	176.47
713.744	18.77
713.931	14.68
714.119	41.3
714.306	104.79
714.494	88.4
714.682	8.53
714.869	-153.26
715.057	158.03
715.244	2.39
715.432	35.16
715.619	-163.5
715.807	205.14
715.994	63.83
716.182	-83.63
716.369	39.25
716.556	289.1
716.744	-40.62
716.931	-81.58
717.119	59.73
717.306	141.65
717.493	287.06
717.681	63.83
717.868	-32.43
718.055	221.52
718.242	194.9
718.43	-59.05
718.617	-61.1
718.804	108.88
718.991	336.21
719.179	-122.54
719.366	-5.8
719.553	196.95
719.74	207.19
719.927	-22.19
720.114	61.78
720.301	-1.71
720.488	16.73
720.676	-124.58
720.863	147.8
721.05	579.92
721.237	215.38
721.424	155.99
721.611	-38.57
721.798	18.77
721.985	72.02
722.172	-5.8
722.358	-67.24
722.545	334.16
722.732	248.15
722.919	115.03
723.106	-50.86
723.293	149.84
723.48	170.32
723.667	39.25
723.853	67.92
724.04	280.91
724.227	317.78
724.414	-52.91
724.6	-26.28
724.787	270.67
724.974	420.17
725.161	133.46
725.347	-118.44
725.534	190.8
725.72	172.37
725.907	72.02
726.094	110.93
726.28	33.11
726.467	67.92
726.653	-143.02
726.84	104.79
727.027	262.48
727.213	76.12
727.4	158.03
727.586	-54.95
727.773	182.61
727.959	190.8
728.145	51.54
728.332	-75.43
728.518	110.93
728.705	342.35
728.891	-67.24
729.077	59.73
729.264	67.92
729.45	194.9
729.636	-26.28
729.823	22.87
730.009	252.24
730.195	190.8
730.382	139.6
730.568	-26.28
730.754	219.47
730.94	164.18
731.126	-5.8
731.313	14.68
731.499	166.23
731.685	260.43
731.871	59.73
732.057	29.01
732.243	309.58
732.429	313.68
732.615	125.27
732.801	14.68
732.987	196.95
733.173	209.23
733.359	-89.77
733.545	96.6
733.731	207.19
733.917	368.98
734.103	51.54
734.289	141.65
734.475	51.54
734.661	309.58
734.847	33.11
735.033	31.06
735.219	280.91
735.404	149.84
735.59	-22.19
735.776	-16.04
735.962	190.8
736.148	203.09
736.333	59.73
736.519	76.12
736.705	166.23
736.89	239.95
737.076	-54.95
737.262	31.06
737.447	133.46
737.633	196.95
737.819	24.92
738.004	-22.19
738.19	190.8
738.375	244.05
738.561	12.63
738.747	-13.99
738.932	67.92
739.118	332.11
739.303	72.02
739.489	18.77
739.674	188.75
739.859	100.69
740.045	84.31
740.23	18.77
740.416	-128.68
740.601	166.23
740.786	-22.19
740.972	-30.38
741.157	235.86
741.342	39.25
741.528	-52.91
741.713	141.65
741.898	82.26
742.084	207.19
742.269	-1.71
742.454	18.77
742.639	360.78
742.824	205.14
743.01	55.64
743.195	63.83
743.38	223.57
743.565	160.08
743.75	2.39
743.935	100.69
744.12	301.39
744.305	14.68
744.49	55.64
744.675	74.07
744.86	65.88
745.045	332.11
745.23	-38.57
745.415	-26.28
745.6	342.35
745.785	135.51
745.97	72.02
746.155	0.34
746.34	305.49
746.525	190.8
746.71	-50.86
746.895	-54.95
747.079	82.26
747.264	194.9
747.449	-71.34
747.634	22.87
747.819	301.39
748.003	129.36
748.188	-63.15
748.373	82.26
748.557	264.53
748.742	248.15
748.927	65.88
749.111	31.06
749.296	235.86
749.481	256.34
749.665	137.56
749.85	74.07
750.034	215.38
750.219	196.95
750.404	-87.72
750.588	-13.99
750.773	90.45
750.957	223.57
751.141	-13.99
751.326	133.46
751.51	18.77
751.695	188.75
751.879	108.88
752.064	168.27
752.248	133.46
752.432	305.49
752.617	-40.62
752.801	239.95
752.985	213.33
753.17	377.17
753.354	59.73
753.538	51.54
753.722	158.03
753.907	188.75
754.091	-11.95
754.275	26.96
754.459	55.64
754.643	135.51
754.828	33.11
755.012	4.44
755.196	112.98
755.38	270.67
755.564	-5.8
755.748	55.64
755.932	328.02
756.116	319.82
756.3	57.68
756.484	-13.99
756.668	231.76
756.852	-54.95
757.036	-40.62
757.22	-50.86
757.404	57.68
757.588	98.64
757.772	117.08
757.956	14.68
758.14	276.82
758.323	84.31
758.507	49.49
758.691	-46.76
758.875	289.1
759.059	368.98
759.242	-81.58
759.426	133.46
759.61	235.86
759.794	80.21
759.977	90.45
760.161	543.05
760.345	418.13
760.528	358.74
760.712	92.5
760.895	127.32
761.079	172.37
761.263	20.82
761.446	-104.11
761.63	-87.72
761.813	190.8
761.997	2.39
762.18	-46.76
762.364	166.23
762.547	10.58
762.731	155.99
762.914	141.65
763.098	14.68
763.281	221.52
763.464	149.84
763.648	31.06
763.831	-34.47
764.015	143.7
764.198	325.97
764.381	24.92
764.564	43.35
764.748	207.19
764.931	184.66
765.114	0.34
765.297	45.4
765.481	65.88
765.664	170.32
765.847	-50.86
766.03	2.39
766.213	84.31
766.397	112.98
766.58	-95.91
766.763	219.47
766.946	158.03
767.129	115.03
767.312	41.3
767.495	59.73
767.678	57.68
767.861	280.91
768.044	-71.34
768.227	31.06
768.41	174.42
768.593	213.33
768.776	106.84
768.959	76.12
769.142	330.06
769.324	242
769.507	-5.8
769.69	47.44
769.873	213.33
770.056	387.41
770.239	-7.85
770.421	196.95
770.604	198.99
770.787	125.27
770.97	90.45
771.152	-20.14
771.335	254.29
771.518	100.69
771.7	-46.76
771.883	188.75
772.066	166.23
772.248	334.16
772.431	59.73
772.613	14.68
772.796	188.75
772.978	334.16
773.161	37.2
773.343	-30.38
773.526	139.6
773.708	-22.19
773.891	-106.15
774.073	14.68
774.256	139.6
774.438	420.17
774.621	-26.28
774.803	102.74
774.985	153.94
775.168	282.96
775.35	117.08
775.532	-18.09
775.715	82.26
775.897	272.72
776.079	100.69
776.261	59.73
776.444	239.95
776.626	102.74
776.808	112.98
776.99	-73.39
777.173	188.75
777.355	92.5
777.537	-18.09
777.719	24.92
777.901	194.9
778.083	65.88
778.265	-7.85
778.447	76.12
778.629	119.12
778.811	215.38
778.993	84.31
779.175	90.45
779.357	104.79
779.539	4.44
779.721	98.64
779.903	92.5
780.085	180.56
780.267	268.63
780.449	-46.76
780.631	209.23
780.812	295.25
780.994	143.7
781.176	-63.15
781.358	-16.04
781.54	147.8
781.721	280.91
781.903	-65.19
782.085	45.4
782.267	342.35
782.448	-36.52
782.63	31.06
782.812	45.4
782.993	285.01
783.175	297.3
783.357	26.96
783.538	190.8
783.72	88.4
783.901	190.8
784.083	92.5
784.264	61.78
784.446	45.4
784.627	104.79
784.809	31.06
784.99	-65.19
785.172	215.38
785.353	158.03
785.535	-16.04
785.716	-89.77
785.897	78.16
786.079	186.71
786.26	37.2
786.441	104.79
786.623	-50.86
786.804	49.49
786.985	80.21
787.167	39.25
787.348	129.36
787.529	158.03
787.71	51.54
787.891	67.92
788.073	67.92
788.254	-106.15
788.435	125.27
788.616	6.49
788.797	35.16
788.978	125.27
789.159	-40.62
789.34	149.84
789.522	192.85
789.703	125.27
789.884	-26.28
790.065	190.8
790.246	446.8
790.427	88.4
790.607	98.64
790.788	88.4
790.969	133.46
791.15	192.85
791.331	22.87
791.512	106.84
791.693	33.11
791.874	90.45
792.054	215.38
792.235	112.98
792.416	41.3
792.597	16.73
792.778	31.06
792.958	-32.43
793.139	289.1
793.32	147.8
793.5	-30.38
793.681	106.84
793.862	231.76
794.042	135.51
794.223	-163.5
794.404	-54.95
794.584	-30.38
794.765	248.15
794.945	76.12
795.126	162.13
795.306	223.57
795.487	147.8
795.667	-26.28
795.848	-18.09
796.028	155.99
796.209	188.75
796.389	246.1
796.57	43.35
796.75	22.87
796.93	129.36
797.111	108.88
797.291	-46.76
797.471	141.65
797.652	78.16
797.832	-34.47
798.012	78.16
798.192	39.25
798.373	-26.28
798.553	67.92
798.733	178.51
798.913	41.3
799.093	84.31
799.274	-1.71
799.454	80.21
799.634	237.91
799.814	272.72
799.994	51.54
800.174	162.13
800.354	180.56
800.534	-67.24
800.714	96.6
800.894	-75.43
801.074	-22.19
801.254	18.77
801.434	162.13
801.614	-67.24
801.794	26.96
801.974	5665.02
802.154	-24.23
802.334	158.03
802.514	61.78
802.693	160.08
802.873	-71.34
803.053	149.84
803.233	194.9
803.413	143.7
803.592	-75.43
803.772	-46.76
803.952	110.93
804.131	-65.19
804.311	29.01
804.491	72.02
804.67	119.12
804.85	33.11
805.03	80.21
805.209	182.61
805.389	123.22
805.568	78.16
805.748	24.92
805.928	43.35
806.107	282.96
806.287	178.51
806.466	158.03
806.646	112.98
806.825	207.19
807.004	47.44
807.184	84.31
807.363	149.84
807.543	244.05
807.722	55.64
807.901	178.51
808.081	39.25
808.26	-112.3
808.439	133.46
808.619	-3.75
808.798	-20.14
808.977	172.37
809.156	315.73
809.336	115.03
809.515	-11.95
809.694	72.02
809.873	16.73
810.052	-59.05
810.231	186.71
810.411	190.8
810.59	246.1
810.769	86.36
810.948	180.56
811.127	-71.34
811.306	67.92
811.485	-63.15
811.664	125.27
811.843	219.47
812.022	174.42
812.201	-28.33
812.38	-79.53
812.559	129.36
812.737	121.17
812.916	-71.34
813.095	26.96
813.274	262.48
813.453	186.71
813.632	43.35
813.811	178.51
813.989	-38.57
814.168	198.99
814.347	-132.78
814.526	-1.71
814.704	321.87
814.883	354.64
815.062	-40.62
815.24	37.2
815.419	-24.23
815.598	198.99
815.776	-159.4
815.955	29.01
816.133	-140.97
816.312	92.5
816.49	2.39
816.669	41.3
816.847	117.08
817.026	248.15
817.204	4.44
817.383	67.92
817.561	8.53
817.74	223.57
817.918	43.35
818.097	-50.86
818.275	104.79
818.453	225.62
818.632	35.16
818.81	-7.85
818.988	162.13
819.167	47.44
819.345	-5.8
819.523	-63.15
819.701	213.33
819.879	221.52
820.058	209.23
820.236	-13.99
820.414	96.6
820.592	69.97
820.77	-5.8
820.948	-112.3
821.127	98.64
821.305	203.09
821.483	-153.26
821.661	-5.8
821.839	196.95
822.017	84.31
822.195	-57
822.373	20.82
822.551	125.27
822.729	248.15
822.907	2.39
823.085	51.54
823.262	231.76
823.44	0.34
823.618	112.98
823.796	-32.43
823.974	131.41
824.152	35.16
824.329	117.08
824.507	-5.8
824.685	235.86
824.863	213.33
825.04	0.34
825.218	84.31
825.396	43.35
825.574	256.34
825.751	78.16
825.929	-50.86
826.107	51.54
826.284	264.53
826.462	-24.23
826.639	-9.9
826.817	26.96
826.994	129.36
827.172	-87.72
827.349	59.73
827.527	82.26
827.704	155.99
827.882	162.13
828.059	-20.14
828.237	178.51
828.414	227.67
828.591	-116.39
828.769	67.92
828.946	31.06
829.124	246.1
829.301	84.31
829.478	-61.1
829.655	166.23
829.833	145.75
830.01	-212.65
830.187	203.09
830.364	151.89
830.542	155.99
830.719	92.5
830.896	57.68
831.073	182.61
831.25	72.02
831.427	-30.38
831.604	92.5
831.782	-22.19
831.959	207.19
832.136	63.83
832.313	125.27
832.49	145.75
832.667	108.88
832.844	37.2
833.021	256.34
833.198	213.33
833.374	143.7
833.551	59.73
833.728	-11.95
833.905	235.86
834.082	-138.92
834.259	190.8
834.436	104.79
834.612	61.78
834.789	252.24
834.966	18.77
835.143	-1.71
835.319	37.2
835.496	180.56
835.673	33.11
835.85	147.8
836.026	256.34
836.203	293.2
836.38	-81.58
836.556	-9.9
836.733	35.16
836.909	317.78
837.086	49.49
837.262	-108.2
837.439	100.69
837.616	-32.43
837.792	141.65
837.968	-30.38
838.145	-77.48
838.321	63.83
838.498	-18.09
838.674	55.64
838.851	235.86
839.027	100.69
839.203	35.16
839.38	72.02
839.556	102.74
839.732	182.61
839.909	18.77
840.085	-46.76
840.261	102.74
840.437	139.6
840.614	18.77
840.79	72.02
840.966	194.9
841.142	182.61
841.318	59.73
841.494	-38.57
841.671	313.68
841.847	26.96
842.023	-91.82
842.199	-18.09
842.375	387.41
842.551	-104.11
842.727	-93.87
842.903	133.46
843.079	84.31
843.255	289.1
843.431	49.49
843.607	145.75
843.783	-155.3
843.959	239.95
844.134	-16.04
844.31	205.14
844.486	94.55
844.662	67.92
844.838	2.39
845.013	-44.71
845.189	342.35
845.365	153.94
845.541	67.92
845.716	141.65
845.892	352.59
846.068	178.51
846.244	74.07
846.419	-71.34
846.595	88.4
846.77	63.83
846.946	72.02
847.122	8.53
847.297	88.4
847.473	510.29
847.648	-13.99
847.824	-46.76
847.999	-38.57
848.175	61.78
848.35	117.08
848.526	244.05
848.701	315.73
848.876	201.04
849.052	276.82
849.227	47.44
849.403	237.91
849.578	108.88
849.753	108.88
849.929	-18.09
850.104	-20.14
850.279	123.22
850.454	55.64
850.63	57.68
850.805	203.09
850.98	186.71
851.155	92.5
851.33	174.42
851.505	0.34
851.681	299.34
851.856	12.63
852.031	82.26
852.206	229.71
852.381	4.44
852.556	37.2
852.731	-132.78
852.906	215.38
853.081	289.1
853.256	186.71
853.431	-26.28
853.606	72.02
853.781	57.68
853.956	-108.2
854.131	55.64
854.305	168.27
854.48	82.26
854.655	8.53
854.83	-38.57
855.005	102.74
855.18	231.76
855.354	41.3
855.529	-22.19
855.704	76.12
855.879	215.38
856.053	-50.86
856.228	88.4
856.403	8.53
856.577	246.1
856.752	-97.96
856.926	57.68
857.101	278.87
857.276	-7.85
857.45	74.07
857.625	139.6
857.799	182.61
857.974	123.22
858.148	-157.35
858.323	43.35
858.497	143.7
858.672	35.16
858.846	6.49
859.02	104.79
859.195	-16.04
859.369	108.88
859.543	115.03
859.718	96.6
859.892	194.9
860.066	147.8
860.241	-3.75
860.415	6.49
860.589	233.81
860.763	164.18
860.938	65.88
861.112	26.96
861.286	119.12
861.46	311.63
861.634	2.39
861.808	-26.28
861.982	47.44
862.157	0.34
862.331	49.49
862.505	-108.2
862.679	65.88
862.853	137.56
863.027	55.64
863.201	-9.9
863.375	135.51
863.549	205.14
863.722	207.19
863.896	59.73
864.07	41.3
864.244	96.6
864.418	141.65
864.592	72.02
864.766	207.19
864.939	117.08
865.113	74.07
865.287	196.95
865.461	-18.09
865.634	190.8
865.808	51.54
865.982	39.25
866.156	12.63
866.329	-57
866.503	82.26
866.676	112.98
866.85	254.29
867.024	-9.9
867.197	203.09
867.371	6.49
867.544	244.05
867.718	-128.68
867.891	207.19
868.065	-75.43
868.238	207.19
868.412	217.43
868.585	96.6
868.759	6.49
868.932	164.18
869.105	72.02
869.279	139.6
869.452	-140.97
869.625	313.68
869.799	100.69
869.972	26.96
870.145	18.77
870.319	313.68
870.492	76.12
870.665	24.92
870.838	-54.95
871.011	-196.26
871.185	176.47
871.358	35.16
871.531	158.03
871.704	125.27
871.877	198.99
872.05	-97.96
872.223	-3.75
872.396	301.39
872.569	317.78
872.742	-16.04
872.915	117.08
873.088	53.59
873.261	41.3
873.434	164.18
873.607	8.53
873.78	371.02
873.953	31.06
874.126	24.92
874.299	74.07
874.471	57.68
874.644	194.9
874.817	145.75
874.99	260.43
875.163	121.17
875.335	90.45
875.508	-32.43
875.681	158.03
875.853	141.65
876.026	143.7
876.199	225.62
876.371	-9.9
876.544	63.83
876.717	153.94
876.889	22.87
877.062	188.75
877.234	10.58
877.407	61.78
877.579	92.5
877.752	67.92
877.924	295.25
878.097	256.34
878.269	-1.71
878.442	135.51
878.614	287.06
878.786	190.8
878.959	-26.28
879.131	121.17
879.303	16.73
879.476	108.88
879.648	178.51
879.82	-30.38
879.993	162.13
880.165	51.54
880.337	26.96
880.509	59.73
880.681	-63.15
880.854	84.31
881.026	129.36
881.198	158.03
881.37	223.57
881.542	188.75
881.714	14.68
881.886	39.25
882.058	153.94
882.23	209.23
882.402	59.73
882.574	121.17
882.746	252.24
882.918	338.26
883.09	164.18
883.262	14.68
883.434	250.19
883.606	-32.43
883.778	47.44
883.95	158.03
884.122	102.74
884.293	336.21
884.465	121.17
884.637	137.56
884.809	51.54
884.98	278.87
885.152	158.03
885.324	155.99
885.496	47.44
885.667	184.66
885.839	51.54
886.011	26.96
886.182	330.06
886.354	293.2
886.525	100.69
886.697	-9.9
886.869	26.96
887.04	192.85
887.212	375.12
887.383	170.32
887.555	190.8
887.726	112.98
887.897	35.16
888.069	69.97
888.24	334.16
888.412	92.5
888.583	88.4
888.754	35.16
888.926	-120.49
889.097	86.36
889.268	8.53
889.44	-22.19
889.611	12.63
889.782	-52.91
889.953	-79.53
890.125	162.13
890.296	-18.09
890.467	49.49
890.638	-18.09
890.809	35.16
890.98	106.84
891.151	186.71
891.323	82.26
891.494	-13.99
891.665	125.27
891.836	145.75
892.007	104.79
892.178	149.84
892.349	186.71
892.52	0.34
892.691	90.45
892.862	90.45
893.032	-1.71
893.203	88.4
893.374	76.12
893.545	147.8
893.716	145.75
893.887	321.87
894.057	14.68
894.228	35.16
894.399	63.83
894.57	338.26
894.74	76.12
894.911	76.12
895.082	174.42
895.253	72.02
895.423	115.03
895.594	139.6
895.764	194.9
895.935	-18.09
896.106	143.7
896.276	39.25
896.447	166.23
896.617	57.68
896.788	-91.82
896.958	35.16
897.129	117.08
897.299	55.64
897.47	254.29
897.64	108.88
897.81	108.88
897.981	244.05
898.151	51.54
898.322	49.49
898.492	366.93
898.662	2.39
898.832	65.88
899.003	14.68
899.173	272.72
899.343	43.35
899.513	0.34
