Data from USB4F104151__1__09-13-51-826.txt Node

Date: Wed Feb 26 09:13:51 EST 2025
User: louis
Spectrometer: USB4F10415
Trigger mode: 4
Integration Time (sec): 4.000000E-1
Scans to average: 1
Electric dark correction enabled: true
Nonlinearity correction enabled: false
Boxcar width: 0
XAxis mode: Wavelengths
Number of Pixels in Spectrum: 3648
>>>>>Begin Spectral Data<<<<<
178.204	-878.07
178.424	-878.07
178.644	-878.07
178.864	-894.45
179.084	-886.26
179.304	211.45
179.524	98.81
179.744	-65.02
179.964	-239.1
180.184	260.6
180.404	152.06
180.624	-282.11
180.844	-155.13
181.064	96.77
181.283	299.52
181.503	-200.19
181.723	-177.66
181.943	-46.59
182.163	481.78
182.383	-298.49
182.602	-237.05
182.822	457.21
183.042	172.54
183.262	-257.53
183.482	-245.24
183.701	211.45
183.921	358.91
184.141	-202.24
184.361	-263.68
184.58	285.18
184.8	211.45
185.02	-290.3
185.239	-110.08
185.459	281.08
185.679	426.49
185.898	-335.35
186.118	-273.92
186.338	348.67
186.557	358.91
186.777	-271.87
186.997	-257.53
187.216	262.65
187.436	532.98
187.655	-206.33
187.875	-67.07
188.095	276.99
188.314	438.78
188.534	-110.08
188.753	-304.64
188.973	342.52
189.192	432.63
189.412	-298.49
189.631	-247.29
189.851	430.59
190.07	555.51
190.29	-245.24
190.509	-372.22
190.729	268.8
190.948	455.16
191.168	-120.32
191.387	-273.92
191.607	227.84
191.826	375.29
192.045	-171.52
192.265	-271.87
192.484	381.43
192.704	317.95
192.923	-251.39
193.142	-93.69
193.362	350.71
193.581	375.29
193.8	-126.46
194.02	-144.89
194.239	283.13
194.458	358.91
194.678	-226.81
194.897	-292.35
195.116	309.76
195.335	383.48
195.555	-222.72
195.774	-304.64
195.993	391.67
196.212	227.84
196.432	-189.95
196.651	-306.68
196.87	293.37
197.089	635.38
197.308	-302.59
197.528	-161.28
197.747	129.53
197.966	356.86
198.185	-118.27
198.404	-380.41
198.623	356.86
198.842	469.5
199.062	-185.85
199.281	-144.89
199.5	348.67
199.719	342.52
199.938	-304.64
200.157	-216.57
200.376	379.39
200.595	547.32
200.814	-196.09
201.033	-216.57
201.252	520.7
201.471	354.81
201.69	-278.01
201.909	-198.14
202.128	412.15
202.347	348.67
202.566	-157.18
202.785	-478.71
203.004	133.63
203.223	453.11
203.442	-247.29
203.661	-337.4
203.879	324.09
204.098	449.02
204.317	-357.88
204.536	-128.51
204.755	438.78
204.974	365.05
205.193	-400.89
205.411	-124.41
205.63	465.4
205.849	272.89
206.068	-185.85
206.287	-278.01
206.505	436.73
206.724	242.17
206.943	-298.49
207.162	-278.01
207.381	268.8
207.599	152.06
207.818	-65.02
208.037	-316.92
208.255	197.12
208.474	256.51
208.693	-255.48
208.911	-259.58
209.13	375.29
209.349	324.09
209.567	-77.31
209.786	-204.28
210.005	399.87
210.223	305.66
210.442	-476.66
210.661	-335.35
210.879	338.43
211.098	256.51
211.316	-148.99
211.535	-263.68
211.753	219.64
211.972	320
212.191	-265.72
212.409	-269.82
212.628	487.93
212.846	147.97
213.065	-247.29
213.283	-185.85
213.502	244.22
213.72	209.4
213.938	-286.2
214.157	-278.01
214.375	346.62
214.594	240.12
214.812	-220.67
215.031	-214.52
215.249	201.21
215.467	293.37
215.686	-132.61
215.904	-304.64
216.122	297.47
216.341	446.97
216.559	-73.21
216.778	-183.81
216.996	463.35
217.214	178.69
217.432	-189.95
217.651	-323.07
217.869	281.08
218.087	250.36
218.306	-275.96
218.524	-230.91
218.742	236.03
218.96	489.98
219.179	-183.81
219.397	-329.21
219.615	547.32
219.833	225.79
220.051	-230.91
220.27	-99.84
220.488	465.4
220.706	330.23
220.924	-314.88
221.142	-280.06
221.36	313.85
221.578	299.52
221.796	-300.54
222.015	-101.89
222.233	291.32
222.451	399.87
222.669	-136.7
222.887	-105.98
223.105	162.3
223.323	94.72
223.541	-105.98
223.759	-280.06
223.977	227.84
224.195	430.59
224.413	-226.81
224.631	-214.52
224.849	301.56
225.067	522.74
225.285	-144.89
225.503	-255.48
225.721	-65.02
225.939	193.02
226.157	-206.33
226.375	-58.88
226.592	129.53
226.81	223.74
227.028	-95.74
227.246	-169.47
227.464	293.37
227.682	367.1
227.9	-185.85
228.117	-216.57
228.335	334.33
228.553	158.21
228.771	-282.11
228.989	-253.44
229.206	334.33
229.424	143.87
229.642	-249.34
229.86	-198.14
230.077	420.35
230.295	231.93
230.513	-65.02
230.731	-142.85
230.948	457.21
231.166	430.59
231.384	-157.18
231.601	-204.28
231.819	496.12
232.037	55.81
232.254	-69.12
232.472	-224.76
232.689	211.45
232.907	373.24
233.125	-308.73
233.342	-321.02
233.56	193.02
233.777	141.82
233.995	-214.52
234.213	-122.37
234.43	338.43
234.648	197.12
234.865	-284.16
235.083	-157.18
235.3	350.71
235.518	309.76
235.735	-79.36
235.953	-95.74
236.17	225.79
236.388	176.64
236.605	-77.31
236.822	-56.83
237.04	344.57
237.257	268.8
237.475	-222.72
237.692	-189.95
237.909	399.87
238.127	137.73
238.344	-120.32
238.562	-214.52
238.779	86.53
238.996	66.05
239.214	-110.08
239.431	-189.95
239.648	195.07
239.865	258.56
240.083	-130.56
240.3	-202.24
240.517	186.88
240.735	276.99
240.952	-3.58
241.169	-296.44
241.386	375.29
241.603	158.21
241.821	-247.29
242.038	-146.94
242.255	469.5
242.472	113.15
242.689	-83.45
242.907	-192
243.124	250.36
243.341	252.41
243.558	-157.18
243.775	-259.58
243.992	61.95
244.209	373.24
244.426	-22.02
244.643	-210.43
244.86	166.4
245.078	276.99
245.295	-148.99
245.512	-198.14
245.729	133.63
245.946	250.36
246.163	-200.19
246.38	-153.09
246.597	160.25
246.814	203.26
247.031	-124.41
247.248	-304.64
247.464	344.57
247.681	145.92
247.898	-183.81
248.115	-138.75
248.332	176.64
248.549	434.68
248.766	-71.17
248.983	-93.69
249.2	393.72
249.417	449.02
249.633	-146.94
249.85	-144.89
250.067	219.64
250.284	215.55
250.501	-216.57
250.717	-185.85
250.934	68.09
251.151	127.49
251.368	-169.47
251.585	-249.34
251.801	272.89
252.018	113.15
252.235	-15.87
252.451	-224.76
252.668	119.29
252.885	354.81
253.102	-235
253.318	-206.33
253.535	195.07
253.752	147.97
253.968	-189.95
254.185	-296.44
254.401	324.09
254.618	293.37
254.835	-116.22
255.051	-232.96
255.268	340.47
255.484	252.41
255.701	-214.52
255.917	-194.05
256.134	168.45
256.351	217.6
256.567	-259.58
256.784	-112.13
257	35.33
257.217	412.15
257.433	8.7
257.65	-192
257.866	365.05
258.082	80.38
258.299	-226.81
258.515	-75.26
258.732	250.36
258.948	113.15
259.165	-99.84
259.381	-224.76
259.597	315.9
259.814	258.56
260.03	-226.81
260.246	-177.66
260.463	285.18
260.679	346.62
260.895	-95.74
261.112	-52.74
261.328	238.08
261.544	76.29
261.761	-192
261.977	-208.38
262.193	74.24
262.409	334.33
262.626	-42.5
262.842	-148.99
263.058	6.66
263.274	307.71
263.49	-11.78
263.707	-230.91
263.923	367.1
264.139	-3.58
264.355	-136.7
264.571	-91.65
264.787	309.76
265.004	240.12
265.22	-140.8
265.436	-153.09
265.652	186.88
265.868	320
266.084	-251.39
266.3	-183.81
266.516	51.71
266.732	274.94
266.948	-130.56
267.164	-200.19
267.38	395.77
267.596	260.6
267.812	-62.98
268.028	-210.43
268.244	98.81
268.46	301.56
268.676	-216.57
268.892	-19.97
269.108	80.38
269.324	162.3
269.54	-206.33
269.756	-97.79
269.972	86.53
270.188	272.89
270.403	-218.62
270.619	-194.05
270.835	260.6
271.051	193.02
271.267	-101.89
271.483	-273.92
271.698	342.52
271.914	250.36
272.13	-83.45
272.346	-148.99
272.562	203.26
272.777	457.21
272.993	-87.55
273.209	-241.15
273.425	332.28
273.64	74.24
273.856	-95.74
274.072	-345.59
274.287	162.3
274.503	346.62
274.719	-50.69
274.934	-255.48
275.15	51.71
275.366	178.69
275.581	-271.87
275.797	-95.74
276.012	199.16
276.228	141.82
276.444	-50.69
276.659	14.85
276.875	18.94
277.09	113.15
277.306	-126.46
277.521	-91.65
277.737	131.58
277.952	211.45
278.168	-153.09
278.383	-93.69
278.599	182.78
278.814	244.22
279.03	-237.05
279.245	-44.54
279.461	88.57
279.676	293.37
279.892	-155.13
280.107	-142.85
280.322	39.42
280.538	383.48
280.753	-194.05
280.969	-110.08
281.184	195.07
281.399	258.56
281.615	-75.26
281.83	6.66
282.045	51.71
282.26	117.25
282.476	-101.89
282.691	-1.54
282.906	199.16
283.122	102.91
283.337	-144.89
283.552	-71.17
283.767	109.05
283.983	203.26
284.198	-153.09
284.413	-93.69
284.628	49.66
284.843	182.78
285.058	-108.03
285.274	-181.76
285.489	119.29
285.704	117.25
285.919	-75.26
286.134	-120.32
286.349	129.53
286.564	113.15
286.779	-69.12
286.995	-19.97
287.21	-22.02
287.425	227.84
287.64	-200.19
287.855	68.09
288.07	-3.58
288.285	283.13
288.5	-17.92
288.715	-130.56
288.93	129.53
289.145	76.29
289.36	-77.31
289.575	-93.69
289.79	367.1
290.004	84.48
290.219	18.94
290.434	-69.12
290.649	68.09
290.864	162.3
291.079	-71.17
291.294	-99.84
291.509	272.89
291.724	195.07
291.938	-95.74
292.153	-130.56
292.368	227.84
292.583	240.12
292.798	-65.02
293.012	18.94
293.227	295.42
293.442	109.05
293.657	-1.54
293.871	-19.97
294.086	309.76
294.301	227.84
294.516	6.66
294.73	100.86
294.945	64
295.16	104.96
295.374	-34.3
295.589	-5.63
295.804	96.77
296.018	150.01
296.233	-9.73
296.447	-9.73
296.662	49.66
296.877	387.58
297.091	-99.84
297.306	-99.84
297.52	102.91
297.735	154.11
297.949	14.85
298.164	-243.2
298.378	178.69
298.593	88.57
298.807	-75.26
299.022	-11.78
299.236	322.04
299.451	74.24
299.665	4.61
299.88	-30.21
300.094	225.79
300.309	92.67
300.523	-52.74
300.737	-132.61
300.952	268.8
301.166	248.32
301.381	-83.45
301.595	-198.14
301.809	96.77
302.024	172.54
302.238	-60.93
302.452	-5.63
302.667	176.64
302.881	301.56
303.095	-50.69
303.309	-30.21
303.524	203.26
303.738	178.69
303.952	39.42
304.166	-15.87
304.381	-52.74
304.595	240.12
304.809	43.52
305.023	-58.88
305.237	55.81
305.452	33.28
305.666	-22.02
305.88	-13.82
306.094	213.5
306.308	193.02
306.522	-116.22
306.736	4.61
306.95	244.22
307.164	135.68
307.379	4.61
307.593	-5.63
307.807	203.26
308.021	219.64
308.235	96.77
308.449	-161.28
308.663	154.11
308.877	555.51
309.091	-13.82
309.305	12.8
309.519	45.57
309.733	350.71
309.947	-169.47
310.161	-151.04
310.374	225.79
310.588	309.76
310.802	-148.99
311.016	8.7
311.23	154.11
311.444	115.2
311.658	16.9
311.872	119.29
312.085	328.19
312.299	197.12
312.513	104.96
312.727	-151.04
312.941	55.81
313.154	55.81
313.368	-71.17
313.582	-136.7
313.796	201.21
314.009	109.05
314.223	55.81
314.437	20.99
314.651	186.88
314.864	150.01
315.078	-95.74
315.292	-91.65
315.505	129.53
315.719	182.78
315.933	45.57
316.146	-161.28
316.36	109.05
316.573	168.45
316.787	174.59
317.001	-42.5
317.214	72.19
317.428	193.02
317.641	-91.65
317.855	-65.02
318.068	309.76
318.282	176.64
318.495	53.76
318.709	-67.07
318.922	125.44
319.136	233.98
319.349	20.99
319.563	-108.03
319.776	272.89
319.99	-32.26
320.203	6.66
320.417	-44.54
320.63	193.02
320.843	201.21
321.057	78.33
321.27	-99.84
321.483	270.84
321.697	72.19
321.91	-67.07
322.124	-95.74
322.337	207.36
322.55	35.33
322.763	-5.63
322.977	-60.93
323.19	72.19
323.403	100.86
323.617	-40.45
323.83	166.4
324.043	219.64
324.256	109.05
324.469	-216.57
324.683	59.9
324.896	195.07
325.109	152.06
325.322	-142.85
325.535	29.18
325.748	352.76
325.962	193.02
326.175	4.61
326.388	-44.54
326.601	137.73
326.814	47.62
327.027	39.42
327.24	98.81
327.453	-71.17
327.666	293.37
327.879	166.4
328.092	39.42
328.305	305.66
328.518	154.11
328.731	-44.54
328.944	-85.5
329.157	55.81
329.37	39.42
329.583	88.57
329.796	-1.54
330.009	-5.63
330.222	225.79
330.435	39.42
330.648	-62.98
330.861	276.99
331.073	219.64
331.286	35.33
331.499	-79.36
331.712	195.07
331.925	131.58
332.138	14.85
332.35	-99.84
332.563	186.88
332.776	303.61
332.989	-44.54
333.202	-218.62
333.414	109.05
333.627	141.82
333.84	-71.17
334.053	33.28
334.265	117.25
334.478	10.75
334.691	-99.84
334.903	84.48
335.116	104.96
335.329	145.92
335.541	-19.97
335.754	283.13
335.966	211.45
336.179	233.98
336.392	-28.16
336.604	-13.82
336.817	162.3
337.029	162.3
337.242	-105.98
337.454	20.99
337.667	203.26
337.88	248.32
338.092	6.66
338.305	78.33
338.517	51.71
338.729	150.01
338.942	-50.69
339.154	-110.08
339.367	102.91
339.579	205.31
339.792	-75.26
340.004	-134.65
340.217	94.72
340.429	233.98
340.641	-116.22
340.854	-132.61
341.066	127.49
341.278	272.89
341.491	64
341.703	-69.12
341.915	2.56
342.128	281.08
342.34	-71.17
342.552	-151.04
342.764	244.22
342.977	182.78
343.189	-30.21
343.401	-11.78
343.613	6.66
343.826	92.67
344.038	-95.74
344.25	47.62
344.462	41.47
344.674	109.05
344.886	-130.56
345.099	-19.97
345.311	160.25
345.523	96.77
345.735	-218.62
345.947	29.18
346.159	195.07
346.371	207.36
346.583	16.9
346.795	64
347.007	170.49
347.219	258.56
347.431	33.28
347.643	107.01
347.855	127.49
348.067	299.52
348.279	-11.78
348.491	-112.13
348.703	293.37
348.915	164.35
349.127	-116.22
349.339	-1.54
349.551	205.31
349.763	254.46
349.975	-1.54
350.187	113.15
350.399	363
350.61	113.15
350.822	-120.32
351.034	-32.26
351.246	276.99
351.458	137.73
351.669	80.38
351.881	-101.89
352.093	408.06
352.305	246.27
352.517	-169.47
352.728	-13.82
352.94	45.57
353.152	340.47
353.363	-101.89
353.575	10.75
353.787	399.87
353.999	193.02
354.21	127.49
354.422	-165.37
354.633	145.92
354.845	162.3
355.057	64
355.268	-7.68
355.48	299.52
355.692	-46.59
355.903	6.66
356.115	-83.45
356.326	47.62
356.538	387.58
356.749	-17.92
356.961	72.19
357.172	211.45
357.384	14.85
357.595	137.73
357.807	6.66
358.018	141.82
358.23	248.32
358.441	-83.45
358.653	-54.78
358.864	195.07
359.075	37.38
359.287	-13.82
359.498	-34.3
359.709	227.84
359.921	178.69
360.132	2.56
360.344	-99.84
360.555	96.77
360.766	80.38
360.977	-116.22
361.189	-11.78
361.4	166.4
361.611	240.12
361.823	53.76
362.034	-108.03
362.245	14.85
362.456	190.97
362.667	-1.54
362.879	-144.89
363.09	266.75
363.301	150.01
363.512	-30.21
363.723	-54.78
363.935	201.21
364.146	301.56
364.357	-60.93
364.568	-48.64
364.779	23.04
364.99	299.52
365.201	-15.87
365.412	29.18
365.623	-28.16
365.834	170.49
366.045	43.52
366.256	29.18
366.467	225.79
366.678	117.25
366.889	-19.97
367.1	-36.35
367.311	244.22
367.522	117.25
367.733	-1.54
367.944	20.99
368.155	193.02
368.366	276.99
368.577	51.71
368.788	158.21
368.999	88.57
369.209	203.26
369.42	39.42
369.631	295.42
369.842	236.03
370.053	176.64
370.264	0.51
370.474	-34.3
370.685	260.6
370.896	98.81
371.107	102.91
371.317	-38.4
371.528	84.48
371.739	242.17
371.95	-79.36
372.16	-50.69
372.371	143.87
372.582	174.59
372.792	-71.17
373.003	14.85
373.214	268.8
373.424	162.3
373.635	-36.35
373.846	100.86
374.056	225.79
374.267	168.45
374.477	94.72
374.688	-3.58
374.898	182.78
375.109	131.58
375.319	39.42
375.53	31.23
375.74	340.47
375.951	59.9
376.161	59.9
376.372	-42.5
376.582	84.48
376.793	231.93
377.003	-52.74
377.214	-155.13
377.424	244.22
377.635	172.54
377.845	-13.82
378.055	64
378.266	80.38
378.476	143.87
378.686	-17.92
378.897	-30.21
379.107	283.13
379.317	217.6
379.528	-142.85
379.738	-1.54
379.948	14.85
380.158	291.32
380.369	-13.82
380.579	20.99
380.789	137.73
380.999	197.12
381.21	64
381.42	45.57
381.63	111.1
381.84	295.42
382.05	27.14
382.261	57.86
382.471	209.4
382.681	12.8
382.891	37.38
383.101	55.81
383.311	49.66
383.521	217.6
383.731	-67.07
383.941	154.11
384.151	158.21
384.361	-9.73
384.571	-99.84
384.781	-42.5
384.991	197.12
385.201	406.01
385.411	135.68
385.621	61.95
385.831	315.9
386.041	193.02
386.251	80.38
386.461	-1.54
386.671	195.07
386.881	166.4
387.091	-58.88
387.301	70.14
387.511	213.5
387.72	199.16
387.93	25.09
388.14	-116.22
388.35	201.21
388.56	242.17
388.769	78.33
388.979	-93.69
389.189	47.62
389.399	164.35
389.609	-85.5
389.818	14.85
390.028	236.03
390.238	256.51
390.447	-52.74
390.657	23.04
390.867	199.16
391.076	49.66
391.286	6.66
391.496	-69.12
391.705	154.11
391.915	336.38
392.125	-120.32
392.334	6.66
392.544	285.18
392.753	158.21
392.963	94.72
393.172	29.18
393.382	127.49
393.591	252.41
393.801	-105.98
394.01	-44.54
394.22	219.64
394.429	162.3
394.639	102.91
394.848	31.23
395.058	236.03
395.267	209.4
395.477	59.9
395.686	-32.26
395.895	535.03
396.105	299.52
396.314	43.52
396.524	-30.21
396.733	55.81
396.942	289.28
397.152	-42.5
397.361	131.58
397.57	117.25
397.78	215.55
397.989	16.9
398.198	250.36
398.407	137.73
398.617	143.87
398.826	-30.21
399.035	-56.83
399.244	219.64
399.453	170.49
399.663	-30.21
399.872	-179.71
400.081	47.62
400.29	184.83
400.499	-3.58
400.708	64
400.917	195.07
401.127	115.2
401.336	23.04
401.545	289.28
401.754	285.18
401.963	301.56
402.172	-5.63
402.381	-42.5
402.59	166.4
402.799	166.4
403.008	150.01
403.217	68.09
403.426	176.64
403.635	-26.11
403.844	-95.74
404.053	-99.84
404.262	109.05
404.471	258.56
404.68	27.14
404.888	64
405.097	20.99
405.306	162.3
405.515	61.95
405.724	-42.5
405.933	258.56
406.142	162.3
406.35	20.99
406.559	51.71
406.768	170.49
406.977	350.71
407.185	-38.4
407.394	37.38
407.603	-32.26
407.812	143.87
408.02	96.77
408.229	29.18
408.438	276.99
408.646	-26.11
408.855	-67.07
409.064	45.57
409.272	143.87
409.481	152.06
409.69	-65.02
409.898	-71.17
410.107	305.66
410.315	211.45
410.524	53.76
410.733	41.47
410.941	256.51
411.15	315.9
411.358	68.09
411.567	121.34
411.775	260.6
411.984	211.45
412.192	-19.97
412.401	-46.59
412.609	395.77
412.818	264.7
413.026	76.29
413.234	-44.54
413.443	233.98
413.651	100.86
413.86	-148.99
414.068	256.51
414.276	387.58
414.485	117.25
414.693	96.77
414.901	184.83
415.11	158.21
415.318	186.88
415.526	-28.16
415.734	88.57
415.943	236.03
416.151	373.24
416.359	-71.17
416.567	6.66
416.776	276.99
416.984	250.36
417.192	113.15
417.4	-40.45
417.608	94.72
417.817	43.52
418.025	166.4
418.233	88.57
418.441	94.72
418.649	23.04
418.857	70.14
419.065	72.19
419.273	178.69
419.481	88.57
419.689	80.38
419.897	-108.03
420.105	55.81
420.313	285.18
420.521	59.9
420.729	80.38
420.937	172.54
421.145	61.95
421.353	64
421.561	59.9
421.769	254.46
421.977	55.81
422.185	29.18
422.393	10.75
422.601	195.07
422.809	289.28
423.017	125.44
423.224	-11.78
423.432	350.71
423.64	193.02
423.848	4.61
424.056	-54.78
424.263	356.86
424.471	256.51
424.679	98.81
424.887	-89.6
425.094	428.54
425.302	250.36
425.51	-189.95
425.718	139.77
425.925	203.26
426.133	111.1
426.341	186.88
426.548	-19.97
426.756	197.12
426.964	340.47
427.171	92.67
427.379	37.38
427.586	223.74
427.794	383.48
428.001	158.21
428.209	111.1
428.417	383.48
428.624	309.76
428.832	68.09
429.039	137.73
429.247	276.99
429.454	260.6
429.662	98.81
429.869	51.71
430.076	358.91
430.284	291.32
430.491	102.91
430.699	154.11
430.906	430.59
431.114	293.37
431.321	150.01
431.528	180.73
431.736	195.07
431.943	309.76
432.15	172.54
432.358	92.67
432.565	438.78
432.772	96.77
432.979	219.64
433.187	211.45
433.394	545.27
433.601	313.85
433.808	233.98
434.016	178.69
434.223	438.78
434.43	289.28
434.637	154.11
434.844	297.47
435.052	420.35
435.259	350.71
435.466	250.36
435.673	172.54
435.88	588.28
436.087	602.61
436.294	555.51
436.501	432.63
436.708	551.42
436.915	551.42
437.122	528.89
437.329	272.89
437.537	489.98
437.743	561.66
437.95	500.22
438.157	387.58
438.364	547.32
438.571	506.36
438.778	449.02
438.985	530.94
439.192	627.19
439.399	690.68
439.606	498.17
439.813	737.78
440.02	1018.35
440.227	993.78
440.433	549.37
440.64	635.38
440.847	831.99
441.054	840.18
441.261	815.6
441.467	776.69
441.674	930.29
441.881	1051.12
442.088	827.89
442.294	903.67
442.501	1165.81
442.708	1327.6
442.914	956.91
443.121	1030.64
443.328	1247.72
443.534	1452.52
443.741	1040.88
443.948	1208.81
444.154	1534.44
444.361	1677.8
444.568	1382.89
444.774	1493.48
444.981	1407.47
445.187	1798.63
445.394	1513.96
445.6	1612.26
445.807	1886.69
446.013	1935.84
446.22	1683.94
446.426	1946.08
446.633	2193.89
446.839	2347.48
447.046	1939.94
447.252	2187.74
447.459	2374.11
447.665	2447.83
447.871	2304.48
448.078	2716.12
448.284	2712.02
448.491	2986.45
448.697	2724.31
448.903	2894.29
449.11	3271.12
449.316	3135.95
449.522	3275.21
449.728	3267.02
449.935	3594.7
450.141	3615.18
450.347	3662.28
450.553	3688.9
450.76	3924.42
450.966	4225.47
451.172	4379.07
451.378	4250.05
451.584	4495.8
451.791	4889.01
451.997	4850.1
452.203	4811.19
452.409	5192.11
452.615	5495.21
452.821	5216.69
453.027	5300.66
453.233	6150.56
453.44	5921.19
453.646	5984.68
453.852	6349.22
454.058	6789.53
454.264	7080.34
454.47	7227.79
454.676	7213.46
454.882	8106.37
455.088	7682.44
455.294	7934.34
455.5	8436.1
455.705	9197.94
455.911	9111.92
456.117	9222.52
456.323	9527.66
456.529	9501.04
456.735	10393.95
456.941	10721.63
457.147	10948.95
457.352	11426.13
457.558	11796.81
457.764	12380.48
457.97	12732.73
458.176	13648.18
458.381	14090.54
458.587	14129.45
458.793	14913.82
458.999	14940.44
459.204	17023.23
459.41	17133.82
459.616	16759.04
459.821	18065.64
460.027	18653.41
460.233	19515.61
460.438	19536.09
460.644	20994.24
460.85	21088.45
461.055	21768.37
461.261	22909.09
461.466	22472.87
461.672	22849.7
461.878	25499.77
462.083	25141.38
462.289	26097.78
462.494	26640.49
462.7	26867.81
462.905	27195.49
463.111	29804.6
463.316	30801.96
463.522	31176.74
463.727	32395.28
463.932	33533.95
464.138	34873.32
464.343	35807.2
464.549	36278.23
464.754	39092.14
464.959	39970.72
465.165	40251.29
465.37	39880.61
465.575	40411.03
465.781	42782.58
465.986	43999.07
466.191	43153.26
466.397	43913.06
466.602	42983.28
466.807	44855.12
467.012	45766.47
467.218	46604.09
467.423	46966.58
467.628	48000.8
467.833	50228.99
468.038	49925.89
468.244	48625.43
468.449	51093.24
468.654	49921.8
468.859	49876.74
469.064	50110.21
469.269	48549.66
469.474	49176.34
469.679	50495.23
469.885	49032.98
470.09	49610.51
470.295	50044.68
470.5	49225.49
470.705	49374.99
470.91	47642.41
471.115	47107.89
471.32	48217.89
471.525	47630.12
471.73	46094.14
471.935	46208.83
472.139	44547.93
472.344	44773.2
472.549	43886.43
472.754	42946.42
472.959	42794.87
473.164	41213.84
473.369	40691.6
473.574	41199.5
473.778	40652.69
473.983	40251.29
474.188	39872.42
474.393	37658.56
474.598	37754.82
474.802	36749.26
475.007	35971.04
475.212	35760.09
475.417	34375.67
475.621	34228.21
475.826	33921.02
476.031	32927.75
476.235	32532.5
476.44	32606.22
476.645	31434.78
476.849	30631.98
477.054	30666.8
477.259	29966.39
477.463	29876.28
477.668	29102.15
477.872	29141.06
478.077	28508.24
478.282	27529.31
478.486	27043.94
478.691	27150.43
478.895	27043.94
479.1	26884.2
479.304	26529.9
479.509	25426.04
479.713	25845.88
479.918	25122.94
480.122	24520.84
480.326	25114.75
480.531	25270.4
480.735	24672.39
480.94	24154.26
481.144	25073.79
481.348	23730.33
481.553	23572.63
481.757	23255.2
481.961	23646.36
482.166	23775.38
482.37	23023.78
482.574	22755.49
482.778	22689.96
482.983	23079.07
483.187	22214.83
483.391	22306.99
483.595	21973.17
483.8	21848.24
484.004	21647.54
484.208	21795
484.412	21422.27
484.616	20959.42
484.821	20768.96
485.025	20089.04
485.229	20351.18
485.433	20324.55
485.637	19841.23
485.841	19249.37
486.045	19419.35
486.249	19030.24
486.453	18465
486.657	18696.42
486.861	18516.2
487.065	17606.9
487.269	17498.36
487.473	16865.53
487.677	17330.42
487.881	17324.28
488.085	16380.17
488.289	16498.95
488.493	16193.8
488.697	16132.36
488.901	15509.78
489.105	15376.66
489.309	15135
489.512	15178.01
489.716	14594.34
489.92	14237.99
490.124	14092.58
490.328	14160.17
490.531	13431.09
490.735	13162.81
490.939	13332.79
491.143	12859.71
491.346	12489.03
491.55	12636.48
491.754	12521.79
491.958	12120.39
492.161	11878.73
492.365	12005.7
492.569	11583.82
492.772	11645.26
492.976	11131.22
493.18	11112.79
493.383	11100.5
493.587	11317.59
493.79	10907.99
493.994	10553.69
494.197	10592.61
494.401	10637.66
494.605	10240.36
494.808	10043.75
495.012	10260.84
495.215	10350.95
495.419	10154.34
495.622	9681.26
495.825	9957.74
496.029	9910.63
496.232	9912.68
496.436	9705.84
496.639	10107.24
496.843	9765.23
497.046	9574.77
497.249	9892.2
497.453	10072.42
497.656	9709.93
497.859	9740.65
498.063	9574.77
498.266	10004.84
498.469	9722.22
498.673	9754.99
498.876	9984.36
499.079	10193.25
499.282	10006.89
499.485	9984.36
499.689	10062.18
499.892	10647.9
500.095	10025.32
500.298	10228.07
500.501	10312.03
500.705	10695
500.908	10580.32
501.111	10565.98
501.314	10533.22
501.517	11053.4
501.72	11166.04
501.923	10854.75
502.126	11043.16
502.329	11569.49
502.532	11508.05
502.735	11180.37
502.938	11843.92
503.141	11837.77
503.344	12044.62
503.547	12122.44
503.75	11905.35
503.953	12398.91
504.156	12654.91
504.359	12519.74
504.562	12728.64
504.765	12986.68
504.968	13551.92
505.17	13447.47
505.373	13396.28
505.576	14006.57
505.779	14065.96
505.982	14084.39
506.185	14788.89
506.387	14717.22
506.59	15046.94
506.793	15218.97
506.996	15481.11
507.198	16275.72
507.401	16337.16
507.604	16148.75
507.807	16640.26
508.009	17017.08
508.212	17230.07
508.415	17467.64
508.617	17957.1
508.82	18295.02
509.022	18286.82
509.225	19177.69
509.428	19210.46
509.63	19802.32
509.833	19902.67
510.035	20695.24
510.238	20615.37
510.44	21170.36
510.643	21827.76
510.845	21975.22
511.048	22145.2
511.25	23396.51
511.453	23558.3
511.655	24342.67
511.858	24545.42
512.06	25395.32
512.262	25684.09
512.465	25714.81
512.667	26497.13
512.87	27226.21
513.072	28104.79
513.274	28418.13
513.477	28717.13
513.679	29771.83
513.881	30613.55
514.084	30550.06
514.286	31186.98
514.488	31780.89
514.69	33267.72
514.893	33501.18
515.095	33447.94
515.297	34697.2
515.499	35061.74
515.701	35387.36
515.904	36284.37
516.106	36954.06
516.308	38117.31
516.51	38414.26
516.712	38535.09
516.914	39735.2
517.116	40505.24
517.318	40945.55
517.52	41551.75
517.722	42450.81
517.925	43175.79
518.127	43695.97
518.329	43919.2
518.531	44179.29
518.733	45588.3
518.935	46497.59
519.136	46458.68
519.338	47654.7
519.54	48189.22
519.742	48633.63
519.944	48715.54
520.146	50380.54
520.348	50366.21
520.55	50495.23
520.752	50564.86
520.954	52291.3
521.155	51975.91
521.357	53022.42
521.559	52739.8
521.761	53888.71
521.963	53763.79
522.164	54273.73
522.366	54515.39
522.568	55336.63
522.77	55305.91
522.971	55322.29
523.173	55076.54
523.375	56229.54
523.576	55860.91
523.778	55807.66
523.98	56272.55
524.181	56401.57
524.383	56442.53
524.584	56872.6
524.786	56336.04
524.988	56084.14
525.189	56782.49
525.391	56688.29
525.592	56790.69
525.794	56790.69
525.995	56637.09
526.197	55957.16
526.398	56077.99
526.6	55684.78
526.801	55905.96
527.003	55436.98
527.204	54943.42
527.406	55398.07
527.607	54734.52
527.808	54515.39
528.01	53395.15
528.211	53610.19
528.412	53565.13
528.614	52829.91
528.815	52373.22
529.016	52567.77
529.218	51490.54
529.419	51068.66
529.62	50482.94
529.822	50233.09
530.023	49882.89
530.224	49041.17
530.425	48572.19
530.626	47456.04
530.828	47154.99
531.029	47454
531.23	46427.96
531.431	45713.22
531.632	45864.77
531.833	44891.99
532.035	44228.45
532.236	43999.07
532.437	43630.44
532.638	42082.17
532.839	42000.26
533.04	41715.59
533.241	40468.37
533.442	41084.81
533.643	39968.67
533.844	39212.97
534.045	38838.19
534.246	37398.47
534.447	37476.29
534.648	37013.45
534.849	37220.3
535.05	36003.8
535.251	35889.12
535.451	34973.67
535.652	34643.95
535.853	34062.33
536.054	33841.15
536.255	33136.65
536.456	32309.27
536.657	32382.99
536.857	31834.14
537.058	31305.76
537.259	31215.65
537.46	30539.82
537.66	30169.14
537.861	29745.21
538.062	29597.76
538.263	28821.58
538.463	28645.45
538.664	28348.5
538.865	27773.02
539.065	27793.5
539.266	27373.66
539.466	27117.67
539.667	26566.76
539.868	26275.95
540.068	25792.63
540.269	25636.98
540.469	25249.92
540.67	24877.19
540.87	24633.48
541.071	24479.88
541.271	24342.67
541.472	23658.65
541.672	23500.95
541.873	23281.82
542.073	22974.63
542.274	23011.49
542.474	22536.36
542.675	22212.78
542.875	22399.15
543.075	21747.89
543.276	21332.15
543.476	21379.26
543.676	21131.45
543.877	20601.03
544.077	20287.69
544.277	20394.18
544.478	20097.23
544.678	19691.73
544.878	19626.2
545.078	19646.68
545.279	19099.87
545.479	18868.45
545.679	18252.01
545.879	18419.94
546.079	18385.13
546.28	18077.93
546.48	17690.87
546.68	17795.31
546.88	17756.4
547.08	17164.54
547.28	17072.38
547.48	16480.52
547.68	16699.65
547.88	16195.85
548.081	16156.94
548.281	15603.99
548.481	15704.34
548.681	15427.86
548.881	15216.92
549.081	15255.83
549.28	15055.13
549.48	14792.99
549.68	14530.85
549.88	14612.77
550.08	14143.78
550.28	13875.5
550.48	13773.1
550.68	13650.22
550.88	13332.79
551.08	13105.46
551.279	13011.26
551.479	12589.38
551.679	12763.45
551.879	12306.76
552.079	12439.87
552.278	12142.92
552.478	12298.56
552.678	11495.76
552.878	11432.27
553.077	11364.69
553.277	11215.19
553.477	11065.69
553.676	10864.99
553.876	10697.05
554.076	10553.69
554.275	10201.44
554.475	10115.43
554.674	10525.02
554.874	9867.63
555.074	9582.96
555.273	9632.11
555.473	9724.27
555.672	9343.35
555.872	9075.06
556.071	9154.93
556.271	9277.81
556.47	8814.97
556.67	8368.51
556.869	8382.85
557.068	8319.36
557.268	8485.25
557.467	7958.92
557.667	7887.24
557.866	7795.08
558.065	7653.77
558.265	7369.1
558.464	7201.17
558.663	7485.84
558.863	7215.51
559.062	6875.54
559.261	6691.23
559.461	7094.68
559.66	6857.11
559.859	6601.12
560.058	6584.73
560.258	6392.22
560.457	6572.44
560.656	6435.23
560.855	6119.84
561.054	6347.17
561.253	6125.99
561.453	5865.89
561.652	5779.88
561.851	6029.73
562.05	5745.06
562.249	5372.33
562.448	5462.44
562.647	5503.4
562.846	5341.61
563.045	5257.65
563.244	5155.25
563.443	5460.4
563.642	4991.41
563.841	5011.89
564.04	4790.71
564.239	4880.82
564.438	4995.51
564.637	4426.17
564.836	4698.55
565.035	4649.4
565.234	4446.65
565.432	4379.07
565.631	4176.32
565.83	4426.17
566.029	4510.14
566.228	4141.5
566.427	4061.63
566.625	4016.58
566.824	4110.79
567.023	3946.95
567.222	3799.49
567.42	4084.16
567.619	3901.89
567.818	3785.16
568.016	3965.38
568.215	3668.42
568.414	3795.4
568.612	3576.27
568.811	3543.5
569.01	3654.09
569.208	3537.35
569.407	3473.87
569.605	3404.24
569.804	3508.68
570.002	3473.87
570.201	3336.65
570.4	3357.13
570.598	3221.97
570.797	3111.38
570.995	3074.51
571.193	3090.9
571.392	3099.09
571.59	2908.63
571.789	3021.27
571.987	2699.73
572.186	3094.99
572.384	2744.79
572.582	2759.13
572.781	2757.08
572.979	2658.78
573.177	2761.17
573.376	2478.55
573.574	2484.7
573.772	2767.32
573.971	2568.66
574.169	2312.67
574.367	2398.68
574.565	2517.47
574.763	2447.83
574.962	2275.81
575.16	2382.3
575.358	2347.48
575.556	2365.92
575.754	2107.87
575.952	2068.96
576.151	2284
576.349	2284
576.547	1839.59
576.745	2169.31
576.943	2284
577.141	2032.1
577.339	1829.35
577.537	1849.83
577.735	2161.12
577.933	1980.9
578.131	1810.92
578.329	1849.83
578.527	1888.74
578.725	1970.66
578.923	1571.3
579.121	1624.55
579.319	1634.79
579.516	1792.48
579.714	1784.29
579.912	1653.22
580.11	1583.59
580.308	1673.7
580.506	1366.51
580.704	1182.19
580.901	1552.87
581.099	1741.29
581.297	1473
581.495	1341.93
581.692	1520.1
581.89	1583.59
582.088	1415.66
582.285	1362.41
582.483	1425.9
582.681	1530.34
582.878	1288.68
583.076	1278.44
583.274	1413.61
583.471	1618.41
583.669	1071.6
583.866	1110.51
584.064	1260.01
584.262	1202.67
584.459	1028.59
584.657	1065.46
584.854	1329.64
585.052	1356.27
585.249	1079.79
585.447	985.58
585.644	1014.26
585.841	1282.54
586.039	1036.78
586.236	973.3
586.434	1137.13
586.631	1053.17
586.828	850.42
587.026	963.06
587.223	993.78
587.42	862.71
587.618	903.67
587.815	1008.11
588.012	1102.32
588.21	1001.97
588.407	831.99
588.604	829.94
588.801	897.52
588.999	952.82
589.196	817.65
589.393	711.16
589.59	987.63
589.787	1001.97
589.984	825.84
590.182	811.51
590.379	829.94
590.576	1061.36
590.773	670.2
590.97	731.64
591.167	1026.54
591.364	956.91
591.561	692.73
591.758	760.31
591.955	1085.94
592.152	815.6
592.349	745.97
592.546	705.01
592.743	760.31
592.94	883.19
593.137	717.3
593.334	874.99
593.531	948.72
593.727	920.05
593.924	866.8
594.121	793.08
594.318	954.87
594.515	1032.69
594.712	891.38
594.908	754.16
595.105	666.1
595.302	1006.06
595.499	834.04
595.696	870.9
595.892	874.99
596.089	1153.52
596.286	866.8
596.482	852.47
596.679	1104.37
596.876	938.48
597.072	881.14
597.269	850.42
597.466	1190.38
597.662	1079.79
597.859	1040.88
598.055	1126.89
598.252	1300.97
598.448	1425.9
598.645	1307.12
598.841	1270.25
599.038	1556.97
599.234	1587.69
599.431	1407.47
599.627	1520.1
599.824	1661.41
600.02	1685.99
600.217	1614.31
600.413	1612.26
600.609	1821.16
600.806	2079.2
601.002	1804.77
601.198	1853.92
601.395	2300.38
601.591	2234.85
601.787	2224.61
601.984	2259.42
602.18	2398.68
602.376	2548.19
602.572	2650.58
602.769	2822.61
602.965	2746.84
603.161	2839
603.357	2939.35
603.553	3037.65
603.75	3086.8
603.946	3287.5
604.142	3363.28
604.338	3445.2
604.534	3699.14
604.73	3740.1
604.926	3631.56
605.122	3996.1
605.318	4180.42
605.514	4164.03
605.71	4067.78
605.906	4245.95
606.102	4608.44
606.298	4805.05
606.494	4897.21
606.69	4979.12
606.886	5362.09
607.082	5288.37
607.278	5151.15
607.474	5417.39
607.67	6025.64
607.866	5704.1
608.062	6214.05
608.257	6044.07
608.453	6295.97
608.649	6789.53
608.845	6619.55
609.041	6732.19
609.236	7121.3
609.432	7420.3
609.628	7487.89
609.824	7502.22
610.019	7864.71
610.215	8032.65
610.411	8182.15
610.606	8360.32
610.802	8749.43
610.998	9027.96
611.193	9316.72
611.389	9179.51
611.584	9845.1
611.78	9812.33
611.976	10172.77
612.171	10557.79
612.367	10836.31
612.562	11250
612.758	11024.73
612.953	11192.66
613.149	11948.36
613.344	12005.7
613.539	12466.5
613.735	12841.28
613.93	13467.95
614.126	13568.3
614.321	13850.92
614.517	14209.32
614.712	14508.32
614.907	14903.58
615.103	14995.74
615.298	15452.44
615.493	15806.73
615.688	15902.99
615.884	17275.13
616.079	17137.91
616.274	18041.07
616.47	18049.26
616.665	18356.46
616.86	18841.82
617.055	19441.88
617.25	19790.03
617.445	20549.83
617.641	20963.52
617.836	21532.86
618.031	21799.09
618.226	22689.96
618.421	23255.2
618.616	23847.06
618.811	23984.27
619.006	24641.67
619.201	25036.93
619.396	26056.82
619.591	25761.91
619.786	26759.27
619.981	27181.15
620.176	28541
620.371	28280.91
620.566	29364.29
620.761	29730.87
620.956	30695.47
621.151	30687.28
621.346	31402.02
621.541	31350.82
621.735	33071.11
621.93	33054.73
622.125	33724.41
622.32	34054.14
622.515	35516.39
622.709	35608.54
622.904	36581.33
623.099	36495.32
623.294	37765.06
623.488	38148.03
623.683	38694.83
623.878	38979.5
624.072	40165.28
624.267	40873.87
624.462	41392.01
624.656	41291.66
624.851	42700.66
625.046	43413.35
625.24	43796.32
625.435	43761.51
625.629	45410.12
625.824	45133.65
626.018	45631.3
626.213	45457.23
626.407	47130.42
626.602	47226.67
626.796	48117.54
626.991	48084.77
627.185	48989.97
627.38	49071.89
627.574	48897.81
627.768	48938.77
627.963	50011.91
628.157	49905.41
628.352	50323.2
628.546	49438.48
628.74	50937.59
628.935	49723.15
629.129	50654.97
629.323	49542.92
629.517	49940.23
629.712	49350.41
629.906	49456.91
630.1	48561.95
630.294	48848.66
630.489	48144.16
630.683	47701.8
630.877	46329.66
631.071	46239.55
631.265	45821.76
631.459	44543.83
631.653	43298.67
631.848	42952.56
632.042	41828.23
632.236	40796.05
632.43	39309.22
632.624	39288.74
632.818	37644.23
633.012	36653.01
633.206	35364.84
633.4	34717.68
633.594	33228.8
633.788	32210.96
633.982	31186.98
634.176	30283.83
634.369	28872.78
634.563	28180.56
634.757	26763.37
634.951	26073.2
635.145	25407.61
635.339	24062.1
635.533	23292.06
635.726	22436.01
635.92	21278.91
636.114	20377.8
636.308	19638.48
636.501	19058.91
636.695	18252.01
636.889	17402.1
637.083	16634.11
637.276	16300.3
637.47	15556.88
637.664	14819.61
637.857	14264.61
638.051	13809.97
638.244	13181.24
638.438	12722.49
638.632	12069.19
638.825	11606.35
639.019	11581.78
639.212	10660.19
639.406	10312.03
639.599	10131.81
639.793	9785.71
639.986	8911.22
640.18	9042.29
640.373	8614.27
640.567	8110.47
640.76	7983.49
640.954	7483.79
641.147	7287.18
641.34	6992.28
641.534	6767
641.727	6379.93
641.92	6670.75
642.114	6142.37
642.307	5761.45
642.5	5427.63
642.694	5286.32
642.887	5214.64
643.08	5042.61
643.273	4764.09
643.467	4925.88
643.66	4479.42
643.853	4067.78
644.046	4125.12
644.239	4045.25
644.432	3826.12
644.626	3566.03
644.819	3287.5
645.012	3430.86
645.205	3500.49
645.398	3154.38
645.591	3111.38
645.784	2906.58
645.977	2761.17
646.17	2677.21
646.363	2599.38
646.556	2486.75
646.749	2388.44
646.942	2214.37
647.135	2240.99
647.328	2218.46
647.521	2212.32
647.714	1831.4
647.907	1937.89
648.099	2009.57
648.292	2011.62
648.485	1808.87
648.678	1651.17
648.871	1708.52
649.064	1612.26
649.256	1407.47
649.449	1249.77
649.642	1210.86
649.835	1421.8
650.027	1163.76
650.22	1190.38
650.413	1280.49
650.605	1241.58
650.798	1145.33
650.991	1022.45
651.183	1188.33
651.376	1108.46
651.568	1028.59
651.761	823.8
651.954	1124.85
652.146	930.29
652.339	883.19
652.531	864.75
652.724	838.13
652.916	809.46
653.109	479.74
653.301	719.35
653.494	946.67
653.686	801.27
653.879	715.25
654.071	791.03
654.263	678.39
654.456	727.54
654.648	604.66
654.84	588.28
655.033	588.28
655.225	834.04
655.417	264.7
655.61	553.46
655.802	727.54
655.994	926.19
656.186	352.76
656.379	541.18
656.571	485.88
656.763	453.11
656.955	399.87
657.148	408.06
657.34	725.49
657.532	457.21
657.724	274.94
657.916	336.38
658.108	590.33
658.3	614.9
658.492	424.44
658.684	238.08
658.876	602.61
659.068	301.56
659.26	160.25
659.452	231.93
659.644	461.3
659.836	702.97
660.028	260.6
660.22	264.7
660.412	410.11
660.604	309.76
660.796	274.94
660.988	176.64
661.18	416.25
661.372	379.39
661.563	299.52
661.755	117.25
661.947	301.56
662.139	346.62
662.331	285.18
662.522	147.97
662.714	268.8
662.906	186.88
663.097	109.05
663.289	35.33
663.481	162.3
663.673	301.56
663.864	168.45
664.056	160.25
664.247	248.32
664.439	438.78
664.631	74.24
664.822	207.36
665.014	430.59
665.205	186.88
665.397	90.62
665.588	100.86
665.78	299.52
665.971	315.9
666.163	47.62
666.354	10.75
666.546	111.1
666.737	201.21
666.929	33.28
667.12	104.96
667.311	334.33
667.503	209.4
667.694	154.11
667.885	10.75
668.077	324.09
668.268	154.11
668.459	98.81
668.651	154.11
668.842	279.04
669.033	111.1
669.224	-75.26
669.416	348.67
669.607	190.97
669.798	111.1
669.989	-93.69
670.18	39.42
670.371	326.14
670.563	102.91
670.754	174.59
670.945	37.38
671.136	389.63
671.327	47.62
671.518	53.76
671.709	47.62
671.9	356.86
672.091	461.3
672.282	61.95
672.473	-54.78
672.664	121.34
672.855	223.74
673.046	14.85
673.237	115.2
673.428	270.84
673.619	344.57
673.809	-40.45
674	10.75
674.191	420.35
674.382	143.87
674.573	80.38
674.764	-5.63
674.954	408.06
675.145	102.91
675.336	-103.93
675.527	-9.73
675.717	182.78
675.908	203.26
676.099	-17.92
676.289	-42.5
676.48	10.75
676.671	145.92
676.861	-52.74
677.052	-11.78
677.243	172.54
677.433	43.52
677.624	-28.16
677.814	35.33
678.005	96.77
678.195	301.56
678.386	6.66
678.576	-67.07
678.767	14.85
678.957	98.81
679.148	61.95
679.338	39.42
679.529	291.32
679.719	84.48
679.909	100.86
680.1	23.04
680.29	184.83
680.481	-3.58
680.671	12.8
680.861	-73.21
681.052	285.18
681.242	59.9
681.432	64
681.622	-28.16
681.813	-65.02
682.003	143.87
682.193	6.66
682.383	-19.97
682.573	80.38
682.764	66.05
682.954	-17.92
683.144	225.79
683.334	152.06
683.524	104.96
683.714	29.18
683.904	-1.54
684.094	72.19
684.284	152.06
684.474	12.8
684.664	16.9
684.854	172.54
685.044	129.53
685.234	-22.02
685.424	-19.97
685.614	-30.21
685.804	363
685.994	14.85
686.184	94.72
686.374	272.89
686.564	143.87
686.753	27.14
686.943	-79.36
687.133	61.95
687.323	125.44
687.513	12.8
687.702	-17.92
687.892	47.62
688.082	260.6
688.272	-24.06
688.461	23.04
688.651	332.28
688.841	178.69
689.03	-83.45
689.22	29.18
689.41	238.08
689.599	238.08
689.789	-28.16
689.979	174.59
690.168	174.59
690.358	266.75
690.547	-30.21
690.737	-22.02
690.926	260.6
691.116	211.45
691.305	53.76
691.495	-13.82
691.684	45.57
691.874	45.57
692.063	-75.26
692.252	47.62
692.442	356.86
692.631	158.21
692.82	-58.88
693.01	102.91
693.199	297.47
693.388	211.45
693.578	39.42
693.767	80.38
693.956	332.28
694.146	158.21
694.335	-13.82
694.524	-38.4
694.713	299.52
694.902	197.12
695.092	-50.69
695.281	35.33
695.47	152.06
695.659	109.05
695.848	72.19
696.037	-19.97
696.226	320
696.415	266.75
696.604	203.26
696.793	18.94
696.982	215.55
697.171	387.58
697.36	-126.46
697.549	-54.78
697.738	-44.54
697.927	100.86
698.116	-124.41
698.305	57.86
698.494	311.8
698.683	174.59
698.872	78.33
699.061	-71.17
699.25	186.88
699.438	205.31
699.627	-17.92
699.816	211.45
700.005	33.28
700.193	33.28
700.382	68.09
700.571	27.14
700.76	268.8
700.948	307.71
701.137	-44.54
701.326	162.3
701.514	96.77
701.703	285.18
701.892	53.76
702.08	33.28
702.269	229.88
702.457	193.02
702.646	29.18
702.834	-116.22
703.023	383.48
703.212	348.67
703.4	23.04
703.589	-1.54
703.777	76.29
703.965	78.33
704.154	-99.84
704.342	-77.31
704.531	176.64
704.719	184.83
704.907	31.23
705.096	-136.7
705.284	100.86
705.472	150.01
705.661	55.81
705.849	-30.21
706.037	442.87
706.226	268.8
706.414	53.76
706.602	-62.98
706.79	236.03
706.979	70.14
707.167	39.42
707.355	-101.89
707.543	231.93
707.731	219.64
707.919	-13.82
708.107	-99.84
708.296	195.07
708.484	113.15
708.672	61.95
708.86	2.56
709.048	260.6
709.236	23.04
709.424	-26.11
709.612	59.9
709.8	-34.3
709.988	104.96
710.176	29.18
710.364	55.81
710.551	205.31
710.739	145.92
710.927	-132.61
711.115	14.85
711.303	352.76
711.491	268.8
711.679	-46.59
711.866	12.8
712.054	121.34
712.242	162.3
712.43	39.42
712.617	45.57
712.805	305.66
712.993	227.84
713.181	-118.27
713.368	-38.4
713.556	178.69
713.744	39.42
713.931	6.66
714.119	102.91
714.306	170.49
714.494	86.53
714.682	18.94
714.869	-40.45
715.057	174.59
715.244	-75.26
715.432	35.33
715.619	-132.61
715.807	160.25
715.994	-1.54
716.182	-79.36
716.369	102.91
716.556	211.45
716.744	-67.07
716.931	-83.45
717.119	35.33
717.306	178.69
717.493	170.49
717.681	-50.69
717.868	-77.31
718.055	223.74
718.242	141.82
718.43	-124.41
718.617	39.42
718.804	88.57
718.991	391.67
719.179	-95.74
719.366	-13.82
719.553	190.97
719.74	178.69
719.927	-175.61
720.114	72.19
720.301	31.23
720.488	23.04
720.676	-161.28
720.863	154.11
721.05	449.02
721.237	178.69
721.424	45.57
721.611	-56.83
721.798	-48.64
721.985	-40.45
722.172	-17.92
722.358	-36.35
722.545	281.08
722.732	233.98
722.919	127.49
723.106	-26.11
723.293	72.19
723.48	182.78
723.667	-22.02
723.853	39.42
724.04	199.16
724.227	309.76
724.414	-93.69
724.6	16.9
724.787	326.14
724.974	412.15
725.161	137.73
725.347	-159.23
725.534	162.3
725.72	215.55
725.907	39.42
726.094	-26.11
726.28	20.99
726.467	113.15
726.653	-120.32
726.84	-28.16
727.027	276.99
727.213	133.63
727.4	113.15
727.586	-58.88
727.773	174.59
727.959	170.49
728.145	59.9
728.332	-60.93
728.518	78.33
728.705	219.64
728.891	-50.69
729.077	-75.26
729.264	2.56
729.45	150.01
729.636	-28.16
729.823	-36.35
730.009	252.41
730.195	244.22
730.382	12.8
730.568	-44.54
730.754	176.64
730.94	12.8
731.126	-26.11
731.313	-42.5
731.499	121.34
731.685	68.09
731.871	92.67
732.057	2.56
732.243	293.37
732.429	203.26
732.615	94.72
732.801	-38.4
732.987	117.25
733.173	127.49
733.359	-95.74
733.545	109.05
733.731	141.82
733.917	221.69
734.103	31.23
734.289	145.92
734.475	4.61
734.661	324.09
734.847	51.71
735.033	-77.31
735.219	295.42
735.404	154.11
735.59	-69.12
735.776	-65.02
735.962	184.83
736.148	227.84
736.333	80.38
736.519	88.57
736.705	227.84
736.89	113.15
737.076	-34.3
737.262	-79.36
737.447	68.09
737.633	76.29
737.819	64
738.004	-60.93
738.19	150.01
738.375	332.28
738.561	53.76
738.747	-26.11
738.932	-22.02
739.118	313.85
739.303	86.53
739.489	10.75
739.674	129.53
739.859	-24.06
740.045	-28.16
740.23	-5.63
740.416	-134.65
740.601	166.4
740.786	20.99
740.972	-15.87
741.157	102.91
741.342	68.09
741.528	-134.65
741.713	43.52
741.898	121.34
742.084	246.27
742.269	23.04
742.454	-38.4
742.639	272.89
742.824	205.31
743.01	125.44
743.195	45.57
743.38	225.79
743.565	129.53
743.75	23.04
743.935	35.33
744.12	305.66
744.305	25.09
744.49	47.62
744.675	68.09
744.86	164.35
745.045	350.71
745.23	-108.03
745.415	-11.78
745.6	342.52
745.785	23.04
745.97	55.81
746.155	51.71
746.34	342.52
746.525	258.56
746.71	29.18
746.895	-75.26
747.079	49.66
747.264	170.49
747.449	113.15
747.634	45.57
747.819	246.27
748.003	129.53
748.188	-19.97
748.373	29.18
748.557	285.18
748.742	285.18
748.927	0.51
749.111	35.33
749.296	184.83
749.481	166.4
749.665	80.38
749.85	-28.16
750.034	211.45
750.219	332.28
750.404	-97.79
750.588	-58.88
750.773	53.76
750.957	182.78
751.141	-50.69
751.326	102.91
751.51	12.8
751.695	184.83
751.879	-9.73
752.064	141.82
752.248	80.38
752.432	399.87
752.617	14.85
752.801	104.96
752.985	133.63
753.17	360.95
753.354	-99.84
753.538	-44.54
753.722	127.49
753.907	137.73
754.091	-148.99
754.275	64
754.459	47.62
754.643	96.77
754.828	37.38
755.012	-99.84
755.196	-3.58
755.38	283.13
755.564	31.23
755.748	86.53
755.932	291.32
756.116	193.02
756.3	33.28
756.484	-67.07
756.668	301.56
756.852	-42.5
757.036	-34.3
757.22	27.14
757.404	129.53
757.588	156.16
757.772	51.71
757.956	6.66
758.14	334.33
758.323	12.8
758.507	72.19
758.691	-128.51
758.875	285.18
759.059	324.09
759.242	-130.56
759.426	137.73
759.61	166.4
759.794	70.14
759.977	70.14
760.161	586.23
760.345	410.11
760.528	246.27
760.712	133.63
760.895	102.91
761.079	225.79
761.263	86.53
761.446	-54.78
761.63	-132.61
761.813	104.96
761.997	-50.69
762.18	-108.03
762.364	143.87
762.547	-26.11
762.731	162.3
762.914	125.44
763.098	-42.5
763.281	141.82
763.464	121.34
763.648	-11.78
763.831	-26.11
764.015	80.38
764.198	201.21
764.381	-9.73
764.564	-54.78
764.748	260.6
764.931	276.99
765.114	-67.07
765.297	37.38
765.481	53.76
765.664	215.55
765.847	-67.07
766.03	-15.87
766.213	-1.54
766.397	174.59
766.58	-108.03
766.763	78.33
766.946	164.35
767.129	88.57
767.312	-134.65
767.495	-54.78
767.678	82.43
767.861	133.63
768.044	-134.65
768.227	31.23
768.41	170.49
768.593	150.01
768.776	33.28
768.959	-65.02
769.142	293.37
769.324	107.01
769.507	-67.07
769.69	-28.16
769.873	236.03
770.056	311.8
770.239	-28.16
770.421	70.14
770.604	184.83
770.787	107.01
770.97	84.48
771.152	-22.02
771.335	117.25
771.518	43.52
771.7	-11.78
771.883	113.15
772.066	92.67
772.248	295.42
772.431	55.81
772.613	-3.58
772.796	137.73
772.978	262.65
773.161	64
773.343	-32.26
773.526	94.72
773.708	-46.59
773.891	-198.14
774.073	6.66
774.256	111.1
774.438	469.5
774.621	-60.93
774.803	51.71
774.985	137.73
775.168	297.47
775.35	-19.97
775.532	-7.68
775.715	133.63
775.897	209.4
776.079	-28.16
776.261	55.81
776.444	297.47
776.626	86.53
776.808	16.9
776.99	-146.94
777.173	195.07
777.355	170.49
777.537	-62.98
777.719	-7.68
777.901	186.88
778.083	102.91
778.265	31.23
778.447	39.42
778.629	-1.54
778.811	143.87
778.993	80.38
779.175	45.57
779.357	92.67
779.539	-44.54
779.721	31.23
779.903	-13.82
780.085	143.87
780.267	160.25
780.449	39.42
780.631	133.63
780.812	299.52
780.994	82.43
781.176	-7.68
781.358	-58.88
781.54	252.41
781.721	258.56
781.903	-32.26
782.085	6.66
782.267	254.46
782.448	-83.45
782.63	129.53
782.812	39.42
782.993	252.41
783.175	231.93
783.357	-69.12
783.538	125.44
783.72	-1.54
783.901	127.49
784.083	64
784.264	147.97
784.446	-1.54
784.627	-24.06
784.809	76.29
784.99	-28.16
785.172	182.78
785.353	47.62
785.535	35.33
785.716	-148.99
785.897	152.06
786.079	121.34
786.26	88.57
786.441	68.09
786.623	39.42
786.804	6.66
786.985	12.8
787.167	-50.69
787.348	129.53
787.529	29.18
787.71	-1.54
787.891	29.18
788.073	141.82
788.254	-50.69
788.435	156.16
788.616	25.09
788.797	37.38
788.978	88.57
789.159	-42.5
789.34	55.81
789.522	190.97
789.703	135.68
789.884	14.85
790.065	213.5
790.246	379.39
790.427	129.53
790.607	55.81
790.788	109.05
790.969	29.18
791.15	207.36
791.331	-1.54
791.512	78.33
791.693	23.04
791.874	113.15
792.054	150.01
792.235	51.71
792.416	57.86
792.597	64
792.778	113.15
792.958	-26.11
793.139	201.21
793.32	31.23
793.5	-99.84
793.681	150.01
793.862	145.92
794.042	133.63
794.223	-120.32
794.404	-73.21
794.584	-93.69
794.765	111.1
794.945	45.57
795.126	96.77
795.306	186.88
795.487	121.34
795.667	-75.26
795.848	-69.12
796.028	127.49
796.209	78.33
796.389	178.69
796.57	-52.74
796.75	2.56
796.93	64
797.111	-30.21
797.291	-46.59
797.471	150.01
797.652	113.15
797.832	-1.54
798.012	35.33
798.192	68.09
798.373	8.7
798.553	20.99
798.733	131.58
798.913	39.42
799.093	64
799.274	-58.88
799.454	45.57
799.634	244.22
799.814	203.26
799.994	2.56
800.174	141.82
800.354	150.01
800.534	-67.07
800.714	10.75
800.894	-62.98
801.074	-38.4
801.254	-13.82
801.434	186.88
801.614	-65.02
801.794	-1.54
801.974	5558.7
802.154	-26.11
802.334	104.96
802.514	-1.54
802.693	115.2
802.873	-132.61
803.053	27.14
803.233	121.34
803.413	152.06
803.592	-140.8
803.772	35.33
803.952	184.83
804.131	39.42
804.311	51.71
804.491	29.18
804.67	61.95
804.85	-1.54
805.03	55.81
805.209	174.59
805.389	125.44
805.568	121.34
805.748	20.99
805.928	-9.73
806.107	242.17
806.287	150.01
806.466	113.15
806.646	47.62
806.825	158.21
807.004	90.62
807.184	39.42
807.363	2.56
807.543	178.69
807.722	55.81
807.901	129.53
808.081	2.56
808.26	-77.31
808.439	84.48
808.619	-73.21
808.798	-67.07
808.977	227.84
809.156	244.22
809.336	80.38
809.515	20.99
809.694	-36.35
809.873	88.57
810.052	-62.98
810.231	199.16
810.411	137.73
810.59	246.27
810.769	14.85
810.948	174.59
811.127	-60.93
811.306	-7.68
811.485	-75.26
811.664	78.33
811.843	174.59
812.022	135.68
812.201	18.94
812.38	-128.51
812.559	102.91
812.737	88.57
812.916	-75.26
813.095	84.48
813.274	184.83
813.453	139.77
813.632	-5.63
813.811	113.15
813.989	-101.89
814.168	207.36
814.347	-110.08
814.526	-15.87
814.704	195.07
814.883	297.47
815.062	-163.33
815.24	2.56
815.419	-54.78
815.598	176.64
815.776	-189.95
815.955	-77.31
816.133	-120.32
816.312	154.11
816.49	-62.98
816.669	-13.82
816.847	49.66
817.026	147.97
817.204	-81.41
817.383	10.75
817.561	23.04
817.74	291.32
817.918	94.72
818.097	47.62
818.275	4.61
818.453	141.82
818.632	14.85
818.81	55.81
818.988	39.42
819.167	64
819.345	51.71
819.523	-36.35
819.701	174.59
819.879	211.45
820.058	76.29
820.236	-42.5
820.414	195.07
820.592	88.57
820.77	-36.35
820.948	-34.3
821.127	121.34
821.305	178.69
821.483	-165.37
821.661	12.8
821.839	205.31
822.017	-48.64
822.195	-108.03
822.373	-83.45
822.551	107.01
822.729	137.73
822.907	-28.16
823.085	84.48
823.262	176.64
823.44	27.14
823.618	98.81
823.796	-67.07
823.974	121.34
824.152	-34.3
824.329	20.99
824.507	70.14
824.685	254.46
824.863	86.53
825.04	-40.45
825.218	-3.58
825.396	121.34
825.574	184.83
825.751	2.56
825.929	-17.92
826.107	-67.07
826.284	162.3
826.462	-112.13
826.639	-77.31
826.817	-24.06
826.994	127.49
827.172	-126.46
827.349	78.33
827.527	111.1
827.704	55.81
827.882	205.31
828.059	-58.88
828.237	72.19
828.414	209.4
828.591	-210.43
828.769	2.56
828.946	43.52
829.124	233.98
829.301	117.25
829.478	-58.88
829.655	141.82
829.833	59.9
830.01	-259.58
830.187	129.53
830.364	160.25
830.542	166.4
830.719	23.04
830.896	80.38
831.073	162.3
831.25	195.07
831.427	-144.89
831.604	-26.11
831.782	12.8
831.959	150.01
832.136	68.09
832.313	80.38
832.49	129.53
832.667	100.86
832.844	-101.89
833.021	184.83
833.198	186.88
833.374	133.63
833.551	-3.58
833.728	-75.26
833.905	207.36
834.082	-85.5
834.259	104.96
834.436	88.57
834.612	-3.58
834.789	317.95
834.966	70.14
835.143	-19.97
835.319	6.66
835.496	141.82
835.673	-19.97
835.85	90.62
836.026	236.03
836.203	195.07
836.38	-103.93
836.556	2.56
836.733	133.63
836.909	236.03
837.086	-17.92
837.262	-198.14
837.439	37.38
837.616	-34.3
837.792	6.66
837.968	-42.5
838.145	-44.54
838.321	109.05
838.498	-26.11
838.674	129.53
838.851	150.01
839.027	80.38
839.203	-1.54
839.38	147.97
839.556	66.05
839.732	215.55
839.909	-38.4
840.085	16.9
840.261	109.05
840.437	119.29
840.614	-62.98
840.79	43.52
840.966	258.56
841.142	178.69
841.318	55.81
841.494	-89.6
841.671	233.98
841.847	-13.82
842.023	-148.99
842.199	-5.63
842.375	399.87
842.551	-89.6
842.727	-36.35
842.903	76.29
843.079	45.57
843.255	285.18
843.431	-120.32
843.607	115.2
843.783	-157.18
843.959	215.55
844.134	-9.73
844.31	135.68
844.486	-11.78
844.662	29.18
844.838	12.8
845.013	-67.07
845.189	303.61
845.365	104.96
845.541	-3.58
845.716	145.92
845.892	375.29
846.068	76.29
846.244	29.18
846.419	-26.11
846.595	59.9
846.77	-58.88
846.946	113.15
847.122	23.04
847.297	86.53
847.473	428.54
847.648	-112.13
847.824	0.51
847.999	-183.81
848.175	104.96
848.35	143.87
848.526	195.07
848.701	358.91
848.876	184.83
849.052	276.99
849.227	27.14
849.403	129.53
849.578	178.69
849.753	23.04
849.929	10.75
850.104	29.18
850.279	145.92
850.454	8.7
850.63	113.15
850.805	135.68
850.98	127.49
851.155	72.19
851.33	133.63
851.505	-1.54
851.681	219.64
851.856	-26.11
852.031	-17.92
852.206	244.22
852.381	-15.87
852.556	37.38
852.731	-120.32
852.906	305.66
853.081	166.4
853.256	236.03
853.431	-19.97
853.606	131.58
853.781	29.18
853.956	-148.99
854.131	-7.68
854.305	23.04
854.48	66.05
854.655	-99.84
854.83	33.28
855.005	133.63
855.18	240.12
855.354	-69.12
855.529	-58.88
855.704	121.34
855.879	205.31
856.053	-134.65
856.228	39.42
856.403	23.04
856.577	340.47
856.752	-140.8
856.926	14.85
857.101	184.83
857.276	47.62
857.45	82.43
857.625	233.98
857.799	178.69
857.974	143.87
858.148	-155.13
858.323	49.66
858.497	80.38
858.672	-5.63
858.846	-19.97
859.02	57.86
859.195	0.51
859.369	156.16
859.543	150.01
859.718	84.48
859.892	190.97
860.066	236.03
860.241	-46.59
860.415	-79.36
860.589	182.78
860.763	113.15
860.938	78.33
861.112	4.61
861.286	104.96
861.46	217.6
861.634	78.33
861.808	-85.5
861.982	25.09
862.157	68.09
862.331	-34.3
862.505	-122.37
862.679	59.9
862.853	104.96
863.027	53.76
863.201	88.57
863.375	27.14
863.549	131.58
863.722	143.87
863.896	96.77
864.07	61.95
864.244	92.67
864.418	55.81
864.592	6.66
864.766	135.68
864.939	152.06
865.113	-40.45
865.287	195.07
865.461	94.72
865.634	158.21
865.808	20.99
865.982	-69.12
866.156	-1.54
866.329	-26.11
866.503	8.7
866.676	121.34
866.85	211.45
867.024	47.62
867.197	141.82
867.371	-1.54
867.544	256.51
867.718	-146.94
867.891	170.49
868.065	-69.12
868.238	195.07
868.412	217.6
868.585	10.75
868.759	72.19
868.932	68.09
869.105	-116.22
869.279	154.11
869.452	-91.65
869.625	256.51
869.799	70.14
869.972	-60.93
870.145	-11.78
870.319	350.71
870.492	-32.26
870.665	43.52
870.838	-9.73
871.011	-136.7
871.185	78.33
871.358	113.15
871.531	182.78
871.704	-11.78
871.877	72.19
872.05	-105.98
872.223	10.75
872.396	322.04
872.569	248.32
872.742	-128.51
872.915	129.53
873.088	119.29
873.261	45.57
873.434	158.21
873.607	47.62
873.78	397.82
873.953	-81.41
874.126	104.96
874.299	98.81
874.471	100.86
874.644	141.82
874.817	59.9
874.99	256.51
875.163	96.77
875.335	170.49
875.508	-28.16
875.681	154.11
875.853	111.1
876.026	182.78
876.199	94.72
876.371	-50.69
876.544	203.26
876.717	139.77
876.889	35.33
877.062	133.63
877.234	-44.54
877.407	92.67
877.579	20.99
877.752	66.05
877.924	276.99
878.097	197.12
878.269	-34.3
878.442	92.67
878.614	307.71
878.786	113.15
878.959	-118.27
879.131	72.19
879.303	-116.22
879.476	199.16
879.648	133.63
879.82	-13.82
879.993	55.81
880.165	64
880.337	-101.89
880.509	80.38
880.681	-89.6
880.854	-19.97
881.026	141.82
881.198	64
881.37	70.14
881.542	119.29
881.714	-26.11
881.886	-17.92
882.058	178.69
882.23	211.45
882.402	96.77
882.574	121.34
882.746	236.03
882.918	315.9
883.09	111.1
883.262	10.75
883.434	184.83
883.606	-71.17
883.778	59.9
883.95	45.57
884.122	86.53
884.293	334.33
884.465	8.7
884.637	94.72
884.809	23.04
884.98	248.32
885.152	121.34
885.324	133.63
885.496	43.52
885.667	176.64
885.839	-48.64
886.011	-75.26
886.182	274.94
886.354	231.93
886.525	168.45
886.697	-54.78
886.869	-42.5
887.04	119.29
887.212	250.36
887.383	137.73
887.555	238.08
887.726	37.38
887.897	-60.93
888.069	113.15
888.24	322.04
888.412	111.1
888.583	51.71
888.754	-22.02
888.926	-101.89
889.097	61.95
889.268	-81.41
889.44	-60.93
889.611	-22.02
889.782	12.8
889.953	-60.93
890.125	72.19
890.296	-30.21
890.467	96.77
890.638	-50.69
890.809	47.62
890.98	78.33
891.151	190.97
891.323	207.36
891.494	-126.46
891.665	219.64
891.836	119.29
892.007	64
892.178	10.75
892.349	129.53
892.52	-5.63
892.691	-1.54
892.862	20.99
893.032	-120.32
893.203	137.73
893.374	14.85
893.545	55.81
893.716	61.95
893.887	260.6
894.057	12.8
894.228	14.85
894.399	133.63
894.57	342.52
894.74	88.57
894.911	152.06
895.082	184.83
895.253	55.81
895.423	84.48
895.594	186.88
895.764	236.03
895.935	-46.59
896.106	66.05
896.276	-67.07
896.447	238.08
896.617	80.38
896.788	-26.11
896.958	-77.31
897.129	176.64
897.299	12.8
897.47	213.5
897.64	20.99
897.81	29.18
897.981	281.08
898.151	-7.68
898.322	51.71
898.492	340.47
898.662	-44.54
898.832	35.33
899.003	-7.68
899.173	160.25
899.343	100.86
899.513	-9.73
