Data from USB4F104151__74__12-36-45-894.txt Node

Date: Fri Mar 14 12:36:45 EDT 2025
User: louis
Spectrometer: USB4F10415
Trigger mode: 4
Integration Time (sec): 2.000000E-2
Scans to average: 1
Electric dark correction enabled: true
Nonlinearity correction enabled: false
Boxcar width: 0
XAxis mode: Wavelengths
Number of Pixels in Spectrum: 3648
>>>>>Begin Spectral Data<<<<<
178.204	-43.52
178.424	-43.52
178.644	-43.52
178.864	-88.57
179.084	-41.47
179.304	-41.47
179.524	52.74
179.744	-31.23
179.964	-23.04
180.184	-10.75
180.404	-31.23
180.624	-41.47
180.844	95.74
181.064	-37.38
181.283	17.92
181.503	32.26
181.723	17.92
181.943	-16.9
182.163	36.35
182.383	1.54
182.602	56.83
182.822	-6.66
183.042	19.97
183.262	50.69
183.482	13.82
183.701	9.73
183.921	22.02
184.141	-4.61
184.361	77.31
184.58	-20.99
184.8	52.74
185.02	3.58
185.239	-33.28
185.459	-31.23
185.679	62.98
185.898	22.02
186.118	5.63
186.338	85.5
186.557	50.69
186.777	77.31
186.997	-8.7
187.216	40.45
187.436	58.88
187.655	73.21
187.875	32.26
188.095	56.83
188.314	116.22
188.534	32.26
188.753	1.54
188.973	50.69
189.192	17.92
189.412	-2.56
189.631	75.26
189.851	17.92
190.07	28.16
190.29	-16.9
190.509	83.45
190.729	1.54
190.948	91.65
191.168	144.89
191.387	7.68
191.607	-43.52
191.826	40.45
192.045	-39.42
192.265	15.87
192.484	75.26
192.704	26.11
192.923	17.92
193.142	116.22
193.362	-20.99
193.581	56.83
193.8	56.83
194.02	95.74
194.239	26.11
194.458	11.78
194.678	13.82
194.897	54.78
195.116	7.68
195.335	50.69
195.555	32.26
195.774	73.21
195.993	65.02
196.212	60.93
196.432	-4.61
196.651	22.02
196.87	7.68
197.089	93.69
197.308	83.45
197.528	-23.04
197.747	5.63
197.966	30.21
198.185	-31.23
198.404	-6.66
198.623	58.88
198.842	36.35
199.062	28.16
199.281	28.16
199.5	34.3
199.719	60.93
199.938	19.97
200.157	99.84
200.376	40.45
200.595	73.21
200.814	-10.75
201.033	99.84
201.252	24.06
201.471	32.26
201.69	69.12
201.909	40.45
202.128	69.12
202.347	56.83
202.566	-20.99
202.785	38.4
203.004	71.17
203.223	30.21
203.442	38.4
203.661	75.26
203.879	40.45
204.098	50.69
204.317	40.45
204.536	81.41
204.755	56.83
204.974	87.55
205.193	3.58
205.411	32.26
205.63	42.5
205.849	26.11
206.068	-2.56
206.287	79.36
206.505	67.07
206.724	110.08
206.943	46.59
207.162	52.74
207.381	26.11
207.599	3.58
207.818	50.69
208.037	34.3
208.255	19.97
208.474	36.35
208.693	1.54
208.911	-8.7
209.13	60.93
209.349	-8.7
209.567	120.32
209.786	-35.33
210.005	52.74
210.223	-0.51
210.442	-14.85
210.661	40.45
210.879	38.4
211.098	65.02
211.316	-25.09
211.535	67.07
211.753	50.69
211.972	50.69
212.191	40.45
212.409	67.07
212.628	-0.51
212.846	69.12
213.065	15.87
213.283	-8.7
213.502	95.74
213.72	-8.7
213.938	17.92
214.157	32.26
214.375	5.63
214.594	60.93
214.812	34.3
215.031	-20.99
215.249	19.97
215.467	81.41
215.686	26.11
215.904	89.6
216.122	110.08
216.341	26.11
216.559	87.55
216.778	67.07
216.996	52.74
217.214	13.82
217.432	26.11
217.651	75.26
217.869	58.88
218.087	30.21
218.306	-4.61
218.524	34.3
218.742	-2.56
218.96	22.02
219.179	28.16
219.397	42.5
219.615	-2.56
219.833	65.02
220.051	46.59
220.27	67.07
220.488	79.36
220.706	44.54
220.924	46.59
221.142	50.69
221.36	-2.56
221.578	83.45
221.796	11.78
222.015	-29.18
222.233	71.17
222.451	28.16
222.669	-41.47
222.887	73.21
223.105	-33.28
223.323	52.74
223.541	44.54
223.759	32.26
223.977	7.68
224.195	73.21
224.413	-12.8
224.631	62.98
224.849	38.4
225.067	79.36
225.285	24.06
225.503	1.54
225.721	-45.57
225.939	26.11
226.157	-8.7
226.375	32.26
226.592	50.69
226.81	38.4
227.028	22.02
227.246	73.21
227.464	36.35
227.682	32.26
227.9	-2.56
228.117	-29.18
228.335	60.93
228.553	3.58
228.771	-20.99
228.989	89.6
229.206	22.02
229.424	26.11
229.642	28.16
229.86	3.58
230.077	-16.9
230.295	5.63
230.513	69.12
230.731	114.17
230.948	75.26
231.166	56.83
231.384	28.16
231.601	60.93
231.819	69.12
232.037	9.73
232.254	-2.56
232.472	15.87
232.689	26.11
232.907	110.08
233.125	56.83
233.342	62.98
233.56	50.69
233.777	1.54
233.995	65.02
234.213	58.88
234.43	22.02
234.648	40.45
234.865	22.02
235.083	58.88
235.3	50.69
235.518	132.61
235.735	110.08
235.953	97.79
236.17	-14.85
236.388	-8.7
236.605	79.36
236.822	85.5
237.04	17.92
237.257	-4.61
237.475	-37.38
237.692	81.41
237.909	101.89
238.127	83.45
238.344	77.31
238.562	34.3
238.779	-18.94
238.996	-12.8
239.214	60.93
239.431	15.87
239.648	22.02
239.865	26.11
240.083	32.26
240.3	89.6
240.517	19.97
240.735	65.02
240.952	9.73
241.169	110.08
241.386	40.45
241.603	85.5
241.821	38.4
242.038	79.36
242.255	108.03
242.472	62.98
242.689	46.59
242.907	65.02
243.124	91.65
243.341	-8.7
243.558	-39.42
243.775	-8.7
243.992	79.36
244.209	11.78
244.426	11.78
244.643	54.78
244.86	22.02
245.078	46.59
245.295	44.54
245.512	26.11
245.729	62.98
245.946	-12.8
246.163	75.26
246.38	48.64
246.597	58.88
246.814	40.45
247.031	5.63
247.248	60.93
247.464	95.74
247.681	40.45
247.898	17.92
248.115	65.02
248.332	1.54
248.549	7.68
248.766	75.26
248.983	28.16
249.2	32.26
249.417	77.31
249.633	108.03
249.85	19.97
250.067	50.69
250.284	15.87
250.501	24.06
250.717	13.82
250.934	50.69
251.151	26.11
251.368	110.08
251.585	48.64
251.801	24.06
252.018	5.63
252.235	85.5
252.451	7.68
252.668	38.4
252.885	34.3
253.102	40.45
253.318	17.92
253.535	5.63
253.752	101.89
253.968	-16.9
254.185	48.64
254.401	60.93
254.618	71.17
254.835	-14.85
255.051	67.07
255.268	46.59
255.484	65.02
255.701	-57.86
255.917	24.06
256.134	-0.51
256.351	30.21
256.567	-0.51
256.784	22.02
257	-45.57
257.217	44.54
257.433	19.97
257.65	85.5
257.866	110.08
258.082	11.78
258.299	60.93
258.515	50.69
258.732	11.78
258.948	19.97
259.165	-16.9
259.381	87.55
259.597	5.63
259.814	79.36
260.03	89.6
260.246	-8.7
260.463	34.3
260.679	101.89
260.895	58.88
261.112	13.82
261.328	34.3
261.544	67.07
261.761	73.21
261.977	-2.56
262.193	26.11
262.409	3.58
262.626	81.41
262.842	85.5
263.058	-80.38
263.274	62.98
263.49	40.45
263.707	60.93
263.923	-2.56
264.139	46.59
264.355	17.92
264.571	175.61
264.787	-29.18
265.004	81.41
265.22	48.64
265.436	75.26
265.652	101.89
265.868	101.89
266.084	34.3
266.3	40.45
266.516	-70.14
266.732	56.83
266.948	38.4
267.164	83.45
267.38	85.5
267.596	126.46
267.812	62.98
268.028	48.64
268.244	1.54
268.46	22.02
268.676	40.45
268.892	42.5
269.108	-29.18
269.324	93.69
269.54	-4.61
269.756	71.17
269.972	48.64
270.188	52.74
270.403	17.92
270.619	95.74
270.835	-29.18
271.051	89.6
271.267	93.69
271.483	-0.51
271.698	62.98
271.914	91.65
272.13	48.64
272.346	54.78
272.562	34.3
272.777	-8.7
272.993	42.5
273.209	77.31
273.425	36.35
273.64	7.68
273.856	-18.94
274.072	58.88
274.287	87.55
274.503	7.68
274.719	26.11
274.934	3.58
275.15	30.21
275.366	44.54
275.581	26.11
275.797	15.87
276.012	69.12
276.228	87.55
276.444	48.64
276.659	83.45
276.875	17.92
277.09	-33.28
277.306	32.26
277.521	26.11
277.737	26.11
277.952	81.41
278.168	17.92
278.383	-33.28
278.599	56.83
278.814	54.78
279.03	93.69
279.245	24.06
279.461	17.92
279.676	60.93
279.892	65.02
280.107	69.12
280.322	13.82
280.538	-2.56
280.753	44.54
280.969	34.3
281.184	75.26
281.399	83.45
281.615	73.21
281.83	87.55
282.045	-4.61
282.26	62.98
282.476	69.12
282.691	112.13
282.906	77.31
283.122	36.35
283.337	65.02
283.552	99.84
283.767	-18.94
283.983	52.74
284.198	15.87
284.413	-10.75
284.628	1.54
284.843	34.3
285.058	71.17
285.274	30.21
285.489	105.98
285.704	56.83
285.919	-23.04
286.134	58.88
286.349	42.5
286.564	38.4
286.779	118.27
286.995	-45.57
287.21	3.58
287.425	138.75
287.64	-18.94
287.855	65.02
288.07	-2.56
288.285	34.3
288.5	46.59
288.715	95.74
288.93	22.02
289.145	26.11
289.36	24.06
289.575	19.97
289.79	15.87
290.004	60.93
290.219	67.07
290.434	22.02
290.649	17.92
290.864	17.92
291.079	28.16
291.294	-0.51
291.509	50.69
291.724	44.54
291.938	36.35
292.153	36.35
292.368	56.83
292.583	62.98
292.798	13.82
293.012	67.07
293.227	93.69
293.442	34.3
293.657	85.5
293.871	91.65
294.086	42.5
294.301	97.79
294.516	7.68
294.73	50.69
294.945	40.45
295.16	34.3
295.374	48.64
295.589	110.08
295.804	48.64
296.018	65.02
296.233	30.21
296.447	9.73
296.662	-41.47
296.877	30.21
297.091	65.02
297.306	36.35
297.52	81.41
297.735	93.69
297.949	67.07
298.164	15.87
298.378	50.69
298.593	36.35
298.807	-14.85
299.022	81.41
299.236	62.98
299.451	50.69
299.665	89.6
299.88	11.78
300.094	58.88
300.309	77.31
300.523	71.17
300.737	62.98
300.952	60.93
301.166	22.02
301.381	-18.94
301.595	36.35
301.809	44.54
302.024	-0.51
302.238	77.31
302.452	38.4
302.667	-10.75
302.881	151.04
303.095	69.12
303.309	46.59
303.524	30.21
303.738	52.74
303.952	-8.7
304.166	85.5
304.381	48.64
304.595	58.88
304.809	50.69
305.023	52.74
305.237	7.68
305.452	48.64
305.666	46.59
305.88	56.83
306.094	7.68
306.308	32.26
306.522	50.69
306.736	32.26
306.95	1.54
307.164	40.45
307.379	42.5
307.593	32.26
307.807	32.26
308.021	81.41
308.235	-0.51
308.449	60.93
308.663	-10.75
308.877	71.17
309.091	85.5
309.305	116.22
309.519	28.16
309.733	85.5
309.947	19.97
310.161	122.37
310.374	38.4
310.588	50.69
310.802	52.74
311.016	-10.75
311.23	69.12
311.444	97.79
311.658	54.78
311.872	85.5
312.085	42.5
312.299	83.45
312.513	54.78
312.727	71.17
312.941	32.26
313.154	71.17
313.368	36.35
313.582	89.6
313.796	48.64
314.009	54.78
314.223	34.3
314.437	122.37
314.651	79.36
314.864	128.51
315.078	5.63
315.292	7.68
315.505	-4.61
315.719	42.5
315.933	110.08
316.146	42.5
316.36	22.02
316.573	34.3
316.787	-37.38
317.001	13.82
317.214	1.54
317.428	105.98
317.641	97.79
317.855	50.69
318.068	79.36
318.282	-0.51
318.495	159.23
318.709	-0.51
318.922	114.17
319.136	54.78
319.349	110.08
319.563	-8.7
319.776	110.08
319.99	60.93
320.203	67.07
320.417	5.63
320.63	114.17
320.843	89.6
321.057	-14.85
321.27	30.21
321.483	13.82
321.697	71.17
321.91	36.35
322.124	58.88
322.337	38.4
322.55	22.02
322.763	17.92
322.977	19.97
323.19	67.07
323.403	89.6
323.617	69.12
323.83	81.41
324.043	11.78
324.256	34.3
324.469	-8.7
324.683	1.54
324.896	9.73
325.109	67.07
325.322	5.63
325.535	13.82
325.748	67.07
325.962	24.06
326.175	130.56
326.388	77.31
326.601	28.16
326.814	62.98
327.027	67.07
327.24	71.17
327.453	67.07
327.666	42.5
327.879	24.06
328.092	99.84
328.305	132.61
328.518	38.4
328.731	50.69
328.944	40.45
329.157	48.64
329.37	44.54
329.583	79.36
329.796	87.55
330.009	22.02
330.222	58.88
330.435	71.17
330.648	-10.75
330.861	99.84
331.073	19.97
331.286	-0.51
331.499	34.3
331.712	60.93
331.925	77.31
332.138	103.93
332.35	114.17
332.563	-23.04
332.776	87.55
332.989	-18.94
333.202	24.06
333.414	28.16
333.627	-20.99
333.84	110.08
334.053	-12.8
334.265	46.59
334.478	40.45
334.691	118.27
334.903	46.59
335.116	1.54
335.329	79.36
335.541	71.17
335.754	101.89
335.966	71.17
336.179	48.64
336.392	38.4
336.604	83.45
336.817	73.21
337.029	138.75
337.242	54.78
337.454	124.41
337.667	7.68
337.88	60.93
338.092	85.5
338.305	65.02
338.517	30.21
338.729	69.12
338.942	165.37
339.154	17.92
339.367	1.54
339.579	103.93
339.792	114.17
340.004	83.45
340.217	15.87
340.429	34.3
340.641	1.54
340.854	17.92
341.066	-10.75
341.278	44.54
341.491	54.78
341.703	22.02
341.915	77.31
342.128	65.02
342.34	79.36
342.552	54.78
342.764	44.54
342.977	60.93
343.189	52.74
343.401	124.41
343.613	50.69
343.826	44.54
344.038	103.93
344.25	28.16
344.462	22.02
344.674	17.92
344.886	89.6
345.099	34.3
345.311	85.5
345.523	71.17
345.735	-4.61
345.947	-37.38
346.159	-29.18
346.371	79.36
346.583	62.98
346.795	153.09
347.007	65.02
347.219	112.13
347.431	118.27
347.643	-2.56
347.855	38.4
348.067	118.27
348.279	22.02
348.491	103.93
348.703	99.84
348.915	38.4
349.127	48.64
349.339	24.06
349.551	87.55
349.763	83.45
349.975	-8.7
350.187	1.54
350.399	42.5
350.61	79.36
350.822	-16.9
351.034	101.89
351.246	83.45
351.458	132.61
351.669	85.5
351.881	19.97
352.093	89.6
352.305	52.74
352.517	73.21
352.728	128.51
352.94	1.54
353.152	103.93
353.363	50.69
353.575	142.85
353.787	67.07
353.999	58.88
354.21	202.24
354.422	116.22
354.633	69.12
354.845	56.83
355.057	24.06
355.268	77.31
355.48	144.89
355.692	75.26
355.903	60.93
356.115	99.84
356.326	67.07
356.538	128.51
356.749	48.64
356.961	40.45
357.172	79.36
357.384	79.36
357.595	79.36
357.807	44.54
358.018	48.64
358.23	22.02
358.441	132.61
358.653	110.08
358.864	13.82
359.075	46.59
359.287	15.87
359.498	36.35
359.709	34.3
359.921	-27.14
360.132	42.5
360.344	79.36
360.555	40.45
360.766	38.4
360.977	62.98
361.189	50.69
361.4	67.07
361.611	3.58
361.823	56.83
362.034	89.6
362.245	67.07
362.456	93.69
362.667	105.98
362.879	79.36
363.09	44.54
363.301	9.73
363.512	22.02
363.723	89.6
363.935	36.35
364.146	108.03
364.357	65.02
364.568	89.6
364.779	69.12
364.99	48.64
365.201	-16.9
365.412	75.26
365.623	93.69
365.834	105.98
366.045	7.68
366.256	87.55
366.467	58.88
366.678	91.65
366.889	110.08
367.1	50.69
367.311	85.5
367.522	85.5
367.733	13.82
367.944	60.93
368.155	40.45
368.366	114.17
368.577	65.02
368.788	73.21
368.999	-10.75
369.209	54.78
369.42	122.37
369.631	159.23
369.842	28.16
370.053	122.37
370.264	30.21
370.474	46.59
370.685	60.93
370.896	52.74
371.107	81.41
371.317	67.07
371.528	58.88
371.739	24.06
371.95	28.16
372.16	71.17
372.371	60.93
372.582	60.93
372.792	124.41
373.003	-8.7
373.214	22.02
373.424	87.55
373.635	95.74
373.846	81.41
374.056	11.78
374.267	81.41
374.477	65.02
374.688	69.12
374.898	65.02
375.109	46.59
375.319	83.45
375.53	114.17
375.74	105.98
375.951	62.98
376.161	77.31
376.372	34.3
376.582	19.97
376.793	69.12
377.003	85.5
377.214	136.7
377.424	85.5
377.635	40.45
377.845	48.64
378.055	60.93
378.266	65.02
378.476	81.41
378.686	91.65
378.897	122.37
379.107	15.87
379.317	32.26
379.528	52.74
379.738	65.02
379.948	-37.38
380.158	54.78
380.369	159.23
380.579	99.84
380.789	15.87
380.999	40.45
381.21	122.37
381.42	89.6
381.63	110.08
381.84	116.22
382.05	40.45
382.261	155.13
382.471	91.65
382.681	157.18
382.891	99.84
383.101	1.54
383.311	110.08
383.521	122.37
383.731	103.93
383.941	110.08
384.151	118.27
384.361	110.08
384.571	73.21
384.781	73.21
384.991	148.99
385.201	157.18
385.411	-14.85
385.621	101.89
385.831	81.41
386.041	48.64
386.251	114.17
386.461	93.69
386.671	42.5
386.881	77.31
387.091	50.69
387.301	157.18
387.511	103.93
387.72	148.99
387.93	110.08
388.14	136.7
388.35	42.5
388.56	93.69
388.769	126.46
388.979	69.12
389.189	153.09
389.399	26.11
389.609	89.6
389.818	108.03
390.028	95.74
390.238	148.99
390.447	52.74
390.657	40.45
390.867	97.79
391.076	50.69
391.286	130.56
391.496	83.45
391.705	40.45
391.915	159.23
392.125	79.36
392.334	120.32
392.544	99.84
392.753	116.22
392.963	93.69
393.172	75.26
393.382	67.07
393.591	140.8
393.801	22.02
394.01	159.23
394.22	85.5
394.429	130.56
394.639	75.26
394.848	97.79
395.058	89.6
395.267	91.65
395.477	103.93
395.686	97.79
395.895	159.23
396.105	165.37
396.314	134.65
396.524	138.75
396.733	148.99
396.942	161.28
397.152	140.8
397.361	91.65
397.57	122.37
397.78	142.85
397.989	167.42
398.198	192
398.407	116.22
398.617	128.51
398.826	105.98
399.035	161.28
399.244	85.5
399.453	144.89
399.663	222.72
399.872	239.1
400.081	83.45
400.29	208.38
400.499	167.42
400.708	108.03
400.917	179.71
401.127	208.38
401.336	171.52
401.545	241.15
401.754	151.04
401.963	189.95
402.172	173.57
402.381	116.22
402.59	99.84
402.799	99.84
403.008	202.24
403.217	179.71
403.426	128.51
403.635	142.85
403.844	189.95
404.053	212.48
404.262	144.89
404.471	249.34
404.68	181.76
404.888	192
405.097	138.75
405.306	206.33
405.515	208.38
405.724	314.88
405.933	273.92
406.142	253.44
406.35	237.05
406.559	263.68
406.768	212.48
406.977	341.5
407.185	308.73
407.394	294.4
407.603	224.76
407.812	284.16
408.02	265.72
408.229	355.83
408.438	388.6
408.646	341.5
408.855	304.64
409.064	402.94
409.272	333.31
409.481	417.27
409.69	390.65
409.898	396.79
410.107	421.37
410.315	413.18
410.524	427.51
410.733	407.03
410.941	513.53
411.15	523.77
411.358	521.72
411.567	525.82
411.775	562.68
411.984	509.43
412.192	617.97
412.401	611.83
412.609	640.5
412.818	630.26
413.026	736.76
413.234	669.17
413.443	722.42
413.651	714.23
413.86	806.39
414.068	847.35
414.276	884.21
414.485	808.44
414.693	878.07
414.901	910.83
415.11	957.94
415.318	923.12
415.526	1029.62
415.734	1041.9
415.943	984.56
416.151	1091.06
416.359	1099.25
416.567	1203.69
416.776	1248.75
416.984	1271.28
417.192	1379.82
417.4	1347.05
417.608	1469.93
417.817	1426.92
418.025	1543.66
418.233	1525.22
418.441	1603.05
418.649	1689.06
418.857	1693.16
419.065	1736.17
419.273	1732.07
419.481	1799.65
419.689	2014.69
419.897	2061.79
420.105	2104.8
420.313	2162.14
420.521	2252.25
420.729	2272.73
420.937	2360.8
421.145	2432.47
421.353	2536.92
421.561	2639.32
421.769	2647.51
421.977	2819.54
422.185	2723.29
422.393	3003.86
422.601	3087.82
422.809	3196.37
423.017	3120.59
423.224	3261.9
423.432	3401.16
423.64	3325.39
423.848	3749.32
424.056	3644.87
424.263	3952.07
424.471	3861.96
424.679	3890.63
424.887	4117.95
425.094	4330.94
425.302	4412.86
425.51	4482.49
425.718	4652.47
425.925	4726.2
426.133	4965.81
426.341	5238.19
426.548	5334.45
426.756	5537.2
426.964	5410.22
427.171	5746.09
427.379	5901.73
427.586	5950.89
427.794	6153.63
428.001	6512.03
428.209	6868.38
428.417	6704.54
428.624	7032.21
428.832	7177.62
429.039	7060.88
429.247	7034.26
429.454	7904.65
429.662	8351.1
429.869	7808.39
430.076	8478.08
430.284	8107.4
430.491	8586.62
430.699	9098.61
430.906	8799.61
431.114	9115
431.321	9502.06
431.528	9823.59
431.736	10032.49
431.943	10866.01
432.15	10126.69
432.358	10394.98
432.565	11099.48
432.772	11062.62
432.979	11849.04
433.187	11941.19
433.394	11937.1
433.601	12770.62
433.808	12727.61
434.016	12717.37
434.223	13280.57
434.43	14255.4
434.637	13851.95
434.844	14839.07
435.052	14746.91
435.259	14863.65
435.466	15193.37
435.673	14728.48
435.88	15664.4
436.087	16540.93
436.294	16571.65
436.501	16278.79
436.708	16710.91
436.915	17270.01
437.122	18046.19
437.329	17816.82
437.537	18494.69
437.743	18742.5
437.95	18590.95
438.157	19520.73
438.364	20372.68
438.571	20143.31
438.778	20331.72
438.985	22293.68
439.192	21273.79
439.399	22267.05
439.606	21562.55
439.813	22719.65
440.02	23925.91
440.227	23798.93
440.433	23352.48
440.64	24392.84
440.847	23895.19
441.054	24595.59
441.261	26242.16
441.467	25949.3
441.674	26612.84
441.881	27393.12
442.088	27382.88
442.294	27272.29
442.501	27704.41
442.708	28585.04
442.914	29498.43
443.121	30751.79
443.328	30051.38
443.534	32007.19
443.741	31251.49
443.948	30686.25
444.154	33227.78
444.361	33070.09
444.568	33309.7
444.774	33074.18
444.981	33782.78
445.187	34397.17
445.394	36164.57
445.6	35478.5
445.807	38693.81
446.013	37221.32
446.22	37739.46
446.426	39257
446.633	39498.66
446.839	41055.12
447.046	39093.16
447.252	41466.76
447.459	41509.77
447.665	41270.15
447.871	43080.56
448.078	44931.92
448.284	42838.9
448.491	44057.44
448.697	45527.88
448.903	46723.9
449.11	46637.88
449.316	46062.4
449.522	46967.6
449.728	47881
449.935	48022.31
450.141	48098.08
450.347	48927.51
450.553	47837.99
450.76	48114.47
450.966	49885.96
451.172	49564.43
451.378	50617.08
451.584	49820.42
451.791	50285.31
451.997	50615.04
452.203	51604.2
452.409	51677.93
452.615	51182.32
452.821	49734.41
453.027	48874.26
453.233	51247.86
453.44	49484.56
453.646	49935.11
453.852	50479.87
454.058	51299.06
454.264	49623.82
454.47	50879.22
454.676	49253.14
454.882	51319.54
455.088	46633.78
455.294	47356.72
455.5	47887.14
455.705	48655.13
455.911	46727.99
456.117	45706.05
456.323	45529.93
456.529	43207.53
456.735	44782.42
456.941	43811.68
457.147	43080.56
457.352	41679.75
457.558	41188.24
457.764	41044.88
457.97	40659.86
458.176	39596.96
458.381	40018.85
458.587	37573.57
458.793	38220.73
458.999	36232.15
459.204	37934.01
459.41	37125.07
459.616	35029.99
459.821	34800.62
460.027	34714.61
460.233	33928.19
460.438	32320.53
460.644	32834.57
460.85	31253.54
461.055	31077.41
461.261	30784.55
461.466	28601.42
461.672	27513.95
461.878	29672.51
462.083	27579.48
462.289	27069.54
462.494	26825.83
462.7	25812.09
462.905	24992.9
463.111	25721.98
463.316	25814.13
463.522	25017.47
463.727	25293.95
463.932	25451.64
464.138	25228.42
464.343	25226.37
464.549	24466.57
464.754	25267.33
464.959	24986.75
465.165	25123.97
465.37	23551.13
465.575	23409.82
465.781	24106.13
465.986	24149.14
466.191	23413.91
466.397	22699.17
466.602	21982.38
466.807	22748.32
467.012	22609.06
467.218	22568.1
467.423	22279.34
467.628	22510.76
467.833	23442.59
468.038	22338.73
468.244	21834.93
468.449	22994.08
468.654	22002.86
468.859	21742.77
469.064	21585.08
469.269	20735.17
469.474	21007.55
469.679	21318.84
469.885	20866.24
470.09	21372.09
470.295	20724.93
470.5	20360.39
470.705	20413.64
470.91	20075.73
471.115	19971.28
471.32	20165.84
471.525	20131.02
471.73	19573.97
471.935	19686.61
472.139	18687.2
472.344	19047.65
472.549	19033.31
472.754	18709.73
472.959	18494.69
473.164	17972.46
473.369	17591.54
473.574	18302.18
473.778	18138.35
473.983	18445.54
474.188	17782
474.393	17239.29
474.598	17136.89
474.802	16940.29
475.007	16934.14
475.212	16725.25
475.417	16237.83
475.621	16196.87
475.826	16452.87
476.031	15922.45
476.235	15674.64
476.44	16061.71
476.645	15615.25
476.849	15705.36
477.054	15678.74
477.259	15246.62
477.463	15373.59
477.668	15064.35
477.872	15234.33
478.077	14959.9
478.282	14720.29
478.486	14525.73
478.691	14443.81
478.895	14314.79
479.1	14390.56
479.304	14013.74
479.509	13737.26
479.713	14038.31
479.918	13577.52
480.122	13421.88
480.326	13870.38
480.531	13823.28
480.735	13536.56
480.94	13479.22
481.144	13720.88
481.348	13348.15
481.553	13178.17
481.757	12938.55
481.961	13253.94
482.166	13462.83
482.37	13239.61
482.574	13040.95
482.778	12965.18
482.983	13294.9
483.187	13092.15
483.391	13176.12
483.595	13094.2
483.8	12969.27
484.004	13075.77
484.208	13059.38
484.412	13075.77
484.616	13053.24
484.821	13122.87
485.025	12637.5
485.229	13065.53
485.433	12946.75
485.637	13153.59
485.841	12899.64
486.045	12830.01
486.249	13112.63
486.453	12946.75
486.657	13038.91
486.861	13264.18
487.065	12770.62
487.269	12823.87
487.473	12666.17
487.677	13243.7
487.881	13008.19
488.085	12936.51
488.289	13151.54
488.493	12899.64
488.697	13382.96
488.901	13139.26
489.105	12926.27
489.309	13077.82
489.512	13104.44
489.716	13155.64
489.92	13108.54
490.124	13055.29
490.328	13315.38
490.531	13321.52
490.735	13557.04
490.939	13303.09
491.143	13313.33
491.346	13301.05
491.55	13641.01
491.754	13530.42
491.958	13540.66
492.161	13559.09
492.365	13767.98
492.569	13530.42
492.772	13700.4
492.976	13786.41
493.18	13962.54
493.383	13993.26
493.587	14026.03
493.79	14275.88
493.994	13999.4
494.197	14236.97
494.401	14193.96
494.605	14349.61
494.808	14777.63
495.012	14578.98
495.215	14654.75
495.419	14947.61
495.622	14783.77
495.825	15369.49
496.029	15142.17
496.232	15504.66
496.436	15273.24
496.639	15600.91
496.843	15641.87
497.046	15942.92
497.249	16149.77
497.453	16219.4
497.656	16280.84
497.859	16084.23
498.063	16469.25
498.266	16948.48
498.469	16977.15
498.673	16817.41
498.876	17337.59
499.079	17526
499.282	17439.99
499.485	17788.14
499.689	18076.91
499.892	17962.22
500.095	18222.31
500.298	18652.39
500.501	18451.69
500.705	18898.14
500.908	18998.49
501.111	19201.24
501.314	19621.08
501.517	19563.73
501.72	20184.27
501.923	20116.69
502.126	20493.51
502.329	20655.3
502.532	20667.59
502.735	20989.12
502.938	21380.28
503.141	21312.7
503.344	21806.26
503.547	21697.72
503.75	22109.36
503.953	22355.11
504.156	22371.5
504.359	22848.68
504.562	22514.86
504.765	23499.93
504.968	23805.08
505.17	23772.31
505.373	23757.97
505.576	24132.75
505.779	24558.73
505.982	24741
506.185	25070.72
506.387	25197.7
506.59	25480.32
506.793	25678.97
506.996	25986.16
507.198	26496.11
507.401	26266.74
507.604	26641.51
507.807	27214.94
508.009	27135.07
508.212	27704.41
508.415	27882.58
508.617	28236.88
508.82	28337.23
509.022	28355.66
509.225	28857.42
509.428	29146.18
509.63	29787.19
509.833	29572.16
510.035	30075.96
510.238	30139.44
510.44	30751.79
510.643	30854.19
510.845	31386.66
511.048	30921.77
511.25	31609.89
511.453	31671.32
511.655	33113.09
511.858	32676.88
512.06	32615.44
512.262	32967.69
512.465	33020.94
512.667	33446.91
512.87	33702.91
513.072	34151.41
513.274	34657.26
513.477	34984.94
513.679	35388.39
513.881	35687.39
514.084	36043.74
514.286	36076.51
514.488	36498.39
514.69	37235.66
514.893	37362.63
515.095	37305.29
515.297	37753.79
515.499	38050.75
515.701	38470.58
515.904	38712.24
516.106	39101.36
516.308	39195.56
516.51	39502.76
516.712	39924.64
516.914	40139.68
517.116	40792.98
517.318	40872.85
517.52	41155.47
517.722	41569.16
517.925	41581.45
518.127	42204.03
518.329	42480.5
518.531	42625.91
518.733	43211.63
518.935	43445.1
519.136	43402.09
519.338	44618.58
519.54	44426.07
519.742	45062.99
519.944	44870.48
520.146	45908.8
520.348	45890.37
520.55	46402.36
520.752	46207.81
520.954	47258.41
521.155	46414.65
521.357	47592.23
521.559	47764.26
521.761	48376.61
521.963	48380.7
522.164	48534.3
522.366	48909.08
522.568	49056.53
522.77	49380.11
522.971	49916.68
523.173	49591.05
523.375	49953.54
523.576	50313.98
523.778	50459.39
523.98	50842.36
524.181	50721.53
524.383	51178.23
524.584	51618.54
524.786	51557.1
524.988	51452.65
525.189	52099.81
525.391	52454.11
525.592	52746.97
525.794	53140.18
525.995	52964.06
526.197	53023.45
526.398	53177.04
526.6	53975.75
526.801	53875.4
527.003	54250.18
527.204	54297.28
527.406	54446.79
527.607	54610.62
527.808	54840
528.01	53875.4
528.211	54741.69
528.412	55409.33
528.614	54960.83
528.815	55184.05
529.016	55820.97
529.218	55093.94
529.419	55382.71
529.62	55990.95
529.822	55558.83
530.023	55722.67
530.224	55835.31
530.425	55524.02
530.626	55890.6
530.828	55694
531.029	56699.55
531.23	55866.03
531.431	56122.02
531.632	55966.38
531.833	56423.08
532.035	56578.72
532.236	56687.26
532.437	56957.59
532.638	56257.19
532.839	56701.6
533.04	57336.47
533.241	56351.4
533.442	57463.44
533.643	56912.54
533.844	56611.49
534.045	56941.21
534.246	56122.02
534.447	57010.84
534.648	56445.6
534.849	57019.03
535.05	56640.16
535.251	56926.88
535.451	57041.56
535.652	56896.16
535.853	56787.61
536.054	56752.8
536.255	57211.54
536.456	56752.8
536.657	57748.11
536.857	57045.66
537.058	56521.38
537.259	57365.14
537.46	56844.96
537.66	57146.01
537.861	56892.06
538.062	56988.31
538.263	56539.81
538.463	57039.51
538.664	56281.77
538.865	56529.57
539.065	56861.34
539.266	56773.28
539.466	57096.86
539.667	56425.12
539.868	56949.4
540.068	56640.16
540.269	56732.32
540.469	57445.01
540.67	56416.93
540.87	56679.07
541.071	56804
541.271	56767.13
541.472	56881.82
541.672	56072.87
541.873	56752.8
542.073	56029.87
542.274	57109.14
542.474	56230.57
542.675	55958.19
542.875	57154.2
543.075	56365.73
543.276	56158.89
543.476	56703.65
543.676	56552.1
543.877	56687.26
544.077	56085.16
544.277	56083.11
544.478	56367.78
544.678	56484.51
544.878	56099.5
545.078	56574.62
545.279	56228.52
545.479	56189.61
545.679	56042.15
545.879	56183.46
546.079	56449.7
546.28	56017.58
546.48	55915.18
546.68	56173.22
546.88	56257.19
547.08	56380.07
547.28	55671.47
547.48	55923.37
547.68	56388.26
547.88	56175.27
548.081	55749.29
548.281	56476.32
548.481	55399.09
548.681	56236.71
548.881	55569.07
549.081	56244.9
549.28	55777.96
549.48	56197.8
549.68	55982.76
549.88	56124.07
550.08	55937.71
550.28	55839.4
550.48	55507.63
550.68	56046.25
550.88	55569.07
551.08	55605.94
551.279	56351.4
551.479	55409.33
551.679	55863.98
551.879	55251.64
552.079	55962.28
552.278	55392.95
552.478	55698.09
552.678	55544.5
552.878	55698.09
553.077	55581.36
553.277	55333.56
553.477	56060.58
553.676	55282.36
553.876	55669.42
554.076	55538.35
554.275	55059.13
554.475	55093.94
554.674	55700.14
554.874	55323.32
555.074	55300.79
555.273	55349.94
555.473	55560.88
555.672	54829.76
555.872	54856.38
556.071	55141.05
556.271	55370.42
556.47	54792.89
556.67	54569.66
556.869	54586.05
557.068	55315.12
557.268	54620.86
557.467	54559.42
557.667	54762.17
557.866	54254.28
558.065	54422.21
558.265	54305.48
558.464	54188.74
558.663	54516.42
558.863	53936.84
559.062	54835.9
559.261	54194.89
559.461	55106.23
559.66	53813.96
559.859	54395.59
560.058	53770.96
560.258	54123.21
560.457	53365.46
560.656	54158.02
560.855	53265.11
561.054	53842.63
561.253	53750.48
561.453	53428.94
561.652	53795.53
561.851	53891.79
562.05	53381.84
562.249	52951.77
562.448	53398.23
562.647	53164.76
562.846	52837.08
563.045	52968.15
563.244	52673.24
563.443	53256.92
563.642	52384.48
563.841	52632.28
564.04	52599.52
564.239	52949.72
564.438	52095.72
564.637	52007.65
564.836	52327.14
565.035	52015.85
565.234	52327.14
565.432	51913.45
565.631	52183.78
565.83	52124.39
566.029	51905.26
566.228	51550.96
566.427	51682.03
566.625	51907.3
566.824	51100.4
567.023	51708.65
567.222	50600.7
567.42	51370.74
567.619	51370.74
567.818	51323.63
568.016	50911.99
568.215	51145.46
568.414	50473.73
568.612	50930.42
568.811	50703.1
569.01	50981.62
569.208	50207.49
569.407	50658.04
569.605	50428.67
569.804	50727.67
570.002	50064.13
570.201	50057.99
570.4	49826.57
570.598	49826.57
570.797	50033.41
570.995	49695.5
571.193	49015.57
571.392	49552.14
571.59	49136.4
571.789	49023.76
571.987	49298.19
572.186	49175.31
572.384	48855.83
572.582	48943.89
572.781	48841.49
572.979	48110.37
573.177	48954.13
573.376	48911.13
573.574	48032.55
573.772	48966.42
573.971	48425.76
574.169	47790.89
574.367	47651.62
574.565	47819.56
574.763	47995.68
574.962	47831.85
575.16	47563.56
575.358	47391.53
575.556	47362.86
575.754	47102.77
575.952	46658.36
576.151	47422.25
576.349	47164.21
576.547	46555.96
576.745	46895.92
576.943	46887.73
577.141	46756.66
577.339	46648.12
577.537	46158.66
577.735	46246.72
577.933	45902.66
578.131	46324.54
578.329	45919.04
578.527	45599.56
578.725	45488.97
578.923	46086.98
579.121	45355.85
579.319	45828.93
579.516	45652.81
579.714	45062.99
579.912	44733.27
580.11	44948.31
580.308	44874.58
580.506	44821.33
580.704	44387.16
580.901	44694.36
581.099	44493.66
581.297	44327.77
581.495	44245.85
581.692	44628.82
581.89	43979.62
582.088	44223.33
582.285	43948.9
582.483	44434.27
582.681	43787.11
582.878	43578.22
583.076	43430.76
583.274	43619.17
583.471	42994.54
583.669	43500.39
583.866	43318.12
584.064	43137.9
584.262	42793.84
584.459	42892.15
584.657	42333.05
584.854	43021.17
585.052	42058.62
585.249	42326.91
585.447	42431.35
585.644	41859.97
585.841	42228.6
586.039	42455.93
586.236	41395.08
586.434	41982.85
586.631	41374.6
586.828	41046.93
587.026	41534.34
587.223	41307.02
587.42	40838.03
587.618	41200.52
587.815	40526.74
588.012	40530.84
588.21	40682.39
588.407	41001.87
588.604	40666
588.801	40166.3
588.999	40336.28
589.196	40102.81
589.393	39832.48
589.59	39916.45
589.787	39703.46
589.984	39644.07
590.182	39209.9
590.379	39984.03
590.576	39201.71
590.773	39295.91
590.97	38996.91
591.167	39179.18
591.364	39113.64
591.561	39097.26
591.758	38292.41
591.955	38658.99
592.152	38771.63
592.349	38214.58
592.546	38392.76
592.743	38411.19
592.94	37848
593.137	38308.79
593.334	38364.09
593.531	37495.75
593.727	37835.71
593.924	38167.48
594.121	37336.01
594.318	37671.87
594.515	37059.53
594.712	37360.58
594.908	37053.39
595.105	37264.33
595.302	37151.69
595.499	36942.8
595.696	36770.77
595.892	36463.57
596.089	36269.01
596.286	36449.24
596.482	36287.45
596.679	36105.18
596.876	36086.75
597.072	35539.94
597.269	36084.7
597.466	35703.78
597.662	35675.1
597.859	35558.37
598.055	35417.06
598.252	35339.24
598.448	35351.52
598.645	34958.31
598.841	34806.76
599.038	35154.92
599.234	34765.81
599.431	34468.85
599.627	34139.13
599.824	34583.54
600.02	34589.68
600.217	34458.61
600.413	34190.33
600.609	34020.34
600.806	33911.8
601.002	33963
601.198	33496.06
601.395	33405.95
601.591	33682.43
601.787	33451.01
601.984	33405.95
602.18	33899.51
602.376	33201.16
602.572	32992.26
602.769	32732.17
602.965	32547.86
603.161	32959.5
603.357	32789.52
603.553	32580.62
603.75	32881.67
603.946	32461.84
604.142	32341.01
604.338	31788.06
604.534	32420.88
604.73	31695.9
604.926	32054.29
605.122	31923.22
605.318	31788.06
605.514	31710.24
605.71	31568.93
605.906	31491.1
606.102	31206.44
606.298	31298.59
606.494	31046.69
606.69	31222.82
606.886	31439.9
607.082	30907.43
607.278	31042.6
607.474	30737.45
607.67	31028.26
607.866	30391.34
608.062	31194.15
608.257	30837.8
608.453	30530.61
608.649	30460.98
608.845	30342.19
609.041	30522.41
609.236	30395.44
609.432	30366.77
609.628	30334
609.824	30151.73
610.019	29951.03
610.215	29994.04
610.411	30084.15
610.606	29715.51
610.802	29731.9
610.998	29766.71
611.193	29750.33
611.389	29488.19
611.584	29389.89
611.78	28904.52
611.976	29660.22
612.171	29594.68
612.367	29342.78
612.562	29312.06
612.758	28798.02
612.953	29041.73
613.149	29422.66
613.344	28564.56
613.539	29396.03
613.735	29031.49
613.93	29103.17
614.126	28634.19
614.321	28795.98
614.517	28886.09
614.712	28816.46
614.907	28701.77
615.103	28679.24
615.298	28740.68
615.493	28857.42
615.688	28326.99
615.884	28535.88
616.079	28316.75
616.274	28277.84
616.47	28179.54
616.665	28316.75
616.86	27825.24
617.055	28001.36
617.25	27950.17
617.445	28189.78
617.641	27614.3
617.836	27776.09
618.031	27303.01
618.226	27952.21
618.421	27739.22
618.616	27589.72
618.811	27098.21
619.006	27845.72
619.201	26778.73
619.396	26831.97
619.591	26915.94
619.786	26930.28
619.981	26428.52
620.176	26874.98
620.371	26201.2
620.566	26625.13
620.761	26078.32
620.956	26512.49
621.151	26094.71
621.346	26174.58
621.541	25859.19
621.735	25959.54
621.93	25484.41
622.125	25422.97
622.32	24923.27
622.515	25377.92
622.709	24935.56
622.904	24902.79
623.099	24956.04
623.294	24945.8
623.488	24564.87
623.683	24554.63
623.878	24355.98
624.072	24458.38
624.267	24034.45
624.462	23882.9
624.656	23579.8
624.851	24108.18
625.046	23712.92
625.24	23379.1
625.435	23475.35
625.629	23188.64
625.824	23108.77
626.018	23041.18
626.213	22543.53
626.407	22787.24
626.602	22865.06
626.796	22813.86
626.991	22635.69
627.185	22453.42
627.38	22162.61
627.574	21699.76
627.768	21712.05
627.963	22101.17
628.157	21411
628.352	21875.89
628.546	21257.4
628.74	21349.56
628.935	21329.08
629.129	21370.04
629.323	20927.68
629.517	20923.58
629.712	20876.48
629.906	20839.62
630.1	20198.6
630.294	20393.16
630.489	20370.63
630.683	20493.51
630.877	19985.62
631.071	20102.35
631.265	20128.97
631.459	19692.76
631.653	19530.97
631.848	19823.83
632.042	19619.03
632.236	19524.82
632.43	19086.56
632.624	19459.29
632.818	18916.58
633.012	19064.03
633.206	19006.69
633.4	18740.45
633.594	18828.51
633.788	18785.51
633.982	18719.97
634.176	18586.85
634.369	18222.31
634.563	18222.31
634.757	18259.18
634.951	18158.83
635.145	18066.67
635.339	18081
635.533	17743.09
635.726	18029.8
635.92	17544.44
636.114	17796.34
636.308	17569.01
636.501	17562.87
636.695	17382.65
636.889	17278.2
637.083	17040.64
637.276	17261.82
637.47	16911.61
637.664	16764.16
637.857	16715.01
638.051	16862.46
638.244	16575.75
638.438	16483.59
638.632	16270.6
638.825	16329.99
639.019	16231.69
639.212	16256.26
639.406	16108.81
639.599	15848.72
639.793	16057.61
639.986	16119.05
640.18	15967.5
640.373	15652.11
640.567	15568.15
640.76	15559.95
640.954	15385.88
641.147	15357.21
641.34	15320.34
641.534	15351.06
641.727	15482.13
641.92	15068.44
642.114	14986.52
642.307	15015.19
642.5	14992.67
642.694	14538.02
642.887	14628.13
643.08	14845.21
643.273	14439.72
643.467	14488.87
643.66	14269.73
643.853	14122.28
644.046	14157.1
644.239	14050.6
644.432	14236.97
644.626	13819.18
644.819	13958.44
645.012	13854
645.205	13901.1
645.398	13405.49
645.591	13528.37
645.784	13460.79
645.977	13477.17
646.17	13352.24
646.363	13409.59
646.556	13159.74
646.749	13112.63
646.942	13221.17
647.135	13110.58
647.328	13188.41
647.521	12891.45
647.714	12819.77
647.907	12858.68
648.099	12711.23
648.292	12885.31
648.485	12522.82
648.678	12698.94
648.871	12469.57
649.064	12248.39
649.256	12373.32
649.449	12102.98
649.642	12232.01
649.835	12031.3
650.027	12131.65
650.22	12072.26
650.413	11789.64
650.605	11863.37
650.798	11849.04
650.991	11861.32
651.183	11697.49
651.376	11654.48
651.568	11605.33
651.761	11547.98
651.954	11681.1
652.146	11398.48
652.339	11205.97
652.531	11242.84
652.724	11220.31
652.916	10913.11
653.109	11275.6
653.301	10886.49
653.494	10954.07
653.686	10880.35
653.879	10843.48
654.071	10612.06
654.263	10673.5
654.456	10665.31
654.648	10796.38
654.84	10552.67
655.033	10474.85
655.225	10343.78
655.417	10321.25
655.61	10378.59
655.802	10413.41
655.994	10229.09
656.186	10413.41
656.379	10044.77
656.571	10153.32
656.763	10036.58
656.955	9923.94
657.148	10106.21
657.34	10122.6
657.532	9846.12
657.724	9903.46
657.916	9823.59
658.108	9803.11
658.3	9565.55
658.492	9624.94
658.684	9170.29
658.876	9536.88
659.068	9450.86
659.26	9459.06
659.452	9395.57
659.644	9360.75
659.836	9254.26
660.028	9254.26
660.22	9186.68
660.412	9110.9
660.604	8912.25
660.796	9057.65
660.988	8865.14
661.18	8887.67
661.372	8920.44
661.563	8910.2
661.755	8736.12
661.947	8678.78
662.139	8701.31
662.331	8584.57
662.522	8721.79
662.714	8568.19
662.906	8537.47
663.097	8469.89
663.289	8328.58
663.481	8263.04
663.673	8177.03
663.864	8410.5
664.056	8283.52
664.247	8324.48
664.439	7968.13
664.631	8267.14
664.822	8189.32
665.014	8054.15
665.205	8299.91
665.397	8201.6
665.588	7916.94
665.78	7859.59
665.971	7894.41
666.163	7818.63
666.354	7763.34
666.546	7742.86
666.737	7632.27
666.929	7646.6
667.12	7675.27
667.311	7619.98
667.503	7490.96
667.694	7552.4
667.885	7370.13
668.077	7497.1
668.268	7409.04
668.459	7490.96
668.651	7398.8
668.842	7271.83
669.033	7372.18
669.224	7185.81
669.416	7421.33
669.607	7150.99
669.798	7110.04
669.989	7153.04
670.18	7286.16
670.371	7060.88
670.563	6917.53
670.754	7044.5
670.945	6915.48
671.136	7077.27
671.327	6938.01
671.518	6890.9
671.709	6778.26
671.9	6800.79
672.091	6915.48
672.282	6727.07
672.473	6720.92
672.664	6606.24
672.855	6716.83
673.046	6788.5
673.237	6598.04
673.428	6561.18
673.619	6612.38
673.809	6428.06
674	6380.96
674.191	6520.22
674.382	6567.32
674.573	6428.06
674.764	6507.93
674.954	6258.08
675.145	6301.09
675.336	6512.03
675.527	6460.83
675.717	6432.16
675.908	6372.77
676.099	6325.66
676.289	6331.81
676.48	6221.22
676.671	6217.12
676.861	6233.5
677.052	6071.72
677.243	6198.69
677.433	6077.86
677.624	6145.44
677.814	6163.87
678.005	6172.07
678.195	6059.43
678.386	6030.76
678.576	5791.14
678.767	6055.33
678.957	5852.58
679.148	6071.72
679.338	5883.3
679.529	5899.69
679.719	5688.75
679.909	5899.69
680.1	5803.43
680.29	5805.48
680.481	5563.82
680.671	5811.62
680.861	5639.59
681.052	5746.09
681.242	5545.39
681.432	5787.05
681.622	5768.62
681.813	5723.56
682.003	5741.99
682.193	5551.53
682.383	5664.17
682.573	5612.97
682.764	5449.13
682.954	5643.69
683.144	5627.31
683.334	5404.08
683.524	5635.5
683.714	5467.56
683.904	5336.49
684.094	5414.32
684.284	5352.88
684.474	5483.95
684.664	5477.8
684.854	5350.83
685.044	5230
685.234	5320.11
685.424	5289.39
685.614	5416.37
685.804	5252.53
685.994	5258.67
686.184	5203.38
686.374	5123.51
686.564	5240.24
686.753	5199.28
686.943	5090.74
687.133	5186.99
687.323	5262.77
687.513	5131.7
687.702	4900.28
687.892	5047.73
688.082	4869.56
688.272	4853.17
688.461	4912.57
688.651	4916.66
688.841	4873.65
689.03	4963.76
689.22	4908.47
689.41	4828.6
689.599	4877.75
689.789	4861.37
689.979	4801.97
690.168	4697.53
690.358	4646.33
690.547	4687.29
690.737	4726.2
690.926	4681.14
691.116	4599.23
691.305	4570.55
691.495	4545.98
691.684	4482.49
691.874	4455.87
692.063	4703.67
692.252	4550.07
692.442	4550.07
692.631	4253.12
692.82	4441.53
693.01	4425.15
693.199	4447.68
693.388	4560.31
693.578	4165.06
693.767	4376
693.956	4363.71
694.146	4382.14
694.335	4224.45
694.524	4222.4
694.713	4236.74
694.902	4206.02
695.092	4380.09
695.281	4103.62
695.47	4203.97
695.659	4154.82
695.848	4122.05
696.037	4236.74
696.226	4191.68
696.415	4160.96
696.604	4230.59
696.793	4072.9
696.982	4021.7
697.171	4226.5
697.36	4177.34
697.549	4054.47
697.738	4122.05
697.927	4060.61
698.116	4105.67
698.305	4068.8
698.494	4054.47
698.683	3933.64
698.872	3915.2
699.061	4044.23
699.25	3902.92
699.438	3943.88
699.627	3921.35
699.816	3833.29
700.005	3935.68
700.193	3890.63
700.382	3933.64
700.571	3894.72
700.76	3993.03
700.948	3923.4
701.137	3835.33
701.326	3888.58
701.514	3743.17
701.703	3945.92
701.892	3716.55
702.08	3941.83
702.269	3876.29
702.457	3741.13
702.646	3868.1
702.834	3814.85
703.023	3626.44
703.212	3810.76
703.4	3665.35
703.589	3739.08
703.777	3800.52
703.965	3616.2
704.154	3548.62
704.342	3683.78
704.531	3675.59
704.719	3538.38
704.907	3657.16
705.096	3720.65
705.284	3769.8
705.472	3513.8
705.661	3532.23
705.849	3618.25
706.037	3679.69
706.226	3452.36
706.414	3550.67
706.602	3583.43
706.79	3499.47
706.979	3632.58
707.167	3470.8
707.355	3608.01
707.543	3425.74
707.731	3577.29
707.919	3513.8
708.107	3491.27
708.296	3413.45
708.484	3464.65
708.672	3470.8
708.86	3388.88
709.048	3554.76
709.236	3536.33
709.424	3456.46
709.612	3376.59
709.8	3290.57
709.988	3268.05
710.176	3442.12
710.364	3280.33
710.551	3362.25
710.739	3368.4
710.927	3450.32
711.115	3374.54
711.303	3571.15
711.491	3272.14
711.679	3468.75
711.866	3349.96
712.054	3386.83
712.242	3366.35
712.43	3366.35
712.617	3380.68
712.805	3296.72
712.993	3327.44
713.181	3218.89
713.368	3192.27
713.556	3216.85
713.744	3173.84
713.931	3266
714.119	3112.4
714.306	3352.01
714.494	3196.37
714.682	3202.51
714.869	3151.31
715.057	3192.27
715.244	3196.37
715.432	3247.57
715.619	3415.5
715.807	3202.51
715.994	3202.51
716.182	3134.93
716.369	3278.29
716.556	3216.85
716.744	3259.85
716.931	3085.78
717.119	3175.89
717.306	3151.31
717.493	3167.7
717.681	3136.98
717.868	3079.63
718.055	3132.88
718.242	2964.95
718.43	3077.59
718.617	2979.28
718.804	3063.25
718.991	3102.16
719.179	3100.11
719.366	3063.25
719.553	3038.67
719.74	2942.42
719.927	3026.39
720.114	3036.63
720.301	2948.56
720.488	2960.85
720.676	2923.99
720.863	2964.95
721.05	3079.63
721.237	2971.09
721.424	2952.66
721.611	2850.26
721.798	3034.58
721.985	2897.36
722.172	2852.31
722.358	3036.63
722.545	2872.79
722.732	2964.95
722.919	2977.23
723.106	2932.18
723.293	2891.22
723.48	2911.7
723.667	2751.96
723.853	2807.25
724.04	3040.72
724.227	2797.01
724.414	2676.18
724.6	2837.97
724.787	2835.92
724.974	2893.27
725.161	2815.45
725.347	2842.07
725.534	2897.36
725.72	2784.73
725.907	2780.63
726.094	2774.49
726.28	2733.53
726.467	2770.39
726.653	2848.21
726.84	2719.19
727.027	2917.84
727.213	2760.15
727.4	2774.49
727.586	2799.06
727.773	2911.7
727.959	2743.77
728.145	2739.67
728.332	2811.35
728.518	2764.25
728.705	2852.31
728.891	2725.33
729.077	2696.66
729.264	2690.52
729.45	2637.27
729.636	2901.46
729.823	2751.96
730.009	2727.38
730.195	2686.42
730.382	2684.38
730.568	2665.94
730.754	2719.19
730.94	2502.11
731.126	2715.09
731.313	2686.42
731.499	2698.71
731.685	2670.04
731.871	2751.96
732.057	2751.96
732.243	2594.26
732.429	2616.79
732.615	2631.13
732.801	2596.31
732.987	2596.31
733.173	2702.81
733.359	2661.85
733.545	2536.92
733.731	2700.76
733.917	2659.8
734.103	2606.55
734.289	2657.75
734.475	2614.74
734.661	2676.18
734.847	2637.27
735.033	2455
735.219	2528.73
735.404	2561.5
735.59	2622.94
735.776	2526.68
735.962	2512.35
736.148	2471.39
736.333	2379.23
736.519	2424.28
736.705	2467.29
736.89	2455
737.076	2481.63
737.262	2469.34
737.447	2346.46
737.633	2555.35
737.819	2438.62
738.004	2291.17
738.19	2346.46
738.375	2323.93
738.561	2477.53
738.747	2412
738.932	2336.22
739.118	2377.18
739.303	2303.45
739.489	2371.04
739.674	2297.31
739.859	2252.25
740.045	2387.42
740.23	2461.15
740.416	2256.35
740.601	2426.33
740.786	2268.64
740.972	2340.32
741.157	2303.45
741.342	2280.93
741.528	2186.72
741.713	2274.78
741.898	2215.39
742.084	2211.29
742.269	2270.69
742.454	2258.4
742.639	2194.91
742.824	2295.26
743.01	2307.55
743.195	2158.05
743.38	2248.16
743.565	2121.18
743.75	2170.33
743.935	2055.65
744.12	2188.77
744.305	2096.61
744.49	2153.95
744.675	2055.65
744.86	2147.81
745.045	2129.38
745.23	2182.62
745.415	2069.98
745.6	2078.18
745.785	2018.79
745.97	2002.4
746.155	1986.02
746.34	2045.41
746.525	2065.89
746.71	2072.03
746.895	1943.01
747.079	2010.59
747.264	1838.56
747.449	1912.29
747.634	1879.52
747.819	1934.82
748.003	1949.15
748.188	1777.12
748.373	1891.81
748.557	1824.23
748.742	1846.76
748.927	1787.36
749.111	1910.24
749.296	1803.75
749.481	1777.12
749.665	1900
749.85	1852.9
750.034	1760.74
750.219	1785.32
750.404	1732.07
750.588	1721.83
750.773	1799.65
750.957	1711.59
751.141	1801.7
751.326	1727.97
751.51	1586.66
751.695	1687.01
751.879	1742.31
752.064	1725.93
752.248	1656.29
752.432	1564.14
752.617	1703.4
752.801	1676.77
752.985	1594.86
753.17	1500.65
753.354	1537.51
753.538	1629.67
753.722	1574.38
753.907	1533.42
754.091	1533.42
754.275	1572.33
754.459	1635.82
754.643	1414.63
754.828	1549.8
755.012	1564.14
755.196	1469.93
755.38	1359.34
755.564	1484.27
755.748	1390.06
755.932	1439.21
756.116	1420.78
756.3	1416.68
756.484	1324.52
756.668	1422.83
756.852	1328.62
757.036	1418.73
757.22	1361.39
757.404	1330.67
757.588	1308.14
757.772	1293.8
757.956	1328.62
758.14	1347.05
758.323	1238.51
758.507	1261.04
758.691	1271.28
758.875	1279.47
759.059	1336.81
759.242	1256.94
759.426	1183.21
759.61	1267.18
759.794	1267.18
759.977	1109.49
760.161	1299.95
760.345	1232.37
760.528	1170.93
760.712	1162.73
760.895	1213.93
761.079	1164.78
761.263	1162.73
761.446	1246.7
761.63	1138.16
761.813	1172.97
761.997	1074.67
762.18	1089.01
762.364	1127.92
762.547	1115.63
762.731	1113.58
762.914	1183.21
763.098	1129.97
763.281	1035.76
763.464	1162.73
763.648	1072.62
763.831	1109.49
764.015	1097.2
764.198	1121.77
764.381	1115.63
764.564	1097.2
764.748	1121.77
764.931	1125.87
765.114	1150.45
765.297	1086.96
765.481	1039.86
765.664	1076.72
765.847	1046
766.03	1070.58
766.213	992.75
766.397	1091.06
766.58	1023.47
766.763	990.7
766.946	976.37
767.129	1043.95
767.312	976.37
767.495	1029.62
767.678	878.07
767.861	1093.1
768.044	951.79
768.227	992.75
768.41	1000.94
768.593	1002.99
768.776	1007.09
768.959	921.07
769.142	945.65
769.324	925.17
769.507	859.63
769.69	976.37
769.873	945.65
770.056	988.66
770.239	828.92
770.421	869.87
770.604	951.79
770.787	953.84
770.97	906.74
771.152	859.63
771.335	890.35
771.518	892.4
771.7	941.55
771.883	957.94
772.066	902.64
772.248	861.68
772.431	921.07
772.613	871.92
772.796	833.01
772.978	867.83
773.161	841.2
773.343	792.05
773.526	779.76
773.708	865.78
773.891	855.54
774.073	826.87
774.256	790
774.438	921.07
774.621	765.43
774.803	863.73
774.985	796.15
775.168	796.15
775.35	812.53
775.532	701.94
775.715	673.27
775.897	785.91
776.079	720.37
776.261	749.04
776.444	804.34
776.626	732.66
776.808	726.52
776.99	695.8
777.173	720.37
777.355	669.17
777.537	816.63
777.719	712.18
777.901	691.7
778.083	714.23
778.265	695.8
778.447	603.64
778.629	675.32
778.811	646.65
778.993	650.74
779.175	703.99
779.357	710.13
779.539	669.17
779.721	642.55
779.903	710.13
780.085	603.64
780.267	755.19
780.449	595.45
780.631	554.49
780.812	630.26
780.994	589.3
781.176	583.16
781.358	572.92
781.54	630.26
781.721	605.69
781.903	587.26
782.085	564.73
782.267	554.49
782.448	611.83
782.63	560.63
782.812	554.49
782.993	630.26
783.175	581.11
783.357	534.01
783.538	554.49
783.72	572.92
783.901	482.81
784.083	587.26
784.264	482.81
784.446	517.62
784.627	622.07
784.809	525.82
784.99	474.62
785.172	574.97
785.353	531.96
785.535	480.76
785.716	540.15
785.897	476.66
786.079	515.58
786.26	474.62
786.441	511.48
786.623	388.6
786.804	439.8
786.985	515.58
787.167	419.32
787.348	431.61
787.529	421.37
787.71	427.51
787.891	439.8
788.073	417.27
788.254	421.37
788.435	398.84
788.616	491
788.797	452.09
788.978	370.17
789.159	407.03
789.34	443.9
789.522	318.97
789.703	415.23
789.884	409.08
790.065	478.71
790.246	454.14
790.427	443.9
790.607	470.52
790.788	531.96
790.969	323.07
791.15	462.33
791.331	413.18
791.512	396.79
791.693	402.94
791.874	427.51
792.054	429.56
792.235	411.13
792.416	296.44
792.597	357.88
792.778	392.7
792.958	380.41
793.139	333.31
793.32	296.44
793.5	384.51
793.681	400.89
793.862	310.78
794.042	341.5
794.223	382.46
794.404	361.98
794.584	323.07
794.765	380.41
794.945	345.59
795.126	306.68
795.306	355.83
795.487	290.3
795.667	232.96
795.848	384.51
796.028	345.59
796.209	331.26
796.389	275.96
796.57	310.78
796.75	253.44
796.93	308.73
797.111	343.55
797.291	351.74
797.471	314.88
797.652	314.88
797.832	302.59
798.012	325.12
798.192	255.48
798.373	224.76
798.553	312.83
798.733	310.78
798.913	222.72
799.093	280.06
799.274	286.2
799.454	292.35
799.634	196.09
799.814	335.35
799.994	284.16
800.174	230.91
800.354	273.92
800.534	331.26
800.714	251.39
800.894	204.28
801.074	202.24
801.254	308.73
801.434	308.73
801.614	226.81
801.794	321.02
801.974	622.07
802.154	189.95
802.334	267.77
802.514	314.88
802.693	249.34
802.873	273.92
803.053	267.77
803.233	163.33
803.413	271.87
803.592	214.52
803.772	286.2
803.952	284.16
804.131	247.29
804.311	208.38
804.491	284.16
804.67	265.72
804.85	237.05
805.03	271.87
805.209	247.29
805.389	237.05
805.568	243.2
805.748	198.14
805.928	253.44
806.107	208.38
806.287	265.72
806.466	202.24
806.646	159.23
806.825	253.44
807.004	243.2
807.184	185.85
807.363	224.76
807.543	192
807.722	148.99
807.901	210.43
808.081	245.24
808.26	194.05
808.439	189.95
808.619	224.76
808.798	181.76
808.977	183.81
809.156	263.68
809.336	224.76
809.515	288.25
809.694	134.65
809.873	177.66
810.052	103.93
810.231	222.72
810.411	187.9
810.59	237.05
810.769	210.43
810.948	200.19
811.127	208.38
811.306	194.05
811.485	108.03
811.664	237.05
811.843	222.72
812.022	204.28
812.201	132.61
812.38	148.99
812.559	146.94
812.737	198.14
812.916	196.09
813.095	140.8
813.274	249.34
813.453	208.38
813.632	206.33
813.811	218.62
813.989	155.13
814.168	161.28
814.347	183.81
814.526	144.89
814.704	161.28
814.883	179.71
815.062	105.98
815.24	245.24
815.419	153.09
815.598	214.52
815.776	130.56
815.955	196.09
816.133	105.98
816.312	196.09
816.49	194.05
816.669	169.47
816.847	187.9
817.026	230.91
817.204	93.69
817.383	206.33
817.561	146.94
817.74	200.19
817.918	148.99
818.097	122.37
818.275	99.84
818.453	122.37
818.632	114.17
818.81	132.61
818.988	105.98
819.167	122.37
819.345	108.03
819.523	52.74
819.701	97.79
819.879	148.99
820.058	173.57
820.236	124.41
820.414	132.61
820.592	103.93
820.77	103.93
820.948	93.69
821.127	81.41
821.305	157.18
821.483	157.18
821.661	112.13
821.839	144.89
822.017	110.08
822.195	105.98
822.373	87.55
822.551	108.03
822.729	136.7
822.907	103.93
823.085	110.08
823.262	101.89
823.44	155.13
823.618	79.36
823.796	108.03
823.974	146.94
824.152	189.95
824.329	116.22
824.507	214.52
824.685	220.67
824.863	93.69
825.04	54.78
825.218	87.55
825.396	56.83
825.574	130.56
825.751	40.45
825.929	48.64
826.107	99.84
826.284	138.75
826.462	103.93
826.639	85.5
826.817	83.45
826.994	132.61
827.172	50.69
827.349	97.79
827.527	142.85
827.704	130.56
827.882	73.21
828.059	132.61
828.237	134.65
828.414	132.61
828.591	85.5
828.769	75.26
828.946	67.07
829.124	83.45
829.301	65.02
829.478	60.93
829.655	108.03
829.833	44.54
830.01	122.37
830.187	185.85
830.364	83.45
830.542	65.02
830.719	93.69
830.896	79.36
831.073	146.94
831.25	122.37
831.427	65.02
831.604	71.17
831.782	87.55
831.959	116.22
832.136	83.45
832.313	93.69
832.49	112.13
832.667	91.65
832.844	118.27
833.021	48.64
833.198	69.12
833.374	44.54
833.551	130.56
833.728	130.56
833.905	130.56
834.082	85.5
834.259	67.07
834.436	116.22
834.612	73.21
834.789	99.84
834.966	81.41
835.143	167.42
835.319	50.69
835.496	79.36
835.673	19.97
835.85	134.65
836.026	136.7
836.203	79.36
836.38	67.07
836.556	112.13
836.733	67.07
836.909	130.56
837.086	50.69
837.262	116.22
837.439	87.55
837.616	91.65
837.792	42.5
837.968	58.88
838.145	52.74
838.321	71.17
838.498	93.69
838.674	60.93
838.851	11.78
839.027	126.46
839.203	81.41
839.38	40.45
839.556	54.78
839.732	58.88
839.909	69.12
840.085	22.02
840.261	58.88
840.437	124.41
840.614	15.87
840.79	42.5
840.966	73.21
841.142	157.18
841.318	40.45
841.494	40.45
841.671	136.7
841.847	69.12
842.023	65.02
842.199	146.94
842.375	83.45
842.551	19.97
842.727	22.02
842.903	67.07
843.079	54.78
843.255	38.4
843.431	103.93
843.607	62.98
843.783	13.82
843.959	89.6
844.134	1.54
844.31	30.21
844.486	124.41
844.662	62.98
844.838	52.74
845.013	81.41
845.189	62.98
845.365	60.93
845.541	38.4
845.716	91.65
845.892	34.3
846.068	81.41
846.244	116.22
846.419	60.93
846.595	13.82
846.77	17.92
846.946	77.31
847.122	91.65
847.297	83.45
847.473	91.65
847.648	13.82
847.824	85.5
847.999	40.45
848.175	69.12
848.35	69.12
848.526	136.7
848.701	67.07
848.876	-10.75
849.052	67.07
849.227	83.45
849.403	77.31
849.578	69.12
849.753	-0.51
849.929	85.5
850.104	-8.7
850.279	81.41
850.454	67.07
850.63	1.54
850.805	-33.28
850.98	1.54
851.155	38.4
851.33	142.85
851.505	65.02
851.681	32.26
851.856	52.74
852.031	56.83
852.206	83.45
852.381	67.07
852.556	30.21
852.731	1.54
852.906	75.26
853.081	34.3
853.256	144.89
853.431	77.31
853.606	22.02
853.781	58.88
853.956	7.68
854.131	13.82
854.305	36.35
854.48	83.45
854.655	38.4
854.83	19.97
855.005	5.63
855.18	48.64
855.354	40.45
855.529	1.54
855.704	148.99
855.879	36.35
856.053	50.69
856.228	24.06
856.403	79.36
856.577	40.45
856.752	9.73
856.926	-27.14
857.101	17.92
857.276	79.36
857.45	19.97
857.625	40.45
857.799	24.06
857.974	34.3
858.148	-0.51
858.323	56.83
858.497	15.87
858.672	7.68
858.846	-35.33
859.02	22.02
859.195	-25.09
859.369	15.87
859.543	32.26
859.718	22.02
859.892	48.64
860.066	97.79
860.241	9.73
860.415	44.54
860.589	1.54
860.763	34.3
860.938	-20.99
861.112	79.36
861.286	-2.56
861.46	71.17
861.634	-29.18
861.808	144.89
861.982	-45.57
862.157	73.21
862.331	1.54
862.505	46.59
862.679	15.87
862.853	32.26
863.027	19.97
863.201	73.21
863.375	-53.76
863.549	87.55
863.722	34.3
863.896	7.68
864.07	-0.51
864.244	-31.23
864.418	30.21
864.592	44.54
864.766	-6.66
864.939	54.78
865.113	22.02
865.287	40.45
865.461	71.17
865.634	13.82
865.808	60.93
865.982	-2.56
866.156	34.3
866.329	-14.85
866.503	-14.85
866.676	30.21
866.85	5.63
867.024	-10.75
867.197	24.06
867.371	81.41
867.544	-8.7
867.718	-39.42
867.891	30.21
868.065	-25.09
868.238	54.78
868.412	24.06
868.585	93.69
868.759	-6.66
868.932	-23.04
869.105	-49.66
869.279	58.88
869.452	38.4
869.625	5.63
869.799	67.07
869.972	93.69
870.145	40.45
870.319	71.17
870.492	-18.94
870.665	-20.99
870.838	-61.95
871.011	28.16
871.185	5.63
871.358	73.21
871.531	-2.56
871.704	28.16
871.877	-6.66
872.05	5.63
872.223	-6.66
872.396	5.63
872.569	11.78
872.742	71.17
872.915	77.31
873.088	7.68
873.261	3.58
873.434	77.31
873.607	40.45
873.78	24.06
873.953	69.12
874.126	46.59
874.299	1.54
874.471	-2.56
874.644	-12.8
874.817	81.41
874.99	73.21
875.163	32.26
875.335	-8.7
875.508	42.5
875.681	24.06
875.853	-14.85
876.026	77.31
876.199	40.45
876.371	40.45
876.544	38.4
876.717	77.31
876.889	24.06
877.062	71.17
877.234	-43.52
877.407	-102.91
877.579	56.83
877.752	19.97
877.924	44.54
878.097	-49.66
878.269	-74.24
878.442	22.02
878.614	114.17
878.786	-8.7
878.959	87.55
879.131	-14.85
879.303	48.64
879.476	-2.56
879.648	87.55
879.82	114.17
879.993	32.26
880.165	36.35
880.337	13.82
880.509	58.88
880.681	-16.9
880.854	79.36
881.026	-0.51
881.198	77.31
881.37	32.26
881.542	56.83
881.714	9.73
881.886	-23.04
882.058	112.13
882.23	56.83
882.402	11.78
882.574	32.26
882.746	91.65
882.918	7.68
883.09	52.74
883.262	15.87
883.434	-41.47
883.606	19.97
883.778	-37.38
883.95	-14.85
884.122	19.97
884.293	50.69
884.465	52.74
884.637	81.41
884.809	-8.7
884.98	17.92
885.152	22.02
885.324	40.45
885.496	7.68
885.667	-29.18
885.839	42.5
886.011	42.5
886.182	54.78
886.354	38.4
886.525	-29.18
886.697	97.79
886.869	-51.71
887.04	-51.71
887.212	67.07
887.383	50.69
887.555	3.58
887.726	-29.18
887.897	11.78
888.069	26.11
888.24	17.92
888.412	30.21
888.583	-18.94
888.754	34.3
888.926	-6.66
889.097	48.64
889.268	-18.94
889.44	-37.38
889.611	34.3
889.782	24.06
889.953	-23.04
890.125	40.45
890.296	15.87
890.467	-27.14
890.638	-72.19
890.809	34.3
890.98	1.54
891.151	56.83
891.323	-2.56
891.494	-12.8
891.665	-14.85
891.836	42.5
892.007	32.26
892.178	75.26
892.349	48.64
892.52	-20.99
892.691	62.98
892.862	3.58
893.032	13.82
893.203	5.63
893.374	32.26
893.545	83.45
893.716	-18.94
893.887	-16.9
894.057	-35.33
894.228	1.54
894.399	11.78
894.57	38.4
894.74	-12.8
894.911	11.78
895.082	28.16
895.253	32.26
895.423	48.64
895.594	-4.61
895.764	7.68
895.935	52.74
896.106	-27.14
896.276	40.45
896.447	-33.28
896.617	-6.66
896.788	-0.51
896.958	-41.47
897.129	9.73
897.299	38.4
897.47	79.36
897.64	22.02
897.81	-12.8
897.981	17.92
898.151	-78.33
898.322	-33.28
898.492	13.82
898.662	30.21
898.832	42.5
899.003	-39.42
899.173	13.82
899.343	44.54
899.513	-10.75
