Data from USB4F104151__76__12-36-50-013.txt Node

Date: Fri Mar 14 12:36:50 EDT 2025
User: louis
Spectrometer: USB4F10415
Trigger mode: 4
Integration Time (sec): 2.000000E-2
Scans to average: 1
Electric dark correction enabled: true
Nonlinearity correction enabled: false
Boxcar width: 0
XAxis mode: Wavelengths
Number of Pixels in Spectrum: 3648
>>>>>Begin Spectral Data<<<<<
178.204	-32.94
178.424	-32.94
178.644	-32.94
178.864	-166.06
179.084	-98.47
179.304	28.5
179.524	-57.51
179.744	40.79
179.964	-49.32
180.184	14.17
180.404	3.93
180.624	16.21
180.844	69.46
181.064	-41.13
181.283	-41.13
181.503	-2.22
181.723	18.26
181.943	-43.18
182.163	98.13
182.383	-14.51
182.602	89.94
182.822	65.36
183.042	5.97
183.262	14.17
183.482	22.36
183.701	61.27
183.921	65.36
184.141	8.02
184.361	46.93
184.58	26.45
184.8	12.12
185.02	67.41
185.239	71.51
185.459	-43.18
185.679	-34.99
185.898	-16.55
186.118	28.5
186.338	26.45
186.557	12.12
186.777	-4.27
186.997	-20.65
187.216	36.69
187.436	32.6
187.655	34.64
187.875	126.8
188.095	3.93
188.314	106.32
188.534	81.75
188.753	59.22
188.973	-32.94
189.192	53.08
189.412	-2.22
189.631	-24.75
189.851	8.02
190.07	16.21
190.29	-51.37
190.509	-12.46
190.729	-63.66
190.948	59.22
191.168	132.95
191.387	-14.51
191.607	5.97
191.826	-18.6
192.045	-20.65
192.265	3.93
192.484	14.17
192.704	71.51
192.923	69.46
193.142	44.88
193.362	-39.08
193.581	38.74
193.8	38.74
194.02	-18.6
194.239	32.6
194.458	20.31
194.678	-39.08
194.897	32.6
195.116	18.26
195.335	12.12
195.555	-0.17
195.774	114.52
195.993	34.64
196.212	-22.7
196.432	-16.55
196.651	-26.79
196.87	-39.08
197.089	96.08
197.308	48.98
197.528	24.4
197.747	8.02
197.966	65.36
198.185	-45.23
198.404	-51.37
198.623	-47.27
198.842	102.23
199.062	-14.51
199.281	-32.94
199.5	53.08
199.719	16.21
199.938	94.04
200.157	91.99
200.376	-24.75
200.595	61.27
200.814	53.08
201.033	51.03
201.252	65.36
201.471	20.31
201.69	10.07
201.909	77.65
202.128	-12.46
202.347	48.98
202.566	71.51
202.785	-10.41
203.004	26.45
203.223	91.99
203.442	-20.65
203.661	12.12
203.879	22.36
204.098	30.55
204.317	-67.75
204.536	18.26
204.755	14.17
204.974	81.75
205.193	-2.22
205.411	42.84
205.63	-20.65
205.849	38.74
206.068	108.37
206.287	5.97
206.505	44.88
206.724	71.51
206.943	-57.51
207.162	-4.27
207.381	-16.55
207.599	-12.46
207.818	61.27
208.037	-14.51
208.255	75.6
208.474	51.03
208.693	42.84
208.911	14.17
209.13	18.26
209.349	77.65
209.567	59.22
209.786	79.7
210.005	5.97
210.223	-24.75
210.442	-45.23
210.661	48.98
210.879	51.03
211.098	46.93
211.316	26.45
211.535	-6.31
211.753	67.41
211.972	91.99
212.191	16.21
212.409	26.45
212.628	61.27
212.846	8.02
213.065	96.08
213.283	55.12
213.502	-39.08
213.72	-39.08
213.938	83.8
214.157	48.98
214.375	-2.22
214.594	34.64
214.812	51.03
215.031	114.52
215.249	-24.75
215.467	8.02
215.686	-12.46
215.904	81.75
216.122	12.12
216.341	40.79
216.559	5.97
216.778	139.09
216.996	16.21
217.214	42.84
217.432	46.93
217.651	8.02
217.869	20.31
218.087	-2.22
218.306	71.51
218.524	28.5
218.742	-4.27
218.96	51.03
219.179	-2.22
219.397	36.69
219.615	22.36
219.833	5.97
220.051	22.36
220.27	44.88
220.488	116.56
220.706	44.88
220.924	34.64
221.142	-2.22
221.36	-28.84
221.578	77.65
221.796	28.5
222.015	-43.18
222.233	-6.31
222.451	32.6
222.669	28.5
222.887	20.31
223.105	30.55
223.323	36.69
223.541	32.6
223.759	1.88
223.977	10.07
224.195	14.17
224.413	3.93
224.631	73.56
224.849	53.08
225.067	32.6
225.285	26.45
225.503	32.6
225.721	-41.13
225.939	3.93
226.157	-30.89
226.375	40.79
226.592	16.21
226.81	75.6
227.028	30.55
227.246	77.65
227.464	5.97
227.682	10.07
227.9	-0.17
228.117	48.98
228.335	1.88
228.553	-24.75
228.771	-0.17
228.989	40.79
229.206	40.79
229.424	-73.9
229.642	46.93
229.86	67.41
230.077	79.7
230.295	46.93
230.513	14.17
230.731	-16.55
230.948	14.17
231.166	94.04
231.384	53.08
231.601	-4.27
231.819	53.08
232.037	100.18
232.254	46.93
232.472	89.94
232.689	14.17
232.907	-8.36
233.125	22.36
233.342	-24.75
233.56	36.69
233.777	67.41
233.995	3.93
234.213	5.97
234.43	63.32
234.648	32.6
234.865	32.6
235.083	20.31
235.3	22.36
235.518	24.4
235.735	91.99
235.953	22.36
236.17	16.21
236.388	-32.94
236.605	1.88
236.822	53.08
237.04	34.64
237.257	96.08
237.475	-20.65
237.692	65.36
237.909	28.5
238.127	36.69
238.344	34.64
238.562	-14.51
238.779	12.12
238.996	89.94
239.214	81.75
239.431	94.04
239.648	22.36
239.865	16.21
240.083	85.84
240.3	8.02
240.517	8.02
240.735	44.88
240.952	-34.99
241.169	32.6
241.386	59.22
241.603	55.12
241.821	10.07
242.038	34.64
242.255	3.93
242.472	-34.99
242.689	24.4
242.907	69.46
243.124	104.28
243.341	34.64
243.558	14.17
243.775	44.88
243.992	20.31
244.209	81.75
244.426	81.75
244.643	-22.7
244.86	59.22
245.078	122.71
245.295	46.93
245.512	-2.22
245.729	53.08
245.946	48.98
246.163	42.84
246.38	79.7
246.597	-18.6
246.814	87.89
247.031	-55.47
247.248	12.12
247.464	1.88
247.681	61.27
247.898	-32.94
248.115	24.4
248.332	-2.22
248.549	89.94
248.766	81.75
248.983	-10.41
249.2	112.47
249.417	-26.79
249.633	75.6
249.85	85.84
250.067	-34.99
250.284	-26.79
250.501	-4.27
250.717	139.09
250.934	-63.66
251.151	-20.65
251.368	71.51
251.585	34.64
251.801	59.22
252.018	-10.41
252.235	83.8
252.451	12.12
252.668	24.4
252.885	38.74
253.102	61.27
253.318	94.04
253.535	63.32
253.752	91.99
253.968	-34.99
254.185	-32.94
254.401	55.12
254.618	14.17
254.835	-10.41
255.051	67.41
255.268	-8.36
255.484	-2.22
255.701	55.12
255.917	22.36
256.134	44.88
256.351	51.03
256.567	-28.84
256.784	38.74
257	-30.89
257.217	57.17
257.433	42.84
257.65	75.6
257.866	53.08
258.082	28.5
258.299	-8.36
258.515	71.51
258.732	81.75
258.948	34.64
259.165	-6.31
259.381	-8.36
259.597	14.17
259.814	42.84
260.03	3.93
260.246	104.28
260.463	51.03
260.679	135
260.895	59.22
261.112	-4.27
261.328	100.18
261.544	14.17
261.761	71.51
261.977	22.36
262.193	24.4
262.409	85.84
262.626	81.75
262.842	69.46
263.058	-20.65
263.274	108.37
263.49	42.84
263.707	59.22
263.923	5.97
264.139	28.5
264.355	59.22
264.571	69.46
264.787	10.07
265.004	-18.6
265.22	-0.17
265.436	38.74
265.652	40.79
265.868	57.17
266.084	30.55
266.3	63.32
266.516	-28.84
266.732	53.08
266.948	91.99
267.164	8.02
267.38	-12.46
267.596	85.84
267.812	44.88
268.028	8.02
268.244	14.17
268.46	55.12
268.676	26.45
268.892	48.98
269.108	-34.99
269.324	-30.89
269.54	51.03
269.756	22.36
269.972	-6.31
270.188	-8.36
270.403	-0.17
270.619	44.88
270.835	51.03
271.051	69.46
271.267	-37.03
271.483	44.88
271.698	67.41
271.914	-55.47
272.13	5.97
272.346	-0.17
272.562	-0.17
272.777	26.45
272.993	-37.03
273.209	-14.51
273.425	-4.27
273.64	42.84
273.856	63.32
274.072	18.26
274.287	-18.6
274.503	5.97
274.719	22.36
274.934	3.93
275.15	5.97
275.366	16.21
275.581	10.07
275.797	14.17
276.012	48.98
276.228	1.88
276.444	-18.6
276.659	34.64
276.875	59.22
277.09	77.65
277.306	-2.22
277.521	81.75
277.737	22.36
277.952	53.08
278.168	38.74
278.383	32.6
278.599	32.6
278.814	10.07
279.03	81.75
279.245	91.99
279.461	22.36
279.676	98.13
279.892	8.02
280.107	100.18
280.322	44.88
280.538	59.22
280.753	-14.51
280.969	18.26
281.184	32.6
281.399	94.04
281.615	5.97
281.83	-18.6
282.045	59.22
282.26	24.4
282.476	8.02
282.691	20.31
282.906	53.08
283.122	71.51
283.337	22.36
283.552	42.84
283.767	36.69
283.983	26.45
284.198	48.98
284.413	18.26
284.628	-34.99
284.843	36.69
285.058	65.36
285.274	40.79
285.489	30.55
285.704	81.75
285.919	-18.6
286.134	12.12
286.349	22.36
286.564	-8.36
286.779	59.22
286.995	40.79
287.21	57.17
287.425	53.08
287.64	38.74
287.855	-0.17
288.07	-6.31
288.285	44.88
288.5	48.98
288.715	69.46
288.93	-24.75
289.145	-59.56
289.36	5.97
289.575	26.45
289.79	20.31
290.004	48.98
290.219	65.36
290.434	26.45
290.649	38.74
290.864	-18.6
291.079	28.5
291.294	85.84
291.509	10.07
291.724	61.27
291.938	-39.08
292.153	55.12
292.368	108.37
292.583	-20.65
292.798	85.84
293.012	-8.36
293.227	51.03
293.442	8.02
293.657	32.6
293.871	122.71
294.086	20.31
294.301	75.6
294.516	85.84
294.73	100.18
294.945	38.74
295.16	24.4
295.374	81.75
295.589	81.75
295.804	57.17
296.018	132.95
296.233	18.26
296.447	40.79
296.662	16.21
296.877	-2.22
297.091	122.71
297.306	5.97
297.52	22.36
297.735	75.6
297.949	-10.41
298.164	28.5
298.378	48.98
298.593	-41.13
298.807	-18.6
299.022	67.41
299.236	28.5
299.451	5.97
299.665	18.26
299.88	-30.89
300.094	63.32
300.309	20.31
300.523	51.03
300.737	98.13
300.952	71.51
301.166	16.21
301.381	46.93
301.595	59.22
301.809	-30.89
302.024	94.04
302.238	65.36
302.452	89.94
302.667	8.02
302.881	73.56
303.095	34.64
303.309	-84.14
303.524	-18.6
303.738	28.5
303.952	53.08
304.166	98.13
304.381	10.07
304.595	114.52
304.809	46.93
305.023	46.93
305.237	-4.27
305.452	-2.22
305.666	55.12
305.88	85.84
306.094	36.69
306.308	44.88
306.522	46.93
306.736	20.31
306.95	83.8
307.164	34.64
307.379	147.28
307.593	96.08
307.807	51.03
308.021	63.32
308.235	61.27
308.449	20.31
308.663	57.17
308.877	91.99
309.091	-22.7
309.305	53.08
309.519	46.93
309.733	59.22
309.947	-2.22
310.161	32.6
310.374	-41.13
310.588	104.28
310.802	-47.27
311.016	-0.17
311.23	89.94
311.444	83.8
311.658	5.97
311.872	28.5
312.085	85.84
312.299	-34.99
312.513	55.12
312.727	73.56
312.941	61.27
313.154	18.26
313.368	-18.6
313.582	20.31
313.796	79.7
314.009	57.17
314.223	67.41
314.437	63.32
314.651	48.98
314.864	1.88
315.078	-14.51
315.292	5.97
315.505	36.69
315.719	89.94
315.933	69.46
316.146	112.47
316.36	-82.09
316.573	57.17
316.787	38.74
317.001	65.36
317.214	-71.85
317.428	-8.36
317.641	10.07
317.855	-18.6
318.068	-8.36
318.282	48.98
318.495	34.64
318.709	40.79
318.922	-2.22
319.136	67.41
319.349	34.64
319.563	118.61
319.776	20.31
319.99	24.4
320.203	67.41
320.417	30.55
320.63	85.84
320.843	87.89
321.057	20.31
321.27	14.17
321.483	26.45
321.697	65.36
321.91	57.17
322.124	-10.41
322.337	85.84
322.55	81.75
322.763	79.7
322.977	3.93
323.19	36.69
323.403	46.93
323.617	61.27
323.83	-20.65
324.043	10.07
324.256	87.89
324.469	-18.6
324.683	55.12
324.896	51.03
325.109	51.03
325.322	24.4
325.535	59.22
325.748	30.55
325.962	63.32
326.175	-6.31
326.388	67.41
326.601	61.27
326.814	69.46
327.027	104.28
327.24	69.46
327.453	8.02
327.666	108.37
327.879	94.04
328.092	48.98
328.305	59.22
328.518	98.13
328.731	-16.55
328.944	22.36
329.157	94.04
329.37	-63.66
329.583	46.93
329.796	98.13
330.009	44.88
330.222	104.28
330.435	65.36
330.648	30.55
330.861	18.26
331.073	75.6
331.286	69.46
331.499	-12.46
331.712	34.64
331.925	32.6
332.138	-10.41
332.35	83.8
332.563	69.46
332.776	16.21
332.989	-28.84
333.202	-34.99
333.414	124.76
333.627	28.5
333.84	16.21
334.053	48.98
334.265	77.65
334.478	28.5
334.691	28.5
334.903	51.03
335.116	55.12
335.329	8.02
335.541	-6.31
335.754	122.71
335.966	79.7
336.179	65.36
336.392	22.36
336.604	22.36
336.817	40.79
337.029	104.28
337.242	34.64
337.454	-0.17
337.667	48.98
337.88	71.51
338.092	-65.71
338.305	32.6
338.517	38.74
338.729	79.7
338.942	67.41
339.154	-61.61
339.367	5.97
339.579	12.12
339.792	30.55
340.004	63.32
340.217	42.84
340.429	83.8
340.641	51.03
340.854	69.46
341.066	-0.17
341.278	71.51
341.491	63.32
341.703	38.74
341.915	48.98
342.128	24.4
342.34	-24.75
342.552	65.36
342.764	73.56
342.977	-0.17
343.189	65.36
343.401	79.7
343.613	-14.51
343.826	8.02
344.038	46.93
344.25	55.12
344.462	57.17
344.674	36.69
344.886	65.36
345.099	112.47
345.311	77.65
345.523	-4.27
345.735	22.36
345.947	73.56
346.159	75.6
346.371	65.36
346.583	-12.46
346.795	94.04
347.007	-22.7
347.219	71.51
347.431	-18.6
347.643	79.7
347.855	12.12
348.067	63.32
348.279	22.36
348.491	26.45
348.703	77.65
348.915	44.88
349.127	-0.17
349.339	87.89
349.551	16.21
349.763	16.21
349.975	24.4
350.187	28.5
350.399	55.12
350.61	30.55
350.822	26.45
351.034	-6.31
351.246	51.03
351.458	53.08
351.669	51.03
351.881	53.08
352.093	-10.41
352.305	-0.17
352.517	57.17
352.728	89.94
352.94	57.17
353.152	73.56
353.363	53.08
353.575	120.66
353.787	55.12
353.999	-12.46
354.21	59.22
354.422	28.5
354.633	83.8
354.845	79.7
355.057	34.64
355.268	36.69
355.48	69.46
355.692	28.5
355.903	96.08
356.115	48.98
356.326	20.31
356.538	59.22
356.749	73.56
356.961	128.85
357.172	42.84
357.384	48.98
357.595	108.37
357.807	-22.7
358.018	85.84
358.23	57.17
358.441	79.7
358.653	65.36
358.864	46.93
359.075	57.17
359.287	53.08
359.498	51.03
359.709	87.89
359.921	-0.17
360.132	14.17
360.344	73.56
360.555	81.75
360.766	77.65
360.977	73.56
361.189	24.4
361.4	-10.41
361.611	89.94
361.823	51.03
362.034	59.22
362.245	102.23
362.456	-16.55
362.667	149.33
362.879	75.6
363.09	132.95
363.301	20.31
363.512	69.46
363.723	61.27
363.935	18.26
364.146	53.08
364.357	73.56
364.568	42.84
364.779	38.74
364.99	102.23
365.201	20.31
365.412	81.75
365.623	22.36
365.834	79.7
366.045	-34.99
366.256	71.51
366.467	63.32
366.678	81.75
366.889	85.84
367.1	20.31
367.311	55.12
367.522	-34.99
367.733	16.21
367.944	44.88
368.155	34.64
368.366	77.65
368.577	81.75
368.788	22.36
368.999	55.12
369.209	38.74
369.42	73.56
369.631	42.84
369.842	69.46
370.053	51.03
370.264	22.36
370.474	85.84
370.685	48.98
370.896	108.37
371.107	67.41
371.317	130.9
371.528	46.93
371.739	44.88
371.95	-26.79
372.16	-4.27
372.371	8.02
372.582	51.03
372.792	102.23
373.003	-6.31
373.214	137.04
373.424	104.28
373.635	57.17
373.846	143.19
374.056	100.18
374.267	-10.41
374.477	98.13
374.688	22.36
374.898	55.12
375.109	-4.27
375.319	38.74
375.53	57.17
375.74	55.12
375.951	81.75
376.161	10.07
376.372	126.8
376.582	46.93
376.793	46.93
377.003	81.75
377.214	75.6
377.424	55.12
377.635	38.74
377.845	48.98
378.055	108.37
378.266	46.93
378.476	38.74
378.686	89.94
378.897	53.08
379.107	55.12
379.317	89.94
379.528	67.41
379.738	83.8
379.948	12.12
380.158	48.98
380.369	77.65
380.579	96.08
380.789	8.02
380.999	108.37
381.21	34.64
381.42	108.37
381.63	28.5
381.84	126.8
382.05	20.31
382.261	1.88
382.471	102.23
382.681	44.88
382.891	71.51
383.101	89.94
383.311	69.46
383.521	104.28
383.731	85.84
383.941	114.52
384.151	87.89
384.361	30.55
384.571	102.23
384.781	63.32
384.991	89.94
385.201	118.61
385.411	126.8
385.621	73.56
385.831	55.12
386.041	-12.46
386.251	40.79
386.461	8.02
386.671	89.94
386.881	5.97
387.091	81.75
387.301	98.13
387.511	120.66
387.72	122.71
387.93	57.17
388.14	59.22
388.35	75.6
388.56	63.32
388.769	65.36
388.979	24.4
389.189	32.6
389.399	55.12
389.609	55.12
389.818	79.7
390.028	94.04
390.238	96.08
390.447	55.12
390.657	106.32
390.867	42.84
391.076	38.74
391.286	132.95
391.496	102.23
391.705	91.99
391.915	98.13
392.125	112.47
392.334	34.64
392.544	96.08
392.753	104.28
392.963	44.88
393.172	51.03
393.382	124.76
393.591	112.47
393.801	102.23
394.01	124.76
394.22	100.18
394.429	22.36
394.639	102.23
394.848	91.99
395.058	94.04
395.267	132.95
395.477	67.41
395.686	24.4
395.895	120.66
396.105	108.37
396.314	116.56
396.524	214.87
396.733	112.47
396.942	198.48
397.152	130.9
397.361	178
397.57	149.33
397.78	36.69
397.989	186.19
398.198	165.71
398.407	128.85
398.617	112.47
398.826	59.22
399.035	151.38
399.244	141.14
399.453	128.85
399.663	59.22
399.872	167.76
400.081	171.86
400.29	192.34
400.499	159.57
400.708	184.15
400.917	102.23
401.127	114.52
401.336	126.8
401.545	171.86
401.754	143.19
401.963	106.32
402.172	112.47
402.381	141.14
402.59	180.05
402.799	165.71
403.008	100.18
403.217	173.91
403.426	163.67
403.635	128.85
403.844	118.61
404.053	184.15
404.262	155.47
404.471	206.67
404.68	159.57
404.888	161.62
405.097	223.06
405.306	200.53
405.515	204.63
405.724	178
405.933	190.29
406.142	270.16
406.35	218.96
406.559	188.24
406.768	257.87
406.977	257.87
407.185	175.95
407.394	259.92
407.603	227.15
407.812	264.02
408.02	321.36
408.229	208.72
408.438	270.16
408.646	335.7
408.855	233.3
409.064	286.54
409.272	333.65
409.481	376.66
409.69	405.33
409.898	350.03
410.107	440.14
410.315	352.08
410.524	362.32
410.733	472.91
410.941	425.81
411.15	431.95
411.358	429.9
411.567	581.45
411.775	542.54
411.984	499.53
412.192	571.21
412.401	491.34
412.609	634.7
412.818	591.69
413.026	673.61
413.234	610.12
413.443	716.62
413.651	712.52
413.86	730.95
414.068	784.2
414.276	739.15
414.485	780.11
414.693	806.73
414.901	843.59
415.11	960.33
415.318	874.31
415.526	876.36
415.734	980.81
415.943	1023.81
416.151	1068.87
416.359	1007.43
416.567	1103.68
416.776	1144.64
416.984	1091.4
417.192	1240.9
417.4	1218.37
417.608	1294.15
417.817	1251.14
418.025	1343.3
418.233	1464.13
418.441	1451.84
418.649	1468.22
418.857	1603.39
419.065	1621.82
419.273	1519.42
419.481	1718.08
419.689	1867.58
419.897	1890.1
420.105	1943.35
420.313	1959.74
420.521	1947.45
420.729	2086.71
420.937	2094.9
421.145	2232.12
421.353	2250.55
421.561	2387.76
421.769	2453.3
421.977	2492.21
422.185	2545.45
422.393	2780.97
422.601	2797.35
422.809	2791.21
423.017	3016.49
423.224	2981.67
423.432	3170.08
423.64	3190.56
423.848	3434.27
424.056	3424.03
424.263	3538.72
424.471	3510.05
424.679	3567.39
424.887	3989.27
425.094	3956.5
425.302	4024.09
425.51	4095.77
425.718	4212.5
425.925	4298.52
426.133	4425.49
426.341	4714.25
426.548	4896.52
426.756	4878.09
426.964	4978.44
427.171	5246.73
427.379	5506.82
427.586	5541.63
427.794	5738.24
428.001	5977.85
428.209	6278.9
428.417	6217.46
428.624	6590.19
428.832	6491.89
429.039	6586.1
429.247	6477.55
429.454	7159.53
429.662	7550.69
429.869	7040.75
430.076	7745.25
430.284	7503.59
430.491	7878.37
430.699	8392.41
430.906	8333.01
431.114	8447.7
431.321	8685.26
431.528	8748.75
431.736	9461.44
431.943	9885.37
432.15	9438.92
432.358	9576.13
432.565	9893.57
432.772	10225.34
432.979	10571.44
433.187	11032.24
433.394	10849.97
433.601	11714.21
433.808	11724.45
434.016	11466.41
434.223	12142.24
434.43	12818.07
434.637	12560.02
434.844	13432.46
435.052	13788.8
435.259	13475.46
435.466	13567.62
435.673	13438.6
435.88	14272.12
436.087	15410.79
436.294	15257.2
436.501	14630.52
436.708	15310.44
436.915	15699.56
437.122	16422.49
437.329	16336.48
437.537	16651.86
437.743	17030.74
437.95	16879.19
438.157	17784.39
438.364	18304.57
438.571	18538.04
438.778	18398.78
438.985	19981.86
439.192	19553.83
439.399	19926.57
439.606	19705.38
439.813	20903.45
440.02	21894.66
440.227	21540.36
440.433	21335.57
440.64	22105.6
440.847	21605.9
441.054	22580.73
441.261	23838.19
441.467	23815.66
441.674	24186.34
441.881	24862.17
442.088	25075.16
442.294	24899.03
442.501	25384.4
442.708	26093
442.914	27028.92
443.121	28036.52
443.328	27139.51
443.534	29484.44
443.741	28294.57
443.948	28280.23
444.154	30182.79
444.361	29928.84
444.568	30340.49
444.774	30332.29
444.981	30657.92
445.187	31135.1
445.394	32441.7
445.6	32435.56
445.807	35452.22
446.013	33889.62
446.22	34592.07
446.426	35923.25
446.633	36091.18
446.839	37408.03
447.046	35665.21
447.252	37987.6
447.459	38229.26
447.665	37903.63
447.871	39568.63
448.078	41135.33
448.284	39353.6
448.491	40414.44
448.697	41780.44
448.903	42722.51
449.11	42742.99
449.316	42302.67
449.522	42618.06
449.728	44287.15
449.935	44043.45
450.141	44272.82
450.347	45409.44
450.553	44143.8
450.76	44557.49
450.966	45991.06
451.172	45515.93
451.378	46564.49
451.584	45485.22
451.791	46376.08
451.997	46869.64
452.203	47355.01
452.409	47506.56
452.615	47049.86
452.821	45442.21
453.027	45251.75
453.233	47772.8
453.44	45485.22
453.646	46212.24
453.852	46183.57
454.058	47340.67
454.264	45481.12
454.47	46206.1
454.676	45429.92
454.882	47387.78
455.088	42779.85
455.294	43664.57
455.5	44430.51
455.705	44872.87
455.911	43488.45
456.117	42144.98
456.323	41600.22
456.529	39251.2
456.735	41131.23
456.941	40146.16
457.147	39441.66
457.352	38317.32
457.558	37874.96
457.764	37981.46
457.97	37231.9
458.176	36562.22
458.381	36490.54
458.587	34745.67
458.793	34846.02
458.999	33215.83
459.204	35476.79
459.41	34612.55
459.616	32183.66
459.821	32030.06
460.027	32085.36
460.233	31057.28
460.438	30047.63
460.644	30231.94
460.85	28722.59
461.055	28329.38
461.261	28175.78
461.466	26539.46
461.672	25069.01
461.878	27215.29
462.083	25607.63
462.289	25028.06
462.494	24917.47
462.7	23408.11
462.905	22638.08
463.111	23825.9
463.316	23829.99
463.522	23344.63
463.727	23582.19
463.932	23367.15
464.138	23186.93
464.343	23172.6
464.549	22476.29
464.754	23180.79
464.959	23115.25
465.165	23004.66
465.37	22033.93
465.575	21460.49
465.781	22287.87
465.986	22437.37
466.191	21550.6
466.397	21145.11
466.602	20117.03
466.807	20948.5
467.012	20866.58
467.218	20735.51
467.423	20356.64
467.628	20626.97
467.833	21323.28
468.038	20760.09
468.244	19846.69
468.449	20622.87
468.654	20260.38
468.859	19951.14
469.064	20117.03
469.269	19203.63
469.474	19572.27
469.679	19875.37
469.885	19277.36
470.09	19197.49
470.295	19250.74
470.5	18980.4
470.705	18998.84
470.91	18703.93
471.115	18308.67
471.32	18712.12
471.525	18535.99
471.73	18159.17
471.935	17983.04
472.139	17481.29
472.344	17628.74
472.549	17471.05
472.754	17489.48
472.959	16852.56
473.164	16684.63
473.369	16340.57
473.574	16948.82
473.778	16561.75
473.983	16811.6
474.188	16488.03
474.393	15924.83
474.598	16238.17
474.802	15844.96
475.007	15658.6
475.212	15910.5
475.417	15076.98
475.621	15060.59
475.826	15019.63
476.031	14818.93
476.235	14730.87
476.44	14937.71
476.645	14591.61
476.849	14562.94
477.054	14509.69
477.259	14235.26
477.463	14012.03
477.668	13635.21
477.872	13813.38
478.077	13799.04
478.282	13364.87
478.486	13217.42
478.691	13371.02
478.895	13076.11
479.1	13215.37
479.304	12893.84
479.509	12742.29
479.713	13139.6
479.918	12734.1
480.122	12652.18
480.326	12584.6
480.531	12832.4
480.735	12590.74
480.94	12347.03
481.144	12760.72
481.348	12019.36
481.553	12187.29
481.757	12129.95
481.961	12164.76
482.166	12381.85
482.37	12277.4
482.574	11955.87
482.778	12121.76
482.983	12246.68
483.187	12263.07
483.391	12273.31
483.595	12041.89
483.8	12050.08
484.004	12265.11
484.208	12293.79
484.412	12054.17
484.616	12199.58
484.821	12158.62
485.025	11798.18
485.229	12181.15
485.433	11957.92
485.637	12043.93
485.841	11970.21
486.045	11970.21
486.249	12209.82
486.453	12000.93
486.657	12076.7
486.861	12103.32
487.065	11959.97
487.269	12054.17
487.473	11697.83
487.677	12170.91
487.881	12109.47
488.085	12041.89
488.289	12207.77
488.493	12058.27
488.697	12197.53
488.901	12033.69
489.105	12205.72
489.309	12273.31
489.512	12179.1
489.716	12293.79
489.92	11978.4
490.124	12183.2
490.328	12428.95
490.531	12242.59
490.735	12404.38
490.939	12390.04
491.143	12394.14
491.346	12254.87
491.55	12676.76
491.754	12533.4
491.958	12658.32
492.161	12519.06
492.365	12660.37
492.569	12797.59
492.772	12777.11
492.976	12852.88
493.18	13051.53
493.383	13026.96
493.587	13178.51
493.79	13266.57
493.994	12981.9
494.197	13129.36
494.401	13274.76
494.605	13528.71
494.808	13555.33
495.012	13561.48
495.215	13766.28
495.419	13749.89
495.622	13594.25
495.825	13858.43
496.029	13792.9
496.232	14378.62
496.436	14089.85
496.639	14491.26
496.843	14530.17
497.046	14659.19
497.249	15146.61
497.453	14806.64
497.656	15064.69
497.859	14945.91
498.063	15294.06
498.266	15582.82
498.469	15623.78
498.673	15912.55
498.876	15808.1
499.079	16250.46
499.282	16016.99
499.485	16846.42
499.689	16627.29
499.892	16883.28
500.095	16850.52
500.298	17294.93
500.501	16946.77
500.705	17565.26
500.908	17333.84
501.111	17880.64
501.314	17866.31
501.517	18150.98
501.72	18464.32
501.923	18460.22
502.126	18912.82
502.329	19281.46
502.532	19334.7
502.735	19291.69
502.938	19738.15
503.141	19664.43
503.344	20166.18
503.547	20049.44
503.75	20147.75
503.953	20616.73
504.156	20801.05
504.359	20968.98
504.562	21239.31
504.765	21587.47
504.968	21732.87
505.17	22347.26
505.373	21919.24
505.576	22539.77
505.779	22681.08
505.982	22781.43
506.185	23115.25
506.387	23401.97
506.59	23590.38
506.793	23852.52
506.996	24012.26
507.198	24610.27
507.401	24301.03
507.604	24647.13
507.807	25132.5
508.009	25337.3
508.212	25513.42
508.415	25982.41
508.617	25998.79
508.82	26508.74
509.022	26430.91
509.225	27037.11
509.428	26947
509.63	27383.22
509.833	27542.96
510.035	27930.03
510.238	27837.87
510.44	28210.6
510.643	28515.75
510.845	28964.25
511.048	29023.64
511.25	29527.44
511.453	29744.53
511.655	30594.43
511.858	30311.81
512.06	30360.97
512.262	30858.62
512.465	30739.84
512.667	31114.62
512.87	31530.36
513.072	31675.76
513.274	32187.75
513.477	32644.45
513.679	32630.12
513.881	32965.98
514.084	33463.64
514.286	33434.97
514.488	33645.91
514.69	34704.71
514.893	34954.56
515.095	34778.43
515.297	35497.27
515.499	35331.39
515.701	35738.93
515.904	36183.34
516.106	36222.25
516.308	36619.56
516.51	37154.08
516.712	36867.36
516.914	37477.66
517.116	38259.98
517.318	38384.91
517.52	38397.2
517.722	38515.98
517.925	39070.98
518.127	39384.32
518.329	39767.29
518.531	39070.98
518.733	40475.88
518.935	41108.71
519.136	40615.15
519.338	41503.96
519.54	41116.9
519.742	42009.81
519.944	42036.44
520.146	42605.77
520.348	42644.68
520.55	42876.1
520.752	43244.74
520.954	44031.16
521.155	43773.11
521.357	44162.23
521.559	44326.06
521.761	45065.38
521.963	44967.08
522.164	45413.54
522.366	45671.58
522.568	45823.13
522.77	46013.59
522.971	46994.57
523.173	46689.42
523.375	46795.92
523.576	47033.48
523.778	47023.24
523.98	48049.27
524.181	47846.52
524.383	48071.8
524.584	48772.21
524.786	48358.52
524.988	48489.59
525.189	48534.64
525.391	49359.97
525.592	49251.43
525.794	49607.78
525.995	49599.58
526.197	49624.16
526.398	49912.92
526.6	50494.55
526.801	50443.35
527.003	50623.57
527.204	50517.07
527.406	51102.79
527.607	51301.45
527.808	51450.95
528.01	50875.47
528.211	51012.68
528.412	52419.64
528.614	51655.75
528.815	52012.09
529.016	52231.22
529.218	51930.17
529.419	52186.17
529.62	51860.54
529.822	51975.23
530.023	52606
530.224	52853.81
530.425	52642.87
530.626	52069.43
530.828	52163.64
531.029	53490.73
531.23	52606
531.431	52573.24
531.632	52995.12
531.833	53275.69
532.035	53218.35
532.236	53339.18
532.437	53371.94
532.638	53318.7
532.839	53369.89
533.04	53814.3
533.241	52915.25
533.442	53988.38
533.643	53173.29
533.844	53505.06
534.045	53732.39
534.246	52866.09
534.447	53783.58
534.648	53697.57
534.849	53632.03
535.05	53662.75
535.251	53646.37
535.451	53429.29
535.652	53640.23
535.853	54215.71
536.054	53675.04
536.255	53994.53
536.456	53605.41
536.657	54133.79
536.857	53144.62
537.058	53826.59
537.259	53998.62
537.46	54070.3
537.66	53441.57
537.861	53728.29
538.062	53769.25
538.263	53666.85
538.463	53582.88
538.664	53617.7
538.865	53986.33
539.065	54199.32
539.266	53269.54
539.466	53906.46
539.667	53328.94
539.868	53632.03
540.068	53527.59
540.269	53500.96
540.469	53941.28
540.67	53343.27
540.87	53591.08
541.071	53427.24
541.271	53652.51
541.472	53390.37
541.672	53216.3
541.873	53224.49
542.073	52954.16
542.274	53873.7
542.474	53355.56
542.675	52872.24
542.875	53902.37
543.075	53269.54
543.276	52845.61
543.476	54025.24
543.676	52767.79
543.877	53623.84
544.077	53484.58
544.277	53398.57
544.478	53285.93
544.678	53447.72
544.878	52882.48
545.078	53208.11
545.279	52968.49
545.479	52892.72
545.679	53070.89
545.879	53027.88
546.079	53242.92
546.28	52933.68
546.48	53068.84
546.68	53281.83
546.88	53621.8
547.08	53257.26
547.28	52974.64
547.48	52296.76
547.68	53527.59
547.88	52847.66
548.081	53083.18
548.281	52782.13
548.481	52853.81
548.681	53048.36
548.881	53101.61
549.081	53074.99
549.28	52855.85
549.48	53474.34
549.68	52898.86
549.88	53525.54
550.08	52718.64
550.28	53220.39
550.48	52579.38
550.68	53171.24
550.88	52321.33
551.08	53197.87
551.279	52651.06
551.479	52405.3
551.679	52755.5
551.879	52644.91
552.079	52859.95
552.278	52628.53
552.478	53060.65
552.678	52646.96
552.878	52782.13
553.077	52798.51
553.277	52407.35
553.477	53019.69
553.676	52417.59
553.876	52593.71
554.076	52454.45
554.275	52749.36
554.475	51995.71
554.674	52337.72
554.874	52892.72
555.074	52315.19
555.273	53044.27
555.473	52835.38
555.672	52233.27
555.872	52245.56
556.071	52270.14
556.271	52327.48
556.47	52005.95
556.67	51633.22
556.869	52016.19
557.068	52243.51
557.268	52020.28
557.467	52051
557.667	51997.76
557.866	51891.26
558.065	52053.05
558.265	51618.88
558.464	51502.15
558.663	52177.98
558.863	51278.92
559.062	52046.91
559.261	51156.04
559.461	52184.12
559.66	51250.25
559.859	51639.36
560.058	51067.98
560.258	51000.4
560.457	50816.08
560.656	51561.54
560.855	51018.83
561.054	51002.44
561.253	50832.46
561.453	51100.75
561.652	50961.48
561.851	50848.85
562.05	50820.17
562.249	50388.05
562.448	50740.3
562.647	50521.17
562.846	50279.51
563.045	50580.56
563.244	50347.09
563.443	50783.31
563.642	49869.92
563.841	50437.2
564.04	49945.69
564.239	50134.1
564.438	49693.79
564.637	50277.46
564.836	49841.24
565.035	49202.28
565.234	50087
565.432	49210.47
565.631	49192.04
565.83	49538.15
566.029	49284.2
566.228	49327.2
566.427	49189.99
566.625	48733.29
566.824	48604.27
567.023	48845.93
567.222	47854.72
567.42	48704.62
567.619	48882.8
567.818	48292.98
568.016	48485.49
568.215	48768.11
568.414	48112.76
568.612	48741.49
568.811	47879.29
569.01	48123
569.208	47500.42
569.407	48329.84
569.605	47168.65
569.804	47824
570.002	47250.56
570.201	47768.7
570.4	47350.91
570.598	47387.78
570.797	46773.39
570.995	47047.82
571.193	46431.38
571.392	47223.94
571.59	46716.04
571.789	46523.54
571.987	46791.82
572.186	46578.83
572.384	46269.59
572.582	46460.05
572.781	46490.77
572.979	45802.65
573.177	46025.88
573.376	46122.13
573.574	45814.94
573.772	45733.02
573.971	45409.44
574.169	45278.37
574.367	45374.62
574.565	45421.73
574.763	45249.7
574.962	45094.05
575.16	44326.06
575.358	45061.29
575.556	44362.93
575.754	45194.4
575.952	44446.9
576.151	44842.15
576.349	44129.46
576.547	44614.83
576.745	44399.79
576.943	44557.49
577.141	43531.45
577.339	44102.84
577.537	43885.75
577.735	43750.59
577.933	43556.03
578.131	43443.39
578.329	43005.13
578.527	43146.43
578.725	43283.65
578.923	43599.04
579.121	42992.84
579.319	42880.2
579.516	42937.54
579.714	42513.61
579.912	43095.24
580.11	42544.33
580.308	42939.59
580.506	42278.1
580.704	41735.38
580.901	41940.18
581.099	42349.78
581.297	41579.74
581.495	41893.08
581.692	42169.55
581.89	41512.16
582.088	41737.43
582.285	41534.68
582.483	41708.76
582.681	41467.1
582.878	41510.11
583.076	40633.58
583.274	41024.74
583.471	40527.08
583.669	40414.44
583.866	40557.8
584.064	40783.08
584.262	40250.61
584.459	40316.14
584.657	40254.7
584.854	40570.09
585.052	39376.12
585.249	39775.48
585.447	40164.59
585.644	39951.6
585.841	39267.58
586.039	39929.08
586.236	39144.7
586.434	39101.7
586.631	39326.97
586.828	39116.03
587.026	39546.11
587.223	38726.92
587.42	38411.53
587.618	38745.35
587.815	38372.62
588.012	38495.5
588.21	38159.63
588.407	38765.83
588.604	38378.76
588.801	37926.16
588.999	38153.49
589.196	37776.66
589.393	38319.37
589.59	37537.05
589.787	37305.63
589.984	37543.19
590.182	37197.09
590.379	37565.72
590.576	37322.01
590.773	37279
590.97	36953.38
591.167	36822.31
591.364	36377.9
591.561	36717.86
591.758	36265.26
591.955	36388.14
592.152	36764.96
592.349	35849.52
592.546	36257.07
592.743	36422.95
592.94	35261.76
593.137	36166.96
593.334	35732.79
593.531	35517.75
593.727	35650.87
593.924	35652.92
594.121	35091.77
594.318	35388.73
594.515	34735.43
594.712	35222.84
594.908	34946.37
595.105	35067.2
595.302	34467.14
595.499	34682.18
595.696	34379.08
595.892	34272.59
596.089	34479.43
596.286	34196.81
596.482	34344.27
596.679	34133.32
596.876	34256.2
597.072	33604.95
597.269	33875.28
597.466	33023.33
597.662	33682.77
597.859	33623.38
598.055	33547.61
598.252	33015.13
598.448	33201.5
598.645	32982.37
598.841	32699.75
599.038	32879.97
599.234	32841.06
599.431	32697.7
599.627	32417.13
599.824	32671.07
600.02	32404.84
600.217	32312.68
600.413	32394.6
600.609	31966.57
600.806	31819.12
601.002	32140.65
601.198	32066.92
601.395	31456.63
601.591	31782.26
601.787	31421.81
601.984	31380.85
602.18	31987.05
602.376	30895.49
602.572	31231.35
602.769	30973.31
602.965	30551.43
603.161	30956.92
603.357	30772.61
603.553	30446.98
603.75	30377.35
603.946	30588.29
604.142	30629.25
604.338	30297.48
604.534	30115.21
604.73	30092.68
604.926	29894.03
605.122	30002.57
605.318	29898.13
605.514	29674.9
605.71	29363.61
605.906	29681.04
606.102	29406.61
606.298	29539.73
606.494	29572.5
606.69	29167
606.886	29205.91
607.082	28802.46
607.278	29074.84
607.474	28829.09
607.67	28941.72
607.866	28601.76
608.062	29136.28
608.257	28818.85
608.453	28698.02
608.649	28726.69
608.845	28538.27
609.041	28450.21
609.236	28308.9
609.432	28419.49
609.628	28474.79
609.824	28011.95
610.019	27954.6
610.215	27899.31
610.411	28165.54
610.606	27721.13
610.802	28360.1
610.998	27858.35
611.193	27794.86
611.389	27837.87
611.584	27612.59
611.78	27565.49
611.976	27776.43
612.171	27348.4
612.367	27340.21
612.562	27119.03
612.758	26908.09
612.953	27125.18
613.149	27653.55
613.344	26910.14
613.539	27475.38
613.735	27219.38
613.93	27071.93
614.126	27432.37
614.321	27246.01
614.517	27082.17
614.712	26791.36
614.907	26623.42
615.103	26774.97
615.298	26406.34
615.493	26875.32
615.688	26187.21
615.884	26652.09
616.079	26179.01
616.274	26441.15
616.47	26398.15
616.665	26400.19
616.86	26111.43
617.055	26068.42
617.25	26054.09
617.445	26056.14
617.641	25959.88
617.836	26060.23
618.031	25675.21
618.226	25859.53
618.421	25619.92
618.616	25916.87
618.811	25284.05
619.006	25933.26
619.201	24933.85
619.396	25644.49
619.591	25148.89
619.786	25327.06
619.981	24638.94
620.176	25005.53
620.371	24491.49
620.566	24720.86
620.761	24221.16
620.956	24786.4
621.151	24065.51
621.346	24346.08
621.541	23827.95
621.735	24036.84
621.93	24122.85
622.125	23881.19
622.32	23426.54
622.515	23836.14
622.709	23174.64
622.904	23750.12
623.099	23150.07
623.294	23299.57
623.488	23174.64
623.683	23283.19
623.878	22457.85
624.072	22545.92
624.267	22615.55
624.462	22466.05
624.656	22240.77
624.851	22695.42
625.046	21997.06
625.24	21839.37
625.435	21853.7
625.629	21636.62
625.824	21626.38
626.018	21851.66
626.213	21315.09
626.407	21190.16
626.602	20977.17
626.796	21181.97
626.991	20882.97
627.185	20905.49
627.38	20690.46
627.574	20506.14
627.768	20586.01
627.963	20545.05
628.157	20045.35
628.352	20215.33
628.546	19906.09
628.74	20188.71
628.935	19777.06
629.129	20022.82
629.323	19723.82
629.517	19768.87
629.712	19332.65
629.906	19680.81
630.1	19326.51
630.294	19312.17
630.489	19041.84
630.683	19271.22
630.877	18810.42
631.071	18701.88
631.265	18671.16
631.459	18626.11
631.653	18544.19
631.848	18351.68
632.042	18220.61
632.236	18462.27
632.43	18095.68
632.624	17927.75
632.818	18060.87
633.012	17706.57
633.206	17884.74
633.4	17745.48
633.594	17382.99
633.788	17661.51
633.982	17440.33
634.176	17552.97
634.369	17247.82
634.563	17139.28
634.757	16985.68
634.951	17174.1
635.145	17108.56
635.339	16973.39
635.533	16729.69
635.726	16643.67
635.92	16336.48
636.114	16277.08
636.308	16092.77
636.501	16424.54
636.695	16246.37
636.889	15906.4
637.083	16008.8
637.276	16010.85
637.47	15904.35
637.664	15787.62
637.857	15840.87
638.051	15593.06
638.244	15486.57
638.438	15447.66
638.632	15312.49
638.825	15263.34
639.019	15337.07
639.212	15056.5
639.406	15214.19
639.599	14737.01
639.793	14866.03
639.986	14702.2
640.18	14917.23
640.373	14827.12
640.567	14573.17
640.76	14612.09
640.954	14255.74
641.147	14100.09
641.34	14294.65
641.534	13979.26
641.727	14284.41
641.92	13926.02
642.114	14165.63
642.307	14118.53
642.5	14083.71
642.694	13700.74
642.887	13549.19
643.08	13846.15
643.273	13532.81
643.467	13620.87
643.66	13311.63
643.853	13229.71
644.046	13055.63
644.239	13379.21
644.432	13008.53
644.626	13026.96
644.819	12981.9
645.012	13088.4
645.205	12953.23
645.398	12914.32
645.591	12809.87
645.784	12680.85
645.977	12576.41
646.17	12478.1
646.363	12457.62
646.556	12377.75
646.749	12443.29
646.942	12496.53
647.135	12154.52
647.328	12160.67
647.521	12271.26
647.714	12183.2
647.907	11908.77
648.099	11876
648.292	11738.79
648.485	11953.82
648.678	11804.32
648.871	11562.66
649.064	11574.95
649.256	11624.1
649.449	11490.98
649.642	11697.83
649.835	11128.49
650.027	11175.59
650.22	11212.46
650.413	11095.72
650.605	11171.5
650.798	10985.13
650.991	11130.54
651.183	11069.1
651.376	10860.21
651.568	10815.15
651.761	10784.43
651.954	10792.62
652.146	10645.17
652.339	10768.05
652.531	10546.87
652.724	10567.35
652.916	10323.64
653.109	10438.33
653.301	10286.78
653.494	10428.09
653.686	10145.47
653.879	10264.25
654.071	10426.04
654.263	10084.03
654.456	10043.07
654.648	9944.77
654.84	9606.85
655.033	9832.13
655.225	9938.62
655.417	9930.43
655.61	9674.43
655.802	9832.13
655.994	9623.23
656.186	9746.11
656.379	9565.89
656.571	9584.32
656.763	9242.31
656.955	9424.58
657.148	9438.92
657.34	9350.85
657.532	9174.73
657.724	9252.55
657.916	9123.53
658.108	9148.11
658.3	9041.61
658.492	9088.71
658.684	8967.88
658.876	8928.97
659.068	8888.01
659.26	8832.72
659.452	8924.88
659.644	8840.91
659.836	8644.31
660.028	8574.67
660.22	8570.58
660.412	8539.86
660.604	8359.64
660.796	8586.96
660.988	8333.01
661.18	8290.01
661.372	8183.51
661.563	8423.12
661.755	8036.06
661.947	8218.33
662.139	8212.18
662.331	8029.91
662.522	8089.31
662.714	7962.33
662.906	7958.24
663.097	7640.8
663.289	7876.32
663.481	7737.06
663.673	7970.52
663.864	7653.09
664.056	7761.63
664.247	7759.58
664.439	7712.48
664.631	7644.9
664.822	7384.8
665.014	7565.03
665.205	7411.43
665.397	7487.2
665.588	7423.72
665.78	7436
665.971	7300.84
666.163	7313.13
666.354	7239.4
666.546	7245.54
666.737	7194.34
666.929	7245.54
667.12	7278.31
667.311	7245.54
667.503	6936.3
667.694	6958.83
667.885	7073.51
668.077	7057.13
668.268	7007.98
668.459	6926.06
668.651	6739.69
668.842	6987.5
669.033	6891.24
669.224	6794.99
669.416	6711.02
669.607	6786.8
669.798	6469.36
669.989	6780.65
670.18	6604.53
670.371	6672.11
670.563	6598.38
670.754	6471.41
670.945	6403.83
671.136	6594.29
671.327	6459.12
671.518	6444.79
671.709	6493.94
671.9	6452.98
672.091	6518.51
672.282	6389.49
672.473	6237.94
672.664	6418.16
672.855	6348.53
673.046	6172.41
673.237	6315.76
673.428	6350.58
673.619	6135.54
673.809	6031.1
674	6303.48
674.191	6010.62
674.382	6037.24
674.573	6117.11
674.764	5953.27
674.954	5945.08
675.145	5998.33
675.336	6045.43
675.527	6072.06
675.717	6065.91
675.908	5924.6
676.099	5906.17
676.289	5897.98
676.48	5869.31
676.671	5707.52
676.861	5766.91
677.052	5648.13
677.243	5691.13
677.433	5572.35
677.624	5791.48
677.814	5619.46
678.005	5830.4
678.195	5441.28
678.386	5447.43
678.576	5443.33
678.767	5494.53
678.957	5564.16
679.148	5525.25
679.338	5580.54
679.529	5490.43
679.719	5472
679.909	5594.88
680.1	5396.23
680.29	5488.39
680.481	5371.65
680.671	5410.56
680.861	5322.5
681.052	5320.45
681.242	5416.71
681.432	5416.71
681.622	5431.04
681.813	5254.92
682.003	5332.74
682.193	5400.32
682.383	5316.36
682.573	5361.41
682.764	5228.29
682.954	5328.64
683.144	5330.69
683.334	5332.74
683.524	5097.22
683.714	5295.88
683.904	5111.56
684.094	5224.2
684.284	5115.66
684.474	5209.86
684.664	5142.28
684.854	5091.08
685.044	5015.3
685.234	5076.74
685.424	4970.25
685.614	4994.83
685.804	4929.29
685.994	4978.44
686.184	4933.39
686.374	4921.1
686.564	4697.87
686.753	4816.65
686.943	4685.58
687.133	4853.52
687.323	4804.36
687.513	4718.35
687.702	4726.54
687.892	4747.02
688.082	4724.49
688.272	4673.29
688.461	4675.34
688.651	4781.84
688.841	4511.5
689.03	4546.32
689.22	4531.98
689.41	4691.73
689.599	4544.27
689.789	4568.85
689.979	4384.53
690.168	4484.88
690.358	4493.07
690.547	4499.22
690.737	4470.55
690.926	4343.57
691.116	4243.22
691.305	4298.52
691.495	4316.95
691.684	4169.49
691.874	4372.24
692.063	4359.95
692.252	4278.04
692.442	4296.47
692.631	4159.25
692.82	4159.25
693.01	4189.97
693.199	4161.3
693.388	4132.63
693.578	4040.47
693.767	3970.84
693.956	4058.9
694.146	4124.44
694.335	4112.15
694.524	4005.66
694.713	3999.51
694.902	3886.87
695.092	4118.29
695.281	4042.52
695.47	3972.89
695.659	4011.8
695.848	4024.09
696.037	3913.5
696.226	3938.07
696.415	3958.55
696.604	3970.84
696.793	3827.48
696.982	3882.78
697.171	3796.76
697.36	3839.77
697.549	3778.33
697.738	3831.58
697.927	3804.96
698.116	3770.14
698.305	4030.23
698.494	3888.92
698.683	3690.27
698.872	3819.29
699.061	3872.54
699.25	3720.99
699.438	3655.45
699.627	3755.8
699.816	3639.07
700.005	3680.03
700.193	3673.89
700.382	3720.99
700.571	3675.93
700.76	3718.94
700.948	3622.69
701.137	3610.4
701.326	3526.43
701.514	3503.9
701.703	3651.36
701.892	3551.01
702.08	3628.83
702.269	3581.73
702.457	3530.53
702.646	3512.1
702.834	3524.38
703.023	3538.72
703.212	3524.38
703.4	3544.86
703.589	3442.46
703.777	3354.4
703.965	3505.95
704.154	3485.47
704.342	3452.7
704.531	3469.09
704.719	3428.13
704.907	3376.93
705.096	3295.01
705.284	3383.07
705.472	3520.29
705.661	3362.59
705.849	3428.13
706.037	3403.55
706.226	3409.7
706.414	3344.16
706.602	3315.49
706.79	3303.2
706.979	3448.61
707.167	3364.64
707.355	3331.87
707.543	3311.39
707.731	3389.22
707.919	3385.12
708.107	3264.29
708.296	3368.74
708.484	3354.4
708.672	3157.8
708.86	3303.2
709.048	3317.54
709.236	3270.44
709.424	3252
709.612	3252
709.8	3266.34
709.988	3186.47
710.176	3155.75
710.364	3182.37
710.551	3194.66
710.739	3241.76
710.927	3292.96
711.115	3114.79
711.303	3231.52
711.491	3184.42
711.679	3151.65
711.866	3145.51
712.054	3122.98
712.242	3147.56
712.43	3153.7
712.617	3147.56
712.805	3114.79
712.993	3127.08
713.181	3010.34
713.368	3149.61
713.556	2975.53
713.744	2936.62
713.931	3151.65
714.119	3131.17
714.306	3131.17
714.494	3047.21
714.682	3006.25
714.869	3116.84
715.057	2938.66
715.244	2946.86
715.432	3069.73
715.619	2875.18
715.807	3051.3
715.994	2944.81
716.182	2903.85
716.369	3047.21
716.556	3030.82
716.744	2877.23
716.931	2932.52
717.119	3096.36
717.306	2873.13
717.493	3026.73
717.681	3008.3
717.868	2821.93
718.055	2907.94
718.242	2893.61
718.43	2916.14
718.617	2903.85
718.804	2791.21
718.991	2805.55
719.179	2848.55
719.366	2727.72
719.553	2871.08
719.74	2785.07
719.927	2764.59
720.114	2826.03
720.301	2823.98
720.488	2789.16
720.676	2795.31
720.863	2709.29
721.05	2770.73
721.237	2791.21
721.424	2748.2
721.611	2801.45
721.798	2666.28
721.985	2774.83
722.172	2838.31
722.358	2727.72
722.545	2780.97
722.732	2709.29
722.919	2703.15
723.106	2654
723.293	2713.39
723.48	2660.14
723.667	2703.15
723.853	2606.89
724.04	2613.04
724.227	2619.18
724.414	2727.72
724.6	2641.71
724.787	2621.23
724.974	2590.51
725.161	2563.89
725.347	2590.51
725.534	2633.52
725.72	2576.17
725.907	2541.36
726.094	2647.85
726.28	2694.96
726.467	2582.32
726.653	2606.89
726.84	2465.58
727.027	2486.06
727.213	2500.4
727.4	2471.73
727.586	2654
727.773	2551.6
727.959	2572.08
728.145	2559.79
728.332	2488.11
728.518	2590.51
728.705	2522.93
728.891	2533.17
729.077	2559.79
729.264	2629.42
729.45	2500.4
729.636	2524.97
729.823	2348.85
730.009	2492.21
730.195	2492.21
730.382	2451.25
730.568	2486.06
730.754	2527.02
730.94	2516.78
731.126	2426.67
731.313	2383.66
731.499	2426.67
731.685	2551.6
731.871	2357.04
732.057	2469.68
732.243	2451.25
732.429	2441.01
732.615	2402.1
732.801	2420.53
732.987	2373.43
733.173	2451.25
733.359	2303.79
733.545	2471.73
733.731	2324.27
733.917	2365.23
734.103	2322.23
734.289	2506.54
734.475	2336.56
734.661	2367.28
734.847	2424.62
735.033	2314.03
735.219	2398
735.404	2262.83
735.59	2316.08
735.776	2299.7
735.962	2350.9
736.148	2305.84
736.333	2207.54
736.519	2408.24
736.705	2299.7
736.89	2275.12
737.076	2293.55
737.262	2281.27
737.447	2316.08
737.633	2209.59
737.819	2371.38
738.004	2236.21
738.19	2215.73
738.375	2332.47
738.561	2293.55
738.747	2205.49
738.932	2201.4
739.118	2199.35
739.303	2217.78
739.489	2225.97
739.674	2086.71
739.859	2088.76
740.045	2119.48
740.23	2164.53
740.416	2035.51
740.601	2195.25
740.786	2119.48
740.972	2133.81
741.157	2047.8
741.342	2035.51
741.528	2023.22
741.713	2117.43
741.898	2129.72
742.084	2045.75
742.269	2070.33
742.454	2096.95
742.639	2000.69
742.824	2027.32
743.01	1933.11
743.195	2033.46
743.38	1941.3
743.565	1990.45
743.75	1982.26
743.935	1957.69
744.12	1896.25
744.305	1898.3
744.49	1853.24
744.675	1914.68
744.86	1947.45
745.045	1955.64
745.23	1863.48
745.415	1926.97
745.6	1834.81
745.785	1820.47
745.97	1933.11
746.155	1847.1
746.34	1789.75
746.525	1867.58
746.71	1877.82
746.895	1775.42
747.079	1808.19
747.264	1804.09
747.449	1799.99
747.634	1732.41
747.819	1693.5
748.003	1673.02
748.188	1627.96
748.373	1812.28
748.557	1787.71
748.742	1795.9
748.927	1705.79
749.111	1683.26
749.296	1711.93
749.481	1627.96
749.665	1701.69
749.85	1584.96
750.034	1603.39
750.219	1683.26
750.404	1568.57
750.588	1623.87
750.773	1683.26
750.957	1593.15
751.141	1556.29
751.326	1455.94
751.51	1509.18
751.695	1652.54
751.879	1634.11
752.064	1595.2
752.248	1437.5
752.432	1541.95
752.617	1480.51
752.801	1443.65
752.985	1464.13
753.17	1402.69
753.354	1419.07
753.538	1474.37
753.722	1429.31
753.907	1349.44
754.091	1351.49
754.275	1308.48
754.459	1347.39
754.643	1257.28
754.828	1376.06
755.012	1374.02
755.196	1331.01
755.38	1359.68
755.564	1232.71
755.748	1281.86
755.932	1335.1
756.116	1353.54
756.3	1318.72
756.484	1242.95
756.668	1304.39
756.852	1163.08
757.036	1193.8
757.22	1201.99
757.404	1161.03
757.588	1294.15
757.772	1232.71
757.956	1185.6
758.14	1224.51
758.323	1195.84
758.507	1199.94
758.691	1173.32
758.875	1111.88
759.059	1169.22
759.242	1191.75
759.426	1021.77
759.61	1136.45
759.794	1156.93
759.977	1113.92
760.161	1101.64
760.345	1120.07
760.528	1150.79
760.712	995.14
760.895	1081.16
761.079	1068.87
761.263	1064.77
761.446	1062.73
761.63	1040.2
761.813	1064.77
761.997	1001.29
762.18	1021.77
762.364	1052.49
762.547	999.24
762.731	945.99
762.914	989
763.098	1044.29
763.281	872.26
763.464	989
763.648	1013.57
763.831	978.76
764.015	1040.2
764.198	1005.38
764.381	1060.68
764.564	1001.29
764.748	968.52
764.931	1034.05
765.114	970.57
765.297	974.66
765.481	876.36
765.664	855.88
765.847	913.22
766.03	902.98
766.213	927.56
766.397	917.32
766.58	896.84
766.763	919.37
766.946	925.51
767.129	864.07
767.312	864.07
767.495	872.26
767.678	837.45
767.861	952.13
768.044	917.32
768.227	952.13
768.41	831.3
768.593	952.13
768.776	845.64
768.959	859.98
769.142	886.6
769.324	788.3
769.507	896.84
769.69	868.17
769.873	839.5
770.056	888.65
770.239	784.2
770.421	796.49
770.604	821.06
770.787	855.88
770.97	864.07
771.152	857.93
771.335	802.63
771.518	745.29
771.7	902.98
771.883	855.88
772.066	763.72
772.248	749.39
772.431	843.59
772.613	855.88
772.796	708.43
772.978	823.11
773.161	724.81
773.343	810.82
773.526	761.67
773.708	765.77
773.891	755.53
774.073	776.01
774.256	673.61
774.438	751.43
774.621	788.3
774.803	722.76
774.985	665.42
775.168	741.19
775.35	712.52
775.532	644.94
775.715	646.99
775.897	698.19
776.079	708.43
776.261	689.99
776.444	681.8
776.626	679.75
776.808	745.29
776.99	610.12
777.173	665.42
777.355	675.66
777.537	679.75
777.719	589.64
777.901	630.6
778.083	667.47
778.265	622.41
778.447	681.8
778.629	618.32
778.811	634.7
778.993	554.83
779.175	606.03
779.357	522.06
779.539	548.68
779.721	622.41
779.903	563.02
780.085	622.41
780.267	610.12
780.449	636.75
780.631	589.64
780.812	528.21
780.994	513.87
781.176	548.68
781.358	558.92
781.54	577.36
781.721	542.54
781.903	520.01
782.085	528.21
782.267	515.92
782.448	511.82
782.63	515.92
782.812	511.82
782.993	497.49
783.175	501.58
783.357	542.54
783.538	479.05
783.72	517.97
783.901	489.29
784.083	517.97
784.264	515.92
784.446	450.38
784.627	438.09
784.809	442.19
784.99	505.68
785.172	397.14
785.353	434
785.535	438.09
785.716	462.67
785.897	454.48
786.079	376.66
786.26	376.66
786.441	448.33
786.623	331.6
786.804	380.75
786.985	395.09
787.167	505.68
787.348	450.38
787.529	374.61
787.71	405.33
787.891	393.04
788.073	431.95
788.254	370.51
788.435	395.09
788.616	390.99
788.797	380.75
788.978	317.26
789.159	405.33
789.34	454.48
789.522	354.13
789.703	390.99
789.884	397.14
790.065	341.84
790.246	366.42
790.427	329.55
790.607	384.85
790.788	296.78
790.969	384.85
791.15	292.69
791.331	427.85
791.512	350.03
791.693	307.02
791.874	388.94
792.054	304.98
792.235	319.31
792.416	331.6
792.597	341.84
792.778	368.46
792.958	272.21
793.139	331.6
793.32	380.75
793.5	294.74
793.681	313.17
793.862	319.31
794.042	292.69
794.223	288.59
794.404	356.18
794.584	290.64
794.765	257.87
794.945	229.2
795.126	290.64
795.306	257.87
795.487	280.4
795.667	274.26
795.848	333.65
796.028	259.92
796.209	323.41
796.389	319.31
796.57	315.22
796.75	268.11
796.93	280.4
797.111	270.16
797.291	255.83
797.471	296.78
797.652	257.87
797.832	235.35
798.012	280.4
798.192	249.68
798.373	255.83
798.553	266.07
798.733	196.43
798.913	266.07
799.093	169.81
799.274	317.26
799.454	309.07
799.634	266.07
799.814	286.54
799.994	266.07
800.174	253.78
800.354	284.5
800.534	206.67
800.714	214.87
800.894	153.43
801.074	194.39
801.254	282.45
801.434	251.73
801.614	208.72
801.794	216.91
801.974	591.69
802.154	247.63
802.334	237.39
802.514	192.34
802.693	126.8
802.873	237.39
803.053	198.48
803.233	178
803.413	243.54
803.592	225.11
803.772	223.06
803.952	186.19
804.131	282.45
804.311	251.73
804.491	157.52
804.67	180.05
804.85	204.63
805.03	182.1
805.209	231.25
805.389	231.25
805.568	198.48
805.748	116.56
805.928	210.77
806.107	190.29
806.287	147.28
806.466	147.28
806.646	204.63
806.825	210.77
807.004	192.34
807.184	159.57
807.363	204.63
807.543	216.91
807.722	233.3
807.901	182.1
808.081	243.54
808.26	85.84
808.439	200.53
808.619	221.01
808.798	216.91
808.977	159.57
809.156	225.11
809.336	143.19
809.515	184.15
809.694	153.43
809.873	175.95
810.052	196.43
810.231	196.43
810.411	122.71
810.59	210.77
810.769	210.77
810.948	169.81
811.127	208.72
811.306	182.1
811.485	192.34
811.664	161.62
811.843	247.63
812.022	157.52
812.201	159.57
812.38	206.67
812.559	221.01
812.737	178
812.916	48.98
813.095	130.9
813.274	151.38
813.453	165.71
813.632	221.01
813.811	169.81
813.989	153.43
814.168	130.9
814.347	108.37
814.526	153.43
814.704	167.76
814.883	124.76
815.062	163.67
815.24	114.52
815.419	124.76
815.598	118.61
815.776	89.94
815.955	132.95
816.133	85.84
816.312	147.28
816.49	89.94
816.669	79.7
816.847	130.9
817.026	77.65
817.204	130.9
817.383	186.19
817.561	161.62
817.74	120.66
817.918	165.71
818.097	139.09
818.275	102.23
818.453	114.52
818.632	141.14
818.81	188.24
818.988	110.42
819.167	149.33
819.345	91.99
819.523	124.76
819.701	83.8
819.879	79.7
820.058	91.99
820.236	163.67
820.414	141.14
820.592	153.43
820.77	116.56
820.948	16.21
821.127	96.08
821.305	157.52
821.483	110.42
821.661	182.1
821.839	57.17
822.017	46.93
822.195	112.47
822.373	94.04
822.551	98.13
822.729	128.85
822.907	91.99
823.085	139.09
823.262	114.52
823.44	94.04
823.618	130.9
823.796	151.38
823.974	87.89
824.152	71.51
824.329	132.95
824.507	139.09
824.685	118.61
824.863	100.18
825.04	102.23
825.218	139.09
825.396	122.71
825.574	42.84
825.751	28.5
825.929	73.56
826.107	149.33
826.284	96.08
826.462	102.23
826.639	32.6
826.817	108.37
826.994	135
827.172	71.51
827.349	135
827.527	57.17
827.704	116.56
827.882	73.56
828.059	22.36
828.237	53.08
828.414	55.12
828.591	51.03
828.769	-12.46
828.946	55.12
829.124	102.23
829.301	159.57
829.478	48.98
829.655	61.27
829.833	96.08
830.01	30.55
830.187	132.95
830.364	71.51
830.542	96.08
830.719	112.47
830.896	110.42
831.073	128.85
831.25	38.74
831.427	79.7
831.604	83.8
831.782	100.18
831.959	106.32
832.136	51.03
832.313	85.84
832.49	57.17
832.667	42.84
832.844	59.22
833.021	132.95
833.198	91.99
833.374	118.61
833.551	87.89
833.728	1.88
833.905	38.74
834.082	14.17
834.259	48.98
834.436	106.32
834.612	118.61
834.789	116.56
834.966	85.84
835.143	59.22
835.319	73.56
835.496	124.76
835.673	55.12
835.85	22.36
836.026	100.18
836.203	22.36
836.38	79.7
836.556	85.84
836.733	46.93
836.909	71.51
837.086	30.55
837.262	79.7
837.439	135
837.616	59.22
837.792	79.7
837.968	75.6
838.145	18.26
838.321	8.02
838.498	116.56
838.674	30.55
838.851	5.97
839.027	83.8
839.203	63.32
839.38	112.47
839.556	57.17
839.732	67.41
839.909	34.64
840.085	36.69
840.261	135
840.437	128.85
840.614	83.8
840.79	48.98
840.966	91.99
841.142	34.64
841.318	30.55
841.494	71.51
841.671	53.08
841.847	94.04
842.023	16.21
842.199	116.56
842.375	24.4
842.551	-18.6
842.727	24.4
842.903	132.95
843.079	71.51
843.255	59.22
843.431	61.27
843.607	32.6
843.783	5.97
843.959	104.28
844.134	-8.36
844.31	94.04
844.486	40.79
844.662	34.64
844.838	36.69
845.013	51.03
845.189	12.12
845.365	85.84
845.541	34.64
845.716	44.88
845.892	79.7
846.068	24.4
846.244	46.93
846.419	67.41
846.595	34.64
846.77	67.41
846.946	91.99
847.122	46.93
847.297	48.98
847.473	-24.75
847.648	44.88
847.824	-18.6
847.999	-6.31
848.175	38.74
848.35	-18.6
848.526	16.21
848.701	32.6
848.876	20.31
849.052	-10.41
849.227	51.03
849.403	44.88
849.578	63.32
849.753	-2.22
849.929	75.6
850.104	-14.51
850.279	16.21
850.454	48.98
850.63	71.51
850.805	98.13
850.98	75.6
851.155	112.47
851.33	42.84
851.505	-41.13
851.681	46.93
851.856	24.4
852.031	34.64
852.206	28.5
852.381	16.21
852.556	67.41
852.731	32.6
852.906	20.31
853.081	28.5
853.256	20.31
853.431	-18.6
853.606	-39.08
853.781	-18.6
853.956	26.45
854.131	108.37
854.305	-8.36
854.48	-4.27
854.655	48.98
854.83	14.17
855.005	10.07
855.18	12.12
855.354	8.02
855.529	20.31
855.704	61.27
855.879	44.88
856.053	63.32
856.228	65.36
856.403	-22.7
856.577	3.93
856.752	1.88
856.926	100.18
857.101	40.79
857.276	-30.89
857.45	83.8
857.625	-22.7
857.799	59.22
857.974	24.4
858.148	8.02
858.323	71.51
858.497	36.69
858.672	57.17
858.846	-10.41
859.02	18.26
859.195	18.26
859.369	48.98
859.543	-8.36
859.718	28.5
859.892	83.8
860.066	57.17
860.241	28.5
860.415	-16.55
860.589	-12.46
860.763	55.12
860.938	-22.7
861.112	-0.17
861.286	10.07
861.46	51.03
861.634	89.94
861.808	48.98
861.982	20.31
862.157	24.4
862.331	-22.7
862.505	-53.42
862.679	42.84
862.853	-14.51
863.027	20.31
863.201	8.02
863.375	-2.22
863.549	22.36
863.722	26.45
863.896	42.84
864.07	3.93
864.244	-0.17
864.418	10.07
864.592	46.93
864.766	16.21
864.939	8.02
865.113	-6.31
865.287	73.56
865.461	-26.79
865.634	-4.27
865.808	-0.17
865.982	67.41
866.156	1.88
866.329	18.26
866.503	57.17
866.676	51.03
866.85	-26.79
867.024	59.22
867.197	-22.7
867.371	51.03
867.544	34.64
867.718	5.97
867.891	32.6
868.065	5.97
868.238	73.56
868.412	55.12
868.585	-57.51
868.759	10.07
868.932	18.26
869.105	18.26
869.279	-2.22
869.452	75.6
869.625	3.93
869.799	34.64
869.972	10.07
870.145	30.55
870.319	-12.46
870.492	-51.37
870.665	55.12
870.838	20.31
871.011	-69.8
871.185	-14.51
871.358	36.69
871.531	20.31
871.704	18.26
871.877	8.02
872.05	1.88
872.223	59.22
872.396	-30.89
872.569	51.03
872.742	-43.18
872.915	20.31
873.088	26.45
873.261	-32.94
873.434	-2.22
873.607	-22.7
873.78	8.02
873.953	-6.31
874.126	-53.42
874.299	-98.47
874.471	42.84
874.644	16.21
874.817	16.21
874.99	38.74
875.163	-63.66
875.335	-37.03
875.508	8.02
875.681	40.79
875.853	-43.18
876.026	53.08
876.199	12.12
876.371	-57.51
876.544	-30.89
876.717	24.4
876.889	-0.17
877.062	44.88
877.234	-12.46
877.407	44.88
877.579	79.7
877.752	40.79
877.924	-2.22
878.097	22.36
878.269	-28.84
878.442	38.74
878.614	-10.41
878.786	-32.94
878.959	-26.79
879.131	-30.89
879.303	-26.79
879.476	-32.94
879.648	-18.6
879.82	-12.46
879.993	-8.36
880.165	-63.66
880.337	40.79
880.509	77.65
880.681	26.45
880.854	-8.36
881.026	-10.41
881.198	22.36
881.37	32.6
881.542	18.26
881.714	24.4
881.886	20.31
882.058	38.74
882.23	24.4
882.402	-39.08
882.574	-8.36
882.746	8.02
882.918	46.93
883.09	46.93
883.262	42.84
883.434	-22.7
883.606	-10.41
883.778	-16.55
883.95	10.07
884.122	18.26
884.293	71.51
884.465	-26.79
884.637	26.45
884.809	-18.6
884.98	57.17
885.152	-75.95
885.324	69.46
885.496	38.74
885.667	3.93
885.839	-0.17
886.011	55.12
886.182	26.45
886.354	-2.22
886.525	28.5
886.697	38.74
886.869	-2.22
887.04	36.69
887.212	-47.27
887.383	59.22
887.555	44.88
887.726	20.31
887.897	51.03
888.069	75.6
888.24	14.17
888.412	-16.55
888.583	73.56
888.754	73.56
888.926	-0.17
889.097	44.88
889.268	-65.71
889.44	-0.17
889.611	-63.66
889.782	-26.79
889.953	-55.47
890.125	24.4
890.296	42.84
890.467	30.55
890.638	-24.75
890.809	3.93
890.98	48.98
891.151	34.64
891.323	-28.84
891.494	-39.08
891.665	-8.36
891.836	20.31
892.007	46.93
892.178	3.93
892.349	-49.32
892.52	-0.17
892.691	46.93
892.862	53.08
893.032	-84.14
893.203	36.69
893.374	-30.89
893.545	34.64
893.716	-24.75
893.887	-71.85
894.057	16.21
894.228	-8.36
894.399	81.75
894.57	28.5
894.74	3.93
894.911	-4.27
895.082	-20.65
895.253	-2.22
895.423	-55.47
895.594	44.88
895.764	-43.18
895.935	26.45
896.106	-24.75
896.276	3.93
896.447	18.26
896.617	73.56
896.788	3.93
896.958	-8.36
897.129	75.6
897.299	26.45
897.47	12.12
897.64	3.93
897.81	-12.46
897.981	18.26
898.151	40.79
898.322	-0.17
898.492	-43.18
898.662	32.6
898.832	-14.51
899.003	26.45
899.173	-2.22
899.343	12.12
899.513	-4.27
