Data from USB4F104151__56__12-36-25-116.txt Node

Date: Fri Mar 14 12:36:25 EDT 2025
User: louis
Spectrometer: USB4F10415
Trigger mode: 4
Integration Time (sec): 2.000000E-2
Scans to average: 1
Electric dark correction enabled: true
Nonlinearity correction enabled: false
Boxcar width: 0
XAxis mode: Wavelengths
Number of Pixels in Spectrum: 3648
>>>>>Begin Spectral Data<<<<<
178.204	-86.87
178.424	-86.87
178.644	-86.87
178.864	-99.16
179.084	-148.31
179.304	5.29
179.524	27.82
179.744	19.63
179.964	42.15
180.184	-80.72
180.404	-2.9
180.624	-0.85
180.844	1.19
181.064	19.63
181.283	-15.19
181.503	27.82
181.723	-43.86
181.943	-41.81
182.163	72.87
182.383	1.19
182.602	17.58
182.822	-4.95
183.042	36.01
183.262	19.63
183.482	5.29
183.701	38.06
183.921	21.67
184.141	-37.72
184.361	79.02
184.58	74.92
184.8	19.63
185.02	-41.81
185.239	36.01
185.459	15.53
185.679	19.63
185.898	44.2
186.118	52.39
186.338	25.77
186.557	72.87
186.777	-27.48
186.997	-15.19
187.216	-37.72
187.436	72.87
187.655	50.35
187.875	81.07
188.095	-2.9
188.314	42.15
188.534	27.82
188.753	40.11
188.973	81.07
189.192	58.54
189.412	-9.05
189.631	54.44
189.851	23.72
190.07	76.97
190.29	42.15
190.509	15.53
190.729	-2.9
190.948	85.16
191.168	115.88
191.387	93.35
191.607	15.53
191.826	36.01
192.045	25.77
192.265	-62.29
192.484	-2.9
192.704	40.11
192.923	-7
193.142	60.59
193.362	50.35
193.581	13.48
193.8	62.63
194.02	1.19
194.239	40.11
194.458	23.72
194.678	111.78
194.897	-45.91
195.116	-4.95
195.335	52.39
195.555	15.53
195.774	33.96
195.993	19.63
196.212	25.77
196.432	11.43
196.651	23.72
196.87	-9.05
197.089	-19.29
197.308	40.11
197.528	33.96
197.747	54.44
197.966	40.11
198.185	85.16
198.404	17.58
198.623	76.97
198.842	72.87
199.062	-17.24
199.281	33.96
199.5	-41.81
199.719	40.11
199.938	-17.24
200.157	19.63
200.376	21.67
200.595	-23.38
200.814	17.58
201.033	54.44
201.252	13.48
201.471	29.87
201.69	52.39
201.909	44.2
202.128	70.83
202.347	109.74
202.566	-13.14
202.785	-60.24
203.004	52.39
203.223	148.65
203.442	-7
203.661	11.43
203.879	13.48
204.098	-25.43
204.317	46.25
204.536	58.54
204.755	11.43
204.974	19.63
205.193	-45.91
205.411	79.02
205.63	115.88
205.849	15.53
206.068	27.82
206.287	-2.9
206.505	42.15
206.724	31.91
206.943	29.87
207.162	-23.38
207.381	54.44
207.599	91.31
207.818	31.91
208.037	-7
208.255	-43.86
208.474	3.24
208.693	93.35
208.911	13.48
209.13	126.12
209.349	62.63
209.567	44.2
209.786	33.96
210.005	15.53
210.223	3.24
210.442	-25.43
210.661	52.39
210.879	93.35
211.098	58.54
211.316	15.53
211.535	-0.85
211.753	50.35
211.972	31.91
212.191	19.63
212.409	31.91
212.628	44.2
212.846	-2.9
213.065	15.53
213.283	33.96
213.502	3.24
213.72	60.59
213.938	111.78
214.157	17.58
214.375	38.06
214.594	-37.72
214.812	7.34
215.031	23.72
215.249	33.96
215.467	68.78
215.686	54.44
215.904	3.24
216.122	40.11
216.341	36.01
216.559	27.82
216.778	62.63
216.996	52.39
217.214	-0.85
217.432	3.24
217.651	36.01
217.869	15.53
218.087	101.55
218.306	23.72
218.524	21.67
218.742	15.53
218.96	-7
219.179	58.54
219.397	42.15
219.615	99.5
219.833	23.72
220.051	91.31
220.27	68.78
220.488	48.3
220.706	95.4
220.924	15.53
221.142	21.67
221.36	38.06
221.578	38.06
221.796	48.3
222.015	25.77
222.233	13.48
222.451	-13.14
222.669	-29.52
222.887	38.06
223.105	-99.16
223.323	1.19
223.541	46.25
223.759	54.44
223.977	48.3
224.195	103.59
224.413	79.02
224.631	-4.95
224.849	66.73
225.067	56.49
225.285	7.34
225.503	-11.09
225.721	5.29
225.939	52.39
226.157	70.83
226.375	79.02
226.592	13.48
226.81	-2.9
227.028	29.87
227.246	38.06
227.464	19.63
227.682	1.19
227.9	-37.72
228.117	9.39
228.335	-39.76
228.553	33.96
228.771	-4.95
228.989	76.97
229.206	36.01
229.424	-4.95
229.642	-70.48
229.86	40.11
230.077	-7
230.295	48.3
230.513	25.77
230.731	40.11
230.948	19.63
231.166	7.34
231.384	79.02
231.601	42.15
231.819	23.72
232.037	3.24
232.254	66.73
232.472	29.87
232.689	-15.19
232.907	33.96
233.125	9.39
233.342	81.07
233.56	52.39
233.777	56.49
233.995	-4.95
234.213	46.25
234.43	62.63
234.648	81.07
234.865	50.35
235.083	50.35
235.3	85.16
235.518	91.31
235.735	7.34
235.953	1.19
236.17	23.72
236.388	68.78
236.605	54.44
236.822	44.2
237.04	76.97
237.257	52.39
237.475	54.44
237.692	56.49
237.909	56.49
238.127	74.92
238.344	19.63
238.562	56.49
238.779	-15.19
238.996	50.35
239.214	19.63
239.431	81.07
239.648	-142.16
239.865	105.64
240.083	-7
240.3	-11.09
240.517	-9.05
240.735	33.96
240.952	79.02
241.169	17.58
241.386	62.63
241.603	-21.33
241.821	62.63
242.038	50.35
242.255	-4.95
242.472	29.87
242.689	23.72
242.907	54.44
243.124	-21.33
243.341	-58.2
243.558	27.82
243.775	60.59
243.992	5.29
244.209	83.11
244.426	31.91
244.643	46.25
244.86	50.35
245.078	62.63
245.295	46.25
245.512	70.83
245.729	-70.48
245.946	9.39
246.163	60.59
246.38	-11.09
246.597	29.87
246.814	27.82
247.031	56.49
247.248	42.15
247.464	99.5
247.681	72.87
247.898	83.11
248.115	74.92
248.332	50.35
248.549	83.11
248.766	91.31
248.983	27.82
249.2	-68.44
249.417	56.49
249.633	3.24
249.85	85.16
250.067	1.19
250.284	81.07
250.501	52.39
250.717	27.82
250.934	23.72
251.151	36.01
251.368	5.29
251.585	36.01
251.801	42.15
252.018	7.34
252.235	36.01
252.451	11.43
252.668	117.93
252.885	68.78
253.102	11.43
253.318	33.96
253.535	1.19
253.752	31.91
253.968	56.49
254.185	66.73
254.401	-17.24
254.618	105.64
254.835	1.19
255.051	23.72
255.268	50.35
255.484	46.25
255.701	74.92
255.917	136.36
256.134	-21.33
256.351	83.11
256.567	70.83
256.784	15.53
257	-54.1
257.217	50.35
257.433	44.2
257.65	89.26
257.866	25.77
258.082	-60.24
258.299	-37.72
258.515	81.07
258.732	54.44
258.948	7.34
259.165	36.01
259.381	89.26
259.597	87.21
259.814	19.63
260.03	-7
260.246	113.83
260.463	56.49
260.679	44.2
260.895	-21.33
261.112	7.34
261.328	64.68
261.544	23.72
261.761	36.01
261.977	48.3
262.193	33.96
262.409	38.06
262.626	11.43
262.842	-11.09
263.058	-11.09
263.274	21.67
263.49	-4.95
263.707	58.54
263.923	87.21
264.139	-4.95
264.355	56.49
264.571	48.3
264.787	64.68
265.004	50.35
265.22	83.11
265.436	62.63
265.652	-2.9
265.868	-27.48
266.084	19.63
266.3	103.59
266.516	15.53
266.732	66.73
266.948	13.48
267.164	21.67
267.38	-0.85
267.596	-27.48
267.812	146.6
268.028	81.07
268.244	-11.09
268.46	15.53
268.676	25.77
268.892	-7
269.108	-2.9
269.324	56.49
269.54	76.97
269.756	44.2
269.972	-11.09
270.188	-15.19
270.403	-7
270.619	-11.09
270.835	21.67
271.051	-43.86
271.267	68.78
271.483	87.21
271.698	83.11
271.914	42.15
272.13	1.19
272.346	36.01
272.562	64.68
272.777	21.67
272.993	54.44
273.209	-11.09
273.425	-7
273.64	17.58
273.856	58.54
274.072	3.24
274.287	-19.29
274.503	33.96
274.719	70.83
274.934	42.15
275.15	-2.9
275.366	5.29
275.581	-13.14
275.797	93.35
276.012	-50
276.228	3.24
276.444	46.25
276.659	13.48
276.875	105.64
277.09	-33.62
277.306	-17.24
277.521	42.15
277.737	-21.33
277.952	48.3
278.168	85.16
278.383	44.2
278.599	-54.1
278.814	89.26
279.03	-13.14
279.245	66.73
279.461	21.67
279.676	91.31
279.892	19.63
280.107	23.72
280.322	56.49
280.538	-88.92
280.753	5.29
280.969	38.06
281.184	15.53
281.399	97.45
281.615	29.87
281.83	-80.72
282.045	25.77
282.26	-25.43
282.476	87.21
282.691	33.96
282.906	95.4
283.122	64.68
283.337	50.35
283.552	17.58
283.767	11.43
283.983	5.29
284.198	1.19
284.413	54.44
284.628	-50
284.843	76.97
285.058	-11.09
285.274	19.63
285.489	81.07
285.704	50.35
285.919	-33.62
286.134	23.72
286.349	64.68
286.564	-62.29
286.779	56.49
286.995	60.59
287.21	-27.48
287.425	134.31
287.64	66.73
287.855	56.49
288.07	38.06
288.285	58.54
288.5	56.49
288.715	17.58
288.93	-19.29
289.145	50.35
289.36	83.11
289.575	42.15
289.79	23.72
290.004	91.31
290.219	-2.9
290.434	-50
290.649	23.72
290.864	38.06
291.079	-70.48
291.294	64.68
291.509	46.25
291.724	33.96
291.938	17.58
292.153	72.87
292.368	17.58
292.583	70.83
292.798	40.11
293.012	42.15
293.227	-35.67
293.442	-23.38
293.657	36.01
293.871	101.55
294.086	5.29
294.301	95.4
294.516	46.25
294.73	-23.38
294.945	-23.38
295.16	-7
295.374	19.63
295.589	76.97
295.804	9.39
296.018	64.68
296.233	42.15
296.447	-2.9
296.662	44.2
296.877	85.16
297.091	93.35
297.306	56.49
297.52	72.87
297.735	13.48
297.949	60.59
298.164	91.31
298.378	-19.29
298.593	83.11
298.807	23.72
299.022	9.39
299.236	76.97
299.451	44.2
299.665	-21.33
299.88	97.45
300.094	31.91
300.309	44.2
300.523	48.3
300.737	74.92
300.952	23.72
301.166	29.87
301.381	33.96
301.595	136.36
301.809	-7
302.024	48.3
302.238	15.53
302.452	50.35
302.667	60.59
302.881	95.4
303.095	1.19
303.309	52.39
303.524	42.15
303.738	-11.09
303.952	79.02
304.166	27.82
304.381	-58.2
304.595	85.16
304.809	-9.05
305.023	-21.33
305.237	-62.29
305.452	-13.14
305.666	48.3
305.88	113.83
306.094	42.15
306.308	52.39
306.522	7.34
306.736	66.73
306.95	103.59
307.164	58.54
307.379	15.53
307.593	44.2
307.807	58.54
308.021	52.39
308.235	83.11
308.449	-4.95
308.663	33.96
308.877	-9.05
309.091	95.4
309.305	48.3
309.519	-47.96
309.733	79.02
309.947	-0.85
310.161	81.07
310.374	15.53
310.588	68.78
310.802	-9.05
311.016	68.78
311.23	91.31
311.444	-0.85
311.658	25.77
311.872	13.48
312.085	1.19
312.299	91.31
312.513	-29.52
312.727	-50
312.941	-80.72
313.154	79.02
313.368	-17.24
313.582	3.24
313.796	-9.05
314.009	74.92
314.223	72.87
314.437	40.11
314.651	46.25
314.864	-25.43
315.078	-17.24
315.292	-43.86
315.505	87.21
315.719	64.68
315.933	87.21
316.146	113.83
316.36	62.63
316.573	62.63
316.787	-4.95
317.001	81.07
317.214	40.11
317.428	27.82
317.641	52.39
317.855	66.73
318.068	27.82
318.282	31.91
318.495	81.07
318.709	46.25
318.922	33.96
319.136	95.4
319.349	-15.19
319.563	56.49
319.776	72.87
319.99	60.59
320.203	-2.9
320.417	62.63
320.63	105.64
320.843	21.67
321.057	83.11
321.27	29.87
321.483	66.73
321.697	64.68
321.91	9.39
322.124	103.59
322.337	58.54
322.55	21.67
322.763	74.92
322.977	64.68
323.19	11.43
323.403	29.87
323.617	36.01
323.83	21.67
324.043	-2.9
324.256	54.44
324.469	-0.85
324.683	89.26
324.896	42.15
325.109	162.98
325.322	54.44
325.535	40.11
325.748	31.91
325.962	144.55
326.175	79.02
326.388	58.54
326.601	70.83
326.814	76.97
327.027	54.44
327.24	85.16
327.453	-21.33
327.666	81.07
327.879	79.02
328.092	64.68
328.305	62.63
328.518	46.25
328.731	79.02
328.944	89.26
329.157	1.19
329.37	40.11
329.583	48.3
329.796	9.39
330.009	66.73
330.222	54.44
330.435	70.83
330.648	-17.24
330.861	7.34
331.073	-9.05
331.286	42.15
331.499	-11.09
331.712	31.91
331.925	29.87
332.138	42.15
332.35	42.15
332.563	64.68
332.776	66.73
332.989	87.21
333.202	113.83
333.414	54.44
333.627	60.59
333.84	13.48
334.053	117.93
334.265	27.82
334.478	56.49
334.691	-29.52
334.903	-15.19
335.116	79.02
335.329	64.68
335.541	85.16
335.754	79.02
335.966	-4.95
336.179	89.26
336.392	31.91
336.604	23.72
336.817	89.26
337.029	87.21
337.242	40.11
337.454	68.78
337.667	36.01
337.88	33.96
338.092	13.48
338.305	68.78
338.517	-27.48
338.729	115.88
338.942	89.26
339.154	66.73
339.367	27.82
339.579	70.83
339.792	156.84
340.004	21.67
340.217	42.15
340.429	62.63
340.641	48.3
340.854	11.43
341.066	76.97
341.278	87.21
341.491	83.11
341.703	40.11
341.915	-31.57
342.128	15.53
342.34	76.97
342.552	21.67
342.764	-27.48
342.977	134.31
343.189	66.73
343.401	15.53
343.613	-9.05
343.826	122.02
344.038	21.67
344.25	-0.85
344.462	40.11
344.674	58.54
344.886	56.49
345.099	64.68
345.311	25.77
345.523	52.39
345.735	56.49
345.947	11.43
346.159	33.96
346.371	36.01
346.583	17.58
346.795	113.83
347.007	54.44
347.219	62.63
347.431	83.11
347.643	36.01
347.855	25.77
348.067	115.88
348.279	105.64
348.491	25.77
348.703	-0.85
348.915	64.68
349.127	5.29
349.339	56.49
349.551	17.58
349.763	76.97
349.975	-19.29
350.187	72.87
350.399	62.63
350.61	93.35
350.822	70.83
351.034	56.49
351.246	3.24
351.458	-0.85
351.669	99.5
351.881	52.39
352.093	50.35
352.305	1.19
352.517	72.87
352.728	25.77
352.94	76.97
353.152	42.15
353.363	72.87
353.575	72.87
353.787	58.54
353.999	50.35
354.21	46.25
354.422	15.53
354.633	23.72
354.845	72.87
355.057	21.67
355.268	122.02
355.48	50.35
355.692	7.34
355.903	62.63
356.115	19.63
356.326	13.48
356.538	56.49
356.749	13.48
356.961	38.06
357.172	-52.05
357.384	74.92
357.595	103.59
357.807	46.25
358.018	-11.09
358.23	79.02
358.441	54.44
358.653	58.54
358.864	109.74
359.075	42.15
359.287	29.87
359.498	56.49
359.709	87.21
359.921	83.11
360.132	107.69
360.344	19.63
360.555	70.83
360.766	117.93
360.977	91.31
361.189	3.24
361.4	48.3
361.611	128.17
361.823	29.87
362.034	83.11
362.245	31.91
362.456	74.92
362.667	66.73
362.879	48.3
363.09	3.24
363.301	62.63
363.512	107.69
363.723	3.24
363.935	44.2
364.146	38.06
364.357	9.39
364.568	48.3
364.779	52.39
364.99	79.02
365.201	21.67
365.412	36.01
365.623	48.3
365.834	15.53
366.045	62.63
366.256	169.13
366.467	93.35
366.678	111.78
366.889	48.3
367.1	124.07
367.311	13.48
367.522	81.07
367.733	62.63
367.944	66.73
368.155	7.34
368.366	60.59
368.577	23.72
368.788	50.35
368.999	74.92
369.209	93.35
369.42	93.35
369.631	111.78
369.842	95.4
370.053	95.4
370.264	1.19
370.474	81.07
370.685	25.77
370.896	79.02
371.107	119.98
371.317	46.25
371.528	40.11
371.739	36.01
371.95	62.63
372.16	105.64
372.371	-7
372.582	21.67
372.792	111.78
373.003	74.92
373.214	27.82
373.424	-7
373.635	25.77
373.846	115.88
374.056	99.5
374.267	97.45
374.477	140.46
374.688	38.06
374.898	46.25
375.109	109.74
375.319	50.35
375.53	21.67
375.74	38.06
375.951	33.96
376.161	113.83
376.372	140.46
376.582	66.73
376.793	66.73
377.003	109.74
377.214	56.49
377.424	93.35
377.635	31.91
377.845	7.34
378.055	101.55
378.266	3.24
378.476	91.31
378.686	93.35
378.897	85.16
379.107	1.19
379.317	76.97
379.528	23.72
379.738	128.17
379.948	76.97
380.158	81.07
380.369	72.87
380.579	74.92
380.789	81.07
380.999	64.68
381.21	58.54
381.42	76.97
381.63	31.91
381.84	68.78
382.05	85.16
382.261	89.26
382.471	101.55
382.681	48.3
382.891	134.31
383.101	162.98
383.311	144.55
383.521	74.92
383.731	60.59
383.941	62.63
384.151	87.21
384.361	91.31
384.571	79.02
384.781	15.53
384.991	103.59
385.201	134.31
385.411	105.64
385.621	95.4
385.831	99.5
386.041	115.88
386.251	15.53
386.461	70.83
386.671	132.26
386.881	60.59
387.091	62.63
387.301	5.29
387.511	40.11
387.72	48.3
387.93	76.97
388.14	44.2
388.35	122.02
388.56	68.78
388.769	21.67
388.979	132.26
389.189	56.49
389.399	52.39
389.609	109.74
389.818	113.83
390.028	101.55
390.238	146.6
390.447	74.92
390.657	138.41
390.867	95.4
391.076	40.11
391.286	87.21
391.496	109.74
391.705	119.98
391.915	107.69
392.125	79.02
392.334	95.4
392.544	46.25
392.753	42.15
392.963	64.68
393.172	165.03
393.382	74.92
393.591	113.83
393.801	91.31
394.01	197.8
394.22	81.07
394.429	79.02
394.639	66.73
394.848	52.39
395.058	138.41
395.267	33.96
395.477	83.11
395.686	62.63
395.895	156.84
396.105	242.85
396.314	95.4
396.524	54.44
396.733	136.36
396.942	81.07
397.152	126.12
397.361	111.78
397.57	109.74
397.78	140.46
397.989	107.69
398.198	193.7
398.407	132.26
398.617	205.99
398.826	138.41
399.035	105.64
399.244	130.22
399.453	158.89
399.663	148.65
399.872	253.09
400.081	203.94
400.29	122.02
400.499	193.7
400.708	154.79
400.917	97.45
401.127	214.18
401.336	201.9
401.545	171.18
401.754	148.65
401.963	158.89
402.172	220.33
402.381	134.31
402.59	175.27
402.799	138.41
403.008	218.28
403.217	181.42
403.426	195.75
403.635	148.65
403.844	171.18
404.053	162.98
404.262	199.85
404.471	175.27
404.68	238.76
404.888	160.94
405.097	130.22
405.306	234.66
405.515	226.47
405.724	232.62
405.933	210.09
406.142	242.85
406.35	216.23
406.559	304.29
406.768	236.71
406.977	345.25
407.185	289.96
407.394	267.43
407.603	275.62
407.812	326.82
408.02	339.11
408.229	312.49
408.438	298.15
408.646	380.07
408.855	392.36
409.064	332.97
409.272	388.26
409.481	480.42
409.69	396.45
409.898	453.8
410.107	302.25
410.315	439.46
410.524	521.38
410.733	515.23
410.941	488.61
411.15	511.14
411.358	498.85
411.567	552.1
411.775	523.43
411.984	523.43
412.192	574.63
412.401	732.32
412.609	732.32
412.818	670.88
413.026	681.12
413.234	773.28
413.443	781.47
413.651	793.76
413.86	894.11
414.068	896.16
414.276	967.84
414.485	957.6
414.693	984.22
414.901	988.32
415.11	900.25
415.318	1088.67
415.526	1115.29
415.734	1219.74
415.943	1219.74
416.151	1193.11
416.359	1295.51
416.567	1262.74
416.776	1229.98
416.984	1381.53
417.192	1354.9
417.4	1318.04
417.608	1492.12
417.817	1543.32
418.025	1629.33
418.233	1608.85
418.441	1754.26
418.649	1713.3
418.857	1877.13
419.065	1866.89
419.273	1819.79
419.481	2086.03
419.689	2094.22
419.897	2118.79
420.105	2219.14
420.313	2286.73
420.521	2337.93
420.729	2450.57
420.937	2458.76
421.145	2675.84
421.353	2604.16
421.561	2757.76
421.769	2768
421.977	3015.8
422.185	2878.59
422.393	3153.02
422.601	3370.1
422.809	3331.19
423.017	3460.21
423.224	3687.54
423.432	3624.05
423.64	3794.03
423.848	4004.97
424.056	3886.19
424.263	4142.19
424.471	4125.8
424.679	4287.59
424.887	4519.01
425.094	4684.9
425.302	4775.01
425.51	4779.11
425.718	5055.58
425.925	5051.49
426.133	5264.47
426.341	5416.02
426.548	5729.36
426.756	5706.84
426.964	5770.32
427.171	6294.6
427.379	6231.12
427.586	6489.16
427.794	6542.41
428.001	7150.65
428.209	7306.3
428.417	7162.94
428.624	7742.52
428.832	7584.82
429.039	7633.97
429.247	7638.07
429.454	8375.34
429.662	8793.12
429.869	8256.56
430.076	8997.92
430.284	8596.52
430.491	9104.42
430.699	9542.68
430.906	9577.5
431.114	9690.13
431.321	10054.67
431.528	10423.31
431.736	11006.98
431.943	11404.28
432.15	11176.96
432.358	11113.47
432.565	11740.15
432.772	11951.09
432.979	12223.47
433.187	12604.39
433.394	12585.96
433.601	13312.99
433.808	13538.27
434.016	13741.02
434.223	14107.6
434.43	14947.27
434.637	14652.36
434.844	15614.91
435.052	15827.9
435.259	15946.68
435.466	15905.72
435.673	15739.83
435.88	16837.55
436.087	17720.22
436.294	17503.14
436.501	17361.83
436.708	17689.5
436.915	18236.31
437.122	19137.41
437.329	19211.14
437.537	19534.72
437.743	19936.12
437.95	19827.58
438.157	20837.23
438.364	21523.3
438.571	21347.17
438.778	21504.87
438.985	23632.71
439.192	22905.68
439.399	23399.24
439.606	23077.71
439.813	24511.28
440.02	25768.74
440.227	25076.52
440.433	25066.28
440.64	25721.63
440.847	25662.24
441.054	26247.96
441.261	28017.41
441.467	27573
441.674	28408.57
441.881	29405.93
442.088	29315.82
442.294	29076.21
442.501	30063.33
442.708	30325.47
442.914	31453.9
443.121	32742.07
443.328	32015.04
443.534	34321.05
443.741	33813.16
443.948	32543.42
444.154	35445.39
444.361	34759.32
444.568	35025.56
444.774	35361.42
444.981	35814.02
445.187	36704.89
445.394	38607.45
445.6	37620.33
445.807	41038.39
446.013	39633.49
446.22	40501.82
446.426	42050.09
446.633	42418.72
446.839	43811.34
447.046	41939.5
447.252	44081.67
447.459	44534.28
447.665	44315.14
447.871	45744.62
448.078	47974.86
448.284	45668.85
448.491	46930.4
448.697	48677.32
448.903	49822.13
449.11	49545.65
449.316	49199.55
449.522	49981.87
449.728	50684.33
449.935	51421.59
450.141	51204.51
450.347	52642.18
450.553	51040.67
450.76	51505.56
450.966	53381.5
451.172	52949.38
451.378	53924.21
451.584	52957.57
451.791	54641
451.997	53645.69
452.203	55284.06
452.409	55132.51
452.615	54759.78
452.821	52730.25
453.027	52291.98
453.233	55085.41
453.44	52963.71
453.646	53674.36
453.852	54008.18
454.058	54722.92
454.264	52859.27
454.47	54088.05
454.676	52924.8
454.882	54223.22
455.088	50194.86
455.294	50723.24
455.5	51384.73
455.705	52072.85
455.911	50119.09
456.117	48861.63
456.323	48452.04
456.529	45930.99
456.735	48239.05
456.941	46993.89
457.147	46055.92
457.352	44769.79
457.558	44354.05
457.764	44575.23
457.97	43317.78
458.176	42721.82
458.381	42738.21
458.587	40147.53
458.793	40440.39
458.999	38275.68
459.204	41374.26
459.41	40294.98
459.616	37212.79
459.821	37556.85
460.027	37595.76
460.233	36936.31
460.438	34955.93
460.644	35654.28
460.85	33702.57
461.055	33235.63
461.261	33047.22
461.466	30864.08
461.672	29635.3
461.878	31904.45
462.083	29412.07
462.289	29397.74
462.494	28846.83
462.7	27738.88
462.905	27034.38
463.111	27890.43
463.316	28136.19
463.522	27220.75
463.727	27441.93
463.932	27198.22
464.138	27095.82
464.343	27288.33
464.549	26368.79
464.754	27120.4
464.959	26940.18
465.165	26759.95
465.37	25406.25
465.575	24943.41
465.781	25862.94
465.986	25985.82
466.191	25119.53
466.397	24937.26
466.602	23636.8
466.807	24513.33
467.012	24539.96
467.218	24210.23
467.423	24142.65
467.628	24044.35
467.833	25228.07
468.038	24263.48
468.244	23708.48
468.449	24664.88
468.654	23817.02
468.859	23599.94
469.064	23216.97
469.269	22723.41
469.474	22741.84
469.679	22999.88
469.885	22457.17
470.09	22491.99
470.295	22580.05
470.5	22258.52
470.705	22125.4
470.91	21877.6
471.115	21304.17
471.32	21865.31
471.525	21830.49
471.73	20953.96
471.935	20845.42
472.139	20384.63
472.344	20661.1
472.549	20523.89
472.754	20331.38
472.959	20104.06
473.164	19403.65
473.369	19307.4
473.574	20122.49
473.778	19532.67
473.983	19547.01
474.188	19327.88
474.393	18432.91
474.598	18619.28
474.802	18492.3
475.007	18203.54
475.212	18525.07
475.417	17824.67
475.621	17757.08
475.826	17531.81
476.031	17466.27
476.235	16772.01
476.44	17132.45
476.645	17111.97
476.849	16894.89
477.054	16976.81
477.259	16501.68
477.463	16593.84
477.668	16126.9
477.872	16270.26
478.077	15948.73
478.282	15836.09
478.486	15707.07
478.691	15512.51
478.895	15664.06
479.1	15160.26
479.304	15320
479.509	14734.28
479.713	15143.88
479.918	14793.67
480.122	14545.87
480.326	14867.4
480.531	14971.85
480.735	14810.06
480.94	14529.48
481.144	14853.06
481.348	14336.98
481.553	14396.37
481.757	14128.08
481.961	14486.48
482.166	14621.64
482.37	14535.63
482.574	14132.18
482.778	14275.54
482.983	14457.81
483.187	14156.75
483.391	14351.31
483.595	13982.68
483.8	14025.68
484.004	14074.84
484.208	14306.26
484.412	14023.64
484.616	14023.64
484.821	14222.29
485.025	13937.62
485.229	14404.56
485.433	14144.47
485.637	13945.81
485.841	13812.7
486.045	14031.83
486.249	14099.41
486.453	14040.02
486.657	14040.02
486.861	14134.23
487.065	13827.03
487.269	14044.12
487.473	13882.33
487.677	14296.02
487.881	14144.47
488.085	14277.58
488.289	14109.65
488.493	14056.4
488.697	14175.19
488.901	14316.5
489.105	14183.38
489.309	14386.13
489.512	14488.53
489.716	14326.74
489.92	14171.09
490.124	14277.58
490.328	14463.95
490.531	14345.17
490.735	14310.35
490.939	14691.27
491.143	14359.5
491.346	14500.81
491.55	14754.76
491.754	14590.92
491.958	14728.14
492.161	14826.44
492.365	14982.09
492.569	14941.13
492.772	14949.32
492.976	14871.5
493.18	15078.34
493.383	15242.18
493.587	15408.06
493.79	15547.33
493.994	15528.89
494.197	15444.93
494.401	15698.88
494.605	15670.2
494.808	15784.89
495.012	15907.77
495.215	16102.32
495.419	16233.39
495.622	16214.96
495.825	15983.54
496.029	16421.81
496.232	16673.71
496.436	16630.7
496.639	17056.68
496.843	16915.37
497.046	17157.03
497.249	17404.83
497.453	17671.07
497.656	17683.36
497.859	17685.4
498.063	17662.88
498.266	18480.02
498.469	17959.83
498.673	18391.95
498.876	18819.98
499.079	19006.34
499.282	18887.56
499.485	19096.46
499.689	19397.51
499.892	19639.17
500.095	19430.27
500.298	20231.03
500.501	20087.67
500.705	20620.14
500.908	20779.89
501.111	20771.69
501.314	20913
501.517	21201.77
501.72	21406.56
501.923	21793.63
502.126	21988.19
502.329	22260.57
502.532	22534.99
502.735	22365.01
502.938	22870.86
503.141	22889.29
503.344	23735.1
503.547	23094.09
503.75	23935.81
503.953	24277.82
504.156	24402.74
504.359	24781.62
504.562	24490.8
504.765	25117.48
504.968	25381.67
505.17	25676.58
505.373	25545.51
505.576	26161.95
505.779	26170.14
505.982	26567.45
506.185	27591.43
506.387	27071.25
506.59	27310.86
506.793	28146.43
506.996	27808.51
507.198	28551.93
507.401	28427
507.604	28771.06
507.807	28863.22
508.009	29483.75
508.212	29534.95
508.415	29967.07
508.617	30335.71
508.82	30800.6
509.022	30704.34
509.225	31226.57
509.428	31632.07
509.63	31445.71
509.833	31673.03
510.035	32635.58
510.238	32479.93
510.44	32979.64
510.643	33374.89
510.845	33878.69
511.048	33634.99
511.25	34091.68
511.453	34306.72
511.655	35746.44
511.858	34689.69
512.06	35269.26
512.262	35889.8
512.465	35818.12
512.667	36393.6
512.87	36450.94
513.072	36534.91
513.274	37462.64
513.477	37782.12
513.679	37835.37
513.881	38814.3
514.084	38810.2
514.286	38427.23
514.488	38840.92
514.69	40290.88
514.893	40010.31
515.095	39987.78
515.297	40665.66
515.499	40598.08
515.701	41267.76
515.904	41792.04
516.106	41974.31
516.308	41925.16
516.51	42267.17
516.712	42248.74
516.914	42920.48
517.116	43395.6
517.318	43577.87
517.52	44014.09
517.722	43858.45
517.925	44696.06
518.127	45142.52
518.329	45505.01
518.531	44972.54
518.733	46158.31
518.935	46416.36
519.136	46574.05
519.338	47387.1
519.54	47215.07
519.742	47833.55
519.944	47829.46
520.146	48777.67
520.348	48933.31
520.55	49443.26
520.752	49486.26
520.954	49979.82
521.155	49183.16
521.357	50698.66
521.559	50764.2
521.761	51012
521.963	51296.67
522.164	51630.49
522.366	51380.63
522.568	52390.28
522.77	52179.34
522.971	53297.53
523.173	52857.22
523.375	53418.36
523.576	52734.34
523.778	53346.68
523.98	54137.2
524.181	54270.32
524.383	54401.39
524.584	54554.99
524.786	55107.94
524.988	55126.37
525.189	55259.49
525.391	55685.46
525.592	55933.27
525.794	55943.51
525.995	55777.62
526.197	56256.85
526.398	56123.73
526.6	56658.25
526.801	57225.54
527.003	57065.8
527.204	57168.19
527.406	57698.62
527.607	57495.87
527.808	58106.16
528.01	57188.67
528.211	57884.98
528.412	58814.76
528.614	58224.95
528.815	58349.87
529.016	59011.37
529.218	58272.05
529.419	58599.72
529.62	58933.54
529.822	58310.96
530.023	58859.82
530.224	58978.6
530.425	58937.64
530.626	58308.91
530.828	58562.86
531.029	59695.39
531.23	59146.53
531.431	59275.55
531.632	59261.22
531.833	59719.96
532.035	59062.57
532.236	59365.66
532.437	59545.89
532.638	59302.18
532.839	59429.15
533.04	60041.49
533.241	59685.15
533.442	60240.15
533.643	60014.87
533.844	60053.78
534.045	60217.62
534.246	59353.38
534.447	60287.25
534.648	59965.72
534.849	60088.6
535.05	59296.03
535.251	59902.23
535.451	59758.87
535.652	60092.69
535.853	59885.85
536.054	60072.21
536.255	59834.65
536.456	59463.97
536.657	60440.85
536.857	59904.28
537.058	59744.54
537.259	60352.79
537.46	59846.94
537.66	59816.22
537.861	60252.44
538.062	59685.15
538.263	59889.94
538.463	59646.24
538.664	59666.72
538.865	59844.89
539.065	60346.64
539.266	59650.33
539.466	60330.26
539.667	59463.97
539.868	60268.82
540.068	59703.58
540.269	59935
540.469	59842.84
540.67	59400.48
540.87	60049.69
541.071	59873.56
541.271	59824.41
541.472	59476.26
541.672	59064.61
541.873	59300.13
542.073	59021.61
542.274	59949.34
542.474	59455.78
542.675	59429.15
542.875	59898.14
543.075	59891.99
543.276	59066.66
543.476	59830.55
543.676	59230.5
543.877	59998.49
544.077	59103.52
544.277	59734.3
544.478	59558.17
544.678	59578.65
544.878	59646.24
545.078	59468.06
545.279	59293.99
545.479	59267.36
545.679	59375.9
545.879	58745.13
546.079	59353.38
546.28	59017.51
546.48	58814.76
546.68	59279.65
546.88	59552.03
547.08	59441.44
547.28	59310.37
547.48	58609.96
547.68	59056.42
547.88	58532.14
548.081	59242.79
548.281	59322.66
548.481	59070.76
548.681	59629.85
548.881	58546.48
549.081	59263.27
549.28	58689.84
549.48	59353.38
549.68	58726.7
549.88	59023.65
550.08	58835.24
550.28	59257.12
550.48	59140.39
550.68	59109.67
550.88	59085.09
551.08	58730.79
551.279	58974.5
551.479	58704.17
551.679	58941.74
551.879	58591.53
552.079	59021.61
552.278	58564.91
552.478	58806.57
552.678	58800.43
552.878	58679.6
553.077	58374.45
553.277	58138.93
553.477	59529.5
553.676	58945.83
553.876	58784.04
554.076	58655.02
554.275	58218.8
554.475	58165.56
554.674	58827.05
554.874	58149.17
555.074	58378.54
555.273	58501.42
555.473	58921.26
555.672	58149.17
555.872	58439.98
556.071	58425.65
556.271	58855.72
556.47	57921.85
556.67	57831.74
556.869	57604.41
557.068	58421.55
557.268	57788.73
557.467	57817.4
557.667	58034.49
557.866	58341.68
558.065	57921.85
558.265	57911.61
558.464	57469.25
558.663	57749.82
558.863	57303.36
559.062	58183.99
559.261	57336.13
559.461	57870.65
559.66	56791.37
559.859	57567.55
560.058	57147.71
560.258	57573.69
560.457	56949.06
560.656	57551.16
560.855	57135.43
561.054	57370.94
561.253	56791.37
561.453	57092.42
561.652	57358.66
561.851	57340.22
562.05	56566.09
562.249	56363.34
562.448	57233.73
562.647	56633.67
562.846	56635.72
563.045	56629.58
563.244	56070.48
563.443	56869.19
563.642	55990.61
563.841	56328.53
564.04	55882.07
564.239	56381.77
564.438	55810.39
564.637	56037.72
564.836	56357.2
565.035	55472.48
565.234	56369.49
565.432	55638.36
565.631	55202.14
565.83	55562.59
566.029	55251.3
566.228	55089.51
566.427	55222.62
566.625	54985.06
566.824	54329.71
567.023	55206.24
567.222	54505.83
567.42	54972.77
567.619	55015.78
567.818	54514.03
568.016	54276.46
568.215	54624.62
568.414	54397.29
568.612	54899.04
568.811	54542.7
569.01	54354.29
569.208	53770.61
569.407	54229.36
569.605	53600.63
569.804	54092.15
570.002	53328.25
570.201	53787
570.4	53406.08
570.598	53326.2
570.797	53375.36
570.995	53211.52
571.193	52734.34
571.392	53344.64
571.59	52607.37
571.789	53186.94
571.987	52615.56
572.186	52668.81
572.384	52251.02
572.582	52601.22
572.781	52466.06
572.979	51841.43
573.177	52281.74
573.376	52341.13
573.574	51622.29
573.772	51978.64
573.971	51859.86
574.169	51736.98
574.367	51521.94
574.565	51417.5
574.763	51159.45
574.962	51356.06
575.16	50649.51
575.358	51278.24
575.556	50792.87
575.754	51390.87
575.952	50416.04
576.151	50889.12
576.349	50217.39
576.547	50452.9
576.745	50342.31
576.943	50301.36
577.141	50270.64
577.339	50268.59
577.537	50209.2
577.735	49912.24
577.933	49422.78
578.131	50018.74
578.329	49265.08
578.527	49228.22
578.725	49111.49
578.923	49617.33
579.121	48873.92
579.319	49000.89
579.516	49365.43
579.714	48732.61
579.912	48775.62
580.11	48464.33
580.308	48927.17
580.506	48325.07
580.704	47950.29
580.901	48237
581.099	48585.16
581.297	47847.89
581.495	47833.55
581.692	47931.86
581.89	47962.57
582.088	48329.16
582.285	47397.34
582.483	47423.96
582.681	47575.51
582.878	47460.82
583.076	47135.2
583.274	47481.3
583.471	46348.78
583.669	47122.91
583.866	46258.66
584.064	46914.01
584.262	46180.84
584.459	46760.42
584.657	46221.8
584.854	46604.77
585.052	45969.9
585.249	46350.82
585.447	46092.78
585.644	45539.83
585.841	45758.96
586.039	46168.55
586.236	45093.37
586.434	45046.27
586.631	45152.76
586.828	45195.77
587.026	44780.03
587.223	44925.44
587.42	44648.96
587.618	44403.21
587.815	44229.13
588.012	44157.45
588.21	43717.14
588.407	44526.08
588.604	43751.95
588.801	44050.95
588.999	44067.34
589.196	43840.01
589.393	43477.52
589.59	43512.34
589.787	43401.75
589.984	43379.22
590.182	42508.83
590.379	43461.14
590.576	42633.76
590.773	42836.51
590.97	42613.28
591.167	42658.34
591.364	41996.84
591.561	41925.16
591.758	41947.69
591.955	42183.21
592.152	42189.35
592.349	42209.83
592.546	41681.45
592.743	41605.68
592.94	41177.65
593.137	41505.33
593.334	41515.57
593.531	40784.44
593.727	41191.99
593.924	41071.16
594.121	40630.85
594.318	41173.56
594.515	40776.25
594.712	40557.12
594.908	40317.51
595.105	40639.04
595.302	40182.34
595.499	40282.69
595.696	39983.69
595.892	39553.62
596.089	39983.69
596.286	40268.36
596.482	39514.7
596.679	39580.24
596.876	39567.95
597.072	39395.92
597.269	39184.98
597.466	38867.55
597.662	38603.36
597.859	39191.12
598.055	38969.94
598.252	38603.36
598.448	38341.22
598.645	38345.31
598.841	38117.99
599.038	38183.52
599.234	38335.07
599.431	37835.37
599.627	37855.85
599.824	38021.73
600.02	37528.17
600.217	37931.62
600.413	37356.14
600.609	37284.47
600.806	37065.33
601.002	37081.72
601.198	37149.3
601.395	37044.85
601.591	36567.68
601.787	36528.77
601.984	36657.79
602.18	36645.5
602.376	36629.12
602.572	35953.29
602.769	36176.51
602.965	36117.12
603.161	36166.27
603.357	35568.27
603.553	35867.27
603.75	35605.13
603.946	35416.72
604.142	35609.23
604.338	34667.16
604.534	35222.16
604.73	35336.85
604.926	34841.24
605.122	35125.91
605.318	34636.44
605.514	34839.19
605.71	34433.69
605.906	34536.09
606.102	34837.14
606.298	34681.5
606.494	34282.14
606.69	34218.66
606.886	34603.67
607.082	33821.35
607.278	33821.35
607.474	33845.93
607.67	34243.23
607.866	33520.3
608.062	34120.35
608.257	33602.22
608.453	33376.94
608.649	33526.44
608.845	33241.78
609.041	33219.25
609.236	33276.59
609.432	33249.97
609.628	33391.28
609.824	33145.52
610.019	32875.19
610.215	33163.95
610.411	33051.31
610.606	32914.1
610.802	32633.53
610.998	32842.42
611.193	32783.03
611.389	32359.1
611.584	32197.31
611.78	32363.2
611.976	32430.78
612.171	32150.21
612.367	32258.75
612.562	32045.76
612.758	31953.6
612.953	32074.43
613.149	32287.42
613.344	31998.66
613.539	32189.12
613.735	31773.38
613.93	31988.42
614.126	31595.21
614.321	31961.79
614.517	31804.1
614.712	31496.91
614.907	31554.25
615.103	31507.15
615.298	31566.54
615.493	31611.59
615.688	31050.45
615.884	31765.19
616.079	31011.54
616.274	31277.77
616.47	30974.67
616.665	30913.23
616.86	30548.7
617.055	30982.87
617.25	30622.42
617.445	30733.01
617.641	30520.02
617.836	30970.58
618.031	30376.67
618.226	30569.18
618.421	30276.32
618.616	30374.62
618.811	29704.93
619.006	30372.57
619.201	29663.97
619.396	30075.62
619.591	29577.96
619.786	30141.15
619.981	29242.09
620.176	29782.76
620.371	29094.64
620.566	29090.54
620.761	29025.01
620.956	28975.86
621.151	28343.03
621.346	28836.59
621.541	28508.92
621.735	28302.07
621.93	28474.1
622.125	28291.83
622.32	27661.06
622.515	27937.54
622.709	27405.06
622.904	27726.6
623.099	27351.82
623.294	27321.1
623.488	27294.47
623.683	26997.52
623.878	26727.19
624.072	26952.46
624.267	26473.24
624.462	26612.5
624.656	26317.59
624.851	26438.42
625.046	26133.28
625.24	26000.16
625.435	26030.88
625.629	25699.11
625.824	25547.56
626.018	25527.08
626.213	25105.2
626.407	25121.58
626.602	24808.24
626.796	24879.92
626.991	24847.15
627.185	24646.45
627.38	24490.8
627.574	24298.3
627.768	24230.71
627.963	24185.66
628.157	23835.45
628.352	24056.64
628.546	23698.24
628.74	23620.42
628.935	23327.56
629.129	23456.58
629.323	23036.75
629.517	23280.46
629.712	23102.28
629.906	22717.26
630.1	22555.47
630.294	22520.66
630.489	22479.7
630.683	22780.75
630.877	22121.31
631.071	21836.64
631.265	22221.66
631.459	22162.26
631.653	21791.58
631.848	21767.01
632.042	21513.06
632.236	21734.24
632.43	21308.26
632.624	21431.14
632.818	21240.68
633.012	21173.1
633.206	20999.02
633.4	20999.02
633.594	20732.78
633.788	20908.91
633.982	20423.54
634.176	20763.5
634.369	20411.25
634.563	20114.3
634.757	20261.75
634.951	20077.43
635.145	20265.85
635.339	20124.54
635.533	19706.75
635.726	19794.81
635.92	19444.61
636.114	19473.28
636.308	19454.85
636.501	19571.58
636.695	19235.72
636.889	18944.91
637.083	18805.64
637.276	18625.42
637.47	18617.23
637.664	18701.2
637.857	18613.13
638.051	18355.09
638.244	18373.52
638.438	18500.5
638.632	18307.99
638.825	17867.67
639.019	17877.91
639.212	18013.08
639.406	17945.5
639.599	17789.85
639.793	17636.25
639.986	17474.46
640.18	17597.34
640.373	17544.09
640.567	17281.95
640.76	17296.29
640.954	16956.33
641.147	16765.87
641.34	16862.12
641.534	16937.9
641.727	16919.46
641.92	17028.01
642.114	16462.77
642.307	16677.8
642.5	16427.95
642.694	16124.85
642.887	16147.38
643.08	16368.56
643.273	16135.09
643.467	15774.65
643.66	15905.72
643.853	15684.54
644.046	15709.11
644.239	15320
644.432	15711.16
644.626	15602.62
644.819	15363.01
645.012	15324.1
645.205	15154.12
645.398	15305.67
645.591	14969.8
645.784	15143.88
645.977	14742.47
646.17	15066.05
646.363	14699.47
646.556	14695.37
646.749	14767.05
646.942	14840.78
647.135	14599.12
647.328	14373.84
647.521	14451.66
647.714	14201.81
647.907	14193.62
648.099	13908.95
648.292	14210
648.485	13962.2
648.678	13888.47
648.871	13804.5
649.064	13728.73
649.256	13722.59
649.449	13573.08
649.642	13693.91
649.835	13347.81
650.027	13472.73
650.22	13364.19
650.413	13120.48
650.605	13052.9
650.798	13050.85
650.991	13116.39
651.183	12815.34
651.376	12852.2
651.568	12868.58
651.761	12844.01
651.954	12702.7
652.146	12602.35
652.339	12469.23
652.531	12499.95
652.724	12424.17
652.916	12121.07
653.109	12264.43
653.301	12139.51
653.494	12297.2
653.686	11869.17
653.879	12385.26
654.071	12076.02
654.263	11959.28
654.456	11996.15
654.648	11828.21
654.84	11711.48
655.033	11772.92
655.225	11666.42
655.417	11750.39
655.61	11615.23
655.802	11439.1
655.994	11275.26
656.186	11453.44
656.379	11498.49
656.571	11365.37
656.763	11078.66
656.955	11084.8
657.148	11156.48
657.34	11019.27
657.532	10894.34
657.724	10728.45
657.916	10626.06
658.108	10734.6
658.3	10601.48
658.492	10810.37
658.684	10437.64
658.876	10546.19
659.068	10374.16
659.26	10601.48
659.452	10542.09
659.644	10486.79
659.836	10175.5
660.028	10310.67
660.22	10026
660.412	10275.85
660.604	10167.31
660.796	10007.57
660.988	10038.29
661.18	9761.81
661.372	9821.2
661.563	9874.45
661.755	9645.08
661.947	9577.5
662.139	9763.86
662.331	9577.5
662.522	9419.8
662.714	9520.15
662.906	9462.81
663.097	9483.29
663.289	9362.46
663.481	9249.82
663.673	9333.79
663.864	9155.61
664.056	9002.02
664.247	9174.05
664.439	9008.16
664.631	8870.95
664.822	9198.62
665.014	9026.59
665.205	9042.98
665.397	8799.27
665.588	8643.62
665.78	8928.29
665.971	8598.57
666.163	8700.97
666.354	8762.4
666.546	8627.24
666.737	8477.74
666.929	8526.89
667.12	8551.46
667.311	8447.02
667.503	8260.65
667.694	8322.09
667.885	8418.35
668.077	8184.88
668.268	8141.87
668.459	8086.58
668.651	8066.1
668.842	7937.07
669.033	7951.41
669.224	7945.27
669.416	7922.74
669.607	7980.08
669.798	7949.36
669.989	7937.07
670.18	7779.38
670.371	7836.72
670.563	7595.06
670.754	7820.34
670.945	7672.89
671.136	7500.86
671.327	7593.01
671.518	7529.53
671.709	7650.36
671.9	7437.37
672.091	7519.29
672.282	7355.45
672.473	7322.68
672.664	7353.4
672.855	7115.84
673.046	7326.78
673.237	7480.38
673.428	7248.96
673.619	7060.54
673.809	7113.79
674	7167.04
674.191	7154.75
674.382	7214.14
674.573	7076.93
674.764	7064.64
674.954	7126.08
675.145	6906.95
675.336	6952
675.527	6704.2
675.717	6851.65
675.908	6747.2
676.099	6741.06
676.289	6945.86
676.48	6792.26
676.671	6593.61
676.861	6829.12
677.052	6634.57
677.243	6653
677.433	6655.05
677.624	6663.24
677.814	6671.43
678.005	6487.11
678.195	6616.13
678.386	6394.95
678.576	6507.59
678.767	6384.71
678.957	6415.43
679.148	6403.14
679.338	6415.43
679.529	6376.52
679.719	6384.71
679.909	6380.62
680.1	6485.06
680.29	6224.97
680.481	6292.55
680.671	6194.25
680.861	6069.33
681.052	5993.55
681.242	6196.3
681.432	6130.77
681.622	6145.1
681.813	6216.78
682.003	6165.58
682.193	6083.66
682.383	5977.17
682.573	6106.19
682.764	5905.49
682.954	5995.6
683.144	6057.04
683.334	5948.5
683.524	6095.95
683.714	5819.47
683.904	5758.03
684.094	5940.3
684.284	5710.93
684.474	5850.19
684.664	5755.99
684.854	5887.06
685.044	5665.88
685.234	5786.71
685.424	5626.96
685.614	5614.68
685.804	5534.81
685.994	5719.12
686.184	5702.74
686.374	5420.12
686.564	5524.57
686.753	5502.04
686.943	5387.35
687.133	5532.76
687.323	5454.94
687.513	5528.66
687.702	5434.46
687.892	5192.8
688.082	5395.54
688.272	5432.41
688.461	5254.23
688.651	5264.47
688.841	5184.6
689.03	5387.35
689.22	5092.44
689.41	5168.22
689.599	5258.33
689.789	5166.17
689.979	5076.06
690.168	5010.53
690.358	5172.32
690.547	5051.49
690.737	5024.86
690.926	5004.38
691.116	4949.09
691.305	4772.96
691.495	4965.47
691.684	4840.54
691.874	4836.45
692.063	4748.39
692.252	4834.4
692.442	4697.19
692.631	4576.36
692.82	4713.57
693.01	4725.86
693.199	4701.28
693.388	4648.04
693.578	4629.6
693.767	4639.84
693.956	4555.88
694.146	4566.12
694.335	4596.84
694.524	4691.04
694.713	4408.42
694.902	4533.35
695.092	4529.25
695.281	4516.97
695.47	4449.38
695.659	4459.62
695.848	4375.66
696.037	4562.02
696.226	4467.81
696.415	4473.96
696.604	4303.98
696.793	4377.7
696.982	4271.21
697.171	4240.49
697.36	4353.13
697.549	4224.11
697.738	4283.5
697.927	4375.66
698.116	4166.76
698.305	4310.12
698.494	4291.69
698.683	4164.72
698.872	4142.19
699.061	4213.87
699.25	4119.66
699.438	4039.79
699.627	4115.56
699.816	4242.54
700.005	4195.43
700.193	4213.87
700.382	4023.41
700.571	4043.88
700.76	4025.45
700.948	4125.8
701.137	3968.11
701.326	3980.4
701.514	3914.86
701.703	4023.41
701.892	3847.28
702.08	3902.58
702.269	4060.27
702.457	3980.4
702.646	3892.34
702.834	3918.96
703.023	3949.68
703.212	3884.14
703.4	3908.72
703.589	3777.65
703.777	3916.91
703.965	3814.51
704.154	3855.47
704.342	3978.35
704.531	3837.04
704.719	3929.2
704.907	3789.94
705.096	3812.46
705.284	3851.38
705.472	3818.61
705.661	3699.83
705.849	3732.59
706.037	3744.88
706.226	3683.44
706.414	3804.27
706.602	3726.45
706.79	3640.44
706.979	3632.24
707.167	3642.48
707.355	3662.96
707.543	3642.48
707.731	3673.2
707.919	3716.21
708.107	3630.2
708.296	3521.65
708.484	3492.98
708.672	3499.13
708.86	3562.61
709.048	3552.37
709.236	3535.99
709.424	3675.25
709.612	3581.04
709.8	3542.13
709.988	3544.18
710.176	3523.7
710.364	3642.48
710.551	3546.23
710.739	3533.94
710.927	3505.27
711.115	3384.44
711.303	3495.03
711.491	3456.12
711.679	3423.35
711.866	3284.09
712.054	3378.3
712.242	3429.49
712.43	3478.65
712.617	3511.41
712.805	3392.63
712.993	3464.31
713.181	3304.57
713.368	3449.97
713.556	3296.38
713.744	3335.29
713.931	3505.27
714.119	3282.04
714.306	3337.34
714.494	3333.24
714.682	3214.46
714.869	3153.02
715.057	3292.28
715.244	3226.75
715.432	3443.83
715.619	3198.07
715.807	3196.03
715.994	3230.84
716.182	3206.27
716.369	3206.27
716.556	3292.28
716.744	3363.96
716.931	3136.63
717.119	3159.16
717.306	3144.83
717.493	3177.59
717.681	3134.59
717.868	3163.26
718.055	3167.35
718.242	3142.78
718.43	3067
718.617	3089.53
718.804	2993.28
718.991	3093.63
719.179	3126.39
719.366	3101.82
719.553	3044.48
719.74	3112.06
719.927	3089.53
720.114	2937.98
720.301	3007.61
720.488	2890.88
720.676	3134.59
720.863	3040.38
721.05	3003.52
721.237	3032.19
721.424	3030.14
721.611	3007.61
721.798	3003.52
721.985	2878.59
722.172	2851.97
722.358	2872.45
722.545	2985.09
722.732	2907.26
722.919	2960.51
723.106	2886.78
723.293	3007.61
723.48	2950.27
723.667	2995.32
723.853	2868.35
724.04	2808.96
724.227	2866.3
724.414	2798.72
724.6	2851.97
724.787	2946.17
724.974	2905.21
725.161	2872.45
725.347	2778.24
725.534	2909.31
725.72	2743.42
725.907	2823.3
726.094	2823.3
726.28	2737.28
726.467	2739.33
726.653	2714.75
726.84	2675.84
727.027	2860.16
727.213	2718.85
727.4	2929.79
727.586	2909.31
727.773	2733.18
727.959	2753.66
728.145	2745.47
728.332	2780.29
728.518	2800.77
728.705	2720.9
728.891	2595.97
729.077	2727.04
729.264	2653.31
729.45	2655.36
729.636	2727.04
729.823	2673.79
730.009	2669.7
730.195	2663.55
730.382	2768
730.568	2665.6
730.754	2655.36
730.94	2610.31
731.126	2677.89
731.313	2673.79
731.499	2729.09
731.685	2665.6
731.871	2747.52
732.057	2784.38
732.243	2718.85
732.429	2620.55
732.615	2681.99
732.801	2530.44
732.987	2675.84
733.173	2653.31
733.359	2595.97
733.545	2735.23
733.731	2600.07
733.917	2585.73
734.103	2630.79
734.289	2598.02
734.475	2602.11
734.661	2657.41
734.847	2548.87
735.033	2643.07
735.219	2520.2
735.404	2722.95
735.59	2491.52
735.776	2466.95
735.962	2448.52
736.148	2542.72
736.333	2471.04
736.519	2583.68
736.705	2454.66
736.89	2546.82
737.076	2507.91
737.262	2454.66
737.447	2460.81
737.633	2538.63
737.819	2497.67
738.004	2462.85
738.19	2559.11
738.375	2477.19
738.561	2382.98
738.747	2415.75
738.932	2569.35
739.118	2356.36
739.303	2385.03
739.489	2387.08
739.674	2227.34
739.859	2399.37
740.045	2395.27
740.23	2331.78
740.416	2260.1
740.601	2327.69
740.786	2286.73
740.972	2325.64
741.157	2337.93
741.342	2311.3
741.528	2282.63
741.713	2319.5
741.898	2213
742.084	2235.53
742.269	2206.86
742.454	2241.67
742.639	2274.44
742.824	2276.49
743.01	2260.1
743.195	2243.72
743.38	2186.38
743.565	2077.83
743.75	2200.71
743.935	2126.99
744.12	2213
744.305	2217.1
744.49	2069.64
744.675	2079.88
744.86	2106.51
745.045	2106.51
745.23	2104.46
745.415	2102.41
745.6	2194.57
745.785	2129.03
745.97	2040.97
746.155	1995.92
746.34	2020.49
746.525	2079.88
746.71	1924.24
746.895	2008.2
747.079	1965.2
747.264	1944.72
747.449	2036.88
747.634	2012.3
747.819	1987.72
748.003	1959.05
748.188	1905.81
748.373	1866.89
748.557	1877.13
748.742	1856.65
748.927	1850.51
749.111	1868.94
749.296	1807.5
749.481	1827.98
749.665	1864.85
749.85	1797.26
750.034	1846.41
750.219	1838.22
750.404	1727.63
750.588	1784.98
750.773	1741.97
750.957	1660.05
751.141	1721.49
751.326	1674.39
751.51	1741.97
751.695	1701.01
751.879	1678.48
752.064	1772.69
752.248	1635.47
752.432	1674.39
752.617	1698.96
752.801	1645.71
752.985	1614.99
753.17	1649.81
753.354	1619.09
753.538	1647.76
753.722	1557.65
753.907	1455.25
754.091	1483.92
754.275	1524.88
754.459	1473.68
754.643	1502.36
754.828	1547.41
755.012	1580.18
755.196	1469.59
755.38	1445.01
755.564	1516.69
755.748	1483.92
755.932	1365.14
756.116	1428.63
756.3	1365.14
756.484	1479.83
756.668	1365.14
756.852	1320.09
757.036	1406.1
757.22	1266.84
757.404	1338.52
757.588	1377.43
757.772	1340.57
757.956	1309.85
758.14	1393.81
758.323	1291.41
758.507	1356.95
758.691	1293.46
758.875	1365.14
759.059	1318.04
759.242	1307.8
759.426	1313.94
759.61	1266.84
759.794	1258.65
759.977	1315.99
760.161	1303.7
760.345	1117.34
760.528	1211.54
760.712	1244.31
760.895	1219.74
761.079	1199.26
761.263	1127.58
761.446	1209.5
761.63	1215.64
761.813	1217.69
761.997	1133.72
762.18	1154.2
762.364	1146.01
762.547	1125.53
762.731	1195.16
762.914	1146.01
763.098	1078.43
763.281	1117.34
763.464	1127.58
763.648	1084.57
763.831	1051.8
764.015	1045.66
764.198	1057.95
764.381	1027.23
764.564	1211.54
764.748	1088.67
764.931	1146.01
765.114	1100.95
765.297	1107.1
765.481	1103
765.664	1025.18
765.847	1027.23
766.03	1059.99
766.213	1002.65
766.397	1158.3
766.58	1016.99
766.763	1053.85
766.946	1016.99
767.129	1064.09
767.312	963.74
767.495	1014.94
767.678	918.68
767.861	1051.8
768.044	959.64
768.227	1000.6
768.41	1006.75
768.593	1027.23
768.776	1041.56
768.959	916.64
769.142	1043.61
769.324	1023.13
769.507	945.31
769.69	1043.61
769.873	1006.75
770.056	898.2
770.239	890.01
770.421	1002.65
770.604	926.88
770.787	914.59
770.97	945.31
771.152	859.29
771.335	976.03
771.518	941.21
771.7	949.4
771.883	875.68
772.066	1043.61
772.248	867.49
772.431	912.54
772.613	906.4
772.796	943.26
772.978	904.35
773.161	920.73
773.343	877.73
773.526	920.73
773.708	853.15
773.891	812.19
774.073	830.62
774.256	832.67
774.438	859.29
774.621	787.61
774.803	869.53
774.985	777.37
775.168	875.68
775.35	720.03
775.532	855.2
775.715	787.61
775.897	836.77
776.079	791.71
776.261	773.28
776.444	781.47
776.626	760.99
776.808	771.23
776.99	754.85
777.173	793.76
777.355	724.13
777.537	826.53
777.719	672.93
777.901	767.13
778.083	728.22
778.265	826.53
778.447	697.5
778.629	717.98
778.811	662.69
778.993	736.42
779.175	707.74
779.357	691.36
779.539	705.7
779.721	695.46
779.903	711.84
780.085	677.02
780.267	754.85
780.449	674.98
780.631	685.22
780.812	642.21
780.994	631.97
781.176	617.63
781.358	591.01
781.54	570.53
781.721	541.86
781.903	552.1
782.085	613.54
782.267	554.15
782.448	521.38
782.63	621.73
782.812	552.1
782.993	615.59
783.175	619.68
783.357	449.7
783.538	533.67
783.72	591.01
783.901	578.72
784.083	494.76
784.264	619.68
784.446	597.15
784.627	468.13
784.809	470.18
784.99	507.04
785.172	588.96
785.353	490.66
785.535	500.9
785.716	464.04
785.897	509.09
786.079	459.94
786.26	504.99
786.441	597.15
786.623	500.9
786.804	502.95
786.985	459.94
787.167	502.95
787.348	523.43
787.529	435.36
787.71	484.52
787.891	494.76
788.073	478.37
788.254	429.22
788.435	470.18
788.616	406.69
788.797	431.27
788.978	384.16
789.159	388.26
789.34	418.98
789.522	341.16
789.703	455.84
789.884	421.03
790.065	390.31
790.246	472.23
790.427	396.45
790.607	464.04
790.788	341.16
790.969	353.45
791.15	357.54
791.331	357.54
791.512	433.32
791.693	378.02
791.874	384.16
792.054	418.98
792.235	466.08
792.416	394.4
792.597	355.49
792.778	388.26
792.958	382.12
793.139	398.5
793.32	335.01
793.5	232.62
793.681	343.21
793.862	365.73
794.042	316.58
794.223	318.63
794.404	341.16
794.584	384.16
794.765	359.59
794.945	386.21
795.126	341.16
795.306	277.67
795.487	302.25
795.667	283.81
795.848	343.21
796.028	335.01
796.209	341.16
796.389	359.59
796.57	337.06
796.75	322.73
796.93	347.3
797.111	337.06
797.291	355.49
797.471	312.49
797.652	289.96
797.832	183.46
798.012	322.73
798.192	208.04
798.373	261.29
798.553	242.85
798.733	324.77
798.913	318.63
799.093	228.52
799.274	253.09
799.454	318.63
799.634	294.05
799.814	306.34
799.994	226.47
800.174	320.68
800.354	255.14
800.534	263.33
800.714	244.9
800.894	228.52
801.074	210.09
801.254	306.34
801.434	320.68
801.614	224.42
801.794	195.75
801.974	578.72
802.154	232.62
802.334	275.62
802.514	185.51
802.693	197.8
802.873	195.75
803.053	160.94
803.233	253.09
803.413	246.95
803.592	177.32
803.772	195.75
803.952	199.85
804.131	195.75
804.311	314.53
804.491	273.57
804.67	203.94
804.85	203.94
805.03	244.9
805.209	287.91
805.389	255.14
805.568	238.76
805.748	222.38
805.928	212.14
806.107	273.57
806.287	251.05
806.466	187.56
806.646	165.03
806.825	216.23
807.004	152.74
807.184	189.61
807.363	271.53
807.543	181.42
807.722	183.46
807.901	197.8
808.081	226.47
808.26	162.98
808.439	255.14
808.619	171.18
808.798	160.94
808.977	173.22
809.156	234.66
809.336	240.81
809.515	177.32
809.694	175.27
809.873	251.05
810.052	109.74
810.231	242.85
810.411	181.42
810.59	199.85
810.769	236.71
810.948	150.7
811.127	179.37
811.306	152.74
811.485	169.13
811.664	189.61
811.843	154.79
812.022	183.46
812.201	111.78
812.38	287.91
812.559	154.79
812.737	167.08
812.916	156.84
813.095	156.84
813.274	214.18
813.453	195.75
813.632	238.76
813.811	150.7
813.989	199.85
814.168	138.41
814.347	193.7
814.526	236.71
814.704	244.9
814.883	169.13
815.062	132.26
815.24	85.16
815.419	113.83
815.598	220.33
815.776	232.62
815.955	240.81
816.133	160.94
816.312	169.13
816.49	60.59
816.669	169.13
816.847	162.98
817.026	177.32
817.204	87.21
817.383	132.26
817.561	165.03
817.74	103.59
817.918	154.79
818.097	181.42
818.275	165.03
818.453	144.55
818.632	205.99
818.81	179.37
818.988	142.5
819.167	162.98
819.345	117.93
819.523	130.22
819.701	136.36
819.879	132.26
820.058	146.6
820.236	169.13
820.414	240.81
820.592	113.83
820.77	93.35
820.948	154.79
821.127	136.36
821.305	138.41
821.483	97.45
821.661	154.79
821.839	199.85
822.017	130.22
822.195	173.22
822.373	179.37
822.551	158.89
822.729	130.22
822.907	111.78
823.085	93.35
823.262	62.63
823.44	68.78
823.618	58.54
823.796	103.59
823.974	95.4
824.152	130.22
824.329	162.98
824.507	193.7
824.685	91.31
824.863	132.26
825.04	126.12
825.218	134.31
825.396	109.74
825.574	99.5
825.751	150.7
825.929	62.63
826.107	64.68
826.284	95.4
826.462	109.74
826.639	95.4
826.817	40.11
826.994	58.54
827.172	85.16
827.349	162.98
827.527	136.36
827.704	62.63
827.882	89.26
828.059	70.83
828.237	62.63
828.414	105.64
828.591	103.59
828.769	109.74
828.946	103.59
829.124	126.12
829.301	72.87
829.478	50.35
829.655	68.78
829.833	105.64
830.01	42.15
830.187	140.46
830.364	56.49
830.542	195.75
830.719	148.65
830.896	93.35
831.073	89.26
831.25	103.59
831.427	119.98
831.604	48.3
831.782	138.41
831.959	79.02
832.136	93.35
832.313	81.07
832.49	56.49
832.667	146.6
832.844	54.44
833.021	54.44
833.198	128.17
833.374	56.49
833.551	60.59
833.728	79.02
833.905	76.97
834.082	38.06
834.259	52.39
834.436	44.2
834.612	23.72
834.789	70.83
834.966	15.53
835.143	107.69
835.319	115.88
835.496	83.11
835.673	25.77
835.85	107.69
836.026	115.88
836.203	109.74
836.38	-4.95
836.556	130.22
836.733	105.64
836.909	111.78
837.086	126.12
837.262	46.25
837.439	128.17
837.616	124.07
837.792	122.02
837.968	134.31
838.145	33.96
838.321	130.22
838.498	103.59
838.674	48.3
838.851	115.88
839.027	31.91
839.203	74.92
839.38	142.5
839.556	15.53
839.732	99.5
839.909	46.25
840.085	158.89
840.261	-9.05
840.437	87.21
840.614	105.64
840.79	44.2
840.966	38.06
841.142	62.63
841.318	134.31
841.494	93.35
841.671	44.2
841.847	36.01
842.023	1.19
842.199	87.21
842.375	95.4
842.551	42.15
842.727	36.01
842.903	83.11
843.079	81.07
843.255	79.02
843.431	87.21
843.607	83.11
843.783	-47.96
843.959	74.92
844.134	72.87
844.31	111.78
844.486	1.19
844.662	50.35
844.838	36.01
845.013	58.54
845.189	76.97
845.365	62.63
845.541	97.45
845.716	27.82
845.892	17.58
846.068	33.96
846.244	29.87
846.419	-17.24
846.595	25.77
846.77	74.92
846.946	83.11
847.122	13.48
847.297	95.4
847.473	95.4
847.648	-39.76
847.824	56.49
847.999	31.91
848.175	36.01
848.35	5.29
848.526	79.02
848.701	70.83
848.876	-2.9
849.052	9.39
849.227	93.35
849.403	31.91
849.578	15.53
849.753	44.2
849.929	97.45
850.104	36.01
850.279	52.39
850.454	5.29
850.63	40.11
850.805	105.64
850.98	33.96
851.155	9.39
851.33	103.59
851.505	-58.2
851.681	72.87
851.856	-21.33
852.031	74.92
852.206	72.87
852.381	7.34
852.556	42.15
852.731	74.92
852.906	42.15
853.081	29.87
853.256	-4.95
853.431	23.72
853.606	-25.43
853.781	68.78
853.956	38.06
854.131	95.4
854.305	62.63
854.48	91.31
854.655	25.77
854.83	66.73
855.005	7.34
855.18	27.82
855.354	17.58
855.529	11.43
855.704	62.63
855.879	109.74
856.053	-15.19
856.228	36.01
856.403	3.24
856.577	81.07
856.752	7.34
856.926	64.68
857.101	-7
857.276	-0.85
857.45	74.92
857.625	-0.85
857.799	-25.43
857.974	48.3
858.148	15.53
858.323	21.67
858.497	44.2
858.672	38.06
858.846	40.11
859.02	89.26
859.195	5.29
859.369	-9.05
859.543	-13.14
859.718	42.15
859.892	44.2
860.066	1.19
860.241	-13.14
860.415	-74.58
860.589	31.91
860.763	36.01
860.938	1.19
861.112	72.87
861.286	66.73
861.46	46.25
861.634	17.58
861.808	87.21
861.982	44.2
862.157	9.39
862.331	-13.14
862.505	79.02
862.679	13.48
862.853	23.72
863.027	111.78
863.201	68.78
863.375	1.19
863.549	19.63
863.722	76.97
863.896	-2.9
864.07	-45.91
864.244	15.53
864.418	-58.2
864.592	-4.95
864.766	-23.38
864.939	-19.29
865.113	-11.09
865.287	101.55
865.461	25.77
865.634	87.21
865.808	19.63
865.982	-27.48
866.156	13.48
866.329	56.49
866.503	17.58
866.676	76.97
866.85	-4.95
867.024	54.44
867.197	40.11
867.371	62.63
867.544	7.34
867.718	7.34
867.891	25.77
868.065	-19.29
868.238	29.87
868.412	-2.9
868.585	11.43
868.759	-25.43
868.932	31.91
869.105	70.83
869.279	17.58
869.452	-25.43
869.625	21.67
869.799	70.83
869.972	1.19
870.145	85.16
870.319	89.26
870.492	19.63
870.665	15.53
870.838	48.3
871.011	-2.9
871.185	1.19
871.358	46.25
871.531	-25.43
871.704	42.15
871.877	5.29
872.05	21.67
872.223	54.44
872.396	40.11
872.569	15.53
872.742	3.24
872.915	105.64
873.088	-35.67
873.261	38.06
873.434	-4.95
873.607	50.35
873.78	48.3
873.953	-29.52
874.126	-25.43
874.299	-21.33
874.471	87.21
874.644	-66.39
874.817	29.87
874.99	58.54
875.163	7.34
875.335	15.53
875.508	48.3
875.681	29.87
875.853	60.59
876.026	-4.95
876.199	36.01
876.371	46.25
876.544	-33.62
876.717	-31.57
876.889	-11.09
877.062	13.48
877.234	19.63
877.407	5.29
877.579	-64.34
877.752	13.48
877.924	58.54
878.097	70.83
878.269	31.91
878.442	68.78
878.614	15.53
878.786	56.49
878.959	7.34
879.131	31.91
879.303	-17.24
879.476	-50
879.648	40.11
879.82	-25.43
879.993	54.44
880.165	91.31
880.337	-17.24
880.509	19.63
880.681	3.24
880.854	-54.1
881.026	-4.95
881.198	89.26
881.37	56.49
881.542	9.39
881.714	-19.29
881.886	-29.52
882.058	13.48
882.23	33.96
882.402	29.87
882.574	60.59
882.746	54.44
882.918	3.24
883.09	-31.57
883.262	-17.24
883.434	-7
883.606	-25.43
883.778	-41.81
883.95	70.83
884.122	-0.85
884.293	42.15
884.465	1.19
884.637	70.83
884.809	-7
884.98	-0.85
885.152	-52.05
885.324	-88.92
885.496	50.35
885.667	3.24
885.839	40.11
886.011	48.3
886.182	-35.67
886.354	7.34
886.525	1.19
886.697	38.06
886.869	-19.29
887.04	62.63
887.212	-15.19
887.383	38.06
887.555	64.68
887.726	105.64
887.897	-17.24
888.069	1.19
888.24	-19.29
888.412	-25.43
888.583	23.72
888.754	64.68
888.926	-29.52
889.097	21.67
889.268	33.96
889.44	3.24
889.611	11.43
889.782	-35.67
889.953	-54.1
890.125	48.3
890.296	46.25
890.467	25.77
890.638	33.96
890.809	9.39
890.98	19.63
891.151	-64.34
891.323	46.25
891.494	-9.05
891.665	-2.9
891.836	3.24
892.007	17.58
892.178	-56.15
892.349	-23.38
892.52	1.19
892.691	42.15
892.862	-4.95
893.032	29.87
893.203	23.72
893.374	-70.48
893.545	56.49
893.716	-13.14
893.887	17.58
894.057	7.34
894.228	85.16
894.399	-23.38
894.57	58.54
894.74	-45.91
894.911	-4.95
895.082	5.29
895.253	46.25
895.423	-15.19
895.594	-4.95
895.764	38.06
895.935	7.34
896.106	-19.29
896.276	38.06
896.447	23.72
896.617	-33.62
896.788	-86.87
896.958	11.43
897.129	9.39
897.299	11.43
897.47	85.16
897.64	56.49
897.81	1.19
897.981	-25.43
898.151	-2.9
898.322	38.06
898.492	23.72
898.662	-25.43
898.832	23.72
899.003	1.19
899.173	-4.95
899.343	38.06
899.513	-37.72
