Data from USB4F104151__25__12-35-26-642.txt Node

Date: Fri Mar 14 12:35:26 EDT 2025
User: louis
Spectrometer: USB4F10415
Trigger mode: 4
Integration Time (sec): 2.000000E-2
Scans to average: 1
Electric dark correction enabled: true
Nonlinearity correction enabled: false
Boxcar width: 0
XAxis mode: Wavelengths
Number of Pixels in Spectrum: 3648
>>>>>Begin Spectral Data<<<<<
178.204	-97.11
178.424	-97.11
178.644	-97.11
178.864	-84.82
179.084	-99.16
179.304	29.87
179.524	-115.54
179.744	40.11
179.964	54.44
180.184	38.06
180.404	15.53
180.624	5.29
180.844	13.48
181.064	-47.96
181.283	-39.76
181.503	27.82
181.723	-21.33
181.943	3.24
182.163	23.72
182.383	-7
182.602	-29.52
182.822	11.43
183.042	-9.05
183.262	-33.62
183.482	-19.29
183.701	13.48
183.921	-64.34
184.141	29.87
184.361	72.87
184.58	3.24
184.8	29.87
185.02	9.39
185.239	74.92
185.459	15.53
185.679	23.72
185.898	-25.43
186.118	-15.19
186.338	15.53
186.557	23.72
186.777	-31.57
186.997	1.19
187.216	58.54
187.436	-7
187.655	33.96
187.875	-2.9
188.095	31.91
188.314	-25.43
188.534	-35.67
188.753	1.19
188.973	-9.05
189.192	54.44
189.412	-21.33
189.631	15.53
189.851	-15.19
190.07	42.15
190.29	19.63
190.509	-13.14
190.729	-15.19
190.948	3.24
191.168	89.26
191.387	-29.52
191.607	-4.95
191.826	29.87
192.045	-2.9
192.265	-27.48
192.484	23.72
192.704	89.26
192.923	-31.57
193.142	76.97
193.362	9.39
193.581	52.39
193.8	54.44
194.02	25.77
194.239	46.25
194.458	-23.38
194.678	17.58
194.897	-25.43
195.116	-4.95
195.335	40.11
195.555	36.01
195.774	19.63
195.993	-52.05
196.212	-31.57
196.432	9.39
196.651	11.43
196.87	13.48
197.089	97.45
197.308	40.11
197.528	68.78
197.747	40.11
197.966	-19.29
198.185	-15.19
198.404	-13.14
198.623	17.58
198.842	17.58
199.062	-64.34
199.281	23.72
199.5	3.24
199.719	11.43
199.938	-0.85
200.157	66.73
200.376	-66.39
200.595	54.44
200.814	13.48
201.033	29.87
201.252	17.58
201.471	99.5
201.69	7.34
201.909	11.43
202.128	93.35
202.347	83.11
202.566	-13.14
202.785	-60.24
203.004	-0.85
203.223	40.11
203.442	50.35
203.661	62.63
203.879	23.72
204.098	44.2
204.317	-66.39
204.536	46.25
204.755	23.72
204.974	89.26
205.193	-9.05
205.411	81.07
205.63	54.44
205.849	-33.62
206.068	23.72
206.287	21.67
206.505	13.48
206.724	54.44
206.943	-31.57
207.162	-39.76
207.381	36.01
207.599	19.63
207.818	46.25
208.037	-15.19
208.255	17.58
208.474	29.87
208.693	15.53
208.911	19.63
209.13	-29.52
209.349	64.68
209.567	23.72
209.786	38.06
210.005	-23.38
210.223	-11.09
210.442	-0.85
210.661	-15.19
210.879	-37.72
211.098	46.25
211.316	25.77
211.535	85.16
211.753	-33.62
211.972	-9.05
212.191	60.59
212.409	1.19
212.628	21.67
212.846	-4.95
213.065	7.34
213.283	81.07
213.502	36.01
213.72	13.48
213.938	-47.96
214.157	52.39
214.375	27.82
214.594	9.39
214.812	44.2
215.031	17.58
215.249	-31.57
215.467	-4.95
215.686	-60.24
215.904	52.39
216.122	-43.86
216.341	103.59
216.559	17.58
216.778	23.72
216.996	42.15
217.214	9.39
217.432	50.35
217.651	5.29
217.869	54.44
218.087	-58.2
218.306	17.58
218.524	-23.38
218.742	-43.86
218.96	87.21
219.179	25.77
219.397	48.3
219.615	64.68
219.833	25.77
220.051	-17.24
220.27	15.53
220.488	66.73
220.706	-31.57
220.924	-4.95
221.142	-19.29
221.36	23.72
221.578	-4.95
221.796	60.59
222.015	64.68
222.233	1.19
222.451	-0.85
222.669	17.58
222.887	1.19
223.105	31.91
223.323	5.29
223.541	-11.09
223.759	50.35
223.977	11.43
224.195	38.06
224.413	72.87
224.631	56.49
224.849	33.96
225.067	-0.85
225.285	115.88
225.503	48.3
225.721	52.39
225.939	-0.85
226.157	76.97
226.375	-21.33
226.592	-58.2
226.81	11.43
227.028	58.54
227.246	11.43
227.464	60.59
227.682	56.49
227.9	7.34
228.117	89.26
228.335	52.39
228.553	17.58
228.771	-7
228.989	1.19
229.206	31.91
229.424	-15.19
229.642	36.01
229.86	-78.68
230.077	70.83
230.295	29.87
230.513	38.06
230.731	19.63
230.948	40.11
231.166	-2.9
231.384	19.63
231.601	56.49
231.819	-27.48
232.037	40.11
232.254	-7
232.472	50.35
232.689	17.58
232.907	17.58
233.125	46.25
233.342	7.34
233.56	15.53
233.777	62.63
233.995	5.29
234.213	13.48
234.43	-15.19
234.648	-2.9
234.865	-25.43
235.083	81.07
235.3	-4.95
235.518	-0.85
235.735	48.3
235.953	-64.34
236.17	-31.57
236.388	40.11
236.605	29.87
236.822	40.11
237.04	62.63
237.257	66.73
237.475	58.54
237.692	36.01
237.909	19.63
238.127	21.67
238.344	21.67
238.562	38.06
238.779	-2.9
238.996	-27.48
239.214	25.77
239.431	31.91
239.648	-0.85
239.865	38.06
240.083	-21.33
240.3	-13.14
240.517	-15.19
240.735	58.54
240.952	62.63
241.169	31.91
241.386	40.11
241.603	-25.43
241.821	-84.82
242.038	-9.05
242.255	11.43
242.472	3.24
242.689	50.35
242.907	36.01
243.124	5.29
243.341	64.68
243.558	5.29
243.775	-13.14
243.992	5.29
244.209	21.67
244.426	85.16
244.643	50.35
244.86	-9.05
245.078	-41.81
245.295	44.2
245.512	9.39
245.729	-0.85
245.946	52.39
246.163	-11.09
246.38	31.91
246.597	-9.05
246.814	38.06
247.031	70.83
247.248	-29.52
247.464	-31.57
247.681	-68.44
247.898	54.44
248.115	-0.85
248.332	19.63
248.549	52.39
248.766	17.58
248.983	23.72
249.2	9.39
249.417	19.63
249.633	19.63
249.85	-11.09
250.067	19.63
250.284	38.06
250.501	83.11
250.717	-19.29
250.934	-7
251.151	-47.96
251.368	-70.48
251.585	54.44
251.801	-19.29
252.018	33.96
252.235	9.39
252.451	-31.57
252.668	-19.29
252.885	25.77
253.102	25.77
253.318	48.3
253.535	9.39
253.752	-15.19
253.968	11.43
254.185	-9.05
254.401	17.58
254.618	33.96
254.835	-11.09
255.051	50.35
255.268	33.96
255.484	33.96
255.701	-19.29
255.917	64.68
256.134	-11.09
256.351	50.35
256.567	-11.09
256.784	-0.85
257	19.63
257.217	48.3
257.433	-13.14
257.65	-31.57
257.866	25.77
258.082	-52.05
258.299	-19.29
258.515	-58.2
258.732	9.39
258.948	36.01
259.165	11.43
259.381	-25.43
259.597	91.31
259.814	-9.05
260.03	7.34
260.246	-4.95
260.463	-31.57
260.679	7.34
260.895	-31.57
261.112	19.63
261.328	19.63
261.544	-35.67
261.761	81.07
261.977	29.87
262.193	-37.72
262.409	-9.05
262.626	21.67
262.842	58.54
263.058	-15.19
263.274	17.58
263.49	68.78
263.707	60.59
263.923	-4.95
264.139	-15.19
264.355	-21.33
264.571	-2.9
264.787	42.15
265.004	46.25
265.22	-23.38
265.436	38.06
265.652	-33.62
265.868	-29.52
266.084	11.43
266.3	23.72
266.516	-68.44
266.732	-4.95
266.948	15.53
267.164	-15.19
267.38	70.83
267.596	50.35
267.812	7.34
268.028	52.39
268.244	-2.9
268.46	-47.96
268.676	5.29
268.892	21.67
269.108	15.53
269.324	-4.95
269.54	5.29
269.756	79.02
269.972	-2.9
270.188	56.49
270.403	38.06
270.619	-4.95
270.835	56.49
271.051	-7
271.267	-37.72
271.483	58.54
271.698	7.34
271.914	25.77
272.13	-9.05
272.346	-17.24
272.562	-31.57
272.777	42.15
272.993	-11.09
273.209	62.63
273.425	36.01
273.64	-35.67
273.856	31.91
274.072	68.78
274.287	-19.29
274.503	3.24
274.719	-9.05
274.934	79.02
275.15	-15.19
275.366	60.59
275.581	7.34
275.797	56.49
276.012	-21.33
276.228	44.2
276.444	-43.86
276.659	62.63
276.875	-45.91
277.09	81.07
277.306	-27.48
277.521	-9.05
277.737	38.06
277.952	62.63
278.168	25.77
278.383	27.82
278.599	17.58
278.814	122.02
279.03	29.87
279.245	66.73
279.461	25.77
279.676	50.35
279.892	11.43
280.107	64.68
280.322	27.82
280.538	-31.57
280.753	-27.48
280.969	-19.29
281.184	29.87
281.399	64.68
281.615	-31.57
281.83	64.68
282.045	-19.29
282.26	-9.05
282.476	60.59
282.691	105.64
282.906	3.24
283.122	11.43
283.337	3.24
283.552	48.3
283.767	25.77
283.983	15.53
284.198	38.06
284.413	54.44
284.628	23.72
284.843	70.83
285.058	36.01
285.274	31.91
285.489	-39.76
285.704	91.31
285.919	-45.91
286.134	15.53
286.349	-2.9
286.564	3.24
286.779	38.06
286.995	85.16
287.21	-72.53
287.425	23.72
287.64	-43.86
287.855	-25.43
288.07	-13.14
288.285	27.82
288.5	-9.05
288.715	50.35
288.93	1.19
289.145	-21.33
289.36	66.73
289.575	-4.95
289.79	15.53
290.004	40.11
290.219	60.59
290.434	15.53
290.649	-50
290.864	27.82
291.079	33.96
291.294	1.19
291.509	48.3
291.724	27.82
291.938	70.83
292.153	-19.29
292.368	38.06
292.583	33.96
292.798	-39.76
293.012	33.96
293.227	-2.9
293.442	-15.19
293.657	44.2
293.871	17.58
294.086	5.29
294.301	-7
294.516	95.4
294.73	-0.85
294.945	85.16
295.16	3.24
295.374	44.2
295.589	52.39
295.804	11.43
296.018	44.2
296.233	-25.43
296.447	-39.76
296.662	33.96
296.877	68.78
297.091	89.26
297.306	99.5
297.52	5.29
297.735	46.25
297.949	64.68
298.164	42.15
298.378	52.39
298.593	-4.95
298.807	15.53
299.022	83.11
299.236	95.4
299.451	38.06
299.665	72.87
299.88	29.87
300.094	36.01
300.309	52.39
300.523	31.91
300.737	44.2
300.952	-19.29
301.166	-23.38
301.381	-0.85
301.595	42.15
301.809	-41.81
302.024	36.01
302.238	3.24
302.452	70.83
302.667	64.68
302.881	89.26
303.095	-15.19
303.309	76.97
303.524	17.58
303.738	-35.67
303.952	29.87
304.166	40.11
304.381	-45.91
304.595	54.44
304.809	-41.81
305.023	50.35
305.237	36.01
305.452	21.67
305.666	56.49
305.88	27.82
306.094	79.02
306.308	68.78
306.522	42.15
306.736	42.15
306.95	31.91
307.164	52.39
307.379	15.53
307.593	-17.24
307.807	85.16
308.021	-11.09
308.235	-15.19
308.449	9.39
308.663	48.3
308.877	38.06
309.091	-9.05
309.305	15.53
309.519	-7
309.733	27.82
309.947	-2.9
310.161	62.63
310.374	62.63
310.588	101.55
310.802	31.91
311.016	15.53
311.23	27.82
311.444	76.97
311.658	-11.09
311.872	9.39
312.085	44.2
312.299	76.97
312.513	50.35
312.727	58.54
312.941	-27.48
313.154	31.91
313.368	36.01
313.582	48.3
313.796	25.77
314.009	-25.43
314.223	74.92
314.437	50.35
314.651	70.83
314.864	36.01
315.078	-13.14
315.292	-4.95
315.505	-9.05
315.719	-39.76
315.933	-2.9
316.146	7.34
316.36	-33.62
316.573	-11.09
316.787	25.77
317.001	25.77
317.214	3.24
317.428	48.3
317.641	19.63
317.855	-25.43
318.068	17.58
318.282	31.91
318.495	-4.95
318.709	50.35
318.922	17.58
319.136	54.44
319.349	64.68
319.563	107.69
319.776	62.63
319.99	-29.52
320.203	29.87
320.417	40.11
320.63	62.63
320.843	85.16
321.057	-2.9
321.27	72.87
321.483	74.92
321.697	89.26
321.91	11.43
322.124	31.91
322.337	128.17
322.55	-13.14
322.763	68.78
322.977	-25.43
323.19	40.11
323.403	46.25
323.617	29.87
323.83	66.73
324.043	50.35
324.256	109.74
324.469	3.24
324.683	97.45
324.896	42.15
325.109	11.43
325.322	21.67
325.535	-43.86
325.748	54.44
325.962	9.39
326.175	52.39
326.388	97.45
326.601	9.39
326.814	21.67
327.027	44.2
327.24	70.83
327.453	-15.19
327.666	103.59
327.879	85.16
328.092	54.44
328.305	74.92
328.518	107.69
328.731	-82.77
328.944	58.54
329.157	66.73
329.37	19.63
329.583	72.87
329.796	66.73
330.009	29.87
330.222	50.35
330.435	83.11
330.648	-21.33
330.861	103.59
331.073	56.49
331.286	76.97
331.499	87.21
331.712	54.44
331.925	27.82
332.138	25.77
332.35	60.59
332.563	64.68
332.776	74.92
332.989	23.72
333.202	9.39
333.414	31.91
333.627	68.78
333.84	-68.44
334.053	44.2
334.265	52.39
334.478	103.59
334.691	-17.24
334.903	36.01
335.116	54.44
335.329	85.16
335.541	44.2
335.754	126.12
335.966	-21.33
336.179	29.87
336.392	27.82
336.604	29.87
336.817	54.44
337.029	109.74
337.242	17.58
337.454	19.63
337.667	72.87
337.88	58.54
338.092	44.2
338.305	-15.19
338.517	3.24
338.729	-7
338.942	44.2
339.154	9.39
339.367	-123.73
339.579	58.54
339.792	19.63
340.004	7.34
340.217	-56.15
340.429	70.83
340.641	56.49
340.854	-11.09
341.066	62.63
341.278	52.39
341.491	54.44
341.703	-21.33
341.915	7.34
342.128	68.78
342.34	3.24
342.552	64.68
342.764	76.97
342.977	23.72
343.189	27.82
343.401	3.24
343.613	-33.62
343.826	-23.38
344.038	-4.95
344.25	50.35
344.462	-0.85
344.674	95.4
344.886	60.59
345.099	68.78
345.311	76.97
345.523	31.91
345.735	54.44
345.947	-27.48
346.159	42.15
346.371	7.34
346.583	-17.24
346.795	42.15
347.007	91.31
347.219	15.53
347.431	66.73
347.643	38.06
347.855	1.19
348.067	11.43
348.279	7.34
348.491	85.16
348.703	31.91
348.915	72.87
349.127	33.96
349.339	60.59
349.551	-0.85
349.763	99.5
349.975	9.39
350.187	56.49
350.399	46.25
350.61	44.2
350.822	11.43
351.034	50.35
351.246	64.68
351.458	62.63
351.669	44.2
351.881	9.39
352.093	79.02
352.305	64.68
352.517	66.73
352.728	-31.57
352.94	87.21
353.152	5.29
353.363	64.68
353.575	99.5
353.787	56.49
353.999	89.26
354.21	74.92
354.422	74.92
354.633	23.72
354.845	42.15
355.057	66.73
355.268	113.83
355.48	-4.95
355.692	-43.86
355.903	11.43
356.115	15.53
356.326	-17.24
356.538	7.34
356.749	23.72
356.961	44.2
357.172	48.3
357.384	33.96
357.595	52.39
357.807	76.97
358.018	85.16
358.23	-11.09
358.441	23.72
358.653	62.63
358.864	-39.76
359.075	7.34
359.287	58.54
359.498	81.07
359.709	5.29
359.921	29.87
360.132	31.91
360.344	54.44
360.555	46.25
360.766	70.83
360.977	91.31
361.189	72.87
361.4	72.87
361.611	27.82
361.823	83.11
362.034	23.72
362.245	64.68
362.456	50.35
362.667	76.97
362.879	19.63
363.09	52.39
363.301	-17.24
363.512	122.02
363.723	-11.09
363.935	5.29
364.146	25.77
364.357	40.11
364.568	113.83
364.779	15.53
364.99	113.83
365.201	-9.05
365.412	62.63
365.623	-4.95
365.834	64.68
366.045	7.34
366.256	21.67
366.467	5.29
366.678	58.54
366.889	9.39
367.1	87.21
367.311	72.87
367.522	17.58
367.733	91.31
367.944	1.19
368.155	85.16
368.366	27.82
368.577	54.44
368.788	81.07
368.999	62.63
369.209	25.77
369.42	72.87
369.631	72.87
369.842	11.43
370.053	42.15
370.264	62.63
370.474	-17.24
370.685	40.11
370.896	-13.14
371.107	99.5
371.317	29.87
371.528	17.58
371.739	70.83
371.95	54.44
372.16	52.39
372.371	15.53
372.582	72.87
372.792	89.26
373.003	5.29
373.214	76.97
373.424	113.83
373.635	-35.67
373.846	99.5
374.056	21.67
374.267	21.67
374.477	117.93
374.688	31.91
374.898	101.55
375.109	21.67
375.319	19.63
375.53	23.72
375.74	52.39
375.951	74.92
376.161	9.39
376.372	89.26
376.582	7.34
376.793	19.63
377.003	42.15
377.214	74.92
377.424	31.91
377.635	72.87
377.845	-2.9
378.055	72.87
378.266	11.43
378.476	27.82
378.686	87.21
378.897	23.72
379.107	62.63
379.317	44.2
379.528	-19.29
379.738	50.35
379.948	72.87
380.158	11.43
380.369	70.83
380.579	46.25
380.789	25.77
380.999	3.24
381.21	17.58
381.42	58.54
381.63	54.44
381.84	68.78
382.05	103.59
382.261	68.78
382.471	58.54
382.681	23.72
382.891	74.92
383.101	25.77
383.311	64.68
383.521	27.82
383.731	-4.95
383.941	81.07
384.151	54.44
384.361	23.72
384.571	83.11
384.781	79.02
384.991	52.39
385.201	138.41
385.411	27.82
385.621	122.02
385.831	87.21
386.041	54.44
386.251	81.07
386.461	117.93
386.671	33.96
386.881	91.31
387.091	87.21
387.301	95.4
387.511	46.25
387.72	85.16
387.93	23.72
388.14	85.16
388.35	74.92
388.56	52.39
388.769	3.24
388.979	83.11
389.189	60.59
389.399	25.77
389.609	66.73
389.818	119.98
390.028	52.39
390.238	72.87
390.447	36.01
390.657	33.96
390.867	29.87
391.076	93.35
391.286	42.15
391.496	81.07
391.705	23.72
391.915	46.25
392.125	107.69
392.334	64.68
392.544	42.15
392.753	58.54
392.963	44.2
393.172	46.25
393.382	70.83
393.591	48.3
393.801	210.09
394.01	101.55
394.22	52.39
394.429	58.54
394.639	87.21
394.848	138.41
395.058	-4.95
395.267	109.74
395.477	68.78
395.686	54.44
395.895	13.48
396.105	99.5
396.314	105.64
396.524	33.96
396.733	119.98
396.942	146.6
397.152	97.45
397.361	183.46
397.57	130.22
397.78	126.12
397.989	162.98
398.198	113.83
398.407	70.83
398.617	152.74
398.826	111.78
399.035	130.22
399.244	89.26
399.453	165.03
399.663	36.01
399.872	124.07
400.081	103.59
400.29	72.87
400.499	101.55
400.708	122.02
400.917	109.74
401.127	95.4
401.336	169.13
401.545	140.46
401.754	81.07
401.963	162.98
402.172	126.12
402.381	91.31
402.59	142.5
402.799	175.27
403.008	150.7
403.217	52.39
403.426	97.45
403.635	113.83
403.844	134.31
404.053	132.26
404.262	111.78
404.471	130.22
404.68	99.5
404.888	197.8
405.097	165.03
405.306	165.03
405.515	83.11
405.724	142.5
405.933	195.75
406.142	238.76
406.35	158.89
406.559	292.01
406.768	148.65
406.977	238.76
407.185	238.76
407.394	189.61
407.603	265.38
407.812	310.44
408.02	177.32
408.229	267.43
408.438	236.71
408.646	275.62
408.855	226.47
409.064	289.96
409.272	287.91
409.481	287.91
409.69	287.91
409.898	341.16
410.107	373.92
410.315	386.21
410.524	289.96
410.733	357.54
410.941	396.45
411.15	468.13
411.358	396.45
411.567	429.22
411.775	543.91
411.984	466.08
412.192	605.35
412.401	541.86
412.609	554.15
412.818	556.19
413.026	500.9
413.234	605.35
413.443	650.4
413.651	584.87
413.86	627.87
414.068	748.7
414.276	674.98
414.485	726.18
414.693	748.7
414.901	804
415.11	836.77
415.318	795.81
415.526	822.43
415.734	812.19
415.943	894.11
416.151	963.74
416.359	892.06
416.567	1031.32
416.776	933.02
416.984	1121.43
417.192	1100.95
417.4	1199.26
417.608	1088.67
417.817	1189.02
418.025	1227.93
418.233	1277.08
418.441	1305.75
418.649	1410.2
418.857	1496.21
419.065	1502.36
419.273	1543.32
419.481	1596.56
419.689	1602.71
419.897	1655.95
420.105	1754.26
420.313	1805.46
420.521	1897.61
420.729	1805.46
420.937	1901.71
421.145	1883.28
421.353	2067.6
421.561	2186.38
421.769	2348.17
421.977	2385.03
422.185	2339.97
422.393	2487.43
422.601	2581.64
422.809	2563.2
423.017	2704.51
423.224	2729.09
423.432	2905.21
423.64	2825.34
423.848	3110.01
424.056	3062.91
424.263	3243.13
424.471	3388.53
424.679	3337.34
424.887	3642.48
425.094	3564.66
425.302	3535.99
425.51	3761.27
425.718	3894.38
425.925	4033.65
426.133	4117.61
426.341	4289.64
426.548	4469.86
426.756	4363.37
426.964	4680.8
427.171	4848.74
427.379	5063.77
427.586	5143.64
427.794	5194.84
428.001	5454.94
428.209	5790.8
428.417	5524.57
428.624	6016.08
428.832	5950.54
429.039	6104.14
429.247	5868.63
429.454	6501.45
429.662	6962.24
429.869	6437.96
430.076	6952
430.284	6755.4
430.491	7132.22
430.699	7480.38
430.906	7609.4
431.114	7719.99
431.321	7965.75
431.528	8055.86
431.736	8373.29
431.943	8981.54
432.15	8582.18
432.358	8707.11
432.565	9124.9
432.772	8999.97
432.979	9716.76
433.187	9628.7
433.394	9888.79
433.601	10370.06
433.808	10449.93
434.016	10554.38
434.223	10896.39
434.43	11678.71
434.637	11291.65
434.844	11983.86
435.052	12338.16
435.259	12157.94
435.466	12211.18
435.673	12248.05
435.88	12901.35
436.087	13693.91
436.294	13833.18
436.501	13319.14
436.708	13738.97
436.915	14164.95
437.122	14914.5
437.329	14787.53
437.537	14914.5
437.743	15223.75
437.95	15186.88
438.157	16241.59
438.364	16133.04
438.571	16442.29
438.778	16540.59
438.985	18322.32
439.192	17458.08
439.399	17746.84
439.606	17494.94
439.813	18580.37
440.02	19864.44
440.227	19397.51
440.433	19131.27
440.64	19837.82
440.847	19610.5
441.054	20161.4
441.261	21318.5
441.467	21140.33
441.674	21810.01
441.881	22414.16
442.088	22311.77
442.294	22115.16
442.501	22604.63
442.708	23386.95
442.914	23833.41
443.121	25285.42
443.328	24443.7
443.534	26391.32
443.741	25357.1
443.948	25152.3
444.154	26925.84
444.361	26931.98
444.568	26815.25
444.774	27378.44
444.981	26936.08
445.187	28109.57
445.394	29313.77
445.6	28713.72
445.807	31584.97
446.013	30485.21
446.22	30903
446.426	32330.43
446.633	32242.37
446.839	33438.38
447.046	32389.82
447.252	33809.06
447.459	33667.75
447.665	33546.92
447.871	35271.31
448.078	36903.54
448.284	35054.23
448.491	35695.24
448.697	37186.16
448.903	37761.64
449.11	37950.06
449.316	37503.6
449.522	38152.8
449.728	39027.29
449.935	39424.59
450.141	39197.27
450.347	40335.94
450.553	39178.84
450.76	39486.03
450.966	41046.58
451.172	40307.27
451.378	41763.37
451.584	40438.34
451.791	41667.12
451.997	41490.99
452.203	42170.92
452.409	42056.23
452.615	41697.84
452.821	40321.6
453.027	40116.81
453.233	42345
453.44	40372.8
453.646	40860.22
453.852	41687.6
454.058	41812.52
454.264	40393.28
454.47	41497.14
454.676	40935.99
454.882	41613.87
455.088	38161
455.294	38828.63
455.5	39391.83
455.705	39776.84
455.911	38310.5
456.117	37778.03
456.323	37128.82
456.529	35232.4
456.735	36248.19
456.941	35687.05
457.147	35232.4
457.352	33964.71
457.558	33540.78
457.764	33714.86
457.97	32852.66
458.176	32578.23
458.381	32400.06
458.587	30681.81
458.793	30825.17
458.999	29313.77
459.204	31087.31
459.41	30192.35
459.616	28308.22
459.821	28537.59
460.027	28424.95
460.233	27771.65
460.438	26485.53
460.644	26725.14
460.85	25672.48
461.055	25070.38
461.261	25023.28
461.466	23057.23
461.672	22375.25
461.878	23835.45
462.083	22596.43
462.289	21887.84
462.494	21805.92
462.7	20677.49
462.905	20282.23
463.111	20757.36
463.316	21082.98
463.522	20560.75
463.727	20743.02
463.932	20597.62
464.138	20349.81
464.343	20374.39
464.549	19725.18
464.754	20366.2
464.959	20482.93
465.165	20208.5
465.37	19295.11
465.575	18668.43
465.781	19452.8
465.986	19465.09
466.191	18994.06
466.397	18553.74
466.602	17601.44
466.807	18301.84
467.012	18396.05
467.218	18295.7
467.423	17992.6
467.628	18097.05
467.833	18578.32
468.038	18314.13
468.244	17695.64
468.449	18475.92
468.654	17705.88
468.859	17634.21
469.064	17521.57
469.269	16876.46
469.474	16872.36
469.679	17232.8
469.885	16819.11
470.09	16907.18
470.295	17017.77
470.5	16559.02
470.705	16573.36
470.91	16096.18
471.115	16116.66
471.32	16374.7
471.525	16214.96
471.73	15989.69
471.935	15594.43
472.139	15449.02
472.344	15418.3
472.549	15514.56
472.754	15326.14
472.959	15008.71
473.164	14248.91
473.369	14377.94
473.574	14918.6
473.778	14867.4
473.983	14502.86
474.188	14236.63
474.393	13743.06
474.598	14056.4
474.802	13624.28
475.007	13663.19
475.212	13804.5
475.417	13259.74
475.621	13229.02
475.826	13161.44
476.031	12829.67
476.235	12606.44
476.44	12788.71
476.645	12645.35
476.849	12733.42
477.054	12700.65
477.259	12227.57
477.463	12407.79
477.668	12129.27
477.872	12248.05
478.077	12000.24
478.282	11826.17
478.486	11672.57
478.691	11502.59
478.895	11570.17
479.1	11428.86
479.304	11582.46
479.509	11179.01
479.713	11369.47
479.918	10916.87
480.122	11031.55
480.326	11066.37
480.531	11070.47
480.735	10767.37
480.94	10873.86
481.144	11199.49
481.348	10439.69
481.553	10775.56
481.757	10468.36
481.961	10822.66
482.166	10851.33
482.37	10861.57
482.574	10757.13
482.778	10525.71
482.983	10904.58
483.187	10568.71
483.391	10765.32
483.595	10619.91
483.8	10556.43
484.004	10712.07
484.208	10638.34
484.412	10564.62
484.616	10560.52
484.821	10513.42
485.025	10318.86
485.229	10750.98
485.433	10556.43
485.637	10738.69
485.841	10613.77
486.045	10556.43
486.249	10427.4
486.453	10531.85
486.657	10556.43
486.861	10660.87
487.065	10290.19
487.269	10437.64
487.473	10308.62
487.677	10714.12
487.881	10644.49
488.085	10558.47
488.289	10525.71
488.493	10533.9
488.697	10775.56
488.901	10664.97
489.105	10746.89
489.309	10697.74
489.512	10560.52
489.716	10812.42
489.92	10650.63
490.124	10843.14
490.328	10724.36
490.531	10853.38
490.735	10941.44
490.939	10857.48
491.143	10869.76
491.346	10947.59
491.55	11088.9
491.754	10908.68
491.958	10984.45
492.161	11136
492.365	11232.26
492.569	11271.17
492.772	10966.02
492.976	11119.62
493.18	11557.88
493.383	11473.92
493.587	11484.16
493.79	11635.71
493.994	11478.01
494.197	11580.41
494.401	11967.48
494.605	11713.53
494.808	12090.35
495.012	11742.2
495.215	11930.61
495.419	11983.86
495.622	12119.03
495.825	12313.58
496.029	11944.95
496.232	12653.55
496.436	12483.56
496.639	12895.21
496.843	12680.17
497.046	13136.87
497.249	13028.32
497.453	12919.78
497.656	13272.03
497.859	13134.82
498.063	13235.17
498.266	13849.56
498.469	13644.76
498.673	13642.71
498.876	13872.09
499.079	14187.47
499.282	14189.52
499.485	14437.33
499.689	14592.97
499.892	15016.9
500.095	14670.79
500.298	15012.81
500.501	15098.82
500.705	15469.5
500.908	15827.9
501.111	15844.28
501.314	15778.75
501.517	16403.38
501.72	16343.99
501.923	16139.19
502.126	16823.21
502.329	17054.63
502.532	16874.41
502.735	17093.54
502.938	17310.63
503.141	17345.44
503.344	17750.94
503.547	18027.42
503.75	18101.14
503.953	18361.23
504.156	18371.47
504.359	18865.03
504.562	18920.33
504.765	19422.08
504.968	19342.21
505.17	19424.13
505.373	19661.69
505.576	19778.43
505.779	20130.68
505.982	20157.3
506.185	20843.37
506.387	20663.15
506.59	20870
506.793	21279.59
506.996	21406.56
507.198	21736.29
507.401	21947.23
507.604	22225.75
507.807	22651.73
508.009	22565.71
508.212	22909.77
508.415	23245.64
508.617	23407.43
508.82	23726.91
509.022	23692.1
509.225	23837.5
509.428	24529.72
509.63	24392.5
509.833	24374.07
510.035	25017.13
510.238	25031.47
510.44	25467.69
510.643	25623.33
510.845	25867.04
511.048	25908
511.25	26297.11
511.453	26397.46
511.655	27560.71
511.858	27417.35
512.06	27138.83
512.262	27771.65
512.465	27669.25
512.667	28140.29
512.87	28863.22
513.072	28420.86
513.274	29364.97
513.477	29680.36
513.679	29725.41
513.881	29922.02
514.084	30255.84
514.286	30522.07
514.488	30638.81
514.69	31134.42
514.893	31570.63
515.095	31685.32
515.297	31965.89
515.499	32058.05
515.701	32492.22
515.904	32862.9
516.106	32957.11
516.308	33444.52
516.51	33413.8
516.712	33749.67
516.914	34183.84
517.116	35007.12
517.318	35027.6
517.52	34947.73
517.722	35574.41
517.925	35809.93
518.127	36315.78
518.329	36635.26
518.531	36579.96
518.733	36954.74
518.935	37300.85
519.136	37198.45
519.338	38085.22
519.54	38234.72
519.742	38546.01
519.944	38797.91
520.146	39088.73
520.348	39469.65
520.55	39293.52
520.752	40010.31
520.954	40145.48
521.155	39787.08
521.357	40639.04
521.559	40862.27
521.761	41452.08
521.963	41501.23
522.164	41740.85
522.366	41857.58
522.568	41785.9
522.77	42424.87
522.971	43434.52
523.173	42766.88
523.375	43641.36
523.576	43319.83
523.778	43858.45
523.98	44007.95
524.181	43915.79
524.383	44067.34
524.584	44816.89
524.786	44935.68
524.988	44812.8
525.189	45128.19
525.391	45548.02
525.592	45699.57
525.794	45890.03
525.995	46029.29
526.197	45820.4
526.398	46377.45
526.6	46457.32
526.801	46830.05
527.003	47006.17
527.204	46877.15
527.406	47380.95
527.607	47069.66
527.808	47778.26
528.01	46881.25
528.211	47100.38
528.412	48486.85
528.614	47782.35
528.815	48126.41
529.016	48630.21
529.218	48009.68
529.419	48433.61
529.62	48202.19
529.822	48343.5
530.023	48308.68
530.224	48527.81
530.425	48681.41
530.626	48163.28
530.828	48153.04
531.029	49603
531.23	48396.74
531.431	48583.11
531.632	49002.94
531.833	49174.97
532.035	48681.41
532.236	49121.73
532.437	49142.2
532.638	48538.05
532.839	49138.11
533.04	49154.49
533.241	48726.47
533.442	49416.63
533.643	49646.01
533.844	49308.09
534.045	49146.3
534.246	48955.84
534.447	49699.25
534.648	49091.01
534.849	49672.63
535.05	48746.95
535.251	49162.68
535.451	48622.02
535.652	49256.89
535.853	49097.15
536.054	48902.59
536.255	49414.58
536.456	48613.83
536.657	49650.1
536.857	48955.84
537.058	48697.8
537.259	49244.6
537.46	48943.55
537.66	48804.29
537.861	48794.05
538.062	48517.57
538.263	48953.79
538.463	48478.66
538.664	49052.09
538.865	48966.08
539.065	49379.77
539.266	48615.88
539.466	49813.94
539.667	48261.58
539.868	49125.82
540.068	48675.27
540.269	48992.7
540.469	48818.63
540.67	48816.58
540.87	48511.43
541.071	48931.26
541.271	48681.41
541.472	48777.67
541.672	48480.71
541.873	48556.49
542.073	47735.25
542.274	48767.43
542.474	48478.66
542.675	47993.29
542.875	48880.06
543.075	48253.39
543.276	47843.79
543.476	48691.65
543.676	48191.95
543.877	48646.6
544.077	48136.65
544.277	48019.92
544.478	48214.47
544.678	48863.68
544.878	47897.04
545.078	48585.16
545.279	48122.32
545.479	47598.04
545.679	48026.06
545.879	47921.62
546.079	48298.44
546.28	48054.73
546.48	47780.31
546.68	48126.41
546.88	47813.07
547.08	47761.87
547.28	47702.48
547.48	47475.16
547.68	47995.34
547.88	47274.46
548.081	47938
548.281	48083.4
548.481	47749.59
548.681	48120.27
548.881	48013.77
549.081	47727.06
549.28	47540.69
549.48	47872.46
549.68	47835.6
549.88	48198.09
550.08	47555.03
550.28	47751.63
550.48	47780.31
550.68	48222.67
550.88	47020.51
551.08	47593.94
551.279	47921.62
551.479	47727.06
551.679	47587.8
551.879	47104.48
552.079	47528.41
552.278	47550.93
552.478	47954.38
552.678	47329.75
552.878	47849.94
553.077	47208.92
553.277	47196.63
553.477	47864.27
553.676	47260.12
553.876	47317.46
554.076	46959.07
554.275	47268.31
554.475	46711.27
554.674	47116.76
554.874	46903.77
555.074	47075.8
555.273	47237.59
555.473	47456.73
555.672	46539.24
555.872	47004.13
556.071	46782.94
556.271	47296.98
556.47	46987.74
556.67	46506.47
556.869	46572
557.068	46727.65
557.268	45896.17
557.467	46539.24
557.667	46694.88
557.866	46524.9
558.065	46500.33
558.265	46537.19
558.464	46053.87
558.663	46952.93
558.863	45939.18
559.062	46844.38
559.261	46356.97
559.461	46809.57
559.66	45820.4
559.859	46115.31
560.058	45881.84
560.258	45877.74
560.457	45578.74
560.656	46154.22
560.855	45965.81
561.054	45869.55
561.253	45648.37
561.453	45701.62
561.652	46084.59
561.851	45838.83
562.05	45502.96
562.249	45038.08
562.448	45691.38
562.647	45062.65
562.846	44929.53
563.045	45193.72
563.244	44737.02
563.443	45672.95
563.642	44769.79
563.841	44450.31
564.04	44759.55
564.239	44587.52
564.438	44829.18
564.637	44960.25
564.836	44554.75
565.035	44085.77
565.234	44304.9
565.432	44112.39
565.631	43743.76
565.83	44280.33
566.029	43594.26
566.228	43547.15
566.427	43981.32
566.625	43698.7
566.824	42988.06
567.023	43842.06
567.222	43006.49
567.42	44126.73
567.619	43319.83
567.818	43360.79
568.016	42863.13
568.215	43543.06
568.414	42775.07
568.612	43205.14
568.811	42717.73
569.01	43141.66
569.208	42404.39
569.407	42910.24
569.605	41609.78
569.804	42506.79
570.002	42048.04
570.201	42590.75
570.4	42078.76
570.598	41501.23
570.797	41634.35
570.995	41714.22
571.193	41079.35
571.392	41714.22
571.59	41243.19
571.789	41318.96
571.987	41118.26
572.186	40790.59
572.384	40874.55
572.582	40940.09
572.781	40630.85
572.979	40110.66
573.177	40434.24
573.376	40927.8
573.574	40428.1
573.772	40274.5
573.971	40163.91
574.169	39598.67
574.367	39422.55
574.565	40118.85
574.763	39432.78
574.962	39232.08
575.16	38943.32
575.358	39434.83
575.556	38984.28
575.754	39524.94
575.952	38500.96
576.151	39422.55
576.349	38670.94
576.547	38656.6
576.745	38802.01
576.943	38687.32
577.141	38613.6
577.339	38873.69
577.537	38251.11
577.735	38036.07
577.933	37622.38
578.131	38273.63
578.329	37935.72
578.527	37560.94
578.725	37755.5
578.923	37907.05
579.121	37665.39
579.319	37425.78
579.516	37522.03
579.714	37423.73
579.912	37083.76
580.11	36993.65
580.308	37145.2
580.506	37284.47
580.704	36526.72
580.901	36790.91
581.099	36723.32
581.297	36199.04
581.495	36270.72
581.692	36614.78
581.89	35854.98
582.088	36096.64
582.285	35918.47
582.483	36035.2
582.681	35836.55
582.878	35854.98
583.076	35250.83
583.274	35613.32
583.471	35058.32
583.669	35005.08
583.866	34853.53
584.064	35248.78
584.262	34749.08
584.459	35095.19
584.657	34798.23
584.854	35060.37
585.052	34085.54
585.249	34593.43
585.447	34667.16
585.644	34564.76
585.841	34142.88
586.039	34374.3
586.236	33559.21
586.434	33915.56
586.631	34079.39
586.828	33499.82
587.026	33479.34
587.223	33422
587.42	33467.05
587.618	33393.33
587.815	33225.39
588.012	33276.59
588.21	33057.46
588.407	33553.07
588.604	32899.76
588.801	32654.01
588.999	32729.78
589.196	32524.99
589.393	32654.01
589.59	32277.18
589.787	32160.45
589.984	32361.15
590.182	31998.66
590.379	32279.23
590.576	31800.01
590.773	32193.22
590.97	31597.26
591.167	32060.1
591.364	31382.22
591.561	31492.81
591.758	31224.53
591.955	31355.6
592.152	31595.21
592.349	31126.22
592.546	30978.77
592.743	31132.37
592.94	30683.86
593.137	30767.83
593.334	31052.5
593.531	30554.84
593.727	30735.06
593.924	30546.65
594.121	30329.56
594.318	30556.89
594.515	30276.32
594.712	30491.35
594.908	30180.06
595.105	30188.25
595.302	29756.13
595.499	30147.29
595.696	29616.87
595.892	29514.47
596.089	29608.68
596.286	29692.65
596.482	29373.16
596.679	29518.57
596.876	29565.67
597.072	29104.88
597.269	29358.83
597.466	29096.69
597.662	29068.02
597.859	29022.96
598.055	28771.06
598.252	28545.78
598.448	28666.61
598.645	28664.57
598.841	28228.35
599.038	28678.9
599.234	28142.33
599.431	28021.5
599.627	27927.3
599.824	28193.53
600.02	27976.45
600.217	27869.95
600.413	27828.99
600.609	27962.11
600.806	27558.66
601.002	27769.6
601.198	27699.97
601.395	27173.64
601.591	27327.24
601.787	27357.96
601.984	27061.01
602.18	26977.04
602.376	26802.96
602.572	26772.24
602.769	26800.91
602.965	26583.83
603.161	26721.04
603.357	26395.42
603.553	26209.05
603.75	26641.17
603.946	26071.84
604.142	26342.17
604.338	25783.07
604.534	26297.11
604.73	26032.93
604.926	26032.93
605.122	25899.81
605.318	25592.61
605.514	25774.88
605.71	25611.04
605.906	25592.61
606.102	25383.72
606.298	25522.98
606.494	25402.15
606.69	25496.36
606.886	25621.28
607.082	24972.08
607.278	25209.64
607.474	24648.5
607.67	25072.43
607.866	24939.31
608.062	25066.28
608.257	24927.02
608.453	24566.58
608.649	24902.45
608.845	24369.97
609.041	24521.52
609.236	24695.6
609.432	24482.61
609.628	24754.99
609.824	24081.21
610.019	24269.62
610.215	24124.22
610.411	24386.36
610.606	24238.9
610.802	23987
610.998	24265.53
611.193	24060.73
611.389	24027.96
611.584	23827.26
611.78	23673.67
611.976	23620.42
612.171	24116.03
612.367	23696.19
612.562	23710.53
612.758	23405.38
612.953	23464.77
613.149	23231.3
613.344	22967.12
613.539	23583.55
613.735	23323.46
613.93	23313.22
614.126	23280.46
614.321	23366.47
614.517	23089.99
614.712	23024.46
614.907	23122.76
615.103	23040.84
615.298	22707.02
615.493	23079.75
615.688	22668.11
615.884	22842.19
616.079	22563.67
616.274	22803.28
616.47	22727.5
616.665	22539.09
616.86	22479.7
617.055	22616.91
617.25	22344.53
617.445	22313.81
617.641	22043.48
617.836	22586.19
618.031	21969.76
618.226	22190.94
618.421	21971.8
618.616	22158.17
618.811	21656.42
619.006	22207.32
619.201	21506.91
619.396	21685.09
619.591	21197.67
619.786	21478.24
619.981	21076.84
620.176	21363.56
620.371	21115.75
620.566	20937.58
620.761	20976.49
620.956	20982.63
621.151	20747.12
621.346	20872.04
621.541	20378.48
621.735	20814.7
621.93	20271.99
622.125	20507.51
622.32	20005.75
622.515	20231.03
622.709	19999.61
622.904	19432.32
623.099	19723.13
623.294	19788.67
623.488	19706.75
623.683	19649.41
623.878	19020.68
624.072	19276.68
624.267	19434.37
624.462	19012.49
624.656	18885.51
624.851	19098.5
625.046	19039.11
625.24	18828.17
625.435	18441.11
625.629	18363.28
625.824	18379.67
626.018	18240.4
626.213	17925.02
626.407	18121.62
626.602	17773.47
626.796	18017.18
626.991	17882.01
627.185	17761.18
627.38	17697.69
627.574	17535.9
627.768	17839
627.963	17398.69
628.157	17267.62
628.352	17208.23
628.546	16950.18
628.74	17017.77
628.935	16903.08
629.129	16860.07
629.323	16630.7
629.517	16563.12
629.712	16608.17
629.906	16663.47
630.1	16024.5
630.294	16311.22
630.489	16020.41
630.683	16376.75
630.877	16067.51
631.071	15963.06
631.265	15981.49
631.459	15549.37
631.653	15623.1
631.848	15713.21
632.042	15354.82
632.236	15559.61
632.43	15395.78
632.624	15399.87
632.818	15256.51
633.012	14969.8
633.206	14990.28
633.4	15096.77
633.594	14873.54
633.788	14934.98
633.982	14730.19
634.176	14658.51
634.369	14543.82
634.563	14320.59
634.757	14379.98
634.951	14263.25
635.145	14316.5
635.339	14238.67
635.533	14195.67
635.726	14201.81
635.92	13769.69
636.114	14050.26
636.308	13820.89
636.501	13708.25
636.695	13747.16
636.889	13562.84
637.083	13296.61
637.276	13259.74
637.47	13224.93
637.664	13306.85
637.857	13118.43
638.051	13149.15
638.244	13179.87
638.438	12827.62
638.632	12723.18
638.825	12932.07
639.019	12815.34
639.212	12592.11
639.406	12542.96
639.599	12479.47
639.793	12454.89
639.986	12268.53
640.18	12520.43
640.373	12110.83
640.567	12149.75
640.76	12182.51
640.954	11885.56
641.147	11940.85
641.34	11850.74
641.534	11856.89
641.727	11756.54
641.92	11721.72
642.114	11643.9
642.307	11652.09
642.5	11408.38
642.694	11353.09
642.887	11291.65
643.08	11248.64
643.273	11279.36
643.467	11097.09
643.66	10990.59
643.853	10990.59
644.046	10701.83
644.239	10955.78
644.432	10916.87
644.626	10793.99
644.819	10660.87
645.012	10871.81
645.205	10638.34
645.398	10578.95
645.591	10343.44
645.784	10558.47
645.977	10380.3
646.17	10282
646.363	10083.34
646.556	10005.52
646.749	10372.11
646.942	10042.39
647.135	10034.19
647.328	9987.09
647.521	9817.11
647.714	9636.89
647.907	9925.65
648.099	9638.94
648.292	9747.48
648.485	9630.74
648.678	9542.68
648.871	9356.32
649.064	9526.3
649.256	9280.54
649.449	9075.74
649.642	9366.56
649.835	9163.81
650.027	9194.53
650.22	9120.8
650.413	9085.98
650.605	9208.86
650.798	8909.86
650.991	8897.57
651.183	8678.44
651.376	8678.44
651.568	8821.8
651.761	8559.66
651.954	8735.78
652.146	8758.31
652.339	8563.75
652.531	8490.03
652.724	8414.25
652.916	8305.71
653.109	8406.06
653.301	8272.94
653.494	8115.25
653.686	8154.16
653.879	8195.12
654.071	8332.33
654.263	7924.79
654.456	7957.55
654.648	8131.63
654.84	7935.03
655.033	7904.31
655.225	7869.49
655.417	7662.65
655.61	7824.44
655.802	7758.9
655.994	7705.65
656.186	7767.09
656.379	7629.88
656.571	7586.87
656.763	7603.25
656.955	7453.75
657.148	7726.13
657.34	7603.25
657.532	7337.02
657.724	7427.13
657.916	7412.79
658.108	7341.11
658.3	7408.7
658.492	7164.99
658.684	7109.69
658.876	7038.02
659.068	7224.38
659.26	6839.36
659.452	7062.59
659.644	6839.36
659.836	6843.46
660.028	6859.84
660.22	6698.05
660.412	6687.81
660.604	6700.1
660.796	6730.82
660.988	6763.59
661.18	6634.57
661.372	6564.93
661.563	6673.48
661.755	6564.93
661.947	6440.01
662.139	6644.81
662.331	6419.53
662.522	6347.85
662.714	6364.23
662.906	6448.2
663.097	6190.16
663.289	6147.15
663.481	6124.62
663.673	6212.68
663.864	6054.99
664.056	6095.95
664.247	6153.29
664.439	5964.88
664.631	6020.17
664.822	6030.41
665.014	5899.34
665.205	6007.89
665.397	5930.06
665.588	5950.54
665.78	5866.58
665.971	5891.15
666.163	5872.72
666.354	5815.38
666.546	5753.94
666.737	5727.32
666.929	5803.09
667.12	5700.69
667.311	5688.4
667.503	5696.6
667.694	5624.92
667.885	5774.42
668.077	5649.49
668.268	5538.9
668.459	5553.24
668.651	5495.89
668.842	5422.17
669.033	5407.83
669.224	5340.25
669.416	5508.18
669.607	5321.82
669.798	5342.3
669.989	5323.87
670.18	5440.6
670.371	5213.28
670.563	5344.35
670.754	5315.67
670.945	5248.09
671.136	5117.02
671.327	5225.56
671.518	5143.64
671.709	5215.32
671.9	5233.75
672.091	5157.98
672.282	4994.14
672.473	4985.95
672.664	5104.73
672.855	5057.63
673.046	5080.16
673.237	5145.69
673.428	5088.35
673.619	4910.18
673.809	4912.22
674	4893.79
674.191	4713.57
674.382	5047.39
674.573	4828.26
674.764	4813.92
674.954	4815.97
675.145	4914.27
675.336	4805.73
675.527	4713.57
675.717	4889.7
675.908	4643.94
676.099	4746.34
676.289	4877.41
676.48	4656.23
676.671	4605.03
676.861	4854.88
677.052	4691.04
677.243	4660.32
677.433	4795.49
677.624	4770.91
677.814	4703.33
678.005	4727.91
678.195	4559.97
678.386	4672.61
678.576	4633.7
678.767	4645.99
678.957	4533.35
679.148	4596.84
679.338	4510.82
679.529	4777.06
679.719	4650.08
679.909	4533.35
680.1	4500.58
680.29	4465.77
680.481	4643.94
680.671	4584.55
680.861	4615.27
681.052	4580.45
681.242	4408.42
681.432	4586.6
681.622	4527.21
681.813	4439.14
682.003	4537.45
682.193	4482.15
682.383	4504.68
682.573	4482.15
682.764	4433
682.954	4506.73
683.144	4375.66
683.334	4422.76
683.524	4496.49
683.714	4498.53
683.904	4267.11
684.094	4287.59
684.284	4406.38
684.474	4385.9
684.664	4275.31
684.854	4275.31
685.044	4246.63
685.234	4400.23
685.424	4289.64
685.614	4236.39
685.804	4353.13
685.994	4314.22
686.184	4332.65
686.374	4322.41
686.564	4134
686.753	4271.21
686.943	4138.09
687.133	4193.39
687.323	4179.05
687.513	4142.19
687.702	4070.51
687.892	4058.22
688.082	4078.7
688.272	3990.64
688.461	4082.8
688.651	4047.98
688.841	4004.97
689.03	3941.49
689.22	3992.69
689.41	4043.88
689.599	3896.43
689.789	4004.97
689.979	3826.8
690.168	3980.4
690.358	3904.62
690.547	3976.3
690.737	3939.44
690.926	3912.81
691.116	3818.61
691.305	3996.78
691.495	3894.38
691.684	3732.59
691.874	3832.94
692.063	3748.98
692.252	3726.45
692.442	3816.56
692.631	3789.94
692.82	3830.9
693.01	3845.23
693.199	3841.14
693.388	3812.46
693.578	3763.31
693.767	3751.03
693.956	3759.22
694.146	3603.57
694.335	3650.67
694.524	3785.84
694.713	3701.87
694.902	3810.42
695.092	3710.07
695.281	3720.31
695.47	3783.79
695.659	3703.92
695.848	3761.27
696.037	3488.89
696.226	3820.66
696.415	3675.25
696.604	3644.53
696.793	3632.24
696.982	3599.48
697.171	3767.41
697.36	3646.58
697.549	3691.63
697.738	3484.79
697.927	3650.67
698.116	3638.39
698.305	3613.81
698.494	3722.35
698.683	3595.38
698.872	3439.73
699.061	3609.72
699.25	3490.93
699.438	3488.89
699.627	3501.17
699.816	3597.43
700.005	3548.28
700.193	3372.15
700.382	3611.76
700.571	3568.76
700.76	3433.59
700.948	3548.28
701.137	3398.77
701.326	3476.6
701.514	3480.69
701.703	3390.58
701.892	3433.59
702.08	3517.56
702.269	3511.41
702.457	3509.37
702.646	3419.25
702.834	3425.4
703.023	3439.73
703.212	3527.8
703.4	3314.81
703.589	3503.22
703.777	3368.06
703.965	3359.86
704.154	3433.59
704.342	3339.38
704.531	3349.62
704.719	3398.77
704.907	3378.3
705.096	3351.67
705.284	3341.43
705.472	3351.67
705.661	3392.63
705.849	3355.77
706.037	3372.15
706.226	3370.1
706.414	3376.25
706.602	3329.14
706.79	3355.77
706.979	3218.55
707.167	3261.56
707.355	3234.94
707.543	3236.99
707.731	3288.18
707.919	3273.85
708.107	3169.4
708.296	3206.27
708.484	3345.53
708.672	3359.86
708.86	3187.83
709.048	3224.7
709.236	3155.07
709.424	3167.35
709.612	3107.96
709.8	3097.72
709.988	3114.11
710.176	3222.65
710.364	3224.7
710.551	3103.87
710.739	3144.83
710.927	3073.15
711.115	3095.68
711.303	3097.72
711.491	3167.35
711.679	3150.97
711.866	3138.68
712.054	2995.32
712.242	3093.63
712.43	3116.16
712.617	3064.96
712.805	3042.43
712.993	3110.01
713.181	3011.71
713.368	3024
713.556	3024
713.744	2858.11
713.931	3103.87
714.119	2919.55
714.306	3048.57
714.494	2892.93
714.682	2886.78
714.869	3001.47
715.057	3007.61
715.244	2993.28
715.432	2921.6
715.619	2741.38
715.807	2997.37
715.994	2825.34
716.182	2925.69
716.369	3048.57
716.556	2860.16
716.744	2907.26
716.931	2782.34
717.119	2843.78
717.306	2917.5
717.493	3003.52
717.681	2765.95
717.868	2804.86
718.055	2870.4
718.242	2843.78
718.43	2849.92
718.617	2761.86
718.804	2608.26
718.991	2638.98
719.179	2718.85
719.366	2761.86
719.553	2780.29
719.74	2774.14
719.927	2825.34
720.114	2636.93
720.301	2659.46
720.488	2684.03
720.676	2702.47
720.863	2751.62
721.05	2765.95
721.237	2624.64
721.424	2634.88
721.611	2739.33
721.798	2495.62
721.985	2538.63
722.172	2604.16
722.358	2557.06
722.545	2653.31
722.732	2559.11
722.919	2612.35
723.106	2575.49
723.293	2690.18
723.48	2636.93
723.667	2591.88
723.853	2585.73
724.04	2608.26
724.227	2583.68
724.414	2583.68
724.6	2542.72
724.787	2483.33
724.974	2401.41
725.161	2507.91
725.347	2493.57
725.534	2440.33
725.72	2448.52
725.907	2507.91
726.094	2462.85
726.28	2450.57
726.467	2464.9
726.653	2450.57
726.84	2571.4
727.027	2536.58
727.213	2509.96
727.4	2450.57
727.586	2385.03
727.773	2503.81
727.959	2419.85
728.145	2366.6
728.332	2432.13
728.518	2442.37
728.705	2360.45
728.891	2280.58
729.077	2307.21
729.264	2460.81
729.45	2452.61
729.636	2489.48
729.823	2317.45
730.009	2284.68
730.195	2307.21
730.382	2307.21
730.568	2299.02
730.754	2354.31
730.94	2325.64
731.126	2319.5
731.313	2311.3
731.499	2274.44
731.685	2309.26
731.871	2274.44
732.057	2380.93
732.243	2299.02
732.429	2196.62
732.615	2382.98
732.801	2235.53
732.987	2184.33
733.173	2247.82
733.359	2086.03
733.545	2321.54
733.731	2233.48
733.917	2192.52
734.103	2131.08
734.289	2235.53
734.475	2182.28
734.661	2239.62
734.847	2165.9
735.033	2178.19
735.219	2096.27
735.404	2245.77
735.59	2106.51
735.776	2176.14
735.962	2135.18
736.148	2063.5
736.333	2153.61
736.519	2118.79
736.705	2098.31
736.89	2073.74
737.076	2055.31
737.262	2038.92
737.447	2139.27
737.633	2069.64
737.819	2100.36
738.004	2063.5
738.19	2028.68
738.375	1961.1
738.561	2118.79
738.747	2075.79
738.932	1946.76
739.118	2088.07
739.303	2032.78
739.489	2002.06
739.674	1854.61
739.859	1969.29
740.045	2034.83
740.23	2094.22
740.416	1911.95
740.601	2006.16
740.786	1924.24
740.972	1922.19
741.157	1856.65
741.342	1793.17
741.528	1860.75
741.713	1963.15
741.898	1789.07
742.084	1918.09
742.269	1881.23
742.454	1963.15
742.639	1789.07
742.824	1875.09
743.01	1969.29
743.195	1907.85
743.38	1846.41
743.565	1805.46
743.75	1821.84
743.935	1844.37
744.12	1754.26
744.305	1739.92
744.49	1735.82
744.675	1850.51
744.86	1725.58
745.045	1776.78
745.23	1789.07
745.415	1713.3
745.6	1703.06
745.785	1698.96
745.97	1776.78
746.155	1760.4
746.34	1688.72
746.525	1721.49
746.71	1676.43
746.895	1596.56
747.079	1651.86
747.264	1598.61
747.449	1678.48
747.634	1555.6
747.819	1668.24
748.003	1574.03
748.188	1582.23
748.373	1600.66
748.557	1524.88
748.742	1535.12
748.927	1524.88
749.111	1574.03
749.296	1449.11
749.481	1565.84
749.665	1541.27
749.85	1469.59
750.034	1604.75
750.219	1553.55
750.404	1393.81
750.588	1592.47
750.773	1399.96
750.957	1393.81
751.141	1395.86
751.326	1463.44
751.51	1354.9
751.695	1461.4
751.879	1426.58
752.064	1342.61
752.248	1299.61
752.432	1395.86
752.617	1277.08
752.801	1334.42
752.985	1260.7
753.17	1297.56
753.354	1313.94
753.538	1258.65
753.722	1338.52
753.907	1227.93
754.091	1320.09
754.275	1262.74
754.459	1246.36
754.643	1254.55
754.828	1193.11
755.012	1137.82
755.196	1166.49
755.38	1189.02
755.564	1105.05
755.748	1215.64
755.932	1287.32
756.116	1299.61
756.3	1223.83
756.484	1191.06
756.668	1103
756.852	1184.92
757.036	1121.43
757.22	1105.05
757.404	1074.33
757.588	1070.23
757.772	1057.95
757.956	1019.04
758.14	1125.53
758.323	1098.91
758.507	1152.15
758.691	1072.28
758.875	1027.23
759.059	1156.25
759.242	1098.91
759.426	965.79
759.61	1033.37
759.794	1051.8
759.977	984.22
760.161	965.79
760.345	1103
760.528	982.17
760.712	971.93
760.895	973.98
761.079	1010.84
761.263	1037.47
761.446	937.12
761.63	906.4
761.813	1008.8
761.997	949.4
762.18	1006.75
762.364	1014.94
762.547	928.92
762.731	867.49
762.914	879.77
763.098	957.6
763.281	914.59
763.464	867.49
763.648	963.74
763.831	920.73
764.015	822.43
764.198	922.78
764.381	851.1
764.564	969.88
764.748	908.44
764.931	914.59
765.114	834.72
765.297	808.09
765.481	838.81
765.664	853.15
765.847	861.34
766.03	920.73
766.213	824.48
766.397	838.81
766.58	812.19
766.763	838.81
766.946	806.05
767.129	887.97
767.312	793.76
767.495	818.33
767.678	785.57
767.861	795.81
768.044	758.94
768.227	713.89
768.41	781.47
768.593	806.05
768.776	750.75
768.959	760.99
769.142	896.16
769.324	797.85
769.507	754.85
769.69	758.94
769.873	730.27
770.056	705.7
770.239	863.39
770.421	740.51
770.604	687.26
770.787	672.93
770.97	701.6
771.152	765.09
771.335	724.13
771.518	730.27
771.7	703.65
771.883	752.8
772.066	730.27
772.248	736.42
772.431	758.94
772.613	720.03
772.796	621.73
772.978	699.55
773.161	779.42
773.343	619.68
773.526	697.5
773.708	697.5
773.891	619.68
774.073	713.89
774.256	629.92
774.438	730.27
774.621	593.06
774.803	660.64
774.985	613.54
775.168	683.17
775.35	656.54
775.532	677.02
775.715	646.3
775.897	601.25
776.079	591.01
776.261	562.34
776.444	529.57
776.626	595.11
776.808	631.97
776.99	588.96
777.173	638.11
777.355	588.96
777.537	523.43
777.719	591.01
777.901	627.87
778.083	548
778.265	543.91
778.447	568.48
778.629	617.63
778.811	586.91
778.993	556.19
779.175	550.05
779.357	523.43
779.539	502.95
779.721	568.48
779.903	527.52
780.085	490.66
780.267	591.01
780.449	451.75
780.631	494.76
780.812	494.76
780.994	468.13
781.176	515.23
781.358	521.38
781.54	435.36
781.721	464.04
781.903	515.23
782.085	433.32
782.267	394.4
782.448	375.97
782.63	464.04
782.812	361.64
782.993	453.8
783.175	380.07
783.357	373.92
783.538	459.94
783.72	425.12
783.901	427.17
784.083	394.4
784.264	421.03
784.446	418.98
784.627	318.63
784.809	457.89
784.99	314.53
785.172	359.59
785.353	312.49
785.535	396.45
785.716	353.45
785.897	318.63
786.079	382.12
786.26	418.98
786.441	320.68
786.623	378.02
786.804	404.64
786.985	367.78
787.167	363.69
787.348	392.36
787.529	451.75
787.71	312.49
787.891	281.77
788.073	337.06
788.254	367.78
788.435	306.34
788.616	326.82
788.797	314.53
788.978	386.21
789.159	300.2
789.34	314.53
789.522	347.3
789.703	337.06
789.884	289.96
790.065	328.87
790.246	404.64
790.427	320.68
790.607	378.02
790.788	251.05
790.969	341.16
791.15	316.58
791.331	355.49
791.512	230.57
791.693	310.44
791.874	224.42
792.054	296.1
792.235	296.1
792.416	251.05
792.597	253.09
792.778	279.72
792.958	281.77
793.139	277.67
793.32	224.42
793.5	238.76
793.681	302.25
793.862	316.58
794.042	222.38
794.223	222.38
794.404	261.29
794.584	259.24
794.765	203.94
794.945	203.94
795.126	183.46
795.306	267.43
795.487	230.57
795.667	265.38
795.848	240.81
796.028	214.18
796.209	181.42
796.389	314.53
796.57	189.61
796.75	261.29
796.93	216.23
797.111	191.66
797.291	302.25
797.471	222.38
797.652	210.09
797.832	152.74
798.012	249
798.192	240.81
798.373	228.52
798.553	236.71
798.733	173.22
798.913	177.32
799.093	201.9
799.274	224.42
799.454	326.82
799.634	240.81
799.814	195.75
799.994	269.48
800.174	277.67
800.354	259.24
800.534	175.27
800.714	142.5
800.894	154.79
801.074	158.89
801.254	152.74
801.434	246.95
801.614	189.61
801.794	205.99
801.974	556.19
802.154	187.56
802.334	179.37
802.514	124.07
802.693	191.66
802.873	203.94
803.053	181.42
803.233	230.57
803.413	138.41
803.592	201.9
803.772	136.36
803.952	218.28
804.131	122.02
804.311	191.66
804.491	132.26
804.67	111.78
804.85	218.28
805.03	171.18
805.209	146.6
805.389	183.46
805.568	175.27
805.748	197.8
805.928	142.5
806.107	165.03
806.287	179.37
806.466	111.78
806.646	173.22
806.825	185.51
807.004	158.89
807.184	169.13
807.363	173.22
807.543	138.41
807.722	156.84
807.901	79.02
808.081	179.37
808.26	83.11
808.439	185.51
808.619	152.74
808.798	162.98
808.977	150.7
809.156	99.5
809.336	165.03
809.515	197.8
809.694	142.5
809.873	132.26
810.052	148.65
810.231	173.22
810.411	76.97
810.59	136.36
810.769	81.07
810.948	117.93
811.127	66.73
811.306	175.27
811.485	191.66
811.664	136.36
811.843	165.03
812.022	218.28
812.201	130.22
812.38	87.21
812.559	54.44
812.737	126.12
812.916	111.78
813.095	103.59
813.274	128.17
813.453	70.83
813.632	189.61
813.811	185.51
813.989	85.16
814.168	79.02
814.347	177.32
814.526	72.87
814.704	107.69
814.883	142.5
815.062	105.64
815.24	183.46
815.419	107.69
815.598	173.22
815.776	27.82
815.955	62.63
816.133	48.3
816.312	165.03
816.49	150.7
816.669	103.59
816.847	107.69
817.026	122.02
817.204	62.63
817.383	62.63
817.561	91.31
817.74	58.54
817.918	91.31
818.097	-9.05
818.275	46.25
818.453	87.21
818.632	150.7
818.81	97.45
818.988	83.11
819.167	148.65
819.345	113.83
819.523	76.97
819.701	99.5
819.879	103.59
820.058	60.59
820.236	187.56
820.414	113.83
820.592	140.46
820.77	83.11
820.948	111.78
821.127	31.91
821.305	58.54
821.483	17.58
821.661	130.22
821.839	136.36
822.017	128.17
822.195	76.97
822.373	122.02
822.551	95.4
822.729	146.6
822.907	76.97
823.085	99.5
823.262	79.02
823.44	132.26
823.618	-82.77
823.796	52.39
823.974	50.35
824.152	83.11
824.329	66.73
824.507	128.17
824.685	27.82
824.863	146.6
825.04	68.78
825.218	130.22
825.396	19.63
825.574	70.83
825.751	132.26
825.929	54.44
826.107	56.49
826.284	85.16
826.462	44.2
826.639	146.6
826.817	64.68
826.994	117.93
827.172	-15.19
827.349	134.31
827.527	3.24
827.704	89.26
827.882	46.25
828.059	-13.14
828.237	150.7
828.414	132.26
828.591	101.55
828.769	70.83
828.946	58.54
829.124	111.78
829.301	64.68
829.478	97.45
829.655	93.35
829.833	70.83
830.01	-0.85
830.187	13.48
830.364	36.01
830.542	64.68
830.719	40.11
830.896	62.63
831.073	58.54
831.25	38.06
831.427	119.98
831.604	54.44
831.782	66.73
831.959	99.5
832.136	33.96
832.313	134.31
832.49	60.59
832.667	-11.09
832.844	9.39
833.021	23.72
833.198	58.54
833.374	109.74
833.551	46.25
833.728	25.77
833.905	89.26
834.082	-23.38
834.259	11.43
834.436	87.21
834.612	23.72
834.789	21.67
834.966	87.21
835.143	21.67
835.319	-43.86
835.496	101.55
835.673	52.39
835.85	33.96
836.026	58.54
836.203	46.25
836.38	54.44
836.556	48.3
836.733	64.68
836.909	105.64
837.086	-21.33
837.262	95.4
837.439	40.11
837.616	103.59
837.792	-35.67
837.968	58.54
838.145	23.72
838.321	60.59
838.498	-13.14
838.674	3.24
838.851	56.49
839.027	5.29
839.203	66.73
839.38	95.4
839.556	46.25
839.732	38.06
839.909	60.59
840.085	124.07
840.261	-11.09
840.437	50.35
840.614	79.02
840.79	50.35
840.966	130.22
841.142	42.15
841.318	-9.05
841.494	-33.62
841.671	-15.19
841.847	1.19
842.023	81.07
842.199	40.11
842.375	154.79
842.551	29.87
842.727	25.77
842.903	27.82
843.079	13.48
843.255	66.73
843.431	62.63
843.607	68.78
843.783	42.15
843.959	19.63
844.134	19.63
844.31	107.69
844.486	36.01
844.662	50.35
844.838	-0.85
845.013	9.39
845.189	17.58
845.365	42.15
845.541	-7
845.716	3.24
845.892	60.59
846.068	38.06
846.244	19.63
846.419	-27.48
846.595	13.48
846.77	21.67
846.946	81.07
847.122	21.67
847.297	-17.24
847.473	87.21
847.648	52.39
847.824	-9.05
847.999	-50
848.175	48.3
848.35	91.31
848.526	7.34
848.701	19.63
848.876	48.3
849.052	66.73
849.227	17.58
849.403	58.54
849.578	31.91
849.753	13.48
849.929	66.73
850.104	68.78
850.279	72.87
850.454	3.24
850.63	25.77
850.805	-33.62
850.98	111.78
851.155	-39.76
851.33	5.29
851.505	-31.57
851.681	42.15
851.856	-50
852.031	9.39
852.206	-4.95
852.381	40.11
852.556	-29.52
852.731	21.67
852.906	17.58
853.081	-33.62
853.256	66.73
853.431	19.63
853.606	23.72
853.781	40.11
853.956	38.06
854.131	42.15
854.305	-50
854.48	54.44
854.655	40.11
854.83	-19.29
855.005	42.15
855.18	40.11
855.354	25.77
855.529	72.87
855.704	33.96
855.879	-0.85
856.053	-39.76
856.228	-27.48
856.403	-7
856.577	52.39
856.752	-13.14
856.926	72.87
857.101	3.24
857.276	17.58
857.45	44.2
857.625	38.06
857.799	79.02
857.974	1.19
858.148	-37.72
858.323	21.67
858.497	68.78
858.672	70.83
858.846	-56.15
859.02	-13.14
859.195	-88.92
859.369	44.2
859.543	48.3
859.718	27.82
859.892	-37.72
860.066	62.63
860.241	23.72
860.415	74.92
860.589	-60.24
860.763	33.96
860.938	15.53
861.112	50.35
861.286	-11.09
861.46	31.91
861.634	79.02
861.808	27.82
861.982	-23.38
862.157	5.29
862.331	-4.95
862.505	-7
862.679	-15.19
862.853	9.39
863.027	-4.95
863.201	-39.76
863.375	33.96
863.549	60.59
863.722	-27.48
863.896	5.29
864.07	-31.57
864.244	-0.85
864.418	-0.85
864.592	62.63
864.766	58.54
864.939	72.87
865.113	9.39
865.287	66.73
865.461	-33.62
865.634	7.34
865.808	-27.48
865.982	9.39
866.156	38.06
866.329	89.26
866.503	-37.72
866.676	64.68
866.85	-52.05
867.024	-25.43
867.197	36.01
867.371	50.35
867.544	29.87
867.718	3.24
867.891	-31.57
868.065	93.35
868.238	40.11
868.412	7.34
868.585	9.39
868.759	-50
868.932	-45.91
869.105	-4.95
869.279	-7
869.452	-80.72
869.625	56.49
869.799	40.11
869.972	21.67
870.145	1.19
870.319	13.48
870.492	-45.91
870.665	54.44
870.838	-39.76
871.011	-62.29
871.185	76.97
871.358	17.58
871.531	5.29
871.704	-82.77
871.877	36.01
872.05	-47.96
872.223	-19.29
872.396	21.67
872.569	31.91
872.742	5.29
872.915	25.77
873.088	1.19
873.261	21.67
873.434	-0.85
873.607	-7
873.78	48.3
873.953	-2.9
874.126	25.77
874.299	-11.09
874.471	-0.85
874.644	-17.24
874.817	-25.43
874.99	27.82
875.163	36.01
875.335	54.44
875.508	-35.67
875.681	-27.48
875.853	50.35
876.026	-17.24
876.199	-9.05
876.371	23.72
876.544	21.67
876.717	-13.14
876.889	11.43
877.062	3.24
877.234	-54.1
877.407	11.43
877.579	-4.95
877.752	21.67
877.924	-27.48
878.097	7.34
878.269	-11.09
878.442	21.67
878.614	33.96
878.786	-17.24
878.959	50.35
879.131	21.67
879.303	-41.81
879.476	64.68
879.648	7.34
879.82	-25.43
879.993	-2.9
880.165	62.63
880.337	-9.05
880.509	50.35
880.681	7.34
880.854	-19.29
881.026	-11.09
881.198	5.29
881.37	-13.14
881.542	36.01
881.714	-31.57
881.886	-39.76
882.058	5.29
882.23	52.39
882.402	-27.48
882.574	-2.9
882.746	3.24
882.918	44.2
883.09	-33.62
883.262	25.77
883.434	56.49
883.606	-7
883.778	60.59
883.95	68.78
884.122	-41.81
884.293	89.26
884.465	3.24
884.637	31.91
884.809	-13.14
884.98	-7
885.152	58.54
885.324	44.2
885.496	103.59
885.667	62.63
885.839	-80.72
886.011	-15.19
886.182	-64.34
886.354	-7
886.525	7.34
886.697	-13.14
886.869	-11.09
887.04	-50
887.212	31.91
887.383	122.02
887.555	56.49
887.726	44.2
887.897	3.24
888.069	9.39
888.24	56.49
888.412	-37.72
888.583	5.29
888.754	-21.33
888.926	-37.72
889.097	36.01
889.268	-17.24
889.44	-27.48
889.611	29.87
889.782	-27.48
889.953	-47.96
890.125	-37.72
890.296	-17.24
890.467	15.53
890.638	-9.05
890.809	105.64
890.98	-72.53
891.151	64.68
891.323	-47.96
891.494	17.58
891.665	-29.52
891.836	-37.72
892.007	48.3
892.178	-0.85
892.349	-15.19
892.52	9.39
892.691	-58.2
892.862	-31.57
893.032	85.16
893.203	-0.85
893.374	31.91
893.545	-41.81
893.716	46.25
893.887	-31.57
894.057	38.06
894.228	5.29
894.399	-4.95
894.57	1.19
894.74	-31.57
894.911	33.96
895.082	42.15
895.253	68.78
895.423	72.87
895.594	-35.67
895.764	-90.96
895.935	-9.05
896.106	-0.85
896.276	-27.48
896.447	-21.33
896.617	40.11
896.788	19.63
896.958	-82.77
897.129	21.67
897.299	-0.85
897.47	-74.58
897.64	56.49
897.81	42.15
897.981	-31.57
898.151	93.35
898.322	-35.67
898.492	-35.67
898.662	-64.34
898.832	-23.38
899.003	-15.19
899.173	-11.09
899.343	-33.62
899.513	-27.48
