Data from USB4F104151__62__12-36-30-715.txt Node

Date: Fri Mar 14 12:36:30 EDT 2025
User: louis
Spectrometer: USB4F10415
Trigger mode: 4
Integration Time (sec): 2.000000E-2
Scans to average: 1
Electric dark correction enabled: true
Nonlinearity correction enabled: false
Boxcar width: 0
XAxis mode: Wavelengths
Number of Pixels in Spectrum: 3648
>>>>>Begin Spectral Data<<<<<
178.204	-91.65
178.424	-91.65
178.644	-91.65
178.864	-65.02
179.084	-67.07
179.304	23.04
179.524	25.09
179.744	-46.59
179.964	-13.82
180.184	2.56
180.404	23.04
180.624	18.94
180.844	-22.02
181.064	-89.6
181.283	31.23
181.503	29.18
181.723	18.94
181.943	-34.3
182.163	98.81
182.383	16.9
182.602	8.7
182.822	59.9
183.042	47.62
183.262	29.18
183.482	104.96
183.701	66.05
183.921	104.96
184.141	-38.4
184.361	100.86
184.58	59.9
184.8	-54.78
185.02	6.66
185.239	43.52
185.459	57.86
185.679	115.2
185.898	53.76
186.118	45.57
186.338	72.19
186.557	57.86
186.777	37.38
186.997	35.33
187.216	-3.58
187.436	100.86
187.655	35.33
187.875	47.62
188.095	-24.06
188.314	53.76
188.534	96.77
188.753	68.09
188.973	0.51
189.192	86.53
189.412	16.9
189.631	84.48
189.851	-26.11
190.07	25.09
190.29	8.7
190.509	25.09
190.729	45.57
190.948	84.48
191.168	135.68
191.387	66.05
191.607	45.57
191.826	70.14
192.045	92.67
192.265	35.33
192.484	72.19
192.704	41.47
192.923	6.66
193.142	82.43
193.362	31.23
193.581	37.38
193.8	49.66
194.02	31.23
194.239	-3.58
194.458	78.33
194.678	49.66
194.897	8.7
195.116	-1.54
195.335	55.81
195.555	68.09
195.774	59.9
195.993	25.09
196.212	74.24
196.432	27.14
196.651	76.29
196.87	53.76
197.089	107.01
197.308	31.23
197.528	102.91
197.747	-13.82
197.966	16.9
198.185	66.05
198.404	16.9
198.623	84.48
198.842	82.43
199.062	57.86
199.281	37.38
199.5	76.29
199.719	107.01
199.938	98.81
200.157	55.81
200.376	61.95
200.595	51.71
200.814	86.53
201.033	29.18
201.252	131.58
201.471	86.53
201.69	51.71
201.909	61.95
202.128	25.09
202.347	59.9
202.566	-40.45
202.785	94.72
203.004	45.57
203.223	133.63
203.442	35.33
203.661	53.76
203.879	43.52
204.098	53.76
204.317	64
204.536	25.09
204.755	107.01
204.974	55.81
205.193	39.42
205.411	72.19
205.63	45.57
205.849	45.57
206.068	100.86
206.287	156.16
206.505	25.09
206.724	53.76
206.943	27.14
207.162	86.53
207.381	-28.16
207.599	57.86
207.818	10.75
208.037	68.09
208.255	-26.11
208.474	70.14
208.693	8.7
208.911	25.09
209.13	47.62
209.349	92.67
209.567	82.43
209.786	55.81
210.005	0.51
210.223	-5.63
210.442	37.38
210.661	-36.35
210.879	37.38
211.098	51.71
211.316	27.14
211.535	100.86
211.753	57.86
211.972	82.43
212.191	-44.54
212.409	66.05
212.628	76.29
212.846	82.43
213.065	45.57
213.283	70.14
213.502	-26.11
213.72	61.95
213.938	86.53
214.157	20.99
214.375	35.33
214.594	49.66
214.812	80.38
215.031	72.19
215.249	-1.54
215.467	59.9
215.686	14.85
215.904	70.14
216.122	29.18
216.341	107.01
216.559	0.51
216.778	45.57
216.996	-36.35
217.214	-3.58
217.432	88.57
217.651	0.51
217.869	66.05
218.087	14.85
218.306	53.76
218.524	-3.58
218.742	-19.97
218.96	90.62
219.179	37.38
219.397	109.05
219.615	82.43
219.833	143.87
220.051	72.19
220.27	45.57
220.488	39.42
220.706	94.72
220.924	59.9
221.142	29.18
221.36	43.52
221.578	74.24
221.796	-30.21
222.015	84.48
222.233	23.04
222.451	158.21
222.669	35.33
222.887	33.28
223.105	115.2
223.323	20.99
223.541	61.95
223.759	131.58
223.977	66.05
224.195	92.67
224.413	39.42
224.631	127.49
224.849	96.77
225.067	55.81
225.285	45.57
225.503	80.38
225.721	-5.63
225.939	57.86
226.157	80.38
226.375	100.86
226.592	10.75
226.81	59.9
227.028	12.8
227.246	39.42
227.464	51.71
227.682	84.48
227.9	61.95
228.117	45.57
228.335	0.51
228.553	57.86
228.771	25.09
228.989	45.57
229.206	47.62
229.424	29.18
229.642	45.57
229.86	0.51
230.077	35.33
230.295	-26.11
230.513	88.57
230.731	47.62
230.948	86.53
231.166	55.81
231.384	49.66
231.601	94.72
231.819	86.53
232.037	82.43
232.254	-3.58
232.472	41.47
232.689	119.29
232.907	27.14
233.125	39.42
233.342	-22.02
233.56	18.94
233.777	8.7
233.995	74.24
234.213	37.38
234.43	94.72
234.648	23.04
234.865	49.66
235.083	39.42
235.3	-67.07
235.518	98.81
235.735	113.15
235.953	92.67
236.17	-15.87
236.388	29.18
236.605	80.38
236.822	37.38
237.04	-22.02
237.257	39.42
237.475	51.71
237.692	72.19
237.909	102.91
238.127	33.28
238.344	6.66
238.562	-17.92
238.779	76.29
238.996	53.76
239.214	61.95
239.431	129.53
239.648	64
239.865	-1.54
240.083	10.75
240.3	39.42
240.517	23.04
240.735	64
240.952	31.23
241.169	76.29
241.386	84.48
241.603	53.76
241.821	59.9
242.038	45.57
242.255	76.29
242.472	-22.02
242.689	76.29
242.907	41.47
243.124	49.66
243.341	-24.06
243.558	35.33
243.775	82.43
243.992	64
244.209	100.86
244.426	107.01
244.643	92.67
244.86	68.09
245.078	25.09
245.295	37.38
245.512	59.9
245.729	78.33
245.946	111.1
246.163	35.33
246.38	76.29
246.597	68.09
246.814	35.33
247.031	2.56
247.248	70.14
247.464	18.94
247.681	53.76
247.898	47.62
248.115	117.25
248.332	0.51
248.549	82.43
248.766	57.86
248.983	66.05
249.2	115.2
249.417	100.86
249.633	55.81
249.85	74.24
250.067	66.05
250.284	74.24
250.501	20.99
250.717	66.05
250.934	61.95
251.151	12.8
251.368	10.75
251.585	66.05
251.801	33.28
252.018	-5.63
252.235	123.39
252.451	29.18
252.668	82.43
252.885	78.33
253.102	96.77
253.318	78.33
253.535	100.86
253.752	49.66
253.968	-15.87
254.185	51.71
254.401	29.18
254.618	107.01
254.835	57.86
255.051	29.18
255.268	55.81
255.484	76.29
255.701	47.62
255.917	72.19
256.134	74.24
256.351	78.33
256.567	86.53
256.784	31.23
257	14.85
257.217	18.94
257.433	45.57
257.65	43.52
257.866	43.52
258.082	-30.21
258.299	33.28
258.515	45.57
258.732	2.56
258.948	64
259.165	88.57
259.381	33.28
259.597	43.52
259.814	113.15
260.03	68.09
260.246	131.58
260.463	80.38
260.679	23.04
260.895	109.05
261.112	84.48
261.328	29.18
261.544	66.05
261.761	64
261.977	23.04
262.193	16.9
262.409	115.2
262.626	49.66
262.842	31.23
263.058	23.04
263.274	70.14
263.49	6.66
263.707	82.43
263.923	98.81
264.139	18.94
264.355	90.62
264.571	47.62
264.787	92.67
265.004	158.21
265.22	96.77
265.436	57.86
265.652	14.85
265.868	113.15
266.084	61.95
266.3	39.42
266.516	12.8
266.732	10.75
266.948	10.75
267.164	59.9
267.38	47.62
267.596	51.71
267.812	111.1
268.028	29.18
268.244	-44.54
268.46	23.04
268.676	16.9
268.892	27.14
269.108	-3.58
269.324	104.96
269.54	31.23
269.756	117.25
269.972	23.04
270.188	49.66
270.403	64
270.619	129.53
270.835	90.62
271.051	70.14
271.267	20.99
271.483	39.42
271.698	84.48
271.914	-13.82
272.13	76.29
272.346	43.52
272.562	41.47
272.777	121.34
272.993	72.19
273.209	72.19
273.425	70.14
273.64	55.81
273.856	90.62
274.072	-19.97
274.287	109.05
274.503	43.52
274.719	70.14
274.934	49.66
275.15	35.33
275.366	-7.68
275.581	-28.16
275.797	127.49
276.012	45.57
276.228	86.53
276.444	39.42
276.659	139.77
276.875	55.81
277.09	2.56
277.306	49.66
277.521	143.87
277.737	-24.06
277.952	70.14
278.168	0.51
278.383	90.62
278.599	57.86
278.814	98.81
279.03	66.05
279.245	51.71
279.461	92.67
279.676	4.61
279.892	72.19
280.107	55.81
280.322	59.9
280.538	59.9
280.753	18.94
280.969	94.72
281.184	55.81
281.399	131.58
281.615	92.67
281.83	41.47
282.045	35.33
282.26	6.66
282.476	35.33
282.691	125.44
282.906	41.47
283.122	61.95
283.337	57.86
283.552	33.28
283.767	76.29
283.983	96.77
284.198	57.86
284.413	82.43
284.628	41.47
284.843	72.19
285.058	55.81
285.274	-1.54
285.489	117.25
285.704	49.66
285.919	61.95
286.134	16.9
286.349	59.9
286.564	27.14
286.779	145.92
286.995	37.38
287.21	-11.78
287.425	-32.26
287.64	-11.78
287.855	66.05
288.07	39.42
288.285	37.38
288.5	90.62
288.715	41.47
288.93	82.43
289.145	57.86
289.36	55.81
289.575	86.53
289.79	100.86
290.004	74.24
290.219	45.57
290.434	27.14
290.649	20.99
290.864	66.05
291.079	45.57
291.294	84.48
291.509	45.57
291.724	57.86
291.938	45.57
292.153	129.53
292.368	66.05
292.583	55.81
292.798	74.24
293.012	92.67
293.227	49.66
293.442	117.25
293.657	82.43
293.871	76.29
294.086	74.24
294.301	150.01
294.516	94.72
294.73	61.95
294.945	59.9
295.16	51.71
295.374	96.77
295.589	111.1
295.804	121.34
296.018	10.75
296.233	100.86
296.447	94.72
296.662	53.76
296.877	53.76
297.091	86.53
297.306	-30.21
297.52	-11.78
297.735	61.95
297.949	66.05
298.164	51.71
298.378	49.66
298.593	64
298.807	-3.58
299.022	78.33
299.236	76.29
299.451	43.52
299.665	70.14
299.88	145.92
300.094	102.91
300.309	68.09
300.523	107.01
300.737	59.9
300.952	43.52
301.166	51.71
301.381	14.85
301.595	-32.26
301.809	61.95
302.024	4.61
302.238	47.62
302.452	135.68
302.667	33.28
302.881	100.86
303.095	113.15
303.309	55.81
303.524	-3.58
303.738	23.04
303.952	25.09
304.166	76.29
304.381	14.85
304.595	84.48
304.809	51.71
305.023	4.61
305.237	72.19
305.452	127.49
305.666	33.28
305.88	74.24
306.094	94.72
306.308	61.95
306.522	100.86
306.736	88.57
306.95	64
307.164	121.34
307.379	2.56
307.593	96.77
307.807	100.86
308.021	31.23
308.235	74.24
308.449	27.14
308.663	-42.5
308.877	109.05
309.091	72.19
309.305	55.81
309.519	-15.87
309.733	23.04
309.947	41.47
310.161	45.57
310.374	102.91
310.588	39.42
310.802	8.7
311.016	70.14
311.23	70.14
311.444	104.96
311.658	8.7
311.872	154.11
312.085	16.9
312.299	45.57
312.513	123.39
312.727	125.44
312.941	86.53
313.154	92.67
313.368	39.42
313.582	80.38
313.796	90.62
314.009	78.33
314.223	123.39
314.437	35.33
314.651	20.99
314.864	82.43
315.078	86.53
315.292	16.9
315.505	14.85
315.719	64
315.933	25.09
316.146	86.53
316.36	27.14
316.573	47.62
316.787	14.85
317.001	131.58
317.214	27.14
317.428	158.21
317.641	64
317.855	55.81
318.068	68.09
318.282	55.81
318.495	51.71
318.709	90.62
318.922	41.47
319.136	43.52
319.349	35.33
319.563	49.66
319.776	27.14
319.99	39.42
320.203	96.77
320.417	14.85
320.63	119.29
320.843	113.15
321.057	64
321.27	66.05
321.483	137.73
321.697	80.38
321.91	88.57
322.124	53.76
322.337	72.19
322.55	43.52
322.763	25.09
322.977	80.38
323.19	41.47
323.403	94.72
323.617	94.72
323.83	27.14
324.043	53.76
324.256	72.19
324.469	41.47
324.683	98.81
324.896	68.09
325.109	111.1
325.322	115.2
325.535	59.9
325.748	16.9
325.962	39.42
326.175	51.71
326.388	72.19
326.601	82.43
326.814	-15.87
327.027	76.29
327.24	100.86
327.453	-15.87
327.666	20.99
327.879	98.81
328.092	68.09
328.305	49.66
328.518	84.48
328.731	14.85
328.944	72.19
329.157	150.01
329.37	55.81
329.583	37.38
329.796	96.77
330.009	29.18
330.222	115.2
330.435	2.56
330.648	49.66
330.861	41.47
331.073	39.42
331.286	47.62
331.499	57.86
331.712	111.1
331.925	43.52
332.138	107.01
332.35	90.62
332.563	31.23
332.776	129.53
332.989	92.67
333.202	121.34
333.414	51.71
333.627	39.42
333.84	29.18
334.053	90.62
334.265	8.7
334.478	74.24
334.691	4.61
334.903	31.23
335.116	55.81
335.329	100.86
335.541	64
335.754	174.59
335.966	35.33
336.179	94.72
336.392	125.44
336.604	84.48
336.817	117.25
337.029	25.09
337.242	66.05
337.454	117.25
337.667	47.62
337.88	74.24
338.092	82.43
338.305	107.01
338.517	107.01
338.729	137.73
338.942	53.76
339.154	29.18
339.367	43.52
339.579	74.24
339.792	-19.97
340.004	98.81
340.217	104.96
340.429	90.62
340.641	29.18
340.854	131.58
341.066	20.99
341.278	23.04
341.491	137.73
341.703	76.29
341.915	-42.5
342.128	82.43
342.34	27.14
342.552	-3.58
342.764	94.72
342.977	82.43
343.189	57.86
343.401	129.53
343.613	72.19
343.826	100.86
344.038	-1.54
344.25	45.57
344.462	31.23
344.674	51.71
344.886	43.52
345.099	45.57
345.311	72.19
345.523	137.73
345.735	49.66
345.947	109.05
346.159	64
346.371	49.66
346.583	86.53
346.795	113.15
347.007	49.66
347.219	84.48
347.431	45.57
347.643	47.62
347.855	64
348.067	53.76
348.279	49.66
348.491	121.34
348.703	119.29
348.915	49.66
349.127	127.49
349.339	74.24
349.551	23.04
349.763	80.38
349.975	94.72
350.187	107.01
350.399	100.86
350.61	123.39
350.822	-40.45
351.034	88.57
351.246	59.9
351.458	111.1
351.669	90.62
351.881	49.66
352.093	96.77
352.305	133.63
352.517	45.57
352.728	100.86
352.94	92.67
353.152	78.33
353.363	127.49
353.575	190.97
353.787	6.66
353.999	86.53
354.21	92.67
354.422	57.86
354.633	119.29
354.845	35.33
355.057	16.9
355.268	45.57
355.48	53.76
355.692	18.94
355.903	53.76
356.115	90.62
356.326	12.8
356.538	123.39
356.749	96.77
356.961	98.81
357.172	37.38
357.384	8.7
357.595	145.92
357.807	111.1
358.018	49.66
358.23	104.96
358.441	115.2
358.653	80.38
358.864	29.18
359.075	80.38
359.287	41.47
359.498	117.25
359.709	107.01
359.921	109.05
360.132	-11.78
360.344	92.67
360.555	90.62
360.766	92.67
360.977	55.81
361.189	113.15
361.4	88.57
361.611	82.43
361.823	104.96
362.034	135.68
362.245	8.7
362.456	88.57
362.667	55.81
362.879	68.09
363.09	25.09
363.301	102.91
363.512	82.43
363.723	88.57
363.935	113.15
364.146	59.9
364.357	102.91
364.568	121.34
364.779	104.96
364.99	123.39
365.201	18.94
365.412	121.34
365.623	49.66
365.834	117.25
366.045	143.87
366.256	78.33
366.467	16.9
366.678	68.09
366.889	74.24
367.1	66.05
367.311	88.57
367.522	94.72
367.733	100.86
367.944	127.49
368.155	74.24
368.366	113.15
368.577	86.53
368.788	158.21
368.999	86.53
369.209	76.29
369.42	25.09
369.631	104.96
369.842	111.1
370.053	29.18
370.264	90.62
370.474	129.53
370.685	68.09
370.896	59.9
371.107	45.57
371.317	92.67
371.528	94.72
371.739	41.47
371.95	104.96
372.16	23.04
372.371	90.62
372.582	92.67
372.792	86.53
373.003	70.14
373.214	74.24
373.424	109.05
373.635	90.62
373.846	78.33
374.056	55.81
374.267	109.05
374.477	129.53
374.688	47.62
374.898	-38.4
375.109	119.29
375.319	96.77
375.53	55.81
375.74	139.77
375.951	94.72
376.161	49.66
376.372	111.1
376.582	109.05
376.793	64
377.003	4.61
377.214	43.52
377.424	104.96
377.635	66.05
377.845	92.67
378.055	78.33
378.266	53.76
378.476	111.1
378.686	-1.54
378.897	12.8
379.107	129.53
379.317	115.2
379.528	117.25
379.738	64
379.948	121.34
380.158	111.1
380.369	74.24
380.579	102.91
380.789	129.53
380.999	131.58
381.21	64
381.42	178.69
381.63	102.91
381.84	57.86
382.05	107.01
382.261	55.81
382.471	113.15
382.681	92.67
382.891	158.21
383.101	100.86
383.311	61.95
383.521	133.63
383.731	61.95
383.941	90.62
384.151	111.1
384.361	68.09
384.571	6.66
384.781	115.2
384.991	76.29
385.201	168.45
385.411	66.05
385.621	96.77
385.831	33.28
386.041	102.91
386.251	59.9
386.461	86.53
386.671	76.29
386.881	88.57
387.091	68.09
387.301	111.1
387.511	39.42
387.72	158.21
387.93	145.92
388.14	10.75
388.35	39.42
388.56	109.05
388.769	113.15
388.979	94.72
389.189	125.44
389.399	70.14
389.609	-5.63
389.818	170.49
390.028	43.52
390.238	78.33
390.447	113.15
390.657	100.86
390.867	102.91
391.076	123.39
391.286	121.34
391.496	176.64
391.705	125.44
391.915	49.66
392.125	115.2
392.334	94.72
392.544	150.01
392.753	158.21
392.963	168.45
393.172	160.25
393.382	96.77
393.591	186.88
393.801	127.49
394.01	74.24
394.22	129.53
394.429	127.49
394.639	86.53
394.848	172.54
395.058	150.01
395.267	150.01
395.477	141.82
395.686	127.49
395.895	180.73
396.105	152.06
396.314	162.3
396.524	139.77
396.733	121.34
396.942	100.86
397.152	119.29
397.361	238.08
397.57	117.25
397.78	125.44
397.989	203.26
398.198	186.88
398.407	164.35
398.617	135.68
398.826	190.97
399.035	107.01
399.244	127.49
399.453	201.21
399.663	225.79
399.872	117.25
400.081	166.4
400.29	123.39
400.499	176.64
400.708	166.4
400.917	182.78
401.127	174.59
401.336	133.63
401.545	156.16
401.754	82.43
401.963	295.42
402.172	141.82
402.381	127.49
402.59	133.63
402.799	178.69
403.008	252.41
403.217	201.21
403.426	176.64
403.635	254.46
403.844	188.93
404.053	197.12
404.262	119.29
404.471	215.55
404.68	231.93
404.888	211.45
405.097	244.22
405.306	238.08
405.515	231.93
405.724	246.27
405.933	254.46
406.142	223.74
406.35	231.93
406.559	287.23
406.768	281.08
406.977	317.95
407.185	313.85
407.394	283.13
407.603	320
407.812	358.91
408.02	389.63
408.229	367.1
408.438	377.34
408.646	276.99
408.855	375.29
409.064	410.11
409.272	426.49
409.481	412.15
409.69	354.81
409.898	434.68
410.107	408.06
410.315	446.97
410.524	508.41
410.733	520.7
410.941	543.22
411.15	502.26
411.358	545.27
411.567	598.52
411.775	623.09
411.984	612.85
412.192	651.77
412.401	678.39
412.609	694.77
412.818	666.1
413.026	688.63
413.234	764.4
413.443	709.11
413.651	756.21
413.86	838.13
414.068	907.76
414.276	846.32
414.485	877.04
414.693	975.35
414.901	987.63
415.11	1024.5
415.318	993.78
415.526	1073.65
415.734	1165.81
415.943	1143.28
416.151	1141.23
416.359	1219.05
416.567	1159.66
416.776	1333.74
416.984	1395.18
417.192	1286.64
417.4	1272.3
417.608	1366.51
417.817	1458.67
418.025	1548.78
418.233	1606.12
418.441	1651.17
418.649	1688.04
418.857	1706.47
419.065	1804.77
419.273	1788.39
419.481	1974.75
419.689	2036.19
419.897	2150.88
420.105	2177.5
420.313	2329.05
420.521	2357.72
420.729	2322.91
420.937	2458.07
421.145	2421.21
421.353	2660.82
421.561	2597.34
421.769	2795.99
421.977	2968.02
422.185	2802.13
422.393	3131.86
422.601	3250.64
422.809	3254.73
423.017	3445.2
423.224	3410.38
423.432	3598.79
423.64	3623.37
423.848	3869.12
424.056	3850.69
424.263	4045.25
424.471	4016.58
424.679	4108.74
424.887	4547
425.094	4536.76
425.302	4600.25
425.51	4690.36
425.718	4917.68
425.925	4921.78
426.133	5028.28
426.341	5335.47
426.548	5771.69
426.756	5638.57
426.964	5675.43
427.171	5933.48
427.379	6042.02
427.586	6320.54
427.794	6476.19
428.001	6715.8
428.209	7096.72
428.417	7082.39
428.624	7242.13
428.832	7446.93
429.039	7227.79
429.247	7303.57
429.454	7995.78
429.662	8634.75
429.869	8057.22
430.076	8778.11
430.284	8417.66
430.491	8712.57
430.699	9259.38
430.906	9142.64
431.114	9181.56
431.321	9695.6
431.528	9902.44
431.736	10357.09
431.943	10957.14
432.15	10580.32
432.358	10858.84
432.565	11485.52
432.772	11260.24
432.979	12063.05
433.187	12179.78
433.394	12310.85
433.601	13232.44
433.808	13220.15
434.016	12886.33
434.223	13652.27
434.43	14498.08
434.637	14004.52
434.844	15161.62
435.052	15413.52
435.259	15225.11
435.466	15538.45
435.673	15325.46
435.88	16050.44
436.087	17017.08
436.294	17111.29
436.501	16603.39
436.708	17189.11
436.915	17760.5
437.122	18376.94
437.329	18348.26
437.537	18837.73
437.743	19386.58
437.95	19073.24
438.157	20256.97
438.364	20820.16
438.571	20459.72
438.778	20922.56
438.985	22601.9
439.192	21897.39
439.399	22644.9
439.606	21948.59
439.813	23277.72
440.02	24938.63
440.227	24383.63
440.433	24080.53
440.64	24963.2
440.847	24643.72
441.054	25542.78
441.261	26894.44
441.467	26804.33
441.674	27248.74
441.881	28016.72
442.088	27926.61
442.294	28149.84
442.501	28379.21
442.708	29153.35
442.914	30324.79
443.121	31758.36
443.328	30513.2
443.534	32632.85
443.741	31748.12
443.948	31494.18
444.154	33828.86
444.361	33574.91
444.568	33769.47
444.774	33806.33
444.981	34195.45
445.187	35307.49
445.394	36622.29
445.6	36272.09
445.807	39647.14
446.013	38019
446.22	38791.09
446.426	40478.61
446.633	40796.05
446.839	41914.24
447.046	40251.29
447.252	42323.83
447.459	42469.24
447.665	42403.7
447.871	44224.35
448.078	45868.87
448.284	43949.92
448.491	44814.16
448.697	46628.66
448.903	47800.1
449.11	47228.72
449.316	46446.4
449.522	47542.06
449.728	48518.94
449.935	49422.09
450.141	49317.65
450.347	50157.31
450.553	48580.38
450.76	49501.96
450.966	50663.16
451.172	50050.82
451.378	51740.39
451.584	50695.93
451.791	52025.06
451.997	51447.53
452.203	52500.19
452.409	52737.76
452.615	52129.51
452.821	50315.01
453.027	49913.61
453.233	52469.47
453.44	50951.93
453.646	51261.17
453.852	51238.64
454.058	52074.21
454.264	50851.58
454.47	51687.15
454.676	50235.14
454.882	52190.95
455.088	47927.08
455.294	48367.39
455.5	48770.84
455.705	49592.08
455.911	47695.66
456.117	46780.21
456.323	46337.85
456.529	43992.93
456.735	46071.62
456.941	44969.81
457.147	43794.28
457.352	42633.08
457.558	42092.41
457.764	41977.73
457.97	41269.13
458.176	40339.35
458.381	40636.31
458.587	38627.25
458.793	39114.67
458.999	36890.57
459.204	38973.36
459.41	38012.86
459.616	35659.74
459.821	35633.12
460.027	35622.88
460.233	34865.13
460.438	33208.33
460.644	33775.61
460.85	31938.58
461.055	31252.52
461.261	31432.74
461.466	29114.44
461.672	28166.23
461.878	30269.49
462.083	28039.25
462.289	27705.43
462.494	27484.25
462.7	26241.14
462.905	25364.6
463.111	26353.77
463.316	26826.85
463.522	25757.81
463.727	26022
463.932	25987.19
464.138	25319.55
464.343	25706.62
464.549	24840.32
464.754	25950.32
464.959	25667.7
465.165	25069.7
465.37	24295.57
465.575	23638.17
465.781	24758.41
465.986	24782.98
466.191	23771.29
466.397	23406.75
466.602	22202.54
466.807	23126.18
467.012	23328.92
467.218	23226.53
467.423	22898.85
467.628	23154.85
467.833	24281.23
468.038	22679.72
468.244	22274.22
468.449	23197.85
468.654	22386.86
468.859	22341.8
469.064	22038.7
469.269	21297.34
469.474	21330.11
469.679	21815.48
469.885	21371.07
470.09	21336.25
470.295	21371.07
470.5	20793.54
470.705	20611.27
470.91	20650.18
471.115	20293.83
471.32	20625.61
471.525	20570.31
471.73	20035.79
471.935	19787.99
472.139	19232.99
472.344	19775.7
472.549	19300.57
472.754	19347.67
472.959	18774.24
473.164	18274.54
473.369	18028.78
473.574	18653.41
473.778	18440.42
473.983	18522.34
474.188	18374.89
474.393	17631.47
474.598	17580.28
474.802	17180.92
475.007	17379.57
475.212	17035.52
475.417	16765.18
475.621	16503.04
475.826	16621.83
476.031	16328.97
476.235	16060.68
476.44	16382.21
476.645	16064.78
476.849	16034.06
477.054	16009.48
477.259	15655.19
477.463	15626.51
477.668	15464.72
477.872	15442.2
478.077	15214.87
478.282	14872.86
478.486	14838.05
478.691	14840.09
478.895	14768.41
479.1	14489.89
479.304	14418.21
479.509	14133.54
479.713	14262.57
479.918	13947.18
480.122	13760.81
480.326	14049.58
480.531	13728.05
480.735	13883.69
480.94	13703.47
481.144	14022.95
481.348	13521.2
481.553	13758.77
481.757	13535.54
481.961	13455.67
482.166	13695.28
482.37	13379.89
482.574	13494.58
482.778	13248.82
482.983	13846.83
483.187	13246.77
483.391	13332.79
483.595	13400.37
483.8	13363.51
484.004	13588.78
484.208	13680.94
484.412	13361.46
484.616	13340.98
484.821	13347.12
485.025	13109.56
485.229	13429.04
485.433	13340.98
485.637	13510.96
485.841	13281.59
486.045	13250.87
486.249	13508.91
486.453	13209.91
486.657	13472.05
486.861	13482.29
487.065	13074.74
487.269	13336.88
487.473	12945.72
487.677	13441.33
487.881	13635.89
488.085	13459.76
488.289	13467.95
488.493	13361.46
488.697	13515.06
488.901	13396.28
489.105	13332.79
489.309	13529.39
489.512	13214.01
489.716	13517.11
489.92	13539.63
490.124	13562.16
490.328	13398.32
490.531	13689.14
490.735	13709.61
490.939	13852.97
491.143	13551.92
491.346	13717.81
491.55	14006.57
491.754	14041.39
491.958	14045.48
492.161	13893.93
492.365	14199.08
492.569	14053.67
492.772	13953.32
492.976	14319.91
493.18	14301.48
493.383	14594.34
493.587	14471.46
493.79	14602.53
493.994	14489.89
494.197	14803.23
494.401	14670.11
494.605	14797.09
494.808	15198.49
495.012	15237.4
495.215	15178.01
495.419	15345.94
495.622	15407.38
495.825	15507.73
496.029	15456.53
496.232	15780.11
496.436	15728.91
496.639	16331.01
496.843	15976.72
497.046	16498.95
497.249	16513.28
497.453	16623.87
497.656	16783.62
497.859	16564.48
498.063	16949.5
498.266	17338.62
498.469	17211.64
498.673	17514.74
498.876	17539.32
499.079	17866.99
499.282	17922.29
499.485	18413.8
499.689	18419.94
499.892	18405.61
500.095	18784.48
500.298	19071.2
500.501	19030.24
500.705	19667.16
500.908	19591.38
501.111	19845.33
501.314	19908.82
501.517	20312.27
501.72	20529.35
501.923	20691.14
502.126	20910.27
502.329	21387.45
502.532	21444.79
502.735	21555.38
502.938	21760.18
503.141	21895.35
503.344	22505.64
503.547	22196.4
503.75	22759.59
503.953	23054.5
504.156	23136.41
504.359	23474.33
504.562	23369.88
504.765	24051.86
504.968	23902.36
505.17	24447.11
505.373	24414.35
505.576	24645.77
505.779	25282.69
505.982	25215.1
506.185	25606.27
506.387	25690.23
506.59	26013.81
506.793	26671.21
506.996	26499.18
507.198	27226.21
507.401	27209.82
507.604	27136.1
507.807	27994.2
508.009	28178.51
508.212	28362.83
508.415	28753.99
508.617	28792.9
508.82	28983.37
509.022	28946.5
509.225	29777.98
509.428	29859.9
509.63	30373.94
509.833	30365.74
510.035	30910.5
510.238	30629.93
510.44	31371.3
510.643	31698.97
510.845	31676.44
511.048	31367.2
511.25	32188.44
511.453	32307.22
511.655	33656.83
511.858	33308.68
512.06	33427.46
512.262	33478.66
512.465	34064.38
512.667	34699.25
512.87	34652.14
513.072	34945
513.274	35436.52
513.477	35950.56
513.679	36081.63
513.881	36386.77
514.084	36804.56
514.286	36841.42
514.488	37267.4
514.69	38049.72
514.893	37832.64
515.095	38252.47
515.297	38565.81
515.499	38528.95
515.701	39534.5
515.904	39624.61
516.106	39653.28
516.308	39663.52
516.51	40726.42
516.712	40597.4
516.914	41105.29
517.116	41375.62
517.318	41506.69
517.52	41844.61
517.722	42116.99
517.925	42981.23
518.127	43114.35
518.329	42848.11
518.531	43093.87
518.733	43976.54
518.935	44111.71
519.136	44472.15
519.338	44959.57
519.54	44973.91
519.742	45322.06
519.944	45670.22
520.146	46350.14
520.348	46552.89
520.55	46909.24
520.752	47109.94
520.954	47959.84
521.155	47445.8
521.357	48260.9
521.559	48437.02
521.761	49157.91
521.963	48760.6
522.164	49090.32
522.366	49526.54
522.568	49524.49
522.77	49925.89
522.971	50863.86
523.173	50820.86
523.375	50673.4
523.576	51001.08
523.778	51023.61
523.98	51547.89
524.181	52129.51
524.383	51365.62
524.584	52299.49
524.786	52854.49
524.988	52674.27
525.189	53085.91
525.391	53251.8
525.592	53515.98
525.794	53380.82
525.995	53933.77
526.197	53671.63
526.398	54025.93
526.6	54603.45
526.801	54499.01
527.003	54685.37
527.204	54546.11
527.406	55150.26
527.607	55344.82
527.808	55506.61
528.01	54849.21
528.211	55207.61
528.412	56460.96
528.614	55623.34
528.815	56020.65
529.016	56729.25
529.218	56303.27
529.419	56317.6
529.62	56143.53
529.822	56071.85
530.023	56553.12
530.224	56272.55
530.425	56559.26
530.626	56071.85
530.828	55789.23
531.029	57409.17
531.23	56686.24
531.431	56938.14
531.632	57030.3
531.833	56956.57
532.035	56954.52
532.236	57296.53
532.437	57554.58
532.638	56960.67
532.839	57859.73
533.04	57427.6
533.241	57140.89
533.442	58039.95
533.643	57439.89
533.844	57419.41
534.045	57372.31
534.246	56839.84
534.447	57583.25
534.648	57251.48
534.849	57710.22
535.05	57362.07
535.251	57411.22
535.451	57439.89
535.652	57704.08
535.853	57806.48
536.054	57654.93
536.255	57792.14
536.456	57216.66
536.657	58175.11
536.857	57345.68
537.058	57120.41
537.259	57958.03
537.46	57859.73
537.66	57241.24
537.861	57683.6
538.062	57456.28
538.263	57300.63
538.463	57534.1
538.664	57325.21
538.865	57517.71
539.065	57673.36
539.266	57548.43
539.466	57867.92
539.667	57116.31
539.868	57495.19
540.068	57241.24
540.269	56893.08
540.469	57308.82
540.67	57063.07
540.87	56948.38
541.071	57173.66
541.271	57591.44
541.472	57251.48
541.672	57118.36
541.873	56972.95
542.073	56299.17
542.274	57415.32
542.474	57212.57
542.675	56530.59
542.875	57683.6
543.075	57216.66
543.276	56372.9
543.476	57314.97
543.676	56989.34
543.877	57243.29
544.077	57050.78
544.277	57063.07
544.478	57161.37
544.678	57304.73
544.878	56927.9
545.078	57044.63
545.279	56831.64
545.479	56624.8
545.679	57007.77
545.879	56565.41
546.079	57343.64
546.28	57009.82
546.48	56559.26
546.68	57222.81
546.88	57018.01
547.08	56780.45
547.28	56729.25
547.48	56336.04
547.68	56641.18
547.88	56239.78
548.081	56944.28
548.281	56592.03
548.481	56415.91
548.681	56786.59
548.881	56458.91
549.081	56465.06
549.28	56278.69
549.48	56915.61
549.68	56788.64
549.88	57280.15
550.08	56307.36
550.28	56614.56
550.48	56219.3
550.68	56694.43
550.88	56245.93
551.08	56415.91
551.279	56274.6
551.479	55979.69
551.679	56211.11
551.879	56327.84
552.079	56116.9
552.278	55961.26
552.478	56213.16
552.678	56225.45
552.878	56649.38
553.077	56256.17
553.277	55774.89
553.477	56469.15
553.676	56032.94
553.876	55875.24
554.076	55692.97
554.275	55838.38
554.475	55293.62
554.674	56196.77
554.874	55555.76
555.074	55869.1
555.273	56077.99
555.473	55850.67
555.672	55711.41
555.872	55494.32
556.071	55762.61
556.271	55568.05
556.47	55326.39
556.67	55150.26
556.869	55371.44
557.068	55486.13
557.268	55326.39
557.467	55254.71
557.667	55047.86
557.866	55086.78
558.065	55303.86
558.265	54875.83
558.464	54824.64
558.663	55543.47
558.863	54666.94
559.062	55297.72
559.261	55068.34
559.461	54945.47
559.66	54302.4
559.859	54757.05
560.058	54136.52
560.258	54396.61
560.457	54152.9
560.656	54871.74
560.855	54404.8
561.054	54836.92
561.253	54009.54
561.453	53991.11
561.652	54273.73
561.851	54650.56
562.05	54191.81
562.249	53569.23
562.448	54001.35
562.647	54111.94
562.846	53968.58
563.045	53843.66
563.244	53421.78
563.443	53796.56
563.642	53126.87
563.841	53231.32
564.04	53366.48
564.239	54015.69
564.438	52684.51
564.637	53538.51
564.836	53339.86
565.035	52752.09
565.234	53087.96
565.432	53071.57
565.631	52653.79
565.83	52883.16
566.029	52553.44
566.228	52797.15
566.427	52434.66
566.625	52254.43
566.824	52113.12
567.023	52358.88
567.222	51449.58
567.42	52016.87
567.619	52186.85
567.818	51681
568.016	52020.97
568.215	51707.63
568.414	51762.92
568.612	52373.22
568.811	51234.55
569.01	51461.87
569.208	50953.97
569.407	51570.41
569.605	50415.36
569.804	51468.01
570.002	50636.54
570.201	51232.5
570.4	50333.44
570.598	50292.48
570.797	50380.54
570.995	50241.28
571.193	49907.46
571.392	50493.18
571.59	49821.45
571.789	49979.14
571.987	49829.64
572.186	49760.01
572.384	49450.77
572.582	49911.56
572.781	49743.62
572.979	49282.83
573.177	49501.96
573.376	49575.69
573.574	49239.82
573.772	49274.64
573.971	49080.08
574.169	48815.9
574.367	48797.46
574.565	48850.71
574.763	48789.27
574.962	48549.66
575.16	47968.04
575.358	48277.28
575.556	47744.81
575.754	48719.64
575.952	47556.39
576.151	48109.35
576.349	47566.63
576.547	47652.65
576.745	47163.18
576.943	47462.19
577.141	46970.68
577.339	47474.48
577.537	47048.5
577.735	46942
577.933	46257.98
578.131	46991.15
578.329	46532.41
578.527	46421.82
578.725	46174.02
578.923	46559.03
579.121	45971.27
579.319	46118.72
579.516	46282.56
579.714	46036.8
579.912	45813.57
580.11	45909.83
580.308	45621.06
580.506	45479.75
580.704	44900.18
580.901	45500.23
581.099	45758.28
581.297	45147.98
581.495	44330.84
581.692	45561.67
581.89	44609.37
582.088	45229.9
582.285	44742.49
582.483	44687.19
582.681	44336.99
582.878	44517.21
583.076	44146.53
583.274	44416.86
583.471	43755.36
583.669	43734.88
583.866	43603.81
584.064	43616.1
584.262	43071.34
584.459	43597.67
584.657	43216.75
584.854	43605.86
585.052	42671.99
585.249	42715
585.447	42657.65
585.644	42706.8
585.841	42803.06
586.039	42960.75
586.236	42301.31
586.434	42164.09
586.631	41762.69
586.828	42239.87
587.026	42526.58
587.223	42024.83
587.42	41570.18
587.618	41738.12
587.815	41334.67
588.012	41772.93
588.21	41045.9
588.407	41484.17
588.604	40974.22
588.801	40933.26
588.999	40748.95
589.196	40941.46
589.393	40720.27
589.59	40642.45
589.787	40658.84
589.984	40542.1
590.182	40198.04
590.379	40433.56
590.576	39589.8
590.773	40236.95
590.97	39733.15
591.167	40036.25
591.364	39215.02
591.561	39638.95
591.758	39004.08
591.955	39360.42
592.152	39294.89
592.349	38752.18
592.546	39454.63
592.743	39327.66
592.94	38455.22
593.137	38719.41
593.334	38741.94
593.531	38045.63
593.727	38408.12
593.924	38324.15
594.121	37834.69
594.318	38158.27
594.515	37679.04
594.712	38047.68
594.908	37963.71
595.105	37822.4
595.302	37259.21
595.499	37691.33
595.696	37138.38
595.892	37046.22
596.089	37062.6
596.286	37371.85
596.482	36812.75
596.679	36392.92
596.876	37193.67
597.072	36722.64
597.269	36603.86
597.466	36450.26
597.662	36491.22
597.859	36024.28
598.055	36354.01
598.252	36036.57
598.448	36136.92
598.645	35661.79
598.841	35442.66
599.038	35538.91
599.234	35696.61
599.431	35166.18
599.627	35305.45
599.824	35168.23
600.02	35069.93
600.217	35002.35
600.413	34887.66
600.609	34414.58
600.806	34508.79
601.002	34531.31
601.198	34408.43
601.395	34500.59
601.591	33978.36
601.787	34177.01
601.984	34054.14
602.18	34146.29
602.376	33853.44
602.572	33843.2
602.769	33662.97
602.965	33204.23
603.161	33441.79
603.357	33134.6
603.553	33355.78
603.75	33234.95
603.946	33042.44
604.142	33396.74
604.338	32618.51
604.534	33093.64
604.73	32720.91
604.926	32821.26
605.122	32845.83
605.318	32376.85
605.514	32081.94
605.71	32012.31
605.906	32004.12
606.102	31891.48
606.298	31780.89
606.494	32106.52
606.69	31883.29
606.886	31969.3
607.082	31604.77
607.278	31926.3
607.474	31182.88
607.67	31402.02
607.866	31076.39
608.062	31494.18
608.257	31225.89
608.453	30988.33
608.649	31326.24
608.845	30959.66
609.041	31002.66
609.236	31082.53
609.432	30928.94
609.628	30670.89
609.824	30517.29
610.019	30308.4
610.215	30705.71
610.411	30502.96
610.606	30459.95
610.802	30240.82
610.998	30181.43
611.193	30322.74
611.389	30298.16
611.584	29833.27
611.78	30103.6
611.976	30206
612.171	29894.71
612.367	29974.58
612.562	30050.36
612.758	29521.98
612.953	29593.66
613.149	29947.96
613.344	29554.75
613.539	29732.92
613.735	29272.13
613.93	30148.66
614.126	29532.22
614.321	29620.28
614.517	29247.55
614.712	29222.98
614.907	28954.69
615.103	29407.3
615.298	28633.16
615.493	29083.72
615.688	28698.7
615.884	29495.36
616.079	28862.54
616.274	29016.13
616.47	28608.59
616.665	28880.97
616.86	28364.88
617.055	28747.85
617.25	28352.59
617.445	28782.66
617.641	28074.07
617.836	28452.94
618.031	28076.12
618.226	28334.16
618.421	27889.75
618.616	28385.36
618.811	27547.74
619.006	28151.89
619.201	27342.94
619.396	27641.95
619.591	27166.82
619.786	27396.19
619.981	27158.63
620.176	27080.8
620.371	27058.28
620.566	26853.48
620.761	26830.95
620.956	27101.28
621.151	26306.67
621.346	26443.88
621.541	26318.96
621.735	26480.75
621.93	25997.43
622.125	26132.59
622.32	25718.9
622.515	25835.64
622.709	25366.65
622.904	25550.97
623.099	25262.21
623.294	25032.83
623.488	25225.34
623.683	25309.31
623.878	24707.21
624.072	24731.78
624.267	24883.33
624.462	24303.76
624.656	24350.86
624.851	24260.75
625.046	24041.62
625.24	23965.84
625.435	23525.53
625.629	23611.54
625.824	23525.53
626.018	23603.35
626.213	23136.41
626.407	23642.26
626.602	23236.77
626.796	23023.78
626.991	22988.96
627.185	22718.63
627.38	22614.18
627.574	22599.85
627.768	22448.3
627.963	22161.58
628.157	22378.67
628.352	22300.84
628.546	21639.35
628.74	22022.32
628.935	21727.41
629.129	21643.45
629.323	21414.07
629.517	21491.9
629.712	21448.89
629.906	21076.16
630.1	20654.28
630.294	20951.23
630.489	20685
630.683	20871.36
630.877	20474.06
631.071	20347.08
631.265	20273.35
631.459	20256.97
631.653	20078.8
631.848	19982.54
632.042	20256.97
632.236	19896.53
632.43	19740.88
632.624	19800.27
632.818	19673.3
633.012	19101.92
633.206	19294.43
633.4	19519.7
633.594	19020
633.788	19239.13
633.982	18989.28
634.176	18966.75
634.369	18784.48
634.563	18847.97
634.757	18516.2
634.951	18743.52
635.145	18303.21
635.339	18651.36
635.533	18331.88
635.726	18292.97
635.92	18000.11
636.114	17961.2
636.308	17932.53
636.501	17985.77
636.695	17678.58
636.889	17768.69
637.083	17393.91
637.276	17215.74
637.47	17107.19
637.664	17146.11
637.857	17369.33
638.051	17338.62
638.244	17086.72
638.438	16955.65
638.632	16759.04
638.825	16943.36
639.019	16615.68
639.212	16546.05
639.406	16640.26
639.599	16115.98
639.793	16419.08
639.986	16107.79
640.18	16365.83
640.373	16052.49
640.567	15745.3
640.76	16060.68
640.954	15888.65
641.147	15649.04
641.34	15632.66
641.534	15587.6
641.727	15558.93
641.92	15434
642.114	15100.19
642.307	15071.51
642.5	15198.49
642.694	14954.78
642.887	14899.48
643.08	14991.64
643.273	14823.71
643.467	14879
643.66	14416.16
643.853	14635.3
644.046	14268.71
644.239	14344.49
644.432	14410.02
644.626	14258.47
644.819	13910.32
645.012	14223.65
645.205	13936.94
645.398	14248.23
645.591	13953.32
645.784	13969.71
645.977	13736.24
646.17	13570.35
646.363	13701.42
646.556	13494.58
646.749	13453.62
646.942	13461.81
647.135	13326.64
647.328	13318.45
647.521	13207.86
647.714	13072.7
647.907	13062.46
648.099	13127.99
648.292	13209.91
648.485	12888.38
648.678	12796.22
648.871	12867.9
649.064	12503.36
649.256	12597.57
649.449	12626.24
649.642	12335.43
649.835	12431.68
650.027	12276.04
650.22	12411.2
650.413	12065.1
650.605	12161.35
650.798	12110.15
650.991	11805
651.183	11960.65
651.376	11807.05
651.568	12165.45
651.761	11843.92
651.954	11708.75
652.146	11594.06
652.339	11497.81
652.531	11569.49
652.724	11430.23
652.916	11086.17
653.109	11266.39
653.301	11313.49
653.494	11360.59
653.686	10977.62
653.879	11163.99
654.071	11166.04
654.263	11108.69
654.456	11151.7
654.648	11071.83
654.84	10682.72
655.033	10676.57
655.225	10631.52
655.417	10613.09
655.61	10832.22
655.802	10594.65
655.994	10350.95
656.186	10529.12
656.379	10445.15
656.571	10275.17
656.763	10293.6
656.955	10324.32
657.148	10500.45
657.34	10258.79
657.532	10080.61
657.724	10086.76
657.916	9867.63
658.108	9957.74
658.3	9812.33
658.492	9619.82
658.684	9890.15
658.876	9675.12
659.068	9820.52
659.26	9589.1
659.452	9689.45
659.644	9535.85
659.836	9345.39
660.028	9527.66
660.22	9232.76
660.412	9546.09
660.604	9218.42
660.796	9195.89
660.988	9052.53
661.18	9058.68
661.372	9015.67
661.563	9058.68
661.755	9140.6
661.947	9185.65
662.139	9027.96
662.331	8919.42
662.522	9046.39
662.714	8651.13
662.906	8583.55
663.097	8718.71
663.289	8745.34
663.481	8616.32
663.673	8636.8
663.864	8642.94
664.056	8583.55
664.247	8450.43
664.439	8513.92
664.631	8173.96
664.822	8298.88
665.014	8231.3
665.205	8081.8
665.397	8147.33
665.588	8104.32
665.78	8010.12
665.971	8112.52
666.163	8059.27
666.354	8034.69
666.546	7975.3
666.737	7786.89
666.929	7883.14
667.12	7887.24
667.311	7838.09
667.503	7813.51
667.694	7747.98
667.885	7684.49
668.077	7637.39
668.268	7629.2
668.459	7655.82
668.651	7506.32
668.842	7645.58
669.033	7383.44
669.224	7362.96
669.416	7477.65
669.607	7514.51
669.798	7418.25
669.989	7502.22
670.18	7149.97
670.371	7346.58
670.563	7068.05
670.754	7219.6
670.945	7106.96
671.136	6947.22
671.327	6990.23
671.518	6844.82
671.709	6859.16
671.9	7080.34
672.091	6961.56
672.282	6834.58
672.473	6791.58
672.664	6930.84
672.855	6818.2
673.046	6756.76
673.237	6953.37
673.428	6629.79
673.619	6775.19
673.809	6635.93
674	6836.63
674.191	6826.39
674.382	6551.96
674.573	6664.6
674.764	6494.62
674.954	6490.52
675.145	6588.83
675.336	6431.13
675.527	6406.56
675.717	6422.94
675.908	6310.3
676.099	6275.49
676.289	6521.24
676.48	6416.8
676.671	6232.48
676.861	6345.12
677.052	6341.02
677.243	6130.08
677.433	6107.55
677.624	6189.47
677.814	6181.28
678.005	6279.58
678.195	6066.6
678.386	6025.64
678.576	6128.03
678.767	6066.6
678.957	6080.93
679.148	5964.2
679.338	5990.82
679.529	6130.08
679.719	5919.14
679.909	6031.78
680.1	6085.03
680.29	6080.93
680.481	5771.69
680.671	5915.05
680.861	5886.37
681.052	5947.81
681.242	5913
681.432	5839.27
681.622	5933.48
681.813	5810.6
682.003	5720.49
682.193	5646.76
682.383	5779.88
682.573	5757.35
682.764	5562.8
682.954	5558.7
683.144	5603.75
683.334	5595.56
683.524	5374.38
683.714	5640.62
683.904	5560.75
684.094	5644.71
684.284	5530.03
684.474	5503.4
684.664	5568.94
684.854	5417.39
685.044	5396.91
685.234	5384.62
685.424	5355.95
685.614	5460.4
685.804	5439.92
685.994	5247.41
686.184	5329.33
686.374	5267.89
686.564	5284.27
686.753	5286.32
686.943	5177.78
687.133	5116.34
687.323	5194.16
687.513	5122.48
687.702	5228.98
687.892	5243.31
688.082	4934.07
688.272	5175.73
688.461	5159.35
688.651	5007.8
688.841	4874.68
689.03	4934.07
689.22	5140.91
689.41	4989.36
689.599	4966.84
689.789	4829.62
689.979	4880.82
690.168	4878.77
690.358	4757.94
690.547	4663.74
690.737	4776.38
690.926	4835.77
691.116	4782.52
691.305	4659.64
691.495	4706.74
691.684	4465.08
691.874	4762.04
692.063	4682.17
692.252	4553.15
692.442	4571.58
692.631	4477.37
692.82	4563.39
693.01	4415.93
693.199	4460.99
693.388	4393.4
693.578	4514.24
693.767	4485.56
693.956	4413.88
694.146	4225.47
694.335	4295.1
694.524	4477.37
694.713	4233.66
694.902	4377.02
695.092	4409.79
695.281	4415.93
695.47	4112.83
695.659	4317.63
695.848	4280.77
696.037	4198.85
696.226	4276.67
696.415	4147.65
696.604	4098.5
696.793	4198.85
696.982	4262.33
697.171	4254.14
697.36	4051.39
697.549	4168.13
697.738	4032.96
697.927	4035.01
698.116	4088.26
698.305	4073.92
698.494	4092.35
698.683	3940.8
698.872	4098.5
699.061	4069.83
699.25	4118.98
699.438	3953.09
699.627	3998.15
699.816	3932.61
700.005	3944.9
700.193	3985.86
700.382	3860.93
700.571	3834.31
700.76	4006.34
700.948	3979.72
701.137	3981.76
701.326	3856.84
701.514	3817.93
701.703	3938.76
701.892	3746.25
702.08	3873.22
702.269	3793.35
702.457	3658.18
702.646	3899.84
702.834	3715.53
703.023	3789.25
703.212	3908.04
703.4	3783.11
703.589	3541.45
703.777	3795.4
703.965	3570.12
704.154	3697.1
704.342	3604.94
704.531	3566.03
704.719	3779.01
704.907	3785.16
705.096	3582.41
705.284	3582.41
705.472	3705.29
705.661	3584.46
705.849	3668.42
706.037	3559.88
706.226	3584.46
706.414	3512.78
706.602	3604.94
706.79	3637.7
706.979	3654.09
707.167	3494.35
707.355	3572.17
707.543	3559.88
707.731	3590.6
707.919	3621.32
708.107	3441.1
708.296	3363.28
708.484	3477.96
708.672	3357.13
708.86	3633.61
709.048	3473.87
709.236	3463.63
709.424	3666.38
709.612	3443.15
709.8	3406.28
709.988	3394
710.176	3404.24
710.364	3418.57
710.551	3336.65
710.739	3301.84
710.927	3463.63
711.115	3289.55
711.303	3350.99
711.491	3367.37
711.679	3297.74
711.866	3420.62
712.054	3406.28
712.242	3277.26
712.43	3394
712.617	3195.34
712.805	3324.37
712.993	3281.36
713.181	3254.73
713.368	3267.02
713.556	3320.27
713.744	3183.06
713.931	3404.24
714.119	3172.82
714.306	3219.92
714.494	3250.64
714.682	3181.01
714.869	3140.05
715.057	3256.78
715.244	3133.9
715.432	3246.54
715.619	3203.54
715.807	3125.71
715.994	3144.14
716.182	3158.48
716.369	3097.04
716.556	3246.54
716.744	3131.86
716.931	3168.72
717.119	3185.1
717.306	3248.59
717.493	3074.51
717.681	3148.24
717.868	3209.68
718.055	3135.95
718.242	3045.84
718.43	3125.71
718.617	3144.14
718.804	3142.1
718.991	3109.33
719.179	3094.99
719.366	2982.35
719.553	3170.77
719.74	3097.04
719.927	3002.83
720.114	2925.01
720.301	3027.41
720.488	2951.63
720.676	2943.44
720.863	3047.89
721.05	2951.63
721.237	2904.53
721.424	2873.81
721.611	2822.61
721.798	2970.07
721.985	2843.09
722.172	2789.85
722.358	2986.45
722.545	2873.81
722.732	2879.96
722.919	2918.87
723.106	2847.19
723.293	2851.28
723.48	2908.63
723.667	2777.56
723.853	2916.82
724.04	2877.91
724.227	2855.38
724.414	2937.3
724.6	2824.66
724.787	3008.98
724.974	2851.28
725.161	2832.85
725.347	2785.75
725.534	2877.91
725.72	2777.56
725.907	2951.63
726.094	2902.48
726.28	2869.72
726.467	2695.64
726.653	2888.15
726.84	2861.52
727.027	2791.89
727.213	2898.39
727.4	2830.8
727.586	2869.72
727.773	2664.92
727.959	2800.09
728.145	2697.69
728.332	2693.59
728.518	2681.3
728.705	2785.75
728.891	2650.58
729.077	2675.16
729.264	2777.56
729.45	2851.28
729.636	2746.84
729.823	2664.92
730.009	2666.97
730.195	2693.59
730.382	2685.4
730.568	2740.69
730.754	2800.09
730.94	2560.47
731.126	2654.68
731.313	2718.17
731.499	2681.3
731.685	2593.24
731.871	2607.58
732.057	2695.64
732.243	2724.31
732.429	2701.78
732.615	2646.49
732.801	2798.04
732.987	2628.06
733.173	2566.62
733.359	2589.14
733.545	2679.26
733.731	2660.82
733.917	2716.12
734.103	2599.38
734.289	2626.01
734.475	2583
734.661	2689.49
734.847	2697.69
735.033	2699.73
735.219	2605.53
735.404	2484.7
735.59	2662.87
735.776	2517.47
735.962	2496.99
736.148	2632.15
736.333	2527.71
736.519	2415.07
736.705	2431.45
736.89	2546.14
737.076	2423.26
737.262	2570.71
737.447	2367.96
737.633	2398.68
737.819	2447.83
738.004	2466.27
738.19	2527.71
738.375	2339.29
738.561	2537.95
738.747	2478.55
738.932	2423.26
739.118	2466.27
739.303	2396.64
739.489	2402.78
739.674	2402.78
739.859	2480.6
740.045	2388.44
740.23	2363.87
740.416	2292.19
740.601	2318.81
740.786	2363.87
740.972	2294.24
741.157	2374.11
741.342	2312.67
741.528	2349.53
741.713	2324.96
741.898	2300.38
742.084	2224.61
742.269	2302.43
742.454	2148.83
742.639	2269.66
742.824	2171.36
743.01	2212.32
743.195	2286.05
743.38	2208.22
743.565	2265.57
743.75	2265.57
743.935	2187.74
744.12	2232.8
744.305	2152.93
744.49	2298.33
744.675	2247.13
744.86	2085.34
745.045	2159.07
745.23	2079.2
745.415	2114.02
745.6	2228.7
745.785	2214.37
745.97	2126.3
746.155	2114.02
746.34	2071.01
746.525	2085.34
746.71	2195.93
746.895	2087.39
747.079	2120.16
747.264	1993.19
747.449	1976.8
747.634	1997.28
747.819	2007.52
748.003	2001.38
748.188	1898.98
748.373	1905.12
748.557	1968.61
748.742	1884.64
748.927	1860.07
749.111	1886.69
749.296	1880.55
749.481	1794.53
749.665	1896.93
749.85	1778.15
750.034	1831.4
750.219	1845.73
750.404	1827.3
750.588	1804.77
750.773	1782.24
750.957	1694.18
751.141	1702.37
751.326	1749.48
751.51	1757.67
751.695	1663.46
751.879	1620.46
752.064	1722.85
752.248	1716.71
752.432	1716.71
752.617	1606.12
752.801	1741.29
752.985	1690.09
753.17	1647.08
753.354	1679.85
753.538	1685.99
753.722	1606.12
753.907	1616.36
754.091	1473
754.275	1487.34
754.459	1499.63
754.643	1475.05
754.828	1540.58
755.012	1460.71
755.196	1468.91
755.38	1444.33
755.564	1477.1
755.748	1470.95
755.932	1429.99
756.116	1524.2
756.3	1481.19
756.484	1446.38
756.668	1448.43
756.852	1374.7
757.036	1382.89
757.22	1452.52
757.404	1436.14
757.588	1407.47
757.772	1341.93
757.956	1319.4
758.14	1286.64
758.323	1319.4
758.507	1348.08
758.691	1348.08
758.875	1305.07
759.059	1380.84
759.242	1321.45
759.426	1198.57
759.61	1292.78
759.794	1249.77
759.977	1327.6
760.161	1337.84
760.345	1186.29
760.528	1274.35
760.712	1235.44
760.895	1186.29
761.079	1198.57
761.263	1288.68
761.446	1174
761.63	1081.84
761.813	1245.68
761.997	1130.99
762.18	1137.13
762.364	1186.29
762.547	1217.01
762.731	1083.89
762.914	1141.23
763.098	1116.65
763.281	1087.98
763.464	1157.61
763.648	1141.23
763.831	1130.99
764.015	1130.99
764.198	1135.09
764.381	1221.1
764.564	1133.04
764.748	1108.46
764.931	1081.84
765.114	1030.64
765.297	1114.61
765.481	1061.36
765.664	1157.61
765.847	995.82
766.03	1004.02
766.213	1092.08
766.397	965.11
766.58	1077.74
766.763	1036.78
766.946	977.39
767.129	1006.06
767.312	1010.16
767.495	1030.64
767.678	1001.97
767.861	1075.7
768.044	1090.03
768.227	1006.06
768.41	969.2
768.593	977.39
768.776	903.67
768.959	981.49
769.142	956.91
769.324	899.57
769.507	987.63
769.69	1001.97
769.873	981.49
770.056	1075.7
770.239	948.72
770.421	1012.21
770.604	954.87
770.787	1026.54
770.97	934.39
771.152	899.57
771.335	893.43
771.518	983.54
771.7	924.15
771.883	901.62
772.066	844.28
772.248	881.14
772.431	897.52
772.613	856.56
772.796	967.15
772.978	858.61
773.161	834.04
773.343	848.37
773.526	829.94
773.708	868.85
773.891	799.22
774.073	831.99
774.256	856.56
774.438	944.63
774.621	858.61
774.803	831.99
774.985	862.71
775.168	788.98
775.35	811.51
775.532	737.78
775.715	760.31
775.897	776.69
776.079	803.32
776.261	801.27
776.444	854.51
776.626	766.45
776.808	764.4
776.99	725.49
777.173	782.84
777.355	725.49
777.537	731.64
777.719	727.54
777.901	702.97
778.083	680.44
778.265	713.21
778.447	700.92
778.629	684.53
778.811	727.54
778.993	743.92
779.175	653.81
779.357	649.72
779.539	653.81
779.721	641.53
779.903	696.82
780.085	631.29
780.267	672.25
780.449	696.82
780.631	723.44
780.812	670.2
780.994	643.57
781.176	643.57
781.358	641.53
781.54	731.64
781.721	565.75
781.903	598.52
782.085	639.48
782.267	606.71
782.448	588.28
782.63	588.28
782.812	629.24
782.993	641.53
783.175	524.79
783.357	551.42
783.538	580.09
783.72	649.72
783.901	569.85
784.083	563.7
784.264	506.36
784.446	514.55
784.627	502.26
784.809	446.97
784.99	524.79
785.172	475.64
785.353	547.32
785.535	571.9
785.716	539.13
785.897	504.31
786.079	532.98
786.26	535.03
786.441	487.93
786.623	489.98
786.804	453.11
786.985	494.07
787.167	467.45
787.348	420.35
787.529	438.78
787.71	492.02
787.891	422.39
788.073	473.59
788.254	496.12
788.435	463.35
788.616	446.97
788.797	467.45
788.978	403.96
789.159	428.54
789.34	467.45
789.522	414.2
789.703	379.39
789.884	442.87
790.065	428.54
790.246	438.78
790.427	457.21
790.607	455.16
790.788	414.2
790.969	422.39
791.15	360.95
791.331	389.63
791.512	436.73
791.693	371.19
791.874	367.1
792.054	418.3
792.235	371.19
792.416	291.32
792.597	379.39
792.778	395.77
792.958	387.58
793.139	389.63
793.32	381.43
793.5	301.56
793.681	387.58
793.862	307.71
794.042	346.62
794.223	322.04
794.404	293.37
794.584	299.52
794.765	295.42
794.945	356.86
795.126	334.33
795.306	377.34
795.487	424.44
795.667	389.63
795.848	401.91
796.028	354.81
796.209	268.8
796.389	360.95
796.57	258.56
796.75	332.28
796.93	336.38
797.111	276.99
797.291	328.19
797.471	340.47
797.652	285.18
797.832	307.71
798.012	330.23
798.192	272.89
798.373	350.71
798.553	287.23
798.733	332.28
798.913	299.52
799.093	268.8
799.274	336.38
799.454	309.76
799.634	346.62
799.814	385.53
799.994	301.56
800.174	281.08
800.354	289.28
800.534	311.8
800.714	268.8
800.894	209.4
801.074	207.36
801.254	178.69
801.434	332.28
801.614	283.13
801.794	225.79
801.974	643.57
802.154	305.66
802.334	320
802.514	160.25
802.693	303.61
802.873	195.07
803.053	328.19
803.233	264.7
803.413	244.22
803.592	295.42
803.772	274.94
803.952	242.17
804.131	199.16
804.311	260.6
804.491	354.81
804.67	229.88
804.85	209.4
805.03	242.17
805.209	193.02
805.389	190.97
805.568	223.74
805.748	266.75
805.928	279.04
806.107	188.93
806.287	190.97
806.466	203.26
806.646	233.98
806.825	246.27
807.004	238.08
807.184	272.89
807.363	264.7
807.543	229.88
807.722	256.51
807.901	260.6
808.081	238.08
808.26	174.59
808.439	248.32
808.619	252.41
808.798	197.12
808.977	170.49
809.156	295.42
809.336	211.45
809.515	195.07
809.694	160.25
809.873	172.54
810.052	184.83
810.231	201.21
810.411	240.12
810.59	242.17
810.769	205.31
810.948	152.06
811.127	182.78
811.306	158.21
811.485	150.01
811.664	201.21
811.843	244.22
812.022	207.36
812.201	199.16
812.38	180.73
812.559	133.63
812.737	236.03
812.916	162.3
813.095	154.11
813.274	178.69
813.453	240.12
813.632	145.92
813.811	266.75
813.989	211.45
814.168	238.08
814.347	225.79
814.526	131.58
814.704	168.45
814.883	266.75
815.062	186.88
815.24	227.84
815.419	145.92
815.598	186.88
815.776	176.64
815.955	147.97
816.133	102.91
816.312	119.29
816.49	94.72
816.669	266.75
816.847	100.86
817.026	137.73
817.204	137.73
817.383	141.82
817.561	141.82
817.74	143.87
817.918	137.73
818.097	176.64
818.275	137.73
818.453	127.49
818.632	186.88
818.81	160.25
818.988	139.77
819.167	223.74
819.345	127.49
819.523	195.07
819.701	121.34
819.879	164.35
820.058	162.3
820.236	203.26
820.414	133.63
820.592	164.35
820.77	150.01
820.948	141.82
821.127	199.16
821.305	78.33
821.483	150.01
821.661	154.11
821.839	141.82
822.017	182.78
822.195	107.01
822.373	219.64
822.551	178.69
822.729	168.45
822.907	158.21
823.085	137.73
823.262	88.57
823.44	111.1
823.618	139.77
823.796	104.96
823.974	94.72
824.152	117.25
824.329	113.15
824.507	135.68
824.685	152.06
824.863	70.14
825.04	43.52
825.218	143.87
825.396	141.82
825.574	141.82
825.751	193.02
825.929	158.21
826.107	150.01
826.284	76.29
826.462	143.87
826.639	145.92
826.817	72.19
826.994	139.77
827.172	64
827.349	141.82
827.527	64
827.704	137.73
827.882	72.19
828.059	127.49
828.237	164.35
828.414	55.81
828.591	57.86
828.769	66.05
828.946	141.82
829.124	127.49
829.301	92.67
829.478	233.98
829.655	113.15
829.833	188.93
830.01	88.57
830.187	137.73
830.364	35.33
830.542	115.2
830.719	100.86
830.896	74.24
831.073	141.82
831.25	94.72
831.427	115.2
831.604	70.14
831.782	100.86
831.959	102.91
832.136	39.42
832.313	162.3
832.49	100.86
832.667	162.3
832.844	96.77
833.021	61.95
833.198	141.82
833.374	86.53
833.551	86.53
833.728	76.29
833.905	76.29
834.082	70.14
834.259	72.19
834.436	90.62
834.612	94.72
834.789	117.25
834.966	96.77
835.143	113.15
835.319	31.23
835.496	51.71
835.673	68.09
835.85	57.86
836.026	127.49
836.203	72.19
836.38	80.38
836.556	184.83
836.733	39.42
836.909	139.77
837.086	107.01
837.262	55.81
837.439	104.96
837.616	39.42
837.792	92.67
837.968	107.01
838.145	55.81
838.321	55.81
838.498	70.14
838.674	133.63
838.851	109.05
839.027	57.86
839.203	111.1
839.38	125.44
839.556	125.44
839.732	88.57
839.909	51.71
840.085	117.25
840.261	2.56
840.437	104.96
840.614	127.49
840.79	80.38
840.966	51.71
841.142	154.11
841.318	47.62
841.494	133.63
841.671	59.9
841.847	107.01
842.023	137.73
842.199	127.49
842.375	100.86
842.551	12.8
842.727	51.71
842.903	129.53
843.079	-17.92
843.255	127.49
843.431	51.71
843.607	68.09
843.783	-46.59
843.959	59.9
844.134	-1.54
844.31	51.71
844.486	100.86
844.662	37.38
844.838	135.68
845.013	104.96
845.189	12.8
845.365	88.57
845.541	64
845.716	33.28
845.892	127.49
846.068	64
846.244	86.53
846.419	-5.63
846.595	10.75
846.77	86.53
846.946	84.48
847.122	45.57
847.297	80.38
847.473	66.05
847.648	41.47
847.824	12.8
847.999	-34.3
848.175	57.86
848.35	123.39
848.526	88.57
848.701	-3.58
848.876	84.48
849.052	111.1
849.227	70.14
849.403	66.05
849.578	88.57
849.753	49.66
849.929	100.86
850.104	115.2
850.279	55.81
850.454	111.1
850.63	57.86
850.805	10.75
850.98	57.86
851.155	-11.78
851.33	78.33
851.505	20.99
851.681	51.71
851.856	18.94
852.031	104.96
852.206	59.9
852.381	117.25
852.556	59.9
852.731	-30.21
852.906	68.09
853.081	51.71
853.256	121.34
853.431	37.38
853.606	39.42
853.781	39.42
853.956	39.42
854.131	133.63
854.305	16.9
854.48	76.29
854.655	88.57
854.83	59.9
855.005	-58.88
855.18	20.99
855.354	20.99
855.529	84.48
855.704	20.99
855.879	45.57
856.053	20.99
856.228	92.67
856.403	27.14
856.577	78.33
856.752	18.94
856.926	41.47
857.101	70.14
857.276	25.09
857.45	27.14
857.625	88.57
857.799	37.38
857.974	45.57
858.148	4.61
858.323	10.75
858.497	76.29
858.672	2.56
858.846	-40.45
859.02	84.48
859.195	53.76
859.369	57.86
859.543	10.75
859.718	35.33
859.892	47.62
860.066	20.99
860.241	66.05
860.415	57.86
860.589	53.76
860.763	25.09
860.938	10.75
861.112	37.38
861.286	84.48
861.46	68.09
861.634	57.86
861.808	-3.58
861.982	59.9
862.157	45.57
862.331	-3.58
862.505	-19.97
862.679	8.7
862.853	104.96
863.027	49.66
863.201	20.99
863.375	33.28
863.549	25.09
863.722	8.7
863.896	-54.78
864.07	82.43
864.244	10.75
864.418	12.8
864.592	33.28
864.766	92.67
864.939	92.67
865.113	61.95
865.287	96.77
865.461	23.04
865.634	4.61
865.808	107.01
865.982	-3.58
866.156	29.18
866.329	-36.35
866.503	27.14
866.676	78.33
866.85	39.42
867.024	-42.5
867.197	59.9
867.371	39.42
867.544	51.71
867.718	0.51
867.891	39.42
868.065	20.99
868.238	18.94
868.412	43.52
868.585	51.71
868.759	45.57
868.932	-67.07
869.105	-1.54
869.279	27.14
869.452	18.94
869.625	4.61
869.799	-32.26
869.972	-50.69
870.145	82.43
870.319	41.47
870.492	68.09
870.665	-26.11
870.838	39.42
871.011	29.18
871.185	35.33
871.358	35.33
871.531	39.42
871.704	64
871.877	39.42
872.05	49.66
872.223	2.56
872.396	-13.82
872.569	29.18
872.742	14.85
872.915	14.85
873.088	-83.45
873.261	35.33
873.434	94.72
873.607	78.33
873.78	80.38
873.953	39.42
874.126	90.62
874.299	76.29
874.471	47.62
874.644	10.75
874.817	-19.97
874.99	76.29
875.163	45.57
875.335	70.14
875.508	12.8
875.681	-52.74
875.853	-3.58
876.026	76.29
876.199	57.86
876.371	39.42
876.544	-5.63
876.717	-38.4
876.889	33.28
877.062	29.18
877.234	23.04
877.407	109.05
877.579	-26.11
877.752	-62.98
877.924	12.8
878.097	68.09
878.269	4.61
878.442	51.71
878.614	55.81
878.786	16.9
878.959	35.33
879.131	74.24
879.303	23.04
879.476	-38.4
879.648	37.38
879.82	-11.78
879.993	41.47
880.165	49.66
880.337	35.33
880.509	8.7
880.681	-22.02
880.854	43.52
881.026	72.19
881.198	49.66
881.37	23.04
881.542	6.66
881.714	43.52
881.886	-62.98
882.058	10.75
882.23	59.9
882.402	39.42
882.574	125.44
882.746	27.14
882.918	27.14
883.09	90.62
883.262	39.42
883.434	-15.87
883.606	2.56
883.778	47.62
883.95	33.28
884.122	51.71
884.293	43.52
884.465	20.99
884.637	18.94
884.809	47.62
884.98	18.94
885.152	61.95
885.324	70.14
885.496	-28.16
885.667	61.95
885.839	-5.63
886.011	45.57
886.182	2.56
886.354	117.25
886.525	45.57
886.697	53.76
886.869	0.51
887.04	59.9
887.212	6.66
887.383	45.57
887.555	31.23
887.726	41.47
887.897	4.61
888.069	-40.45
888.24	20.99
888.412	16.9
888.583	20.99
888.754	31.23
888.926	-30.21
889.097	16.9
889.268	88.57
889.44	86.53
889.611	14.85
889.782	-7.68
889.953	-40.45
890.125	88.57
890.296	-11.78
890.467	-1.54
890.638	61.95
890.809	-22.02
890.98	-24.06
891.151	-1.54
891.323	33.28
891.494	41.47
891.665	70.14
891.836	12.8
892.007	43.52
892.178	-17.92
892.349	47.62
892.52	25.09
892.691	-28.16
892.862	-17.92
893.032	16.9
893.203	-50.69
893.374	18.94
893.545	100.86
893.716	2.56
893.887	-5.63
894.057	-34.3
894.228	25.09
894.399	-62.98
894.57	37.38
894.74	25.09
894.911	2.56
895.082	76.29
895.253	27.14
895.423	-3.58
895.594	90.62
895.764	82.43
895.935	-44.54
896.106	-40.45
896.276	-40.45
896.447	-3.58
896.617	27.14
896.788	6.66
896.958	20.99
897.129	27.14
897.299	-22.02
897.47	43.52
897.64	2.56
897.81	31.23
897.981	53.76
898.151	4.61
898.322	41.47
898.492	168.45
898.662	-5.63
898.832	53.76
899.003	29.18
899.173	33.28
899.343	12.8
899.513	-9.73
