Data from USB4F104151__61__12-36-30-316.txt Node

Date: Fri Mar 14 12:36:30 EDT 2025
User: louis
Spectrometer: USB4F10415
Trigger mode: 4
Integration Time (sec): 2.000000E-2
Scans to average: 1
Electric dark correction enabled: true
Nonlinearity correction enabled: false
Boxcar width: 0
XAxis mode: Wavelengths
Number of Pixels in Spectrum: 3648
>>>>>Begin Spectral Data<<<<<
178.204	-105.64
178.424	-105.64
178.644	-105.64
178.864	-152.74
179.084	-66.73
179.304	25.43
179.524	-33.96
179.744	9.05
179.964	-17.58
180.184	9.05
180.404	19.29
180.624	23.38
180.844	-9.39
181.064	-95.4
181.283	19.29
181.503	-5.29
181.723	56.15
181.943	80.72
182.163	47.96
182.383	27.48
182.602	-5.29
182.822	47.96
183.042	23.38
183.262	-68.78
183.482	-29.87
183.701	33.62
183.921	66.39
184.141	-48.3
184.361	70.48
184.58	-15.53
184.8	-11.43
185.02	-33.96
185.239	-17.58
185.459	52.05
185.679	-3.24
185.898	-19.63
186.118	90.96
186.338	-15.53
186.557	35.67
186.777	-42.15
186.997	33.62
187.216	50
187.436	80.72
187.655	62.29
187.875	29.52
188.095	-13.48
188.314	23.38
188.534	76.63
188.753	11.09
188.973	52.05
189.192	121.68
189.412	33.62
189.631	-25.77
189.851	9.05
190.07	52.05
190.29	70.48
190.509	39.76
190.729	35.67
190.948	7
191.168	97.11
191.387	-15.53
191.607	-33.96
191.826	117.59
192.045	-5.29
192.265	-38.06
192.484	21.33
192.704	39.76
192.923	-7.34
193.142	101.2
193.362	99.16
193.581	4.95
193.8	27.48
194.02	37.72
194.239	-3.24
194.458	7
194.678	41.81
194.897	80.72
195.116	9.05
195.335	11.09
195.555	15.19
195.774	41.81
195.993	37.72
196.212	13.14
196.432	11.09
196.651	-31.91
196.87	50
197.089	60.24
197.308	88.92
197.528	23.38
197.747	17.24
197.966	45.91
198.185	45.91
198.404	2.9
198.623	-29.87
198.842	82.77
199.062	93.01
199.281	70.48
199.5	88.92
199.719	47.96
199.938	25.43
200.157	41.81
200.376	29.52
200.595	29.52
200.814	105.3
201.033	-5.29
201.252	27.48
201.471	41.81
201.69	15.19
201.909	-17.58
202.128	-7.34
202.347	62.29
202.566	76.63
202.785	31.57
203.004	50
203.223	84.82
203.442	-38.06
203.661	21.33
203.879	19.29
204.098	93.01
204.317	-7.34
204.536	72.53
204.755	88.92
204.974	97.11
205.193	23.38
205.411	56.15
205.63	19.29
205.849	109.4
206.068	47.96
206.287	19.29
206.505	90.96
206.724	66.39
206.943	21.33
207.162	68.44
207.381	35.67
207.599	47.96
207.818	50
208.037	-40.11
208.255	72.53
208.474	19.29
208.693	-29.87
208.911	15.19
209.13	70.48
209.349	60.24
209.567	11.09
209.786	27.48
210.005	86.87
210.223	56.15
210.442	-7.34
210.661	52.05
210.879	39.76
211.098	41.81
211.316	60.24
211.535	72.53
211.753	23.38
211.972	64.34
212.191	15.19
212.409	82.77
212.628	43.86
212.846	-42.15
213.065	19.29
213.283	64.34
213.502	56.15
213.72	64.34
213.938	13.14
214.157	21.33
214.375	72.53
214.594	39.76
214.812	50
215.031	52.05
215.249	25.43
215.467	25.43
215.686	-31.91
215.904	76.63
216.122	29.52
216.341	121.68
216.559	41.81
216.778	39.76
216.996	74.58
217.214	80.72
217.432	0.85
217.651	-42.15
217.869	-19.63
218.087	-7.34
218.306	2.9
218.524	72.53
218.742	-11.43
218.96	78.68
219.179	50
219.397	66.39
219.615	78.68
219.833	29.52
220.051	-3.24
220.27	31.57
220.488	52.05
220.706	35.67
220.924	9.05
221.142	101.2
221.36	-19.63
221.578	19.29
221.796	-19.63
222.015	101.2
222.233	-5.29
222.451	74.58
222.669	29.52
222.887	50
223.105	7
223.323	62.29
223.541	-46.25
223.759	45.91
223.977	-17.58
224.195	82.77
224.413	58.2
224.631	27.48
224.849	7
225.067	103.25
225.285	35.67
225.503	84.82
225.721	66.39
225.939	-29.87
226.157	29.52
226.375	187.22
226.592	58.2
226.81	15.19
227.028	39.76
227.246	9.05
227.464	-21.67
227.682	19.29
227.9	-1.19
228.117	4.95
228.335	-19.63
228.553	27.48
228.771	23.38
228.989	76.63
229.206	2.9
229.424	31.57
229.642	31.57
229.86	-11.43
230.077	60.24
230.295	27.48
230.513	82.77
230.731	41.81
230.948	80.72
231.166	29.52
231.384	127.83
231.601	23.38
231.819	66.39
232.037	68.44
232.254	90.96
232.472	68.44
232.689	19.29
232.907	37.72
233.125	4.95
233.342	80.72
233.56	27.48
233.777	109.4
233.995	31.57
234.213	129.88
234.43	60.24
234.648	29.52
234.865	-5.29
235.083	43.86
235.3	60.24
235.518	15.19
235.735	125.78
235.953	72.53
236.17	76.63
236.388	70.48
236.605	62.29
236.822	23.38
237.04	90.96
237.257	64.34
237.475	56.15
237.692	4.95
237.909	41.81
238.127	25.43
238.344	78.68
238.562	95.06
238.779	-40.11
238.996	74.58
239.214	41.81
239.431	70.48
239.648	25.43
239.865	9.05
240.083	123.73
240.3	33.62
240.517	54.1
240.735	107.35
240.952	-5.29
241.169	90.96
241.386	43.86
241.603	43.86
241.821	27.48
242.038	47.96
242.255	45.91
242.472	-7.34
242.689	33.62
242.907	117.59
243.124	-3.24
243.341	76.63
243.558	56.15
243.775	27.48
243.992	25.43
244.209	68.44
244.426	47.96
244.643	45.91
244.86	23.38
245.078	86.87
245.295	62.29
245.512	56.15
245.729	-48.3
245.946	109.4
246.163	4.95
246.38	64.34
246.597	0.85
246.814	-15.53
247.031	27.48
247.248	76.63
247.464	50
247.681	13.14
247.898	13.14
248.115	41.81
248.332	-11.43
248.549	97.11
248.766	78.68
248.983	82.77
249.2	-7.34
249.417	43.86
249.633	50
249.85	56.15
250.067	56.15
250.284	-27.82
250.501	33.62
250.717	121.68
250.934	-46.25
251.151	13.14
251.368	64.34
251.585	21.33
251.801	76.63
252.018	66.39
252.235	60.24
252.451	95.06
252.668	-23.72
252.885	11.09
253.102	9.05
253.318	37.72
253.535	31.57
253.752	45.91
253.968	23.38
254.185	84.82
254.401	86.87
254.618	105.3
254.835	33.62
255.051	66.39
255.268	90.96
255.484	68.44
255.701	72.53
255.917	58.2
256.134	2.9
256.351	62.29
256.567	-19.63
256.784	31.57
257	-1.19
257.217	68.44
257.433	74.58
257.65	-5.29
257.866	80.72
258.082	47.96
258.299	70.48
258.515	9.05
258.732	64.34
258.948	60.24
259.165	62.29
259.381	70.48
259.597	99.16
259.814	13.14
260.03	54.1
260.246	19.29
260.463	54.1
260.679	74.58
260.895	76.63
261.112	64.34
261.328	41.81
261.544	105.3
261.761	62.29
261.977	37.72
262.193	9.05
262.409	66.39
262.626	62.29
262.842	27.48
263.058	2.9
263.274	60.24
263.49	84.82
263.707	4.95
263.923	70.48
264.139	19.29
264.355	105.3
264.571	160.59
264.787	70.48
265.004	60.24
265.22	15.19
265.436	25.43
265.652	41.81
265.868	45.91
266.084	7
266.3	-23.72
266.516	17.24
266.732	-31.91
266.948	45.91
267.164	45.91
267.38	82.77
267.596	-15.53
267.812	99.16
268.028	68.44
268.244	-1.19
268.46	72.53
268.676	43.86
268.892	11.09
269.108	-11.43
269.324	-11.43
269.54	9.05
269.756	64.34
269.972	70.48
270.188	99.16
270.403	25.43
270.619	50
270.835	0.85
271.051	58.2
271.267	60.24
271.483	54.1
271.698	88.92
271.914	35.67
272.13	72.53
272.346	0.85
272.562	88.92
272.777	9.05
272.993	50
273.209	41.81
273.425	58.2
273.64	25.43
273.856	107.35
274.072	25.43
274.287	9.05
274.503	39.76
274.719	97.11
274.934	52.05
275.15	54.1
275.366	78.68
275.581	21.33
275.797	-40.11
276.012	27.48
276.228	82.77
276.444	17.24
276.659	31.57
276.875	-15.53
277.09	33.62
277.306	70.48
277.521	17.24
277.737	27.48
277.952	52.05
278.168	64.34
278.383	64.34
278.599	17.24
278.814	88.92
279.03	25.43
279.245	31.57
279.461	101.2
279.676	93.01
279.892	-21.67
280.107	88.92
280.322	-5.29
280.538	41.81
280.753	11.09
280.969	88.92
281.184	39.76
281.399	103.25
281.615	-5.29
281.83	76.63
282.045	-44.2
282.26	35.67
282.476	54.1
282.691	119.64
282.906	90.96
283.122	56.15
283.337	4.95
283.552	99.16
283.767	27.48
283.983	93.01
284.198	-13.48
284.413	97.11
284.628	31.57
284.843	68.44
285.058	80.72
285.274	-21.67
285.489	-15.53
285.704	9.05
285.919	66.39
286.134	97.11
286.349	97.11
286.564	41.81
286.779	72.53
286.995	7
287.21	9.05
287.425	58.2
287.64	-50.35
287.855	64.34
288.07	-3.24
288.285	101.2
288.5	125.78
288.715	23.38
288.93	-11.43
289.145	15.19
289.36	60.24
289.575	62.29
289.79	74.58
290.004	101.2
290.219	52.05
290.434	136.02
290.649	15.19
290.864	25.43
291.079	9.05
291.294	76.63
291.509	127.83
291.724	74.58
291.938	58.2
292.153	-3.24
292.368	60.24
292.583	84.82
292.798	39.76
293.012	64.34
293.227	45.91
293.442	-1.19
293.657	31.57
293.871	52.05
294.086	52.05
294.301	93.01
294.516	25.43
294.73	80.72
294.945	0.85
295.16	52.05
295.374	35.67
295.589	70.48
295.804	21.33
296.018	121.68
296.233	47.96
296.447	47.96
296.662	31.57
296.877	56.15
297.091	93.01
297.306	78.68
297.52	76.63
297.735	-5.29
297.949	117.59
298.164	90.96
298.378	25.43
298.593	17.24
298.807	21.33
299.022	33.62
299.236	142.16
299.451	47.96
299.665	123.73
299.88	-11.43
300.094	19.29
300.309	39.76
300.523	64.34
300.737	54.1
300.952	47.96
301.166	62.29
301.381	84.82
301.595	82.77
301.809	41.81
302.024	62.29
302.238	7
302.452	72.53
302.667	84.82
302.881	45.91
303.095	35.67
303.309	64.34
303.524	35.67
303.738	27.48
303.952	31.57
304.166	33.62
304.381	-25.77
304.595	29.52
304.809	21.33
305.023	58.2
305.237	35.67
305.452	56.15
305.666	31.57
305.88	31.57
306.094	35.67
306.308	97.11
306.522	64.34
306.736	131.92
306.95	93.01
307.164	13.14
307.379	68.44
307.593	115.54
307.807	35.67
308.021	2.9
308.235	-15.53
308.449	66.39
308.663	43.86
308.877	31.57
309.091	76.63
309.305	109.4
309.519	29.52
309.733	66.39
309.947	54.1
310.161	101.2
310.374	56.15
310.588	60.24
310.802	-13.48
311.016	21.33
311.23	113.49
311.444	54.1
311.658	58.2
311.872	7
312.085	41.81
312.299	80.72
312.513	56.15
312.727	66.39
312.941	-1.19
313.154	58.2
313.368	27.48
313.582	66.39
313.796	70.48
314.009	7
314.223	43.86
314.437	70.48
314.651	84.82
314.864	50
315.078	19.29
315.292	58.2
315.505	23.38
315.719	27.48
315.933	58.2
316.146	37.72
316.36	31.57
316.573	45.91
316.787	33.62
317.001	39.76
317.214	43.86
317.428	90.96
317.641	-50.35
317.855	33.62
318.068	-11.43
318.282	47.96
318.495	54.1
318.709	47.96
318.922	74.58
319.136	121.68
319.349	11.09
319.563	21.33
319.776	31.57
319.99	47.96
320.203	35.67
320.417	72.53
320.63	-3.24
320.843	41.81
321.057	121.68
321.27	-5.29
321.483	25.43
321.697	62.29
321.91	-5.29
322.124	25.43
322.337	111.44
322.55	11.09
322.763	43.86
322.977	119.64
323.19	31.57
323.403	66.39
323.617	66.39
323.83	41.81
324.043	62.29
324.256	80.72
324.469	70.48
324.683	113.49
324.896	23.38
325.109	113.49
325.322	41.81
325.535	80.72
325.748	64.34
325.962	43.86
326.175	72.53
326.388	64.34
326.601	54.1
326.814	-5.29
327.027	37.72
327.24	17.24
327.453	33.62
327.666	129.88
327.879	84.82
328.092	125.78
328.305	58.2
328.518	35.67
328.731	56.15
328.944	76.63
329.157	56.15
329.37	50
329.583	113.49
329.796	99.16
330.009	-13.48
330.222	62.29
330.435	43.86
330.648	70.48
330.861	17.24
331.073	23.38
331.286	80.72
331.499	103.25
331.712	41.81
331.925	33.62
332.138	31.57
332.35	82.77
332.563	123.73
332.776	29.52
332.989	-1.19
333.202	56.15
333.414	58.2
333.627	95.06
333.84	-17.58
334.053	95.06
334.265	54.1
334.478	109.4
334.691	21.33
334.903	15.19
335.116	41.81
335.329	-15.53
335.541	82.77
335.754	82.77
335.966	113.49
336.179	45.91
336.392	23.38
336.604	64.34
336.817	95.06
337.029	72.53
337.242	0.85
337.454	56.15
337.667	21.33
337.88	84.82
338.092	66.39
338.305	23.38
338.517	-7.34
338.729	111.44
338.942	99.16
339.154	29.52
339.367	45.91
339.579	80.72
339.792	82.77
340.004	162.64
340.217	80.72
340.429	4.95
340.641	45.91
340.854	78.68
341.066	0.85
341.278	21.33
341.491	47.96
341.703	127.83
341.915	54.1
342.128	76.63
342.34	56.15
342.552	88.92
342.764	35.67
342.977	88.92
343.189	70.48
343.401	33.62
343.613	64.34
343.826	148.31
344.038	72.53
344.25	52.05
344.462	88.92
344.674	64.34
344.886	117.59
345.099	39.76
345.311	117.59
345.523	74.58
345.735	72.53
345.947	35.67
346.159	37.72
346.371	-33.96
346.583	72.53
346.795	140.12
347.007	25.43
347.219	99.16
347.431	45.91
347.643	72.53
347.855	25.43
348.067	60.24
348.279	15.19
348.491	47.96
348.703	27.48
348.915	47.96
349.127	103.25
349.339	66.39
349.551	39.76
349.763	76.63
349.975	56.15
350.187	103.25
350.399	74.58
350.61	162.64
350.822	4.95
351.034	4.95
351.246	47.96
351.458	50
351.669	29.52
351.881	113.49
352.093	90.96
352.305	47.96
352.517	50
352.728	78.68
352.94	121.68
353.152	72.53
353.363	88.92
353.575	52.05
353.787	25.43
353.999	123.73
354.21	140.12
354.422	56.15
354.633	56.15
354.845	90.96
355.057	88.92
355.268	105.3
355.48	158.55
355.692	23.38
355.903	37.72
356.115	62.29
356.326	86.87
356.538	56.15
356.749	9.05
356.961	56.15
357.172	86.87
357.384	107.35
357.595	78.68
357.807	115.54
358.018	23.38
358.23	29.52
358.441	82.77
358.653	97.11
358.864	19.29
359.075	101.2
359.287	68.44
359.498	66.39
359.709	52.05
359.921	31.57
360.132	93.01
360.344	84.82
360.555	50
360.766	35.67
360.977	56.15
361.189	50
361.4	43.86
361.611	72.53
361.823	68.44
362.034	50
362.245	66.39
362.456	70.48
362.667	86.87
362.879	47.96
363.09	58.2
363.301	99.16
363.512	29.52
363.723	11.09
363.935	52.05
364.146	86.87
364.357	-23.72
364.568	19.29
364.779	62.29
364.99	9.05
365.201	29.52
365.412	60.24
365.623	-25.77
365.834	17.24
366.045	76.63
366.256	56.15
366.467	95.06
366.678	7
366.889	4.95
367.1	121.68
367.311	45.91
367.522	78.68
367.733	58.2
367.944	74.58
368.155	84.82
368.366	70.48
368.577	74.58
368.788	117.59
368.999	15.19
369.209	56.15
369.42	121.68
369.631	103.25
369.842	84.82
370.053	37.72
370.264	45.91
370.474	50
370.685	27.48
370.896	125.78
371.107	27.48
371.317	113.49
371.528	19.29
371.739	129.88
371.95	72.53
372.16	74.58
372.371	15.19
372.582	78.68
372.792	111.44
373.003	113.49
373.214	62.29
373.424	123.73
373.635	4.95
373.846	74.58
374.056	103.25
374.267	29.52
374.477	80.72
374.688	97.11
374.898	60.24
375.109	80.72
375.319	39.76
375.53	72.53
375.74	76.63
375.951	82.77
376.161	0.85
376.372	64.34
376.582	25.43
376.793	76.63
377.003	33.62
377.214	90.96
377.424	107.35
377.635	76.63
377.845	72.53
378.055	111.44
378.266	-23.72
378.476	119.64
378.686	4.95
378.897	43.86
379.107	66.39
379.317	13.14
379.528	9.05
379.738	25.43
379.948	29.52
380.158	43.86
380.369	123.73
380.579	68.44
380.789	23.38
380.999	99.16
381.21	109.4
381.42	138.07
381.63	111.44
381.84	107.35
382.05	131.92
382.261	43.86
382.471	62.29
382.681	58.2
382.891	144.21
383.101	60.24
383.311	-1.19
383.521	95.06
383.731	37.72
383.941	90.96
384.151	101.2
384.361	101.2
384.571	84.82
384.781	97.11
384.991	58.2
385.201	86.87
385.411	66.39
385.621	113.49
385.831	93.01
386.041	131.92
386.251	19.29
386.461	103.25
386.671	101.2
386.881	88.92
387.091	66.39
387.301	123.73
387.511	93.01
387.72	133.97
387.93	93.01
388.14	74.58
388.35	129.88
388.56	119.64
388.769	80.72
388.979	27.48
389.189	52.05
389.399	123.73
389.609	99.16
389.818	90.96
390.028	129.88
390.238	152.4
390.447	68.44
390.657	115.54
390.867	0.85
391.076	103.25
391.286	105.3
391.496	97.11
391.705	76.63
391.915	78.68
392.125	170.83
392.334	37.72
392.544	45.91
392.753	45.91
392.963	140.12
393.172	131.92
393.382	90.96
393.591	103.25
393.801	170.83
394.01	68.44
394.22	80.72
394.429	90.96
394.639	140.12
394.848	142.16
395.058	119.64
395.267	142.16
395.477	140.12
395.686	113.49
395.895	111.44
396.105	166.74
396.314	168.79
396.524	154.45
396.733	170.83
396.942	154.45
397.152	119.64
397.361	142.16
397.57	148.31
397.78	166.74
397.989	205.65
398.198	140.12
398.407	146.26
398.617	211.79
398.826	138.07
399.035	148.31
399.244	168.79
399.453	111.44
399.663	170.83
399.872	154.45
400.081	113.49
400.29	95.06
400.499	140.12
400.708	244.56
400.917	127.83
401.127	154.45
401.336	166.74
401.545	170.83
401.754	162.64
401.963	236.37
402.172	115.54
402.381	146.26
402.59	138.07
402.799	197.46
403.008	195.41
403.217	179.03
403.426	197.46
403.635	217.94
403.844	224.08
404.053	168.79
404.262	172.88
404.471	228.18
404.68	189.27
404.888	154.45
405.097	181.07
405.306	217.94
405.515	232.27
405.724	179.03
405.933	318.29
406.142	336.72
406.35	211.79
406.559	254.8
406.768	273.23
406.977	293.71
407.185	197.46
407.394	301.9
407.603	215.89
407.812	346.96
408.02	326.48
408.229	275.28
408.438	355.15
408.646	379.73
408.855	463.69
409.064	381.78
409.272	457.55
409.481	424.78
409.69	363.34
409.898	439.12
410.107	445.26
410.315	475.98
410.524	359.25
410.733	416.59
410.941	463.69
411.15	629.58
411.358	465.74
411.567	588.62
411.775	564.04
411.984	498.51
412.192	615.24
412.401	596.81
412.609	658.25
412.818	727.88
413.026	707.4
413.234	656.2
413.443	752.46
413.651	774.99
413.86	879.43
414.068	942.92
414.276	848.71
414.485	899.91
414.693	879.43
414.901	942.92
415.11	1063.75
415.318	904.01
415.526	1010.5
415.734	1129.28
415.943	1121.09
416.151	1184.58
416.359	1141.57
416.567	1217.35
416.776	1305.41
416.984	1375.04
417.192	1422.14
417.4	1381.18
417.608	1434.43
417.817	1557.31
418.025	1549.12
418.233	1657.66
418.441	1635.13
418.649	1669.95
418.857	1809.21
419.065	1858.36
419.273	1876.79
419.481	2016.05
419.689	1985.34
419.897	2091.83
420.105	2253.62
420.313	2079.54
420.521	2272.05
420.729	2423.6
420.937	2460.46
421.145	2460.46
421.353	2720.56
421.561	2569.01
421.769	2779.95
421.977	2949.93
422.185	3001.13
422.393	3107.62
422.601	3201.83
422.809	3142.44
423.017	3265.32
423.224	3332.9
423.432	3595.04
423.64	3652.38
423.848	3922.71
424.056	3955.48
424.263	3951.39
424.471	4043.54
424.679	4115.22
424.887	4375.31
425.094	4600.59
425.302	4473.62
425.51	4633.36
425.718	4860.68
425.925	4850.44
426.133	5231.37
426.341	5262.09
426.548	5454.59
426.756	5540.61
426.964	5516.03
427.171	5995.26
427.379	6083.32
427.586	6290.17
427.794	6468.34
428.001	6791.92
428.209	6972.14
428.417	6906.6
428.624	7379.68
428.832	7475.94
429.039	7250.66
429.247	7375.59
429.454	7992.03
429.662	8596.18
429.869	7971.55
430.076	8563.41
430.284	8321.75
430.491	8612.56
430.699	9165.51
430.906	9239.24
431.114	9360.07
431.321	9804.48
431.528	9908.93
431.736	10568.37
431.943	10842.8
432.15	10828.46
432.358	10717.87
432.565	11463.33
432.772	11326.12
432.979	12153.5
433.187	12110.49
433.394	12423.83
433.601	13154.96
433.808	12970.64
434.016	13064.85
434.223	13609.61
434.43	14205.56
434.637	14070.4
434.844	15086.19
435.052	15227.5
435.259	15157.87
435.466	15499.88
435.673	15207.02
435.88	16390.75
436.087	17003.09
436.294	17009.23
436.501	16495.19
436.708	17046.1
436.915	17517.13
437.122	18096.71
437.329	18274.88
437.537	19036.72
437.743	19155.51
437.95	18971.19
438.157	19933.73
438.364	20621.85
438.571	20593.18
438.778	20894.23
438.985	22665.72
439.192	21934.6
439.399	22282.75
439.606	22004.23
439.813	23450.1
440.02	24609.25
440.227	24232.42
440.433	24087.01
440.64	25049.56
440.847	24695.26
441.054	25039.32
441.261	26913.21
441.467	26573.25
441.674	27079.1
441.881	27883.95
442.088	27931.05
442.294	28008.87
442.501	28383.65
442.708	29077.91
442.914	30239.11
443.121	31656.31
443.328	30390.66
443.534	32717.15
443.741	32078.19
443.948	31553.91
444.154	33835.35
444.361	33405.27
444.568	34015.57
444.774	33642.84
444.981	34154.83
445.187	35121.47
445.394	36469.03
445.6	35973.42
445.807	39565.56
446.013	37538.07
446.22	38490.38
446.426	40317.17
446.633	40507.63
446.839	42150.1
447.046	40220.91
447.252	42129.62
447.459	42086.61
447.665	42221.78
447.871	44073.14
448.078	46125.21
448.284	43577.53
448.491	44957.86
448.697	46860.43
448.903	47376.51
449.11	47761.53
449.316	46801.04
449.522	47712.38
449.728	48230.52
449.935	49311.84
450.141	49262.69
450.347	50057.31
450.553	48619.63
450.76	49725.53
450.966	50911.31
451.172	50260.05
451.378	51556.42
451.584	50327.64
451.791	51621.95
451.997	51595.33
452.203	52533.3
452.409	52615.22
452.615	52152.38
452.821	50583.63
453.027	50116.7
453.233	52252.73
453.44	50407.51
453.646	51122.25
453.852	50964.56
454.058	52156.47
454.264	50534.48
454.47	51443.78
454.676	50346.07
454.882	52135.99
455.088	47700.09
455.294	48443.51
455.5	48920.68
455.705	49426.53
455.911	47472.77
456.117	46639.25
456.323	46110.87
456.529	43968.69
456.735	45623.45
456.941	44382.38
457.147	44021.94
457.352	42397.9
457.558	42148.05
457.764	41738.46
457.97	41203.94
458.176	40620.27
458.381	40358.13
458.587	38476.04
458.793	38834.44
458.999	36282.67
459.204	39067.91
459.41	37902.61
459.616	35408.19
459.821	35567.93
460.027	35535.16
460.233	34515.27
460.438	33007.97
460.644	33464.66
460.85	32029.04
461.055	31232.38
461.261	31547.76
461.466	28957.08
461.672	28328.36
461.878	30126.47
462.083	27886
462.289	27554.22
462.494	27230.65
462.7	26085.83
462.905	25582.03
463.111	26212.81
463.316	26534.34
463.522	25792.97
463.727	25913.8
463.932	25741.77
464.138	25536.98
464.343	25784.78
464.549	24631.77
464.754	25805.26
464.959	25244.12
465.165	25485.78
465.37	23794.15
465.575	23417.33
465.781	24463.84
465.986	24549.85
466.191	23951.85
466.397	23181.81
466.602	22090.24
466.807	23161.33
467.012	23128.56
467.218	22733.31
467.423	22735.35
467.628	22592
467.833	23558.64
468.038	22841.85
468.244	21961.22
468.449	23316.98
468.654	22475.26
468.859	22508.03
469.064	21979.65
469.269	21338.64
469.474	21287.44
469.679	21881.35
469.885	21250.58
470.09	21369.36
470.295	21479.95
470.5	20853.27
470.705	20869.65
470.91	20392.48
471.115	20101.67
471.32	20486.68
471.525	20472.35
471.73	20179.49
471.935	19974.69
472.139	19210.8
472.344	19487.28
472.549	19360.3
472.754	19196.46
472.959	18657.85
473.164	18125.38
473.369	18328.13
473.574	18704.95
473.778	18487.87
473.983	18205.25
474.188	18270.78
474.393	17508.94
474.598	17611.34
474.802	17293.9
475.007	17467.98
475.212	17308.24
475.417	16491.1
475.621	16585.3
475.826	16599.64
476.031	16439.9
476.235	16173.66
476.44	16484.95
476.645	16073.31
476.849	15952.48
477.054	15975.01
477.259	15647.33
477.463	15446.63
477.668	15237.74
477.872	15368.81
478.077	15026.8
478.282	14834.29
478.486	14672.5
478.691	14428.79
478.895	14639.73
479.1	14166.65
479.304	14133.89
479.509	14076.54
479.713	14295.68
479.918	13791.87
480.122	13802.11
480.326	13888.13
480.531	14043.78
480.735	13734.53
480.94	13673.09
481.144	13959.81
481.348	13417.1
481.553	13601.41
481.757	13392.52
481.961	13445.77
482.166	13472.39
482.37	13554.31
482.574	13101.71
482.778	13476.49
482.983	13513.35
483.187	13474.44
483.391	13329.03
483.595	13240.97
483.8	13038.22
484.004	13324.94
484.208	13589.13
484.412	13542.02
484.616	13240.97
484.821	13447.82
485.025	13212.3
485.229	13630.09
485.433	13091.47
485.637	13384.33
485.841	13449.86
486.045	13369.99
486.249	13316.75
486.453	13226.64
486.657	13392.52
486.861	13337.23
487.065	13130.38
487.269	13273.74
487.473	13114
487.677	13462.15
487.881	13406.86
488.085	13243.02
488.289	13290.12
488.493	13218.44
488.697	13271.69
488.901	13490.82
489.105	13570.69
489.309	13568.65
489.512	13402.76
489.716	13410.95
489.92	13404.81
490.124	13486.73
490.328	13783.68
490.531	13365.9
490.735	13552.26
490.939	13537.93
491.143	13777.54
491.346	13644.42
491.55	14045.82
491.754	13984.38
491.958	14006.91
492.161	13986.43
492.365	14076.54
492.569	13896.32
492.772	14015.1
492.976	14183.04
493.18	14375.55
493.383	14426.75
493.587	14334.59
493.79	14543.48
493.994	14348.92
494.197	14703.22
494.401	14576.25
494.605	14619.25
494.808	14901.87
495.012	15016.56
495.215	14840.43
495.419	15290.99
495.622	15069.81
495.825	15585.9
496.029	15379.05
496.232	15751.78
496.436	15825.51
496.639	16118.37
496.843	15989.35
497.046	16360.03
497.249	16392.8
497.453	16497.24
497.656	16773.72
497.859	16740.95
498.063	17181.26
498.266	17273.42
498.469	17099.34
498.673	17300.05
498.876	17699.4
499.079	17783.37
499.282	17818.18
499.485	18446.91
499.689	18238.02
499.892	18362.94
500.095	18598.46
500.298	19112.5
500.501	18659.9
500.705	19407.41
500.908	19622.44
501.111	20025.89
501.314	20070.95
501.517	20154.91
501.72	20314.66
501.923	20462.11
502.126	20554.27
502.329	21129.75
502.532	21146.13
502.735	21512.72
502.938	21797.38
503.141	21905.93
503.344	22215.17
503.547	22342.14
503.75	22477.31
503.953	22802.94
504.156	23067.13
504.359	23222.77
504.562	23413.23
504.765	24076.77
504.968	24115.69
505.17	24218.08
505.373	24556
505.576	24642.01
505.779	24826.33
505.982	25317.84
506.185	25561.55
506.387	25706.96
506.59	25774.54
506.793	26376.64
506.996	26165.7
507.198	27056.57
507.401	26862.01
507.604	27271.61
507.807	27726.25
508.009	28010.92
508.212	28178.86
508.415	28789.15
508.617	28989.85
508.82	29073.82
509.022	29006.23
509.225	29546.9
509.428	29800.85
509.63	29806.99
509.833	30456.2
510.035	30964.09
510.238	30501.25
510.44	31224.18
510.643	31582.58
510.845	31830.38
511.048	31635.83
511.25	32086.38
511.453	32586.08
511.655	33323.35
511.858	32885.09
512.06	33679.7
512.262	33765.71
512.465	33931.6
512.667	34425.16
512.87	34644.29
513.072	34668.87
513.274	35590.45
513.477	35785.01
513.679	36063.54
513.881	36153.65
514.084	36575.53
514.286	36626.73
514.488	36788.52
514.69	38168.85
514.893	37845.27
515.095	38160.66
515.297	38754.57
515.499	38783.24
515.701	39215.36
515.904	39452.92
516.106	39416.06
516.308	39819.51
516.51	40624.36
516.712	40272.11
516.914	41255.14
517.116	41246.94
517.318	41371.87
517.52	41623.77
517.722	42096.85
517.925	42858.7
518.127	42920.13
518.329	43395.26
518.531	42965.19
518.733	43880.63
518.935	43972.79
519.136	43983.03
519.338	44781.74
519.54	44855.46
519.742	45283.49
519.944	45758.62
520.146	46436.5
520.348	46489.74
520.55	46788.75
520.752	46858.38
520.954	48056.44
521.155	47554.69
521.357	47837.31
521.559	48570.48
521.761	49131.62
521.963	48703.6
522.164	48863.34
522.366	49436.77
522.568	49592.42
522.77	49825.89
522.971	50632.78
523.173	50520.15
523.375	50350.17
523.576	51152.97
523.778	51148.87
523.98	51619.91
524.181	51742.78
524.383	51601.47
524.584	52232.25
524.786	52215.86
524.988	51992.64
525.189	52867.12
525.391	53100.59
525.592	53284.9
525.794	53452.84
525.995	53774.37
526.197	53688.35
526.398	53653.54
526.6	54138.91
526.801	53882.91
527.003	54812.69
527.204	54714.39
527.406	55425.03
527.607	55070.73
527.808	55406.6
528.01	54568.98
528.211	55646.21
528.412	55910.4
528.614	55963.65
528.815	55449.61
529.016	55898.11
529.218	55533.57
529.419	56164.35
529.62	55894.02
529.822	56428.54
530.023	56252.41
530.224	56504.31
530.425	56145.92
530.626	56154.11
530.828	56143.87
531.029	57219.05
531.23	56748.02
531.431	56506.36
531.632	56987.63
531.833	57276.4
532.035	56850.42
532.236	57083.89
532.437	57245.68
532.638	56838.13
532.839	57135.09
533.04	57300.97
533.241	56705.01
533.442	57380.84
533.643	57477.1
533.844	57184.24
534.045	57450.47
534.246	56836.08
534.447	57632.74
534.648	57237.48
534.849	57858.02
535.05	57120.75
535.251	57851.87
535.451	57079.79
535.652	57516.01
535.853	57135.09
536.054	57417.71
536.255	57632.74
536.456	57217
536.657	57587.69
536.857	57128.94
537.058	56856.56
537.259	57604.07
537.46	57024.5
537.66	57268.2
537.861	57436.14
538.062	57313.26
538.263	57868.26
538.463	56934.38
538.664	57225.2
538.865	57346.03
539.065	57333.74
539.266	57260.01
539.466	57462.76
539.667	56647.67
539.868	57812.96
540.068	57122.8
540.269	57397.23
540.469	57446.38
540.67	57022.45
540.87	57321.45
541.071	57200.62
541.271	57268.2
541.472	56854.51
541.672	56942.58
541.873	57047.02
542.073	56678.39
542.274	57610.21
542.474	56625.14
542.675	56717.3
542.875	57274.35
543.075	57212.91
543.276	56598.52
543.476	57114.61
543.676	56619
543.877	56897.52
544.077	56971.25
544.277	56729.59
544.478	56993.78
544.678	56922.1
544.878	57130.99
545.078	56778.74
545.279	56352.76
545.479	56506.36
545.679	57133.04
545.879	56686.58
546.079	56940.53
546.28	56506.36
546.48	55883.78
546.68	56639.48
546.88	56958.96
547.08	56748.02
547.28	56537.08
547.48	56479.74
547.68	56817.65
547.88	56131.58
548.081	57034.74
548.281	56289.27
548.481	56199.16
548.681	57087.98
548.881	56522.74
549.081	56393.72
549.28	55982.08
549.48	56686.58
549.68	56453.11
549.88	56768.5
550.08	56457.21
550.28	56250.36
550.48	56285.18
550.68	56811.51
550.88	56309.75
551.08	56174.59
551.279	56686.58
551.479	56137.72
551.679	56131.58
551.879	56287.23
552.079	56207.36
552.278	55775.23
552.478	56053.76
552.678	56317.95
552.878	56236.03
553.077	55644.16
553.277	55674.88
553.477	56377.34
553.676	56256.51
553.876	55724.04
554.076	55973.89
554.275	55928.83
554.475	55418.89
554.674	55320.59
554.874	55982.08
555.074	55867.39
555.273	55898.11
555.473	56162.3
555.672	55832.58
555.872	55687.17
556.071	55531.53
556.271	56049.66
556.47	55750.66
556.67	54999.05
556.869	55445.51
557.068	55476.23
557.268	54808.59
557.467	55230.47
557.667	55201.8
557.866	54818.83
558.065	54872.08
558.265	54974.48
558.464	54954
558.663	54831.12
558.863	54249.5
559.062	55054.35
559.261	54425.62
559.461	54771.73
559.66	54083.61
559.859	54540.31
560.058	54315.03
560.258	54616.08
560.457	53956.64
560.656	54710.29
560.855	54259.74
561.054	54073.37
561.253	53876.77
561.453	54310.94
561.652	54206.49
561.851	54472.73
562.05	53743.65
562.249	53725.22
562.448	54355.99
562.647	53749.79
562.846	53917.73
563.045	53549.09
563.244	53149.74
563.443	53934.11
563.642	53260.33
563.841	53559.33
564.04	53145.64
564.239	53798.94
564.438	52992.04
564.637	52979.76
564.836	53211.18
565.035	52744.24
565.234	53278.76
565.432	52664.37
565.631	52400.18
565.83	52869.17
566.029	52367.41
566.228	52387.89
566.427	52375.61
566.625	52351.03
566.824	51361.86
567.023	52457.52
567.222	51525.7
567.42	52312.12
567.619	51638.34
567.818	51816.51
568.016	51255.37
568.215	51961.92
568.414	51146.82
568.612	51568.71
568.811	51474.5
569.01	51333.19
569.208	50999.37
569.407	51171.4
569.605	50147.42
569.804	50982.99
570.002	50378.84
570.201	50915.4
570.4	50391.12
570.598	50280.53
570.797	50255.96
570.995	50202.71
571.193	49594.46
571.392	50288.73
571.59	49752.16
571.789	50219.1
571.987	49528.93
572.186	49537.12
572.384	49375.33
572.582	49440.87
572.781	49846.36
572.979	48904.3
573.177	48937.07
573.376	49680.48
573.574	48789.61
573.772	49317.99
573.971	48967.79
574.169	48525.42
574.367	48138.36
574.565	48982.12
574.763	48363.64
574.962	48183.41
575.16	47773.82
575.358	47982.71
575.556	47857.79
575.754	48414.83
575.952	47081.61
576.151	48230.52
576.349	46833.8
576.547	47548.54
576.745	47624.32
576.943	47585.41
577.141	47224.96
577.339	47124.61
577.537	47151.24
577.735	46735.5
577.933	46246.04
578.131	46739.6
578.329	46452.88
578.527	46188.69
578.725	46635.15
578.923	46434.45
579.121	46311.57
579.319	46117.01
579.516	46295.19
579.714	45613.21
579.912	45703.32
580.11	45850.78
580.308	45506.72
580.506	45177
580.704	45082.79
580.901	45056.17
581.099	45344.93
581.297	44873.9
581.495	44888.23
581.692	44685.48
581.89	44320.95
582.088	44857.51
582.285	44300.47
582.483	44703.92
582.681	44421.3
582.878	44107.96
583.076	43856.06
583.274	44374.19
583.471	43612.35
583.669	43571.39
583.866	43630.78
584.064	43841.72
584.262	43595.96
584.459	43632.83
584.657	43258.05
584.854	43149.51
585.052	42590.41
585.249	43264.19
585.447	43192.51
585.644	42590.41
585.841	42533.07
586.039	42950.85
586.236	42334.42
586.434	42254.54
586.631	42272.98
586.828	42479.82
587.026	42328.27
587.223	41754.84
587.42	41441.5
587.618	41769.18
587.815	41820.38
588.012	41357.53
588.21	41033.96
588.407	41459.93
588.604	41208.03
588.801	40843.49
588.999	41058.53
589.196	41081.06
589.393	40517.87
589.59	40364.27
589.787	40546.54
589.984	40397.04
590.182	40083.7
590.379	40655.08
590.576	40046.83
590.773	39862.52
590.97	39502.07
591.167	40050.93
591.364	39551.23
591.561	39657.72
591.758	38967.55
591.955	39168.26
592.152	39315.71
592.349	39153.92
592.546	38816.01
592.743	39041.28
592.94	38148.37
593.137	38963.46
593.334	39086.34
593.531	38199.57
593.727	38773
593.924	38400.27
594.121	38097.17
594.318	37962
594.515	37880.08
594.712	37939.47
594.908	37896.47
595.105	37916.95
595.302	37427.48
595.499	37456.15
595.696	37249.31
595.892	36862.24
596.089	37230.88
596.286	37237.02
596.482	37019.94
596.679	36985.12
596.876	36962.59
597.072	36421.93
597.269	36749.6
597.466	36378.92
597.662	36047.15
597.859	36231.47
598.055	36366.63
598.252	36137.26
598.448	35954.99
598.645	35690.8
598.841	35227.96
599.038	35504.44
599.234	35838.26
599.431	34984.26
599.627	35127.61
599.824	35422.52
600.02	34812.23
600.217	34879.81
600.413	34955.58
600.609	34660.68
600.806	34453.83
601.002	34722.12
601.198	34130.25
601.395	34201.93
601.591	34191.69
601.787	34523.46
601.984	33976.65
602.18	34038.09
602.376	33552.73
602.572	33468.76
602.769	33835.35
602.965	33241.43
603.161	33511.77
603.357	33239.39
603.553	33108.32
603.75	33304.92
603.946	33030.49
604.142	32811.36
604.338	32504.17
604.534	33075.55
604.73	32584.04
604.926	32143.72
605.122	32625
605.318	32244.07
605.514	32014.7
605.71	32041.32
605.906	32072.04
606.102	32262.51
606.298	31947.12
606.494	31867.25
606.69	32018.8
606.886	31877.49
607.082	31574.39
607.278	31959.41
607.474	31322.49
607.67	31633.78
607.866	31031.68
608.062	31306.1
608.257	31054.2
608.453	30990.72
608.649	31265.14
608.845	30847.36
609.041	30560.64
609.236	30943.61
609.432	30636.42
609.628	30986.62
609.824	30681.47
610.019	30384.52
610.215	30183.82
610.411	30796.16
610.606	30458.24
610.802	30650.75
610.998	30407.05
611.193	30388.61
611.389	29972.88
611.584	29759.89
611.78	30050.7
611.976	30146.95
612.171	29985.16
612.367	29792.65
612.562	29663.63
612.758	29348.25
612.953	29208.98
613.149	29874.57
613.344	29614.48
613.539	29888.91
613.735	29391.25
613.93	29645.2
614.126	29268.37
614.321	29794.7
614.517	29258.13
614.712	29174.17
614.907	28989.85
615.103	29241.75
615.298	28740
615.493	29378.97
615.688	28895.64
615.884	29514.13
616.079	28789.15
616.274	28989.85
616.47	28760.48
616.665	28688.8
616.86	28666.27
617.055	28359.08
617.25	28342.69
617.445	28604.83
617.641	27820.46
617.836	28185
618.031	27902.38
618.226	28500.39
618.421	27799.98
618.616	28234.15
618.811	27902.38
619.006	28021.16
619.201	27462.07
619.396	27621.81
619.591	27263.41
619.786	27447.73
619.981	26638.78
620.176	27498.93
620.371	27034.04
620.566	27238.84
620.761	26591.68
620.956	26997.18
621.151	26446.27
621.346	26165.7
621.541	25973.19
621.735	26405.31
621.93	25891.27
622.125	25833.93
622.32	25620.94
622.515	25553.36
622.709	25754.06
622.904	25688.53
623.099	25088.47
623.294	25250.26
623.488	24986.07
623.683	25100.76
623.878	24725.98
624.072	24904.15
624.267	24666.59
624.462	24627.68
624.656	24310.24
624.851	24469.98
625.046	24189.41
625.24	24314.34
625.435	23957.99
625.629	23785.96
625.824	23511.53
626.018	23384.56
626.213	23175.67
626.407	23575.02
626.602	23087.61
626.796	23147
626.991	22907.38
627.185	22802.94
627.38	22755.83
627.574	22176.26
627.768	22327.81
627.963	22188.55
628.157	21776.91
628.352	22032.9
628.546	21506.57
628.74	22026.76
628.935	21539.34
629.129	21459.47
629.323	21342.74
629.517	21473.81
629.712	21324.3
629.906	21301.78
630.1	20900.37
630.294	20924.95
630.489	20701.72
630.683	20806.17
630.877	20349.47
631.071	20341.28
631.265	20300.32
631.459	20083.23
631.653	20032.04
631.848	20017.7
632.042	19513.9
632.236	20259.36
632.43	19528.24
632.624	19769.9
632.818	19489.32
633.012	19137.07
633.206	19382.83
633.4	19460.65
633.594	19126.83
633.788	19067.44
633.982	19044.91
634.176	18975.28
634.369	18547.26
634.563	18590.27
634.757	18432.57
634.951	18434.62
635.145	18270.78
635.339	18489.92
635.533	17967.68
635.726	18141.76
635.92	17834.57
636.114	17846.85
636.308	17900.1
636.501	17881.67
636.695	17863.24
636.889	17588.81
637.083	17500.75
637.276	17386.06
637.47	17349.2
637.664	17113.68
637.857	17056.34
638.051	17160.78
638.244	17021.52
638.438	16867.92
638.632	16876.12
638.825	16618.07
639.019	16476.76
639.212	16521.82
639.406	16429.66
639.599	16439.9
639.793	16390.75
639.986	15995.49
640.18	15997.54
640.373	15888.99
640.567	15839.84
640.76	15831.65
640.954	15657.57
641.147	15712.87
641.34	15379.05
641.534	15551.08
641.727	15467.11
641.92	15432.3
642.114	15225.45
642.307	15348.33
642.5	15106.67
642.694	14957.17
642.887	14762.61
643.08	15069.81
643.273	14752.37
643.467	14758.52
643.66	14508.66
643.853	14436.99
644.046	14168.7
644.239	14439.03
644.432	14236.28
644.626	14246.52
644.819	14248.57
645.012	14111.36
645.205	14248.57
645.398	14271.1
645.591	14074.49
645.784	13976.19
645.977	13515.4
646.17	13634.18
646.363	13511.3
646.556	13611.65
646.749	13546.12
646.942	13425.29
647.135	13353.61
647.328	13075.09
647.521	13122.19
647.714	13171.34
647.907	13234.83
648.099	13150.86
648.292	12962.45
648.485	12862.1
648.678	12743.31
648.871	12681.88
649.064	12589.72
649.256	12634.77
649.449	12368.54
649.642	12425.88
649.835	12290.71
650.027	12288.67
650.22	12315.29
650.413	12210.84
650.605	12153.5
650.798	11989.66
650.991	11866.78
651.183	11946.66
651.376	11791.01
651.568	11917.98
651.761	11803.3
651.954	11942.56
652.146	11520.68
652.339	11719.33
652.531	11498.15
652.724	11424.42
652.916	11328.17
653.109	11475.62
653.301	11207.34
653.494	11266.73
653.686	10988.21
653.879	11266.73
654.071	11094.7
654.263	11076.27
654.456	10810.03
654.648	10959.53
654.84	10689.2
655.033	10869.42
655.225	10646.19
655.417	10672.82
655.61	10623.67
655.802	10547.89
655.994	10551.99
656.186	10298.04
656.379	10367.67
656.571	10410.68
656.763	10310.33
656.955	10162.87
657.148	10103.48
657.34	10181.31
657.532	9964.22
657.724	10044.09
657.916	10013.37
658.108	9968.32
658.3	9714.37
658.492	9925.31
658.684	9884.35
658.876	9677.51
659.068	9679.55
659.26	9669.31
659.452	9673.41
659.644	9511.62
659.836	9274.06
660.028	9472.71
660.22	9392.84
660.412	9362.12
660.604	9229
660.796	9335.49
660.988	9161.42
661.18	9145.03
661.372	9112.27
661.563	8886.99
661.755	8796.88
661.947	8923.85
662.139	9063.12
662.331	9065.16
662.522	8776.4
662.714	8831.69
662.906	8602.32
663.097	8739.54
663.289	8534.74
663.481	8393.43
663.673	8518.36
663.864	8538.84
664.056	8495.83
664.247	8325.85
664.439	8270.55
664.631	8461.01
664.822	8301.27
665.014	8243.93
665.205	8207.06
665.397	8069.85
665.588	8207.06
665.78	7971.55
665.971	7897.82
666.163	8063.71
666.354	7967.45
666.546	7906.01
666.737	7987.93
666.929	7805.66
667.12	7877.34
667.311	7875.29
667.503	7711.46
667.694	7629.54
667.885	7555.81
668.077	7518.95
668.268	7535.33
668.459	7516.9
668.651	7723.74
668.842	7406.31
669.033	7445.22
669.224	7461.6
669.416	7426.79
669.607	7381.73
669.798	7326.44
669.989	7330.53
670.18	7355.11
670.371	7193.32
670.563	7250.66
670.754	7062.25
670.945	7117.54
671.136	7097.07
671.327	7041.77
671.518	6898.41
671.709	7004.91
671.9	7056.11
672.091	6867.69
672.282	6836.97
672.473	6914.8
672.664	6845.16
672.855	6879.98
673.046	6939.37
673.237	6814.45
673.428	6791.92
673.619	6732.53
673.809	6789.87
674	6580.98
674.191	6607.6
674.382	6591.22
674.573	6458.1
674.764	6576.88
674.954	6488.82
675.145	6544.11
675.336	6337.27
675.527	6517.49
675.717	6441.72
675.908	6357.75
676.099	6363.89
676.289	6281.97
676.48	6263.54
676.671	6273.78
676.861	6335.22
677.052	6152.95
677.243	6341.36
677.433	6075.13
677.624	6304.5
677.814	5991.16
678.005	6193.91
678.195	6238.97
678.386	6114.04
678.576	6232.82
678.767	6122.23
678.957	6130.42
679.148	6163.19
679.338	5964.54
679.529	5968.63
679.719	5993.21
679.909	6103.8
680.1	5851.9
680.29	5999.35
680.481	5794.56
680.671	5866.24
680.861	5778.17
681.052	5776.13
681.242	6034.17
681.432	5751.55
681.622	5833.47
681.813	5733.12
682.003	5786.37
682.193	5624.58
682.383	5837.56
682.573	5708.54
682.764	5872.38
682.954	5544.7
683.144	5651.2
683.334	5796.6
683.524	5579.52
683.714	5696.25
683.904	5522.18
684.094	5683.97
684.284	5677.82
684.474	5628.67
684.664	5587.71
684.854	5354.24
685.044	5595.9
685.234	5358.34
685.424	5296.9
685.614	5458.69
685.804	5356.29
685.994	5231.37
686.184	5417.73
686.374	5262.09
686.564	5249.8
686.753	5128.97
686.943	5120.78
687.133	5223.17
687.323	5204.74
687.513	5194.5
687.702	5040.9
687.892	5014.28
688.082	5075.72
688.272	5090.06
688.461	5004.04
688.651	5030.66
688.841	5100.3
689.03	5094.15
689.22	4967.18
689.41	4879.11
689.599	4844.3
689.789	4950.79
689.979	4909.83
690.168	4895.5
690.358	4653.84
690.547	4825.87
690.737	4741.9
690.926	4647.69
691.116	4696.85
691.305	4754.19
691.495	4770.57
691.684	4586.26
691.874	4602.64
692.063	4590.35
692.252	4557.58
692.442	4590.35
692.631	4592.4
692.82	4520.72
693.01	4584.21
693.199	4543.25
693.388	4408.08
693.578	4438.8
693.767	4455.19
693.956	4377.36
694.146	4391.7
694.335	4326.16
694.524	4266.77
694.713	4240.15
694.902	4150.04
695.092	4358.93
695.281	4268.82
695.47	4225.81
695.659	4125.46
695.848	4197.14
696.037	4141.85
696.226	3978.01
696.415	4133.65
696.604	4203.29
696.793	4021.02
696.982	4074.26
697.171	4055.83
697.36	4174.61
697.549	3937.05
697.738	3986.2
697.927	4010.78
698.116	4076.31
698.305	3986.2
698.494	4135.7
698.683	4092.69
698.872	3922.71
699.061	3842.84
699.25	4061.98
699.438	4049.69
699.627	4035.35
699.816	3865.37
700.005	3994.39
700.193	3795.74
700.382	3955.48
700.571	3781.4
700.76	3818.27
700.948	3930.91
701.137	3963.67
701.326	3875.61
701.514	3947.29
701.703	3842.84
701.892	3883.8
702.08	3891.99
702.269	3777.31
702.457	3793.69
702.646	3906.33
702.834	3781.4
703.023	3732.25
703.212	3707.68
703.4	3592.99
703.589	3646.24
703.777	3697.44
703.965	3676.96
704.154	3664.67
704.342	3752.73
704.531	3539.74
704.719	3576.61
704.907	3660.57
705.096	3654.43
705.284	3701.53
705.472	3638.05
705.661	3597.09
705.849	3746.59
706.037	3672.86
706.226	3689.25
706.414	3621.66
706.602	3537.7
706.79	3636
706.979	3445.54
707.167	3549.98
707.355	3435.3
707.543	3506.98
707.731	3599.13
707.919	3535.65
708.107	3420.96
708.296	3402.53
708.484	3431.2
708.672	3498.78
708.86	3375.91
709.048	3390.24
709.236	3449.63
709.424	3451.68
709.612	3320.61
709.8	3359.52
709.988	3414.82
710.176	3392.29
710.364	3359.52
710.551	3369.76
710.739	3377.95
710.927	3414.82
711.115	3369.76
711.303	3341.09
711.491	3345.19
711.679	3240.74
711.866	3326.75
712.054	3293.99
712.242	3298.08
712.43	3418.91
712.617	3306.27
712.805	3300.13
712.993	3314.47
713.181	3212.07
713.368	3269.41
713.556	3201.83
713.744	3259.17
713.931	3287.84
714.119	3218.21
714.306	3240.74
714.494	3177.25
714.682	3242.79
714.869	3162.92
715.057	3265.32
715.244	3183.4
715.432	3232.55
715.619	3322.66
715.807	3195.68
715.994	3185.44
716.182	3189.54
716.369	3097.38
716.556	3201.83
716.744	3037.99
716.931	3130.15
717.119	3242.79
717.306	3011.37
717.493	3128.1
717.681	3074.85
717.868	3101.48
718.055	3050.28
718.242	2994.98
718.43	3154.73
718.617	3029.8
718.804	3119.91
718.991	2972.46
719.179	3013.42
719.366	3078.95
719.553	2974.5
719.74	3081
719.927	2917.16
720.114	3040.04
720.301	2982.7
720.488	2970.41
720.676	2900.78
720.863	3035.94
721.05	3013.42
721.237	2994.98
721.424	2929.45
721.611	2845.48
721.798	2984.74
721.985	2986.79
722.172	2906.92
722.358	2906.92
722.545	2861.87
722.732	2913.06
722.919	3019.56
723.106	2900.78
723.293	2761.52
723.48	2896.68
723.667	2902.83
723.853	2890.54
724.04	3007.27
724.227	2939.69
724.414	2849.58
724.6	2800.43
724.787	2786.09
724.974	2954.02
725.161	2771.76
725.347	2790.19
725.534	2714.41
725.72	2857.77
725.907	2843.43
726.094	2806.57
726.28	2812.71
726.467	2927.4
726.653	2738.99
726.84	2812.71
727.027	2835.24
727.213	2652.97
727.4	2716.46
727.586	2749.23
727.773	2802.47
727.959	2732.84
728.145	2759.47
728.332	2755.37
728.518	2698.03
728.705	2626.35
728.891	2695.98
729.077	2741.04
729.264	2630.45
729.45	2738.99
729.636	2708.27
729.823	2667.31
730.009	2577.2
730.195	2675.5
730.382	2689.84
730.568	2730.8
730.754	2681.64
730.94	2593.58
731.126	2663.21
731.313	2702.12
731.499	2652.97
731.685	2671.4
731.871	2814.76
732.057	2620.21
732.243	2616.11
732.429	2530.09
732.615	2624.3
732.801	2663.21
732.987	2564.91
733.173	2583.34
733.359	2612.01
733.545	2589.49
733.731	2530.09
733.917	2599.73
734.103	2485.04
734.289	2655.02
734.475	2517.81
734.661	2659.12
734.847	2609.97
735.033	2478.9
735.219	2431.79
735.404	2536.24
735.59	2585.39
735.776	2562.86
735.962	2493.23
736.148	2507.57
736.333	2485.04
736.519	2515.76
736.705	2554.67
736.89	2476.85
737.076	2345.78
737.262	2423.6
737.447	2421.55
737.633	2370.35
737.819	2534.19
738.004	2390.83
738.19	2478.9
738.375	2399.02
738.561	2417.46
738.747	2612.01
738.932	2372.4
739.118	2372.4
739.303	2276.15
739.489	2476.85
739.674	2513.71
739.859	2399.02
740.045	2388.78
740.23	2454.32
740.416	2376.5
740.601	2405.17
740.786	2388.78
740.972	2202.42
741.157	2339.63
741.342	2317.11
741.528	2183.99
741.713	2335.54
741.898	2218.8
742.084	2247.48
742.269	2255.67
742.454	2343.73
742.639	2308.91
742.824	2267.95
743.01	2179.89
743.195	2212.66
743.38	2220.85
743.565	2165.56
743.75	2151.22
743.935	2255.67
744.12	2126.64
744.305	2183.99
744.49	2114.36
744.675	2108.21
744.86	2118.45
745.045	2108.21
745.23	2143.03
745.415	2091.83
745.6	2171.7
745.785	1985.34
745.97	2067.25
746.155	2085.69
746.34	2054.97
746.525	2032.44
746.71	2077.49
746.895	2018.1
747.079	1891.13
747.264	2005.81
747.449	1964.86
747.634	1895.22
747.819	2081.59
748.003	1899.32
748.188	1897.27
748.373	1852.22
748.557	1866.55
748.742	1952.57
748.927	1917.75
749.111	1837.88
749.296	1827.64
749.481	1876.79
749.665	1829.69
749.85	1823.55
750.034	1792.83
750.219	1803.07
750.404	1825.59
750.588	1784.63
750.773	1715
750.957	1747.77
751.141	1733.43
751.326	1719.1
751.51	1651.52
751.695	1680.19
751.879	1610.56
752.064	1680.19
752.248	1659.71
752.432	1669.95
752.617	1719.1
752.801	1663.8
752.985	1549.12
753.17	1522.49
753.354	1534.78
753.538	1651.52
753.722	1499.97
753.907	1506.11
754.091	1495.87
754.275	1520.45
754.459	1516.35
754.643	1426.24
754.828	1444.67
755.012	1555.26
755.196	1422.14
755.38	1528.64
755.564	1475.39
755.748	1434.43
755.932	1442.62
756.116	1411.9
756.3	1475.39
756.484	1327.94
756.668	1459.01
756.852	1387.33
757.036	1389.38
757.22	1358.66
757.404	1422.14
757.588	1391.42
757.772	1286.98
757.956	1360.7
758.14	1385.28
758.323	1241.92
758.507	1301.31
758.691	1305.41
758.875	1329.99
759.059	1276.74
759.242	1268.55
759.426	1196.87
759.61	1246.02
759.794	1268.55
759.977	1174.34
760.161	1268.55
760.345	1252.16
760.528	1215.3
760.712	1311.55
760.895	1209.15
761.079	1170.24
761.263	1153.86
761.446	1168.2
761.63	1143.62
761.813	1129.28
761.997	1198.92
762.18	1147.72
762.364	1125.19
762.547	1102.66
762.731	1098.56
762.914	1106.76
763.098	1082.18
763.281	1174.34
763.464	1063.75
763.648	1125.19
763.831	1098.56
764.015	1051.46
764.198	1098.56
764.381	1024.84
764.564	1065.8
764.748	1131.33
764.931	1094.47
765.114	1043.27
765.297	1168.2
765.481	1018.69
765.664	1092.42
765.847	1037.13
766.03	1047.37
766.213	1055.56
766.397	1067.85
766.58	1037.13
766.763	1078.08
766.946	1004.36
767.129	1018.69
767.312	1069.89
767.495	1067.85
767.678	1041.22
767.861	1024.84
768.044	1008.45
768.227	1018.69
768.41	971.59
768.593	1041.22
768.776	947.01
768.959	932.68
769.142	930.63
769.324	1008.45
769.507	1067.85
769.69	1008.45
769.873	924.49
770.056	1047.37
770.239	940.87
770.421	920.39
770.604	1030.98
770.787	1008.45
770.97	953.16
771.152	957.25
771.335	926.54
771.518	949.06
771.7	897.86
771.883	932.68
772.066	914.25
772.248	848.71
772.431	953.16
772.613	856.9
772.796	848.71
772.978	791.37
773.161	932.68
773.343	795.47
773.526	852.81
773.708	820.04
773.891	867.14
774.073	842.57
774.256	914.25
774.438	826.18
774.621	723.79
774.803	897.86
774.985	783.18
775.168	807.75
775.35	723.79
775.532	822.09
775.715	779.08
775.897	770.89
776.079	789.32
776.261	797.51
776.444	783.18
776.626	809.8
776.808	793.42
776.99	760.65
777.173	760.65
777.355	734.03
777.537	736.07
777.719	770.89
777.901	641.87
778.083	750.41
778.265	691.02
778.447	770.89
778.629	697.16
778.811	711.5
778.993	721.74
779.175	670.54
779.357	719.69
779.539	721.74
779.721	617.29
779.903	742.22
780.085	627.53
780.267	617.29
780.449	656.2
780.631	613.2
780.812	588.62
780.994	684.87
781.176	590.67
781.358	580.43
781.54	633.68
781.721	645.96
781.903	613.2
782.085	627.53
782.267	617.29
782.448	590.67
782.63	586.57
782.812	553.8
782.993	619.34
783.175	498.51
783.357	637.77
783.538	570.19
783.72	568.14
783.901	502.61
784.083	553.8
784.264	512.85
784.446	527.18
784.627	592.72
784.809	578.38
784.99	516.94
785.172	574.28
785.353	459.6
785.535	525.13
785.716	492.37
785.897	447.31
786.079	461.65
786.26	471.89
786.441	457.55
786.623	502.61
786.804	447.31
786.985	557.9
787.167	457.55
787.348	447.31
787.529	449.36
787.71	535.37
787.891	498.51
788.073	428.88
788.254	443.21
788.435	439.12
788.616	451.41
788.797	482.13
788.978	418.64
789.159	455.5
789.34	461.65
789.522	426.83
789.703	461.65
789.884	473.93
790.065	480.08
790.246	447.31
790.427	377.68
790.607	467.79
790.788	359.25
790.969	392.02
791.15	353.1
791.331	340.82
791.512	457.55
791.693	306
791.874	344.91
792.054	375.63
792.235	461.65
792.416	392.02
792.597	414.54
792.778	420.69
792.958	383.82
793.139	306
793.32	267.09
793.5	303.95
793.681	402.26
793.862	383.82
794.042	371.54
794.223	336.72
794.404	328.53
794.584	381.78
794.765	367.44
794.945	400.21
795.126	385.87
795.306	267.09
795.487	371.54
795.667	256.85
795.848	375.63
796.028	312.14
796.209	314.19
796.389	406.35
796.57	271.19
796.75	379.73
796.93	400.21
797.111	326.48
797.291	385.87
797.471	349.01
797.652	224.08
797.832	273.23
798.012	435.02
798.192	224.08
798.373	338.77
798.553	293.71
798.733	297.81
798.913	236.37
799.093	219.99
799.274	213.84
799.454	252.75
799.634	316.24
799.814	342.86
799.994	209.75
800.174	330.58
800.354	275.28
800.534	256.85
800.714	322.38
800.894	279.38
801.074	176.98
801.254	254.8
801.434	285.52
801.614	207.7
801.794	279.38
801.974	592.72
802.154	230.23
802.334	273.23
802.514	236.37
802.693	244.56
802.873	238.42
803.053	258.9
803.233	279.38
803.413	273.23
803.592	252.75
803.772	215.89
803.952	205.65
804.131	170.83
804.311	170.83
804.491	187.22
804.67	222.03
804.85	226.13
805.03	269.14
805.209	269.14
805.389	187.22
805.568	205.65
805.748	275.28
805.928	189.27
806.107	277.33
806.287	285.52
806.466	158.55
806.646	164.69
806.825	211.79
807.004	174.93
807.184	236.37
807.363	207.7
807.543	285.52
807.722	219.99
807.901	242.51
808.081	183.12
808.26	148.31
808.439	197.46
808.619	260.95
808.798	172.88
808.977	211.79
809.156	211.79
809.336	138.07
809.515	262.99
809.694	168.79
809.873	230.23
810.052	158.55
810.231	119.64
810.411	262.99
810.59	222.03
810.769	256.85
810.948	303.95
811.127	189.27
811.306	172.88
811.485	193.36
811.664	219.99
811.843	158.55
812.022	166.74
812.201	168.79
812.38	121.68
812.559	142.16
812.737	113.49
812.916	156.5
813.095	111.44
813.274	142.16
813.453	252.75
813.632	140.12
813.811	265.04
813.989	99.16
814.168	203.6
814.347	168.79
814.526	164.69
814.704	183.12
814.883	199.51
815.062	197.46
815.24	232.27
815.419	181.07
815.598	299.86
815.776	203.6
815.955	142.16
816.133	140.12
816.312	136.02
816.49	154.45
816.669	117.59
816.847	74.58
817.026	115.54
817.204	189.27
817.383	183.12
817.561	189.27
817.74	152.4
817.918	197.46
818.097	142.16
818.275	150.36
818.453	111.44
818.632	119.64
818.81	150.36
818.988	113.49
819.167	201.55
819.345	164.69
819.523	131.92
819.701	148.31
819.879	156.5
820.058	197.46
820.236	164.69
820.414	107.35
820.592	138.07
820.77	119.64
820.948	99.16
821.127	66.39
821.305	250.71
821.483	117.59
821.661	158.55
821.839	80.72
822.017	205.65
822.195	140.12
822.373	168.79
822.551	146.26
822.729	162.64
822.907	80.72
823.085	156.5
823.262	150.36
823.44	74.58
823.618	80.72
823.796	119.64
823.974	127.83
824.152	107.35
824.329	152.4
824.507	105.3
824.685	172.88
824.863	107.35
825.04	107.35
825.218	162.64
825.396	125.78
825.574	154.45
825.751	150.36
825.929	158.55
826.107	47.96
826.284	103.25
826.462	86.87
826.639	136.02
826.817	54.1
826.994	140.12
827.172	127.83
827.349	78.68
827.527	138.07
827.704	111.44
827.882	78.68
828.059	162.64
828.237	131.92
828.414	150.36
828.591	152.4
828.769	84.82
828.946	107.35
829.124	217.94
829.301	138.07
829.478	84.82
829.655	15.19
829.833	205.65
830.01	115.54
830.187	74.58
830.364	80.72
830.542	97.11
830.719	41.81
830.896	138.07
831.073	103.25
831.25	95.06
831.427	47.96
831.604	181.07
831.782	-11.43
831.959	68.44
832.136	109.4
832.313	140.12
832.49	41.81
832.667	148.31
832.844	109.4
833.021	152.4
833.198	74.58
833.374	176.98
833.551	2.9
833.728	99.16
833.905	138.07
834.082	-48.3
834.259	88.92
834.436	166.74
834.612	82.77
834.789	45.91
834.966	99.16
835.143	72.53
835.319	107.35
835.496	93.01
835.673	107.35
835.85	60.24
836.026	125.78
836.203	103.25
836.38	74.58
836.556	117.59
836.733	84.82
836.909	43.86
837.086	-23.72
837.262	35.67
837.439	70.48
837.616	50
837.792	43.86
837.968	80.72
838.145	113.49
838.321	105.3
838.498	121.68
838.674	136.02
838.851	56.15
839.027	64.34
839.203	84.82
839.38	86.87
839.556	129.88
839.732	86.87
839.909	82.77
840.085	68.44
840.261	-17.58
840.437	45.91
840.614	86.87
840.79	99.16
840.966	64.34
841.142	133.97
841.318	41.81
841.494	90.96
841.671	109.4
841.847	95.06
842.023	50
842.199	142.16
842.375	70.48
842.551	37.72
842.727	37.72
842.903	109.4
843.079	50
843.255	90.96
843.431	31.57
843.607	52.05
843.783	-29.87
843.959	68.44
844.134	54.1
844.31	15.19
844.486	29.52
844.662	-5.29
844.838	50
845.013	70.48
845.189	84.82
845.365	95.06
845.541	80.72
845.716	41.81
845.892	90.96
846.068	84.82
846.244	-21.67
846.419	80.72
846.595	-21.67
846.77	60.24
846.946	31.57
847.122	11.09
847.297	-31.91
847.473	66.39
847.648	13.14
847.824	103.25
847.999	66.39
848.175	88.92
848.35	84.82
848.526	117.59
848.701	90.96
848.876	68.44
849.052	74.58
849.227	84.82
849.403	101.2
849.578	-38.06
849.753	45.91
849.929	70.48
850.104	39.76
850.279	50
850.454	33.62
850.63	66.39
850.805	31.57
850.98	90.96
851.155	39.76
851.33	17.24
851.505	21.33
851.681	170.83
851.856	4.95
852.031	50
852.206	62.29
852.381	-29.87
852.556	43.86
852.731	25.43
852.906	35.67
853.081	78.68
853.256	17.24
853.431	37.72
853.606	17.24
853.781	97.11
853.956	19.29
854.131	39.76
854.305	4.95
854.48	60.24
854.655	58.2
854.83	9.05
855.005	62.29
855.18	35.67
855.354	52.05
855.529	62.29
855.704	64.34
855.879	84.82
856.053	11.09
856.228	68.44
856.403	-7.34
856.577	21.33
856.752	11.09
856.926	43.86
857.101	33.62
857.276	33.62
857.45	-3.24
857.625	45.91
857.799	95.06
857.974	31.57
858.148	-5.29
858.323	15.19
858.497	27.48
858.672	23.38
858.846	95.06
859.02	99.16
859.195	-17.58
859.369	47.96
859.543	29.52
859.718	72.53
859.892	15.19
860.066	29.52
860.241	-42.15
860.415	45.91
860.589	17.24
860.763	88.92
860.938	66.39
861.112	13.14
861.286	-15.53
861.46	45.91
861.634	29.52
861.808	41.81
861.982	72.53
862.157	54.1
862.331	-1.19
862.505	19.29
862.679	-48.3
862.853	-3.24
863.027	4.95
863.201	-17.58
863.375	0.85
863.549	37.72
863.722	0.85
863.896	86.87
864.07	-9.39
864.244	-19.63
864.418	25.43
864.592	21.33
864.766	37.72
864.939	62.29
865.113	-48.3
865.287	7
865.461	-33.96
865.634	17.24
865.808	-11.43
865.982	52.05
866.156	37.72
866.329	-11.43
866.503	45.91
866.676	35.67
866.85	-44.2
867.024	21.33
867.197	35.67
867.371	-13.48
867.544	64.34
867.718	-9.39
867.891	29.52
868.065	35.67
868.238	17.24
868.412	109.4
868.585	-29.87
868.759	-25.77
868.932	-23.72
869.105	25.43
869.279	-15.53
869.452	21.33
869.625	23.38
869.799	31.57
869.972	25.43
870.145	-15.53
870.319	84.82
870.492	-42.15
870.665	25.43
870.838	47.96
871.011	35.67
871.185	2.9
871.358	-23.72
871.531	-31.91
871.704	54.1
871.877	103.25
872.05	31.57
872.223	-23.72
872.396	19.29
872.569	31.57
872.742	-23.72
872.915	74.58
873.088	-38.06
873.261	-7.34
873.434	9.05
873.607	43.86
873.78	25.43
873.953	23.38
874.126	41.81
874.299	19.29
874.471	45.91
874.644	11.09
874.817	35.67
874.99	56.15
875.163	23.38
875.335	-3.24
875.508	0.85
875.681	25.43
875.853	2.9
876.026	33.62
876.199	35.67
876.371	23.38
876.544	95.06
876.717	13.14
876.889	-15.53
877.062	113.49
877.234	13.14
877.407	33.62
877.579	58.2
877.752	25.43
877.924	58.2
878.097	0.85
878.269	-25.77
878.442	21.33
878.614	76.63
878.786	97.11
878.959	31.57
879.131	7
879.303	4.95
879.476	43.86
879.648	21.33
879.82	37.72
879.993	43.86
880.165	-21.67
880.337	-60.59
880.509	72.53
880.681	-38.06
880.854	25.43
881.026	80.72
881.198	74.58
881.37	-15.53
881.542	72.53
881.714	-15.53
881.886	47.96
882.058	54.1
882.23	33.62
882.402	66.39
882.574	33.62
882.746	70.48
882.918	58.2
883.09	-3.24
883.262	50
883.434	39.76
883.606	-64.68
883.778	-5.29
883.95	33.62
884.122	60.24
884.293	119.64
884.465	47.96
884.637	56.15
884.809	-7.34
884.98	43.86
885.152	-31.91
885.324	2.9
885.496	41.81
885.667	-23.72
885.839	-3.24
886.011	33.62
886.182	-5.29
886.354	-5.29
886.525	105.3
886.697	7
886.869	25.43
887.04	62.29
887.212	23.38
887.383	107.35
887.555	54.1
887.726	-15.53
887.897	-21.67
888.069	15.19
888.24	52.05
888.412	17.24
888.583	-3.24
888.754	-17.58
888.926	2.9
889.097	11.09
889.268	-19.63
889.44	9.05
889.611	70.48
889.782	13.14
889.953	17.24
890.125	25.43
890.296	45.91
890.467	-17.58
890.638	76.63
890.809	41.81
890.98	7
891.151	9.05
891.323	68.44
891.494	39.76
891.665	0.85
891.836	97.11
892.007	62.29
892.178	33.62
892.349	9.05
892.52	-33.96
892.691	2.9
892.862	21.33
893.032	-1.19
893.203	-17.58
893.374	11.09
893.545	35.67
893.716	-15.53
893.887	13.14
894.057	78.68
894.228	31.57
894.399	-101.55
894.57	43.86
894.74	27.48
894.911	56.15
895.082	-13.48
895.253	-62.63
895.423	33.62
895.594	76.63
895.764	70.48
895.935	33.62
896.106	37.72
896.276	45.91
896.447	-7.34
896.617	47.96
896.788	37.72
896.958	-25.77
897.129	-3.24
897.299	7
897.47	88.92
897.64	4.95
897.81	54.1
897.981	37.72
898.151	29.52
898.322	70.48
898.492	25.43
898.662	41.81
898.832	-29.87
899.003	41.81
899.173	43.86
899.343	-29.87
899.513	43.86
