Data from USB4F104151__77__12-36-50-473.txt Node

Date: Fri Mar 14 12:36:50 EDT 2025
User: louis
Spectrometer: USB4F10415
Trigger mode: 4
Integration Time (sec): 2.000000E-2
Scans to average: 1
Electric dark correction enabled: true
Nonlinearity correction enabled: false
Boxcar width: 0
XAxis mode: Wavelengths
Number of Pixels in Spectrum: 3648
>>>>>Begin Spectral Data<<<<<
178.204	-123.9
178.424	-123.9
178.644	-123.9
178.864	-101.37
179.084	-93.18
179.304	58.37
179.524	-13.31
179.744	-66.56
179.964	50.18
180.184	-17.41
180.404	41.98
180.624	17.41
180.844	7.17
181.064	-95.23
181.283	25.6
181.503	44.03
181.723	-52.22
181.943	-33.79
182.163	-17.41
182.383	13.31
182.602	148.48
182.822	54.27
183.042	7.17
183.262	7.17
183.482	-9.22
183.701	3.07
183.921	66.56
184.141	-46.08
184.361	-19.46
184.58	17.41
184.8	68.61
185.02	21.5
185.239	99.33
185.459	54.27
185.679	68.61
185.898	56.32
186.118	99.33
186.338	27.65
186.557	89.09
186.777	9.22
186.997	58.37
187.216	-19.46
187.436	46.08
187.655	11.26
187.875	9.22
188.095	15.36
188.314	3.07
188.534	13.31
188.753	72.7
188.973	66.56
189.192	7.17
189.412	-5.12
189.631	72.7
189.851	89.09
190.07	76.8
190.29	-13.31
190.509	78.85
190.729	-9.22
190.948	13.31
191.168	97.28
191.387	58.37
191.607	5.12
191.826	91.13
192.045	3.07
192.265	25.6
192.484	-5.12
192.704	58.37
192.923	13.31
193.142	74.75
193.362	-21.5
193.581	76.8
193.8	9.22
194.02	37.89
194.239	-7.17
194.458	125.95
194.678	-17.41
194.897	33.79
195.116	-9.22
195.335	37.89
195.555	72.7
195.774	-1.02
195.993	80.89
196.212	31.74
196.432	-7.17
196.651	25.6
196.87	-39.94
197.089	37.89
197.308	44.03
197.528	52.22
197.747	-78.85
197.966	21.5
198.185	33.79
198.404	87.04
198.623	48.13
198.842	19.46
199.062	68.61
199.281	25.6
199.5	82.94
199.719	-39.94
199.938	70.65
200.157	3.07
200.376	44.03
200.595	66.56
200.814	62.46
201.033	105.47
201.252	-5.12
201.471	78.85
201.69	91.13
201.909	-9.22
202.128	50.18
202.347	21.5
202.566	91.13
202.785	60.42
203.004	-27.65
203.223	1.02
203.442	44.03
203.661	37.89
203.879	50.18
204.098	62.46
204.317	-23.55
204.536	74.75
204.755	23.55
204.974	19.46
205.193	111.61
205.411	101.37
205.63	-3.07
205.849	41.98
206.068	33.79
206.287	64.51
206.505	64.51
206.724	-29.7
206.943	5.12
207.162	19.46
207.381	95.23
207.599	37.89
207.818	5.12
208.037	29.7
208.255	35.84
208.474	48.13
208.693	-99.33
208.911	-13.31
209.13	56.32
209.349	-11.26
209.567	-1.02
209.786	91.13
210.005	37.89
210.223	46.08
210.442	37.89
210.661	1.02
210.879	-15.36
211.098	13.31
211.316	-7.17
211.535	-29.7
211.753	-13.31
211.972	25.6
212.191	29.7
212.409	62.46
212.628	-1.02
212.846	72.7
213.065	46.08
213.283	-5.12
213.502	-5.12
213.72	44.03
213.938	60.42
214.157	1.02
214.375	64.51
214.594	-3.07
214.812	-19.46
215.031	44.03
215.249	89.09
215.467	50.18
215.686	89.09
215.904	21.5
216.122	58.37
216.341	72.7
216.559	62.46
216.778	33.79
216.996	35.84
217.214	33.79
217.432	-52.22
217.651	35.84
217.869	25.6
218.087	60.42
218.306	-9.22
218.524	109.57
218.742	33.79
218.96	56.32
219.179	39.94
219.397	-11.26
219.615	25.6
219.833	29.7
220.051	48.13
220.27	23.55
220.488	5.12
220.706	13.31
220.924	-39.94
221.142	-21.5
221.36	21.5
221.578	60.42
221.796	-3.07
222.015	41.98
222.233	39.94
222.451	107.52
222.669	3.07
222.887	31.74
223.105	-9.22
223.323	19.46
223.541	-39.94
223.759	64.51
223.977	15.36
224.195	54.27
224.413	58.37
224.631	-13.31
224.849	101.37
225.067	103.42
225.285	66.56
225.503	76.8
225.721	-1.02
225.939	1.02
226.157	31.74
226.375	107.52
226.592	21.5
226.81	-44.03
227.028	111.61
227.246	74.75
227.464	21.5
227.682	95.23
227.9	-56.32
228.117	11.26
228.335	97.28
228.553	87.04
228.771	23.55
228.989	64.51
229.206	27.65
229.424	72.7
229.642	41.98
229.86	48.13
230.077	27.65
230.295	52.22
230.513	84.99
230.731	50.18
230.948	66.56
231.166	70.65
231.384	56.32
231.601	25.6
231.819	84.99
232.037	-25.6
232.254	-54.27
232.472	11.26
232.689	-9.22
232.907	-19.46
233.125	-3.07
233.342	66.56
233.56	25.6
233.777	27.65
233.995	37.89
234.213	-15.36
234.43	-11.26
234.648	33.79
234.865	37.89
235.083	103.42
235.3	9.22
235.518	52.22
235.735	84.99
235.953	82.94
236.17	23.55
236.388	9.22
236.605	27.65
236.822	52.22
237.04	25.6
237.257	62.46
237.475	-29.7
237.692	44.03
237.909	74.75
238.127	29.7
238.344	48.13
238.562	72.7
238.779	101.37
238.996	11.26
239.214	3.07
239.431	121.85
239.648	19.46
239.865	25.6
240.083	50.18
240.3	27.65
240.517	17.41
240.735	39.94
240.952	93.18
241.169	99.33
241.386	37.89
241.603	19.46
241.821	-39.94
242.038	39.94
242.255	-5.12
242.472	33.79
242.689	27.65
242.907	-37.89
243.124	70.65
243.341	60.42
243.558	31.74
243.775	25.6
243.992	58.37
244.209	50.18
244.426	-21.5
244.643	54.27
244.86	19.46
245.078	89.09
245.295	-21.5
245.512	5.12
245.729	62.46
245.946	37.89
246.163	56.32
246.38	74.75
246.597	-1.02
246.814	-1.02
247.031	-5.12
247.248	41.98
247.464	72.7
247.681	35.84
247.898	56.32
248.115	-1.02
248.332	-52.22
248.549	111.61
248.766	62.46
248.983	156.67
249.2	15.36
249.417	35.84
249.633	48.13
249.85	95.23
250.067	9.22
250.284	37.89
250.501	25.6
250.717	87.04
250.934	-3.07
251.151	60.42
251.368	91.13
251.585	66.56
251.801	80.89
252.018	82.94
252.235	74.75
252.451	60.42
252.668	13.31
252.885	56.32
253.102	-13.31
253.318	9.22
253.535	52.22
253.752	50.18
253.968	82.94
254.185	11.26
254.401	39.94
254.618	-41.98
254.835	56.32
255.051	46.08
255.268	46.08
255.484	29.7
255.701	60.42
255.917	-29.7
256.134	56.32
256.351	52.22
256.567	64.51
256.784	54.27
257	-7.17
257.217	15.36
257.433	130.05
257.65	74.75
257.866	11.26
258.082	27.65
258.299	-39.94
258.515	54.27
258.732	46.08
258.948	5.12
259.165	-68.61
259.381	25.6
259.597	58.37
259.814	13.31
260.03	89.09
260.246	46.08
260.463	58.37
260.679	64.51
260.895	35.84
261.112	68.61
261.328	11.26
261.544	46.08
261.761	68.61
261.977	52.22
262.193	25.6
262.409	125.95
262.626	-54.27
262.842	70.65
263.058	11.26
263.274	52.22
263.49	93.18
263.707	21.5
263.923	7.17
264.139	29.7
264.355	-70.65
264.571	13.31
264.787	111.61
265.004	80.89
265.22	54.27
265.436	9.22
265.652	9.22
265.868	11.26
266.084	72.7
266.3	44.03
266.516	70.65
266.732	17.41
266.948	-76.8
267.164	72.7
267.38	80.89
267.596	-41.98
267.812	-3.07
268.028	31.74
268.244	60.42
268.46	23.55
268.676	-52.22
268.892	7.17
269.108	-48.13
269.324	21.5
269.54	3.07
269.756	5.12
269.972	48.13
270.188	-19.46
270.403	25.6
270.619	37.89
270.835	27.65
271.051	-27.65
271.267	15.36
271.483	70.65
271.698	93.18
271.914	44.03
272.13	66.56
272.346	68.61
272.562	-13.31
272.777	54.27
272.993	5.12
273.209	80.89
273.425	58.37
273.64	111.61
273.856	44.03
274.072	64.51
274.287	-9.22
274.503	27.65
274.719	-9.22
274.934	76.8
275.15	1.02
275.366	93.18
275.581	35.84
275.797	29.7
276.012	56.32
276.228	-35.84
276.444	31.74
276.659	99.33
276.875	-27.65
277.09	-31.74
277.306	1.02
277.521	46.08
277.737	11.26
277.952	41.98
278.168	72.7
278.383	-70.65
278.599	-17.41
278.814	80.89
279.03	80.89
279.245	89.09
279.461	37.89
279.676	89.09
279.892	78.85
280.107	58.37
280.322	44.03
280.538	76.8
280.753	7.17
280.969	29.7
281.184	52.22
281.399	64.51
281.615	3.07
281.83	76.8
282.045	7.17
282.26	3.07
282.476	9.22
282.691	78.85
282.906	-54.27
283.122	109.57
283.337	9.22
283.552	23.55
283.767	82.94
283.983	27.65
284.198	-11.26
284.413	60.42
284.628	17.41
284.843	-5.12
285.058	54.27
285.274	-13.31
285.489	-5.12
285.704	37.89
285.919	62.46
286.134	3.07
286.349	44.03
286.564	46.08
286.779	89.09
286.995	15.36
287.21	19.46
287.425	-13.31
287.64	-35.84
287.855	-3.07
288.07	-19.46
288.285	76.8
288.5	107.52
288.715	72.7
288.93	-33.79
289.145	64.51
289.36	109.57
289.575	66.56
289.79	82.94
290.004	62.46
290.219	19.46
290.434	17.41
290.649	68.61
290.864	23.55
291.079	113.66
291.294	48.13
291.509	19.46
291.724	91.13
291.938	37.89
292.153	19.46
292.368	52.22
292.583	27.65
292.798	48.13
293.012	11.26
293.227	46.08
293.442	52.22
293.657	46.08
293.871	35.84
294.086	-3.07
294.301	35.84
294.516	50.18
294.73	15.36
294.945	-3.07
295.16	89.09
295.374	107.52
295.589	70.65
295.804	-1.02
296.018	-5.12
296.233	87.04
296.447	21.5
296.662	33.79
296.877	37.89
297.091	60.42
297.306	11.26
297.52	29.7
297.735	72.7
297.949	70.65
298.164	13.31
298.378	-17.41
298.593	82.94
298.807	-21.5
299.022	74.75
299.236	31.74
299.451	13.31
299.665	27.65
299.88	50.18
300.094	3.07
300.309	66.56
300.523	-1.02
300.737	89.09
300.952	21.5
301.166	72.7
301.381	39.94
301.595	-19.46
301.809	3.07
302.024	33.79
302.238	44.03
302.452	125.95
302.667	60.42
302.881	25.6
303.095	103.42
303.309	17.41
303.524	44.03
303.738	21.5
303.952	15.36
304.166	56.32
304.381	7.17
304.595	7.17
304.809	23.55
305.023	37.89
305.237	37.89
305.452	13.31
305.666	82.94
305.88	87.04
306.094	113.66
306.308	105.47
306.522	17.41
306.736	70.65
306.95	76.8
307.164	13.31
307.379	25.6
307.593	44.03
307.807	66.56
308.021	66.56
308.235	48.13
308.449	60.42
308.663	70.65
308.877	54.27
309.091	-3.07
309.305	21.5
309.519	76.8
309.733	-17.41
309.947	-5.12
310.161	46.08
310.374	87.04
310.588	82.94
310.802	17.41
311.016	54.27
311.23	35.84
311.444	5.12
311.658	1.02
311.872	93.18
312.085	91.13
312.299	9.22
312.513	105.47
312.727	103.42
312.941	44.03
313.154	56.32
313.368	54.27
313.582	113.66
313.796	35.84
314.009	11.26
314.223	31.74
314.437	84.99
314.651	5.12
314.864	80.89
315.078	35.84
315.292	48.13
315.505	37.89
315.719	119.81
315.933	95.23
316.146	95.23
316.36	101.37
316.573	99.33
316.787	7.17
317.001	117.76
317.214	54.27
317.428	-7.17
317.641	13.31
317.855	103.42
318.068	62.46
318.282	19.46
318.495	109.57
318.709	23.55
318.922	99.33
319.136	-7.17
319.349	17.41
319.563	-31.74
319.776	37.89
319.99	-5.12
320.203	56.32
320.417	17.41
320.63	9.22
320.843	76.8
321.057	-21.5
321.27	3.07
321.483	78.85
321.697	74.75
321.91	80.89
322.124	-7.17
322.337	52.22
322.55	50.18
322.763	72.7
322.977	31.74
323.19	35.84
323.403	56.32
323.617	17.41
323.83	25.6
324.043	54.27
324.256	25.6
324.469	9.22
324.683	103.42
324.896	17.41
325.109	19.46
325.322	107.52
325.535	13.31
325.748	76.8
325.962	46.08
326.175	78.85
326.388	11.26
326.601	54.27
326.814	84.99
327.027	3.07
327.24	72.7
327.453	74.75
327.666	35.84
327.879	21.5
328.092	72.7
328.305	84.99
328.518	46.08
328.731	-9.22
328.944	132.09
329.157	48.13
329.37	37.89
329.583	74.75
329.796	39.94
330.009	9.22
330.222	46.08
330.435	-15.36
330.648	109.57
330.861	27.65
331.073	117.76
331.286	33.79
331.499	60.42
331.712	21.5
331.925	39.94
332.138	9.22
332.35	148.48
332.563	7.17
332.776	62.46
332.989	54.27
333.202	64.51
333.414	91.13
333.627	-17.41
333.84	95.23
334.053	56.32
334.265	72.7
334.478	-19.46
334.691	50.18
334.903	3.07
335.116	17.41
335.329	103.42
335.541	37.89
335.754	144.38
335.966	50.18
336.179	46.08
336.392	33.79
336.604	15.36
336.817	150.53
337.029	82.94
337.242	52.22
337.454	78.85
337.667	60.42
337.88	97.28
338.092	111.61
338.305	140.29
338.517	-19.46
338.729	91.13
338.942	95.23
339.154	80.89
339.367	-35.84
339.579	33.79
339.792	5.12
340.004	23.55
340.217	150.53
340.429	13.31
340.641	31.74
340.854	52.22
341.066	29.7
341.278	107.52
341.491	121.85
341.703	64.51
341.915	93.18
342.128	29.7
342.34	23.55
342.552	27.65
342.764	-3.07
342.977	27.65
343.189	60.42
343.401	-5.12
343.613	58.37
343.826	25.6
344.038	1.02
344.25	76.8
344.462	25.6
344.674	50.18
344.886	74.75
345.099	84.99
345.311	107.52
345.523	78.85
345.735	58.37
345.947	-1.02
346.159	60.42
346.371	23.55
346.583	23.55
346.795	107.52
347.007	62.46
347.219	84.99
347.431	89.09
347.643	46.08
347.855	101.37
348.067	121.85
348.279	66.56
348.491	27.65
348.703	-7.17
348.915	68.61
349.127	70.65
349.339	97.28
349.551	13.31
349.763	101.37
349.975	-21.5
350.187	78.85
350.399	64.51
350.61	101.37
350.822	9.22
351.034	25.6
351.246	72.7
351.458	105.47
351.669	68.61
351.881	95.23
352.093	82.94
352.305	7.17
352.517	76.8
352.728	11.26
352.94	70.65
353.152	64.51
353.363	56.32
353.575	95.23
353.787	95.23
353.999	70.65
354.21	74.75
354.422	48.13
354.633	-31.74
354.845	125.95
355.057	21.5
355.268	1.02
355.48	35.84
355.692	33.79
355.903	56.32
356.115	80.89
356.326	46.08
356.538	84.99
356.749	80.89
356.961	74.75
357.172	62.46
357.384	-33.79
357.595	125.95
357.807	64.51
358.018	76.8
358.23	99.33
358.441	64.51
358.653	52.22
358.864	25.6
359.075	19.46
359.287	74.75
359.498	23.55
359.709	91.13
359.921	-15.36
360.132	-9.22
360.344	109.57
360.555	41.98
360.766	95.23
360.977	-15.36
361.189	68.61
361.4	58.37
361.611	76.8
361.823	68.61
362.034	82.94
362.245	27.65
362.456	31.74
362.667	50.18
362.879	44.03
363.09	21.5
363.301	64.51
363.512	44.03
363.723	13.31
363.935	109.57
364.146	52.22
364.357	27.65
364.568	95.23
364.779	-48.13
364.99	62.46
365.201	48.13
365.412	27.65
365.623	87.04
365.834	39.94
366.045	3.07
366.256	95.23
366.467	58.37
366.678	66.56
366.889	58.37
367.1	33.79
367.311	52.22
367.522	41.98
367.733	56.32
367.944	39.94
368.155	80.89
368.366	119.81
368.577	62.46
368.788	91.13
368.999	-25.6
369.209	-7.17
369.42	78.85
369.631	80.89
369.842	121.85
370.053	95.23
370.264	23.55
370.474	95.23
370.685	29.7
370.896	66.56
371.107	105.47
371.317	68.61
371.528	44.03
371.739	66.56
371.95	35.84
372.16	109.57
372.371	44.03
372.582	62.46
372.792	103.42
373.003	44.03
373.214	37.89
373.424	138.24
373.635	-19.46
373.846	56.32
374.056	46.08
374.267	19.46
374.477	121.85
374.688	35.84
374.898	44.03
375.109	99.33
375.319	70.65
375.53	130.05
375.74	52.22
375.951	46.08
376.161	52.22
376.372	52.22
376.582	37.89
376.793	19.46
377.003	-1.02
377.214	121.85
377.424	29.7
377.635	52.22
377.845	50.18
378.055	46.08
378.266	27.65
378.476	62.46
378.686	70.65
378.897	101.37
379.107	72.7
379.317	107.52
379.528	62.46
379.738	91.13
379.948	21.5
380.158	93.18
380.369	56.32
380.579	54.27
380.789	148.48
380.999	144.38
381.21	121.85
381.42	113.66
381.63	99.33
381.84	95.23
382.05	82.94
382.261	78.85
382.471	97.28
382.681	87.04
382.891	89.09
383.101	46.08
383.311	11.26
383.521	23.55
383.731	93.18
383.941	37.89
384.151	93.18
384.361	23.55
384.571	72.7
384.781	111.61
384.991	58.37
385.201	68.61
385.411	50.18
385.621	46.08
385.831	140.29
386.041	99.33
386.251	-1.02
386.461	41.98
386.671	54.27
386.881	119.81
387.091	56.32
387.301	99.33
387.511	150.53
387.72	56.32
387.93	74.75
388.14	41.98
388.35	105.47
388.56	87.04
388.769	160.77
388.979	91.13
389.189	11.26
389.399	66.56
389.609	78.85
389.818	76.8
390.028	109.57
390.238	48.13
390.447	76.8
390.657	97.28
390.867	44.03
391.076	72.7
391.286	70.65
391.496	39.94
391.705	134.14
391.915	117.76
392.125	68.61
392.334	128
392.544	132.09
392.753	80.89
392.963	52.22
393.172	37.89
393.382	33.79
393.591	123.9
393.801	80.89
394.01	74.75
394.22	123.9
394.429	130.05
394.639	111.61
394.848	99.33
395.058	132.09
395.267	173.05
395.477	111.61
395.686	132.09
395.895	177.15
396.105	154.62
396.314	80.89
396.524	113.66
396.733	115.71
396.942	160.77
397.152	128
397.361	162.81
397.57	89.09
397.78	93.18
397.989	113.66
398.198	132.09
398.407	132.09
398.617	173.05
398.826	103.42
399.035	142.33
399.244	109.57
399.453	93.18
399.663	179.2
399.872	158.72
400.081	93.18
400.29	177.15
400.499	134.14
400.708	107.52
400.917	123.9
401.127	134.14
401.336	144.38
401.545	197.63
401.754	138.24
401.963	187.39
402.172	142.33
402.381	107.52
402.59	150.53
402.799	185.34
403.008	216.06
403.217	175.1
403.426	150.53
403.635	152.57
403.844	115.71
404.053	109.57
404.262	138.24
404.471	224.25
404.68	234.49
404.888	168.96
405.097	185.34
405.306	261.12
405.515	179.2
405.724	197.63
405.933	150.53
406.142	279.55
406.35	254.97
406.559	234.49
406.768	230.4
406.977	293.88
407.185	289.79
407.394	324.6
407.603	222.2
407.812	310.27
408.02	365.56
408.229	349.18
408.438	291.84
408.646	267.26
408.855	291.84
409.064	281.6
409.272	336.89
409.481	381.95
409.69	351.23
409.898	359.42
410.107	418.81
410.315	455.67
410.524	437.24
410.733	504.82
410.941	371.71
411.15	478.2
411.358	478.2
411.567	543.74
411.775	506.87
411.984	453.63
412.192	590.84
412.401	594.93
412.609	551.93
412.818	529.4
413.026	613.37
413.234	687.09
413.443	695.29
413.651	693.24
413.86	715.77
414.068	779.25
414.276	807.92
414.485	707.57
414.693	865.27
414.901	816.12
415.11	842.74
415.318	855.03
415.526	912.37
415.734	959.47
415.943	998.38
416.151	1059.82
416.359	1147.89
416.567	1035.25
416.776	1051.63
416.984	1164.27
417.192	1235.95
417.4	1272.81
417.608	1188.85
417.817	1274.86
418.025	1401.83
418.233	1473.51
418.441	1444.84
418.649	1510.38
418.857	1547.24
419.065	1616.87
419.273	1713.13
419.481	1737.7
419.689	1776.61
419.897	1838.05
420.105	2005.99
420.313	1938.4
420.521	1946.59
420.729	2116.58
420.937	2028.51
421.145	2227.17
421.353	2302.94
421.561	2364.38
421.769	2440.15
421.977	2671.58
422.185	2589.66
422.393	2708.44
422.601	2882.52
422.809	2874.32
423.017	3034.07
423.224	2997.2
423.432	3146.7
423.64	3032.02
423.848	3388.36
424.056	3355.6
424.263	3693.51
424.471	3707.85
424.679	3673.03
424.887	3986.37
425.094	4000.71
425.302	3988.42
425.51	4066.24
425.718	4219.84
425.925	4381.63
426.133	4305.85
426.341	4776.89
426.548	4780.98
426.756	5075.89
426.964	5082.03
427.171	5252.02
427.379	5467.05
427.586	5655.47
427.794	5704.62
428.001	6054.82
428.209	6237.09
428.417	6132.64
428.624	6693.79
428.832	6771.61
429.039	6523.8
429.247	6488.99
429.454	7338.9
429.662	7596.94
429.869	7289.74
430.076	7664.52
430.284	7449.49
430.491	7893.9
430.699	8319.87
430.906	8168.32
431.114	8082.31
431.321	8612.73
431.528	8737.66
431.736	9345.91
431.943	9728.88
432.15	9444.21
432.358	9692.01
432.565	10283.88
432.772	10072.93
432.979	10535.78
433.187	10773.34
433.394	10965.85
433.601	11613.01
433.808	11590.48
434.016	11559.76
434.223	12067.66
434.43	12702.53
434.637	12636.99
434.844	13136.7
435.052	13593.39
435.259	13507.38
435.466	13497.14
435.673	13718.32
435.88	14258.98
436.087	15035.16
436.294	15305.49
436.501	14805.79
436.708	15289.11
436.915	15495.96
437.122	16278.28
437.329	16347.91
437.537	16884.48
437.743	16833.28
437.95	16925.44
438.157	18123.5
438.364	18273
438.571	18365.16
438.778	18440.93
438.985	20107.98
439.192	19514.07
439.399	20105.93
439.606	19634.9
439.813	20845.25
440.02	22090.41
440.227	21584.57
440.433	21566.13
440.64	22026.93
440.847	22143.66
441.054	22588.07
441.261	24173.2
441.467	23491.23
441.674	24253.07
441.881	25078.4
442.088	25029.25
442.294	24783.49
442.501	25768.57
442.708	26092.15
442.914	27380.32
443.121	28363.34
443.328	27251.3
443.534	29284.93
443.741	28494.41
443.948	28136.02
444.154	30030.39
444.361	29954.61
444.568	30161.46
444.774	30085.68
444.981	30644.78
445.187	31625.76
445.394	32782.86
445.6	32248.34
445.807	35553.76
446.013	33954.3
446.22	34632.18
446.426	36159.96
446.633	36035.03
446.839	37560.77
447.046	35856.86
447.252	38027.71
447.459	37892.54
447.665	37640.64
447.871	39481.77
448.078	41466.25
448.284	39498.15
448.491	40366.49
448.697	41951.62
448.903	42420.6
449.11	42797.43
449.316	42479.99
449.522	43094.38
449.728	44138.85
449.935	44380.51
450.141	44525.91
450.347	45291.85
450.553	44095.84
450.76	44134.75
450.966	46098.75
451.172	45433.16
451.378	46772.53
451.584	45594.95
451.791	46592.31
451.997	46909.75
452.203	47208.75
452.409	47491.37
452.615	47348.01
452.821	45322.57
453.027	45424.97
453.233	47511.85
453.44	45666.63
453.646	45922.63
453.852	46205.25
454.058	46887.22
454.264	45781.32
454.47	46846.26
454.676	45627.72
454.882	47145.26
455.088	42735.99
455.294	43667.81
455.5	44685.65
455.705	44712.28
455.911	43202.92
456.117	42228.09
456.323	41576.84
456.529	39639.46
456.735	41478.54
456.941	40053.15
457.147	39737.76
457.352	38379.96
457.558	38269.37
457.764	37865.92
457.97	37073.35
458.176	36676.05
458.381	36714.96
458.587	34572.78
458.793	34701.81
458.999	32756.24
459.204	35193.32
459.41	34669.04
459.616	32119.32
459.821	32289.3
460.027	32068.12
460.233	31304.23
460.438	29930.04
460.644	30106.16
460.85	28717.64
461.055	28566.09
461.261	28531.28
461.466	26086
461.672	25453.18
461.878	26962.53
462.083	25414.27
462.289	24933
462.494	24595.08
462.7	23368.35
462.905	23165.6
463.111	23650.97
463.316	23915.16
463.522	23476.89
463.727	23558.81
463.932	23466.65
464.138	23108.26
464.343	23153.31
464.549	22334.12
464.754	23343.77
464.959	23050.91
465.165	22932.13
465.37	21719.73
465.575	21369.53
465.781	22188.72
465.986	22432.43
466.191	21578.42
466.397	21222.08
466.602	20015.82
466.807	21066.43
467.012	21150.4
467.218	20808.39
467.423	20566.73
467.628	20597.45
467.833	21459.64
468.038	20603.59
468.244	20228.81
468.449	20945.6
468.654	20028.11
468.859	20036.3
469.064	19952.34
469.269	19225.31
469.474	19651.28
469.679	19655.38
469.885	19311.32
470.09	19620.56
470.295	19266.27
470.5	18795.23
470.705	18981.6
470.91	18565.86
471.115	18383.59
471.32	18760.42
471.525	18397.93
471.73	18033.39
471.935	18139.88
472.139	17253.11
472.344	17695.47
472.549	17443.57
472.754	17347.32
472.959	17199.87
473.164	16671.49
473.369	16509.7
473.574	16907.01
473.778	17029.88
473.983	16902.91
474.188	16597.76
474.393	15889.17
474.598	16177.93
474.802	15741.71
475.007	15665.94
475.212	15659.79
475.417	15311.64
475.621	15129.37
475.826	15278.87
476.031	14850.85
476.235	14453.54
476.44	14785.31
476.645	14662.43
476.849	14545.7
477.054	14367.52
477.259	14107.43
477.463	14226.21
477.668	13738.8
477.872	14005.03
478.077	13552.43
478.282	13472.56
478.486	13431.6
478.691	13138.74
478.895	13235
479.1	13173.56
479.304	13114.17
479.509	12725.05
479.713	13079.35
479.918	12600.13
480.122	12634.94
480.326	12862.27
480.531	12751.68
480.735	12657.47
480.94	12540.74
481.144	12620.61
481.348	11907.91
481.553	12321.6
481.757	12165.96
481.961	12272.45
482.166	12266.31
482.37	12305.22
482.574	12165.96
482.778	12137.29
482.983	12192.58
483.187	11938.63
483.391	12292.93
483.595	12137.29
483.8	12131.14
484.004	12241.73
484.208	12143.43
484.412	12172.1
484.616	12100.42
484.821	12202.82
485.025	11934.54
485.229	12202.82
485.433	12077.9
485.637	11907.91
485.841	11924.3
486.045	12200.77
486.249	12165.96
486.453	11971.4
486.657	12133.19
486.861	12327.75
487.065	11776.84
487.269	12161.86
487.473	11899.72
487.677	12086.09
487.881	12057.42
488.085	11967.31
488.289	11893.58
488.493	12049.22
488.697	12344.13
488.901	12165.96
489.105	11995.98
489.309	12276.55
489.512	12440.39
489.716	11979.59
489.92	11985.74
490.124	12268.36
490.328	12514.11
490.531	12331.84
490.735	12356.42
490.939	12315.46
491.143	12399.43
491.346	12381
491.55	12624.7
491.754	12548.93
491.958	12608.32
492.161	12581.7
492.365	12716.86
492.569	12755.77
492.772	12755.77
492.976	12899.13
493.18	12991.29
493.383	13101.88
493.587	13017.91
493.79	13562.67
493.994	12938.04
494.197	13177.65
494.401	13220.66
494.605	13447.99
494.808	13644.59
495.012	13566.77
495.215	13601.58
495.419	13908.78
495.622	13833
495.825	13853.48
496.029	14037.8
496.232	14271.27
496.436	14289.7
496.639	14463.78
496.843	14404.39
497.046	14826.27
497.249	15174.42
497.453	15012.63
497.656	15174.42
497.859	15256.34
498.063	15407.89
498.266	15647.51
498.469	15446.8
498.673	15772.43
498.876	16059.15
499.079	15926.03
499.282	15811.34
499.485	16286.47
499.689	16653.06
499.892	16716.54
500.095	16829.18
500.298	17271.54
500.501	17101.56
500.705	17502.96
500.908	17914.61
501.111	17859.31
501.314	17980.14
501.517	18303.72
501.72	18551.52
501.923	18385.64
502.126	18871.01
502.329	18995.93
502.532	19282.65
502.735	19352.28
502.938	19694.29
503.141	19716.82
503.344	19821.27
503.547	20064.97
503.75	20380.36
503.953	20669.12
504.156	21121.73
504.359	21045.95
504.562	21293.76
504.765	21858.99
504.968	21856.95
505.17	22102.7
505.373	22250.16
505.576	22362.79
505.779	22534.82
505.982	23014.05
506.185	23085.73
506.387	23259.81
506.59	23452.31
506.793	23968.4
506.996	24007.31
507.198	24683.14
507.401	24429.2
507.604	24832.65
507.807	25176.7
508.009	25207.42
508.212	25789.05
508.415	25746.04
508.617	26149.49
508.82	26546.79
509.022	26280.56
509.225	26821.22
509.428	27208.29
509.63	27318.88
509.833	27329.12
510.035	27951.7
510.238	28084.82
510.44	28310.1
510.643	28701.26
510.845	28734.03
511.048	28535.37
511.25	29168.19
511.453	29477.44
511.655	30868.01
511.858	30319.15
512.06	30435.89
512.262	30882.34
512.465	30542.38
512.667	31154.72
512.87	31734.3
513.072	31605.28
513.274	32713.23
513.477	32430.61
513.679	32778.76
513.881	33262.08
514.084	33432.07
514.286	33466.88
514.488	33751.55
514.69	34970.09
514.893	35138.02
515.095	34853.36
515.297	35256.81
515.499	35310.05
515.701	35910.11
515.904	36149.72
516.106	36411.86
516.308	36596.18
516.51	37116.36
516.712	37224.9
516.914	37661.12
517.116	38201.79
517.318	38181.31
517.52	38369.72
517.722	38687.15
517.925	39305.64
518.127	39627.17
518.329	39680.42
518.531	39358.89
518.733	40624.53
518.935	40499.61
519.136	40862.1
519.338	41259.4
519.54	41408.9
519.742	41826.69
519.944	41933.18
520.146	42887.54
520.348	42846.58
520.55	43110.77
520.752	42889.59
520.954	44083.55
521.155	43735.4
521.357	44517.72
521.559	44685.65
521.761	45246.8
521.963	45158.73
522.164	45764.93
522.366	45713.73
522.568	45863.24
522.77	46311.74
522.971	46752.05
523.173	46313.79
523.375	46954.8
523.576	47104.31
523.778	47354.16
523.98	47896.87
524.181	47438.12
524.383	47698.22
524.584	48894.23
524.786	48576.79
524.988	48419.1
525.189	48886.04
525.391	48998.68
525.592	49436.94
525.794	50100.48
525.995	49858.82
526.197	49899.78
526.398	50018.56
526.6	51046.65
526.801	50231.55
527.003	50759.93
527.204	50778.36
527.406	51378.42
527.607	50776.31
527.808	51388.66
528.01	51116.28
528.211	51087.6
528.412	52142.31
528.614	51953.9
528.815	52009.19
529.016	52510.94
529.218	51988.71
529.419	52181.22
529.62	52431.07
529.822	52359.39
530.023	52572.38
530.224	52449.5
530.425	52265.19
530.626	52422.88
530.828	52349.15
531.029	53596.37
531.23	52744.41
531.431	52762.84
531.632	52947.16
531.833	53317.84
532.035	53231.83
532.236	53289.17
532.437	53577.93
532.638	53272.79
532.839	53545.17
533.04	53397.71
533.241	52957.4
533.442	54085.83
533.643	53680.33
533.844	53496.02
534.045	53520.59
534.246	53139.67
534.447	53915.85
534.648	53493.97
534.849	53733.58
535.05	53387.47
535.251	53729.48
535.451	53659.85
535.652	53682.38
535.853	53473.49
536.054	54073.54
536.255	53700.81
536.456	53309.65
536.657	53934.28
536.857	53770.44
537.058	53217.49
537.259	53942.47
537.46	54022.34
537.66	54063.3
537.861	53532.88
538.062	53756.11
538.263	53864.65
538.463	53799.12
538.664	53952.71
538.865	54102.21
539.065	54223.04
539.266	53557.45
539.466	54003.91
539.667	53231.83
539.868	54016.2
540.068	54206.66
540.269	53608.65
540.469	54452.42
540.67	53604.56
540.87	53807.31
541.071	53252.31
541.271	53741.77
541.472	53358.8
541.672	53459.15
541.873	53354.71
542.073	52840.67
542.274	53958.86
542.474	53434.58
542.675	53127.38
542.875	53496.02
543.075	53565.65
543.276	53076.18
543.476	53774.54
543.676	53170.39
543.877	53835.98
544.077	53606.61
544.277	53268.69
544.478	53500.11
544.678	53557.45
544.878	53383.38
545.078	53684.43
545.279	52895.96
545.479	52967.64
545.679	53377.23
545.879	53485.78
546.079	53117.14
546.28	53469.39
546.48	52717.79
546.68	53266.64
546.88	53514.45
547.08	53272.79
547.28	53098.71
547.48	52963.54
547.68	53141.72
547.88	52789.47
548.081	52973.78
548.281	53072.09
548.481	52742.36
548.681	53536.98
548.881	53170.39
549.081	53379.28
549.28	52795.61
549.48	53313.75
549.68	52906.2
549.88	53534.93
550.08	52308.19
550.28	53567.69
550.48	52842.71
550.68	53321.94
550.88	53074.13
551.08	52955.35
551.279	53078.23
551.479	52918.49
551.679	52631.77
551.879	53020.89
552.079	53129.43
552.278	52709.6
552.478	52707.55
552.678	52793.56
552.878	53323.99
553.077	52568.29
553.277	52635.87
553.477	53276.88
553.676	52013.29
553.876	52848.86
554.076	52388.06
554.275	52611.29
554.475	52107.49
554.674	52809.95
554.874	52418.78
555.074	52347.11
555.273	52863.19
555.473	52730.08
555.672	52015.33
555.872	52443.36
556.071	52127.97
556.271	52766.94
556.47	51857.64
556.67	52080.87
556.869	51890.41
557.068	52121.83
557.268	51857.64
557.467	51978.47
557.667	52103.4
557.866	52087.01
558.065	52021.48
558.265	51857.64
558.464	51296.5
558.663	52023.53
558.863	51388.66
559.062	51788.01
559.261	51755.24
559.461	51945.7
559.66	50962.68
559.859	51771.63
560.058	50835.7
560.258	51011.83
560.457	50716.92
560.656	51368.18
560.855	51214.58
561.054	51300.59
561.253	50970.87
561.453	50858.23
561.652	50940.15
561.851	50948.34
562.05	50909.43
562.249	50395.39
562.448	51099.89
562.647	50700.54
562.846	50585.85
563.045	50659.58
563.244	50225.41
563.443	50782.46
563.642	49807.62
563.841	50450.69
564.04	49570.06
564.239	50573.56
564.438	49856.78
564.637	49785.1
564.836	49850.63
565.035	49518.86
565.234	50000.13
565.432	49023.25
565.631	49682.7
565.83	49715.47
566.029	49154.32
566.228	49273.1
566.427	49266.96
566.625	48953.62
566.824	48746.78
567.023	48984.34
567.222	48392.48
567.42	49053.97
567.619	48769.3
567.818	48277.79
568.016	48214.3
568.215	48687.39
568.414	48335.13
568.612	48881.94
568.811	47933.73
569.01	47925.54
569.208	47829.29
569.407	48279.84
569.605	47245.62
569.804	47839.53
570.002	47286.57
570.201	47577.39
570.4	47485.23
570.598	47331.63
570.797	46625.08
570.995	47069.49
571.193	46623.03
571.392	47464.75
571.59	46610.74
571.789	46577.98
571.987	46608.7
572.186	46487.87
572.384	46262.59
572.582	46565.69
572.781	46383.42
572.979	45687.11
573.177	46195.01
573.376	46020.93
573.574	45773.13
573.772	46104.9
573.971	45437.26
574.169	45230.41
574.367	45322.57
574.565	45703.49
574.763	45447.5
574.962	45496.65
575.16	44697.94
575.358	45281.61
575.556	44507.48
575.754	45314.38
575.952	44216.67
576.151	44808.53
576.349	44462.43
576.547	44280.16
576.745	44550.49
576.943	44241.24
577.141	44263.77
577.339	44317.02
577.537	43747.68
577.735	43835.75
577.933	43641.19
578.131	43702.63
578.329	43721.06
578.527	43424.11
578.725	43473.26
578.923	43372.91
579.121	42897.78
579.319	43092.33
579.516	43348.33
579.714	42983.79
579.912	42635.64
580.11	42449.27
580.308	42645.88
580.506	42428.79
580.704	41988.48
580.901	42269.05
581.099	42490.23
581.297	41996.67
581.495	41793.92
581.692	42406.26
581.89	41273.74
582.088	42019.2
582.285	41279.88
582.483	41755.01
582.681	41533.83
582.878	41138.57
583.076	40800.66
583.274	41200.01
583.471	40649.11
583.669	40587.67
583.866	40327.58
584.064	40679.83
584.262	40364.44
584.459	40589.72
584.657	40126.88
584.854	39963.04
585.052	39899.55
585.249	40165.79
585.447	40024.48
585.644	39584.16
585.841	39887.26
586.039	39793.06
586.236	39094.7
586.434	38982.06
586.631	39041.45
586.828	39094.7
587.026	38982.06
587.223	38769.07
587.42	38728.11
587.618	39266.73
587.815	38343.09
588.012	38531.51
588.21	38410.68
588.407	38896.05
588.604	38504.88
588.801	38091.19
588.999	38085.05
589.196	37743.04
589.393	37595.59
589.59	37669.31
589.787	37386.69
589.984	37153.23
590.182	37261.77
590.379	37525.96
590.576	36874.7
590.773	36995.53
590.97	36807.12
591.167	36678.1
591.364	36817.36
591.561	36489.68
591.758	36137.43
591.955	36499.92
592.152	36428.24
592.349	36245.97
592.546	36051.42
592.743	36252.12
592.94	35793.37
593.137	36078.04
593.334	36096.47
593.531	35508.71
593.727	35854.81
593.924	35754.46
594.121	35248.61
594.318	35584.48
594.515	34814.44
594.712	35025.39
594.908	34877.93
595.105	34611.7
595.302	34726.38
595.499	34808.3
595.696	34558.45
595.892	34314.74
596.089	34583.02
596.286	34095.61
596.482	34134.52
596.679	33919.48
596.876	34066.94
597.072	33651.2
597.269	33843.71
597.466	33192.45
597.662	33387.01
597.859	33280.52
598.055	33663.49
598.252	33135.11
598.448	33225.22
598.645	32870.92
598.841	32766.48
599.038	32784.91
599.234	32795.15
599.431	32393.75
599.627	32608.78
599.824	32686.61
600.02	32647.69
600.217	31961.62
600.413	32303.64
600.609	31869.47
600.806	31906.33
601.002	32164.37
601.198	31906.33
601.395	31427.1
601.591	31380
601.787	31451.68
601.984	31361.57
602.18	31701.53
602.376	31054.37
602.572	31265.31
602.769	31156.77
602.965	30880.3
603.161	30931.5
603.357	30632.49
603.553	30698.03
603.75	30532.14
603.946	30618.16
604.142	30110.26
604.338	29850.17
604.534	30384.69
604.73	30110.26
604.926	29616.7
605.122	30206.52
605.318	29729.34
605.514	29844.02
605.71	29618.75
605.906	29542.97
606.102	29475.39
606.298	29135.43
606.494	29235.78
606.69	29379.14
606.886	29209.15
607.082	29164.1
607.278	29268.55
607.474	28660.3
607.67	28871.24
607.866	28586.57
608.062	28717.64
608.257	28471.89
608.453	28494.41
608.649	28746.31
608.845	28158.55
609.041	28523.08
609.236	28303.95
609.432	28361.3
609.628	28281.42
609.824	28093.01
610.019	28480.08
610.215	28195.41
610.411	28316.24
610.606	27839.06
610.802	28156.5
610.998	27595.35
611.193	27949.65
611.389	28019.28
611.584	27624.03
611.78	27632.22
611.976	27798.1
612.171	27619.93
612.367	27419.23
612.562	27507.29
612.758	27089.51
612.953	27220.58
613.149	27490.91
613.344	27103.84
613.539	27533.92
613.735	26931.81
613.93	27030.12
614.126	26741.35
614.321	27290.21
614.517	27138.66
614.712	26827.37
614.907	27140.71
615.103	26874.47
615.298	26485.36
615.493	26806.89
615.688	26477.16
615.884	27245.15
616.079	26440.3
616.274	26706.54
616.47	26759.78
616.665	26475.12
616.86	26352.24
617.055	26292.85
617.25	26075.76
617.445	26405.49
617.641	25412.22
617.836	26245.74
618.031	25641.59
618.226	25803.38
618.421	25471.61
618.616	25836.15
618.811	25387.64
619.006	25541.24
619.201	25315.97
619.396	25537.15
619.591	25086.59
619.786	25262.72
619.981	24808.07
620.176	25203.33
620.371	24660.62
620.566	24777.35
620.761	24703.62
620.956	24453.77
621.151	24275.6
621.346	24341.13
621.541	23808.66
621.735	24320.65
621.93	23741.08
622.125	23882.39
622.32	23370.4
622.515	23706.26
622.709	23356.06
622.904	23532.18
623.099	23259.81
623.294	23372.44
623.488	22747.81
623.683	23435.93
623.878	22786.72
624.072	22792.87
624.267	22794.92
624.462	22629.03
624.656	22076.08
624.851	22268.59
625.046	22026.93
625.24	21867.19
625.435	21865.14
625.629	21793.46
625.824	21338.81
626.018	21373.63
626.213	20749
626.407	21293.76
626.602	21252.8
626.796	21164.73
626.991	20910.78
627.185	21121.73
627.38	20902.59
627.574	20777.67
627.768	20540.1
627.963	20542.15
628.157	20292.3
628.352	20259.53
628.546	19929.81
628.74	20214.48
628.935	19591.89
629.129	19755.73
629.323	19432.15
629.517	19536.6
629.712	19462.87
629.906	19452.63
630.1	19196.64
630.294	19075.8
630.489	18991.84
630.683	18973.41
630.877	18821.86
631.071	18725.6
631.265	18948.83
631.459	18483.94
631.653	18565.86
631.848	18285.29
632.042	18365.16
632.236	18406.12
632.43	18098.92
632.624	18180.84
632.818	18117.36
633.012	17752.82
633.206	17828.59
633.4	17883.89
633.594	17558.26
633.788	17253.11
633.982	17386.23
634.176	17337.08
634.369	17119.99
634.563	17132.28
634.757	17150.71
634.951	17294.07
635.145	16927.49
635.339	16937.73
635.533	16618.24
635.726	16978.68
635.92	16399.11
636.114	16544.52
636.308	16352.01
636.501	16438.02
636.695	16333.57
636.889	16005.9
637.083	16091.91
637.276	15774.48
637.47	15751.95
637.664	15686.42
637.857	15930.12
638.051	15704.85
638.244	15522.58
638.438	15459.09
638.632	15366.93
638.825	15213.34
639.019	15211.29
639.212	15199
639.406	15121.18
639.599	15055.64
639.793	14994.2
639.986	14684.96
640.18	14883.61
640.373	14656.29
640.567	14478.12
640.76	14721.82
640.954	14447.4
641.147	14205.74
641.34	14336.81
641.534	14048.04
641.727	14084.91
641.92	14148.39
642.114	14089
642.307	13773.61
642.5	13966.12
642.694	13640.5
642.887	13585.2
643.08	13521.71
643.273	13572.91
643.467	13425.46
643.66	13370.16
643.853	13273.91
644.046	13480.75
644.239	13400.88
644.432	13036.35
644.626	13054.78
644.819	13042.49
645.012	13091.64
645.205	13050.68
645.398	12841.79
645.591	12825.4
645.784	12602.18
645.977	12585.79
646.17	12794.68
646.363	12364.61
646.556	12161.86
646.749	12378.95
646.942	12354.37
647.135	12307.27
647.328	12239.69
647.521	12133.19
647.714	12073.8
647.907	11977.55
648.099	12061.51
648.292	12024.65
648.485	11551.57
648.678	11760.46
648.871	11557.71
649.064	11752.27
649.256	11637.58
649.449	11580.24
649.642	11492.18
649.835	11391.83
650.027	11418.45
650.22	11301.72
650.413	11047.77
650.605	11096.92
650.798	11101.01
650.991	10904.41
651.183	11076.44
651.376	10730.33
651.568	10816.35
651.761	10976.09
651.954	10842.97
652.146	10564.45
652.339	10634.08
652.531	10779.48
652.724	10441.57
652.916	10298.21
653.109	10343.27
653.301	10335.07
653.494	10386.27
653.686	10232.68
653.879	10300.26
654.071	10169.19
654.263	10011.5
654.456	10107.75
654.648	10148.71
654.84	9939.82
655.033	9782.12
655.225	9945.96
655.417	9689.96
655.61	9763.69
655.802	9818.99
655.994	9679.72
656.186	9689.96
656.379	9483.12
656.571	9567.09
656.763	9466.74
656.955	9462.64
657.148	9501.55
657.34	9433.97
657.532	9220.98
657.724	9261.94
657.916	9292.66
658.108	9026.42
658.3	8792.95
658.492	8924.02
658.684	8919.93
658.876	8979.32
659.068	8840.06
659.26	8827.77
659.452	8895.35
659.644	8672.12
659.836	8614.78
660.028	8676.22
660.22	8569.73
660.412	8377.22
660.604	8491.9
660.796	8432.51
660.988	8446.85
661.18	8428.42
661.372	8244.1
661.563	8420.22
661.755	8371.07
661.947	8285.06
662.139	8229.76
662.331	8270.72
662.522	7990.15
662.714	8139.65
662.906	7967.62
663.097	8061.83
663.289	8029.06
663.481	7955.33
663.673	8061.83
663.864	7793.55
664.056	7723.91
664.247	7814.02
664.439	7682.95
664.631	7805.83
664.822	7758.73
665.014	7560.08
665.205	7564.17
665.397	7541.64
665.588	7596.94
665.78	7498.64
665.971	7453.58
666.163	7365.52
666.354	7271.31
666.546	7254.93
666.737	7246.74
666.929	7197.59
667.12	7250.83
667.311	7101.33
667.503	6941.59
667.694	7414.67
667.885	6939.54
668.077	7039.89
668.268	6994.84
668.459	6960.02
668.651	6894.49
668.842	6898.58
669.033	6810.52
669.224	6810.52
669.416	6802.33
669.607	6871.96
669.798	6667.16
669.989	6812.57
670.18	6759.32
670.371	6687.64
670.563	6642.59
670.754	6656.92
670.945	6429.6
671.136	6634.39
671.327	6458.27
671.518	6443.93
671.709	6542.24
671.9	6437.79
672.091	6454.17
672.282	6273.95
672.473	6204.32
672.664	6351.78
672.855	6255.52
673.046	6347.68
673.237	6302.62
673.428	6091.68
673.619	6173.6
673.809	6085.54
674	6073.25
674.191	6146.98
674.382	6071.2
674.573	5888.93
674.764	6153.12
674.954	5966.76
675.145	6001.57
675.336	6060.96
675.527	5817.26
675.717	6120.35
675.908	5931.94
676.099	5923.75
676.289	5782.44
676.48	5704.62
676.671	5839.78
676.861	5712.81
677.052	5792.68
677.243	5829.54
677.433	5716.9
677.624	5643.18
677.814	5866.41
678.005	5712.81
678.195	5536.68
678.386	5518.25
678.576	5616.55
678.767	5696.43
678.957	5630.89
679.148	5540.78
679.338	5610.41
679.529	5573.55
679.719	5458.86
679.909	5540.78
680.1	5520.3
680.29	5612.46
680.481	5569.45
680.671	5309.36
680.861	5536.68
681.052	5331.89
681.242	5346.22
681.432	5446.57
681.622	5221.3
681.813	5364.65
682.003	5323.69
682.193	5221.3
682.383	5325.74
682.573	5329.84
682.764	5247.92
682.954	5233.58
683.144	5135.28
683.334	5104.56
683.524	5166
683.714	5202.86
683.904	5047.22
684.094	5206.96
684.284	5155.76
684.474	5159.86
684.664	5229.49
684.854	5084.08
685.044	5043.12
685.234	5053.36
685.424	5122.99
685.614	5024.69
685.804	4928.44
685.994	4823.99
686.184	5073.84
686.374	4924.34
686.564	4846.52
686.753	4899.77
686.943	4856.76
687.133	4774.84
687.323	4789.17
687.513	4793.27
687.702	4670.39
687.892	4772.79
688.082	4666.3
688.272	4821.94
688.461	4567.99
688.651	4658.1
688.841	4729.78
689.03	4740.02
689.22	4408.25
689.41	4586.43
689.599	4590.52
689.789	4547.51
689.979	4520.89
690.168	4570.04
690.358	4391.87
690.547	4541.37
690.737	4430.78
690.926	4461.5
691.116	4262.85
691.305	4420.54
691.495	4340.67
691.684	4512.7
691.874	4219.84
692.063	4244.42
692.252	4340.67
692.442	4262.85
692.631	4170.69
692.82	4133.82
693.01	4221.89
693.199	4197.31
693.388	4144.06
693.578	4219.84
693.767	4109.25
693.956	4094.91
694.146	3953.6
694.335	4004.8
694.524	4099.01
694.713	3984.32
694.902	4164.54
695.092	4094.91
695.281	4010.95
695.47	3908.55
695.659	4000.71
695.848	4088.77
696.037	3972.04
696.226	3845.06
696.415	3892.16
696.604	3933.12
696.793	3757
696.982	3820.49
697.171	3920.84
697.36	3990.47
697.549	3859.4
697.738	3814.34
697.927	3918.79
698.116	3814.34
698.305	3816.39
698.494	3781.57
698.683	3769.29
698.872	3894.21
699.061	3761.09
699.25	3716.04
699.438	3730.38
699.627	3693.51
699.816	3814.34
700.005	3736.52
700.193	3789.77
700.382	3816.39
700.571	3681.22
700.76	3666.89
700.948	3789.77
701.137	3718.09
701.326	3638.22
701.514	3537.87
701.703	3617.74
701.892	3535.82
702.08	3587.02
702.269	3638.22
702.457	3458
702.646	3462.09
702.834	3503.05
703.023	3611.59
703.212	3564.49
703.4	3574.73
703.589	3597.26
703.777	3572.68
703.965	3548.11
704.154	3513.29
704.342	3429.32
704.531	3474.38
704.719	3419.08
704.907	3441.61
705.096	3306.45
705.284	3380.17
705.472	3464.14
705.661	3494.86
705.849	3472.33
706.037	3507.15
706.226	3437.52
706.414	3394.51
706.602	3402.7
706.79	3425.23
706.979	3298.25
707.167	3374.03
707.355	3183.57
707.543	3367.88
707.731	3408.84
707.919	3369.93
708.107	3298.25
708.296	3331.02
708.484	3296.21
708.672	3312.59
708.86	3165.14
709.048	3277.77
709.236	3240.91
709.424	3357.64
709.612	3279.82
709.8	3189.71
709.988	3288.01
710.176	3240.91
710.364	3150.8
710.551	3273.68
710.739	3156.94
710.927	3285.97
711.115	3144.66
711.303	3070.93
711.491	3214.29
711.679	3165.14
711.866	3167.18
712.054	3142.61
712.242	2972.63
712.43	3230.67
712.617	3214.29
712.805	3105.74
712.993	3062.74
713.181	3185.62
713.368	3220.43
713.556	3118.03
713.744	2964.43
713.931	3027.92
714.119	3089.36
714.306	3029.97
714.494	3075.03
714.682	3163.09
714.869	3087.31
715.057	3019.73
715.244	3042.26
715.432	3107.79
715.619	2978.77
715.807	2931.67
715.994	3044.31
716.182	2982.87
716.369	3017.68
716.556	3015.63
716.744	2984.91
716.931	2956.24
717.119	2989.01
717.306	3046.35
717.493	2888.66
717.681	2907.09
717.868	2810.84
718.055	2958.29
718.242	2984.91
718.43	2974.67
718.617	2892.76
718.804	2866.13
718.991	2970.58
719.179	2808.79
719.366	2939.86
719.553	2896.85
719.74	2847.7
719.927	2946
720.114	2704.34
720.301	2878.42
720.488	2722.77
720.676	2780.12
720.863	2776.02
721.05	2816.98
721.237	2798.55
721.424	2773.97
721.611	2794.45
721.798	2743.25
721.985	2763.73
722.172	2821.08
722.358	2655.19
722.545	2743.25
722.732	2716.63
722.919	2749.4
723.106	2755.54
723.293	2696.15
723.48	2700.25
723.667	2816.98
723.853	2733.01
724.04	2690.01
724.227	2659.29
724.414	2663.38
724.6	2675.67
724.787	2626.52
724.974	2548.7
725.161	2603.99
725.347	2655.19
725.534	2685.91
725.72	2511.83
725.907	2673.62
726.094	2579.42
726.28	2595.8
726.467	2710.49
726.653	2642.9
726.84	2663.38
727.027	2669.53
727.213	2620.38
727.4	2546.65
727.586	2634.71
727.773	2677.72
727.959	2571.22
728.145	2644.95
728.332	2515.93
728.518	2585.56
728.705	2513.88
728.891	2577.37
729.077	2601.94
729.264	2526.17
729.45	2575.32
729.636	2462.68
729.823	2474.97
730.009	2589.66
730.195	2487.26
730.382	2397.15
730.568	2505.69
730.754	2499.55
730.94	2491.35
731.126	2511.83
731.313	2450.39
731.499	2429.91
731.685	2427.87
731.871	2421.72
732.057	2452.44
732.243	2429.91
732.429	2530.27
732.615	2556.89
732.801	2401.24
732.987	2415.58
733.173	2417.63
733.359	2393.05
733.545	2331.61
733.731	2485.21
733.917	2446.3
734.103	2503.64
734.289	2452.44
734.475	2307.04
734.661	2431.96
734.847	2427.87
735.033	2339.8
735.219	2339.8
735.404	2350.04
735.59	2366.43
735.776	2331.61
735.962	2397.15
736.148	2438.11
736.333	2257.89
736.519	2261.98
736.705	2302.94
736.89	2409.44
737.076	2280.41
737.262	2223.07
737.447	2221.02
737.633	2192.35
737.819	2307.04
738.004	2155.49
738.19	2206.69
738.375	2290.65
738.561	2272.22
738.747	2112.48
738.932	2237.41
739.118	2178.01
739.303	2184.16
739.489	2243.55
739.674	2218.97
739.859	2223.07
740.045	2098.14
740.23	2302.94
740.416	2044.9
740.601	2104.29
740.786	2108.38
740.972	2165.73
741.157	2128.86
741.342	2124.77
741.528	2147.3
741.713	2094.05
741.898	2100.19
742.084	2114.53
742.269	2229.21
742.454	2055.14
742.639	2081.76
742.824	2061.28
743.01	2034.66
743.195	2155.49
743.38	2020.32
743.565	2073.57
743.75	2032.61
743.935	1883.11
744.12	1928.16
744.305	1938.4
744.49	1962.98
744.675	1897.44
744.86	2069.47
745.045	1891.3
745.23	1932.26
745.415	1815.52
745.6	1883.11
745.785	1817.57
745.97	1993.7
746.155	1799.14
746.34	1928.16
746.525	1905.63
746.71	1819.62
746.895	1764.33
747.079	1862.63
747.264	1782.76
747.449	1823.72
747.634	1727.46
747.819	1688.55
748.003	1737.7
748.188	1729.51
748.373	1702.89
748.557	1700.84
748.742	1756.13
748.927	1713.13
749.111	1612.78
749.296	1676.26
749.481	1706.98
749.665	1696.74
749.85	1678.31
750.034	1672.17
750.219	1729.51
750.404	1606.63
750.588	1594.34
750.773	1598.44
750.957	1614.82
751.141	1584.1
751.326	1549.29
751.51	1539.05
751.695	1526.76
751.879	1569.77
752.064	1555.43
752.248	1522.66
752.432	1498.09
752.617	1469.42
752.801	1459.18
752.985	1491.95
753.17	1551.34
753.354	1399.79
753.538	1463.27
753.722	1465.32
753.907	1473.51
754.091	1371.12
754.275	1364.97
754.459	1301.48
754.643	1264.62
754.828	1420.27
755.012	1283.05
755.196	1313.77
755.38	1352.68
755.564	1319.92
755.748	1416.17
755.932	1266.67
756.116	1313.77
756.3	1223.66
756.484	1352.68
756.668	1235.95
756.852	1246.19
757.036	1231.85
757.22	1287.15
757.404	1266.67
757.588	1262.57
757.772	1262.57
757.956	1121.26
758.14	1180.65
758.323	1221.61
758.507	1141.74
758.691	1141.74
758.875	1133.55
759.059	1127.41
759.242	1250.28
759.426	1201.13
759.61	1068.02
759.794	1074.16
759.977	1117.17
760.161	1207.28
760.345	1176.56
760.528	1121.26
760.712	1108.98
760.895	1137.65
761.079	1100.78
761.263	1074.16
761.446	1025.01
761.63	1012.72
761.813	1168.37
761.997	1078.26
762.18	1104.88
762.364	1000.43
762.547	1006.58
762.731	1029.1
762.914	1004.53
763.098	1037.3
763.281	1088.5
763.464	982
763.648	971.76
763.831	1010.67
764.015	998.38
764.198	1012.72
764.381	914.42
764.564	1018.86
764.748	1057.78
764.931	998.38
765.114	984.05
765.297	979.95
765.481	977.91
765.664	986.1
765.847	977.91
766.03	1039.34
766.213	822.26
766.397	943.09
766.58	973.81
766.763	938.99
766.946	918.51
767.129	930.8
767.312	920.56
767.495	875.51
767.678	873.46
767.861	951.28
768.044	932.85
768.227	881.65
768.41	953.33
768.593	912.37
768.776	855.03
768.959	904.18
769.142	855.03
769.324	924.66
769.507	844.79
769.69	842.74
769.873	883.7
770.056	879.6
770.239	867.31
770.421	705.53
770.604	861.17
770.787	846.84
770.97	814.07
771.152	797.68
771.335	918.51
771.518	697.33
771.7	863.22
771.883	832.5
772.066	836.6
772.248	873.46
772.431	895.99
772.613	836.6
772.796	799.73
772.978	728.05
773.161	752.63
773.343	766.96
773.526	771.06
773.708	701.43
773.891	617.46
774.073	809.97
774.256	754.68
774.438	701.43
774.621	707.57
774.803	777.2
774.985	736.24
775.168	809.97
775.35	734.2
775.532	748.53
775.715	730.1
775.897	709.62
776.079	705.53
776.261	760.82
776.444	685.05
776.626	662.52
776.808	715.77
776.99	584.7
777.173	656.37
777.355	672.76
777.537	699.38
777.719	683
777.901	662.52
778.083	662.52
778.265	629.75
778.447	623.61
778.629	562.17
778.811	605.17
778.993	701.43
779.175	609.27
779.357	613.37
779.539	611.32
779.721	588.79
779.903	599.03
780.085	648.18
780.267	433.15
780.449	504.82
780.631	580.6
780.812	596.98
780.994	551.93
781.176	463.86
781.358	568.31
781.54	488.44
781.721	619.51
781.903	637.94
782.085	545.78
782.267	564.22
782.448	515.06
782.63	541.69
782.812	472.06
782.993	420.86
783.175	504.82
783.357	445.43
783.538	472.06
783.72	525.3
783.901	424.95
784.083	414.71
784.264	529.4
784.446	527.35
784.627	443.39
784.809	422.91
784.99	410.62
785.172	455.67
785.353	470.01
785.535	453.63
785.716	439.29
785.897	455.67
786.079	449.53
786.26	390.14
786.441	381.95
786.623	394.23
786.804	474.1
786.985	412.67
787.167	451.58
787.348	484.34
787.529	427
787.71	420.86
787.891	445.43
788.073	519.16
788.254	445.43
788.435	386.04
788.616	422.91
788.797	381.95
788.978	322.56
789.159	361.47
789.34	383.99
789.522	398.33
789.703	414.71
789.884	379.9
790.065	324.6
790.246	363.51
790.427	383.99
790.607	404.47
790.788	402.43
790.969	343.03
791.15	420.86
791.331	367.61
791.512	297.98
791.693	242.68
791.874	326.65
792.054	345.08
792.235	363.51
792.416	289.79
792.597	304.12
792.778	396.28
792.958	416.76
793.139	244.73
793.32	357.37
793.5	283.64
793.681	283.64
793.862	302.08
794.042	250.88
794.223	267.26
794.404	345.08
794.584	320.51
794.765	322.56
794.945	230.4
795.126	340.99
795.306	300.03
795.487	336.89
795.667	230.4
795.848	281.6
796.028	257.02
796.209	306.17
796.389	310.27
796.57	281.6
796.75	281.6
796.93	267.26
797.111	275.45
797.291	261.12
797.471	336.89
797.652	162.81
797.832	252.92
798.012	293.88
798.192	214.01
798.373	166.91
798.553	254.97
798.733	263.16
798.913	230.4
799.093	209.92
799.274	218.11
799.454	211.96
799.634	285.69
799.814	226.3
799.994	304.12
800.174	257.02
800.354	252.92
800.534	246.78
800.714	279.55
800.894	242.68
801.074	242.68
801.254	246.78
801.434	252.92
801.614	216.06
801.794	209.92
801.974	644.09
802.154	214.01
802.334	214.01
802.514	189.44
802.693	230.4
802.873	109.57
803.053	300.03
803.233	297.98
803.413	158.72
803.592	199.68
803.772	250.88
803.952	261.12
804.131	275.45
804.311	224.25
804.491	205.82
804.67	218.11
804.85	183.29
805.03	158.72
805.209	234.49
805.389	171.01
805.568	281.6
805.748	185.34
805.928	164.86
806.107	181.25
806.287	171.01
806.466	189.44
806.646	232.44
806.825	195.58
807.004	234.49
807.184	240.64
807.363	244.73
807.543	175.1
807.722	134.14
807.901	230.4
808.081	160.77
808.26	111.61
808.439	175.1
808.619	132.09
808.798	234.49
808.977	168.96
809.156	173.05
809.336	218.11
809.515	216.06
809.694	211.96
809.873	199.68
810.052	148.48
810.231	207.87
810.411	144.38
810.59	224.25
810.769	228.35
810.948	185.34
811.127	128
811.306	236.54
811.485	134.14
811.664	228.35
811.843	142.33
812.022	136.19
812.201	89.09
812.38	173.05
812.559	119.81
812.737	119.81
812.916	115.71
813.095	175.1
813.274	162.81
813.453	115.71
813.632	187.39
813.811	224.25
813.989	134.14
814.168	148.48
814.347	115.71
814.526	154.62
814.704	175.1
814.883	148.48
815.062	220.16
815.24	128
815.419	107.52
815.598	164.86
815.776	130.05
815.955	173.05
816.133	125.95
816.312	119.81
816.49	91.13
816.669	123.9
816.847	37.89
817.026	132.09
817.204	183.29
817.383	103.42
817.561	91.13
817.74	179.2
817.918	154.62
818.097	148.48
818.275	97.28
818.453	140.29
818.632	125.95
818.81	152.57
818.988	97.28
819.167	160.77
819.345	142.33
819.523	148.48
819.701	140.29
819.879	125.95
820.058	113.66
820.236	187.39
820.414	132.09
820.592	136.19
820.77	175.1
820.948	109.57
821.127	33.79
821.305	128
821.483	109.57
821.661	171.01
821.839	128
822.017	99.33
822.195	119.81
822.373	93.18
822.551	115.71
822.729	128
822.907	97.28
823.085	154.62
823.262	107.52
823.44	46.08
823.618	97.28
823.796	72.7
823.974	128
824.152	68.61
824.329	101.37
824.507	84.99
824.685	111.61
824.863	97.28
825.04	35.84
825.218	177.15
825.396	-1.02
825.574	142.33
825.751	80.89
825.929	123.9
826.107	-13.31
826.284	166.91
826.462	97.28
826.639	50.18
826.817	121.85
826.994	66.56
827.172	64.51
827.349	68.61
827.527	48.13
827.704	160.77
827.882	140.29
828.059	123.9
828.237	158.72
828.414	138.24
828.591	72.7
828.769	107.52
828.946	78.85
829.124	76.8
829.301	113.66
829.478	99.33
829.655	70.65
829.833	95.23
830.01	113.66
830.187	70.65
830.364	93.18
830.542	89.09
830.719	3.07
830.896	136.19
831.073	99.33
831.25	121.85
831.427	52.22
831.604	111.61
831.782	70.65
831.959	154.62
832.136	115.71
832.313	37.89
832.49	52.22
832.667	93.18
832.844	78.85
833.021	107.52
833.198	107.52
833.374	101.37
833.551	93.18
833.728	48.13
833.905	35.84
834.082	7.17
834.259	76.8
834.436	109.57
834.612	9.22
834.789	60.42
834.966	95.23
835.143	54.27
835.319	3.07
835.496	97.28
835.673	121.85
835.85	87.04
836.026	97.28
836.203	144.38
836.38	162.81
836.556	29.7
836.733	107.52
836.909	138.24
837.086	1.02
837.262	84.99
837.439	107.52
837.616	37.89
837.792	74.75
837.968	74.75
838.145	33.79
838.321	17.41
838.498	84.99
838.674	113.66
838.851	82.94
839.027	66.56
839.203	121.85
839.38	48.13
839.556	-41.98
839.732	58.37
839.909	-17.41
840.085	123.9
840.261	64.51
840.437	44.03
840.614	125.95
840.79	54.27
840.966	66.56
841.142	76.8
841.318	54.27
841.494	15.36
841.671	76.8
841.847	54.27
842.023	93.18
842.199	41.98
842.375	97.28
842.551	25.6
842.727	-21.5
842.903	17.41
843.079	54.27
843.255	93.18
843.431	35.84
843.607	89.09
843.783	123.9
843.959	39.94
844.134	7.17
844.31	93.18
844.486	23.55
844.662	54.27
844.838	54.27
845.013	70.65
845.189	91.13
845.365	74.75
845.541	25.6
845.716	89.09
845.892	132.09
846.068	35.84
846.244	37.89
846.419	33.79
846.595	15.36
846.77	58.37
846.946	103.42
847.122	54.27
847.297	25.6
847.473	39.94
847.648	23.55
847.824	66.56
847.999	82.94
848.175	60.42
848.35	111.61
848.526	19.46
848.701	3.07
848.876	13.31
849.052	50.18
849.227	39.94
849.403	68.61
849.578	91.13
849.753	39.94
849.929	25.6
850.104	78.85
850.279	103.42
850.454	144.38
850.63	17.41
850.805	84.99
850.98	107.52
851.155	31.74
851.33	52.22
851.505	-5.12
851.681	80.89
851.856	89.09
852.031	48.13
852.206	78.85
852.381	21.5
852.556	17.41
852.731	35.84
852.906	33.79
853.081	44.03
853.256	5.12
853.431	-13.31
853.606	7.17
853.781	37.89
853.956	48.13
854.131	11.26
854.305	23.55
854.48	70.65
854.655	62.46
854.83	70.65
855.005	7.17
855.18	15.36
855.354	13.31
855.529	7.17
855.704	5.12
855.879	74.75
856.053	23.55
856.228	95.23
856.403	-9.22
856.577	17.41
856.752	-21.5
856.926	7.17
857.101	70.65
857.276	66.56
857.45	56.32
857.625	50.18
857.799	35.84
857.974	17.41
858.148	37.89
858.323	39.94
858.497	54.27
858.672	29.7
858.846	-31.74
859.02	-7.17
859.195	13.31
859.369	-3.07
859.543	23.55
859.718	-9.22
859.892	54.27
860.066	80.89
860.241	3.07
860.415	37.89
860.589	5.12
860.763	41.98
860.938	-35.84
861.112	21.5
861.286	46.08
861.46	-13.31
861.634	74.75
861.808	21.5
861.982	29.7
862.157	66.56
862.331	29.7
862.505	1.02
862.679	54.27
862.853	-23.55
863.027	74.75
863.201	11.26
863.375	72.7
863.549	-31.74
863.722	-33.79
863.896	99.33
864.07	15.36
864.244	37.89
864.418	62.46
864.592	17.41
864.766	29.7
864.939	-44.03
865.113	5.12
865.287	62.46
865.461	46.08
865.634	-7.17
865.808	25.6
865.982	21.5
866.156	-39.94
866.329	-31.74
866.503	27.65
866.676	87.04
866.85	13.31
867.024	39.94
867.197	25.6
867.371	17.41
867.544	58.37
867.718	35.84
867.891	21.5
868.065	37.89
868.238	-19.46
868.412	48.13
868.585	-7.17
868.759	-54.27
868.932	54.27
869.105	-35.84
869.279	82.94
869.452	52.22
869.625	50.18
869.799	-1.02
869.972	29.7
870.145	82.94
870.319	21.5
870.492	7.17
870.665	-1.02
870.838	25.6
871.011	-23.55
871.185	7.17
871.358	-1.02
871.531	-25.6
871.704	-29.7
871.877	21.5
872.05	-35.84
872.223	80.89
872.396	-7.17
872.569	39.94
872.742	-39.94
872.915	33.79
873.088	41.98
873.261	13.31
873.434	37.89
873.607	-27.65
873.78	41.98
873.953	-21.5
874.126	19.46
874.299	60.42
874.471	29.7
874.644	15.36
874.817	-3.07
874.99	31.74
875.163	41.98
875.335	25.6
875.508	60.42
875.681	60.42
875.853	-25.6
876.026	19.46
876.199	21.5
876.371	82.94
876.544	-11.26
876.717	-15.36
876.889	-64.51
877.062	66.56
877.234	-13.31
877.407	13.31
877.579	52.22
877.752	56.32
877.924	44.03
878.097	25.6
878.269	5.12
878.442	-19.46
878.614	66.56
878.786	25.6
878.959	89.09
879.131	5.12
879.303	7.17
879.476	15.36
879.648	-15.36
879.82	27.65
879.993	11.26
880.165	50.18
880.337	-17.41
880.509	-7.17
880.681	-7.17
880.854	-13.31
881.026	21.5
881.198	109.57
881.37	54.27
881.542	64.51
881.714	25.6
881.886	87.04
882.058	44.03
882.23	-68.61
882.402	7.17
882.574	-25.6
882.746	29.7
882.918	27.65
883.09	-21.5
883.262	25.6
883.434	-23.55
883.606	33.79
883.778	-56.32
883.95	44.03
884.122	29.7
884.293	-3.07
884.465	25.6
884.637	46.08
884.809	25.6
884.98	78.85
885.152	37.89
885.324	-23.55
885.496	-9.22
885.667	25.6
885.839	37.89
886.011	56.32
886.182	-1.02
886.354	128
886.525	25.6
886.697	23.55
886.869	-21.5
887.04	41.98
887.212	54.27
887.383	39.94
887.555	-29.7
887.726	-84.99
887.897	-1.02
888.069	5.12
888.24	72.7
888.412	52.22
888.583	-5.12
888.754	-13.31
888.926	-15.36
889.097	-31.74
889.268	-76.8
889.44	-27.65
889.611	-19.46
889.782	29.7
889.953	-44.03
890.125	76.8
890.296	68.61
890.467	62.46
890.638	99.33
890.809	19.46
890.98	-17.41
891.151	91.13
891.323	82.94
891.494	-7.17
891.665	5.12
891.836	9.22
892.007	62.46
892.178	-3.07
892.349	33.79
892.52	23.55
892.691	5.12
892.862	-39.94
893.032	-48.13
893.203	-13.31
893.374	70.65
893.545	29.7
893.716	-60.42
893.887	-7.17
894.057	3.07
894.228	1.02
894.399	-5.12
894.57	107.52
894.74	-11.26
894.911	-21.5
895.082	-44.03
895.253	-27.65
895.423	-9.22
895.594	44.03
895.764	60.42
895.935	72.7
896.106	-29.7
896.276	54.27
896.447	25.6
896.617	23.55
896.788	-13.31
896.958	19.46
897.129	1.02
897.299	3.07
897.47	41.98
897.64	29.7
897.81	9.22
897.981	74.75
898.151	-44.03
898.322	15.36
898.492	48.13
898.662	41.98
898.832	-5.12
899.003	46.08
899.173	-29.7
899.343	113.66
899.513	29.7
