Data from USB4F104151__29__12-35-30-821.txt Node

Date: Fri Mar 14 12:35:30 EDT 2025
User: louis
Spectrometer: USB4F10415
Trigger mode: 4
Integration Time (sec): 2.000000E-2
Scans to average: 1
Electric dark correction enabled: true
Nonlinearity correction enabled: false
Boxcar width: 0
XAxis mode: Wavelengths
Number of Pixels in Spectrum: 3648
>>>>>Begin Spectral Data<<<<<
178.204	-71.68
178.424	-71.68
178.644	-71.68
178.864	-100.35
179.084	-116.73
179.304	-36.86
179.524	2.05
179.744	-45.06
179.964	-12.29
180.184	-30.72
180.404	8.19
180.624	12.29
180.844	-43.01
181.064	-12.29
181.283	61.44
181.503	0
181.723	96.25
181.943	-10.24
182.163	0
182.383	-6.14
182.602	51.2
182.822	108.54
183.042	2.05
183.262	-32.77
183.482	-26.62
183.701	69.63
183.921	30.72
184.141	-32.77
184.361	81.92
184.58	28.67
184.8	-20.48
185.02	-26.62
185.239	18.43
185.459	67.58
185.679	-12.29
185.898	22.53
186.118	38.91
186.338	-40.96
186.557	51.2
186.777	-57.34
186.997	-22.53
187.216	-16.38
187.436	77.82
187.655	65.54
187.875	30.72
188.095	12.29
188.314	114.69
188.534	0
188.753	57.34
188.973	-10.24
189.192	34.82
189.412	-16.38
189.631	34.82
189.851	61.44
190.07	114.69
190.29	-18.43
190.509	-30.72
190.729	-14.34
190.948	131.07
191.168	71.68
191.387	43.01
191.607	24.58
191.826	38.91
192.045	10.24
192.265	65.54
192.484	4.1
192.704	43.01
192.923	-18.43
193.142	79.87
193.362	-2.05
193.581	16.38
193.8	26.62
194.02	36.86
194.239	10.24
194.458	-77.82
194.678	43.01
194.897	12.29
195.116	59.39
195.335	-8.19
195.555	49.15
195.774	112.64
195.993	34.82
196.212	-20.48
196.432	40.96
196.651	51.2
196.87	-57.34
197.089	-2.05
197.308	16.38
197.528	53.25
197.747	67.58
197.966	20.48
198.185	83.97
198.404	-28.67
198.623	51.2
198.842	94.21
199.062	59.39
199.281	83.97
199.5	30.72
199.719	98.3
199.938	-2.05
200.157	36.86
200.376	18.43
200.595	12.29
200.814	55.3
201.033	10.24
201.252	4.1
201.471	14.34
201.69	49.15
201.909	12.29
202.128	30.72
202.347	22.53
202.566	-61.44
202.785	-8.19
203.004	-32.77
203.223	63.49
203.442	14.34
203.661	88.06
203.879	133.12
204.098	16.38
204.317	2.05
204.536	45.06
204.755	12.29
204.974	-8.19
205.193	32.77
205.411	71.68
205.63	18.43
205.849	73.73
206.068	63.49
206.287	-6.14
206.505	120.83
206.724	26.62
206.943	81.92
207.162	69.63
207.381	18.43
207.599	-26.62
207.818	79.87
208.037	59.39
208.255	30.72
208.474	40.96
208.693	-8.19
208.911	61.44
209.13	57.34
209.349	-6.14
209.567	-4.1
209.786	10.24
210.005	16.38
210.223	20.48
210.442	-49.15
210.661	43.01
210.879	-79.87
211.098	16.38
211.316	81.92
211.535	51.2
211.753	61.44
211.972	24.58
212.191	16.38
212.409	16.38
212.628	94.21
212.846	75.77
213.065	65.54
213.283	47.1
213.502	55.3
213.72	57.34
213.938	22.53
214.157	16.38
214.375	20.48
214.594	10.24
214.812	36.86
215.031	-28.67
215.249	65.54
215.467	28.67
215.686	77.82
215.904	47.1
216.122	38.91
216.341	28.67
216.559	55.3
216.778	16.38
216.996	73.73
217.214	-12.29
217.432	51.2
217.651	55.3
217.869	18.43
218.087	22.53
218.306	61.44
218.524	30.72
218.742	43.01
218.96	53.25
219.179	102.4
219.397	-2.05
219.615	81.92
219.833	55.3
220.051	36.86
220.27	86.01
220.488	-38.91
220.706	40.96
220.924	8.19
221.142	96.25
221.36	-12.29
221.578	-57.34
221.796	12.29
222.015	83.97
222.233	12.29
222.451	59.39
222.669	79.87
222.887	63.49
223.105	-6.14
223.323	65.54
223.541	-57.34
223.759	-8.19
223.977	-77.82
224.195	4.1
224.413	38.91
224.631	0
224.849	16.38
225.067	10.24
225.285	-14.34
225.503	59.39
225.721	-6.14
225.939	104.45
226.157	18.43
226.375	102.4
226.592	36.86
226.81	4.1
227.028	61.44
227.246	32.77
227.464	10.24
227.682	-12.29
227.9	69.63
228.117	40.96
228.335	30.72
228.553	57.34
228.771	8.19
228.989	34.82
229.206	10.24
229.424	-16.38
229.642	51.2
229.86	43.01
230.077	-49.15
230.295	8.19
230.513	71.68
230.731	106.49
230.948	40.96
231.166	61.44
231.384	55.3
231.601	63.49
231.819	106.49
232.037	-12.29
232.254	-28.67
232.472	6.14
232.689	-6.14
232.907	-16.38
233.125	18.43
233.342	61.44
233.56	71.68
233.777	-18.43
233.995	6.14
234.213	18.43
234.43	75.77
234.648	36.86
234.865	79.87
235.083	34.82
235.3	-8.19
235.518	110.59
235.735	38.91
235.953	77.82
236.17	61.44
236.388	61.44
236.605	14.34
236.822	83.97
237.04	40.96
237.257	22.53
237.475	-49.15
237.692	12.29
237.909	53.25
238.127	61.44
238.344	16.38
238.562	-14.34
238.779	18.43
238.996	30.72
239.214	-20.48
239.431	40.96
239.648	36.86
239.865	-14.34
240.083	63.49
240.3	61.44
240.517	-18.43
240.735	30.72
240.952	26.62
241.169	69.63
241.386	102.4
241.603	65.54
241.821	-40.96
242.038	47.1
242.255	71.68
242.472	51.2
242.689	59.39
242.907	96.25
243.124	2.05
243.341	-28.67
243.558	-4.1
243.775	18.43
243.992	-32.77
244.209	-8.19
244.426	38.91
244.643	67.58
244.86	24.58
245.078	-16.38
245.295	36.86
245.512	57.34
245.729	-26.62
245.946	51.2
246.163	53.25
246.38	-6.14
246.597	-22.53
246.814	-4.1
247.031	2.05
247.248	79.87
247.464	12.29
247.681	61.44
247.898	2.05
248.115	-14.34
248.332	18.43
248.549	61.44
248.766	12.29
248.983	2.05
249.2	86.01
249.417	49.15
249.633	88.06
249.85	49.15
250.067	20.48
250.284	51.2
250.501	100.35
250.717	18.43
250.934	8.19
251.151	100.35
251.368	-2.05
251.585	55.3
251.801	14.34
252.018	-2.05
252.235	6.14
252.451	51.2
252.668	38.91
252.885	24.58
253.102	-55.3
253.318	67.58
253.535	6.14
253.752	40.96
253.968	-8.19
254.185	24.58
254.401	73.73
254.618	36.86
254.835	14.34
255.051	36.86
255.268	-2.05
255.484	45.06
255.701	63.49
255.917	92.16
256.134	16.38
256.351	-12.29
256.567	77.82
256.784	-28.67
257	6.14
257.217	22.53
257.433	65.54
257.65	8.19
257.866	18.43
258.082	-16.38
258.299	-14.34
258.515	67.58
258.732	47.1
258.948	-55.3
259.165	75.77
259.381	16.38
259.597	36.86
259.814	-47.1
260.03	-10.24
260.246	61.44
260.463	20.48
260.679	67.58
260.895	45.06
261.112	38.91
261.328	32.77
261.544	61.44
261.761	53.25
261.977	38.91
262.193	45.06
262.409	40.96
262.626	-8.19
262.842	36.86
263.058	-4.1
263.274	114.69
263.49	2.05
263.707	53.25
263.923	30.72
264.139	-47.1
264.355	28.67
264.571	96.25
264.787	-2.05
265.004	86.01
265.22	-53.25
265.436	-45.06
265.652	12.29
265.868	26.62
266.084	-30.72
266.3	47.1
266.516	-26.62
266.732	38.91
266.948	-4.1
267.164	28.67
267.38	30.72
267.596	110.59
267.812	86.01
268.028	63.49
268.244	30.72
268.46	8.19
268.676	-2.05
268.892	112.64
269.108	-22.53
269.324	-6.14
269.54	75.77
269.756	100.35
269.972	51.2
270.188	51.2
270.403	-49.15
270.619	88.06
270.835	51.2
271.051	26.62
271.267	-47.1
271.483	32.77
271.698	49.15
271.914	40.96
272.13	2.05
272.346	36.86
272.562	49.15
272.777	47.1
272.993	0
273.209	14.34
273.425	22.53
273.64	71.68
273.856	28.67
274.072	-10.24
274.287	20.48
274.503	49.15
274.719	137.21
274.934	53.25
275.15	-51.2
275.366	49.15
275.581	-18.43
275.797	32.77
276.012	59.39
276.228	16.38
276.444	30.72
276.659	57.34
276.875	0
277.09	16.38
277.306	47.1
277.521	65.54
277.737	24.58
277.952	55.3
278.168	45.06
278.383	79.87
278.599	45.06
278.814	73.73
279.03	32.77
279.245	-36.86
279.461	-18.43
279.676	38.91
279.892	2.05
280.107	4.1
280.322	45.06
280.538	38.91
280.753	-20.48
280.969	112.64
281.184	14.34
281.399	49.15
281.615	8.19
281.83	-20.48
282.045	32.77
282.26	-40.96
282.476	98.3
282.691	75.77
282.906	24.58
283.122	36.86
283.337	57.34
283.552	79.87
283.767	26.62
283.983	98.3
284.198	10.24
284.413	32.77
284.628	77.82
284.843	8.19
285.058	77.82
285.274	90.11
285.489	-6.14
285.704	22.53
285.919	0
286.134	71.68
286.349	8.19
286.564	51.2
286.779	55.3
286.995	40.96
287.21	-8.19
287.425	34.82
287.64	53.25
287.855	32.77
288.07	28.67
288.285	108.54
288.5	38.91
288.715	47.1
288.93	-49.15
289.145	2.05
289.36	77.82
289.575	26.62
289.79	-16.38
290.004	32.77
290.219	63.49
290.434	28.67
290.649	-14.34
290.864	12.29
291.079	-2.05
291.294	45.06
291.509	8.19
291.724	47.1
291.938	-38.91
292.153	57.34
292.368	14.34
292.583	83.97
292.798	96.25
293.012	20.48
293.227	28.67
293.442	-2.05
293.657	24.58
293.871	8.19
294.086	0
294.301	38.91
294.516	0
294.73	26.62
294.945	6.14
295.16	12.29
295.374	94.21
295.589	118.78
295.804	75.77
296.018	-14.34
296.233	51.2
296.447	61.44
296.662	-12.29
296.877	96.25
297.091	71.68
297.306	6.14
297.52	22.53
297.735	49.15
297.949	61.44
298.164	57.34
298.378	-12.29
298.593	75.77
298.807	34.82
299.022	59.39
299.236	6.14
299.451	59.39
299.665	40.96
299.88	-4.1
300.094	73.73
300.309	4.1
300.523	-8.19
300.737	12.29
300.952	-26.62
301.166	86.01
301.381	47.1
301.595	88.06
301.809	73.73
302.024	-14.34
302.238	2.05
302.452	12.29
302.667	63.49
302.881	67.58
303.095	92.16
303.309	14.34
303.524	0
303.738	67.58
303.952	-57.34
304.166	55.3
304.381	-32.77
304.595	116.73
304.809	24.58
305.023	88.06
305.237	57.34
305.452	40.96
305.666	8.19
305.88	28.67
306.094	34.82
306.308	61.44
306.522	43.01
306.736	59.39
306.95	10.24
307.164	36.86
307.379	-14.34
307.593	40.96
307.807	28.67
308.021	81.92
308.235	40.96
308.449	-16.38
308.663	-22.53
308.877	116.73
309.091	0
309.305	45.06
309.519	-28.67
309.733	81.92
309.947	0
310.161	61.44
310.374	61.44
310.588	92.16
310.802	26.62
311.016	86.01
311.23	10.24
311.444	26.62
311.658	6.14
311.872	67.58
312.085	49.15
312.299	30.72
312.513	12.29
312.727	-12.29
312.941	-32.77
313.154	63.49
313.368	-28.67
313.582	-8.19
313.796	-16.38
314.009	36.86
314.223	83.97
314.437	-2.05
314.651	26.62
314.864	2.05
315.078	157.69
315.292	6.14
315.505	45.06
315.719	53.25
315.933	81.92
316.146	65.54
316.36	-45.06
316.573	53.25
316.787	45.06
317.001	14.34
317.214	32.77
317.428	40.96
317.641	-28.67
317.855	10.24
318.068	38.91
318.282	96.25
318.495	57.34
318.709	69.63
318.922	-10.24
319.136	102.4
319.349	114.69
319.563	73.73
319.776	30.72
319.99	-6.14
320.203	38.91
320.417	30.72
320.63	53.25
320.843	51.2
321.057	69.63
321.27	49.15
321.483	-4.1
321.697	126.97
321.91	36.86
322.124	32.77
322.337	47.1
322.55	22.53
322.763	49.15
322.977	16.38
323.19	-6.14
323.403	53.25
323.617	61.44
323.83	43.01
324.043	55.3
324.256	75.77
324.469	32.77
324.683	-10.24
324.896	83.97
325.109	65.54
325.322	71.68
325.535	49.15
325.748	43.01
325.962	26.62
326.175	100.35
326.388	22.53
326.601	73.73
326.814	-24.58
327.027	-28.67
327.24	126.97
327.453	8.19
327.666	61.44
327.879	24.58
328.092	45.06
328.305	57.34
328.518	63.49
328.731	2.05
328.944	26.62
329.157	61.44
329.37	22.53
329.583	45.06
329.796	38.91
330.009	8.19
330.222	-16.38
330.435	12.29
330.648	-51.2
330.861	43.01
331.073	-28.67
331.286	47.1
331.499	34.82
331.712	32.77
331.925	12.29
332.138	43.01
332.35	73.73
332.563	45.06
332.776	53.25
332.989	-24.58
333.202	16.38
333.414	-12.29
333.627	75.77
333.84	47.1
334.053	32.77
334.265	51.2
334.478	20.48
334.691	24.58
334.903	59.39
335.116	75.77
335.329	32.77
335.541	67.58
335.754	28.67
335.966	59.39
336.179	-14.34
336.392	24.58
336.604	-8.19
336.817	112.64
337.029	34.82
337.242	10.24
337.454	73.73
337.667	55.3
337.88	120.83
338.092	18.43
338.305	2.05
338.517	57.34
338.729	53.25
338.942	92.16
339.154	73.73
339.367	-14.34
339.579	61.44
339.792	45.06
340.004	36.86
340.217	-2.05
340.429	32.77
340.641	92.16
340.854	32.77
341.066	8.19
341.278	45.06
341.491	36.86
341.703	79.87
341.915	53.25
342.128	43.01
342.34	69.63
342.552	-30.72
342.764	24.58
342.977	38.91
343.189	18.43
343.401	30.72
343.613	20.48
343.826	-8.19
344.038	14.34
344.25	118.78
344.462	-18.43
344.674	157.69
344.886	-4.1
345.099	47.1
345.311	34.82
345.523	51.2
345.735	45.06
345.947	30.72
346.159	63.49
346.371	22.53
346.583	24.58
346.795	67.58
347.007	63.49
347.219	34.82
347.431	86.01
347.643	141.31
347.855	14.34
348.067	45.06
348.279	10.24
348.491	112.64
348.703	73.73
348.915	28.67
349.127	28.67
349.339	43.01
349.551	-8.19
349.763	63.49
349.975	92.16
350.187	86.01
350.399	32.77
350.61	90.11
350.822	-4.1
351.034	124.93
351.246	30.72
351.458	59.39
351.669	61.44
351.881	88.06
352.093	36.86
352.305	63.49
352.517	38.91
352.728	92.16
352.94	63.49
353.152	22.53
353.363	32.77
353.575	34.82
353.787	57.34
353.999	67.58
354.21	61.44
354.422	10.24
354.633	47.1
354.845	30.72
355.057	77.82
355.268	6.14
355.48	51.2
355.692	-18.43
355.903	40.96
356.115	51.2
356.326	-43.01
356.538	122.88
356.749	-14.34
356.961	65.54
357.172	67.58
357.384	77.82
357.595	92.16
357.807	86.01
358.018	38.91
358.23	69.63
358.441	26.62
358.653	100.35
358.864	16.38
359.075	36.86
359.287	55.3
359.498	100.35
359.709	114.69
359.921	57.34
360.132	-10.24
360.344	6.14
360.555	38.91
360.766	24.58
360.977	0
361.189	61.44
361.4	79.87
361.611	12.29
361.823	40.96
362.034	86.01
362.245	61.44
362.456	59.39
362.667	69.63
362.879	-4.1
363.09	8.19
363.301	57.34
363.512	47.1
363.723	0
363.935	53.25
364.146	30.72
364.357	51.2
364.568	110.59
364.779	-32.77
364.99	94.21
365.201	81.92
365.412	45.06
365.623	-49.15
365.834	8.19
366.045	43.01
366.256	77.82
366.467	-4.1
366.678	79.87
366.889	-12.29
367.1	114.69
367.311	-28.67
367.522	88.06
367.733	20.48
367.944	36.86
368.155	86.01
368.366	90.11
368.577	43.01
368.788	79.87
368.999	43.01
369.209	83.97
369.42	102.4
369.631	110.59
369.842	32.77
370.053	67.58
370.264	65.54
370.474	57.34
370.685	47.1
370.896	22.53
371.107	67.58
371.317	59.39
371.528	32.77
371.739	53.25
371.95	59.39
372.16	77.82
372.371	-8.19
372.582	79.87
372.792	51.2
373.003	77.82
373.214	94.21
373.424	94.21
373.635	14.34
373.846	20.48
374.056	104.45
374.267	67.58
374.477	57.34
374.688	30.72
374.898	47.1
375.109	43.01
375.319	61.44
375.53	22.53
375.74	43.01
375.951	51.2
376.161	51.2
376.372	67.58
376.582	61.44
376.793	102.4
377.003	112.64
377.214	40.96
377.424	8.19
377.635	67.58
377.845	59.39
378.055	79.87
378.266	16.38
378.476	26.62
378.686	49.15
378.897	0
379.107	34.82
379.317	110.59
379.528	75.77
379.738	77.82
379.948	65.54
380.158	137.21
380.369	77.82
380.579	126.97
380.789	73.73
380.999	30.72
381.21	32.77
381.42	61.44
381.63	92.16
381.84	36.86
382.05	-12.29
382.261	129.02
382.471	47.1
382.681	32.77
382.891	51.2
383.101	38.91
383.311	100.35
383.521	94.21
383.731	79.87
383.941	79.87
384.151	90.11
384.361	71.68
384.571	81.92
384.781	79.87
384.991	88.06
385.201	86.01
385.411	77.82
385.621	118.78
385.831	77.82
386.041	53.25
386.251	30.72
386.461	69.63
386.671	71.68
386.881	75.77
387.091	77.82
387.301	57.34
387.511	98.3
387.72	145.41
387.93	71.68
388.14	45.06
388.35	51.2
388.56	75.77
388.769	81.92
388.979	45.06
389.189	63.49
389.399	43.01
389.609	32.77
389.818	18.43
390.028	67.58
390.238	67.58
390.447	45.06
390.657	75.77
390.867	-14.34
391.076	-2.05
391.286	45.06
391.496	79.87
391.705	40.96
391.915	77.82
392.125	63.49
392.334	81.92
392.544	77.82
392.753	141.31
392.963	43.01
393.172	47.1
393.382	32.77
393.591	79.87
393.801	116.73
394.01	112.64
394.22	86.01
394.429	18.43
394.639	57.34
394.848	98.3
395.058	55.3
395.267	57.34
395.477	63.49
395.686	79.87
395.895	104.45
396.105	139.26
396.314	116.73
396.524	-12.29
396.733	194.56
396.942	112.64
397.152	75.77
397.361	118.78
397.57	81.92
397.78	120.83
397.989	69.63
398.198	133.12
398.407	86.01
398.617	169.98
398.826	184.32
399.035	124.93
399.244	118.78
399.453	139.26
399.663	149.5
399.872	122.88
400.081	120.83
400.29	192.51
400.499	96.25
400.708	129.02
400.917	143.36
401.127	96.25
401.336	153.6
401.545	145.41
401.754	116.73
401.963	100.35
402.172	167.93
402.381	83.97
402.59	157.69
402.799	124.93
403.008	176.13
403.217	88.06
403.426	157.69
403.635	172.03
403.844	155.65
404.053	75.77
404.262	161.79
404.471	159.74
404.68	135.17
404.888	116.73
405.097	186.37
405.306	145.41
405.515	190.46
405.724	200.7
405.933	202.75
406.142	190.46
406.35	229.37
406.559	208.89
406.768	153.6
406.977	186.37
407.185	204.8
407.394	268.28
407.603	229.37
407.812	329.72
408.02	262.14
408.229	198.65
408.438	235.52
408.646	204.8
408.855	237.56
409.064	258.04
409.272	321.53
409.481	333.82
409.69	301.05
409.898	290.81
410.107	352.25
410.315	303.1
410.524	323.58
410.733	376.83
410.941	397.31
411.15	409.59
411.358	342.01
411.567	475.13
411.775	464.89
411.984	454.65
412.192	387.07
412.401	407.55
412.609	507.9
412.818	548.86
413.026	514.04
413.234	552.95
413.443	569.34
413.651	555
413.86	532.47
414.068	669.69
414.276	698.36
414.485	696.31
414.693	724.98
414.901	712.69
415.11	753.65
415.318	792.56
415.526	923.63
415.734	831.48
415.943	753.65
416.151	880.63
416.359	862.19
416.567	993.26
416.776	1007.6
416.984	1058.8
417.192	1038.32
417.4	1007.6
417.608	1200.11
417.817	1095.66
418.025	1163.25
418.233	1206.25
418.441	1226.73
418.649	1298.41
418.857	1411.05
419.065	1490.92
419.273	1366
419.481	1409
419.689	1568.74
419.897	1626.09
420.105	1587.18
420.313	1648.61
420.521	1753.06
420.729	1714.15
420.937	1912.8
421.145	1935.33
421.353	2119.65
421.561	1957.86
421.769	2172.89
421.977	2176.99
422.185	2154.46
422.393	2291.68
422.601	2453.47
422.809	2392.03
423.017	2420.7
423.224	2598.87
423.432	2652.12
423.64	2678.74
423.848	2947.03
424.056	2852.82
424.263	3024.85
424.471	3143.63
424.679	3125.2
424.887	3282.89
425.094	3395.53
425.302	3416.01
425.51	3432.4
425.718	3545.03
425.925	3692.49
426.133	3954.63
426.341	4007.87
426.548	4206.53
426.756	4143.04
426.964	4247.49
427.171	4513.72
427.379	4577.21
427.586	4632.51
427.794	4673.46
428.001	5058.48
428.209	5246.9
428.417	5277.62
428.624	5398.45
428.832	5461.93
429.039	5433.26
429.247	5496.75
429.454	6086.56
429.662	6385.57
429.869	6012.84
430.076	6539.16
430.284	6188.96
430.491	6586.27
430.699	6866.84
430.906	7008.15
431.114	7145.36
431.321	7219.09
431.528	7403.41
431.736	7868.3
431.943	8159.11
432.15	8013.7
432.358	8107.91
432.565	8595.32
432.772	8613.76
432.979	8966.01
433.187	8929.14
433.394	9090.93
433.601	9815.91
433.808	9830.25
434.016	9666.41
434.223	10112.87
434.43	10549.09
434.637	10585.95
434.844	11249.49
435.052	11349.84
435.259	11515.73
435.466	11462.48
435.673	11188.05
435.88	12068.68
436.087	12760.89
436.294	12621.63
436.501	12355.4
436.708	12373.83
436.915	12824.38
437.122	13711.15
437.329	13862.7
437.537	13969.19
437.743	14581.54
437.95	14325.54
438.157	15025.95
438.364	15304.47
438.571	15177.5
438.778	15492.88
438.985	16912.13
439.192	16166.67
439.399	16805.63
439.606	16330.5
439.813	17133.31
440.02	18384.62
440.227	18077.42
440.433	17846
440.64	18364.14
440.847	18151.15
441.054	18759.39
441.261	20006.61
441.467	19576.53
441.674	20219.6
441.881	20973.25
442.088	20797.12
442.294	20410.06
442.501	20940.48
442.708	21653.17
442.914	22556.33
443.121	23338.65
443.328	22562.47
443.534	24512.14
443.741	23541.4
443.948	23492.25
444.154	25075.33
444.361	24907.4
444.568	25128.58
444.774	25071.23
444.981	25327.23
445.187	26095.22
445.394	27162.21
445.6	27002.47
445.807	29507.13
446.013	28048.98
446.22	28929.61
446.426	29773.37
446.633	29933.11
446.839	30735.91
447.046	29924.92
447.252	31591.97
447.459	31677.98
447.665	31096.36
447.871	32675.34
448.078	34260.47
448.284	32689.68
448.491	33594.88
448.697	34512.37
448.903	35450.34
449.11	35364.32
449.316	34457.07
449.522	35460.58
449.728	36562.39
449.935	36967.88
450.141	36853.2
450.347	37299.65
450.553	36371.92
450.76	37361.09
450.966	37768.64
451.172	37832.13
451.378	38866.35
451.584	37907.9
451.791	38520.24
451.997	39116.2
452.203	39413.16
452.409	39173.55
452.615	38964.65
452.821	37481.92
453.027	37449.16
453.233	39097.77
453.44	37555.65
453.646	38241.72
453.852	38546.87
454.058	38968.75
454.264	37524.93
454.47	38827.44
454.676	37680.58
454.882	38798.77
455.088	35638.75
455.294	36236.76
455.5	36703.7
455.705	36896.21
455.911	35509.73
456.117	34782.7
456.323	34688.49
456.529	32626.19
456.735	34223.61
456.941	33099.27
457.147	32474.64
457.352	31634.97
457.558	31086.12
457.764	31634.97
457.97	30690.86
458.176	29984.31
458.381	30199.35
458.587	28751.43
458.793	28704.33
458.999	27018.85
459.204	29177.41
459.41	28112.47
459.616	26506.86
459.821	26056.31
460.027	26472.04
460.233	25753.21
460.438	24352.4
460.644	24784.52
460.85	23467.67
461.055	23256.73
461.261	23170.72
461.466	21644.98
461.672	20829.89
461.878	22263.47
462.083	20793.03
462.289	20475.59
462.494	20037.33
462.7	19238.62
462.905	19066.59
463.111	19369.69
463.316	19660.5
463.522	18986.72
463.727	19349.21
463.932	18910.94
464.138	18915.04
464.343	19005.15
464.549	18198.25
464.754	18960.09
464.959	18972.38
465.165	18702.05
465.37	17927.92
465.575	17288.95
465.781	17841.9
465.986	18183.91
466.191	17495.8
466.397	17245.94
466.602	16279.3
466.807	16912.13
467.012	17090.3
467.218	17018.62
467.423	16789.25
467.628	16865.02
467.833	17350.39
468.038	16973.56
468.244	16439.05
468.449	17028.86
468.654	16613.12
468.859	16475.91
469.064	16066.31
469.269	15683.34
469.474	15548.18
469.679	16094.99
469.885	15587.09
470.09	15761.17
470.295	15724.3
470.5	15316.76
470.705	15470.36
470.91	14909.21
471.115	15197.98
471.32	15105.82
471.525	15103.77
471.73	14567.2
471.935	14855.97
472.139	14159.66
472.344	14460.71
472.549	14153.51
472.754	14006.06
472.959	13762.35
473.164	13371.19
473.369	13346.61
473.574	13735.73
473.778	13608.75
473.983	13356.85
474.188	13530.93
474.393	13063.99
474.598	12949.31
474.802	12951.35
475.007	12699.45
475.212	12730.17
475.417	12377.92
475.621	12283.72
475.826	12326.72
476.031	12277.57
476.235	12027.72
476.44	12013.38
476.645	11630.41
476.849	11829.07
477.054	11546.45
477.259	11601.74
477.463	11532.11
477.668	11128.66
477.872	11456.34
478.077	11194.2
478.282	10837.85
478.486	10676.06
478.691	10678.11
478.895	10846.04
479.1	10620.77
479.304	10729.31
479.509	10555.23
479.713	10510.18
479.918	10379.11
480.122	10352.48
480.326	10346.34
480.531	10444.64
480.735	10061.67
480.94	10235.75
481.144	10432.35
481.348	9955.18
481.553	9914.22
481.757	9809.77
481.961	9967.46
482.166	10106.73
482.37	9959.27
482.574	9953.13
482.778	9942.89
482.983	10100.58
483.187	10028.9
483.391	10084.2
483.595	9844.59
483.8	9629.55
484.004	9932.65
484.208	10033
484.412	10071.91
484.616	9799.53
484.821	9858.92
485.025	9852.78
485.229	9873.26
485.433	9842.54
485.637	9858.92
485.841	9881.45
486.045	9607.02
486.249	9856.87
486.453	9854.83
486.657	9865.07
486.861	10012.52
487.065	9807.72
487.269	9826.15
487.473	9908.07
487.677	9877.35
487.881	10047.33
488.085	9817.96
488.289	9899.88
488.493	9971.56
488.697	10145.64
488.901	10088.29
489.105	10073.96
489.309	10198.88
489.512	9975.66
489.716	10014.57
489.92	10008.42
490.124	10157.92
490.328	10229.6
490.531	10041.19
490.735	10184.55
490.939	10346.34
491.143	10254.18
491.346	10258.28
491.55	10137.45
491.754	10456.93
491.958	10532.7
492.161	10215.27
492.365	10641.25
492.569	10340.19
492.772	10446.69
492.976	10669.92
493.18	10631.01
493.383	10692.44
493.587	10839.9
493.79	10891.1
493.994	10788.7
494.197	10608.48
494.401	10921.82
494.605	11001.69
494.808	11196.25
495.012	11087.7
495.215	11284.31
495.419	11306.84
495.622	11241.3
495.825	11468.62
496.029	11575.12
496.232	12058.44
496.436	11831.12
496.639	11820.88
496.843	12265.28
497.046	12330.82
497.249	12283.72
497.453	12177.22
497.656	12355.4
497.859	12441.41
498.063	12609.34
498.266	12900.16
498.469	12914.49
498.673	12963.64
498.876	13344.56
499.079	13608.75
499.282	13377.33
499.485	13770.54
499.689	13678.38
499.892	14001.96
500.095	13934.38
500.298	14432.04
500.501	14380.84
500.705	14597.92
500.908	14702.37
501.111	15007.51
501.314	15175.45
501.517	15302.42
501.72	15441.68
501.923	15484.69
502.126	15812.37
502.329	15943.44
502.532	16215.82
502.735	16250.63
502.938	16486.15
503.141	16307.98
503.344	16998.14
503.547	16615.17
503.75	17075.96
503.953	17532.66
504.156	17731.31
504.359	17901.29
504.562	17800.94
504.765	18147.05
504.968	18517.73
505.17	18652.9
505.373	18570.98
505.576	18935.52
505.779	19230.43
505.982	19353.3
506.185	19732.18
506.387	19920.59
506.59	19748.56
506.793	20377.29
506.996	20494.02
507.198	21036.74
507.401	20969.15
507.604	21186.24
507.807	21358.27
508.009	21749.43
508.212	22136.49
508.415	22132.4
508.617	22415.02
508.82	22447.79
509.022	22611.62
509.225	23078.56
509.428	23078.56
509.63	23541.4
509.833	23662.23
510.035	24143.5
510.238	24100.5
510.44	24645.26
510.643	24985.22
510.845	24977.03
511.048	24966.79
511.25	25249.41
511.453	25529.98
511.655	26429.04
511.858	26109.55
512.06	26136.18
512.262	26758.76
512.465	26707.56
512.667	26887.78
512.87	27311.71
513.072	27440.73
513.274	27987.54
513.477	28333.65
513.679	28100.18
513.881	28671.56
514.084	29271.62
514.286	29511.23
514.488	29646.4
514.69	30228.02
514.893	30420.53
515.095	30311.99
515.297	31108.65
515.499	30860.84
515.701	31458.85
515.904	31471.14
516.106	31829.53
516.308	32257.56
516.51	32607.76
516.712	32521.74
516.914	33062.41
517.116	33572.35
517.318	33449.47
517.52	34045.43
517.722	34166.26
517.925	34123.26
518.127	34760.17
518.329	35128.81
518.531	35100.14
518.733	36113.88
518.935	35884.51
519.136	36210.14
519.338	36593.11
519.54	36953.55
519.742	37283.27
519.944	37334.47
520.146	37750.21
520.348	38241.72
520.55	38274.49
520.752	38254.01
520.954	39019.95
521.155	39263.66
521.357	39421.35
521.559	39935.39
521.761	39949.73
521.963	40191.39
522.164	40154.52
522.366	40560.02
522.568	40938.9
522.77	41151.88
522.971	41764.23
523.173	41307.53
523.375	42081.66
523.576	41799.04
523.778	41999.74
523.98	42919.28
524.181	43167.09
524.383	43119.98
524.584	43124.08
524.786	43365.74
524.988	42995.06
525.189	43720.04
525.391	44070.24
525.592	44258.65
525.794	44621.14
525.995	44471.64
526.197	44471.64
526.398	44293.47
526.6	45159.76
526.801	44811.6
527.003	45458.76
527.204	44856.66
527.406	45679.94
527.607	45598.02
527.808	46257.47
528.01	45329.74
528.211	46179.65
528.412	47009.07
528.614	46337.34
528.815	46234.94
529.016	46927.16
529.218	46255.42
529.419	46843.19
529.62	46796.09
529.822	46587.19
530.023	46630.2
530.224	47113.52
530.425	46810.42
530.626	46658.87
530.828	46519.61
531.029	47428.91
531.23	46775.61
531.431	47105.33
531.632	46972.21
531.833	47025.46
532.035	47248.69
532.236	47000.88
532.437	47551.79
532.638	47195.44
532.839	47873.32
533.04	47709.48
533.241	47174.96
533.442	48053.54
533.643	47543.59
533.844	47217.97
534.045	48006.44
534.246	46773.56
534.447	47578.41
534.648	47224.11
534.849	47795.49
535.05	46677.3
535.251	47066.42
535.451	46949.68
535.652	47963.43
535.853	47809.83
536.054	47410.48
536.255	47273.26
536.456	46667.06
536.657	47942.95
536.857	46783.8
537.058	47179.06
537.259	47365.42
537.46	47559.98
537.66	46931.25
537.861	47105.33
538.062	47035.7
538.263	47062.32
538.463	46853.43
538.664	46646.58
538.865	47265.07
539.065	47050.03
539.266	46443.84
539.466	47107.38
539.667	46208.32
539.868	47134
540.068	46910.77
540.269	46722.36
540.469	46849.33
540.67	46396.73
540.87	46361.92
541.071	46294.33
541.271	46744.89
541.472	46396.73
541.672	46828.85
541.873	46335.29
542.073	45788.49
542.274	46624.06
542.474	45954.37
542.675	45993.28
542.875	46667.06
543.075	46017.86
543.276	45688.13
543.476	46249.28
543.676	45927.75
543.877	46052.67
544.077	46327.1
544.277	45911.36
544.478	46488.89
544.678	46089.54
544.878	46159.17
545.078	46374.2
545.279	45931.84
545.479	46107.97
545.679	46232.89
545.879	45894.98
546.079	45673.8
546.28	45989.19
546.48	45473.1
546.68	45911.36
546.88	46363.96
547.08	45899.08
547.28	45757.77
547.48	45292.88
547.68	45937.99
547.88	45352.27
548.081	45692.23
548.281	45788.49
548.481	45448.52
548.681	46136.64
548.881	45395.28
549.081	45815.11
549.28	45460.81
549.48	45972.8
549.68	45518.15
549.88	45692.23
550.08	45382.99
550.28	45917.51
550.48	45370.7
550.68	45804.87
550.88	45313.36
551.08	45552.97
551.279	45659.46
551.479	45065.55
551.679	45645.13
551.879	45481.29
552.079	45497.67
552.278	45043.02
552.478	45481.29
552.678	45258.06
552.878	45387.08
553.077	45479.24
553.277	44766.55
553.477	45600.07
553.676	45223.25
553.876	45368.65
554.076	45040.98
554.275	45083.98
554.475	44420.44
554.674	45210.96
554.874	44871
555.074	44926.29
555.273	45411.66
555.473	45010.26
555.672	45086.03
555.872	44832.08
556.071	45079.89
556.271	45247.82
556.47	44762.45
556.67	44395.87
556.869	45006.16
557.068	44971.35
557.268	44137.82
557.467	44477.79
557.667	44324.19
557.866	44365.15
558.065	44240.22
558.265	43963.75
558.464	44209.5
558.663	44574.04
558.863	44062.05
559.062	44610.9
559.261	44303.71
559.461	44442.97
559.66	44100.96
559.859	43840.87
560.058	43767.14
560.258	44000.61
560.457	43363.69
560.656	44143.97
560.855	43685.22
561.054	43986.27
561.253	43363.69
561.453	43902.31
561.652	43965.79
561.851	43971.94
562.05	43761
562.249	43294.06
562.448	43429.23
562.647	43631.97
562.846	43353.45
563.045	43541.86
563.244	42798.45
563.443	43523.43
563.642	42429.82
563.841	42950
564.04	42712.44
564.239	42952.05
564.438	42616.18
564.637	42462.58
564.836	42780.02
565.035	42358.14
565.234	42212.73
565.432	42247.55
565.631	42046.85
565.83	42390.91
566.029	41366.92
566.228	41610.63
566.427	41618.82
566.625	41612.68
566.824	41188.75
567.023	41696.64
567.222	41203.08
567.42	41647.49
567.619	41241.99
567.818	40785.3
568.016	41004.43
568.215	41172.36
568.414	40852.88
568.612	40945.04
568.811	41022.86
569.01	40820.11
569.208	40344.98
569.407	40557.97
569.605	39886.24
569.804	40801.68
570.002	39957.92
570.201	40461.72
570.4	39898.53
570.598	39863.71
570.797	39146.92
570.995	39679.39
571.193	39169.45
571.392	39517.6
571.59	39271.85
571.789	38987.18
571.987	38976.94
572.186	38722.99
572.384	38602.16
572.582	38890.93
572.781	38788.53
572.979	38321.59
573.177	38735.28
573.376	38677.94
573.574	38122.94
573.772	38231.48
573.971	38094.27
574.169	38141.37
574.367	37479.88
574.565	38102.46
574.763	37553.6
574.962	37555.65
575.16	37326.28
575.358	37225.93
575.556	36754.9
575.754	37653.95
575.952	36992.46
576.151	37397.96
576.349	36554.19
576.547	36609.49
576.745	36771.28
576.943	36414.93
577.141	36236.76
577.339	36629.97
577.537	36101.59
577.735	36425.17
577.933	35790.3
578.131	36025.82
578.329	35675.62
578.527	35812.83
578.725	35808.73
578.923	35399.14
579.121	35255.78
579.319	35368.42
579.516	35493.35
579.714	35491.3
579.912	35306.98
580.11	34907.63
580.308	34885.1
580.506	34911.72
580.704	34045.43
580.901	34844.14
581.099	34833.9
581.297	34190.84
581.495	34420.21
581.692	34401.78
581.89	33983.99
582.088	34201.08
582.285	33854.97
582.483	33721.85
582.681	33983.99
582.878	33635.84
583.076	33385.99
583.274	33637.89
583.471	32833.03
583.669	33175.05
583.866	32826.89
584.064	33039.88
584.262	32982.54
584.459	32943.63
584.657	32960.01
584.854	32945.67
585.052	32720.4
585.249	32652.81
585.447	32419.35
585.644	32378.39
585.841	32290.32
586.039	32323.09
586.236	32050.71
586.434	31850.01
586.631	31667.74
586.828	31970.84
587.026	31764
587.223	31577.63
587.42	31624.73
587.618	31727.13
587.815	31067.69
588.012	31176.23
588.21	30840.36
588.407	31446.56
588.604	31235.62
588.801	30768.68
588.999	30893.61
589.196	30883.37
589.393	30553.65
589.59	30740.01
589.787	30393.9
589.984	30414.38
590.182	30289.46
590.379	30238.26
590.576	29832.76
590.773	30107.19
590.97	29918.78
591.167	30064.18
591.364	29597.24
591.561	29886.01
591.758	29679.16
591.955	29636.16
592.152	29834.81
592.349	29605.44
592.546	29566.52
592.743	29511.23
592.94	28962.37
593.137	29419.07
593.334	29046.34
593.531	28784.2
593.727	29349.44
593.924	28884.55
594.121	28696.14
594.318	28991.05
594.515	28341.84
594.712	28747.34
594.908	28053.08
595.105	28419.66
595.302	28188.24
595.499	28560.97
595.696	28059.22
595.892	28010.07
596.089	28481.1
596.286	27971.16
596.482	27856.47
596.679	27844.18
596.876	27762.26
597.072	27510.36
597.269	28018.26
597.466	27518.56
597.662	27416.16
597.859	27235.94
598.055	27514.46
598.252	27332.19
598.448	27098.72
598.645	27104.87
598.841	26664.55
599.038	27096.67
599.234	27010.66
599.431	26744.42
599.627	26521.2
599.824	26539.63
600.02	26515.05
600.217	26639.98
600.413	26603.11
600.609	26279.53
600.806	26201.71
601.002	26349.17
601.198	25857.65
601.395	25859.7
601.591	25990.77
601.787	26140.27
601.984	26044.02
602.18	26011.25
602.376	25695.86
602.572	25654.9
602.769	25843.32
602.965	25511.55
603.161	25691.77
603.357	25235.07
603.553	25183.87
603.75	25380.48
603.946	25114.24
604.142	25513.59
604.338	24587.91
604.534	25360
604.73	24741.51
604.926	24944.26
605.122	24999.55
605.318	24686.22
605.514	24647.3
605.71	24688.26
605.906	24467.08
606.102	24700.55
606.298	24411.79
606.494	24374.92
606.69	24153.74
606.886	24319.63
607.082	23965.33
607.278	24350.35
607.474	24051.34
607.67	24071.82
607.866	23748.25
608.062	24118.93
608.257	23817.88
608.453	23750.29
608.649	23879.32
608.845	23426.71
609.041	23402.14
609.236	23764.63
609.432	23565.98
609.628	23692.95
609.824	23371.42
610.019	23156.38
610.215	23824.02
610.411	23424.67
610.606	23236.25
610.802	23531.16
610.998	23193.25
611.193	22896.29
611.389	23060.13
611.584	23164.57
611.78	22924.96
611.976	23248.54
612.171	22853.28
612.367	22777.51
612.562	22859.43
612.758	22400.68
612.953	22570.66
613.149	22775.46
613.344	22597.29
613.539	22742.69
613.735	22724.26
613.93	22810.28
614.126	22009.52
614.321	22603.43
614.517	22351.53
614.712	22261.42
614.907	22134.45
615.103	22406.83
615.298	22142.64
615.493	22132.4
615.688	21905.07
615.884	22253.23
616.079	21821.11
616.274	22249.13
616.47	21806.77
616.665	22064.82
616.86	21978.8
617.055	21847.73
617.25	21640.89
617.445	22015.66
617.641	21407.42
617.836	21597.88
618.031	21345.98
618.226	21511.86
618.421	21259.96
618.616	21573.3
618.811	21163.71
619.006	21341.88
619.201	20893.38
619.396	20999.87
619.591	20582.09
619.786	20819.65
619.981	20448.97
620.176	20977.34
620.371	20477.64
620.566	20448.97
620.761	20494.02
620.956	20362.95
621.151	20074.19
621.346	20342.47
621.541	19842.77
621.735	20180.68
621.93	19640.02
622.125	20029.13
622.32	19594.97
622.515	19953.36
622.709	19574.49
622.904	19369.69
623.099	19250.91
623.294	19234.52
623.488	19074.78
623.683	19076.83
623.878	18652.9
624.072	18562.79
624.267	18849.5
624.462	18620.13
624.656	18568.93
624.851	18667.24
625.046	18093.8
625.24	18253.55
625.435	17962.73
625.629	17940.21
625.824	17958.64
626.018	17944.3
626.213	17391.35
626.407	17516.28
626.602	17757.94
626.796	17581.81
626.991	17471.22
627.185	17350.39
627.38	17194.75
627.574	17004.28
627.768	16957.18
627.963	16830.21
628.157	16703.23
628.352	16940.8
628.546	16494.34
628.74	16453.38
628.935	16447.24
629.129	16457.48
629.323	16334.6
629.517	16234.25
629.712	15980.3
629.906	16086.79
630.1	15736.59
630.294	15875.85
630.489	15863.57
630.683	15718.16
630.877	15669.01
631.071	15669.01
631.265	15486.74
631.459	15298.33
631.653	15247.13
631.848	15329.05
632.042	14980.89
632.236	15161.11
632.43	15200.02
632.624	15187.74
632.818	15050.52
633.012	14642.98
633.206	14602.02
633.4	14819.1
633.594	14499.62
633.788	14782.24
633.982	14503.71
634.176	14358.31
634.369	14237.48
634.563	14116.65
634.757	14059.31
634.951	14104.36
635.145	14006.06
635.339	13938.48
635.533	13965.1
635.726	14036.78
635.92	13647.66
636.114	13666.1
636.308	13659.95
636.501	13553.46
636.695	13655.86
636.889	13330.23
637.083	13399.86
637.276	13281.08
637.47	13178.68
637.664	13133.62
637.857	13014.84
638.051	12896.06
638.244	12830.52
638.438	12859.2
638.632	12474.18
638.825	12359.49
639.019	12592.96
639.212	12500.8
639.406	12283.72
639.599	12220.23
639.793	12185.41
639.986	12234.57
640.18	12230.47
640.373	12267.33
640.567	12013.38
640.76	12066.63
640.954	11734.86
641.147	11595.6
641.34	11736.91
641.534	11755.34
641.727	11452.24
641.92	11546.45
642.114	11247.44
642.307	11487.06
642.5	11206.49
642.694	10960.73
642.887	11157.33
643.08	11249.49
643.273	11052.89
643.467	10882.91
643.66	11050.84
643.853	10954.58
644.046	10753.88
644.239	10678.11
644.432	10645.34
644.626	10510.18
644.819	10493.79
645.012	10377.06
645.205	10428.26
645.398	10428.26
645.591	10458.98
645.784	10307.43
645.977	10225.51
646.17	10377.06
646.363	10141.54
646.556	9992.04
646.749	9707.37
646.942	9844.59
647.135	9756.52
647.328	9852.78
647.521	9748.33
647.714	9619.31
647.907	9543.53
648.099	9441.14
648.292	9475.95
648.485	9348.98
648.678	9340.79
648.871	9189.24
649.064	9191.28
649.256	9308.02
649.449	9017.21
649.642	9076.6
649.835	9002.87
650.027	9025.4
650.22	8853.37
650.413	8914.81
650.605	8769.4
650.798	8808.31
650.991	8767.35
651.183	8705.92
651.376	8560.51
651.568	8699.77
651.761	8443.78
651.954	8542.08
652.146	8716.16
652.339	8251.27
652.531	8492.93
652.724	8314.75
652.916	8179.59
653.109	8079.24
653.301	8181.64
653.494	8085.38
653.686	7931.78
653.879	8157.06
654.071	8128.39
654.263	7915.4
654.456	7999.37
654.648	7901.06
654.84	7759.75
655.033	7632.78
655.225	7763.85
655.417	7686.03
655.61	7731.08
655.802	7817.1
655.994	7595.92
656.186	7600.01
656.379	7460.75
656.571	7446.41
656.763	7538.57
656.955	7264.15
657.148	7419.79
657.34	7315.34
657.532	7098.26
657.724	7407.5
657.916	7258
658.108	7217.04
658.3	7124.88
658.492	7149.46
658.684	7204.75
658.876	6989.72
659.068	7038.87
659.26	6930.33
659.452	6918.04
659.644	6875.03
659.836	6635.42
660.028	6653.85
660.22	6700.95
660.412	6737.82
660.604	6694.81
660.796	6666.14
660.988	6551.45
661.18	6479.77
661.372	6449.05
661.563	6479.77
661.755	6565.79
661.947	6426.53
662.139	6262.69
662.331	6563.74
662.522	6207.39
662.714	6313.89
662.906	6100.9
663.097	6279.07
663.289	6172.58
663.481	6244.26
663.673	6133.67
663.864	5951.4
664.056	5957.54
664.247	5902.25
664.439	5820.33
664.631	5996.45
664.822	5949.35
665.014	5828.52
665.205	5840.81
665.397	5883.81
665.588	5771.18
665.78	5703.59
665.971	5568.43
666.163	5709.74
666.354	5709.74
666.546	5580.71
666.737	5562.28
666.929	5660.59
667.12	5676.97
667.311	5719.98
667.503	5531.56
667.694	5627.82
667.885	5588.91
668.077	5238.7
668.268	5355.44
668.459	5451.69
668.651	5304.24
668.842	5447.6
669.033	5212.08
669.224	5328.81
669.416	5269.42
669.607	5285.81
669.798	5205.94
669.989	5255.09
670.18	5097.39
670.371	5044.15
670.563	5240.75
670.754	5068.72
670.945	4941.75
671.136	5156.79
671.327	5156.79
671.518	5046.2
671.709	5054.39
671.9	5130.16
672.091	5046.2
672.282	5042.1
672.473	5103.54
672.664	4880.31
672.855	5074.87
673.046	4976.56
673.237	4964.28
673.428	5001.14
673.619	5042.1
673.809	4931.51
674	4898.74
674.191	4796.34
674.382	4925.36
674.573	4739
674.764	4825.01
674.954	4681.66
675.145	4769.72
675.336	4777.91
675.527	4761.53
675.717	4745.14
675.908	4749.24
676.099	4728.76
676.289	4626.36
676.48	4628.41
676.671	4657.08
676.861	4562.87
677.052	4589.5
677.243	4652.99
677.433	4544.44
677.624	4652.99
677.814	4575.16
678.005	4523.96
678.195	4607.93
678.386	4616.12
678.576	4458.43
678.767	4562.87
678.957	4718.52
679.148	4624.31
679.338	4558.78
679.529	4573.11
679.719	4523.96
679.909	4714.42
680.1	4505.53
680.29	4472.76
680.481	4440
680.671	4431.8
680.861	4517.82
681.052	4552.63
681.242	4415.42
681.432	4661.18
681.622	4394.94
681.813	4507.58
682.003	4382.65
682.193	4528.06
682.383	4507.58
682.573	4433.85
682.764	4431.8
682.954	4472.76
683.144	4581.31
683.334	4548.54
683.524	4464.57
683.714	4505.53
683.904	4333.5
684.094	4388.8
684.284	4399.04
684.474	4511.68
684.664	4444.09
684.854	4360.13
685.044	4409.28
685.234	4280.25
685.424	4401.08
685.614	4296.64
685.804	4399.04
685.994	4462.52
686.184	4388.8
686.374	4345.79
686.564	4298.69
686.753	4249.54
686.943	4313.02
687.133	4255.68
687.323	4229.06
687.513	4245.44
687.702	4190.14
687.892	4284.35
688.082	4280.25
688.272	4284.35
688.461	4065.22
688.651	4159.42
688.841	4282.3
689.03	4239.3
689.22	4087.75
689.41	4173.76
689.599	4173.76
689.789	4239.3
689.979	4132.8
690.168	4147.14
690.358	3977.16
690.547	4046.79
690.737	3923.91
690.926	4052.93
691.116	3915.72
691.305	4054.98
691.495	3833.8
691.684	4011.97
691.874	3921.86
692.063	4022.21
692.252	3913.67
692.442	3848.13
692.631	3903.43
692.82	3911.62
693.01	3860.42
693.199	3844.04
693.388	3893.19
693.578	3942.34
693.767	3934.15
693.956	3807.17
694.146	3749.83
694.335	3809.22
694.524	3837.89
694.713	3928
694.902	3760.07
695.092	3891.14
695.281	3715.02
695.47	3831.75
695.659	3852.23
695.848	3743.69
696.037	3811.27
696.226	3725.26
696.415	3784.65
696.604	3829.7
696.793	3856.33
696.982	3665.86
697.171	3866.57
697.36	3913.67
697.549	3731.4
697.738	3712.97
697.927	3723.21
698.116	3747.78
698.305	3692.49
698.494	3758.02
698.683	3835.85
698.872	3784.65
699.061	3680.2
699.25	3659.72
699.438	3696.58
699.627	3502.03
699.816	3682.25
700.005	3737.54
700.193	3696.58
700.382	3637.19
700.571	3764.17
700.76	3585.99
700.948	3618.76
701.137	3569.61
701.326	3624.9
701.514	3510.22
701.703	3542.99
701.892	3561.42
702.08	3643.34
702.269	3688.39
702.457	3540.94
702.646	3729.35
702.834	3635.14
703.023	3409.87
703.212	3659.72
703.4	3448.78
703.589	3454.92
703.777	3538.89
703.965	3454.92
704.154	3430.35
704.342	3454.92
704.531	3413.96
704.719	3475.4
704.907	3618.76
705.096	3338.19
705.284	3461.07
705.472	3461.07
705.661	3583.95
705.849	3534.79
706.037	3368.91
706.226	3413.96
706.414	3485.64
706.602	3313.61
706.79	3481.55
706.979	3223.5
707.167	3409.87
707.355	3217.36
707.543	3370.96
707.731	3280.85
707.919	3383.24
708.107	3385.29
708.296	3252.17
708.484	3305.42
708.672	3368.91
708.86	3241.93
709.048	3332.05
709.236	3203.02
709.424	3151.82
709.612	3364.81
709.8	3258.32
709.988	3186.64
710.176	3268.56
710.364	3172.3
710.551	3225.55
710.739	3207.12
710.927	3121.1
711.115	3108.82
711.303	3299.28
711.491	3186.64
711.679	3049.43
711.866	3198.93
712.054	3139.54
712.242	3123.15
712.43	3157.97
712.617	3100.62
712.805	3112.91
712.993	3035.09
713.181	3188.69
713.368	3221.45
713.556	3030.99
713.744	2920.4
713.931	2963.41
714.119	3098.58
714.306	2930.64
714.494	2996.18
714.682	2963.41
714.869	3114.96
715.057	3088.34
715.244	2971.6
715.432	2881.49
715.619	2863.06
715.807	2863.06
715.994	2957.27
716.182	2906.07
716.369	2916.31
716.556	2910.16
716.744	2867.16
716.931	2910.16
717.119	2873.3
717.306	2901.97
717.493	2789.33
717.681	2844.63
717.868	2811.86
718.055	2756.57
718.242	2893.78
718.43	2856.92
718.617	2750.42
718.804	2846.68
718.991	2887.64
719.179	2998.23
719.366	2775
719.553	2795.48
719.74	2742.23
719.927	2637.78
720.114	2725.85
720.301	2807.77
720.488	2668.5
720.676	2650.07
720.863	2744.28
721.05	2713.56
721.237	2691.03
721.424	2754.52
721.611	2697.17
721.798	2691.03
721.985	2678.74
722.172	2566.1
722.358	2648.02
722.545	2715.61
722.732	2566.1
722.919	2686.94
723.106	2605.02
723.293	2539.48
723.48	2424.8
723.667	2627.54
723.853	2537.43
724.04	2562.01
724.227	2645.98
724.414	2641.88
724.6	2568.15
724.787	2349.02
724.974	2619.35
725.161	2500.57
725.347	2471.9
725.534	2385.88
725.72	2439.13
725.907	2377.69
726.094	2506.71
726.28	2523.1
726.467	2432.99
726.653	2443.23
726.84	2373.6
727.027	2461.66
727.213	2324.44
727.4	2373.6
727.586	2508.76
727.773	2396.12
727.959	2363.36
728.145	2426.84
728.332	2371.55
728.518	2334.68
728.705	2392.03
728.891	2297.82
729.077	2392.03
729.264	2340.83
729.45	2324.44
729.636	2205.66
729.823	2435.03
730.009	2375.64
730.195	2322.4
730.382	2340.83
730.568	2256.86
730.754	2361.31
730.94	2316.25
731.126	2209.76
731.313	2326.49
731.499	2275.29
731.685	2133.98
731.871	2404.32
732.057	2328.54
732.243	2129.89
732.429	2344.92
732.615	2191.33
732.801	2306.01
732.987	2271.2
733.173	2189.28
733.359	2232.29
733.545	2060.26
733.731	2154.46
733.917	2183.13
734.103	2242.53
734.289	2150.37
734.475	2230.24
734.661	2279.39
734.847	2088.93
735.033	2187.23
735.219	2027.49
735.404	2017.25
735.59	2187.23
735.776	2111.46
735.962	2136.03
736.148	2146.27
736.333	2086.88
736.519	2105.31
736.705	2138.08
736.89	2133.98
737.076	2021.35
737.262	2023.39
737.447	2101.22
737.633	2009.06
737.819	2121.7
738.004	2115.55
738.19	2123.74
738.375	2084.83
738.561	2019.3
738.747	2105.31
738.932	2035.68
739.118	2072.54
739.303	1955.81
739.489	1990.63
739.674	1949.67
739.859	2111.46
740.045	1974.24
740.23	1984.48
740.416	1873.89
740.601	1978.34
740.786	1980.39
740.972	1886.18
741.157	1939.43
741.342	1806.31
741.528	1982.43
741.713	1865.7
741.898	1959.91
742.084	1937.38
742.269	1943.52
742.454	1898.47
742.639	1894.37
742.824	1849.32
743.01	1777.64
743.195	1927.14
743.38	1822.69
743.565	1898.47
743.75	1814.5
743.935	1740.77
744.12	1767.4
744.305	1771.49
744.49	1853.41
744.675	1759.21
744.86	1820.64
745.045	1822.69
745.23	1779.68
745.415	1751.01
745.6	1728.49
745.785	1720.29
745.97	1814.5
746.155	1726.44
746.34	1660.9
746.525	1554.41
746.71	1740.77
746.895	1599.46
747.079	1695.72
747.264	1546.22
747.449	1654.76
747.634	1628.14
747.819	1535.98
748.003	1638.38
748.188	1570.79
748.373	1564.65
748.557	1507.31
748.742	1490.92
748.927	1449.96
749.111	1525.74
749.296	1433.58
749.481	1515.5
749.665	1552.36
749.85	1546.22
750.034	1492.97
750.219	1425.39
750.404	1304.56
750.588	1429.48
750.773	1423.34
750.957	1452.01
751.141	1380.33
751.326	1419.24
751.51	1396.71
751.695	1454.06
751.879	1390.57
752.064	1320.94
752.248	1284.08
752.432	1357.8
752.617	1312.75
752.801	1263.6
752.985	1333.23
753.17	1333.23
753.354	1288.17
753.538	1325.04
753.722	1300.46
753.907	1216.49
754.091	1185.77
754.275	1269.74
754.459	1290.22
754.643	1185.77
754.828	1251.31
755.012	1181.68
755.196	1171.44
755.38	1228.78
755.564	1150.96
755.748	1224.69
755.932	1212.4
756.116	1171.44
756.3	1142.77
756.484	1181.68
756.668	1175.53
756.852	1101.81
757.036	1042.42
757.22	1083.38
757.404	1120.24
757.588	1112.05
757.772	1124.33
757.956	1107.95
758.14	1089.52
758.323	1042.42
758.507	1038.32
758.691	1105.9
758.875	1101.81
759.059	1122.29
759.242	1030.13
759.426	1009.65
759.61	1087.47
759.794	980.98
759.977	993.26
760.161	1003.5
760.345	997.36
760.528	1001.46
760.712	1077.23
760.895	948.21
761.079	999.41
761.263	991.22
761.446	999.41
761.63	935.92
761.813	946.16
761.997	944.11
762.18	929.78
762.364	999.41
762.547	868.34
762.731	1034.22
762.914	964.59
763.098	958.45
763.281	991.22
763.464	927.73
763.648	874.48
763.831	927.73
764.015	954.35
764.198	954.35
764.381	825.33
764.564	917.49
764.748	831.48
764.931	890.87
765.114	831.48
765.297	862.19
765.481	874.48
765.664	802.8
765.847	808.95
766.03	796.66
766.213	829.43
766.397	800.76
766.58	819.19
766.763	823.28
766.946	841.72
767.129	759.8
767.312	894.96
767.495	802.8
767.678	772.08
767.861	774.13
768.044	811
768.227	716.79
768.41	872.43
768.593	874.48
768.776	903.15
768.959	733.17
769.142	786.42
769.324	743.41
769.507	770.04
769.69	743.41
769.873	724.98
770.056	813.04
770.239	651.25
770.421	841.72
770.604	800.76
770.787	751.6
770.97	745.46
771.152	788.47
771.335	673.78
771.518	708.6
771.7	720.89
771.883	688.12
772.066	694.26
772.248	731.12
772.431	679.93
772.613	737.27
772.796	698.36
772.978	720.89
773.161	749.56
773.343	710.65
773.526	608.25
773.708	641.01
773.891	702.45
774.073	608.25
774.256	626.68
774.438	776.18
774.621	704.5
774.803	645.11
774.985	600.05
775.168	665.59
775.35	710.65
775.532	591.86
775.715	610.29
775.897	673.78
776.079	649.21
776.261	598.01
776.444	616.44
776.626	616.44
776.808	620.53
776.99	620.53
777.173	526.33
777.355	673.78
777.537	602.1
777.719	604.15
777.901	546.81
778.083	561.14
778.265	585.72
778.447	647.16
778.629	458.75
778.811	555
778.993	571.38
779.175	520.18
779.357	550.9
779.539	602.1
779.721	602.1
779.903	550.9
780.085	520.18
780.267	473.08
780.449	440.31
780.631	548.86
780.812	536.57
780.994	511.99
781.176	460.79
781.358	493.56
781.54	456.7
781.721	491.51
781.903	485.37
782.085	440.31
782.267	460.79
782.448	419.83
782.63	452.6
782.812	436.22
782.993	491.51
783.175	468.98
783.357	423.93
783.538	411.64
783.72	434.17
783.901	468.98
784.083	405.5
784.264	485.37
784.446	452.6
784.627	440.31
784.809	409.59
784.99	479.22
785.172	440.31
785.353	370.68
785.535	374.78
785.716	413.69
785.897	337.91
786.079	358.39
786.26	389.11
786.441	329.72
786.623	280.57
786.804	411.64
786.985	323.58
787.167	432.12
787.348	354.3
787.529	342.01
787.71	393.21
787.891	411.64
788.073	354.3
788.254	342.01
788.435	342.01
788.616	356.35
788.797	288.76
788.978	305.15
789.159	321.53
789.34	321.53
789.522	337.91
789.703	360.44
789.884	346.11
790.065	319.48
790.246	358.39
790.427	313.34
790.607	323.58
790.788	337.91
790.969	393.21
791.15	278.52
791.331	268.28
791.512	335.87
791.693	294.91
791.874	223.23
792.054	333.82
792.235	157.69
792.416	225.28
792.597	251.9
792.778	282.62
792.958	317.44
793.139	313.34
793.32	292.86
793.5	288.76
793.681	348.15
793.862	221.18
794.042	299
794.223	260.09
794.404	319.48
794.584	258.04
794.765	217.08
794.945	264.19
795.126	256
795.306	352.25
795.487	221.18
795.667	253.95
795.848	315.39
796.028	303.1
796.209	280.57
796.389	260.09
796.57	221.18
796.75	155.65
796.93	294.91
797.111	229.37
797.291	274.43
797.471	274.43
797.652	233.47
797.832	204.8
798.012	299
798.192	247.8
798.373	186.37
798.553	202.75
798.733	221.18
798.913	237.56
799.093	155.65
799.274	237.56
799.454	172.03
799.634	221.18
799.814	249.85
799.994	245.76
800.174	237.56
800.354	235.52
800.534	122.88
800.714	227.32
800.894	174.08
801.074	194.56
801.254	253.95
801.434	217.08
801.614	102.4
801.794	260.09
801.974	645.11
802.154	180.22
802.334	174.08
802.514	169.98
802.693	237.56
802.873	219.13
803.053	196.61
803.233	161.79
803.413	227.32
803.592	163.84
803.772	249.85
803.952	129.02
804.131	178.17
804.311	202.75
804.491	200.7
804.67	165.89
804.85	208.89
805.03	266.24
805.209	194.56
805.389	176.13
805.568	237.56
805.748	163.84
805.928	190.46
806.107	139.26
806.287	180.22
806.466	194.56
806.646	215.04
806.825	235.52
807.004	157.69
807.184	161.79
807.363	157.69
807.543	206.84
807.722	122.88
807.901	112.64
808.081	243.71
808.26	190.46
808.439	161.79
808.619	237.56
808.798	204.8
808.977	219.13
809.156	161.79
809.336	194.56
809.515	100.35
809.694	141.31
809.873	79.87
810.052	167.93
810.231	206.84
810.411	161.79
810.59	163.84
810.769	153.6
810.948	192.51
811.127	100.35
811.306	100.35
811.485	223.23
811.664	75.77
811.843	98.3
812.022	118.78
812.201	71.68
812.38	157.69
812.559	118.78
812.737	167.93
812.916	24.58
813.095	133.12
813.274	65.54
813.453	104.45
813.632	98.3
813.811	153.6
813.989	153.6
814.168	53.25
814.347	157.69
814.526	98.3
814.704	131.07
814.883	126.97
815.062	122.88
815.24	147.45
815.419	112.64
815.598	163.84
815.776	-4.1
815.955	94.21
816.133	47.1
816.312	108.54
816.49	114.69
816.669	94.21
816.847	51.2
817.026	104.45
817.204	131.07
817.383	120.83
817.561	167.93
817.74	139.26
817.918	133.12
818.097	94.21
818.275	81.92
818.453	194.56
818.632	155.65
818.81	106.49
818.988	77.82
819.167	124.93
819.345	141.31
819.523	75.77
819.701	98.3
819.879	100.35
820.058	114.69
820.236	124.93
820.414	126.97
820.592	69.63
820.77	114.69
820.948	94.21
821.127	106.49
821.305	112.64
821.483	77.82
821.661	126.97
821.839	61.44
822.017	77.82
822.195	151.55
822.373	122.88
822.551	67.58
822.729	126.97
822.907	102.4
823.085	100.35
823.262	100.35
823.44	53.25
823.618	90.11
823.796	73.73
823.974	102.4
824.152	8.19
824.329	10.24
824.507	120.83
824.685	135.17
824.863	135.17
825.04	81.92
825.218	192.51
825.396	90.11
825.574	102.4
825.751	141.31
825.929	110.59
826.107	94.21
826.284	96.25
826.462	114.69
826.639	53.25
826.817	100.35
826.994	120.83
827.172	126.97
827.349	151.55
827.527	104.45
827.704	45.06
827.882	155.65
828.059	83.97
828.237	10.24
828.414	40.96
828.591	40.96
828.769	88.06
828.946	63.49
829.124	155.65
829.301	28.67
829.478	92.16
829.655	153.6
829.833	129.02
830.01	69.63
830.187	59.39
830.364	26.62
830.542	108.54
830.719	106.49
830.896	92.16
831.073	45.06
831.25	139.26
831.427	77.82
831.604	18.43
831.782	47.1
831.959	112.64
832.136	53.25
832.313	38.91
832.49	71.68
832.667	104.45
832.844	8.19
833.021	122.88
833.198	71.68
833.374	79.87
833.551	104.45
833.728	90.11
833.905	100.35
834.082	90.11
834.259	28.67
834.436	49.15
834.612	88.06
834.789	40.96
834.966	157.69
835.143	86.01
835.319	51.2
835.496	45.06
835.673	34.82
835.85	75.77
836.026	98.3
836.203	120.83
836.38	-55.3
836.556	20.48
836.733	96.25
836.909	32.77
837.086	28.67
837.262	26.62
837.439	57.34
837.616	30.72
837.792	-10.24
837.968	69.63
838.145	-61.44
838.321	20.48
838.498	14.34
838.674	124.93
838.851	0
839.027	63.49
839.203	18.43
839.38	106.49
839.556	75.77
839.732	45.06
839.909	53.25
840.085	24.58
840.261	57.34
840.437	90.11
840.614	2.05
840.79	34.82
840.966	67.58
841.142	55.3
841.318	-4.1
841.494	-12.29
841.671	92.16
841.847	71.68
842.023	16.38
842.199	30.72
842.375	131.07
842.551	18.43
842.727	-30.72
842.903	100.35
843.079	-12.29
843.255	-22.53
843.431	-4.1
843.607	63.49
843.783	-43.01
843.959	102.4
844.134	24.58
844.31	73.73
844.486	86.01
844.662	24.58
844.838	40.96
845.013	38.91
845.189	63.49
845.365	63.49
845.541	-6.14
845.716	36.86
845.892	59.39
846.068	32.77
846.244	14.34
846.419	79.87
846.595	53.25
846.77	22.53
846.946	63.49
847.122	6.14
847.297	40.96
847.473	83.97
847.648	36.86
847.824	83.97
847.999	-55.3
848.175	28.67
848.35	49.15
848.526	47.1
848.701	-6.14
848.876	36.86
849.052	36.86
849.227	34.82
849.403	38.91
849.578	8.19
849.753	-6.14
849.929	40.96
850.104	59.39
850.279	88.06
850.454	36.86
850.63	59.39
850.805	26.62
850.98	67.58
851.155	18.43
851.33	34.82
851.505	32.77
851.681	8.19
851.856	-32.77
852.031	55.3
852.206	102.4
852.381	-16.38
852.556	14.34
852.731	90.11
852.906	18.43
853.081	43.01
853.256	22.53
853.431	75.77
853.606	-20.48
853.781	34.82
853.956	22.53
854.131	67.58
854.305	63.49
854.48	2.05
854.655	24.58
854.83	-79.87
855.005	30.72
855.18	49.15
855.354	63.49
855.529	65.54
855.704	43.01
855.879	59.39
856.053	-20.48
856.228	40.96
856.403	-32.77
856.577	71.68
856.752	-30.72
856.926	49.15
857.101	-43.01
857.276	2.05
857.45	8.19
857.625	26.62
857.799	22.53
857.974	51.2
858.148	67.58
858.323	75.77
858.497	38.91
858.672	83.97
858.846	90.11
859.02	36.86
859.195	24.58
859.369	34.82
859.543	40.96
859.718	14.34
859.892	-24.58
860.066	-12.29
860.241	-16.38
860.415	10.24
860.589	-34.82
860.763	0
860.938	-28.67
861.112	90.11
861.286	53.25
861.46	63.49
861.634	14.34
861.808	79.87
861.982	-2.05
862.157	4.1
862.331	16.38
862.505	14.34
862.679	30.72
862.853	-2.05
863.027	8.19
863.201	71.68
863.375	-8.19
863.549	-12.29
863.722	26.62
863.896	61.44
864.07	94.21
864.244	71.68
864.418	26.62
864.592	-2.05
864.766	-22.53
864.939	8.19
865.113	-14.34
865.287	55.3
865.461	-6.14
865.634	98.3
865.808	-36.86
865.982	30.72
866.156	-2.05
866.329	-22.53
866.503	38.91
866.676	30.72
866.85	10.24
867.024	-24.58
867.197	-6.14
867.371	26.62
867.544	40.96
867.718	20.48
867.891	8.19
868.065	-16.38
868.238	22.53
868.412	28.67
868.585	-8.19
868.759	-26.62
868.932	53.25
869.105	28.67
869.279	30.72
869.452	-4.1
869.625	-16.38
869.799	53.25
869.972	38.91
870.145	-24.58
870.319	92.16
870.492	59.39
870.665	63.49
870.838	-96.25
871.011	26.62
871.185	77.82
871.358	51.2
871.531	-6.14
871.704	-22.53
871.877	45.06
872.05	-20.48
872.223	12.29
872.396	-4.1
872.569	-4.1
872.742	-8.19
872.915	34.82
873.088	-6.14
873.261	34.82
873.434	24.58
873.607	-14.34
873.78	53.25
873.953	47.1
874.126	10.24
874.299	47.1
874.471	47.1
874.644	-40.96
874.817	-4.1
874.99	-2.05
875.163	49.15
875.335	114.69
875.508	2.05
875.681	75.77
875.853	94.21
876.026	69.63
876.199	36.86
876.371	-26.62
876.544	43.01
876.717	22.53
876.889	-6.14
877.062	94.21
877.234	-43.01
877.407	-36.86
877.579	16.38
877.752	57.34
877.924	-20.48
878.097	36.86
878.269	-71.68
878.442	18.43
878.614	16.38
878.786	57.34
878.959	14.34
879.131	-18.43
879.303	4.1
879.476	-12.29
879.648	51.2
879.82	28.67
879.993	47.1
880.165	-4.1
880.337	-36.86
880.509	34.82
880.681	-8.19
880.854	-8.19
881.026	20.48
881.198	63.49
881.37	-28.67
881.542	4.1
881.714	-26.62
881.886	-55.3
882.058	-6.14
882.23	45.06
882.402	51.2
882.574	4.1
882.746	6.14
882.918	63.49
883.09	-26.62
883.262	8.19
883.434	32.77
883.606	10.24
883.778	-30.72
883.95	-22.53
884.122	-43.01
884.293	47.1
884.465	28.67
884.637	12.29
884.809	24.58
884.98	16.38
885.152	-10.24
885.324	-18.43
885.496	-4.1
885.667	-14.34
885.839	45.06
886.011	63.49
886.182	100.35
886.354	2.05
886.525	49.15
886.697	-12.29
886.869	28.67
887.04	26.62
887.212	94.21
887.383	67.58
887.555	32.77
887.726	55.3
887.897	-14.34
888.069	79.87
888.24	65.54
888.412	8.19
888.583	-55.3
888.754	-14.34
888.926	-10.24
889.097	-34.82
889.268	-34.82
889.44	43.01
889.611	79.87
889.782	12.29
889.953	-10.24
890.125	139.26
890.296	-16.38
890.467	-36.86
890.638	-30.72
890.809	40.96
890.98	71.68
891.151	4.1
891.323	-10.24
891.494	53.25
891.665	-45.06
891.836	47.1
892.007	-32.77
892.178	24.58
892.349	120.83
892.52	-34.82
892.691	43.01
892.862	28.67
893.032	-24.58
893.203	-6.14
893.374	-20.48
893.545	-36.86
893.716	30.72
893.887	34.82
894.057	-47.1
894.228	53.25
894.399	-141.31
894.57	53.25
894.74	10.24
894.911	16.38
895.082	-38.91
895.253	-28.67
895.423	-4.1
895.594	32.77
895.764	10.24
895.935	14.34
896.106	-2.05
896.276	-34.82
896.447	10.24
896.617	-53.25
896.788	10.24
896.958	34.82
897.129	57.34
897.299	-63.49
897.47	-4.1
897.64	32.77
897.81	4.1
897.981	-67.58
898.151	-6.14
898.322	-26.62
898.492	-26.62
898.662	-10.24
898.832	-65.53
899.003	12.29
899.173	8.19
899.343	8.19
899.513	12.29
