Data from USB4F104151__4__12-34-51-206.txt Node

Date: Fri Mar 14 12:34:51 EDT 2025
User: louis
Spectrometer: USB4F10415
Trigger mode: 4
Integration Time (sec): 2.000000E-2
Scans to average: 1
Electric dark correction enabled: true
Nonlinearity correction enabled: false
Boxcar width: 0
XAxis mode: Wavelengths
Number of Pixels in Spectrum: 3648
>>>>>Begin Spectral Data<<<<<
178.204	-44.88
178.424	-44.88
178.644	-44.88
178.864	-85.84
179.084	-89.94
179.304	-57.17
179.524	16.55
179.744	43.18
179.964	22.7
180.184	51.37
180.404	-8.02
180.624	41.13
180.844	-8.02
181.064	-61.27
181.283	39.08
181.503	-71.51
181.723	-8.02
181.943	-26.45
182.163	2.22
182.383	45.23
182.602	82.09
182.822	12.46
183.042	32.94
183.262	-32.6
183.482	14.51
183.701	-44.88
183.921	65.71
184.141	18.6
184.361	84.14
184.58	34.99
184.8	24.75
185.02	-44.88
185.239	43.18
185.459	49.32
185.679	49.32
185.898	20.65
186.118	34.99
186.338	-32.6
186.557	51.37
186.777	22.7
186.997	26.79
187.216	-73.56
187.436	82.09
187.655	-22.36
187.875	20.65
188.095	20.65
188.314	-3.93
188.534	47.27
188.753	61.61
188.973	-12.12
189.192	77.99
189.412	-5.97
189.631	53.42
189.851	86.19
190.07	77.99
190.29	20.65
190.509	57.51
190.729	57.51
190.948	41.13
191.168	139.43
191.387	20.65
191.607	22.7
191.826	14.51
192.045	2.22
192.265	32.94
192.484	96.43
192.704	61.61
192.923	-5.97
193.142	123.05
193.362	84.14
193.581	61.61
193.8	67.75
194.02	75.95
194.239	30.89
194.458	47.27
194.678	55.47
194.897	-18.26
195.116	2.22
195.335	-10.07
195.555	-18.26
195.774	77.99
195.993	51.37
196.212	16.55
196.432	20.65
196.651	67.75
196.87	82.09
197.089	88.23
197.308	-20.31
197.528	18.6
197.747	26.79
197.966	129.19
198.185	106.67
198.404	80.04
198.623	39.08
198.842	32.94
199.062	10.41
199.281	63.66
199.5	71.85
199.719	10.41
199.938	61.61
200.157	39.08
200.376	96.43
200.595	-8.02
200.814	57.51
201.033	53.42
201.252	43.18
201.471	18.6
201.69	86.19
201.909	55.47
202.128	10.41
202.347	43.18
202.566	-26.45
202.785	-3.93
203.004	32.94
203.223	24.75
203.442	57.51
203.661	-10.07
203.879	20.65
204.098	49.32
204.317	61.61
204.536	6.31
204.755	30.89
204.974	131.24
205.193	67.75
205.411	75.95
205.63	37.03
205.849	96.43
206.068	69.8
206.287	34.99
206.505	45.23
206.724	82.09
206.943	67.75
207.162	86.19
207.381	69.8
207.599	57.51
207.818	6.31
208.037	34.99
208.255	34.99
208.474	69.8
208.693	37.03
208.911	0.17
209.13	24.75
209.349	37.03
209.567	8.36
209.786	73.9
210.005	-42.84
210.223	43.18
210.442	53.42
210.661	-26.45
210.879	-22.36
211.098	26.79
211.316	43.18
211.535	12.46
211.753	94.38
211.972	69.8
212.191	39.08
212.409	39.08
212.628	28.84
212.846	-3.93
213.065	57.51
213.283	24.75
213.502	63.66
213.72	12.46
213.938	63.66
214.157	16.55
214.375	28.84
214.594	75.95
214.812	88.23
215.031	43.18
215.249	-14.17
215.467	30.89
215.686	41.13
215.904	45.23
216.122	-12.12
216.341	45.23
216.559	-22.36
216.778	116.9
216.996	96.43
217.214	77.99
217.432	75.95
217.651	8.36
217.869	26.79
218.087	45.23
218.306	37.03
218.524	-1.88
218.742	41.13
218.96	43.18
219.179	-3.93
219.397	37.03
219.615	92.33
219.833	98.47
220.051	43.18
220.27	88.23
220.488	22.7
220.706	67.75
220.924	14.51
221.142	41.13
221.36	-32.6
221.578	65.71
221.796	-16.21
222.015	71.85
222.233	32.94
222.451	77.99
222.669	61.61
222.887	75.95
223.105	-1.88
223.323	41.13
223.541	-10.07
223.759	61.61
223.977	75.95
224.195	43.18
224.413	39.08
224.631	57.51
224.849	39.08
225.067	47.27
225.285	6.31
225.503	53.42
225.721	0.17
225.939	18.6
226.157	6.31
226.375	65.71
226.592	12.46
226.81	-16.21
227.028	49.32
227.246	8.36
227.464	43.18
227.682	86.19
227.9	-1.88
228.117	131.24
228.335	-16.21
228.553	-1.88
228.771	-16.21
228.989	80.04
229.206	-3.93
229.424	71.85
229.642	-26.45
229.86	45.23
230.077	-28.5
230.295	63.66
230.513	75.95
230.731	22.7
230.948	55.47
231.166	41.13
231.384	43.18
231.601	34.99
231.819	47.27
232.037	28.84
232.254	-26.45
232.472	8.36
232.689	8.36
232.907	34.99
233.125	-3.93
233.342	92.33
233.56	-40.79
233.777	86.19
233.995	-22.36
234.213	88.23
234.43	59.56
234.648	18.6
234.865	28.84
235.083	43.18
235.3	-5.97
235.518	34.99
235.735	41.13
235.953	118.95
236.17	2.22
236.388	18.6
236.605	14.51
236.822	30.89
237.04	102.57
237.257	-28.5
237.475	12.46
237.692	4.27
237.909	-8.02
238.127	-14.17
238.344	92.33
238.562	82.09
238.779	-85.84
238.996	-18.26
239.214	-59.22
239.431	82.09
239.648	18.6
239.865	71.85
240.083	39.08
240.3	-5.97
240.517	-16.21
240.735	84.14
240.952	32.94
241.169	53.42
241.386	94.38
241.603	24.75
241.821	65.71
242.038	-20.31
242.255	-3.93
242.472	18.6
242.689	61.61
242.907	28.84
243.124	49.32
243.341	6.31
243.558	12.46
243.775	90.28
243.992	88.23
244.209	-18.26
244.426	43.18
244.643	59.56
244.86	16.55
245.078	-16.21
245.295	16.55
245.512	-26.45
245.729	24.75
245.946	24.75
246.163	43.18
246.38	57.51
246.597	49.32
246.814	2.22
247.031	2.22
247.248	121
247.464	45.23
247.681	63.66
247.898	39.08
248.115	14.51
248.332	6.31
248.549	55.47
248.766	49.32
248.983	28.84
249.2	98.47
249.417	6.31
249.633	61.61
249.85	82.09
250.067	22.7
250.284	18.6
250.501	22.7
250.717	28.84
250.934	26.79
251.151	-8.02
251.368	32.94
251.585	28.84
251.801	108.71
252.018	32.94
252.235	-14.17
252.451	10.41
252.668	77.99
252.885	26.79
253.102	82.09
253.318	41.13
253.535	63.66
253.752	47.27
253.968	26.79
254.185	57.51
254.401	14.51
254.618	0.17
254.835	-8.02
255.051	94.38
255.268	-18.26
255.484	121
255.701	45.23
255.917	55.47
256.134	24.75
256.351	-10.07
256.567	-61.27
256.784	63.66
257	-98.13
257.217	71.85
257.433	20.65
257.65	24.75
257.866	53.42
258.082	34.99
258.299	82.09
258.515	32.94
258.732	2.22
258.948	8.36
259.165	28.84
259.381	34.99
259.597	53.42
259.814	88.23
260.03	67.75
260.246	69.8
260.463	77.99
260.679	45.23
260.895	51.37
261.112	82.09
261.328	37.03
261.544	63.66
261.761	61.61
261.977	-26.45
262.193	-38.74
262.409	59.56
262.626	26.79
262.842	63.66
263.058	18.6
263.274	84.14
263.49	43.18
263.707	45.23
263.923	26.79
264.139	47.27
264.355	49.32
264.571	51.37
264.787	57.51
265.004	37.03
265.22	2.22
265.436	18.6
265.652	127.14
265.868	59.56
266.084	-40.79
266.3	53.42
266.516	10.41
266.732	-3.93
266.948	39.08
267.164	75.95
267.38	61.61
267.596	57.51
267.812	121
268.028	14.51
268.244	-3.93
268.46	8.36
268.676	4.27
268.892	75.95
269.108	-73.56
269.324	-20.31
269.54	47.27
269.756	51.37
269.972	-36.69
270.188	32.94
270.403	-24.4
270.619	-10.07
270.835	43.18
271.051	32.94
271.267	24.75
271.483	73.9
271.698	-18.26
271.914	51.37
272.13	26.79
272.346	18.6
272.562	37.03
272.777	45.23
272.993	49.32
273.209	90.28
273.425	22.7
273.64	45.23
273.856	10.41
274.072	63.66
274.287	-1.88
274.503	22.7
274.719	92.33
274.934	53.42
275.15	71.85
275.366	2.22
275.581	53.42
275.797	-18.26
276.012	28.84
276.228	108.71
276.444	30.89
276.659	80.04
276.875	41.13
277.09	43.18
277.306	-10.07
277.521	49.32
277.737	41.13
277.952	100.52
278.168	71.85
278.383	73.9
278.599	26.79
278.814	73.9
279.03	-48.98
279.245	67.75
279.461	0.17
279.676	-14.17
279.892	-5.97
280.107	47.27
280.322	-12.12
280.538	37.03
280.753	-12.12
280.969	47.27
281.184	-22.36
281.399	57.51
281.615	67.75
281.83	22.7
282.045	114.86
282.26	30.89
282.476	-3.93
282.691	63.66
282.906	22.7
283.122	-53.08
283.337	-46.93
283.552	69.8
283.767	-24.4
283.983	37.03
284.198	32.94
284.413	26.79
284.628	-28.5
284.843	-32.6
285.058	65.71
285.274	39.08
285.489	71.85
285.704	12.46
285.919	75.95
286.134	-3.93
286.349	96.43
286.564	14.51
286.779	18.6
286.995	24.75
287.21	24.75
287.425	-57.17
287.64	-10.07
287.855	-1.88
288.07	82.09
288.285	69.8
288.5	39.08
288.715	121
288.93	47.27
289.145	61.61
289.36	20.65
289.575	57.51
289.79	116.9
290.004	4.27
290.219	24.75
290.434	8.36
290.649	10.41
290.864	14.51
291.079	67.75
291.294	32.94
291.509	67.75
291.724	-3.93
291.938	84.14
292.153	18.6
292.368	106.67
292.583	90.28
292.798	49.32
293.012	39.08
293.227	-8.02
293.442	80.04
293.657	84.14
293.871	59.56
294.086	96.43
294.301	-24.4
294.516	8.36
294.73	20.65
294.945	59.56
295.16	-3.93
295.374	61.61
295.589	2.22
295.804	94.38
296.018	65.71
296.233	129.19
296.447	18.6
296.662	-32.6
296.877	96.43
297.091	30.89
297.306	26.79
297.52	32.94
297.735	24.75
297.949	39.08
298.164	63.66
298.378	47.27
298.593	51.37
298.807	2.22
299.022	37.03
299.236	30.89
299.451	-14.17
299.665	61.61
299.88	71.85
300.094	55.47
300.309	88.23
300.523	16.55
300.737	51.37
300.952	-5.97
301.166	106.67
301.381	49.32
301.595	39.08
301.809	-5.97
302.024	-18.26
302.238	-3.93
302.452	108.71
302.667	8.36
302.881	106.67
303.095	114.86
303.309	24.75
303.524	-20.31
303.738	-12.12
303.952	12.46
304.166	41.13
304.381	-12.12
304.595	96.43
304.809	88.23
305.023	12.46
305.237	41.13
305.452	-1.88
305.666	80.04
305.88	51.37
306.094	-51.03
306.308	34.99
306.522	49.32
306.736	-3.93
306.95	102.57
307.164	4.27
307.379	77.99
307.593	104.62
307.807	10.41
308.021	73.9
308.235	63.66
308.449	34.99
308.663	28.84
308.877	43.18
309.091	14.51
309.305	26.79
309.519	-16.21
309.733	6.31
309.947	-12.12
310.161	61.61
310.374	73.9
310.588	73.9
310.802	20.65
311.016	-16.21
311.23	65.71
311.444	-18.26
311.658	65.71
311.872	59.56
312.085	96.43
312.299	59.56
312.513	12.46
312.727	-3.93
312.941	8.36
313.154	37.03
313.368	63.66
313.582	-32.6
313.796	-16.21
314.009	-18.26
314.223	73.9
314.437	55.47
314.651	-8.02
314.864	20.65
315.078	12.46
315.292	80.04
315.505	39.08
315.719	55.47
315.933	30.89
316.146	84.14
316.36	59.56
316.573	14.51
316.787	20.65
317.001	80.04
317.214	12.46
317.428	75.95
317.641	73.9
317.855	24.75
318.068	41.13
318.282	75.95
318.495	118.95
318.709	108.71
318.922	59.56
319.136	86.19
319.349	12.46
319.563	57.51
319.776	75.95
319.99	92.33
320.203	108.71
320.417	-12.12
320.63	88.23
320.843	18.6
321.057	-12.12
321.27	34.99
321.483	8.36
321.697	149.67
321.91	-14.17
322.124	49.32
322.337	0.17
322.55	45.23
322.763	88.23
322.977	39.08
323.19	26.79
323.403	57.51
323.617	20.65
323.83	98.47
324.043	-20.31
324.256	8.36
324.469	0.17
324.683	28.84
324.896	55.47
325.109	20.65
325.322	-14.17
325.535	49.32
325.748	34.99
325.962	4.27
326.175	121
326.388	110.76
326.601	65.71
326.814	30.89
327.027	55.47
327.24	49.32
327.453	-5.97
327.666	57.51
327.879	55.47
328.092	59.56
328.305	59.56
328.518	57.51
328.731	30.89
328.944	57.51
329.157	-48.98
329.37	86.19
329.583	12.46
329.796	80.04
330.009	-18.26
330.222	47.27
330.435	41.13
330.648	92.33
330.861	71.85
331.073	10.41
331.286	16.55
331.499	32.94
331.712	30.89
331.925	59.56
332.138	32.94
332.35	90.28
332.563	24.75
332.776	155.82
332.989	28.84
333.202	-28.5
333.414	-16.21
333.627	45.23
333.84	69.8
334.053	59.56
334.265	77.99
334.478	20.65
334.691	22.7
334.903	-42.84
335.116	80.04
335.329	-8.02
335.541	26.79
335.754	-44.88
335.966	0.17
336.179	65.71
336.392	-8.02
336.604	4.27
336.817	71.85
337.029	-10.07
337.242	63.66
337.454	94.38
337.667	12.46
337.88	53.42
338.092	2.22
338.305	112.81
338.517	-1.88
338.729	45.23
338.942	39.08
339.154	2.22
339.367	55.47
339.579	59.56
339.792	-3.93
340.004	98.47
340.217	61.61
340.429	98.47
340.641	16.55
340.854	2.22
341.066	114.86
341.278	63.66
341.491	57.51
341.703	34.99
341.915	43.18
342.128	49.32
342.34	28.84
342.552	-30.55
342.764	34.99
342.977	55.47
343.189	104.62
343.401	45.23
343.613	28.84
343.826	20.65
344.038	-20.31
344.25	69.8
344.462	94.38
344.674	63.66
344.886	71.85
345.099	108.71
345.311	57.51
345.523	110.76
345.735	75.95
345.947	41.13
346.159	24.75
346.371	63.66
346.583	59.56
346.795	90.28
347.007	18.6
347.219	53.42
347.431	-18.26
347.643	123.05
347.855	-30.55
348.067	71.85
348.279	61.61
348.491	34.99
348.703	88.23
348.915	0.17
349.127	39.08
349.339	32.94
349.551	63.66
349.763	61.61
349.975	108.71
350.187	86.19
350.399	77.99
350.61	168.1
350.822	47.27
351.034	90.28
351.246	75.95
351.458	51.37
351.669	82.09
351.881	77.99
352.093	47.27
352.305	57.51
352.517	104.62
352.728	116.9
352.94	41.13
353.152	69.8
353.363	43.18
353.575	86.19
353.787	86.19
353.999	106.67
354.21	100.52
354.422	104.62
354.633	41.13
354.845	26.79
355.057	20.65
355.268	98.47
355.48	61.61
355.692	12.46
355.903	88.23
356.115	37.03
356.326	32.94
356.538	92.33
356.749	94.38
356.961	100.52
357.172	4.27
357.384	88.23
357.595	86.19
357.807	30.89
358.018	69.8
358.23	43.18
358.441	53.42
358.653	53.42
358.864	10.41
359.075	51.37
359.287	98.47
359.498	92.33
359.709	41.13
359.921	100.52
360.132	114.86
360.344	-5.97
360.555	57.51
360.766	116.9
360.977	20.65
361.189	114.86
361.4	59.56
361.611	82.09
361.823	102.57
362.034	53.42
362.245	-26.45
362.456	12.46
362.667	80.04
362.879	20.65
363.09	145.58
363.301	51.37
363.512	-38.74
363.723	4.27
363.935	102.57
364.146	41.13
364.357	61.61
364.568	69.8
364.779	-16.21
364.99	65.71
365.201	22.7
365.412	47.27
365.623	-16.21
365.834	82.09
366.045	80.04
366.256	53.42
366.467	32.94
366.678	73.9
366.889	88.23
367.1	39.08
367.311	30.89
367.522	102.57
367.733	86.19
367.944	20.65
368.155	41.13
368.366	41.13
368.577	59.56
368.788	57.51
368.999	51.37
369.209	121
369.42	59.56
369.631	80.04
369.842	2.22
370.053	16.55
370.264	88.23
370.474	10.41
370.685	39.08
370.896	47.27
371.107	80.04
371.317	6.31
371.528	39.08
371.739	45.23
371.95	67.75
372.16	-5.97
372.371	63.66
372.582	-14.17
372.792	75.95
373.003	28.84
373.214	28.84
373.424	39.08
373.635	47.27
373.846	75.95
374.056	61.61
374.267	14.51
374.477	65.71
374.688	8.36
374.898	30.89
375.109	92.33
375.319	51.37
375.53	137.38
375.74	59.56
375.951	32.94
376.161	71.85
376.372	59.56
376.582	0.17
376.793	73.9
377.003	39.08
377.214	82.09
377.424	49.32
377.635	8.36
377.845	71.85
378.055	63.66
378.266	47.27
378.476	75.95
378.686	108.71
378.897	6.31
379.107	112.81
379.317	47.27
379.528	12.46
379.738	53.42
379.948	-1.88
380.158	32.94
380.369	80.04
380.579	80.04
380.789	143.53
380.999	51.37
381.21	110.76
381.42	96.43
381.63	61.61
381.84	20.65
382.05	37.03
382.261	108.71
382.471	88.23
382.681	92.33
382.891	90.28
383.101	61.61
383.311	47.27
383.521	26.79
383.731	110.76
383.941	104.62
384.151	80.04
384.361	77.99
384.571	4.27
384.781	53.42
384.991	18.6
385.201	114.86
385.411	86.19
385.621	77.99
385.831	20.65
386.041	59.56
386.251	34.99
386.461	90.28
386.671	59.56
386.881	88.23
387.091	86.19
387.301	80.04
387.511	90.28
387.72	110.76
387.93	104.62
388.14	22.7
388.35	53.42
388.56	98.47
388.769	43.18
388.979	98.47
389.189	84.14
389.399	-8.02
389.609	37.03
389.818	94.38
390.028	57.51
390.238	98.47
390.447	112.81
390.657	80.04
390.867	100.52
391.076	-34.64
391.286	86.19
391.496	20.65
391.705	65.71
391.915	80.04
392.125	121
392.334	118.95
392.544	26.79
392.753	61.61
392.963	16.55
393.172	112.81
393.382	94.38
393.591	121
393.801	49.32
394.01	88.23
394.22	92.33
394.429	24.75
394.639	96.43
394.848	96.43
395.058	18.6
395.267	94.38
395.477	73.9
395.686	65.71
395.895	102.57
396.105	155.82
396.314	118.95
396.524	100.52
396.733	59.56
396.942	102.57
397.152	100.52
397.361	112.81
397.57	104.62
397.78	77.99
397.989	112.81
398.198	145.58
398.407	77.99
398.617	129.19
398.826	32.94
399.035	104.62
399.244	90.28
399.453	129.19
399.663	129.19
399.872	116.9
400.081	41.13
400.29	110.76
400.499	157.86
400.708	192.68
400.917	204.97
401.127	112.81
401.336	90.28
401.545	84.14
401.754	75.95
401.963	121
402.172	49.32
402.381	151.72
402.59	178.34
402.799	215.21
403.008	184.49
403.217	110.76
403.426	114.86
403.635	75.95
403.844	151.72
404.053	161.96
404.262	159.91
404.471	207.02
404.68	170.15
404.888	149.67
405.097	137.38
405.306	168.1
405.515	151.72
405.724	135.34
405.933	186.54
406.142	143.53
406.35	250.02
406.559	233.64
406.768	153.77
406.977	182.44
407.185	174.25
407.394	229.54
407.603	161.96
407.812	204.97
408.02	200.87
408.229	198.82
408.438	235.69
408.646	268.45
408.855	194.73
409.064	243.88
409.272	254.12
409.481	342.18
409.69	258.21
409.898	293.03
410.107	268.45
410.315	284.84
410.524	295.08
410.733	333.99
410.941	286.89
411.15	299.17
411.358	370.85
411.567	370.85
411.775	350.37
411.984	323.75
412.192	401.57
412.401	407.72
412.609	549.03
412.818	526.5
413.026	407.72
413.234	446.63
413.443	557.22
413.651	436.39
413.86	499.88
414.068	579.75
414.276	551.07
414.485	608.42
414.693	632.99
414.901	612.51
415.11	673.95
415.318	649.38
415.526	686.24
415.734	686.24
415.943	688.29
416.151	792.73
416.359	786.59
416.567	817.31
416.776	792.73
416.984	972.96
417.192	901.28
417.4	841.89
417.608	874.65
417.817	993.44
418.025	944.28
418.233	1075.35
418.441	1081.5
418.649	1073.31
418.857	1204.38
419.065	1212.57
419.273	1171.61
419.481	1255.58
419.689	1380.5
419.897	1403.03
420.105	1454.23
420.313	1388.69
420.521	1603.73
420.729	1527.96
420.937	1556.63
421.145	1605.78
421.353	1562.77
421.561	1767.57
421.769	1693.84
421.977	1835.15
422.185	1912.97
422.393	2027.66
422.601	2074.76
422.809	2115.72
423.017	2121.87
423.224	2224.26
423.432	2252.94
423.64	2205.83
423.848	2496.64
424.056	2398.34
424.263	2658.43
424.471	2640
424.679	2674.82
424.887	2846.85
425.094	2875.52
425.302	2957.44
425.51	2881.66
425.718	3068.03
425.925	3203.19
426.133	3223.67
426.341	3561.59
426.548	3465.33
426.756	3641.46
426.964	3633.27
427.171	3928.17
427.379	3852.4
427.586	4198.51
427.794	4184.17
428.001	4305
428.209	4595.81
428.417	4477.03
428.624	4759.65
428.832	4765.79
429.039	4708.45
429.247	4724.83
429.454	5318.75
429.662	5691.48
429.869	5113.95
430.076	5558.36
430.284	5513.3
430.491	5740.63
430.699	5988.43
430.906	5855.31
431.114	6017.1
431.321	6289.48
431.528	6453.32
431.736	6891.59
431.943	7147.58
432.15	6987.84
432.358	6955.07
432.565	7438.39
432.772	7399.48
432.979	7712.82
433.187	7774.26
433.394	7944.24
433.601	8472.62
433.808	8370.22
434.016	8554.54
434.223	8851.49
434.43	9220.13
434.637	9234.46
434.844	9607.19
435.052	10000.4
435.259	9938.96
435.466	9811.99
435.673	9635.86
435.88	10502.15
436.087	11075.59
436.294	10911.75
436.501	10665.99
436.708	10956.8
436.915	11433.98
437.122	11886.58
437.329	11806.71
437.537	12277.74
437.743	12509.16
437.95	12343.28
438.157	12879.85
438.364	13500.38
438.571	13500.38
438.778	13387.74
438.985	14618.57
439.192	14061.52
439.399	14788.55
439.606	14299.09
439.813	15298.5
440.02	16017.33
440.227	15665.08
440.433	15603.64
440.64	15865.78
440.847	15947.7
441.054	16400.3
441.261	17381.28
441.467	17280.93
441.674	17412
441.881	18257.81
442.088	18116.5
442.294	17995.67
442.501	18579.34
442.708	18788.24
442.914	19513.22
443.121	20270.97
443.328	19955.58
443.534	21055.34
443.741	20604.78
443.948	20359.03
444.154	22019.93
444.361	21639.01
444.568	22056.79
444.774	21706.59
444.981	22175.58
445.187	23025.48
445.394	23793.47
445.6	23793.47
445.807	25665.32
446.013	24758.06
446.22	24936.24
446.426	25966.37
446.633	26539.8
446.839	27234.06
447.046	26224.41
447.252	27647.75
447.459	27582.21
447.665	27260.68
447.871	28964.59
448.078	30082.78
448.284	28446.46
448.491	29284.08
448.697	30535.38
448.903	31252.17
449.11	31291.09
449.316	30598.87
449.522	31135.44
449.728	32409.28
449.935	32386.75
450.141	31989.44
450.347	33124.02
450.553	32005.83
450.76	32102.08
450.966	33427.12
451.172	33253.04
451.378	33930.92
451.584	33294
451.791	33865.38
451.997	33851.05
452.203	34477.72
452.409	34475.68
452.615	34354.85
452.821	33310.38
453.027	32614.07
453.233	34662.04
453.44	33171.12
453.646	33439.4
453.852	34123.43
454.058	34201.25
454.264	32908.98
454.47	33900.2
454.676	33384.11
454.882	34219.68
455.088	31282.89
455.294	31686.34
455.5	32401.08
455.705	32700.09
455.911	31180.49
456.117	30779.09
456.323	30371.55
456.529	29019.89
456.735	29839.08
456.941	29308.65
457.147	28704.5
457.352	27780.87
457.558	27715.33
457.764	27758.34
457.97	27080.46
458.176	26330.9
458.381	26572.57
458.587	24954.67
458.793	25005.87
458.999	24194.87
459.204	25423.65
459.41	24993.58
459.616	23340.87
459.821	23283.53
460.027	23170.89
460.233	22503.25
460.438	21552.99
460.644	21825.37
460.85	20516.72
461.055	20590.45
461.261	20420.47
461.466	18997.13
461.672	18395.03
461.878	19908.47
462.083	18374.55
462.289	17921.95
462.494	17794.97
462.7	16914.34
462.905	16519.09
463.111	17334.18
463.316	17307.55
463.522	16623.53
463.727	17031.08
463.932	16621.49
464.138	16631.72
464.343	16793.51
464.549	16129.97
464.754	16867.24
464.959	16525.23
465.165	16355.25
465.37	15812.54
465.575	15335.36
465.781	15863.74
465.986	16037.81
466.191	15376.32
466.397	15200.19
466.602	14333.9
466.807	14909.38
467.012	15038.41
467.218	15103.94
467.423	14737.35
467.628	14882.76
467.833	15482.81
468.038	15017.93
468.244	14579.66
468.449	15153.09
468.654	14540.75
468.859	14323.66
469.064	14370.77
469.269	13768.66
469.474	13922.26
469.679	14069.72
469.885	13703.13
470.09	13981.65
470.295	14006.23
470.5	13508.57
470.705	13623.26
470.91	13303.78
471.115	13508.57
471.32	13271.01
471.525	13244.38
471.73	13076.45
471.935	13103.07
472.139	12294.13
472.344	12636.14
472.549	12656.62
472.754	12457.96
472.959	12087.28
473.164	11980.79
473.369	11794.42
473.574	12263.41
473.778	11870.2
473.983	11935.73
474.188	11933.68
474.393	11446.27
474.598	11388.92
474.802	11059.2
475.007	11409.4
475.212	11304.96
475.417	10862.6
475.621	10848.26
475.826	10745.86
476.031	10586.12
476.235	10479.63
476.44	10657.8
476.645	10295.31
476.849	10430.48
477.054	10317.84
477.259	10168.34
477.463	10176.53
477.668	9855
477.872	9998.35
478.077	9803.8
478.282	9668.63
478.486	9488.41
478.691	9377.82
478.895	9469.98
479.1	9283.61
479.304	9420.83
479.509	9076.77
479.713	9297.95
479.918	9015.33
480.122	8865.83
480.326	9132.06
480.531	9066.53
480.735	8898.59
480.94	8855.59
481.144	9134.11
481.348	8699.94
481.553	8728.61
481.757	8523.82
481.961	8652.84
482.166	8976.42
482.37	8706.09
482.574	8658.98
482.778	8632.36
482.983	8716.33
483.187	8767.52
483.391	8665.13
483.595	8640.55
483.8	8521.77
484.004	8595.5
484.208	8658.98
484.412	8570.92
484.616	8558.63
484.821	8736.81
485.025	8402.99
485.229	8663.08
485.433	8513.58
485.637	8646.69
485.841	8706.09
486.045	8433.71
486.249	8472.62
486.453	8570.92
486.657	8462.38
486.861	8695.85
487.065	8478.76
487.269	8790.05
487.473	8515.62
487.677	8550.44
487.881	8618.02
488.085	8509.48
488.289	8607.78
488.493	8476.71
488.697	8413.23
488.901	8720.42
489.105	8689.7
489.309	8781.86
489.512	8714.28
489.716	8538.15
489.92	8558.63
490.124	8751.14
490.328	8736.81
490.531	8661.03
490.735	8759.33
490.939	8683.56
491.143	8775.72
491.346	8763.43
491.55	8923.17
491.754	9011.23
491.958	9005.09
492.161	8890.4
492.365	8998.95
492.569	9027.62
492.772	9166.88
492.976	9101.34
493.18	9015.33
493.383	9281.57
493.587	9246.75
493.79	9416.73
493.994	9318.43
494.197	9224.22
494.401	9584.66
494.605	9424.92
494.808	9453.59
495.012	9728.02
495.215	9766.93
495.419	9775.13
495.622	9678.87
495.825	9908.24
496.029	9834.52
496.232	10049.55
496.436	9951.25
496.639	10123.28
496.843	10328.08
497.046	10459.15
497.249	10577.93
497.453	10606.6
497.656	10512.39
497.859	10807.3
498.063	10854.41
498.266	11253.76
498.469	10952.71
498.673	11114.5
498.876	11364.35
499.079	11485.18
499.282	11503.61
499.485	11792.37
499.689	11427.84
499.892	11956.21
500.095	11851.77
500.298	12146.67
500.501	12062.71
500.705	12349.42
500.908	12681.19
501.111	12543.98
501.314	12980.2
501.517	13004.77
501.72	13234.14
501.923	13170.66
502.126	13350.88
502.329	13596.64
502.532	13637.59
502.735	13776.86
502.938	13981.65
503.141	13897.69
503.344	14518.22
503.547	14251.99
503.75	14446.54
503.953	14448.59
504.156	15024.07
504.359	14960.58
504.562	15056.84
504.765	15263.68
504.968	15568.83
505.17	15751.1
505.373	15873.98
505.576	16172.98
505.779	16205.75
505.982	16379.82
506.185	16539.57
506.387	16588.72
506.59	16791.47
506.793	16963.5
506.996	17149.86
507.198	17620.89
507.401	17330.08
507.604	17737.63
507.807	18077.59
508.009	17864.6
508.212	18392.98
508.415	18896.78
508.617	18628.49
508.82	18763.66
509.022	18937.74
509.225	19447.68
509.428	19193.73
509.63	19605.38
509.833	19718.01
510.035	20170.61
510.238	20232.05
510.44	20414.32
510.643	20739.95
510.845	20596.59
511.048	20756.33
511.25	21213.03
511.453	21399.4
511.655	21940.06
511.858	21706.59
512.06	22441.81
512.262	22292.31
512.465	22226.78
512.667	22654.8
512.87	22855.5
513.072	22853.45
513.274	23447.36
513.477	23818.05
513.679	23822.14
513.881	23914.3
514.084	24510.26
514.286	24528.69
514.488	24444.73
514.69	25151.27
514.893	25288.49
515.095	25421.61
515.297	25896.74
515.499	25610.02
515.701	26101.53
515.904	26291.99
516.106	26713.88
516.308	26621.72
516.51	27244.3
516.712	27858.69
516.914	27725.57
517.116	28102.4
517.318	28104.45
517.52	28425.98
517.722	28604.15
517.925	28804.85
518.127	29161.2
518.329	29224.68
518.531	29466.35
518.733	29873.89
518.935	30547.67
519.136	30095.07
519.338	30938.83
519.54	30680.79
519.742	31033.04
519.944	31225.55
520.146	32026.31
520.348	31641.29
520.55	31911.62
520.752	32177.86
520.954	32763.57
521.155	32593.59
521.357	33156.78
521.559	33363.63
521.761	33912.49
521.963	33810.09
522.164	34061.99
522.366	34223.78
522.568	34756.25
522.77	34582.17
522.971	35264.14
523.173	34985.62
523.375	35157.65
523.576	35382.93
523.778	35331.73
523.98	36155.01
524.181	36423.29
524.383	36394.62
524.584	36472.45
524.786	36806.27
524.988	36566.65
525.189	36976.25
525.391	37222
525.592	37938.79
525.794	37815.91
525.995	37678.7
526.197	37672.56
526.398	37852.78
526.6	38647.39
526.801	38751.84
527.003	38563.42
527.204	38657.63
527.406	39278.16
527.607	39091.8
527.808	39192.15
528.01	38635.1
528.211	38944.34
528.412	39583.31
528.614	39302.74
528.815	39581.26
529.016	39919.18
529.218	39507.54
529.419	39880.27
529.62	39902.79
529.822	39585.36
530.023	39921.23
530.224	39837.26
530.425	40074.82
530.626	39675.47
530.828	39960.14
531.029	40795.71
531.23	40179.27
531.431	40293.96
531.632	40703.55
531.833	41033.27
532.035	40902.2
532.236	40918.59
532.437	41154.1
532.638	40814.14
532.839	40687.17
533.04	40855.1
533.241	40373.83
533.442	41408.05
533.643	40814.14
533.844	41309.75
534.045	41199.16
534.246	40726.08
534.447	41473.59
534.648	41119.29
534.849	41387.57
535.05	40627.77
535.251	41289.27
535.451	41068.09
535.652	41246.26
535.853	40971.83
536.054	40781.37
536.255	41285.17
536.456	40779.32
536.657	41373.24
536.857	41078.33
537.058	41487.92
537.259	41475.63
537.46	41164.34
537.66	41305.65
537.861	41391.67
538.062	40967.74
538.263	41276.98
538.463	41010.74
538.664	40857.15
538.865	40918.59
539.065	41391.67
539.266	40859.2
539.466	41625.14
539.667	40431.17
539.868	41518.64
540.068	40945.21
540.269	40775.23
540.469	41143.86
540.67	40801.85
540.87	41063.99
541.071	40592.96
541.271	41125.43
541.472	40853.05
541.672	41227.83
541.873	40922.68
542.073	40330.82
542.274	41160.25
542.474	40961.59
542.675	40492.61
542.875	41096.76
543.075	40461.89
543.276	40300.1
543.476	40932.92
543.676	41063.99
543.877	41141.81
544.077	40957.5
544.277	40916.54
544.478	40750.65
544.678	41039.42
544.878	40748.6
545.078	40615.49
545.279	40578.62
545.479	40437.31
545.679	41422.39
545.879	40879.67
546.079	40810.04
546.28	40678.97
546.48	40695.36
546.68	40746.56
546.88	40953.4
547.08	40691.26
547.28	40382.02
547.48	40476.23
547.68	40666.69
547.88	40304.2
548.081	40685.12
548.281	40582.72
548.481	40384.07
548.681	41242.17
548.881	40433.22
549.081	40402.5
549.28	40556.1
549.48	40836.67
549.68	40623.68
549.88	40660.54
550.08	40703.55
550.28	40711.74
550.48	40513.09
550.68	40795.71
550.88	40379.97
551.08	40511.04
551.279	40715.84
551.479	40339.01
551.679	40519.23
551.879	40146.5
552.079	40511.04
552.278	40269.38
552.478	40302.15
552.678	40500.8
552.878	40177.22
553.077	40681.02
553.277	40140.36
553.477	40486.46
553.676	40212.04
553.876	40455.75
554.076	40255.04
554.275	40388.16
554.475	39845.45
554.674	40312.39
554.874	40422.98
555.074	40164.93
555.273	40064.58
555.473	40697.41
555.672	40085.06
555.872	40040.01
556.071	40230.47
556.271	40037.96
556.47	40062.54
556.67	39659.09
556.869	40095.3
557.068	40160.84
557.268	39849.55
557.467	39861.83
557.667	39902.79
557.866	39712.33
558.065	39528.02
558.265	39401.04
558.464	39310.93
558.663	39827.02
558.863	39358.03
559.062	40126.02
559.261	39302.74
559.461	39769.68
559.66	39056.98
559.859	39288.4
560.058	39372.37
560.258	39028.31
560.457	39036.5
560.656	39474.77
560.855	39018.07
561.054	39124.57
561.253	38567.52
561.453	38792.79
561.652	39124.57
561.851	39382.61
562.05	38332
562.249	38637.15
562.448	38862.43
562.647	39159.38
562.846	38610.53
563.045	38653.53
563.244	37924.46
563.443	38704.73
563.642	38000.23
563.841	38387.3
564.04	37793.39
564.239	38323.81
564.438	37822.06
564.637	38329.95
564.836	38266.47
565.035	37774.95
565.234	37850.73
565.432	37549.68
565.631	37475.95
565.83	37690.99
566.029	37500.53
566.228	37289.59
566.427	37430.9
566.625	36802.17
566.824	36802.17
567.023	37459.57
567.222	36603.52
567.42	37594.73
567.619	36800.12
567.818	36712.06
568.016	36689.53
568.215	37047.93
568.414	36650.62
568.612	36400.77
568.811	36662.91
569.01	36650.62
569.208	36355.71
569.407	36400.77
569.605	36105.86
569.804	36320.9
570.002	35673.74
570.201	36099.72
570.4	35430.03
570.598	35604.11
570.797	35616.4
570.995	35552.91
571.193	34901.65
571.392	35473.04
571.59	34870.93
571.789	34909.85
571.987	34829.98
572.186	34954.9
572.384	34791.06
572.582	34703
572.781	34956.95
572.979	34100.9
573.177	34729.62
573.376	34780.82
573.574	34303.65
573.772	34094.75
573.971	34012.84
574.169	33783.46
574.367	33738.41
574.565	34260.64
574.763	33885.86
574.962	33380.01
575.16	33294
575.358	33685.16
575.556	33019.57
575.754	33537.71
575.952	32941.75
576.151	33345.2
576.349	32845.49
576.547	32732.86
576.745	33107.63
576.943	32730.81
577.141	32806.58
577.339	32589.5
577.537	32353.98
577.735	32681.66
577.933	32499.39
578.131	32374.46
578.329	32151.23
578.527	31823.56
578.725	32181.95
578.923	31841.99
579.121	31659.72
579.319	31573.7
579.516	31973.06
579.714	31620.81
579.912	31510.22
580.11	31241.93
580.308	31346.38
580.506	31547.08
580.704	30725.85
580.901	30934.74
581.099	30756.57
581.297	30856.92
581.495	30654.17
581.692	31162.06
581.89	30605.02
582.088	30731.99
582.285	30600.92
582.483	30570.2
582.681	30594.78
582.878	30187.23
583.076	30392.03
583.274	30129.89
583.471	30041.82
583.669	29910.75
583.866	29753.06
584.064	29673.19
584.262	29181.68
584.459	29789.92
584.657	29390.57
584.854	29443.82
585.052	29097.71
585.249	29312.75
585.447	29114.09
585.644	29105.9
585.841	29071.09
586.039	29202.16
586.236	28434.17
586.434	28610.29
586.631	28280.57
586.828	28641.01
587.026	28636.92
587.223	28557.05
587.42	28294.91
587.618	28458.74
587.815	28104.45
588.012	28110.59
588.21	27545.35
588.407	28434.17
588.604	28059.39
588.801	27410.18
588.999	27645.7
589.196	27350.79
589.393	27578.12
589.59	27463.43
589.787	27172.62
589.984	27418.38
590.182	27004.69
590.379	27270.92
590.576	27051.79
590.773	26896.14
590.97	26758.93
591.167	26953.49
591.364	26636.05
591.561	26627.86
591.758	26253.08
591.955	26466.07
592.152	26687.25
592.349	26339.1
592.546	26265.37
592.743	26459.93
592.94	25775.91
593.137	26132.25
593.334	26070.81
593.531	25499.43
593.727	25958.17
593.924	25841.44
594.121	25567.01
594.318	25806.62
594.515	25384.74
594.712	25624.36
594.908	25116.46
595.105	25392.94
595.302	25136.94
595.499	25263.91
595.696	25012.01
595.892	24784.69
596.089	24739.63
596.286	24713.01
596.482	24719.15
596.679	24557.36
596.876	24809.26
597.072	24461.11
597.269	24500.02
597.466	24123.19
597.662	24229.69
597.859	24379.19
598.055	24334.14
598.252	24000.32
598.448	24123.19
598.645	24014.65
598.841	23973.69
599.038	23807.81
599.234	23867.2
599.431	23433.03
599.627	23504.71
599.824	23299.91
600.02	23433.03
600.217	23256.9
600.413	23396.17
600.609	23314.25
600.806	23021.39
601.002	22886.22
601.198	22824.78
601.395	22798.16
601.591	22407
601.787	22519.64
601.984	22695.76
602.18	22959.95
602.376	22511.44
602.572	22378.33
602.769	22490.96
602.965	21919.58
603.161	22458.2
603.357	21938.01
603.553	22167.38
603.75	22163.29
603.946	21954.4
604.142	22196.06
604.338	21610.34
604.534	21722.98
604.73	21559.14
604.926	21765.98
605.122	21622.62
605.318	21471.08
605.514	21702.5
605.71	21399.4
605.906	21466.98
606.102	21516.13
606.298	21262.18
606.494	21305.19
606.69	20957.03
606.886	21268.33
607.082	20727.66
607.278	21094.25
607.474	20569.97
607.67	20600.69
607.866	20369.27
608.062	20926.32
608.257	20952.94
608.453	20569.97
608.649	20938.6
608.845	20410.23
609.041	20402.04
609.236	20512.63
609.432	20240.25
609.628	20248.44
609.824	20119.42
610.019	20105.08
610.215	20121.46
610.411	20395.89
610.606	20195.19
610.802	20158.33
610.998	20164.47
611.193	19945.34
611.389	20105.08
611.584	19713.92
611.78	19449.73
611.976	19328.9
612.171	19822.46
612.367	19617.66
612.562	19421.06
612.758	19277.7
612.953	19369.86
613.149	19601.28
613.344	19345.28
613.539	19537.79
613.735	19306.37
613.93	19267.46
614.126	19029.9
614.321	19089.29
614.517	19310.47
614.712	19042.18
614.907	19023.75
615.103	19146.63
615.298	18847.63
615.493	19126.15
615.688	18669.45
615.884	18956.17
616.079	18560.91
616.274	19023.75
616.47	18755.47
616.665	18864.01
616.86	18501.52
617.055	18415.51
617.25	18337.68
617.445	18784.14
617.641	18202.52
617.836	18364.31
618.031	17862.55
618.226	18309.01
618.421	18376.59
618.616	18243.48
618.811	17745.82
619.006	18155.41
619.201	17870.75
619.396	17846.17
619.591	17352.61
619.786	17833.88
619.981	17532.83
620.176	17620.89
620.371	17387.43
620.566	17459.1
620.761	17358.75
620.956	17438.62
621.151	16973.74
621.346	17188.77
621.541	16727.98
621.735	16961.45
621.93	16678.83
622.125	16613.29
622.32	16533.42
622.515	16414.64
622.709	16369.58
622.904	16455.6
623.099	16379.82
623.294	16086.97
623.488	16234.42
623.683	16017.33
623.878	15925.18
624.072	15857.59
624.267	15945.66
624.462	15804.35
624.656	15478.72
624.851	15531.97
625.046	15443.9
625.24	15298.5
625.435	15165.38
625.629	15333.31
625.824	15040.45
626.018	15044.55
626.213	14802.89
626.407	14849.99
626.602	14811.08
626.796	14667.72
626.991	14757.83
627.185	14507.98
627.38	14428.11
627.574	14372.82
627.768	14053.33
627.963	14290.9
628.157	13842.39
628.352	14315.47
628.546	13739.99
628.74	14004.18
628.935	13735.9
629.129	13819.86
629.323	13748.18
629.517	13653.98
629.712	13750.23
629.906	13797.34
630.1	13447.13
630.294	13348.83
630.489	13303.78
630.683	13451.23
630.877	13064.16
631.071	13017.06
631.265	12877.8
631.459	12912.61
631.653	12744.68
631.848	12842.98
632.042	12634.09
632.236	12595.18
632.43	12460.01
632.624	12623.85
632.818	12335.09
633.012	12185.58
633.206	12263.41
633.4	12455.92
633.594	12025.84
633.788	12111.86
633.982	12046.32
634.176	12083.19
634.369	11872.25
634.563	11909.11
634.757	11925.49
634.951	11720.7
635.145	11872.25
635.339	11642.87
635.533	11583.48
635.726	11501.56
635.92	11282.43
636.114	11253.76
636.308	11393.02
636.501	11362.3
636.695	11288.57
636.889	11051.01
637.083	11132.93
637.276	11020.29
637.47	10825.73
637.664	11008
637.857	10829.83
638.051	10682.38
638.244	10573.83
638.438	10704.9
638.632	10555.4
638.825	10555.4
639.019	10555.4
639.212	10410
639.406	10379.28
639.599	10225.68
639.793	10403.85
639.986	10029.07
640.18	10113.04
640.373	9945.11
640.567	9912.34
640.76	10055.7
640.954	9814.04
641.147	9709.59
641.34	9721.88
641.534	9816.08
641.727	9818.13
641.92	9525.27
642.114	9494.55
642.307	9310.24
642.5	9308.19
642.694	9136.16
642.887	9306.14
643.08	9408.54
643.273	9297.95
643.467	9285.66
643.66	9003.04
643.853	8955.94
644.046	8988.71
644.239	8740.9
644.432	8845.35
644.626	8681.51
644.819	8618.02
645.012	8714.28
645.205	8568.87
645.398	8634.41
645.591	8544.3
645.784	8554.54
645.977	8466.47
646.17	8366.12
646.363	8200.24
646.556	8237.1
646.749	8351.79
646.942	8280.11
647.135	8327.21
647.328	8202.29
647.521	7985.2
647.714	8138.8
647.907	7997.49
648.099	7886.9
648.292	7829.56
648.485	7845.94
648.678	7893.04
648.871	7598.13
649.064	7561.27
649.256	7821.36
649.449	7708.73
649.642	7598.13
649.835	7430.2
650.027	7598.13
650.22	7385.15
650.413	7299.13
650.605	7481.4
650.798	7342.14
650.991	7211.07
651.183	7192.64
651.376	7123.01
651.568	7194.68
651.761	7123.01
651.954	6983.74
652.146	6963.26
652.339	7133.25
652.531	6928.45
652.724	7026.75
652.916	6830.15
653.109	6920.26
653.301	6856.77
653.494	6946.88
653.686	6826.05
653.879	6717.51
654.071	6602.82
654.263	6559.81
654.456	6744.13
654.648	6631.49
654.84	6641.73
655.033	6584.39
655.225	6527.05
655.417	6441.03
655.61	6438.98
655.802	6383.69
655.994	6107.21
656.186	6385.74
656.379	6326.35
656.571	6279.24
656.763	6156.36
656.955	6043.73
657.148	6344.78
657.34	6107.21
657.532	6049.87
657.724	6019.15
657.916	6015.05
658.108	5994.58
658.3	5920.85
658.492	5955.66
658.684	5789.78
658.876	5984.34
659.068	5830.74
659.26	5793.87
659.452	5834.83
659.644	5679.19
659.836	5668.95
660.028	5759.06
660.22	5531.73
660.412	5687.38
660.604	5759.06
660.796	5673.04
660.988	5478.49
661.18	5490.77
661.372	5337.18
661.563	5460.06
661.755	5406.81
661.947	5417.05
662.139	5341.27
662.331	5337.18
662.522	5220.44
662.714	5202.01
662.906	5204.06
663.097	5183.58
663.289	5173.34
663.481	5003.36
663.673	5214.3
663.864	5085.28
664.056	4968.54
664.247	5021.79
664.439	4989.02
664.631	5068.89
664.822	4909.15
665.014	4923.49
665.205	4948.06
665.397	4833.38
665.588	4847.71
665.78	4986.97
665.971	4638.82
666.163	4763.75
666.354	4829.28
666.546	4782.18
666.737	4636.77
666.929	4749.41
667.12	4708.45
667.311	4610.15
667.503	4550.76
667.694	4665.44
667.885	4737.12
668.077	4599.91
668.268	4532.33
668.459	4462.69
668.651	4462.69
668.842	4479.08
669.033	4507.75
669.224	4456.55
669.416	4440.17
669.607	4380.78
669.798	4448.36
669.989	4194.41
670.18	4079.72
670.371	4337.77
670.563	4261.99
670.754	4282.47
670.945	4184.17
671.136	4337.77
671.327	4210.79
671.518	4235.37
671.709	4190.31
671.9	4155.5
672.091	4149.36
672.282	4157.55
672.473	4169.84
672.664	4034.67
672.855	4173.93
673.046	4112.49
673.237	4112.49
673.428	4028.53
673.619	4120.68
673.809	3942.51
674	3928.17
674.191	3926.13
674.382	3909.74
674.573	3995.76
674.764	3881.07
674.954	3985.52
675.145	3829.87
675.336	4012.14
675.527	3799.15
675.717	3784.82
675.908	3723.38
676.099	3774.58
676.289	3772.53
676.48	3846.26
676.671	3729.52
676.861	3827.82
677.052	3829.87
677.243	3768.43
677.433	3752.05
677.624	3756.15
677.814	3801.2
678.005	3743.86
678.195	3659.89
678.386	3606.64
678.576	3672.18
678.767	3676.27
678.957	3670.13
679.148	3680.37
679.338	3778.67
679.529	3739.76
679.719	3592.31
679.909	3526.77
680.1	3555.44
680.29	3534.96
680.481	3614.84
680.671	3500.15
680.861	3563.64
681.052	3635.32
681.242	3541.11
681.432	3596.4
681.622	3561.59
681.813	3444.85
682.003	3496.05
682.193	3553.4
682.383	3541.11
682.573	3518.58
682.764	3373.18
682.954	3448.95
683.144	3434.61
683.334	3278.97
683.524	3364.98
683.714	3514.49
683.904	3424.37
684.094	3446.9
684.284	3412.09
684.474	3438.71
684.664	3457.14
684.854	3330.17
685.044	3393.65
685.234	3373.18
685.424	3436.66
685.614	3358.84
685.804	3278.97
685.994	3326.07
686.184	3330.17
686.374	3360.89
686.564	3287.16
686.753	3348.6
686.943	3166.33
687.133	3201.15
687.323	3188.86
687.513	3299.45
687.702	3317.88
687.892	3108.99
688.082	3233.91
688.272	3176.57
688.461	3108.99
688.651	3154.04
688.841	3313.78
689.03	3094.65
689.22	3158.14
689.41	3111.04
689.599	3131.51
689.789	3131.51
689.979	3061.88
690.168	2986.11
690.358	3039.36
690.547	3051.64
690.737	3053.69
690.926	2918.53
691.116	2941.05
691.305	3033.21
691.495	2961.53
691.684	2951.29
691.874	3037.31
692.063	2951.29
692.252	2928.77
692.442	3018.88
692.631	3004.54
692.82	3018.88
693.01	3027.07
693.199	3000.44
693.388	2920.57
693.578	2918.53
693.767	2914.43
693.956	2918.53
694.146	2998.4
694.335	2943.1
694.524	2961.53
694.713	3016.83
694.902	2830.46
695.092	2902.14
695.281	2887.81
695.47	2877.57
695.659	2832.51
695.848	2889.85
696.037	2951.29
696.226	2816.13
696.415	2785.41
696.604	2967.68
696.793	2783.36
696.982	3008.64
697.171	2973.82
697.36	2824.32
697.549	2879.61
697.738	2916.48
697.927	2717.83
698.116	2838.66
698.305	2838.66
698.494	2836.61
698.683	2863.23
698.872	2830.46
699.061	2764.93
699.25	2850.94
699.438	2785.41
699.627	2787.46
699.816	2777.22
700.005	2896
700.193	2754.69
700.382	2848.9
700.571	2787.46
700.76	2812.03
700.948	2818.18
701.137	2764.93
701.326	2738.3
701.514	2713.73
701.703	2902.14
701.892	2816.13
702.08	2906.24
702.269	2863.23
702.457	2699.39
702.646	2744.45
702.834	2699.39
703.023	2828.42
703.212	2734.21
703.4	2850.94
703.589	2748.54
703.777	2824.32
703.965	2711.68
704.154	2769.02
704.342	2822.27
704.531	2732.16
704.719	2605.19
704.907	2678.91
705.096	2678.91
705.284	2711.68
705.472	2760.83
705.661	2738.3
705.849	2728.07
706.037	2582.66
706.226	2721.92
706.414	2623.62
706.602	2756.74
706.79	2703.49
706.979	2728.07
707.167	2748.54
707.355	2619.52
707.543	2672.77
707.731	2758.78
707.919	2613.38
708.107	2762.88
708.296	2601.09
708.484	2617.47
708.672	2560.13
708.86	2584.71
709.048	2699.39
709.236	2582.66
709.424	2580.61
709.612	2603.14
709.8	2533.51
709.988	2584.71
710.176	2615.43
710.364	2588.8
710.551	2648.19
710.739	2494.6
710.927	2642.05
711.115	2539.65
711.303	2646.15
711.491	2584.71
711.679	2484.36
711.866	2539.65
712.054	2476.16
712.242	2597
712.43	2521.22
712.617	2521.22
712.805	2640
712.993	2498.69
713.181	2443.4
713.368	2488.45
713.556	2519.17
713.744	2416.77
713.931	2558.08
714.119	2482.31
714.306	2429.06
714.494	2513.03
714.682	2447.49
714.869	2461.83
715.057	2558.08
715.244	2355.33
715.432	2334.86
715.619	2379.91
715.807	2422.92
715.994	2472.07
716.182	2384.01
716.369	2443.4
716.556	2467.97
716.744	2453.64
716.931	2355.33
717.119	2449.54
717.306	2398.34
717.493	2328.71
717.681	2494.6
717.868	2316.42
718.055	2496.64
718.242	2269.32
718.43	2355.33
718.617	2302.09
718.804	2334.86
718.991	2408.58
719.179	2381.96
719.366	2326.66
719.553	2359.43
719.74	2295.94
719.927	2406.53
720.114	2289.8
720.301	2297.99
720.488	2361.48
720.676	2238.6
720.863	2252.94
721.05	2304.14
721.237	2304.14
721.424	2261.13
721.611	2226.31
721.798	2246.79
721.985	2160.78
722.172	2111.63
722.358	2134.15
722.545	2232.46
722.732	2132.11
722.919	2281.61
723.106	2181.26
723.293	2085
723.48	2095.24
723.667	2136.2
723.853	2134.15
724.04	2285.7
724.227	2144.39
724.414	2195.59
724.6	2199.69
724.787	2134.15
724.974	2197.64
725.161	2193.55
725.347	2148.49
725.534	2162.83
725.72	2183.31
725.907	2103.43
726.094	2078.86
726.28	2044.04
726.467	2072.72
726.653	2097.29
726.84	2007.18
727.027	2148.49
727.213	2025.61
727.4	1968.27
727.586	2101.39
727.773	2080.91
727.959	2039.95
728.145	2132.11
728.332	1982.6
728.518	1964.17
728.705	2093.19
728.891	1958.03
729.077	2082.95
729.264	2015.37
729.45	2062.48
729.636	1998.99
729.823	2072.72
730.009	2031.76
730.195	1974.41
730.382	2005.13
730.568	1976.46
730.754	2046.09
730.94	1955.98
731.126	1980.56
731.313	1882.25
731.499	1976.46
731.685	1912.97
731.871	1958.03
732.057	2044.04
732.243	1874.06
732.429	1951.88
732.615	1876.11
732.801	1841.29
732.987	1931.41
733.173	1855.63
733.359	1888.4
733.545	1824.91
733.731	1910.93
733.917	1900.69
734.103	1730.7
734.289	1880.21
734.475	1826.96
734.661	1777.81
734.847	1855.63
735.033	1826.96
735.219	1740.94
735.404	1882.25
735.59	1896.59
735.776	1708.18
735.962	1843.34
736.148	1835.15
736.333	1910.93
736.519	1820.81
736.705	1730.7
736.89	1769.62
737.076	1679.51
737.262	1704.08
737.447	1763.47
737.633	1767.57
737.819	1826.96
738.004	1855.63
738.19	1622.16
738.375	1691.79
738.561	1677.46
738.747	1759.38
738.932	1704.08
739.118	1710.22
739.303	1726.61
739.489	1583.25
739.674	1708.18
739.859	1577.11
740.045	1656.98
740.23	1632.4
740.416	1636.5
740.601	1687.7
740.786	1710.22
740.972	1646.74
741.157	1669.27
741.342	1689.74
741.528	1624.21
741.713	1714.32
741.898	1591.44
742.084	1638.55
742.269	1630.35
742.454	1611.92
742.639	1640.59
742.824	1589.39
743.01	1581.2
743.195	1482.9
743.38	1546.39
743.565	1591.44
743.75	1532.05
743.935	1474.71
744.12	1560.72
744.305	1558.67
744.49	1468.56
744.675	1573.01
744.86	1407.13
745.045	1429.65
745.23	1552.53
745.415	1540.24
745.6	1409.17
745.785	1450.13
745.97	1443.99
746.155	1462.42
746.34	1452.18
746.525	1484.95
746.71	1437.84
746.895	1384.6
747.079	1374.36
747.264	1400.98
747.449	1392.79
747.634	1321.11
747.819	1386.65
748.003	1286.3
748.188	1302.68
748.373	1411.22
748.557	1314.97
748.742	1374.36
748.927	1271.96
749.111	1351.83
749.296	1175.7
749.481	1349.78
749.665	1147.03
749.85	1183.9
750.034	1231
750.219	1269.91
750.404	1175.7
750.588	1177.75
750.773	1204.38
750.957	1251.48
751.141	1194.14
751.326	1214.62
751.51	1153.18
751.695	1181.85
751.879	1249.43
752.064	1202.33
752.248	1237.14
752.432	1220.76
752.617	1171.61
752.801	1081.5
752.985	1077.4
753.17	1114.27
753.354	1114.27
753.538	1028.25
753.722	1034.39
753.907	1015.96
754.091	1110.17
754.275	983.2
754.459	1089.69
754.643	1061.02
754.828	1083.55
755.012	1046.68
755.196	925.85
755.38	1036.44
755.564	1001.63
755.748	1065.11
755.932	991.39
756.116	1089.69
756.3	999.58
756.484	1015.96
756.668	966.81
756.852	993.44
757.036	940.19
757.22	997.53
757.404	977.05
757.588	854.17
757.772	997.53
757.956	942.24
758.14	1011.87
758.323	884.89
758.507	917.66
758.691	860.32
758.875	880.8
759.059	807.07
759.242	909.47
759.426	780.45
759.61	880.8
759.794	882.85
759.977	872.61
760.161	921.76
760.345	872.61
760.528	850.08
760.712	805.02
760.895	905.37
761.079	827.55
761.263	835.74
761.446	737.44
761.63	835.74
761.813	899.23
761.997	817.31
762.18	794.78
762.364	800.93
762.547	796.83
762.731	782.49
762.914	878.75
763.098	848.03
763.281	829.6
763.464	704.67
763.648	684.19
763.831	776.35
764.015	708.77
764.198	741.54
764.381	731.3
764.564	733.34
764.748	716.96
764.931	778.4
765.114	743.58
765.297	751.78
765.481	684.19
765.664	776.35
765.847	692.38
766.03	743.58
766.213	655.52
766.397	630.95
766.58	692.38
766.763	735.39
766.946	731.3
767.129	708.77
767.312	733.34
767.495	710.82
767.678	698.53
767.861	714.91
768.044	721.06
768.227	762.02
768.41	706.72
768.593	696.48
768.776	602.27
768.959	688.29
769.142	671.9
769.324	676
769.507	766.11
769.69	618.66
769.873	669.86
770.056	669.86
770.239	719.01
770.421	616.61
770.604	733.34
770.787	729.25
770.97	624.8
771.152	651.42
771.335	676
771.518	641.18
771.7	639.14
771.883	639.14
772.066	639.14
772.248	696.48
772.431	762.02
772.613	712.86
772.796	610.47
772.978	579.75
773.161	604.32
773.343	616.61
773.526	645.28
773.708	549.03
773.891	544.93
774.073	538.79
774.256	581.79
774.438	622.75
774.621	573.6
774.803	579.75
774.985	626.85
775.168	635.04
775.35	555.17
775.532	553.12
775.715	577.7
775.897	520.35
776.079	569.51
776.261	573.6
776.444	604.32
776.626	587.94
776.808	549.03
776.99	497.83
777.173	553.12
777.355	450.72
777.537	569.51
777.719	565.41
777.901	561.31
778.083	551.07
778.265	483.49
778.447	544.93
778.629	512.16
778.811	485.54
778.993	495.78
779.175	512.16
779.357	463.01
779.539	475.3
779.721	477.35
779.903	514.21
780.085	540.83
780.267	555.17
780.449	495.78
780.631	538.79
780.812	465.06
780.994	522.4
781.176	487.59
781.358	417.96
781.54	377
781.721	516.26
781.903	424.1
782.085	489.64
782.267	348.33
782.448	442.53
782.63	481.44
782.812	434.34
782.993	460.96
783.175	405.67
783.357	444.58
783.538	432.29
783.72	350.37
783.901	444.58
784.083	475.3
784.264	362.66
784.446	348.33
784.627	321.7
784.809	321.7
784.99	389.28
785.172	362.66
785.353	327.85
785.535	354.47
785.716	405.67
785.897	377
786.079	374.95
786.26	346.28
786.441	366.76
786.623	288.93
786.804	352.42
786.985	352.42
787.167	331.94
787.348	338.09
787.529	358.57
787.71	428.2
787.891	280.74
788.073	370.85
788.254	252.07
788.435	362.66
788.616	323.75
788.797	352.42
788.978	299.17
789.159	336.04
789.34	254.12
789.522	262.31
789.703	321.7
789.884	319.65
790.065	340.13
790.246	262.31
790.427	290.98
790.607	323.75
790.788	284.84
790.969	317.61
791.15	299.17
791.331	297.13
791.512	268.45
791.693	258.21
791.874	243.88
792.054	370.85
792.235	366.76
792.416	288.93
792.597	262.31
792.778	215.21
792.958	211.11
793.139	258.21
793.32	202.92
793.5	245.93
793.681	209.06
793.862	243.88
794.042	245.93
794.223	315.56
794.404	247.97
794.584	264.36
794.765	192.68
794.945	256.17
795.126	270.5
795.306	338.09
795.487	241.83
795.667	235.69
795.848	260.26
796.028	233.64
796.209	254.12
796.389	209.06
796.57	247.97
796.75	217.26
796.93	290.98
797.111	164.01
797.291	266.41
797.471	155.82
797.652	239.78
797.832	166.06
798.012	225.45
798.192	196.78
798.373	196.78
798.553	116.9
798.733	227.5
798.913	243.88
799.093	227.5
799.274	137.38
799.454	254.12
799.634	211.11
799.814	194.73
799.994	174.25
800.174	196.78
800.354	221.35
800.534	227.5
800.714	182.44
800.894	211.11
801.074	166.06
801.254	262.31
801.434	149.67
801.614	159.91
801.794	161.96
801.974	692.38
802.154	235.69
802.334	182.44
802.514	190.63
802.693	180.39
802.873	180.39
803.053	161.96
803.233	221.35
803.413	250.02
803.592	143.53
803.772	272.55
803.952	135.34
804.131	147.62
804.311	225.45
804.491	196.78
804.67	127.14
804.85	194.73
805.03	188.58
805.209	229.54
805.389	90.28
805.568	172.2
805.748	112.81
805.928	188.58
806.107	190.63
806.287	200.87
806.466	131.24
806.646	231.59
806.825	192.68
807.004	235.69
807.184	135.34
807.363	178.34
807.543	118.95
807.722	172.2
807.901	147.62
808.081	172.2
808.26	129.19
808.439	129.19
808.619	161.96
808.798	137.38
808.977	145.58
809.156	92.33
809.336	145.58
809.515	170.15
809.694	112.81
809.873	131.24
810.052	149.67
810.231	192.68
810.411	118.95
810.59	110.76
810.769	121
810.948	157.86
811.127	53.42
811.306	247.97
811.485	137.38
811.664	159.91
811.843	180.39
812.022	100.52
812.201	141.48
812.38	143.53
812.559	100.52
812.737	166.06
812.916	133.29
813.095	157.86
813.274	178.34
813.453	121
813.632	121
813.811	100.52
813.989	108.71
814.168	123.05
814.347	116.9
814.526	106.67
814.704	98.47
814.883	192.68
815.062	108.71
815.24	155.82
815.419	118.95
815.598	90.28
815.776	180.39
815.955	139.43
816.133	73.9
816.312	100.52
816.49	112.81
816.669	141.48
816.847	129.19
817.026	137.38
817.204	92.33
817.383	186.54
817.561	61.61
817.74	131.24
817.918	51.37
818.097	174.25
818.275	77.99
818.453	131.24
818.632	141.48
818.81	112.81
818.988	88.23
819.167	55.47
819.345	37.03
819.523	114.86
819.701	123.05
819.879	151.72
820.058	88.23
820.236	84.14
820.414	143.53
820.592	139.43
820.77	90.28
820.948	98.47
821.127	51.37
821.305	53.42
821.483	110.76
821.661	157.86
821.839	63.66
822.017	18.6
822.195	51.37
822.373	73.9
822.551	131.24
822.729	147.62
822.907	92.33
823.085	67.75
823.262	82.09
823.44	26.79
823.618	32.94
823.796	100.52
823.974	157.86
824.152	114.86
824.329	75.95
824.507	135.34
824.685	69.8
824.863	174.25
825.04	123.05
825.218	82.09
825.396	14.51
825.574	137.38
825.751	172.2
825.929	88.23
826.107	96.43
826.284	90.28
826.462	49.32
826.639	77.99
826.817	69.8
826.994	92.33
827.172	22.7
827.349	57.51
827.527	151.72
827.704	71.85
827.882	55.47
828.059	129.19
828.237	84.14
828.414	108.71
828.591	53.42
828.769	121
828.946	8.36
829.124	133.29
829.301	129.19
829.478	102.57
829.655	90.28
829.833	104.62
830.01	32.94
830.187	100.52
830.364	106.67
830.542	67.75
830.719	92.33
830.896	133.29
831.073	82.09
831.25	88.23
831.427	69.8
831.604	57.51
831.782	92.33
831.959	114.86
832.136	-8.02
832.313	14.51
832.49	-32.6
832.667	12.46
832.844	94.38
833.021	98.47
833.198	98.47
833.374	63.66
833.551	12.46
833.728	77.99
833.905	73.9
834.082	4.27
834.259	73.9
834.436	116.9
834.612	116.9
834.789	90.28
834.966	47.27
835.143	65.71
835.319	67.75
835.496	125.1
835.673	108.71
835.85	123.05
836.026	-18.26
836.203	24.75
836.38	63.66
836.556	47.27
836.733	-26.45
836.909	53.42
837.086	49.32
837.262	104.62
837.439	86.19
837.616	32.94
837.792	14.51
837.968	90.28
838.145	14.51
838.321	32.94
838.498	34.99
838.674	141.48
838.851	61.61
839.027	84.14
839.203	32.94
839.38	84.14
839.556	59.56
839.732	155.82
839.909	-12.12
840.085	55.47
840.261	55.47
840.437	39.08
840.614	55.47
840.79	71.85
840.966	65.71
841.142	98.47
841.318	22.7
841.494	88.23
841.671	55.47
841.847	106.67
842.023	-38.74
842.199	43.18
842.375	49.32
842.551	41.13
842.727	-44.88
842.903	141.48
843.079	55.47
843.255	88.23
843.431	71.85
843.607	125.1
843.783	-83.8
843.959	88.23
844.134	63.66
844.31	125.1
844.486	22.7
844.662	12.46
844.838	82.09
845.013	41.13
845.189	55.47
845.365	71.85
845.541	96.43
845.716	45.23
845.892	30.89
846.068	43.18
846.244	96.43
846.419	106.67
846.595	75.95
846.77	45.23
846.946	92.33
847.122	30.89
847.297	43.18
847.473	61.61
847.648	-32.6
847.824	71.85
847.999	-30.55
848.175	82.09
848.35	88.23
848.526	92.33
848.701	118.95
848.876	-10.07
849.052	92.33
849.227	71.85
849.403	-42.84
849.578	-18.26
849.753	90.28
849.929	116.9
850.104	-18.26
850.279	30.89
850.454	0.17
850.63	149.67
850.805	57.51
850.98	80.04
851.155	14.51
851.33	96.43
851.505	26.79
851.681	34.99
851.856	-44.88
852.031	34.99
852.206	67.75
852.381	8.36
852.556	75.95
852.731	39.08
852.906	8.36
853.081	114.86
853.256	12.46
853.431	32.94
853.606	2.22
853.781	59.56
853.956	-1.88
854.131	34.99
854.305	45.23
854.48	18.6
854.655	-36.69
854.83	41.13
855.005	10.41
855.18	22.7
855.354	-36.69
855.529	69.8
855.704	71.85
855.879	6.31
856.053	45.23
856.228	96.43
856.403	18.6
856.577	-44.88
856.752	2.22
856.926	39.08
857.101	57.51
857.276	-55.12
857.45	118.95
857.625	63.66
857.799	30.89
857.974	102.57
858.148	-48.98
858.323	69.8
858.497	28.84
858.672	39.08
858.846	37.03
859.02	-8.02
859.195	39.08
859.369	12.46
859.543	-10.07
859.718	53.42
859.892	59.56
860.066	77.99
860.241	26.79
860.415	45.23
860.589	-5.97
860.763	26.79
860.938	71.85
861.112	-73.56
861.286	-22.36
861.46	4.27
861.634	18.6
861.808	65.71
861.982	-18.26
862.157	2.22
862.331	34.99
862.505	-10.07
862.679	12.46
862.853	69.8
863.027	12.46
863.201	20.65
863.375	-28.5
863.549	57.51
863.722	86.19
863.896	65.71
864.07	57.51
864.244	8.36
864.418	102.57
864.592	16.55
864.766	30.89
864.939	34.99
865.113	-5.97
865.287	114.86
865.461	-77.65
865.634	26.79
865.808	28.84
865.982	51.37
866.156	8.36
866.329	-24.4
866.503	-18.26
866.676	22.7
866.85	-34.64
867.024	-10.07
867.197	43.18
867.371	45.23
867.544	-20.31
867.718	28.84
867.891	65.71
868.065	-10.07
868.238	41.13
868.412	16.55
868.585	92.33
868.759	20.65
868.932	-8.02
869.105	16.55
869.279	-34.64
869.452	-8.02
869.625	28.84
869.799	59.56
869.972	24.75
870.145	37.03
870.319	26.79
870.492	57.51
870.665	4.27
870.838	41.13
871.011	6.31
871.185	41.13
871.358	-8.02
871.531	45.23
871.704	-22.36
871.877	41.13
872.05	45.23
872.223	-5.97
872.396	39.08
872.569	4.27
872.742	22.7
872.915	28.84
873.088	-30.55
873.261	-3.93
873.434	45.23
873.607	-57.17
873.78	37.03
873.953	0.17
874.126	14.51
874.299	16.55
874.471	34.99
874.644	30.89
874.817	32.94
874.99	100.52
875.163	28.84
875.335	59.56
875.508	-18.26
875.681	112.81
875.853	10.41
876.026	-28.5
876.199	92.33
876.371	12.46
876.544	18.6
876.717	0.17
876.889	16.55
877.062	41.13
877.234	10.41
877.407	75.95
877.579	41.13
877.752	80.04
877.924	28.84
878.097	28.84
878.269	41.13
878.442	-12.12
878.614	8.36
878.786	12.46
878.959	53.42
879.131	39.08
879.303	18.6
879.476	-30.55
879.648	32.94
879.82	51.37
879.993	61.61
880.165	86.19
880.337	18.6
880.509	2.22
880.681	-8.02
880.854	86.19
881.026	-26.45
881.198	22.7
881.37	8.36
881.542	-10.07
881.714	18.6
881.886	67.75
882.058	28.84
882.23	47.27
882.402	6.31
882.574	30.89
882.746	-14.17
882.918	110.76
883.09	-22.36
883.262	24.75
883.434	53.42
883.606	24.75
883.778	34.99
883.95	34.99
884.122	-18.26
884.293	123.05
884.465	37.03
884.637	24.75
884.809	39.08
884.98	-20.31
885.152	45.23
885.324	73.9
885.496	-122.71
885.667	20.65
885.839	-12.12
886.011	39.08
886.182	-3.93
886.354	12.46
886.525	41.13
886.697	47.27
886.869	-12.12
887.04	51.37
887.212	77.99
887.383	53.42
887.555	20.65
887.726	-14.17
887.897	57.51
888.069	43.18
888.24	18.6
888.412	32.94
888.583	-46.93
888.754	26.79
888.926	34.99
889.097	-24.4
889.268	16.55
889.44	32.94
889.611	53.42
889.782	6.31
889.953	-18.26
890.125	34.99
890.296	-18.26
890.467	75.95
890.638	75.95
890.809	2.22
890.98	-1.88
891.151	45.23
891.323	100.52
891.494	43.18
891.665	-3.93
891.836	96.43
892.007	-48.98
892.178	-3.93
892.349	-83.8
892.52	-8.02
892.691	53.42
892.862	-30.55
893.032	45.23
893.203	-22.36
893.374	92.33
893.545	121
893.716	12.46
893.887	12.46
894.057	69.8
894.228	22.7
894.399	-26.45
894.57	4.27
894.74	-18.26
894.911	10.41
895.082	37.03
895.253	47.27
895.423	-20.31
895.594	22.7
895.764	37.03
895.935	-34.64
896.106	2.22
896.276	47.27
896.447	51.37
896.617	53.42
896.788	22.7
896.958	37.03
897.129	-40.79
897.299	-24.4
897.47	28.84
897.64	28.84
897.81	37.03
897.981	57.51
898.151	69.8
898.322	77.99
898.492	28.84
898.662	6.31
898.832	-12.12
899.003	-51.03
899.173	-40.79
899.343	26.79
899.513	45.23
