Data from USB4F104151__34__12-35-36-641.txt Node

Date: Fri Mar 14 12:35:36 EDT 2025
User: louis
Spectrometer: USB4F10415
Trigger mode: 4
Integration Time (sec): 2.000000E-2
Scans to average: 1
Electric dark correction enabled: true
Nonlinearity correction enabled: false
Boxcar width: 0
XAxis mode: Wavelengths
Number of Pixels in Spectrum: 3648
>>>>>Begin Spectral Data<<<<<
178.204	-87.04
178.424	-87.04
178.644	-87.04
178.864	-95.23
179.084	-107.52
179.304	-37.89
179.524	-7.17
179.744	27.65
179.964	-58.37
180.184	23.55
180.404	11.26
180.624	80.89
180.844	31.74
181.064	-64.51
181.283	-19.46
181.503	-25.6
181.723	37.89
181.943	19.46
182.163	33.79
182.383	80.89
182.602	72.7
182.822	80.89
183.042	62.46
183.262	-25.6
183.482	41.98
183.701	19.46
183.921	27.65
184.141	3.07
184.361	66.56
184.58	-19.46
184.8	19.46
185.02	41.98
185.239	107.52
185.459	15.36
185.679	21.5
185.898	21.5
186.118	-3.07
186.338	50.18
186.557	103.42
186.777	3.07
186.997	70.65
187.216	-1.02
187.436	27.65
187.655	37.89
187.875	41.98
188.095	56.32
188.314	89.09
188.534	93.18
188.753	-5.12
188.973	-23.55
189.192	41.98
189.412	56.32
189.631	91.13
189.851	23.55
190.07	56.32
190.29	-37.89
190.509	25.6
190.729	31.74
190.948	-13.31
191.168	132.09
191.387	93.18
191.607	46.08
191.826	-3.07
192.045	37.89
192.265	68.61
192.484	39.94
192.704	54.27
192.923	-33.79
193.142	31.74
193.362	54.27
193.581	76.8
193.8	97.28
194.02	41.98
194.239	91.13
194.458	17.41
194.678	50.18
194.897	5.12
195.116	11.26
195.335	76.8
195.555	41.98
195.774	62.46
195.993	11.26
196.212	-7.17
196.432	60.42
196.651	1.02
196.87	87.04
197.089	87.04
197.308	52.22
197.528	5.12
197.747	37.89
197.966	-1.02
198.185	109.57
198.404	105.47
198.623	25.6
198.842	33.79
199.062	68.61
199.281	39.94
199.5	7.17
199.719	80.89
199.938	41.98
200.157	115.71
200.376	89.09
200.595	66.56
200.814	54.27
201.033	-27.65
201.252	91.13
201.471	68.61
201.69	27.65
201.909	56.32
202.128	35.84
202.347	99.33
202.566	29.7
202.785	64.51
203.004	66.56
203.223	134.14
203.442	-11.26
203.661	-46.08
203.879	33.79
204.098	134.14
204.317	-7.17
204.536	-5.12
204.755	48.13
204.974	27.65
205.193	80.89
205.411	-44.03
205.63	52.22
205.849	52.22
206.068	5.12
206.287	13.31
206.505	33.79
206.724	31.74
206.943	-25.6
207.162	-29.7
207.381	44.03
207.599	60.42
207.818	-3.07
208.037	-3.07
208.255	37.89
208.474	35.84
208.693	46.08
208.911	54.27
209.13	54.27
209.349	56.32
209.567	64.51
209.786	76.8
210.005	31.74
210.223	82.94
210.442	56.32
210.661	101.37
210.879	84.99
211.098	31.74
211.316	-29.7
211.535	50.18
211.753	35.84
211.972	68.61
212.191	-33.79
212.409	29.7
212.628	91.13
212.846	7.17
213.065	52.22
213.283	123.9
213.502	17.41
213.72	46.08
213.938	7.17
214.157	50.18
214.375	72.7
214.594	7.17
214.812	91.13
215.031	11.26
215.249	-5.12
215.467	23.55
215.686	-15.36
215.904	78.85
216.122	68.61
216.341	54.27
216.559	23.55
216.778	35.84
216.996	3.07
217.214	46.08
217.432	64.51
217.651	35.84
217.869	52.22
218.087	-19.46
218.306	-33.79
218.524	72.7
218.742	17.41
218.96	21.5
219.179	87.04
219.397	13.31
219.615	60.42
219.833	11.26
220.051	17.41
220.27	29.7
220.488	62.46
220.706	56.32
220.924	-39.94
221.142	-48.13
221.36	39.94
221.578	72.7
221.796	50.18
222.015	9.22
222.233	48.13
222.451	-25.6
222.669	5.12
222.887	-7.17
223.105	33.79
223.323	-19.46
223.541	-9.22
223.759	27.65
223.977	80.89
224.195	101.37
224.413	99.33
224.631	78.85
224.849	-3.07
225.067	23.55
225.285	-99.33
225.503	109.57
225.721	11.26
225.939	70.65
226.157	66.56
226.375	154.62
226.592	-3.07
226.81	95.23
227.028	54.27
227.246	52.22
227.464	105.47
227.682	117.76
227.9	46.08
228.117	13.31
228.335	35.84
228.553	48.13
228.771	54.27
228.989	56.32
229.206	23.55
229.424	27.65
229.642	50.18
229.86	-25.6
230.077	37.89
230.295	74.75
230.513	64.51
230.731	91.13
230.948	74.75
231.166	82.94
231.384	119.81
231.601	60.42
231.819	99.33
232.037	105.47
232.254	29.7
232.472	33.79
232.689	103.42
232.907	89.09
233.125	13.31
233.342	25.6
233.56	13.31
233.777	-9.22
233.995	29.7
234.213	62.46
234.43	111.61
234.648	111.61
234.865	52.22
235.083	70.65
235.3	-5.12
235.518	95.23
235.735	48.13
235.953	97.28
236.17	41.98
236.388	21.5
236.605	74.75
236.822	107.52
237.04	84.99
237.257	41.98
237.475	66.56
237.692	9.22
237.909	95.23
238.127	68.61
238.344	130.05
238.562	82.94
238.779	33.79
238.996	-15.36
239.214	60.42
239.431	5.12
239.648	103.42
239.865	44.03
240.083	15.36
240.3	62.46
240.517	60.42
240.735	33.79
240.952	91.13
241.169	60.42
241.386	3.07
241.603	19.46
241.821	-46.08
242.038	58.37
242.255	19.46
242.472	54.27
242.689	44.03
242.907	27.65
243.124	41.98
243.341	15.36
243.558	39.94
243.775	21.5
243.992	-9.22
244.209	41.98
244.426	115.71
244.643	87.04
244.86	29.7
245.078	58.37
245.295	46.08
245.512	89.09
245.729	19.46
245.946	5.12
246.163	-9.22
246.38	39.94
246.597	-7.17
246.814	44.03
247.031	23.55
247.248	62.46
247.464	23.55
247.681	39.94
247.898	78.85
248.115	54.27
248.332	25.6
248.549	-21.5
248.766	84.99
248.983	33.79
249.2	37.89
249.417	46.08
249.633	7.17
249.85	68.61
250.067	84.99
250.284	78.85
250.501	3.07
250.717	11.26
250.934	44.03
251.151	3.07
251.368	35.84
251.585	70.65
251.801	3.07
252.018	50.18
252.235	89.09
252.451	62.46
252.668	19.46
252.885	119.81
253.102	44.03
253.318	-11.26
253.535	84.99
253.752	41.98
253.968	119.81
254.185	54.27
254.401	13.31
254.618	54.27
254.835	50.18
255.051	152.57
255.268	11.26
255.484	44.03
255.701	-23.55
255.917	99.33
256.134	93.18
256.351	50.18
256.567	93.18
256.784	109.57
257	-5.12
257.217	76.8
257.433	60.42
257.65	39.94
257.866	74.75
258.082	-11.26
258.299	31.74
258.515	132.09
258.732	113.66
258.948	-5.12
259.165	-3.07
259.381	62.46
259.597	54.27
259.814	87.04
260.03	17.41
260.246	138.24
260.463	60.42
260.679	107.52
260.895	44.03
261.112	52.22
261.328	84.99
261.544	44.03
261.761	54.27
261.977	64.51
262.193	33.79
262.409	15.36
262.626	76.8
262.842	50.18
263.058	-3.07
263.274	39.94
263.49	7.17
263.707	50.18
263.923	48.13
264.139	52.22
264.355	-68.61
264.571	130.05
264.787	82.94
265.004	105.47
265.22	72.7
265.436	66.56
265.652	101.37
265.868	5.12
266.084	15.36
266.3	91.13
266.516	37.89
266.732	35.84
266.948	37.89
267.164	64.51
267.38	78.85
267.596	70.65
267.812	68.61
268.028	-9.22
268.244	33.79
268.46	50.18
268.676	37.89
268.892	152.57
269.108	68.61
269.324	39.94
269.54	-13.31
269.756	121.85
269.972	64.51
270.188	7.17
270.403	66.56
270.619	76.8
270.835	48.13
271.051	46.08
271.267	60.42
271.483	7.17
271.698	46.08
271.914	115.71
272.13	62.46
272.346	64.51
272.562	46.08
272.777	31.74
272.993	80.89
273.209	-21.5
273.425	136.19
273.64	89.09
273.856	103.42
274.072	76.8
274.287	25.6
274.503	56.32
274.719	58.37
274.934	132.09
275.15	35.84
275.366	-33.79
275.581	17.41
275.797	33.79
276.012	138.24
276.228	46.08
276.444	-11.26
276.659	17.41
276.875	39.94
277.09	87.04
277.306	48.13
277.521	35.84
277.737	29.7
277.952	132.09
278.168	46.08
278.383	11.26
278.599	-19.46
278.814	-3.07
279.03	-11.26
279.245	93.18
279.461	87.04
279.676	37.89
279.892	72.7
280.107	21.5
280.322	103.42
280.538	80.89
280.753	17.41
280.969	35.84
281.184	41.98
281.399	23.55
281.615	64.51
281.83	52.22
282.045	33.79
282.26	64.51
282.476	103.42
282.691	48.13
282.906	-1.02
283.122	11.26
283.337	95.23
283.552	58.37
283.767	13.31
283.983	78.85
284.198	7.17
284.413	107.52
284.628	17.41
284.843	37.89
285.058	66.56
285.274	35.84
285.489	-29.7
285.704	82.94
285.919	19.46
286.134	76.8
286.349	3.07
286.564	39.94
286.779	37.89
286.995	132.09
287.21	68.61
287.425	58.37
287.64	60.42
287.855	78.85
288.07	21.5
288.285	46.08
288.5	35.84
288.715	15.36
288.93	39.94
289.145	35.84
289.36	15.36
289.575	64.51
289.79	46.08
290.004	-5.12
290.219	3.07
290.434	-50.18
290.649	-5.12
290.864	62.46
291.079	23.55
291.294	70.65
291.509	44.03
291.724	84.99
291.938	64.51
292.153	27.65
292.368	46.08
292.583	54.27
292.798	3.07
293.012	50.18
293.227	23.55
293.442	-9.22
293.657	37.89
293.871	48.13
294.086	52.22
294.301	93.18
294.516	84.99
294.73	64.51
294.945	1.02
295.16	19.46
295.374	113.66
295.589	101.37
295.804	76.8
296.018	5.12
296.233	93.18
296.447	136.19
296.662	5.12
296.877	68.61
297.091	89.09
297.306	31.74
297.52	3.07
297.735	46.08
297.949	56.32
298.164	-41.98
298.378	27.65
298.593	-33.79
298.807	-5.12
299.022	-25.6
299.236	3.07
299.451	5.12
299.665	-13.31
299.88	62.46
300.094	84.99
300.309	72.7
300.523	44.03
300.737	103.42
300.952	93.18
301.166	50.18
301.381	64.51
301.595	78.85
301.809	29.7
302.024	-1.02
302.238	41.98
302.452	46.08
302.667	1.02
302.881	140.29
303.095	-9.22
303.309	52.22
303.524	-31.74
303.738	52.22
303.952	60.42
304.166	99.33
304.381	9.22
304.595	80.89
304.809	-9.22
305.023	5.12
305.237	-1.02
305.452	64.51
305.666	80.89
305.88	48.13
306.094	54.27
306.308	82.94
306.522	35.84
306.736	70.65
306.95	13.31
307.164	91.13
307.379	11.26
307.593	134.14
307.807	123.9
308.021	48.13
308.235	95.23
308.449	70.65
308.663	80.89
308.877	121.85
309.091	82.94
309.305	78.85
309.519	5.12
309.733	91.13
309.947	-27.65
310.161	130.05
310.374	62.46
310.588	80.89
310.802	62.46
311.016	111.61
311.23	111.61
311.444	-48.13
311.658	52.22
311.872	13.31
312.085	76.8
312.299	35.84
312.513	87.04
312.727	121.85
312.941	27.65
313.154	107.52
313.368	117.76
313.582	82.94
313.796	5.12
314.009	50.18
314.223	46.08
314.437	101.37
314.651	1.02
314.864	64.51
315.078	60.42
315.292	138.24
315.505	109.57
315.719	76.8
315.933	113.66
316.146	97.28
316.36	84.99
316.573	25.6
316.787	11.26
317.001	80.89
317.214	95.23
317.428	107.52
317.641	11.26
317.855	91.13
318.068	39.94
318.282	56.32
318.495	84.99
318.709	105.47
318.922	64.51
319.136	64.51
319.349	107.52
319.563	35.84
319.776	52.22
319.99	11.26
320.203	91.13
320.417	5.12
320.63	50.18
320.843	19.46
321.057	52.22
321.27	72.7
321.483	107.52
321.697	78.85
321.91	97.28
322.124	37.89
322.337	89.09
322.55	-31.74
322.763	21.5
322.977	99.33
323.19	21.5
323.403	119.81
323.617	146.43
323.83	64.51
324.043	-9.22
324.256	103.42
324.469	19.46
324.683	74.75
324.896	-25.6
325.109	23.55
325.322	-27.65
325.535	93.18
325.748	89.09
325.962	97.28
326.175	123.9
326.388	23.55
326.601	97.28
326.814	62.46
327.027	87.04
327.24	105.47
327.453	21.5
327.666	64.51
327.879	99.33
328.092	27.65
328.305	5.12
328.518	70.65
328.731	15.36
328.944	74.75
329.157	31.74
329.37	-3.07
329.583	101.37
329.796	95.23
330.009	64.51
330.222	80.89
330.435	46.08
330.648	50.18
330.861	17.41
331.073	70.65
331.286	41.98
331.499	64.51
331.712	62.46
331.925	87.04
332.138	44.03
332.35	46.08
332.563	29.7
332.776	132.09
332.989	13.31
333.202	144.38
333.414	-56.32
333.627	48.13
333.84	78.85
334.053	80.89
334.265	89.09
334.478	46.08
334.691	58.37
334.903	-1.02
335.116	-19.46
335.329	80.89
335.541	19.46
335.754	21.5
335.966	50.18
336.179	44.03
336.392	107.52
336.604	97.28
336.817	68.61
337.029	87.04
337.242	13.31
337.454	136.19
337.667	62.46
337.88	103.42
338.092	35.84
338.305	160.77
338.517	15.36
338.729	107.52
338.942	-5.12
339.154	-19.46
339.367	78.85
339.579	11.26
339.792	64.51
340.004	54.27
340.217	46.08
340.429	5.12
340.641	142.33
340.854	70.65
341.066	72.7
341.278	111.61
341.491	80.89
341.703	44.03
341.915	17.41
342.128	101.37
342.34	74.75
342.552	-15.36
342.764	80.89
342.977	48.13
343.189	78.85
343.401	9.22
343.613	99.33
343.826	68.61
344.038	23.55
344.25	58.37
344.462	84.99
344.674	56.32
344.886	41.98
345.099	97.28
345.311	60.42
345.523	15.36
345.735	107.52
345.947	48.13
346.159	62.46
346.371	117.76
346.583	93.18
346.795	121.85
347.007	31.74
347.219	78.85
347.431	-29.7
347.643	54.27
347.855	7.17
348.067	144.38
348.279	7.17
348.491	33.79
348.703	68.61
348.915	21.5
349.127	21.5
349.339	80.89
349.551	15.36
349.763	95.23
349.975	46.08
350.187	111.61
350.399	31.74
350.61	50.18
350.822	48.13
351.034	72.7
351.246	136.19
351.458	119.81
351.669	101.37
351.881	87.04
352.093	39.94
352.305	89.09
352.517	113.66
352.728	91.13
352.94	80.89
353.152	111.61
353.363	27.65
353.575	78.85
353.787	60.42
353.999	99.33
354.21	154.62
354.422	89.09
354.633	76.8
354.845	95.23
355.057	-41.98
355.268	82.94
355.48	144.38
355.692	44.03
355.903	82.94
356.115	117.76
356.326	5.12
356.538	-7.17
356.749	82.94
356.961	64.51
357.172	-41.98
357.384	68.61
357.595	50.18
357.807	33.79
358.018	27.65
358.23	35.84
358.441	93.18
358.653	97.28
358.864	48.13
359.075	132.09
359.287	87.04
359.498	80.89
359.709	91.13
359.921	87.04
360.132	68.61
360.344	52.22
360.555	64.51
360.766	25.6
360.977	101.37
361.189	1.02
361.4	113.66
361.611	103.42
361.823	70.65
362.034	87.04
362.245	44.03
362.456	37.89
362.667	17.41
362.879	37.89
363.09	82.94
363.301	111.61
363.512	103.42
363.723	25.6
363.935	48.13
364.146	87.04
364.357	33.79
364.568	115.71
364.779	-56.32
364.99	82.94
365.201	72.7
365.412	105.47
365.623	29.7
365.834	37.89
366.045	130.05
366.256	72.7
366.467	-7.17
366.678	78.85
366.889	74.75
367.1	23.55
367.311	52.22
367.522	-13.31
367.733	115.71
367.944	109.57
368.155	95.23
368.366	64.51
368.577	130.05
368.788	103.42
368.999	-23.55
369.209	70.65
369.42	113.66
369.631	125.95
369.842	115.71
370.053	31.74
370.264	66.56
370.474	46.08
370.685	11.26
370.896	31.74
371.107	78.85
371.317	46.08
371.528	35.84
371.739	56.32
371.95	76.8
372.16	91.13
372.371	117.76
372.582	101.37
372.792	152.57
373.003	97.28
373.214	87.04
373.424	105.47
373.635	37.89
373.846	142.33
374.056	41.98
374.267	35.84
374.477	101.37
374.688	66.56
374.898	84.99
375.109	78.85
375.319	52.22
375.53	13.31
375.74	80.89
375.951	64.51
376.161	103.42
376.372	117.76
376.582	33.79
376.793	95.23
377.003	68.61
377.214	93.18
377.424	89.09
377.635	46.08
377.845	115.71
378.055	93.18
378.266	76.8
378.476	148.48
378.686	56.32
378.897	76.8
379.107	105.47
379.317	84.99
379.528	70.65
379.738	111.61
379.948	25.6
380.158	58.37
380.369	121.85
380.579	35.84
380.789	-25.6
380.999	56.32
381.21	84.99
381.42	113.66
381.63	44.03
381.84	109.57
382.05	78.85
382.261	95.23
382.471	39.94
382.681	62.46
382.891	125.95
383.101	66.56
383.311	50.18
383.521	48.13
383.731	150.53
383.941	93.18
384.151	48.13
384.361	148.48
384.571	41.98
384.781	35.84
384.991	166.91
385.201	140.29
385.411	97.28
385.621	99.33
385.831	66.56
386.041	33.79
386.251	37.89
386.461	97.28
386.671	64.51
386.881	136.19
387.091	138.24
387.301	146.43
387.511	91.13
387.72	95.23
387.93	99.33
388.14	66.56
388.35	128
388.56	103.42
388.769	80.89
388.979	54.27
389.189	35.84
389.399	74.75
389.609	140.29
389.818	95.23
390.028	35.84
390.238	70.65
390.447	19.46
390.657	95.23
390.867	109.57
391.076	105.47
391.286	74.75
391.496	121.85
391.705	66.56
391.915	82.94
392.125	93.18
392.334	70.65
392.544	64.51
392.753	160.77
392.963	82.94
393.172	123.9
393.382	78.85
393.591	134.14
393.801	115.71
394.01	113.66
394.22	84.99
394.429	134.14
394.639	56.32
394.848	152.57
395.058	46.08
395.267	95.23
395.477	181.25
395.686	148.48
395.895	162.81
396.105	97.28
396.314	123.9
396.524	82.94
396.733	144.38
396.942	226.3
397.152	62.46
397.361	109.57
397.57	93.18
397.78	117.76
397.989	105.47
398.198	166.91
398.407	123.9
398.617	103.42
398.826	115.71
399.035	154.62
399.244	181.25
399.453	152.57
399.663	132.09
399.872	99.33
400.081	99.33
400.29	193.53
400.499	70.65
400.708	189.44
400.917	105.47
401.127	193.53
401.336	128
401.545	263.16
401.754	125.95
401.963	193.53
402.172	168.96
402.381	134.14
402.59	164.86
402.799	144.38
403.008	173.05
403.217	146.43
403.426	123.9
403.635	132.09
403.844	164.86
404.053	183.29
404.262	201.72
404.471	201.72
404.68	220.16
404.888	175.1
405.097	179.2
405.306	257.02
405.515	179.2
405.724	197.63
405.933	220.16
406.142	224.25
406.35	244.73
406.559	250.88
406.768	275.45
406.977	332.79
407.185	287.74
407.394	330.75
407.603	211.96
407.812	259.07
408.02	281.6
408.229	254.97
408.438	318.46
408.646	373.75
408.855	316.41
409.064	363.51
409.272	396.28
409.481	318.46
409.69	394.23
409.898	427
410.107	457.72
410.315	431.1
410.524	525.3
410.733	480.25
410.941	533.5
411.15	492.54
411.358	486.39
411.567	521.21
411.775	521.21
411.984	529.4
412.192	562.17
412.401	547.83
412.609	613.37
412.818	639.99
413.026	609.27
413.234	740.34
413.443	678.9
413.651	732.15
413.86	809.97
414.068	824.31
414.276	906.23
414.485	850.93
414.693	809.97
414.901	1010.67
415.11	932.85
415.318	938.99
415.526	834.55
415.734	1020.91
415.943	1055.73
416.151	1082.35
416.359	1137.65
416.567	1215.47
416.776	1190.89
416.984	1254.38
417.192	1375.21
417.4	1291.24
417.608	1367.02
417.817	1475.56
418.025	1450.99
418.233	1616.87
418.441	1604.58
418.649	1489.9
418.857	1584.1
419.065	1786.85
419.273	1723.37
419.481	1895.4
419.689	1969.12
419.897	1952.74
420.105	2100.19
420.313	2069.47
420.521	2085.86
420.729	2182.11
420.937	2204.64
421.145	2388.96
421.353	2343.9
421.561	2587.61
421.769	2726.87
421.977	2833.36
422.185	2714.58
422.393	3001.3
422.601	3036.11
422.809	3034.07
423.017	3146.7
423.224	3099.6
423.432	3214.29
423.64	3294.16
423.848	3693.51
424.056	3720.14
424.263	3777.48
424.471	3951.56
424.679	3867.59
424.887	4160.45
425.094	4174.78
425.302	4277.18
425.51	4481.98
425.718	4604.86
425.925	4539.32
426.133	4842.42
426.341	4918.2
426.548	5219.25
426.756	5239.73
426.964	5305.26
427.171	5757.86
427.379	5964.71
427.586	5764.01
427.794	6083.49
428.001	6157.22
428.209	6624.15
428.417	6478.75
428.624	6931.35
428.832	6976.41
429.039	6874.01
429.247	6861.72
429.454	7635.85
429.662	8092.55
429.869	7527.31
430.076	8201.09
430.284	7723.91
430.491	8258.43
430.699	8696.7
430.906	8559.49
431.114	8633.21
431.321	9016.18
431.528	9171.83
431.736	9800.55
431.943	10201.96
432.15	10001.26
432.358	10269.54
432.565	10572.64
432.772	10517.34
432.979	11268.95
433.187	11213.65
433.394	11443.03
433.601	12053.32
433.808	12270.4
434.016	12251.97
434.223	12684.09
434.43	13560.63
434.637	13069.11
434.844	13964.07
435.052	14414.63
435.259	14054.19
435.466	14320.42
435.673	14119.72
435.88	15018.78
436.087	15792.91
436.294	15774.48
436.501	15483.67
436.708	15846.16
436.915	16345.86
437.122	17033.98
437.329	17074.94
437.537	17599.22
437.743	17718
437.95	17672.95
438.157	18682.59
438.364	19090.14
438.571	19051.23
438.778	19194.59
438.985	20947.65
439.192	20206.28
439.399	20816.58
439.606	19899.09
439.813	21332.67
440.02	22495.91
440.227	22459.05
440.433	22137.52
440.64	22799.01
440.847	22821.54
441.054	23306.91
441.261	24906.37
441.467	24345.23
441.674	25264.77
441.881	25686.65
442.088	25805.43
442.294	25522.81
442.501	26159.73
442.708	26806.89
442.914	27910.74
443.121	28797.51
443.328	28353.1
443.534	30214.71
443.741	29080.13
443.948	28897.86
444.154	31300.13
444.361	30968.36
444.568	30775.85
444.774	31240.74
444.981	31380
445.187	32401.94
445.394	33690.11
445.6	33272.32
445.807	36714.96
446.013	35324.39
446.22	35887.58
446.426	36958.67
446.633	37411.27
446.839	38797.74
447.046	36884.94
447.252	39385.51
447.459	38984.11
447.665	38621.62
447.871	40911.25
448.078	42201.47
448.284	40343.96
448.491	41712
448.697	43110.77
448.903	44065.12
449.11	43776.36
449.316	42811.76
449.522	43966.82
449.728	45171.02
449.935	45265.23
450.141	45150.54
450.347	46367.04
450.553	45654.34
450.76	45560.14
450.966	47210.8
451.172	46745.91
451.378	47350.06
451.584	46754.1
451.791	47728.94
451.997	47884.58
452.203	48986.39
452.409	48470.3
452.615	47980.84
452.821	46379.32
453.027	46223.68
453.233	48642.33
453.44	46539.07
453.646	47438.12
453.852	47296.81
454.058	48208.16
454.264	46666.04
454.47	47868.2
454.676	46776.63
454.882	47976.74
455.088	44034.4
455.294	44466.52
455.5	45398.35
455.705	45887.81
455.911	43858.27
456.117	42969.46
456.323	42572.15
456.529	40862.1
456.735	42596.73
456.941	41273.74
457.147	40173.98
457.352	39100.84
457.558	38871.47
457.764	38721.97
457.97	38040
458.176	37276.1
458.381	37360.07
458.587	35844.57
458.793	35799.52
458.999	33780.22
459.204	36338.13
459.41	35078.63
459.616	32846.35
459.821	33276.42
460.027	32627.21
460.233	31896.09
460.438	30822.95
460.644	31009.32
460.85	29225.54
461.055	29041.22
461.261	29100.61
461.466	26897
461.672	25836.15
461.878	27734.62
462.083	25739.9
462.289	25737.85
462.494	25426.56
462.7	23952.02
462.905	23616.15
463.111	24306.32
463.316	24357.52
463.522	23689.88
463.727	23956.11
463.932	23648.92
464.138	23554.71
464.343	23878.29
464.549	22911.65
464.754	23583.38
464.959	23333.53
465.165	23249.57
465.37	22303.4
465.575	21744.31
465.781	22327.98
465.986	22430.38
466.191	21887.67
466.397	21332.67
466.602	20476.62
466.807	21340.86
467.012	21332.67
467.218	21093.05
467.423	20986.56
467.628	20933.31
467.833	21600.95
468.038	21002.94
468.244	20292.3
468.449	21054.14
468.654	20693.7
468.859	20386.5
469.064	20296.39
469.269	19485.4
469.474	19317.47
469.679	19915.47
469.885	19403.48
470.09	19686.1
470.295	19614.42
470.5	19045.09
470.705	19170.01
470.91	18600.68
471.115	18277.1
471.32	19135.2
471.525	18578.15
471.73	18434.79
471.935	18283.24
472.139	17705.71
472.344	17935.09
472.549	17849.07
472.754	17736.43
472.959	17181.43
473.164	16671.49
473.369	16560.9
473.574	17427.19
473.778	17085.18
473.983	16990.97
474.188	16612.1
474.393	16132.87
474.598	16116.49
474.802	16153.35
475.007	15907.6
475.212	16012.04
475.417	15006.49
475.621	15457.04
475.826	15215.38
476.031	15018.78
476.235	14740.26
476.44	15121.18
476.645	14535.46
476.849	14721.82
477.054	14652.19
477.259	14222.12
477.463	14506.79
477.668	13867.82
477.872	13943.6
478.077	13847.34
478.282	13556.53
478.486	13597.49
478.691	13390.64
478.895	13400.88
479.1	13357.88
479.304	13259.57
479.509	13069.11
479.713	13220.66
479.918	12933.95
480.122	12727.1
480.326	13044.54
480.531	12940.09
480.735	12622.66
480.94	12768.06
481.144	12921.66
481.348	12559.17
481.553	12600.13
481.757	12354.37
481.961	12493.63
482.166	12387.14
482.37	12385.09
482.574	12215.11
482.778	12112.71
482.983	12614.46
483.187	12378.95
483.391	12264.26
483.595	11995.98
483.8	12233.54
484.004	12344.13
484.208	12606.27
484.412	12192.58
484.616	12165.96
484.821	12200.77
485.025	12251.97
485.229	12352.32
485.433	12215.11
485.637	12370.76
485.841	12221.25
486.045	12335.94
486.249	12481.35
486.453	11969.35
486.657	12221.25
486.861	12411.71
487.065	12125
487.269	12331.84
487.473	12155.72
487.677	12424
487.881	12366.66
488.085	12372.8
488.289	12471.11
488.493	12286.79
488.697	12305.22
488.901	12309.32
489.105	12577.6
489.309	12227.4
489.512	12516.16
489.716	12491.59
489.92	12372.8
490.124	12354.37
490.328	12663.61
490.531	12694.33
490.735	12536.64
490.939	12579.65
491.143	12684.09
491.346	12491.59
491.55	12907.32
491.754	12991.29
491.958	12991.29
492.161	12833.6
492.365	13079.35
492.569	13056.82
492.772	12909.37
492.976	12860.22
493.18	13427.51
493.383	13353.78
493.587	13601.58
493.79	13480.75
493.994	13386.55
494.197	13771.57
494.401	13794.09
494.605	13804.33
494.808	13888.3
495.012	13929.26
495.215	14011.18
495.419	14070.57
495.622	14234.41
495.825	14402.34
496.029	14248.74
496.232	14762.78
496.436	14652.19
496.639	15057.69
496.843	14789.41
497.046	15244.06
497.249	15514.39
497.453	15506.2
497.656	15624.98
497.859	15688.46
498.063	15821.58
498.266	16263.94
498.469	16069.39
498.673	16057.1
498.876	16601.86
499.079	16677.63
499.282	16687.87
499.485	16952.06
499.689	17031.93
499.892	17292.02
500.095	17476.34
500.298	18240.23
500.501	17797.87
500.705	18000.62
500.908	18279.15
501.111	18483.94
501.314	18584.29
501.517	19065.57
501.72	19591.89
501.923	19079.9
502.126	19403.48
502.329	19798.74
502.532	20007.63
502.735	20140.75
502.938	20163.28
503.141	20658.88
503.344	20941.5
503.547	20851.39
503.75	21070.53
503.953	21535.42
504.156	21568.18
504.359	22147.76
504.562	21836.47
504.765	22446.76
504.968	22739.62
505.17	22954.66
505.373	23048.86
505.576	23521.95
505.779	23661.21
505.982	23755.41
506.185	24332.94
506.387	24435.34
506.59	24849.03
506.793	25215.62
506.996	24851.08
507.198	26094.19
507.401	25361.02
507.604	26059.38
507.807	26395.25
508.009	26573.42
508.212	26876.52
508.415	27406.94
508.617	27755.1
508.82	27933.27
509.022	27509.34
509.225	28375.63
509.428	28336.72
509.63	28930.63
509.833	28787.27
510.035	29389.38
510.238	29350.46
510.44	29770.3
510.643	30495.28
510.845	30710.32
511.048	30241.33
511.25	30736.94
511.453	31410.72
511.655	32551.44
511.858	31840.79
512.06	31846.94
512.262	32354.83
512.465	32971.27
512.667	33430.02
512.87	33483.27
513.072	33372.67
513.274	33942.01
513.477	34488.82
513.679	34597.36
513.881	35373.54
514.084	35652.06
514.286	35680.74
514.488	35934.68
514.69	36800.97
514.893	36938.19
515.095	36880.85
515.297	37114.31
515.499	37718.46
515.701	37722.56
515.904	38242.74
516.106	38656.43
516.308	39182.76
516.51	39569.83
516.712	39471.53
516.914	39860.64
517.116	40569.24
517.318	40632.72
517.52	41025.93
517.722	41261.45
517.925	41576.84
518.127	41941.38
518.329	42426.74
518.531	42064.25
518.733	43047.28
518.935	43305.32
519.136	43415.91
519.338	44169.57
519.54	44325.21
519.742	44687.7
519.944	44575.06
520.146	45357.39
520.348	45402.44
520.55	46225.73
520.752	45863.24
520.954	46690.62
521.155	46436.67
521.357	47034.67
521.559	47458.6
521.761	47939.88
521.963	48097.57
522.164	48130.34
522.366	48513.31
522.568	48634.14
522.77	48957.72
522.971	49907.97
523.173	49625.35
523.375	49946.89
523.576	49271.06
523.778	50123.01
523.98	50622.72
524.181	50909.43
524.383	50669.82
524.584	51472.62
524.786	51667.18
524.988	51392.75
525.189	51867.88
525.391	51974.37
525.592	52326.63
525.794	52164.84
525.995	52711.64
526.197	52390.11
526.398	52682.97
526.6	53297.36
526.801	52943.06
527.003	53100.76
527.204	53280.98
527.406	53891.27
527.607	53852.36
527.808	54204.61
528.01	53358.8
528.211	53901.51
528.412	54591.68
528.614	54464.7
528.815	54487.23
529.016	54827.2
529.218	54227.14
529.419	54476.99
529.62	54452.42
529.822	54493.38
530.023	54624.45
530.224	54814.91
530.425	54868.15
530.626	54821.05
530.828	54229.19
531.029	55427.25
531.23	54843.58
531.431	54937.79
531.632	55367.86
531.833	55105.72
532.035	54976.7
532.236	55189.69
532.437	55177.4
532.638	54831.29
532.839	55357.62
533.04	55984.3
533.241	55220.41
533.442	55777.45
533.643	55732.4
533.844	55478.45
534.045	55423.15
534.246	54302.92
534.447	55238.84
534.648	55189.69
534.849	55136.44
535.05	54931.64
535.251	55328.95
535.451	55417.01
535.652	55634.1
535.853	55214.26
536.054	54823.1
536.255	55455.92
536.456	54763.71
536.657	55361.72
536.857	54874.3
537.058	54909.11
537.259	54935.74
537.46	55228.6
537.66	54841.53
537.861	54718.65
538.062	54769.85
538.263	54698.17
538.463	54022.34
538.664	54718.65
538.865	54200.52
539.065	55146.68
539.266	54089.93
539.466	54765.76
539.667	54001.86
539.868	54393.03
540.068	54051.02
540.269	54200.52
540.469	54716.61
540.67	54048.97
540.87	53934.28
541.071	53921.99
541.271	54149.32
541.472	53956.81
541.672	53647.57
541.873	54055.11
542.073	53416.14
542.274	54218.95
542.474	53690.57
542.675	53422.29
542.875	54481.09
543.075	53682.38
543.276	53158.1
543.476	54065.35
543.676	53231.83
543.877	53883.08
544.077	53524.69
544.277	53453.01
544.478	53264.6
544.678	53631.18
544.878	53264.6
545.078	53498.06
545.279	53037.27
545.479	53096.66
545.679	53311.7
545.879	53584.08
546.079	53575.89
546.28	53045.46
546.48	52707.55
546.68	53430.48
546.88	53203.16
547.08	53250.26
547.28	53088.47
547.48	52633.82
547.68	52984.02
547.88	53098.71
548.081	52981.98
548.281	52979.93
548.481	52916.44
548.681	53197.01
548.881	52709.6
549.081	52820.19
549.28	52811.99
549.48	53147.86
549.68	52996.31
549.88	53608.65
550.08	52754.65
550.28	52887.77
550.48	52504.8
550.68	52912.34
550.88	52703.45
551.08	52672.73
551.279	52826.33
551.479	52422.88
551.679	52541.66
551.879	52795.61
552.079	52670.68
552.278	52367.58
552.478	52971.74
552.678	52922.58
552.878	52584.67
553.077	52543.71
553.277	52195.56
553.477	53207.25
553.676	52289.76
553.876	52398.3
554.076	52463.84
554.275	52142.31
554.475	52029.67
554.674	52363.49
554.874	52523.23
555.074	52197.6
555.273	52246.75
555.473	52459.74
555.672	51929.32
555.872	52058.34
556.071	52541.66
556.271	52218.08
556.47	51869.93
556.67	51491.05
556.869	51788.01
557.068	52545.76
557.268	51632.36
557.467	51876.07
557.667	51857.64
557.866	51687.66
558.065	51605.74
558.265	51702
558.464	51392.75
558.663	52093.16
558.863	51259.63
559.062	52003.05
559.261	51159.28
559.461	52084.97
559.66	50831.61
559.859	51286.26
560.058	51142.9
560.258	51552.49
560.457	50714.87
560.656	51132.66
560.855	50737.4
561.054	51325.17
561.253	51020.02
561.453	50847.99
561.652	51140.85
561.851	50985.21
562.05	50592
562.249	50512.13
562.448	50782.46
562.647	50413.82
562.846	50319.62
563.045	50579.71
563.244	50161.92
563.443	50958.58
563.642	49457.42
563.841	50034.95
564.04	49963.27
564.239	50458.88
564.438	49596.68
564.637	49856.78
564.836	50161.92
565.035	49746.18
565.234	50143.49
565.432	49553.68
565.631	49709.32
565.83	49537.29
566.029	49273.1
566.228	49230.1
566.427	48875.8
566.625	48828.69
566.824	48273.7
567.023	49365.26
567.222	48423.2
567.42	48916.76
567.619	48652.57
567.818	48136.48
568.016	48357.66
568.215	48535.84
568.414	48124.19
568.612	48132.39
568.811	48199.97
569.01	47817
569.208	47681.83
569.407	47730.98
569.605	47120.69
569.804	47753.51
570.002	47296.81
570.201	47403.31
570.4	47196.46
570.598	46924.08
570.797	46739.77
570.995	47139.12
571.193	46211.39
571.392	47042.87
571.59	46057.79
571.789	46178.62
571.987	46457.15
572.186	46547.26
572.384	45547.85
572.582	46070.08
572.781	46078.27
572.979	45420.87
573.177	45457.74
573.376	45867.33
573.574	45617.48
573.772	45326.67
573.971	44863.83
574.169	45050.19
574.367	44673.37
574.565	45254.99
574.763	44441.95
574.962	44671.32
575.16	44280.16
575.358	44798.29
575.556	43872.61
575.754	44804.44
575.952	43868.51
576.151	44228.96
576.349	43407.72
576.547	43764.07
576.745	43473.26
576.943	43387.24
577.141	43465.06
577.339	43659.62
577.537	43227.5
577.735	43501.93
577.933	43176.3
578.131	43022.7
578.329	42590.58
578.527	42404.22
578.725	42453.37
578.923	42744.18
579.121	42228.09
579.319	42127.74
579.516	42527.1
579.714	42271.1
579.912	41955.71
580.11	41613.7
580.308	41816.45
580.506	42109.31
580.704	41236.87
580.901	41699.72
581.099	41644.42
581.297	41062.8
581.495	40952.21
581.692	41443.72
581.89	40679.83
582.088	41224.59
582.285	40591.76
582.483	41001.36
582.681	40837.52
582.878	40192.41
583.076	40282.52
583.274	40833.42
583.471	39764.39
583.669	40380.82
583.866	39915.93
584.064	39903.65
584.262	39403.94
584.459	39924.13
584.657	39207.34
584.854	39612.84
585.052	38822.32
585.249	39467.43
585.447	39553.44
585.644	38674.87
585.841	38998.44
586.039	38803.89
586.236	38502.84
586.434	38504.88
586.631	38529.46
586.828	38074.81
587.026	38402.49
587.223	38238.65
587.42	37921.21
587.618	38250.94
587.815	37677.51
588.012	37476.8
588.21	37794.24
588.407	37816.77
588.604	37792.19
588.801	37185.99
588.999	37263.82
589.196	37222.86
589.393	37337.54
589.59	36798.93
589.787	37130.7
589.984	36749.78
590.182	36309.46
590.379	36659.66
590.576	36403.67
590.773	36512.21
590.97	36223.45
591.167	36268.5
591.364	35940.83
591.561	35875.29
591.758	36090.33
591.955	36004.31
592.152	35940.83
592.349	35787.23
592.546	35449.32
592.743	35469.79
592.94	35035.63
593.137	35480.03
593.334	35820
593.531	34789.87
593.727	35074.54
593.924	34832.88
594.121	34763.25
594.318	35037.67
594.515	34447.86
594.712	34865.64
594.908	34572.78
595.105	34562.54
595.302	34171.38
595.499	34830.83
595.696	34155
595.892	33917.43
596.089	34107.9
596.286	34220.53
596.482	33798.65
596.679	33892.86
596.876	33870.33
597.072	33546.75
597.269	33575.42
597.466	33409.54
597.662	33479.17
597.859	33309.19
598.055	33626.62
598.252	32952.84
598.448	33024.52
598.645	32803.34
598.841	32684.56
599.038	32901.64
599.234	32854.54
599.431	32696.85
599.627	32487.95
599.824	32571.92
600.02	32360.98
600.217	32234
600.413	32223.76
600.609	32436.75
600.806	32145.94
601.002	32229.91
601.198	32002.58
601.395	31687.2
601.591	31674.91
601.787	31435.3
601.984	31582.75
602.18	31730.2
602.376	31324.71
602.572	31691.29
602.769	31476.26
602.965	31081
603.161	31377.95
603.357	31259.17
603.553	30743.08
603.75	30964.26
603.946	30898.73
604.142	30870.06
604.338	30417.46
604.534	30781.99
604.73	30222.9
604.926	30353.97
605.122	30530.09
605.318	29966.9
605.514	30327.35
605.71	30302.77
605.906	29936.18
606.102	29848.12
606.298	30020.15
606.494	29917.75
606.69	29815.35
606.886	29794.87
607.082	29332.03
607.278	29925.94
607.474	29418.05
607.67	29649.47
607.866	29041.22
608.062	29440.57
608.257	29438.53
608.453	29182.53
608.649	29157.96
608.845	28811.85
609.041	28951.11
609.236	29155.91
609.432	28944.97
609.628	28940.87
609.824	28787.27
610.019	28744.27
610.215	28545.61
610.411	28760.65
610.606	28439.12
610.802	28432.97
610.998	28498.51
611.193	28422.73
611.389	27740.76
611.584	28355.15
611.78	27998.8
611.976	28308.05
612.171	27892.31
612.367	28285.52
612.562	27945.56
612.758	28017.24
612.953	27888.21
613.149	28074.58
613.344	27685.47
613.539	27775.58
613.735	27777.62
613.93	27804.25
614.126	27972.18
614.321	27806.3
614.517	27701.85
614.712	27660.89
614.907	27298.4
615.103	27484.76
615.298	27394.65
615.493	27396.7
615.688	26942.05
615.884	27658.84
616.079	26794.6
616.274	26991.2
616.47	26931.81
616.665	27099.75
616.86	26714.73
617.055	26835.56
617.25	26810.98
617.445	27050.6
617.641	26374.77
617.836	26714.73
618.031	26301.04
618.226	26518.12
618.421	26507.88
618.616	26507.88
618.811	26403.44
619.006	26522.22
619.201	25647.74
619.396	26038.9
619.591	25537.15
619.786	25911.92
619.981	25309.82
620.176	25916.02
620.371	25350.78
620.566	25539.19
620.761	25041.54
620.956	25275.01
621.151	24711.81
621.346	25012.87
621.541	24582.79
621.735	24894.08
621.93	24343.18
622.125	24257.17
622.32	24294.03
622.515	24316.56
622.709	24148.62
622.904	24345.23
623.099	24042.13
623.294	23745.17
623.488	23542.42
623.683	23364.25
623.878	22977.19
624.072	23421.59
624.267	22862.5
624.462	22901.41
624.656	23061.15
624.851	22809.25
625.046	22575.78
625.24	22467.24
625.435	22264.49
625.629	22428.33
625.824	22076.08
626.018	22061.74
626.213	22037.17
626.407	22076.08
626.602	21306.04
626.796	21598.9
626.991	21559.99
627.185	21484.22
627.38	21521.08
627.574	21146.3
627.768	20988.61
627.963	21215.93
628.157	20644.55
628.352	20941.5
628.546	20454.09
628.74	20449.99
628.935	20404.94
629.129	20243.15
629.323	19817.17
629.517	20044.49
629.712	20325.07
629.906	19661.52
630.1	19456.73
630.294	19737.3
630.489	19548.89
630.683	19804.88
630.877	19249.88
631.071	19241.69
631.265	19227.35
631.459	19354.33
631.653	18991.84
631.848	18684.64
632.042	19077.85
632.236	18854.62
632.43	18664.16
632.624	18445.03
632.818	18387.69
633.012	18506.47
633.206	18438.89
633.4	18146.03
633.594	17769.2
633.788	18010.86
633.982	17683.19
634.176	17939.18
634.369	17775.34
634.563	17382.13
634.757	17498.87
634.951	17586.93
635.145	17670.9
635.339	17156.86
635.533	17171.19
635.726	17107.71
635.92	16755.46
636.114	17281.78
636.308	16646.91
636.501	16728.83
636.695	16540.42
636.889	16548.61
637.083	16134.92
637.276	16358.15
637.47	16270.09
637.664	16288.52
637.857	15893.26
638.051	15995.66
638.244	15721.23
638.438	15768.34
638.632	16102.15
638.825	15340.31
639.019	15596.31
639.212	15321.88
639.406	15471.38
639.599	15364.89
639.793	15262.49
639.986	15133.47
640.18	15129.37
640.373	14793.5
640.567	14816.03
640.76	14699.3
640.954	14508.83
641.147	14588.71
641.34	14648.1
641.534	14482.21
641.727	14240.55
641.92	14564.13
642.114	14209.83
642.307	14172.97
642.5	13982.51
642.694	14138.15
642.887	13957.93
643.08	13716.27
643.273	13622.06
643.467	13628.21
643.66	13472.56
643.853	13499.19
644.046	13235
644.239	13245.24
644.432	13140.79
644.626	13196.09
644.819	13128.5
645.012	13042.49
645.205	13091.64
645.398	12870.46
645.591	12815.16
645.784	12866.36
645.977	12499.78
646.17	12628.8
646.363	12405.57
646.556	12485.44
646.749	12337.99
646.942	12335.94
647.135	12071.75
647.328	11957.07
647.521	12020.55
647.714	11938.63
647.907	11739.98
648.099	11938.63
648.292	11924.3
648.485	11635.53
648.678	11547.47
648.871	11600.72
649.064	11420.5
649.256	11547.47
649.449	11299.67
649.642	11320.15
649.835	11117.4
650.027	11242.32
650.22	11113.3
650.413	10769.24
650.605	10851.16
650.798	10971.99
650.991	10814.3
651.183	10855.26
651.376	10734.43
651.568	10744.67
651.761	10615.65
651.954	10785.63
652.146	10392.42
652.339	10509.15
652.531	10312.55
652.724	10560.35
652.916	10265.44
653.109	10384.23
653.301	10148.71
653.494	10197.86
653.686	9886.57
653.879	10015.59
654.071	9657.2
654.263	9765.74
654.456	9933.67
654.648	9675.63
654.84	9649
655.033	9528.17
655.225	9577.33
655.417	9474.93
655.61	9311.09
655.802	9415.54
655.994	9255.79
656.186	9409.39
656.379	9317.23
656.571	9378.67
656.763	8989.56
656.955	8962.94
657.148	9028.47
657.34	9003.89
657.532	9175.92
657.724	8819.58
657.916	8924.02
658.108	8809.34
658.3	8872.82
658.492	8694.65
658.684	8641.4
658.876	8559.49
659.068	8643.45
659.26	8467.33
659.452	8500.09
659.644	8424.32
659.836	8233.86
660.028	8452.99
660.22	8219.52
660.412	8225.67
660.604	8356.74
660.796	8119.17
660.988	8209.28
661.18	8123.27
661.372	8117.12
661.563	8153.99
661.755	7795.59
661.947	7932.81
662.139	7865.22
662.331	7758.73
662.522	7891.85
662.714	7752.59
662.906	7779.21
663.097	7652.24
663.289	7676.81
663.481	7342.99
663.673	7402.38
663.864	7422.86
664.056	7689.1
664.247	7367.57
664.439	7336.85
664.631	7312.27
664.822	7279.5
665.014	7318.42
665.205	7412.62
665.397	7314.32
665.588	7230.35
665.78	7175.06
665.971	7140.24
666.163	7125.91
666.354	7052.18
666.546	6994.84
666.737	6816.66
666.929	6812.57
667.12	6777.75
667.311	6927.25
667.503	6822.81
667.694	6845.34
667.885	6687.64
668.077	6599.58
668.268	6527.9
668.459	6681.5
668.651	6536.09
668.842	6509.47
669.033	6556.57
669.224	6480.8
669.416	6505.37
669.607	6402.97
669.798	6491.04
669.989	6554.52
670.18	6411.17
670.371	6427.55
670.563	6163.36
670.754	6208.42
670.945	6204.32
671.136	6132.64
671.327	6106.02
671.518	6161.31
671.709	6146.98
671.9	6091.68
672.091	6017.96
672.282	6003.62
672.473	6077.35
672.664	5899.17
672.855	5839.78
673.046	5770.15
673.237	6073.25
673.428	5966.76
673.619	5817.26
673.809	5749.67
674	5919.65
674.191	5862.31
674.382	5757.86
674.573	5847.97
674.764	5735.34
674.954	5677.99
675.145	5755.82
675.336	5546.92
675.527	5632.94
675.717	5649.32
675.908	5481.39
676.099	5587.88
676.289	5536.68
676.48	5565.36
676.671	5546.92
676.861	5571.5
677.052	5323.69
677.243	5340.08
677.433	5565.36
677.624	5344.17
677.814	5497.77
678.005	5450.67
678.195	5395.37
678.386	5436.33
678.576	5376.94
678.767	5342.13
678.957	5520.3
679.148	5235.63
679.338	5368.75
679.529	5409.71
679.719	5135.28
679.909	5284.78
680.1	5073.84
680.29	5206.96
680.481	5356.46
680.671	5290.93
680.861	5260.21
681.052	5239.73
681.242	5161.91
681.432	5264.3
681.622	5192.62
681.813	5000.12
682.003	5116.85
682.193	4983.73
682.383	5047.22
682.573	5153.71
682.764	4926.39
682.954	5114.8
683.144	5129.14
683.334	5032.88
683.524	4924.34
683.714	5082.03
683.904	4903.86
684.094	4942.77
684.284	4926.39
684.474	4969.4
684.664	4903.86
684.854	4975.54
685.044	5024.69
685.234	4910.01
685.424	4959.16
685.614	4867
685.804	4961.2
685.994	4926.39
686.184	4860.85
686.374	4766.65
686.564	4830.13
686.753	4877.24
686.943	4807.61
687.133	4746.17
687.323	4682.68
687.513	4713.4
687.702	4744.12
687.892	4680.63
688.082	4727.74
688.272	4674.49
688.461	4615.1
688.651	4592.57
688.841	4424.64
689.03	4748.22
689.22	4615.1
689.41	4672.44
689.599	4725.69
689.789	4682.68
689.979	4527.03
690.168	4565.95
690.358	4502.46
690.547	4545.47
690.737	4424.64
690.926	4434.88
691.116	4408.25
691.305	4484.03
691.495	4408.25
691.684	4424.64
691.874	4291.52
692.063	4586.43
692.252	4346.81
692.442	4467.64
692.631	4490.17
692.82	4430.78
693.01	4391.87
693.199	4408.25
693.388	4324.29
693.578	4287.42
693.767	4273.09
693.956	4240.32
694.146	4332.48
694.335	4223.94
694.524	4375.49
694.713	4215.74
694.902	4383.68
695.092	4422.59
695.281	4281.28
695.47	4275.13
695.659	4258.75
695.848	4213.7
696.037	4416.44
696.226	4125.63
696.415	4271.04
696.604	4228.03
696.793	3980.23
696.982	4174.78
697.171	4242.37
697.36	4166.59
697.549	4131.78
697.738	4199.36
697.927	4074.43
698.116	4049.86
698.305	4037.57
698.494	4127.68
698.683	3945.41
698.872	4088.77
699.061	4107.2
699.25	3988.42
699.438	4010.95
699.627	4049.86
699.816	4133.82
700.005	3972.04
700.193	3900.36
700.382	4113.35
700.571	3922.88
700.76	4019.14
700.948	4027.33
701.137	3961.8
701.326	3910.6
701.514	3949.51
701.703	4062.15
701.892	3896.26
702.08	3937.22
702.269	3902.4
702.457	3814.34
702.646	3904.45
702.834	3906.5
703.023	3939.27
703.212	3943.36
703.4	3822.53
703.589	3736.52
703.777	3785.67
703.965	3734.47
704.154	3752.9
704.342	3740.61
704.531	3746.76
704.719	3818.44
704.907	3771.33
705.096	3830.73
705.284	3642.31
705.472	3767.24
705.661	3724.23
705.849	3845.06
706.037	3638.22
706.226	3732.42
706.414	3640.26
706.602	3544.01
706.79	3439.56
706.979	3664.84
707.167	3519.43
707.355	3658.7
707.543	3511.24
707.731	3447.76
707.919	3562.44
708.107	3609.54
708.296	3496.91
708.484	3488.71
708.672	3462.09
708.86	3447.76
709.048	3410.89
709.236	3464.14
709.424	3419.08
709.612	3550.15
709.8	3486.67
709.988	3443.66
710.176	3496.91
710.364	3437.52
710.551	3414.99
710.739	3367.88
710.927	3380.17
711.115	3277.77
711.303	3380.17
711.491	3314.64
711.679	3343.31
711.866	3109.84
712.054	3333.07
712.242	3316.69
712.43	3374.03
712.617	3242.96
712.805	3308.49
712.993	3361.74
713.181	3257.29
713.368	3259.34
713.556	3308.49
713.744	3070.93
713.931	3058.64
714.119	3175.38
714.306	3126.22
714.494	3304.4
714.682	3107.79
714.869	2894.8
715.057	3187.66
715.244	3115.98
715.432	3075.03
715.619	3044.31
715.807	3083.22
715.994	3128.27
716.182	2878.42
716.369	2864.08
716.556	3079.12
716.744	2929.62
716.931	2978.77
717.119	3081.17
717.306	2880.47
717.493	2933.72
717.681	2960.34
717.868	2929.62
718.055	2931.67
718.242	2921.43
718.43	2874.32
718.617	2862.04
718.804	2976.72
718.991	2763.73
719.179	2905.04
719.366	2837.46
719.553	2968.53
719.74	2937.81
719.927	2896.85
720.114	2821.08
720.301	2755.54
720.488	2649.05
720.676	2909.14
720.863	2663.38
721.05	2923.48
721.237	2722.77
721.424	2776.02
721.611	2642.9
721.798	2735.06
721.985	2663.38
722.172	2608.09
722.358	2640.86
722.545	2716.63
722.732	2542.55
722.919	2628.57
723.106	2667.48
723.293	2649.05
723.48	2595.8
723.667	2567.13
723.853	2730.97
724.04	2651.1
724.227	2462.68
724.414	2444.25
724.6	2505.69
724.787	2606.04
724.974	2565.08
725.161	2456.54
725.347	2393.05
725.534	2477.02
725.72	2571.22
725.907	2472.92
726.094	2483.16
726.28	2446.3
726.467	2544.6
726.653	2477.02
726.84	2446.3
727.027	2417.63
727.213	2391
727.4	2511.83
727.586	2489.31
727.773	2337.76
727.959	2313.18
728.145	2397.15
728.332	2423.77
728.518	2282.46
728.705	2401.24
728.891	2292.7
729.077	2358.24
729.264	2438.11
729.45	2423.77
729.636	2339.8
729.823	2288.61
730.009	2249.69
730.195	2307.04
730.382	2325.47
730.568	2268.13
730.754	2261.98
730.94	2407.39
731.126	2290.65
731.313	2239.45
731.499	2169.82
731.685	2235.36
731.871	2192.35
732.057	2227.17
732.243	2233.31
732.429	2212.83
732.615	2239.45
732.801	2300.89
732.987	2204.64
733.173	2198.49
733.359	2268.13
733.545	2112.48
733.731	2126.82
733.917	2231.26
734.103	2202.59
734.289	2175.97
734.475	2139.1
734.661	2112.48
734.847	2135.01
735.033	2014.18
735.219	2180.06
735.404	2087.9
735.59	2020.32
735.776	2026.47
735.962	2094.05
736.148	2139.1
736.333	2100.19
736.519	1971.17
736.705	2028.51
736.89	2018.27
737.076	2030.56
737.262	2003.94
737.447	1991.65
737.633	2053.09
737.819	2012.13
738.004	2018.27
738.19	1928.16
738.375	2051.04
738.561	1987.55
738.747	1999.84
738.932	1987.55
739.118	1864.68
739.303	1848.29
739.489	1989.6
739.674	1862.63
739.859	1901.54
740.045	1844.2
740.23	1883.11
740.416	1846.24
740.601	1807.33
740.786	1782.76
740.972	1731.56
741.157	1838.05
741.342	1887.2
741.528	1827.81
741.713	1764.33
741.898	1842.15
742.084	1793
742.269	1924.07
742.454	1862.63
742.639	1858.53
742.824	1735.65
743.01	1727.46
743.195	1799.14
743.38	1807.33
743.565	1645.54
743.75	1782.76
743.935	1688.55
744.12	1661.93
744.305	1772.52
744.49	1588.2
744.675	1635.3
744.86	1580.01
745.045	1551.34
745.23	1690.6
745.415	1627.11
745.6	1557.48
745.785	1553.38
745.97	1616.87
746.155	1633.26
746.34	1516.52
746.525	1526.76
746.71	1698.79
746.895	1537
747.079	1565.67
747.264	1440.75
747.449	1526.76
747.634	1491.95
747.819	1487.85
748.003	1453.03
748.188	1502.19
748.373	1516.52
748.557	1383.4
748.742	1463.27
748.927	1475.56
749.111	1541.1
749.296	1414.12
749.481	1543.14
749.665	1328.11
749.85	1381.35
750.034	1418.22
750.219	1530.86
750.404	1487.85
750.588	1367.02
750.773	1373.16
750.957	1291.24
751.141	1358.83
751.326	1399.79
751.51	1364.97
751.695	1367.02
751.879	1227.76
752.064	1328.11
752.248	1293.29
752.432	1344.49
752.617	1332.2
752.801	1391.59
752.985	1248.24
753.17	1252.33
753.354	1182.7
753.538	1272.81
753.722	1246.19
753.907	1250.28
754.091	1207.28
754.275	1121.26
754.459	1211.37
754.643	1178.61
754.828	1135.6
755.012	1129.45
755.196	1119.21
755.38	982
755.564	1115.12
755.748	1151.98
755.932	1203.18
756.116	1182.7
756.3	1065.97
756.484	1078.26
756.668	1108.98
756.852	1088.5
757.036	1047.54
757.22	1008.62
757.404	1065.97
757.588	994.29
757.772	967.67
757.956	1012.72
758.14	1027.06
758.323	1010.67
758.507	1063.92
758.691	920.56
758.875	965.62
759.059	979.95
759.242	1035.25
759.426	984.05
759.61	1029.1
759.794	943.09
759.977	975.86
760.161	967.67
760.345	875.51
760.528	941.04
760.712	982
760.895	984.05
761.079	943.09
761.263	973.81
761.446	916.47
761.63	846.84
761.813	910.32
761.997	889.84
762.18	936.95
762.364	953.33
762.547	875.51
762.731	967.67
762.914	955.38
763.098	773.11
763.281	906.23
763.464	865.27
763.648	936.95
763.831	898.03
764.015	830.45
764.198	791.54
764.381	912.37
764.564	836.6
764.748	762.87
764.931	793.59
765.114	902.13
765.297	836.6
765.481	807.92
765.664	781.3
765.847	818.16
766.03	848.88
766.213	726
766.397	775.16
766.58	846.84
766.763	750.58
766.946	832.5
767.129	832.5
767.312	695.29
767.495	777.2
767.678	830.45
767.861	807.92
768.044	852.98
768.227	791.54
768.41	758.77
768.593	773.11
768.776	728.05
768.959	803.83
769.142	826.36
769.324	711.67
769.507	793.59
769.69	726
769.873	762.87
770.056	760.82
770.239	695.29
770.421	736.24
770.604	764.92
770.787	750.58
770.97	746.48
771.152	789.49
771.335	730.1
771.518	736.24
771.7	666.61
771.883	685.05
772.066	683
772.248	697.33
772.431	703.48
772.613	701.43
772.796	662.52
772.978	660.47
773.161	740.34
773.343	668.66
773.526	707.57
773.708	683
773.891	639.99
774.073	619.51
774.256	709.62
774.438	666.61
774.621	625.65
774.803	705.53
774.985	619.51
775.168	578.55
775.35	656.37
775.532	654.33
775.715	697.33
775.897	586.74
776.079	531.45
776.261	662.52
776.444	615.41
776.626	621.56
776.808	586.74
776.99	504.82
777.173	584.7
777.355	553.98
777.537	572.41
777.719	592.89
777.901	537.59
778.083	619.51
778.265	506.87
778.447	646.13
778.629	500.73
778.811	541.69
778.993	558.07
779.175	472.06
779.357	513.02
779.539	648.18
779.721	502.78
779.903	535.54
780.085	574.46
780.267	543.74
780.449	488.44
780.631	496.63
780.812	463.86
780.994	463.86
781.176	498.68
781.358	543.74
781.54	459.77
781.721	478.2
781.903	443.39
782.085	472.06
782.267	478.2
782.448	523.26
782.63	465.91
782.812	461.82
782.993	482.3
783.175	488.44
783.357	429.05
783.538	424.95
783.72	478.2
783.901	412.67
784.083	535.54
784.264	416.76
784.446	453.63
784.627	363.51
784.809	433.15
784.99	455.67
785.172	379.9
785.353	308.22
785.535	297.98
785.716	406.52
785.897	363.51
786.079	447.48
786.26	394.23
786.441	365.56
786.623	300.03
786.804	400.38
786.985	314.36
787.167	422.91
787.348	394.23
787.529	431.1
787.71	412.67
787.891	373.75
788.073	392.19
788.254	304.12
788.435	404.47
788.616	318.46
788.797	312.32
788.978	351.23
789.159	400.38
789.34	289.79
789.522	306.17
789.703	386.04
789.884	402.43
790.065	379.9
790.246	398.33
790.427	361.47
790.607	390.14
790.788	367.61
790.969	281.6
791.15	371.71
791.331	281.6
791.512	283.64
791.693	306.17
791.874	328.7
792.054	310.27
792.235	308.22
792.416	259.07
792.597	281.6
792.778	332.79
792.958	312.32
793.139	244.73
793.32	353.27
793.5	248.83
793.681	265.21
793.862	273.4
794.042	295.93
794.223	265.21
794.404	259.07
794.584	257.02
794.765	273.4
794.945	230.4
795.126	293.88
795.306	351.23
795.487	263.16
795.667	244.73
795.848	277.5
796.028	232.44
796.209	324.6
796.389	207.87
796.57	275.45
796.75	230.4
796.93	302.08
797.111	306.17
797.291	240.64
797.471	242.68
797.652	209.92
797.832	289.79
798.012	279.55
798.192	316.41
798.373	265.21
798.553	222.2
798.733	211.96
798.913	279.55
799.093	297.98
799.274	252.92
799.454	271.36
799.634	275.45
799.814	195.58
799.994	216.06
800.174	228.35
800.354	238.59
800.534	193.53
800.714	259.07
800.894	179.2
801.074	224.25
801.254	226.3
801.434	211.96
801.614	218.11
801.794	218.11
801.974	654.33
802.154	216.06
802.334	218.11
802.514	160.77
802.693	150.53
802.873	185.34
803.053	287.74
803.233	226.3
803.413	185.34
803.592	152.57
803.772	226.3
803.952	244.73
804.131	183.29
804.311	144.38
804.491	211.96
804.67	220.16
804.85	234.49
805.03	195.58
805.209	179.2
805.389	183.29
805.568	246.78
805.748	201.72
805.928	220.16
806.107	226.3
806.287	171.01
806.466	156.67
806.646	156.67
806.825	166.91
807.004	222.2
807.184	222.2
807.363	222.2
807.543	191.49
807.722	175.1
807.901	201.72
808.081	187.39
808.26	156.67
808.439	179.2
808.619	138.24
808.798	152.57
808.977	193.53
809.156	121.85
809.336	203.77
809.515	136.19
809.694	189.44
809.873	195.58
810.052	125.95
810.231	220.16
810.411	168.96
810.59	191.49
810.769	187.39
810.948	191.49
811.127	84.99
811.306	168.96
811.485	160.77
811.664	168.96
811.843	199.68
812.022	175.1
812.201	123.9
812.38	187.39
812.559	93.18
812.737	179.2
812.916	52.22
813.095	160.77
813.274	62.46
813.453	179.2
813.632	136.19
813.811	97.28
813.989	54.27
814.168	70.65
814.347	123.9
814.526	97.28
814.704	146.43
814.883	125.95
815.062	166.91
815.24	109.57
815.419	177.15
815.598	99.33
815.776	121.85
815.955	87.04
816.133	46.08
816.312	140.29
816.49	115.71
816.669	82.94
816.847	134.14
817.026	138.24
817.204	105.47
817.383	179.2
817.561	142.33
817.74	72.7
817.918	117.76
818.097	97.28
818.275	93.18
818.453	164.86
818.632	119.81
818.81	76.8
818.988	29.7
819.167	97.28
819.345	111.61
819.523	105.47
819.701	199.68
819.879	78.85
820.058	97.28
820.236	80.89
820.414	130.05
820.592	207.87
820.77	113.66
820.948	121.85
821.127	109.57
821.305	162.81
821.483	97.28
821.661	105.47
821.839	121.85
822.017	121.85
822.195	74.75
822.373	136.19
822.551	84.99
822.729	64.51
822.907	103.42
823.085	105.47
823.262	39.94
823.44	115.71
823.618	99.33
823.796	76.8
823.974	95.23
824.152	142.33
824.329	166.91
824.507	189.44
824.685	74.75
824.863	46.08
825.04	162.81
825.218	95.23
825.396	136.19
825.574	97.28
825.751	80.89
825.929	128
826.107	115.71
826.284	109.57
826.462	66.56
826.639	74.75
826.817	101.37
826.994	107.52
827.172	89.09
827.349	117.76
827.527	117.76
827.704	166.91
827.882	115.71
828.059	91.13
828.237	44.03
828.414	144.38
828.591	56.32
828.769	117.76
828.946	136.19
829.124	72.7
829.301	105.47
829.478	41.98
829.655	113.66
829.833	154.62
830.01	52.22
830.187	144.38
830.364	121.85
830.542	87.04
830.719	113.66
830.896	64.51
831.073	74.75
831.25	29.7
831.427	136.19
831.604	89.09
831.782	72.7
831.959	39.94
832.136	84.99
832.313	64.51
832.49	84.99
832.667	68.61
832.844	74.75
833.021	134.14
833.198	60.42
833.374	91.13
833.551	84.99
833.728	168.96
833.905	99.33
834.082	78.85
834.259	41.98
834.436	64.51
834.612	105.47
834.789	144.38
834.966	70.65
835.143	91.13
835.319	68.61
835.496	146.43
835.673	72.7
835.85	144.38
836.026	80.89
836.203	21.5
836.38	101.37
836.556	74.75
836.733	62.46
836.909	148.48
837.086	128
837.262	103.42
837.439	1.02
837.616	-5.12
837.792	9.22
837.968	128
838.145	31.74
838.321	66.56
838.498	62.46
838.674	99.33
838.851	25.6
839.027	33.79
839.203	80.89
839.38	95.23
839.556	23.55
839.732	113.66
839.909	50.18
840.085	84.99
840.261	58.37
840.437	82.94
840.614	54.27
840.79	113.66
840.966	74.75
841.142	89.09
841.318	-1.02
841.494	33.79
841.671	105.47
841.847	64.51
842.023	27.65
842.199	99.33
842.375	62.46
842.551	54.27
842.727	7.17
842.903	125.95
843.079	13.31
843.255	97.28
843.431	70.65
843.607	29.7
843.783	-5.12
843.959	89.09
844.134	54.27
844.31	50.18
844.486	74.75
844.662	13.31
844.838	62.46
845.013	78.85
845.189	-21.5
845.365	74.75
845.541	140.29
845.716	13.31
845.892	29.7
846.068	95.23
846.244	78.85
846.419	11.26
846.595	78.85
846.77	64.51
846.946	-1.02
847.122	37.89
847.297	25.6
847.473	84.99
847.648	35.84
847.824	35.84
847.999	46.08
848.175	39.94
848.35	99.33
848.526	134.14
848.701	31.74
848.876	78.85
849.052	50.18
849.227	80.89
849.403	-7.17
849.578	-1.02
849.753	13.31
849.929	97.28
850.104	87.04
850.279	31.74
850.454	35.84
850.63	82.94
850.805	48.13
850.98	37.89
851.155	37.89
851.33	121.85
851.505	25.6
851.681	80.89
851.856	25.6
852.031	15.36
852.206	31.74
852.381	-31.74
852.556	13.31
852.731	13.31
852.906	1.02
853.081	11.26
853.256	121.85
853.431	52.22
853.606	19.46
853.781	15.36
853.956	17.41
854.131	21.5
854.305	-5.12
854.48	15.36
854.655	50.18
854.83	56.32
855.005	11.26
855.18	138.24
855.354	21.5
855.529	33.79
855.704	3.07
855.879	33.79
856.053	35.84
856.228	31.74
856.403	11.26
856.577	35.84
856.752	64.51
856.926	91.13
857.101	13.31
857.276	19.46
857.45	48.13
857.625	60.42
857.799	72.7
857.974	84.99
858.148	29.7
858.323	62.46
858.497	62.46
858.672	19.46
858.846	21.5
859.02	93.18
859.195	-9.22
859.369	56.32
859.543	-15.36
859.718	37.89
859.892	-23.55
860.066	27.65
860.241	101.37
860.415	97.28
860.589	23.55
860.763	68.61
860.938	46.08
861.112	62.46
861.286	41.98
861.46	-11.26
861.634	72.7
861.808	134.14
861.982	29.7
862.157	-35.84
862.331	17.41
862.505	46.08
862.679	44.03
862.853	5.12
863.027	48.13
863.201	101.37
863.375	27.65
863.549	46.08
863.722	95.23
863.896	101.37
864.07	27.65
864.244	-46.08
864.418	56.32
864.592	70.65
864.766	11.26
864.939	46.08
865.113	60.42
865.287	37.89
865.461	-23.55
865.634	80.89
865.808	33.79
865.982	17.41
866.156	-1.02
866.329	11.26
866.503	78.85
866.676	54.27
866.85	29.7
867.024	5.12
867.197	27.65
867.371	93.18
867.544	39.94
867.718	70.65
867.891	11.26
868.065	-5.12
868.238	76.8
868.412	44.03
868.585	-31.74
868.759	-15.36
868.932	9.22
869.105	70.65
869.279	1.02
869.452	29.7
869.625	29.7
869.799	48.13
869.972	13.31
870.145	62.46
870.319	15.36
870.492	52.22
870.665	52.22
870.838	82.94
871.011	-11.26
871.185	44.03
871.358	1.02
871.531	-11.26
871.704	58.37
871.877	66.56
872.05	-11.26
872.223	-31.74
872.396	1.02
872.569	48.13
872.742	52.22
872.915	44.03
873.088	66.56
873.261	37.89
873.434	7.17
873.607	87.04
873.78	41.98
873.953	-52.22
874.126	11.26
874.299	-5.12
874.471	1.02
874.644	37.89
874.817	52.22
874.99	66.56
875.163	76.8
875.335	74.75
875.508	72.7
875.681	25.6
875.853	72.7
876.026	31.74
876.199	21.5
876.371	56.32
876.544	35.84
876.717	95.23
876.889	11.26
877.062	23.55
877.234	-37.89
877.407	23.55
877.579	-31.74
877.752	15.36
877.924	70.65
878.097	56.32
878.269	17.41
878.442	29.7
878.614	7.17
878.786	39.94
878.959	66.56
879.131	37.89
879.303	19.46
879.476	66.56
879.648	48.13
879.82	35.84
879.993	-17.41
880.165	68.61
880.337	-54.27
880.509	37.89
880.681	-29.7
880.854	93.18
881.026	48.13
881.198	11.26
881.37	-29.7
881.542	13.31
881.714	5.12
881.886	35.84
882.058	13.31
882.23	11.26
882.402	1.02
882.574	3.07
882.746	68.61
882.918	-33.79
883.09	11.26
883.262	-21.5
883.434	39.94
883.606	-11.26
883.778	68.61
883.95	11.26
884.122	25.6
884.293	95.23
884.465	3.07
884.637	68.61
884.809	82.94
884.98	60.42
885.152	-13.31
885.324	48.13
885.496	-48.13
885.667	33.79
885.839	91.13
886.011	-23.55
886.182	29.7
886.354	23.55
886.525	128
886.697	29.7
886.869	9.22
887.04	33.79
887.212	56.32
887.383	97.28
887.555	29.7
887.726	117.76
887.897	-50.18
888.069	-7.17
888.24	41.98
888.412	3.07
888.583	3.07
888.754	78.85
888.926	-70.65
889.097	-27.65
889.268	7.17
889.44	-21.5
889.611	52.22
889.782	29.7
889.953	54.27
890.125	37.89
890.296	-1.02
890.467	41.98
890.638	74.75
890.809	78.85
890.98	-9.22
891.151	-17.41
891.323	39.94
891.494	-64.51
891.665	-21.5
891.836	-1.02
892.007	-5.12
892.178	41.98
892.349	52.22
892.52	27.65
892.691	72.7
892.862	1.02
893.032	-39.94
893.203	44.03
893.374	-21.5
893.545	41.98
893.716	-1.02
893.887	-17.41
894.057	-27.65
894.228	-5.12
894.399	-5.12
894.57	25.6
894.74	-13.31
894.911	105.47
895.082	17.41
895.253	29.7
895.423	-9.22
895.594	33.79
895.764	-31.74
895.935	-13.31
896.106	13.31
896.276	44.03
896.447	23.55
896.617	-39.94
896.788	25.6
896.958	-11.26
897.129	-23.55
897.299	-25.6
897.47	-17.41
897.64	56.32
897.81	76.8
897.981	82.94
898.151	23.55
898.322	-56.32
898.492	-25.6
898.662	80.89
898.832	-29.7
899.003	27.65
899.173	29.7
899.343	-21.5
899.513	-17.41
