Data from USB4F104151__79__12-36-51-373.txt Node

Date: Fri Mar 14 12:36:51 EDT 2025
User: louis
Spectrometer: USB4F10415
Trigger mode: 4
Integration Time (sec): 2.000000E-2
Scans to average: 1
Electric dark correction enabled: true
Nonlinearity correction enabled: false
Boxcar width: 0
XAxis mode: Wavelengths
Number of Pixels in Spectrum: 3648
>>>>>Begin Spectral Data<<<<<
178.204	-56.49
178.424	-56.49
178.644	-56.49
178.864	-60.59
179.084	0.85
179.304	-44.2
179.524	11.09
179.744	-25.77
179.964	54.1
180.184	2.9
180.404	41.81
180.624	-27.82
180.844	9.05
181.064	-76.97
181.283	-46.25
181.503	33.62
181.723	68.44
181.943	-33.96
182.163	29.52
182.383	31.57
182.602	13.14
182.822	52.05
183.042	25.43
183.262	25.43
183.482	-29.87
183.701	52.05
183.921	31.57
184.141	-58.54
184.361	52.05
184.58	4.95
184.8	56.15
185.02	-5.29
185.239	80.72
185.459	68.44
185.679	41.81
185.898	-25.77
186.118	50
186.338	-5.29
186.557	68.44
186.777	31.57
186.997	74.58
187.216	33.62
187.436	-9.39
187.655	-11.43
187.875	74.58
188.095	84.82
188.314	31.57
188.534	37.72
188.753	27.48
188.973	76.63
189.192	13.14
189.412	9.05
189.631	11.09
189.851	86.87
190.07	43.86
190.29	11.09
190.509	-25.77
190.729	84.82
190.948	70.48
191.168	176.98
191.387	54.1
191.607	-31.91
191.826	78.68
192.045	52.05
192.265	9.05
192.484	33.62
192.704	-17.58
192.923	25.43
193.142	129.88
193.362	107.35
193.581	52.05
193.8	27.48
194.02	-5.29
194.239	47.96
194.458	43.86
194.678	17.24
194.897	-38.06
195.116	-9.39
195.335	76.63
195.555	4.95
195.774	50
195.993	58.2
196.212	17.24
196.432	62.29
196.651	50
196.87	43.86
197.089	78.68
197.308	23.38
197.528	25.43
197.747	-46.25
197.966	15.19
198.185	50
198.404	70.48
198.623	-5.29
198.842	27.48
199.062	0.85
199.281	41.81
199.5	29.52
199.719	19.29
199.938	11.09
200.157	4.95
200.376	72.53
200.595	47.96
200.814	-66.73
201.033	13.14
201.252	-1.19
201.471	68.44
201.69	72.53
201.909	78.68
202.128	50
202.347	-3.24
202.566	80.72
202.785	31.57
203.004	19.29
203.223	84.82
203.442	-21.67
203.661	-27.82
203.879	45.91
204.098	78.68
204.317	-3.24
204.536	47.96
204.755	-21.67
204.974	80.72
205.193	84.82
205.411	127.83
205.63	58.2
205.849	39.76
206.068	37.72
206.287	78.68
206.505	19.29
206.724	11.09
206.943	50
207.162	72.53
207.381	84.82
207.599	33.62
207.818	21.33
208.037	45.91
208.255	29.52
208.474	7
208.693	31.57
208.911	50
209.13	-33.96
209.349	50
209.567	52.05
209.786	93.01
210.005	-17.58
210.223	95.06
210.442	11.09
210.661	76.63
210.879	76.63
211.098	41.81
211.316	11.09
211.535	39.76
211.753	-17.58
211.972	-25.77
212.191	47.96
212.409	43.86
212.628	58.2
212.846	43.86
213.065	47.96
213.283	50
213.502	-42.15
213.72	9.05
213.938	50
214.157	17.24
214.375	119.64
214.594	64.34
214.812	13.14
215.031	21.33
215.249	70.48
215.467	58.2
215.686	19.29
215.904	95.06
216.122	62.29
216.341	105.3
216.559	60.24
216.778	72.53
216.996	50
217.214	76.63
217.432	13.14
217.651	70.48
217.869	54.1
218.087	107.35
218.306	66.39
218.524	13.14
218.742	68.44
218.96	35.67
219.179	52.05
219.397	125.78
219.615	29.52
219.833	82.77
220.051	2.9
220.27	105.3
220.488	-1.19
220.706	19.29
220.924	29.52
221.142	2.9
221.36	54.1
221.578	-21.67
221.796	29.52
222.015	70.48
222.233	33.62
222.451	27.48
222.669	66.39
222.887	39.76
223.105	29.52
223.323	41.81
223.541	54.1
223.759	84.82
223.977	-5.29
224.195	76.63
224.413	160.59
224.631	17.24
224.849	2.9
225.067	35.67
225.285	0.85
225.503	101.2
225.721	-9.39
225.939	70.48
226.157	7
226.375	133.97
226.592	-13.48
226.81	68.44
227.028	29.52
227.246	88.92
227.464	0.85
227.682	54.1
227.9	68.44
228.117	101.2
228.335	43.86
228.553	54.1
228.771	31.57
228.989	-3.24
229.206	-11.43
229.424	-11.43
229.642	33.62
229.86	21.33
230.077	64.34
230.295	33.62
230.513	41.81
230.731	54.1
230.948	-17.58
231.166	62.29
231.384	7
231.601	58.2
231.819	54.1
232.037	2.9
232.254	103.25
232.472	37.72
232.689	31.57
232.907	0.85
233.125	41.81
233.342	66.39
233.56	70.48
233.777	68.44
233.995	15.19
234.213	74.58
234.43	50
234.648	52.05
234.865	56.15
235.083	54.1
235.3	-9.39
235.518	60.24
235.735	9.05
235.953	72.53
236.17	-38.06
236.388	23.38
236.605	-7.34
236.822	23.38
237.04	-5.29
237.257	66.39
237.475	-9.39
237.692	31.57
237.909	11.09
238.127	41.81
238.344	29.52
238.562	50
238.779	-1.19
238.996	7
239.214	11.09
239.431	-19.63
239.648	47.96
239.865	-5.29
240.083	86.87
240.3	-7.34
240.517	-23.72
240.735	45.91
240.952	93.01
241.169	0.85
241.386	54.1
241.603	68.44
241.821	2.9
242.038	21.33
242.255	68.44
242.472	7
242.689	72.53
242.907	131.92
243.124	31.57
243.341	43.86
243.558	21.33
243.775	23.38
243.992	-9.39
244.209	29.52
244.426	95.06
244.643	78.68
244.86	9.05
245.078	97.11
245.295	56.15
245.512	76.63
245.729	74.58
245.946	64.34
246.163	97.11
246.38	90.96
246.597	41.81
246.814	58.2
247.031	41.81
247.248	31.57
247.464	140.12
247.681	76.63
247.898	111.44
248.115	37.72
248.332	76.63
248.549	90.96
248.766	35.67
248.983	33.62
249.2	-21.67
249.417	50
249.633	82.77
249.85	41.81
250.067	68.44
250.284	115.54
250.501	68.44
250.717	86.87
250.934	-38.06
251.151	68.44
251.368	45.91
251.585	31.57
251.801	11.09
252.018	62.29
252.235	7
252.451	35.67
252.668	19.29
252.885	70.48
253.102	11.09
253.318	84.82
253.535	25.43
253.752	-15.53
253.968	82.77
254.185	54.1
254.401	43.86
254.618	23.38
254.835	29.52
255.051	80.72
255.268	31.57
255.484	11.09
255.701	-15.53
255.917	107.35
256.134	45.91
256.351	13.14
256.567	-19.63
256.784	66.39
257	7
257.217	17.24
257.433	60.24
257.65	60.24
257.866	97.11
258.082	58.2
258.299	58.2
258.515	29.52
258.732	-5.29
258.948	15.19
259.165	64.34
259.381	-21.67
259.597	17.24
259.814	109.4
260.03	97.11
260.246	19.29
260.463	54.1
260.679	62.29
260.895	45.91
261.112	54.1
261.328	33.62
261.544	58.2
261.761	82.77
261.977	-44.2
262.193	29.52
262.409	101.2
262.626	13.14
262.842	-9.39
263.058	45.91
263.274	127.83
263.49	35.67
263.707	62.29
263.923	125.78
264.139	-11.43
264.355	93.01
264.571	64.34
264.787	78.68
265.004	82.77
265.22	33.62
265.436	60.24
265.652	-23.72
265.868	111.44
266.084	62.29
266.3	37.72
266.516	29.52
266.732	-52.39
266.948	54.1
267.164	52.05
267.38	-9.39
267.596	9.05
267.812	84.82
268.028	13.14
268.244	35.67
268.46	39.76
268.676	74.58
268.892	50
269.108	68.44
269.324	19.29
269.54	-70.83
269.756	-13.48
269.972	33.62
270.188	60.24
270.403	31.57
270.619	70.48
270.835	113.49
271.051	115.54
271.267	25.43
271.483	33.62
271.698	97.11
271.914	45.91
272.13	58.2
272.346	31.57
272.562	107.35
272.777	25.43
272.993	50
273.209	23.38
273.425	-1.19
273.64	27.48
273.856	41.81
274.072	33.62
274.287	-23.72
274.503	27.48
274.719	97.11
274.934	56.15
275.15	70.48
275.366	29.52
275.581	-15.53
275.797	45.91
276.012	25.43
276.228	109.4
276.444	15.19
276.659	88.92
276.875	21.33
277.09	45.91
277.306	-38.06
277.521	52.05
277.737	29.52
277.952	56.15
278.168	99.16
278.383	29.52
278.599	35.67
278.814	123.73
279.03	-11.43
279.245	88.92
279.461	45.91
279.676	84.82
279.892	-25.77
280.107	58.2
280.322	80.72
280.538	-5.29
280.753	41.81
280.969	72.53
281.184	-33.96
281.399	56.15
281.615	90.96
281.83	29.52
282.045	80.72
282.26	39.76
282.476	62.29
282.691	90.96
282.906	29.52
283.122	90.96
283.337	74.58
283.552	80.72
283.767	31.57
283.983	80.72
284.198	41.81
284.413	35.67
284.628	117.59
284.843	93.01
285.058	93.01
285.274	-60.59
285.489	23.38
285.704	121.68
285.919	-13.48
286.134	84.82
286.349	47.96
286.564	19.29
286.779	113.49
286.995	-1.19
287.21	15.19
287.425	90.96
287.64	9.05
287.855	9.05
288.07	-1.19
288.285	99.16
288.5	37.72
288.715	33.62
288.93	58.2
289.145	90.96
289.36	50
289.575	74.58
289.79	93.01
290.004	37.72
290.219	43.86
290.434	21.33
290.649	31.57
290.864	29.52
291.079	97.11
291.294	15.19
291.509	31.57
291.724	66.39
291.938	2.9
292.153	45.91
292.368	84.82
292.583	-50.35
292.798	45.91
293.012	115.54
293.227	72.53
293.442	60.24
293.657	95.06
293.871	82.77
294.086	41.81
294.301	115.54
294.516	95.06
294.73	76.63
294.945	13.14
295.16	84.82
295.374	37.72
295.589	101.2
295.804	80.72
296.018	80.72
296.233	140.12
296.447	60.24
296.662	9.05
296.877	146.26
297.091	15.19
297.306	68.44
297.52	74.58
297.735	-5.29
297.949	37.72
298.164	54.1
298.378	45.91
298.593	62.29
298.807	29.52
299.022	23.38
299.236	70.48
299.451	47.96
299.665	39.76
299.88	62.29
300.094	60.24
300.309	33.62
300.523	21.33
300.737	68.44
300.952	74.58
301.166	70.48
301.381	23.38
301.595	74.58
301.809	35.67
302.024	97.11
302.238	60.24
302.452	62.29
302.667	-33.96
302.881	78.68
303.095	31.57
303.309	58.2
303.524	35.67
303.738	15.19
303.952	-13.48
304.166	68.44
304.381	-7.34
304.595	50
304.809	99.16
305.023	21.33
305.237	47.96
305.452	119.64
305.666	70.48
305.88	56.15
306.094	17.24
306.308	70.48
306.522	54.1
306.736	121.68
306.95	66.39
307.164	45.91
307.379	43.86
307.593	103.25
307.807	50
308.021	64.34
308.235	4.95
308.449	27.48
308.663	54.1
308.877	86.87
309.091	45.91
309.305	-40.11
309.519	17.24
309.733	82.77
309.947	4.95
310.161	2.9
310.374	125.78
310.588	23.38
310.802	27.48
311.016	43.86
311.23	4.95
311.444	64.34
311.658	13.14
311.872	62.29
312.085	27.48
312.299	82.77
312.513	103.25
312.727	37.72
312.941	-31.91
313.154	84.82
313.368	72.53
313.582	58.2
313.796	56.15
314.009	-3.24
314.223	-27.82
314.437	62.29
314.651	64.34
314.864	31.57
315.078	-9.39
315.292	60.24
315.505	64.34
315.719	86.87
315.933	35.67
316.146	70.48
316.36	31.57
316.573	47.96
316.787	23.38
317.001	88.92
317.214	13.14
317.428	-5.29
317.641	31.57
317.855	-3.24
318.068	41.81
318.282	99.16
318.495	45.91
318.709	33.62
318.922	31.57
319.136	62.29
319.349	70.48
319.563	35.67
319.776	-44.2
319.99	-48.3
320.203	33.62
320.417	68.44
320.63	66.39
320.843	113.49
321.057	23.38
321.27	105.3
321.483	35.67
321.697	99.16
321.91	52.05
322.124	13.14
322.337	45.91
322.55	64.34
322.763	17.24
322.977	17.24
323.19	39.76
323.403	17.24
323.617	56.15
323.83	41.81
324.043	29.52
324.256	52.05
324.469	37.72
324.683	90.96
324.896	70.48
325.109	39.76
325.322	41.81
325.535	21.33
325.748	78.68
325.962	19.29
326.175	-38.06
326.388	54.1
326.601	80.72
326.814	39.76
327.027	-9.39
327.24	78.68
327.453	27.48
327.666	37.72
327.879	103.25
328.092	60.24
328.305	117.59
328.518	-3.24
328.731	17.24
328.944	84.82
329.157	7
329.37	52.05
329.583	25.43
329.796	109.4
330.009	50
330.222	0.85
330.435	58.2
330.648	107.35
330.861	64.34
331.073	43.86
331.286	66.39
331.499	60.24
331.712	84.82
331.925	78.68
332.138	-5.29
332.35	95.06
332.563	17.24
332.776	-3.24
332.989	-5.29
333.202	33.62
333.414	64.34
333.627	76.63
333.84	7
334.053	62.29
334.265	107.35
334.478	113.49
334.691	-21.67
334.903	60.24
335.116	72.53
335.329	-11.43
335.541	27.48
335.754	66.39
335.966	101.2
336.179	43.86
336.392	19.29
336.604	72.53
336.817	80.72
337.029	95.06
337.242	-42.15
337.454	107.35
337.667	11.09
337.88	136.02
338.092	-7.34
338.305	17.24
338.517	64.34
338.729	62.29
338.942	4.95
339.154	109.4
339.367	19.29
339.579	119.64
339.792	25.43
340.004	129.88
340.217	21.33
340.429	111.44
340.641	88.92
340.854	105.3
341.066	58.2
341.278	99.16
341.491	97.11
341.703	86.87
341.915	95.06
342.128	54.1
342.34	47.96
342.552	29.52
342.764	-29.87
342.977	62.29
343.189	54.1
343.401	50
343.613	35.67
343.826	84.82
344.038	11.09
344.25	127.83
344.462	37.72
344.674	86.87
344.886	74.58
345.099	82.77
345.311	50
345.523	62.29
345.735	31.57
345.947	52.05
346.159	66.39
346.371	129.88
346.583	19.29
346.795	90.96
347.007	95.06
347.219	66.39
347.431	82.77
347.643	111.44
347.855	68.44
348.067	88.92
348.279	-19.63
348.491	80.72
348.703	60.24
348.915	54.1
349.127	-11.43
349.339	80.72
349.551	72.53
349.763	123.73
349.975	-5.29
350.187	74.58
350.399	111.44
350.61	50
350.822	97.11
351.034	119.64
351.246	-17.58
351.458	25.43
351.669	45.91
351.881	82.77
352.093	90.96
352.305	56.15
352.517	-3.24
352.728	105.3
352.94	117.59
353.152	54.1
353.363	39.76
353.575	82.77
353.787	56.15
353.999	72.53
354.21	148.31
354.422	62.29
354.633	90.96
354.845	86.87
355.057	54.1
355.268	74.58
355.48	70.48
355.692	82.77
355.903	103.25
356.115	60.24
356.326	58.2
356.538	117.59
356.749	74.58
356.961	43.86
357.172	9.05
357.384	121.68
357.595	97.11
357.807	37.72
358.018	52.05
358.23	31.57
358.441	93.01
358.653	23.38
358.864	54.1
359.075	78.68
359.287	99.16
359.498	101.2
359.709	95.06
359.921	115.54
360.132	99.16
360.344	117.59
360.555	88.92
360.766	82.77
360.977	43.86
361.189	99.16
361.4	27.48
361.611	78.68
361.823	129.88
362.034	35.67
362.245	99.16
362.456	107.35
362.667	76.63
362.879	117.59
363.09	82.77
363.301	78.68
363.512	64.34
363.723	21.33
363.935	70.48
364.146	80.72
364.357	45.91
364.568	99.16
364.779	2.9
364.99	31.57
365.201	70.48
365.412	101.2
365.623	21.33
365.834	35.67
366.045	47.96
366.256	72.53
366.467	27.48
366.678	-13.48
366.889	21.33
367.1	31.57
367.311	146.26
367.522	27.48
367.733	70.48
367.944	111.44
368.155	33.62
368.366	9.05
368.577	17.24
368.788	68.44
368.999	39.76
369.209	31.57
369.42	84.82
369.631	113.49
369.842	90.96
370.053	68.44
370.264	58.2
370.474	95.06
370.685	47.96
370.896	56.15
371.107	76.63
371.317	115.54
371.528	-5.29
371.739	133.97
371.95	74.58
372.16	74.58
372.371	-3.24
372.582	31.57
372.792	58.2
373.003	45.91
373.214	58.2
373.424	37.72
373.635	-42.15
373.846	74.58
374.056	78.68
374.267	33.62
374.477	78.68
374.688	64.34
374.898	39.76
375.109	66.39
375.319	125.78
375.53	70.48
375.74	95.06
375.951	58.2
376.161	39.76
376.372	68.44
376.582	142.16
376.793	27.48
377.003	58.2
377.214	95.06
377.424	52.05
377.635	21.33
377.845	-23.72
378.055	86.87
378.266	84.82
378.476	131.92
378.686	60.24
378.897	93.01
379.107	21.33
379.317	70.48
379.528	-13.48
379.738	88.92
379.948	66.39
380.158	37.72
380.369	52.05
380.579	121.68
380.789	45.91
380.999	70.48
381.21	95.06
381.42	156.5
381.63	66.39
381.84	99.16
382.05	11.09
382.261	123.73
382.471	99.16
382.681	103.25
382.891	142.16
383.101	76.63
383.311	74.58
383.521	133.97
383.731	95.06
383.941	39.76
384.151	121.68
384.361	62.29
384.571	64.34
384.781	103.25
384.991	31.57
385.201	107.35
385.411	117.59
385.621	41.81
385.831	109.4
386.041	115.54
386.251	56.15
386.461	-3.24
386.671	52.05
386.881	29.52
387.091	62.29
387.301	82.77
387.511	76.63
387.72	121.68
387.93	133.97
388.14	76.63
388.35	70.48
388.56	45.91
388.769	109.4
388.979	50
389.189	31.57
389.399	142.16
389.609	185.17
389.818	97.11
390.028	39.76
390.238	37.72
390.447	119.64
390.657	107.35
390.867	25.43
391.076	90.96
391.286	74.58
391.496	146.26
391.705	111.44
391.915	150.36
392.125	105.3
392.334	115.54
392.544	150.36
392.753	93.01
392.963	88.92
393.172	119.64
393.382	105.3
393.591	176.98
393.801	84.82
394.01	41.81
394.22	127.83
394.429	60.24
394.639	76.63
394.848	123.73
395.058	129.88
395.267	76.63
395.477	90.96
395.686	78.68
395.895	97.11
396.105	123.73
396.314	103.25
396.524	-17.58
396.733	88.92
396.942	133.97
397.152	86.87
397.361	181.07
397.57	119.64
397.78	84.82
397.989	107.35
398.198	176.98
398.407	111.44
398.617	170.83
398.826	148.31
399.035	199.51
399.244	123.73
399.453	129.88
399.663	101.2
399.872	123.73
400.081	133.97
400.29	176.98
400.499	154.45
400.708	95.06
400.917	125.78
401.127	162.64
401.336	111.44
401.545	213.84
401.754	170.83
401.963	105.3
402.172	74.58
402.381	215.89
402.59	172.88
402.799	258.9
403.008	174.93
403.217	176.98
403.426	262.99
403.635	179.03
403.844	197.46
404.053	219.99
404.262	105.3
404.471	256.85
404.68	170.83
404.888	172.88
405.097	199.51
405.306	154.45
405.515	279.38
405.724	217.94
405.933	258.9
406.142	199.51
406.35	195.41
406.559	322.38
406.768	226.13
406.977	283.47
407.185	277.33
407.394	271.19
407.603	314.19
407.812	283.47
408.02	324.43
408.229	334.67
408.438	277.33
408.646	310.1
408.855	351.06
409.064	289.62
409.272	283.47
409.481	342.86
409.69	314.19
409.898	400.21
410.107	484.17
410.315	420.69
410.524	426.83
410.733	467.79
410.941	461.65
411.15	455.5
411.358	506.7
411.567	545.61
411.775	465.74
411.984	492.37
412.192	623.44
412.401	617.29
412.609	652.11
412.818	562
413.026	578.38
413.234	666.44
413.443	664.4
413.651	697.16
413.86	668.49
414.068	760.65
414.276	783.18
414.485	807.75
414.693	791.37
414.901	932.68
415.11	947.01
415.318	865.1
415.526	914.25
415.734	920.39
415.943	1018.69
416.151	992.07
416.359	1033.03
416.567	1073.99
416.776	1235.78
416.984	1129.28
417.192	1362.75
417.4	1239.87
417.608	1229.63
417.817	1327.94
418.025	1342.27
418.233	1495.87
418.441	1454.91
418.649	1493.82
418.857	1571.65
419.065	1579.84
419.273	1561.41
419.481	1684.28
419.689	1743.67
419.897	1901.37
420.105	1960.76
420.313	1927.99
420.521	2054.97
420.729	2102.07
420.937	2108.21
421.145	2216.76
421.353	2378.55
421.561	2474.8
421.769	2566.96
421.977	2552.62
422.185	2652.97
422.393	2689.84
422.601	3005.22
422.809	3007.27
423.017	2939.69
423.224	3025.7
423.432	3257.12
423.64	3207.97
423.848	3515.17
424.056	3271.46
424.263	3726.11
424.471	3658.53
424.679	3676.96
424.887	3932.95
425.094	4109.08
425.302	4057.88
425.51	4231.96
425.718	4307.73
425.925	4440.85
426.133	4547.34
426.341	4819.72
426.548	4975.37
426.756	4842.25
426.964	5176.07
427.171	5245.7
427.379	5389.06
427.586	5585.66
427.794	5778.17
428.001	6007.55
428.209	6257.4
428.417	6036.22
428.624	6585.07
428.832	6570.74
429.039	6638.32
429.247	6734.57
429.454	7351.01
429.662	7746.27
429.869	7129.83
430.076	7631.58
430.284	7578.34
430.491	7662.3
430.699	8221.4
430.906	8196.82
431.114	8401.62
431.321	8790.74
431.528	8985.29
431.736	9431.75
431.943	9638.59
432.15	9614.02
432.358	9505.48
432.565	10236.6
432.772	10267.32
432.979	10666.67
433.187	10771.12
433.394	10867.38
433.601	11537.06
433.808	11762.34
434.016	11578.02
434.223	12067.49
434.43	12991.12
434.637	12702.36
434.844	13355.66
435.052	13771.4
435.259	13496.97
435.466	13884.03
435.673	13488.78
435.88	14344.83
436.087	15207.02
436.294	15233.64
436.501	15002.22
436.708	15178.35
436.915	15913.57
437.122	16593.5
437.329	16413.27
437.537	17021.52
437.743	17136.21
437.95	17091.15
438.157	18033.22
438.364	18764.34
438.571	18487.87
438.778	18666.04
438.985	20128.29
439.192	19593.77
439.399	20122.15
439.606	19690.02
439.813	21164.56
440.02	22149.64
440.227	21680.65
440.433	21234.19
440.64	22352.38
440.847	22016.52
441.054	22811.13
441.261	23986.66
441.467	23998.95
441.674	24314.34
441.881	25108.95
442.088	24822.23
442.294	24699.36
442.501	25366.99
442.708	25965
442.914	27163.06
443.121	28158.38
443.328	27306.42
443.534	29393.3
443.741	28690.85
443.948	27842.99
444.154	30189.96
444.361	30105.99
444.568	30484.87
444.774	30185.86
444.981	30960
445.187	31445.37
445.394	32893.28
445.6	32696.67
445.807	35344.7
446.013	33927.5
446.22	34781.51
446.426	36192.56
446.633	36184.37
446.839	37353.76
447.046	35993.9
447.252	37683.48
447.459	38062.35
447.665	38230.29
447.871	40044.79
448.078	41232.61
448.284	39328
448.491	40464.62
448.697	41803.99
448.903	42549.45
449.11	42830.02
449.316	41994.45
449.522	42791.11
449.728	44058.81
449.935	44345.52
450.141	44329.14
450.347	45082.79
450.553	44069.04
450.76	44824.75
450.966	45906.07
451.172	45693.08
451.378	46356.63
451.584	45869.21
451.791	46923.91
451.997	46704.78
452.203	47239.3
452.409	47564.93
452.615	47054.98
452.821	45516.96
453.027	45365.41
453.233	47374.47
453.44	45060.26
453.646	46291.09
453.852	46436.5
454.058	47208.58
454.264	45967.51
454.47	46753.93
454.676	45467.81
454.882	46921.87
455.088	43124.93
455.294	43628.73
455.5	44458.16
455.705	45076.65
455.911	43288.77
456.117	42211.54
456.323	41703.64
456.529	39467.26
456.735	41306.34
456.941	40265.97
457.147	39573.75
457.352	38695.17
457.558	37972.24
457.764	38095.12
457.97	37366.04
458.176	36274.48
458.381	36817.19
458.587	34738.5
458.793	35131.71
458.999	33194.33
459.204	35387.71
459.41	34548.04
459.616	32393.58
459.821	32190.83
460.027	31979.89
460.233	31070.59
460.438	29921.68
460.644	30249.35
460.85	28846.49
461.055	28623.26
461.261	28316.07
461.466	26479.04
461.672	25655.76
461.878	27318.71
462.083	25356.75
462.289	25262.55
462.494	24842.71
462.7	23525.87
462.905	23144.95
463.111	23738.86
463.316	23878.12
463.522	23689.71
463.727	23386.61
463.932	23263.73
464.138	23362.03
464.343	23501.29
464.549	22743.55
464.754	23611.89
464.959	23181.81
465.165	22979.06
465.37	21873.16
465.575	21385.74
465.781	22247.94
465.986	22764.03
466.191	21588.49
466.397	21230.1
466.602	20359.71
466.807	20937.24
467.012	20802.07
467.218	21082.64
467.423	20597.28
467.628	20625.95
467.833	21539.34
468.038	20834.84
468.244	20220.45
468.449	20929.05
468.654	20118.05
468.859	20175.39
469.064	20173.35
469.269	19427.88
469.474	19524.14
469.679	19868.2
469.885	19216.94
470.09	19495.47
470.295	19356.21
470.5	18983.48
470.705	18825.78
470.91	18639.42
471.115	18375.23
471.32	18678.33
471.525	18889.27
471.73	18297.41
471.935	18311.74
472.139	17410.64
472.344	17812.04
472.549	17664.58
472.754	17498.7
472.959	17015.38
473.164	16656.98
473.369	16491.1
473.574	17021.52
473.778	17404.49
473.983	16790.1
474.188	16628.31
474.393	15852.13
474.598	15954.53
474.802	15934.05
475.007	15657.57
475.212	15792.74
475.417	15360.62
475.621	15155.82
475.826	15116.91
476.031	14944.88
476.235	14504.57
476.44	14893.68
476.645	14643.83
476.849	14539.38
477.054	14482.04
477.259	14330.49
477.463	14191.23
477.668	13646.47
477.872	13873.79
478.077	13720.2
478.282	13417.1
478.486	13388.43
478.691	13263.5
478.895	13232.78
479.1	13183.63
479.304	13183.63
479.509	12874.38
479.713	12976.78
479.918	12690.07
480.122	12645.01
480.326	12915.34
480.531	12620.44
480.735	12483.22
480.94	12511.89
481.144	12569.24
481.348	12202.65
481.553	12384.92
481.757	12024.48
481.961	12321.43
482.166	12497.56
482.37	12427.93
482.574	12085.92
482.778	12073.63
482.983	12520.09
483.187	12307.1
483.391	12378.78
483.595	12083.87
483.8	11979.42
484.004	12161.69
484.208	12440.22
484.412	12255.9
484.616	12341.91
484.821	12231.32
485.025	12096.16
485.229	12460.7
485.433	11967.13
485.637	12173.98
485.841	12026.53
486.045	12155.55
486.249	12255.9
486.453	11985.57
486.657	12298.91
486.861	12257.95
487.065	11704.99
487.269	12188.32
487.473	11872.93
487.677	12188.32
487.881	12143.26
488.085	12049.05
488.289	12339.87
488.493	12061.34
488.697	12417.69
488.901	12429.98
489.105	12169.88
489.309	12227.23
489.512	12212.89
489.716	12491.41
489.92	12284.57
490.124	12253.85
490.328	12452.5
490.531	12315.29
490.735	12403.35
490.939	12427.93
491.143	12176.03
491.346	12604.05
491.55	12544.66
491.754	12599.96
491.958	13120.14
492.161	12810.9
492.365	12810.9
492.569	12728.98
492.772	12710.55
492.976	12903.06
493.18	13144.72
493.383	13042.32
493.587	13163.15
493.79	13386.38
493.994	13044.37
494.197	12997.26
494.401	13601.41
494.605	13296.27
494.808	13828.74
495.012	13851.27
495.215	13601.41
495.419	13832.83
495.622	13783.68
495.825	14072.45
496.029	14039.68
496.232	14303.87
496.436	14244.48
496.639	14570.1
496.843	14510.71
497.046	14688.89
497.249	15047.28
497.453	15104.62
497.656	15209.07
497.859	15028.85
498.063	15327.85
498.266	15764.07
498.469	15493.74
498.673	15716.97
498.876	15942.24
499.079	16147.04
499.282	16308.83
499.485	16566.87
499.689	16536.15
499.892	16751.19
500.095	16933.46
500.298	17361.48
500.501	17179.22
500.705	17621.58
500.908	18008.64
501.111	18131.52
501.314	18238.02
501.517	18448.96
501.72	18565.69
501.923	18903.6
502.126	19012.15
502.329	19102.26
502.532	19368.49
502.735	19120.69
502.938	19870.25
503.141	19931.69
503.344	20320.8
503.547	20228.64
503.75	20548.12
503.953	20974.1
504.156	20812.31
504.359	21103.12
504.562	21211.67
504.765	21719.56
504.968	21983.75
505.17	22082.05
505.373	22389.25
505.576	22919.67
505.779	22710.78
505.982	22888.95
506.185	23153.14
506.387	23460.34
506.59	23583.21
506.793	24349.15
506.996	24150.5
507.198	24547.81
507.401	24261.09
507.604	24881.63
507.807	25547.22
508.009	25364.95
508.212	25668.05
508.415	25909.71
508.617	26210.76
508.82	26327.49
509.022	26538.43
509.225	26839.48
509.428	27124.15
509.63	27177.4
509.833	27394.48
510.035	28148.14
510.238	28348.84
510.44	28369.32
510.643	29008.28
510.845	28907.93
511.048	29026.71
511.25	29376.92
511.453	29493.65
511.655	30468.48
511.858	30429.57
512.06	30278.02
512.262	30755.2
512.465	30833.02
512.667	31486.32
512.87	31736.18
513.072	31770.99
513.274	32352.62
513.477	32538.98
513.679	33175.9
513.881	33386.84
514.084	33589.59
514.286	33321.3
514.488	34185.55
514.69	34662.72
514.893	34967.87
515.095	34838.85
515.297	35643.7
515.499	35449.14
515.701	35694.9
515.904	36499.75
516.106	36243.76
516.308	36809
516.51	36907.3
516.712	37364
516.914	37658.9
517.116	38568.2
517.318	38195.47
517.52	38629.64
517.722	39166.21
517.925	39106.82
518.127	39858.42
518.329	39491.83
518.531	39768.31
518.733	40368.37
518.935	40798.44
519.136	40915.17
519.338	41400.54
519.54	41367.77
519.742	41765.08
519.944	41973.97
520.146	42670.28
520.348	42897.61
520.55	43389.12
520.752	43522.24
520.954	44275.89
521.155	43739.32
521.357	44603.56
521.559	44923.05
521.761	45570.21
521.963	45228.2
522.164	45189.28
522.366	45674.65
522.568	46215.32
522.77	46180.5
522.971	47081.61
523.173	46506.13
523.375	46809.23
523.576	47073.42
523.778	47143.05
523.98	47739
524.181	48132.21
524.383	47757.44
524.584	48404.59
524.786	48261.24
524.988	48701.55
525.189	48711.79
525.391	49588.32
525.592	49778.78
525.794	49760.35
525.995	49899.61
526.197	50174.04
526.398	50233.43
526.6	50487.38
526.801	50548.82
527.003	50448.47
527.204	50876.49
527.406	51513.41
527.607	51339.33
527.808	51454.02
528.01	50931.79
528.211	51677.25
528.412	52160.57
528.614	52107.32
528.815	52084.79
529.016	52465.72
529.218	52060.22
529.419	52762.67
529.62	52324.41
529.822	52385.85
530.023	52799.54
530.224	52758.58
530.425	52738.1
530.626	52527.16
530.828	52869.17
531.029	53385.25
531.23	52975.66
531.431	52723.76
531.632	53661.73
531.833	53465.13
532.035	53356.58
532.236	53440.55
532.437	53815.33
532.638	53418.02
532.839	53573.67
533.04	53549.09
533.241	52908.08
533.442	54061.08
533.643	53712.93
533.844	53633.06
534.045	53504.04
534.246	53598.24
534.447	53919.77
534.648	53706.79
534.849	53948.45
535.05	53692.45
535.251	53604.39
535.451	53354.54
535.652	53940.25
535.853	53905.44
536.054	54071.32
536.255	54081.56
536.456	53405.73
536.657	54368.28
536.857	53932.06
537.058	53340.2
537.259	54067.23
537.46	53766.18
537.66	53659.68
537.861	53620.77
538.062	53565.48
538.263	53700.64
538.463	53696.55
538.664	53723.17
538.865	54032.41
539.065	54063.13
539.266	53260.33
539.466	54175.77
539.667	53401.64
539.868	54233.11
540.068	54069.28
540.269	53819.42
540.469	53823.52
540.67	53884.96
540.87	53692.45
541.071	53714.98
541.271	53964.83
541.472	53684.26
541.672	53538.85
541.873	53467.17
542.073	52609.07
542.274	53999.65
542.474	53438.5
542.675	53620.77
542.875	54206.49
543.075	53327.91
543.276	53372.97
543.476	53741.6
543.676	53346.34
543.877	53827.62
544.077	53866.53
544.277	53577.76
544.478	53375.01
544.678	53794.85
544.878	53297.19
545.078	53622.82
545.279	53770.27
545.479	53225.51
545.679	53643.3
545.879	53399.59
546.079	53129.26
546.28	53569.57
546.48	52803.63
546.68	53448.74
546.88	53700.64
547.08	53323.82
547.28	53178.41
547.48	52709.43
547.68	53221.42
547.88	53016.62
548.081	53356.58
548.281	53555.24
548.481	53338.15
548.681	53635.11
548.881	53254.18
549.081	52875.31
549.28	52979.76
549.48	53364.78
549.68	53159.98
549.88	53958.69
550.08	52662.32
550.28	53030.96
550.48	53155.88
550.68	53532.71
550.88	52955.18
551.08	53094.44
551.279	53501.99
551.479	52856.88
551.679	53078.06
551.879	52627.51
552.079	53082.16
552.278	52906.03
552.478	53061.68
552.678	53137.45
552.878	53159.98
553.077	52965.42
553.277	52613.17
553.477	53002.28
553.676	52844.59
553.876	52723.76
554.076	52533.3
554.275	52596.79
554.475	52084.79
554.674	52543.54
554.874	52998.19
555.074	52633.65
555.273	52678.71
555.473	52631.6
555.672	52086.84
555.872	52375.61
556.071	52412.47
556.271	52721.71
556.47	52174.91
556.67	52172.86
556.869	51611.71
557.068	52332.6
557.268	52000.83
557.467	52123.71
557.667	52267.06
557.866	51902.53
558.065	51705.92
558.265	51705.92
558.464	51597.38
558.663	52107.32
558.863	51431.49
559.062	51984.44
559.261	51343.43
559.461	51902.53
559.66	51322.95
559.859	51449.92
560.058	51167.3
560.258	51675.2
560.457	51046.47
560.656	51349.57
560.855	51255.37
561.054	51683.39
561.253	50950.22
561.453	51032.14
561.652	51198.02
561.851	51673.15
562.05	50741.33
562.249	50702.42
562.448	50849.87
562.647	50499.67
562.846	50653.26
563.045	50290.77
563.244	50358.36
563.443	50915.4
563.642	49885.28
563.841	50380.88
564.04	50188.38
564.239	50741.33
564.438	49649.76
564.637	50557.01
564.836	49977.43
565.035	49502.31
565.234	49866.84
565.432	49309.8
565.631	49487.97
565.83	49807.45
566.029	49217.64
566.228	49422.44
566.427	49500.26
566.625	48865.39
566.824	48887.92
567.023	49514.59
567.222	48707.69
567.42	49170.54
567.619	48904.3
567.818	48521.33
568.016	48343.16
568.215	49074.28
568.414	48771.18
568.612	48621.68
568.811	47900.79
569.01	48519.28
569.208	47724.67
569.407	48093.3
569.605	47519.87
569.804	47933.56
570.002	47622.27
570.201	48040.06
570.4	47233.16
570.598	47374.47
570.797	47210.63
570.995	47319.17
571.193	46450.83
571.392	47319.17
571.59	46788.75
571.789	46755.98
571.987	46721.16
572.186	46608.53
572.384	46194.84
572.582	46295.19
572.781	46471.31
572.979	45883.55
573.177	46463.12
573.376	46108.82
573.574	45641.88
573.772	46178.45
573.971	46117.01
574.169	45473.95
574.367	45220
574.565	45613.21
574.763	45183.14
574.962	45138.08
575.16	44587.18
575.358	45017.25
575.556	44431.54
575.754	45625.5
575.952	44402.86
576.151	44873.9
576.349	44290.23
576.547	44091.57
576.745	44701.87
576.943	44294.32
577.141	44384.43
577.339	44593.32
577.537	44107.96
577.735	44062.9
577.933	43378.88
578.131	43841.72
578.329	43591.87
578.527	43237.57
578.725	43466.94
578.923	43475.13
579.121	42813.64
579.319	42762.44
579.516	43016.39
579.714	42899.65
579.912	42885.32
580.11	42608.84
580.308	42899.65
580.506	42451.15
580.704	42219.73
580.901	42213.59
581.099	42520.78
581.297	41842.9
581.495	41785.56
581.692	42109.14
581.89	41287.9
582.088	41765.08
582.285	41392.35
582.483	41638.11
582.681	41455.84
582.878	41324.77
583.076	41255.14
583.274	41162.98
583.471	40610.03
583.669	40401.13
583.866	40823.01
584.064	40892.65
584.262	40200.43
584.459	40605.93
584.657	40138.99
584.854	40468.72
585.052	39864.57
585.249	39911.67
585.447	39915.76
585.644	39723.26
585.841	39252.22
586.039	39966.96
586.236	39160.06
586.434	39602.43
586.631	39276.8
586.828	39172.35
587.026	39579.9
587.223	38877.44
587.42	38777.09
587.618	38828.29
587.815	38494.47
588.012	38351.12
588.21	38351.12
588.407	38529.29
588.604	38250.77
588.801	37601.56
588.999	38218
589.196	37927.19
589.393	37779.73
589.59	37552.41
589.787	37703.96
589.984	37857.56
590.182	37224.73
590.379	37816.6
590.576	36915.49
590.773	37153.05
590.97	36868.39
591.167	37095.71
591.364	36872.48
591.561	36671.78
591.758	36317.48
591.955	36499.75
592.152	36868.39
592.349	36454.7
592.546	36538.66
592.743	36387.11
592.94	35770.68
593.137	35916.08
593.334	35832.11
593.531	35154.24
593.727	35891.51
593.924	35793.2
594.121	35213.63
594.318	35232.06
594.515	34799.94
594.712	35203.39
594.908	35100.99
595.105	35262.78
595.302	34548.04
595.499	35012.93
595.696	34840.9
595.892	34347.34
596.089	34246.99
596.286	34687.3
596.482	34195.79
596.679	34029.9
596.876	34314.57
597.072	33859.92
597.269	33896.78
597.466	33382.74
597.662	33413.46
597.859	33544.53
598.055	33775.95
598.252	33284.44
598.448	33319.26
598.645	33196.38
598.841	32823.65
599.038	33149.28
599.234	32868.7
599.431	32176.49
599.627	32682.34
599.824	32622.95
600.02	32270.7
600.217	32561.51
600.413	32029.04
600.609	32151.91
600.806	32117.1
601.002	32063.85
601.198	31654.26
601.395	31406.45
601.591	31732.08
601.787	31766.9
601.984	31467.89
602.18	31654.26
602.376	31248.76
602.572	30919.04
602.769	30931.33
602.965	30904.7
603.161	31277.43
603.357	30898.56
603.553	30663.04
603.75	30783.87
603.946	30443.91
604.142	30624.13
604.338	29966.73
604.534	30595.46
604.73	30044.55
604.926	30087.56
605.122	30149
605.318	29708.69
605.514	29970.83
605.71	29741.46
605.906	29526.42
606.102	29831.57
606.298	29610.39
606.494	29249.94
606.69	29378.97
606.886	29546.9
607.082	29114.78
607.278	29057.43
607.474	28871.07
607.67	28909.98
607.866	28518.82
608.062	29102.49
608.257	28836.25
608.453	28723.62
608.649	28631.46
608.845	28537.25
609.041	28424.61
609.236	28590.5
609.432	28479.91
609.628	28481.95
609.824	28268.97
610.019	28250.53
610.215	28021.16
610.411	28393.89
610.606	27943.34
610.802	28107.18
610.998	28084.65
611.193	27730.35
611.389	27959.72
611.584	27617.71
611.78	27386.29
611.976	27748.78
612.171	27683.25
612.367	27802.03
612.562	27492.79
612.758	27212.21
612.953	27224.5
613.149	27668.91
613.344	26986.94
613.539	27523.51
613.735	27251.13
613.93	26939.83
614.126	26888.64
614.321	27328.95
614.517	27083.19
614.712	26622.4
614.907	26722.75
615.103	26773.95
615.298	26491.33
615.493	26982.84
615.688	26331.59
615.884	27105.72
616.079	26272.2
616.274	26532.29
616.47	26374.59
616.665	26481.09
616.86	26190.28
617.055	26108.36
617.25	26364.36
617.445	26374.59
617.641	26124.74
617.836	26468.8
618.031	25733.58
618.226	26231.24
618.421	25989.58
618.616	25975.24
618.811	25496.02
619.006	25807.31
619.201	25405.91
619.396	25479.63
619.591	24807.9
619.786	25254.36
619.981	24709.6
620.176	25084.37
620.371	24263.14
620.566	24832.47
620.761	24738.27
620.956	24828.38
621.151	24484.32
621.346	24644.06
621.541	24183.27
621.735	24345.06
621.93	23613.93
622.125	24121.83
622.32	23458.29
622.515	23726.57
622.709	23448.05
622.904	23493.1
623.099	23169.52
623.294	23374.32
623.488	22804.99
623.683	23056.89
623.878	22546.94
624.072	22882.81
624.267	22874.62
624.462	22604.28
624.656	22356.48
624.851	22360.58
625.046	22155.78
625.24	22018.57
625.435	21729.8
625.629	21737.99
625.824	21746.19
626.018	21627.4
626.213	21283.34
626.407	21324.3
626.602	21301.78
626.796	21361.17
626.991	21228.05
627.185	21045.78
627.38	20767.26
627.574	20726.3
627.768	20582.94
627.963	20249.12
628.157	20122.15
628.352	20574.75
628.546	20232.74
628.74	20058.66
628.935	19964.45
629.129	20007.46
629.323	19655.21
629.517	19784.23
629.712	19431.98
629.906	19575.34
630.1	19198.51
630.294	19282.48
630.489	19085.87
630.683	19130.93
630.877	18786.87
631.071	18745.91
631.265	19034.67
631.459	18750.01
631.653	18414.14
631.848	18477.63
632.042	18252.35
632.236	18727.48
632.43	18262.59
632.624	18152
632.818	17873.48
633.012	18002.5
633.206	18012.74
633.4	18014.79
633.594	17418.83
633.788	17601.1
633.982	17381.96
634.176	17508.94
634.369	17168.98
634.563	17449.55
634.757	17066.58
634.951	17052.24
635.145	17087.06
635.339	17027.67
635.533	16790.1
635.726	16630.36
635.92	16628.31
636.114	16636.5
636.308	16374.36
636.501	16407.13
636.695	16618.07
636.889	16075.36
637.083	16067.17
637.276	15911.52
637.47	15862.37
637.664	15905.38
637.857	15624.81
638.051	15807.08
638.244	15491.69
638.438	15413.87
638.632	15673.96
638.825	15426.15
639.019	15225.45
639.212	15086.19
639.406	15037.04
639.599	15110.77
639.793	15073.9
639.986	14635.64
640.18	15063.66
640.373	14643.83
640.567	14598.77
640.76	14594.68
640.954	14631.54
641.147	14498.42
641.34	14312.06
641.534	14369.4
641.727	13986.43
641.92	14076.54
642.114	13892.23
642.307	14189.18
642.5	13933.18
642.694	13466.25
642.887	13769.35
643.08	13744.77
643.273	13978.24
643.467	13740.68
643.66	13453.96
643.853	13363.85
644.046	13210.25
644.239	13052.56
644.432	13214.35
644.626	13292.17
644.819	13150.86
645.012	13068.94
645.205	13009.55
645.398	12952.21
645.591	12733.08
645.784	12722.84
645.977	12667.54
646.17	12710.55
646.363	12530.33
646.556	12470.94
646.749	12468.89
646.942	12348.06
647.135	12331.67
647.328	12178.08
647.521	12071.58
647.714	11778.72
647.907	11960.99
648.099	12208.8
648.292	11899.55
648.485	12067.49
648.678	11514.53
648.871	11750.05
649.064	11674.28
649.256	11721.38
649.449	11539.11
649.642	11489.96
649.835	11444.9
650.027	11262.63
650.22	11119.28
650.413	11231.91
650.605	11113.13
650.798	11162.28
650.991	10961.58
651.183	10953.39
651.376	10889.9
651.568	10959.53
651.761	10742.45
651.954	10822.32
652.146	10824.37
652.339	10853.04
652.531	10699.44
652.724	10570.42
652.916	10373.82
653.109	10556.08
653.301	10365.62
653.494	10441.4
653.686	10109.63
653.879	10189.5
654.071	10146.49
654.263	10011.32
654.456	10076.86
654.648	10035.9
654.84	9847.49
655.033	10064.57
655.225	9775.81
655.417	9808.58
655.61	9792.19
655.802	9790.14
655.994	9671.36
656.186	9710.27
656.379	9495.24
656.571	9683.65
656.763	9652.93
656.955	9476.8
657.148	9417.41
657.34	9433.8
657.532	9081.55
657.724	9310.92
657.916	9263.82
658.108	9124.55
658.3	8979.15
658.492	9042.64
658.684	8968.91
658.876	9003.72
659.068	8911.57
659.26	8921.81
659.452	8911.57
659.644	8745.68
659.836	8841.93
660.028	8733.39
660.22	8684.24
660.412	8573.65
660.604	8483.54
660.796	8555.22
660.988	8342.23
661.18	8483.54
661.372	8321.75
661.563	8465.11
661.755	8237.78
661.947	8198.87
662.139	8211.16
662.331	8198.87
662.522	7992.03
662.714	7979.74
662.906	8131.29
663.097	8006.36
663.289	7885.53
663.481	7811.81
663.673	7817.95
663.864	7789.28
664.056	7899.87
664.247	7697.12
664.439	7684.83
664.631	7621.35
664.822	7582.43
665.014	7695.07
665.205	7482.08
665.397	7477.99
665.588	7590.63
665.78	7432.93
665.971	7367.4
666.163	7527.14
666.354	7486.18
666.546	7240.42
666.737	7256.81
666.929	7250.66
667.12	7170.79
667.311	7070.44
667.503	7068.39
667.694	7178.98
667.885	6877.93
668.077	7097.07
668.268	6920.94
668.459	6925.04
668.651	6859.5
668.842	6765.29
669.033	6900.46
669.224	6769.39
669.416	6884.08
669.607	6687.47
669.798	6824.69
669.989	6875.88
670.18	6703.86
670.371	6681.33
670.563	6603.5
670.754	6623.98
670.945	6507.25
671.136	6607.6
671.327	6421.24
671.518	6411
671.709	6562.55
671.9	6411
672.091	6415.09
672.282	6462.19
672.473	6263.54
672.664	6380.28
672.855	6273.78
673.046	6370.04
673.237	6275.83
673.428	6318.84
673.619	6187.77
673.809	6062.84
674	6017.79
674.191	5991.16
674.382	6122.23
674.573	6107.9
674.764	6107.9
674.954	6073.08
675.145	6015.74
675.336	5880.57
675.527	5917.44
675.717	6064.89
675.908	5991.16
676.099	5966.59
676.289	5903.1
676.48	6003.45
676.671	5741.31
676.861	5903.1
677.052	5851.9
677.243	5671.68
677.433	5661.44
677.624	5761.79
677.814	5665.53
678.005	5636.86
678.195	5636.86
678.386	5751.55
678.576	5763.84
678.767	5544.7
678.957	5485.31
679.148	5647.1
679.338	5536.51
679.529	5526.27
679.719	5538.56
679.909	5645.06
680.1	5491.46
680.29	5567.23
680.481	5550.85
680.671	5450.5
680.861	5389.06
681.052	5583.62
681.242	5489.41
681.432	5458.69
681.622	5366.53
681.813	5333.76
682.003	5298.95
682.193	5298.95
682.383	5276.42
682.573	5210.89
682.764	5311.24
682.954	5233.41
683.144	5257.99
683.334	5231.37
683.524	5128.97
683.714	5128.97
683.904	5153.54
684.094	5182.21
684.284	5155.59
684.474	5069.58
684.664	5083.91
684.854	5098.25
685.044	5067.53
685.234	5171.97
685.424	4907.79
685.614	5028.62
685.804	5024.52
685.994	4975.37
686.184	5083.91
686.374	5102.34
686.564	4866.83
686.753	4879.11
686.943	4844.3
687.133	4838.16
687.323	4942.6
687.513	4854.54
687.702	4731.66
687.892	4823.82
688.082	4920.07
688.272	4782.86
688.461	4731.66
688.651	4649.74
688.841	4684.56
689.03	4705.04
689.22	4557.58
689.41	4600.59
689.599	4549.39
689.789	4401.94
689.979	4520.72
690.168	4494.1
690.358	4549.39
690.547	4369.17
690.737	4487.95
690.926	4354.83
691.116	4408.08
691.305	4444.95
691.495	4248.34
691.684	4363.03
691.874	4289.3
692.063	4260.63
692.252	4246.29
692.442	4248.34
692.631	4326.16
692.82	4311.83
693.01	4203.29
693.199	4227.86
693.388	4244.24
693.578	4053.78
693.767	4180.76
693.956	4258.58
694.146	4127.51
694.335	4127.51
694.524	3932.95
694.713	4145.94
694.902	4078.36
695.092	4059.93
695.281	4045.59
695.47	3918.62
695.659	4107.03
695.848	3930.91
696.037	3996.44
696.226	3975.96
696.415	4004.63
696.604	3945.24
696.793	3783.45
696.982	4012.82
697.171	4084.5
697.36	3883.8
697.549	3922.71
697.738	3814.17
697.927	3820.32
698.116	4059.93
698.305	3826.46
698.494	3750.68
698.683	3797.79
698.872	3812.12
699.061	3795.74
699.25	3732.25
699.438	3871.51
699.627	3789.6
699.816	3668.77
700.005	3703.58
700.193	3740.44
700.382	3785.5
700.571	3695.39
700.76	3566.37
700.948	3713.82
701.137	3748.64
701.326	3656.48
701.514	3617.57
701.703	3760.92
701.892	3599.13
702.08	3748.64
702.269	3549.98
702.457	3615.52
702.646	3609.37
702.834	3545.89
703.023	3568.41
703.212	3513.12
703.4	3506.98
703.589	3492.64
703.777	3615.52
703.965	3498.78
704.154	3613.47
704.342	3537.7
704.531	3535.65
704.719	3373.86
704.907	3488.54
705.096	3429.15
705.284	3420.96
705.472	3390.24
705.661	3457.82
705.849	3592.99
706.037	3457.82
706.226	3541.79
706.414	3451.68
706.602	3423.01
706.79	3502.88
706.979	3347.23
707.167	3486.5
707.355	3298.08
707.543	3287.84
707.731	3386.15
707.919	3320.61
708.107	3267.36
708.296	3238.69
708.484	3271.46
708.672	3261.22
708.86	3285.8
709.048	3277.6
709.236	3302.18
709.424	3306.27
709.612	3271.46
709.8	3234.6
709.988	3332.9
710.176	3228.45
710.364	3322.66
710.551	3210.02
710.739	3085.09
710.927	3193.64
711.115	3189.54
711.303	3144.49
711.491	3259.17
711.679	3236.64
711.866	3105.57
712.054	3107.62
712.242	3062.57
712.43	3257.12
712.617	3109.67
712.805	3119.91
712.993	3134.25
713.181	3111.72
713.368	3119.91
713.556	3134.25
713.744	2970.41
713.931	3128.1
714.119	3040.04
714.306	3025.7
714.494	3019.56
714.682	3091.24
714.869	3056.42
715.057	2900.78
715.244	2939.69
715.432	3015.46
715.619	3081
715.807	3117.86
715.994	3074.85
716.182	3076.9
716.369	2960.17
716.556	3083.05
716.744	2851.63
716.931	3009.32
717.119	2945.83
717.306	2913.06
717.493	3001.13
717.681	2990.89
717.868	2939.69
718.055	2874.15
718.242	2937.64
718.43	2951.98
718.617	2954.02
718.804	2845.48
718.991	2761.52
719.179	2931.5
719.366	2798.38
719.553	2902.83
719.74	2808.62
719.927	2804.52
720.114	2888.49
720.301	2810.67
720.488	2763.56
720.676	2767.66
720.863	2894.63
721.05	2945.83
721.237	2859.82
721.424	2802.47
721.611	2890.54
721.798	2904.87
721.985	2675.5
722.172	2794.28
722.358	2763.56
722.545	2763.56
722.732	2812.71
722.919	2743.08
723.106	2712.36
723.293	2743.08
723.48	2730.8
723.667	2485.04
723.853	2673.45
724.04	2759.47
724.227	2743.08
724.414	2704.17
724.6	2632.49
724.787	2749.23
724.974	2720.56
725.161	2720.56
725.347	2624.3
725.534	2634.54
725.72	2632.49
725.907	2683.69
726.094	2587.44
726.28	2624.3
726.467	2605.87
726.653	2593.58
726.84	2749.23
727.027	2640.69
727.213	2618.16
727.4	2628.4
727.586	2499.38
727.773	2550.57
727.959	2530.09
728.145	2564.91
728.332	2556.72
728.518	2415.41
728.705	2542.38
728.891	2476.85
729.077	2614.06
729.264	2509.62
729.45	2603.82
729.636	2538.29
729.823	2544.43
730.009	2544.43
730.195	2521.9
730.382	2593.58
730.568	2544.43
730.754	2587.44
730.94	2476.85
731.126	2587.44
731.313	2378.55
731.499	2493.23
731.685	2501.42
731.871	2513.71
732.057	2401.07
732.243	2327.35
732.429	2460.46
732.615	2356.02
732.801	2497.33
732.987	2544.43
733.173	2444.08
733.359	2566.96
733.545	2442.03
733.731	2270
733.917	2439.98
734.103	2478.9
734.289	2378.55
734.475	2380.59
734.661	2386.74
734.847	2315.06
735.033	2382.64
735.219	2384.69
735.404	2327.35
735.59	2364.21
735.776	2202.42
735.962	2466.61
736.148	2280.24
736.333	2345.78
736.519	2270
736.705	2470.7
736.89	2417.46
737.076	2274.1
737.262	2362.16
737.447	2343.73
737.633	2339.63
737.819	2233.14
738.004	2278.19
738.19	2175.8
738.375	2325.3
738.561	2278.19
738.747	2300.72
738.932	2194.23
739.118	2298.67
739.303	2257.71
739.489	2161.46
739.674	2200.37
739.859	2229.04
740.045	2169.65
740.23	2257.71
740.416	2114.36
740.601	2165.56
740.786	2089.78
740.972	2212.66
741.157	2112.31
741.342	2165.56
741.528	2220.85
741.713	2181.94
741.898	2028.34
742.084	2136.88
742.269	2143.03
742.454	2079.54
742.639	2188.08
742.824	2087.73
743.01	2040.63
743.195	2046.77
743.38	2077.49
743.565	2061.11
743.75	1966.9
743.935	2046.77
744.12	1971
744.305	2020.15
744.49	1915.7
744.675	1960.76
744.86	1962.81
745.045	1966.9
745.23	1954.62
745.415	2005.81
745.6	2061.11
745.785	1903.42
745.97	1895.22
746.155	1993.53
746.34	1862.46
746.525	1882.94
746.71	1852.22
746.895	1872.7
747.079	1915.7
747.264	1839.93
747.449	1870.65
747.634	1827.64
747.819	1794.87
748.003	1784.63
748.188	1721.15
748.373	1805.11
748.557	1807.16
748.742	1747.77
748.927	1715
749.111	1688.38
749.296	1633.08
749.481	1639.23
749.665	1661.76
749.85	1622.84
750.034	1733.43
750.219	1583.93
750.404	1665.85
750.588	1674.04
750.773	1588.03
750.957	1628.99
751.141	1676.09
751.326	1614.65
751.51	1512.25
751.695	1657.66
751.879	1606.46
752.064	1459.01
752.248	1551.17
752.432	1524.54
752.617	1651.52
752.801	1524.54
752.985	1553.21
753.17	1413.95
753.354	1504.06
753.538	1512.25
753.722	1528.64
753.907	1405.76
754.091	1434.43
754.275	1510.21
754.459	1407.81
754.643	1352.51
754.828	1495.87
755.012	1370.94
755.196	1323.84
755.38	1315.65
755.564	1407.81
755.748	1254.21
755.932	1332.03
756.116	1370.94
756.3	1321.79
756.484	1348.42
756.668	1329.99
756.852	1243.97
757.036	1364.8
757.22	1184.58
757.404	1200.96
757.588	1272.64
757.772	1309.51
757.956	1280.83
758.14	1336.13
758.323	1162.05
758.507	1243.97
758.691	1203.01
758.875	1276.74
759.059	1223.49
759.242	1174.34
759.426	1119.04
759.61	1198.92
759.794	1192.77
759.977	1098.56
760.161	1162.05
760.345	1164.1
760.528	1127.24
760.712	1078.08
760.895	1088.32
761.079	1049.41
761.263	1141.57
761.446	1049.41
761.63	1129.28
761.813	1186.63
761.997	1114.95
762.18	1063.75
762.364	1108.8
762.547	969.54
762.731	1051.46
762.914	1071.94
763.098	953.16
763.281	1094.47
763.464	965.45
763.648	1080.13
763.831	985.93
764.015	998.21
764.198	987.97
764.381	957.25
764.564	1030.98
764.748	1088.32
764.931	973.64
765.114	977.73
765.297	1010.5
765.481	981.83
765.664	930.63
765.847	938.82
766.03	990.02
766.213	981.83
766.397	1006.41
766.58	967.49
766.763	934.73
766.946	867.14
767.129	912.2
767.312	865.1
767.495	873.29
767.678	1051.46
767.861	916.3
768.044	897.86
768.227	897.86
768.41	910.15
768.593	951.11
768.776	820.04
768.959	850.76
769.142	908.1
769.324	908.1
769.507	861
769.69	885.58
769.873	865.1
770.056	893.77
770.239	820.04
770.421	844.62
770.604	867.14
770.787	879.43
770.97	914.25
771.152	873.29
771.335	840.52
771.518	797.51
771.7	936.78
771.883	885.58
772.066	729.93
772.248	844.62
772.431	850.76
772.613	846.66
772.796	729.93
772.978	754.51
773.161	817.99
773.343	744.27
773.526	756.55
773.708	777.03
773.891	633.68
774.073	809.8
774.256	719.69
774.438	844.62
774.621	740.17
774.803	731.98
774.985	664.4
775.168	760.65
775.35	697.16
775.532	693.07
775.715	719.69
775.897	772.94
776.079	674.64
776.261	742.22
776.444	779.08
776.626	682.83
776.808	705.35
776.99	725.83
777.173	672.59
777.355	633.68
777.537	668.49
777.719	717.64
777.901	631.63
778.083	553.8
778.265	664.4
778.447	590.67
778.629	580.43
778.811	658.25
778.993	607.05
779.175	617.29
779.357	635.72
779.539	613.2
779.721	578.38
779.903	590.67
780.085	617.29
780.267	582.48
780.449	508.75
780.631	562
780.812	609.1
780.994	621.39
781.176	584.52
781.358	578.38
781.54	623.44
781.721	590.67
781.903	635.72
782.085	502.61
782.267	510.8
782.448	529.23
782.63	430.93
782.812	551.76
782.993	592.72
783.175	447.31
783.357	480.08
783.538	559.95
783.72	488.27
783.901	541.52
784.083	525.13
784.264	467.79
784.446	449.36
784.627	443.21
784.809	562
784.99	512.85
785.172	512.85
785.353	492.37
785.535	523.09
785.716	461.65
785.897	424.78
786.079	494.41
786.26	402.26
786.441	494.41
786.623	336.72
786.804	447.31
786.985	459.6
787.167	551.76
787.348	383.82
787.529	392.02
787.71	432.97
787.891	408.4
788.073	480.08
788.254	316.24
788.435	424.78
788.616	369.49
788.797	414.54
788.978	453.45
789.159	398.16
789.34	447.31
789.522	404.3
789.703	392.02
789.884	394.06
790.065	367.44
790.246	435.02
790.427	346.96
790.607	392.02
790.788	361.3
790.969	402.26
791.15	346.96
791.331	351.06
791.512	422.73
791.693	400.21
791.874	346.96
792.054	422.73
792.235	301.9
792.416	334.67
792.597	324.43
792.778	371.54
792.958	365.39
793.139	265.04
793.32	310.1
793.5	318.29
793.681	375.63
793.862	246.61
794.042	314.19
794.223	314.19
794.404	289.62
794.584	338.77
794.765	355.15
794.945	308.05
795.126	344.91
795.306	322.38
795.487	349.01
795.667	326.48
795.848	299.86
796.028	320.34
796.209	297.81
796.389	340.82
796.57	310.1
796.75	250.71
796.93	226.13
797.111	160.59
797.291	273.23
797.471	320.34
797.652	238.42
797.832	277.33
798.012	291.66
798.192	306
798.373	185.17
798.553	248.66
798.733	295.76
798.913	273.23
799.093	222.03
799.274	201.55
799.454	273.23
799.634	306
799.814	283.47
799.994	197.46
800.174	219.99
800.354	244.56
800.534	248.66
800.714	297.81
800.894	203.6
801.074	308.05
801.254	215.89
801.434	252.75
801.614	236.37
801.794	189.27
801.974	598.86
802.154	228.18
802.334	297.81
802.514	269.14
802.693	250.71
802.873	209.75
803.053	295.76
803.233	285.52
803.413	222.03
803.592	185.17
803.772	158.55
803.952	224.08
804.131	234.32
804.311	228.18
804.491	316.24
804.67	215.89
804.85	172.88
805.03	215.89
805.209	176.98
805.389	260.95
805.568	252.75
805.748	154.45
805.928	250.71
806.107	166.74
806.287	176.98
806.466	166.74
806.646	234.32
806.825	168.79
807.004	254.8
807.184	230.23
807.363	207.7
807.543	224.08
807.722	250.71
807.901	154.45
808.081	285.52
808.26	191.31
808.439	97.11
808.619	189.27
808.798	168.79
808.977	203.6
809.156	232.27
809.336	211.79
809.515	230.23
809.694	232.27
809.873	203.6
810.052	150.36
810.231	170.83
810.411	176.98
810.59	140.12
810.769	146.26
810.948	181.07
811.127	213.84
811.306	183.12
811.485	191.31
811.664	224.08
811.843	138.07
812.022	217.94
812.201	176.98
812.38	179.03
812.559	179.03
812.737	158.55
812.916	187.22
813.095	181.07
813.274	164.69
813.453	170.83
813.632	131.92
813.811	185.17
813.989	164.69
814.168	86.87
814.347	125.78
814.526	193.36
814.704	168.79
814.883	93.01
815.062	95.06
815.24	148.31
815.419	170.83
815.598	146.26
815.776	103.25
815.955	80.72
816.133	109.4
816.312	176.98
816.49	107.35
816.669	207.7
816.847	228.18
817.026	166.74
817.204	97.11
817.383	146.26
817.561	47.96
817.74	140.12
817.918	207.7
818.097	123.73
818.275	183.12
818.453	101.2
818.632	133.97
818.81	88.92
818.988	64.34
819.167	68.44
819.345	136.02
819.523	109.4
819.701	142.16
819.879	115.54
820.058	160.59
820.236	158.55
820.414	152.4
820.592	109.4
820.77	107.35
820.948	27.48
821.127	117.59
821.305	97.11
821.483	109.4
821.661	95.06
821.839	93.01
822.017	133.97
822.195	111.44
822.373	111.44
822.551	148.31
822.729	99.16
822.907	162.64
823.085	211.79
823.262	127.83
823.44	72.53
823.618	138.07
823.796	138.07
823.974	93.01
824.152	21.33
824.329	80.72
824.507	103.25
824.685	166.74
824.863	99.16
825.04	162.64
825.218	99.16
825.396	142.16
825.574	111.44
825.751	168.79
825.929	129.88
826.107	72.53
826.284	88.92
826.462	138.07
826.639	95.06
826.817	121.68
826.994	88.92
827.172	127.83
827.349	113.49
827.527	107.35
827.704	97.11
827.882	62.29
828.059	148.31
828.237	113.49
828.414	93.01
828.591	74.58
828.769	99.16
828.946	181.07
829.124	142.16
829.301	168.79
829.478	88.92
829.655	74.58
829.833	160.59
830.01	13.14
830.187	90.96
830.364	60.24
830.542	181.07
830.719	131.92
830.896	54.1
831.073	162.64
831.25	82.77
831.427	72.53
831.604	76.63
831.782	80.72
831.959	189.27
832.136	162.64
832.313	154.45
832.49	31.57
832.667	-9.39
832.844	86.87
833.021	101.2
833.198	105.3
833.374	82.77
833.551	166.74
833.728	164.69
833.905	90.96
834.082	78.68
834.259	66.39
834.436	174.93
834.612	109.4
834.789	133.97
834.966	74.58
835.143	115.54
835.319	72.53
835.496	-9.39
835.673	41.81
835.85	78.68
836.026	37.72
836.203	105.3
836.38	101.2
836.556	76.63
836.733	33.62
836.909	90.96
837.086	21.33
837.262	15.19
837.439	119.64
837.616	29.52
837.792	54.1
837.968	123.73
838.145	66.39
838.321	33.62
838.498	62.29
838.674	101.2
838.851	54.1
839.027	39.76
839.203	58.2
839.38	76.63
839.556	27.48
839.732	25.43
839.909	113.49
840.085	105.3
840.261	66.39
840.437	99.16
840.614	56.15
840.79	131.92
840.966	29.52
841.142	58.2
841.318	70.48
841.494	101.2
841.671	68.44
841.847	60.24
842.023	138.07
842.199	33.62
842.375	64.34
842.551	74.58
842.727	17.24
842.903	95.06
843.079	54.1
843.255	90.96
843.431	11.09
843.607	113.49
843.783	-7.34
843.959	80.72
844.134	117.59
844.31	80.72
844.486	21.33
844.662	99.16
844.838	68.44
845.013	35.67
845.189	86.87
845.365	37.72
845.541	60.24
845.716	93.01
845.892	127.83
846.068	64.34
846.244	-1.19
846.419	129.88
846.595	-31.91
846.77	64.34
846.946	103.25
847.122	105.3
847.297	13.14
847.473	35.67
847.648	64.34
847.824	13.14
847.999	25.43
848.175	109.4
848.35	66.39
848.526	97.11
848.701	86.87
848.876	127.83
849.052	84.82
849.227	144.21
849.403	4.95
849.578	0.85
849.753	78.68
849.929	70.48
850.104	-44.2
850.279	62.29
850.454	78.68
850.63	95.06
850.805	13.14
850.98	37.72
851.155	37.72
851.33	52.05
851.505	-15.53
851.681	58.2
851.856	2.9
852.031	17.24
852.206	-1.19
852.381	84.82
852.556	52.05
852.731	97.11
852.906	47.96
853.081	21.33
853.256	111.44
853.431	72.53
853.606	19.29
853.781	31.57
853.956	11.09
854.131	19.29
854.305	64.34
854.48	64.34
854.655	68.44
854.83	95.06
855.005	127.83
855.18	111.44
855.354	29.52
855.529	27.48
855.704	-5.29
855.879	74.58
856.053	7
856.228	-7.34
856.403	37.72
856.577	33.62
856.752	15.19
856.926	76.63
857.101	33.62
857.276	43.86
857.45	17.24
857.625	35.67
857.799	19.29
857.974	33.62
858.148	-42.15
858.323	86.87
858.497	60.24
858.672	-76.97
858.846	19.29
859.02	45.91
859.195	-7.34
859.369	50
859.543	66.39
859.718	23.38
859.892	35.67
860.066	21.33
860.241	31.57
860.415	80.72
860.589	66.39
860.763	45.91
860.938	11.09
861.112	4.95
861.286	15.19
861.46	23.38
861.634	47.96
861.808	37.72
861.982	41.81
862.157	82.77
862.331	13.14
862.505	78.68
862.679	-23.72
862.853	78.68
863.027	9.05
863.201	50
863.375	35.67
863.549	93.01
863.722	39.76
863.896	37.72
864.07	21.33
864.244	-1.19
864.418	-42.15
864.592	19.29
864.766	54.1
864.939	19.29
865.113	27.48
865.287	107.35
865.461	27.48
865.634	82.77
865.808	78.68
865.982	64.34
866.156	31.57
866.329	4.95
866.503	2.9
866.676	80.72
866.85	29.52
867.024	68.44
867.197	62.29
867.371	54.1
867.544	15.19
867.718	4.95
867.891	29.52
868.065	27.48
868.238	33.62
868.412	62.29
868.585	23.38
868.759	56.15
868.932	4.95
869.105	21.33
869.279	90.96
869.452	7
869.625	-29.87
869.799	95.06
869.972	19.29
870.145	68.44
870.319	107.35
870.492	15.19
870.665	56.15
870.838	-7.34
871.011	-1.19
871.185	35.67
871.358	37.72
871.531	45.91
871.704	0.85
871.877	31.57
872.05	56.15
872.223	13.14
872.396	62.29
872.569	29.52
872.742	35.67
872.915	11.09
873.088	21.33
873.261	15.19
873.434	23.38
873.607	68.44
873.78	56.15
873.953	43.86
874.126	-5.29
874.299	43.86
874.471	78.68
874.644	-5.29
874.817	-21.67
874.99	47.96
875.163	-21.67
875.335	66.39
875.508	21.33
875.681	72.53
875.853	-31.91
876.026	-13.48
876.199	4.95
876.371	-15.53
876.544	68.44
876.717	43.86
876.889	-1.19
877.062	62.29
877.234	11.09
877.407	21.33
877.579	33.62
877.752	54.1
877.924	-7.34
878.097	60.24
878.269	19.29
878.442	-15.53
878.614	25.43
878.786	19.29
878.959	21.33
879.131	15.19
879.303	-40.11
879.476	70.48
879.648	45.91
879.82	-9.39
879.993	72.53
880.165	68.44
880.337	-1.19
880.509	29.52
880.681	11.09
880.854	62.29
881.026	-7.34
881.198	80.72
881.37	-3.24
881.542	56.15
881.714	-17.58
881.886	37.72
882.058	37.72
882.23	-46.25
882.402	0.85
882.574	17.24
882.746	43.86
882.918	56.15
883.09	99.16
883.262	-54.44
883.434	58.2
883.606	7
883.778	-29.87
883.95	82.77
884.122	-9.39
884.293	70.48
884.465	7
884.637	43.86
884.809	-7.34
884.98	2.9
885.152	56.15
885.324	37.72
885.496	-68.78
885.667	-5.29
885.839	-19.63
886.011	72.53
886.182	33.62
886.354	-17.58
886.525	0.85
886.697	17.24
886.869	21.33
887.04	50
887.212	66.39
887.383	80.72
887.555	19.29
887.726	-13.48
887.897	0.85
888.069	35.67
888.24	43.86
888.412	-21.67
888.583	27.48
888.754	56.15
888.926	-17.58
889.097	-13.48
889.268	23.38
889.44	88.92
889.611	11.09
889.782	13.14
889.953	-13.48
890.125	33.62
890.296	9.05
890.467	50
890.638	45.91
890.809	17.24
890.98	-48.3
891.151	7
891.323	-9.39
891.494	90.96
891.665	-50.35
891.836	0.85
892.007	7
892.178	-5.29
892.349	54.1
892.52	47.96
892.691	90.96
892.862	68.44
893.032	21.33
893.203	70.48
893.374	7
893.545	41.81
893.716	-31.91
893.887	72.53
894.057	-3.24
894.228	-29.87
894.399	-3.24
894.57	78.68
894.74	9.05
894.911	21.33
895.082	-5.29
895.253	-3.24
895.423	-11.43
895.594	21.33
895.764	19.29
895.935	2.9
896.106	37.72
896.276	41.81
896.447	-7.34
896.617	15.19
896.788	37.72
896.958	111.44
897.129	21.33
897.299	15.19
897.47	25.43
897.64	-3.24
897.81	2.9
897.981	4.95
898.151	-1.19
898.322	-7.34
898.492	66.39
898.662	-72.87
898.832	-1.19
899.003	88.92
899.173	86.87
899.343	-7.34
899.513	-23.72
