Data from USB4F104151__0__12-34-44-623.txt Node

Date: Fri Mar 14 12:34:44 EDT 2025
User: louis
Spectrometer: USB4F10415
Trigger mode: 4
Integration Time (sec): 2.000000E-2
Scans to average: 1
Electric dark correction enabled: true
Nonlinearity correction enabled: false
Boxcar width: 0
XAxis mode: Wavelengths
Number of Pixels in Spectrum: 3648
>>>>>Begin Spectral Data<<<<<
178.204	-29.18
178.424	-29.18
178.644	-29.18
178.864	-127.49
179.084	-61.95
179.304	-64
179.524	-55.81
179.744	-41.47
179.964	58.88
180.184	-68.09
180.404	48.64
180.624	9.73
180.844	1.54
181.064	-10.75
181.283	91.65
181.503	54.78
181.723	-25.09
181.943	9.73
182.163	87.55
182.383	-16.9
182.602	65.02
182.822	11.78
183.042	69.12
183.262	-61.95
183.482	19.97
183.701	1.54
183.921	40.45
184.141	-31.23
184.361	15.87
184.58	-10.75
184.8	69.12
185.02	-20.99
185.239	-2.56
185.459	1.54
185.679	-49.66
185.898	38.4
186.118	7.68
186.338	24.06
186.557	11.78
186.777	19.97
186.997	15.87
187.216	5.63
187.436	3.58
187.655	-20.99
187.875	36.35
188.095	11.78
188.314	67.07
188.534	67.07
188.753	-14.85
188.973	1.54
189.192	58.88
189.412	-37.38
189.631	22.02
189.851	15.87
190.07	-4.61
190.29	-47.62
190.509	62.98
190.729	15.87
190.948	11.78
191.168	95.74
191.387	46.59
191.607	50.69
191.826	11.78
192.045	-16.9
192.265	9.73
192.484	22.02
192.704	38.4
192.923	22.02
193.142	97.79
193.362	44.54
193.581	93.69
193.8	5.63
194.02	22.02
194.239	32.26
194.458	56.83
194.678	1.54
194.897	13.82
195.116	-31.23
195.335	-2.56
195.555	15.87
195.774	26.11
195.993	42.5
196.212	-8.7
196.432	52.74
196.651	1.54
196.87	42.5
197.089	87.55
197.308	-23.04
197.528	75.26
197.747	-29.18
197.966	26.11
198.185	-2.56
198.404	-20.99
198.623	-2.56
198.842	-55.81
199.062	9.73
199.281	-0.51
199.5	-59.9
199.719	97.79
199.938	73.21
200.157	42.5
200.376	13.82
200.595	-4.61
200.814	30.21
201.033	1.54
201.252	1.54
201.471	40.45
201.69	83.45
201.909	42.5
202.128	52.74
202.347	11.78
202.566	-12.8
202.785	-8.7
203.004	-6.66
203.223	118.27
203.442	7.68
203.661	5.63
203.879	-27.14
204.098	24.06
204.317	40.45
204.536	75.26
204.755	-55.81
204.974	1.54
205.193	50.69
205.411	40.45
205.63	-10.75
205.849	38.4
206.068	65.02
206.287	44.54
206.505	24.06
206.724	-0.51
206.943	67.07
207.162	-23.04
207.381	-2.56
207.599	5.63
207.818	22.02
208.037	-47.62
208.255	-55.81
208.474	-23.04
208.693	34.3
208.911	-53.76
209.13	28.16
209.349	87.55
209.567	-16.9
209.786	-35.33
210.005	54.78
210.223	36.35
210.442	-23.04
210.661	-29.18
210.879	-35.33
211.098	-18.94
211.316	22.02
211.535	3.58
211.753	5.63
211.972	67.07
212.191	24.06
212.409	30.21
212.628	-0.51
212.846	-35.33
213.065	-49.66
213.283	85.5
213.502	-10.75
213.72	-20.99
213.938	-8.7
214.157	22.02
214.375	34.3
214.594	1.54
214.812	48.64
215.031	50.69
215.249	5.63
215.467	67.07
215.686	3.58
215.904	79.36
216.122	30.21
216.341	28.16
216.559	32.26
216.778	38.4
216.996	48.64
217.214	101.89
217.432	-12.8
217.651	44.54
217.869	1.54
218.087	17.92
218.306	26.11
218.524	101.89
218.742	-61.95
218.96	34.3
219.179	-18.94
219.397	73.21
219.615	77.31
219.833	99.84
220.051	-2.56
220.27	38.4
220.488	38.4
220.706	-31.23
220.924	19.97
221.142	-35.33
221.36	-45.57
221.578	-16.9
221.796	83.45
222.015	-2.56
222.233	22.02
222.451	-8.7
222.669	15.87
222.887	52.74
223.105	15.87
223.323	-23.04
223.541	54.78
223.759	-55.81
223.977	3.58
224.195	22.02
224.413	65.02
224.631	46.59
224.849	15.87
225.067	26.11
225.285	40.45
225.503	56.83
225.721	-31.23
225.939	-2.56
226.157	-0.51
226.375	67.07
226.592	-74.24
226.81	-41.47
227.028	69.12
227.246	81.41
227.464	-33.28
227.682	-12.8
227.9	50.69
228.117	67.07
228.335	48.64
228.553	9.73
228.771	-12.8
228.989	17.92
229.206	56.83
229.424	69.12
229.642	-6.66
229.86	-29.18
230.077	34.3
230.295	40.45
230.513	22.02
230.731	-39.42
230.948	48.64
231.166	40.45
231.384	1.54
231.601	36.35
231.819	-10.75
232.037	44.54
232.254	-0.51
232.472	91.65
232.689	44.54
232.907	-20.99
233.125	19.97
233.342	-66.05
233.56	9.73
233.777	32.26
233.995	15.87
234.213	9.73
234.43	-2.56
234.648	91.65
234.865	19.97
235.083	44.54
235.3	32.26
235.518	28.16
235.735	30.21
235.953	56.83
236.17	42.5
236.388	-4.61
236.605	-2.56
236.822	62.98
237.04	9.73
237.257	-49.66
237.475	-16.9
237.692	-64
237.909	32.26
238.127	77.31
238.344	1.54
238.562	22.02
238.779	46.59
238.996	-6.66
239.214	9.73
239.431	17.92
239.648	52.74
239.865	89.6
240.083	71.17
240.3	87.55
240.517	19.97
240.735	52.74
240.952	52.74
241.169	28.16
241.386	32.26
241.603	26.11
241.821	19.97
242.038	32.26
242.255	22.02
242.472	-0.51
242.689	-2.56
242.907	38.4
243.124	30.21
243.341	-25.09
243.558	-45.57
243.775	-2.56
243.992	7.68
244.209	50.69
244.426	22.02
244.643	38.4
244.86	44.54
245.078	65.02
245.295	5.63
245.512	83.45
245.729	38.4
245.946	22.02
246.163	95.74
246.38	7.68
246.597	32.26
246.814	34.3
247.031	-16.9
247.248	-16.9
247.464	62.98
247.681	-66.05
247.898	7.68
248.115	9.73
248.332	13.82
248.549	26.11
248.766	50.69
248.983	75.26
249.2	13.82
249.417	58.88
249.633	28.16
249.85	56.83
250.067	42.5
250.284	11.78
250.501	15.87
250.717	67.07
250.934	42.5
251.151	-10.75
251.368	1.54
251.585	73.21
251.801	50.69
252.018	30.21
252.235	44.54
252.451	-23.04
252.668	87.55
252.885	-35.33
253.102	52.74
253.318	15.87
253.535	9.73
253.752	-2.56
253.968	54.78
254.185	-0.51
254.401	46.59
254.618	24.06
254.835	40.45
255.051	42.5
255.268	-20.99
255.484	56.83
255.701	116.22
255.917	105.98
256.134	67.07
256.351	13.82
256.567	9.73
256.784	130.56
257	-47.62
257.217	67.07
257.433	44.54
257.65	34.3
257.866	69.12
258.082	36.35
258.299	11.78
258.515	13.82
258.732	81.41
258.948	42.5
259.165	-37.38
259.381	56.83
259.597	-16.9
259.814	26.11
260.03	-6.66
260.246	81.41
260.463	11.78
260.679	46.59
260.895	40.45
261.112	60.93
261.328	56.83
261.544	36.35
261.761	120.32
261.977	-29.18
262.193	-31.23
262.409	32.26
262.626	38.4
262.842	11.78
263.058	-4.61
263.274	65.02
263.49	-51.71
263.707	13.82
263.923	-0.51
264.139	-41.47
264.355	-12.8
264.571	77.31
264.787	-2.56
265.004	24.06
265.22	91.65
265.436	24.06
265.652	54.78
265.868	13.82
266.084	-57.86
266.3	-12.8
266.516	65.02
266.732	17.92
266.948	-10.75
267.164	-29.18
267.38	36.35
267.596	75.26
267.812	19.97
268.028	48.64
268.244	1.54
268.46	32.26
268.676	28.16
268.892	75.26
269.108	-23.04
269.324	5.63
269.54	24.06
269.756	40.45
269.972	32.26
270.188	13.82
270.403	-51.71
270.619	36.35
270.835	26.11
271.051	130.56
271.267	13.82
271.483	56.83
271.698	75.26
271.914	44.54
272.13	7.68
272.346	73.21
272.562	97.79
272.777	40.45
272.993	-4.61
273.209	5.63
273.425	122.37
273.64	36.35
273.856	-4.61
274.072	-0.51
274.287	3.58
274.503	-6.66
274.719	75.26
274.934	7.68
275.15	24.06
275.366	1.54
275.581	-4.61
275.797	93.69
276.012	11.78
276.228	-33.28
276.444	-2.56
276.659	83.45
276.875	34.3
277.09	52.74
277.306	9.73
277.521	28.16
277.737	26.11
277.952	73.21
278.168	34.3
278.383	60.93
278.599	71.17
278.814	81.41
279.03	5.63
279.245	26.11
279.461	-18.94
279.676	17.92
279.892	-4.61
280.107	62.98
280.322	-6.66
280.538	60.93
280.753	36.35
280.969	-37.38
281.184	-2.56
281.399	71.17
281.615	67.07
281.83	69.12
282.045	-57.86
282.26	56.83
282.476	7.68
282.691	58.88
282.906	114.17
283.122	48.64
283.337	1.54
283.552	50.69
283.767	-12.8
283.983	-12.8
284.198	-12.8
284.413	81.41
284.628	-2.56
284.843	122.37
285.058	77.31
285.274	-14.85
285.489	9.73
285.704	15.87
285.919	26.11
286.134	40.45
286.349	46.59
286.564	24.06
286.779	138.75
286.995	9.73
287.21	-2.56
287.425	38.4
287.64	40.45
287.855	-12.8
288.07	28.16
288.285	17.92
288.5	34.3
288.715	15.87
288.93	44.54
289.145	-10.75
289.36	62.98
289.575	48.64
289.79	83.45
290.004	11.78
290.219	54.78
290.434	-37.38
290.649	38.4
290.864	13.82
291.079	26.11
291.294	65.02
291.509	-12.8
291.724	54.78
291.938	-2.56
292.153	22.02
292.368	69.12
292.583	42.5
292.798	54.78
293.012	22.02
293.227	73.21
293.442	56.83
293.657	11.78
293.871	48.64
294.086	52.74
294.301	79.36
294.516	13.82
294.73	22.02
294.945	44.54
295.16	-23.04
295.374	9.73
295.589	7.68
295.804	-31.23
296.018	99.84
296.233	60.93
296.447	3.58
296.662	3.58
296.877	-12.8
297.091	9.73
297.306	-0.51
297.52	-6.66
297.735	75.26
297.949	93.69
298.164	95.74
298.378	40.45
298.593	77.31
298.807	-4.61
299.022	40.45
299.236	77.31
299.451	32.26
299.665	-27.14
299.88	30.21
300.094	19.97
300.309	1.54
300.523	38.4
300.737	-23.04
300.952	17.92
301.166	50.69
301.381	-23.04
301.595	44.54
301.809	13.82
302.024	9.73
302.238	-0.51
302.452	11.78
302.667	9.73
302.881	124.41
303.095	60.93
303.309	24.06
303.524	-16.9
303.738	5.63
303.952	-35.33
304.166	40.45
304.381	34.3
304.595	50.69
304.809	36.35
305.023	79.36
305.237	-12.8
305.452	17.92
305.666	56.83
305.88	-0.51
306.094	73.21
306.308	28.16
306.522	32.26
306.736	79.36
306.95	-29.18
307.164	81.41
307.379	1.54
307.593	95.74
307.807	71.17
308.021	-2.56
308.235	46.59
308.449	110.08
308.663	-14.85
308.877	138.75
309.091	-6.66
309.305	42.5
309.519	17.92
309.733	1.54
309.947	24.06
310.161	79.36
310.374	-6.66
310.588	-29.18
310.802	44.54
311.016	1.54
311.23	-16.9
311.444	36.35
311.658	11.78
311.872	81.41
312.085	-25.09
312.299	11.78
312.513	1.54
312.727	85.5
312.941	36.35
313.154	9.73
313.368	69.12
313.582	9.73
313.796	36.35
314.009	-41.47
314.223	28.16
314.437	3.58
314.651	69.12
314.864	17.92
315.078	-2.56
315.292	15.87
315.505	-10.75
315.719	56.83
315.933	19.97
316.146	-29.18
316.36	3.58
316.573	103.93
316.787	73.21
317.001	30.21
317.214	5.63
317.428	9.73
317.641	-29.18
317.855	-2.56
318.068	69.12
318.282	65.02
318.495	44.54
318.709	-8.7
318.922	44.54
319.136	42.5
319.349	-0.51
319.563	124.41
319.776	11.78
319.99	67.07
320.203	67.07
320.417	-4.61
320.63	-68.09
320.843	73.21
321.057	30.21
321.27	19.97
321.483	-8.7
321.697	17.92
321.91	67.07
322.124	1.54
322.337	34.3
322.55	40.45
322.763	38.4
322.977	17.92
323.19	44.54
323.403	19.97
323.617	44.54
323.83	58.88
324.043	26.11
324.256	24.06
324.469	-49.66
324.683	-4.61
324.896	42.5
325.109	13.82
325.322	62.98
325.535	48.64
325.748	101.89
325.962	-16.9
326.175	28.16
326.388	54.78
326.601	13.82
326.814	48.64
327.027	60.93
327.24	15.87
327.453	9.73
327.666	71.17
327.879	60.93
328.092	67.07
328.305	9.73
328.518	-86.53
328.731	5.63
328.944	52.74
329.157	71.17
329.37	9.73
329.583	15.87
329.796	69.12
330.009	-43.52
330.222	34.3
330.435	38.4
330.648	-0.51
330.861	73.21
331.073	54.78
331.286	7.68
331.499	48.64
331.712	-37.38
331.925	58.88
332.138	67.07
332.35	9.73
332.563	69.12
332.776	124.41
332.989	-16.9
333.202	28.16
333.414	67.07
333.627	-12.8
333.84	19.97
334.053	58.88
334.265	24.06
334.478	75.26
334.691	-31.23
334.903	-10.75
335.116	-0.51
335.329	1.54
335.541	30.21
335.754	103.93
335.966	30.21
336.179	17.92
336.392	36.35
336.604	22.02
336.817	-35.33
337.029	19.97
337.242	105.98
337.454	22.02
337.667	11.78
337.88	87.55
338.092	22.02
338.305	46.59
338.517	-37.38
338.729	126.46
338.942	56.83
339.154	77.31
339.367	24.06
339.579	67.07
339.792	5.63
340.004	89.6
340.217	17.92
340.429	30.21
340.641	22.02
340.854	-8.7
341.066	73.21
341.278	-2.56
341.491	58.88
341.703	17.92
341.915	-6.66
342.128	36.35
342.34	-6.66
342.552	46.59
342.764	46.59
342.977	48.64
343.189	11.78
343.401	79.36
343.613	-47.62
343.826	34.3
344.038	75.26
344.25	36.35
344.462	36.35
344.674	11.78
344.886	22.02
345.099	22.02
345.311	75.26
345.523	42.5
345.735	-41.47
345.947	77.31
346.159	11.78
346.371	32.26
346.583	-10.75
346.795	87.55
347.007	65.02
347.219	71.17
347.431	15.87
347.643	48.64
347.855	-29.18
348.067	108.03
348.279	-45.57
348.491	19.97
348.703	32.26
348.915	116.22
349.127	-12.8
349.339	65.02
349.551	56.83
349.763	95.74
349.975	-8.7
350.187	110.08
350.399	40.45
350.61	34.3
350.822	-66.05
351.034	89.6
351.246	97.79
351.458	44.54
351.669	-8.7
351.881	36.35
352.093	67.07
352.305	24.06
352.517	15.87
352.728	54.78
352.94	22.02
353.152	62.98
353.363	56.83
353.575	44.54
353.787	87.55
353.999	42.5
354.21	114.17
354.422	-35.33
354.633	73.21
354.845	3.58
355.057	3.58
355.268	17.92
355.48	30.21
355.692	15.87
355.903	13.82
356.115	85.5
356.326	30.21
356.538	101.89
356.749	40.45
356.961	3.58
357.172	1.54
357.384	22.02
357.595	103.93
357.807	62.98
358.018	-0.51
358.23	83.45
358.441	140.8
358.653	52.74
358.864	75.26
359.075	56.83
359.287	-10.75
359.498	7.68
359.709	52.74
359.921	28.16
360.132	28.16
360.344	58.88
360.555	60.93
360.766	75.26
360.977	79.36
361.189	67.07
361.4	52.74
361.611	58.88
361.823	-4.61
362.034	56.83
362.245	-12.8
362.456	30.21
362.667	15.87
362.879	81.41
363.09	54.78
363.301	36.35
363.512	-16.9
363.723	15.87
363.935	56.83
364.146	-2.56
364.357	-2.56
364.568	36.35
364.779	-4.61
364.99	83.45
365.201	32.26
365.412	95.74
365.623	-33.28
365.834	91.65
366.045	62.98
366.256	50.69
366.467	-23.04
366.678	81.41
366.889	-18.94
367.1	11.78
367.311	52.74
367.522	24.06
367.733	79.36
367.944	103.93
368.155	105.98
368.366	83.45
368.577	83.45
368.788	103.93
368.999	1.54
369.209	108.03
369.42	79.36
369.631	108.03
369.842	-0.51
370.053	7.68
370.264	22.02
370.474	42.5
370.685	3.58
370.896	34.3
371.107	60.93
371.317	9.73
371.528	69.12
371.739	118.27
371.95	36.35
372.16	7.68
372.371	28.16
372.582	58.88
372.792	85.5
373.003	60.93
373.214	28.16
373.424	38.4
373.635	26.11
373.846	73.21
374.056	50.69
374.267	52.74
374.477	32.26
374.688	65.02
374.898	34.3
375.109	9.73
375.319	46.59
375.53	-25.09
375.74	36.35
375.951	7.68
376.161	-39.42
376.372	120.32
376.582	58.88
376.793	67.07
377.003	38.4
377.214	-33.28
377.424	112.13
377.635	44.54
377.845	-0.51
378.055	69.12
378.266	11.78
378.476	60.93
378.686	32.26
378.897	60.93
379.107	54.78
379.317	28.16
379.528	52.74
379.738	112.13
379.948	52.74
380.158	3.58
380.369	-0.51
380.579	44.54
380.789	30.21
380.999	15.87
381.21	13.82
381.42	118.27
381.63	-18.94
381.84	56.83
382.05	15.87
382.261	-8.7
382.471	52.74
382.681	40.45
382.891	103.93
383.101	9.73
383.311	-8.7
383.521	17.92
383.731	77.31
383.941	124.41
384.151	26.11
384.361	1.54
384.571	71.17
384.781	-47.62
384.991	85.5
385.201	103.93
385.411	118.27
385.621	58.88
385.831	54.78
386.041	13.82
386.251	17.92
386.461	126.46
386.671	38.4
386.881	50.69
387.091	17.92
387.301	19.97
387.511	52.74
387.72	46.59
387.93	110.08
388.14	52.74
388.35	7.68
388.56	75.26
388.769	97.79
388.979	108.03
389.189	30.21
389.399	62.98
389.609	15.87
389.818	146.94
390.028	42.5
390.238	38.4
390.447	60.93
390.657	-25.09
390.867	67.07
391.076	85.5
391.286	85.5
391.496	46.59
391.705	67.07
391.915	91.65
392.125	42.5
392.334	15.87
392.544	60.93
392.753	77.31
392.963	40.45
393.172	99.84
393.382	52.74
393.591	134.65
393.801	54.78
394.01	99.84
394.22	118.27
394.429	69.12
394.639	46.59
394.848	75.26
395.058	30.21
395.267	69.12
395.477	11.78
395.686	120.32
395.895	140.8
396.105	151.04
396.314	93.69
396.524	17.92
396.733	116.22
396.942	69.12
397.152	93.69
397.361	144.89
397.57	26.11
397.78	73.21
397.989	99.84
398.198	71.17
398.407	87.55
398.617	46.59
398.826	128.51
399.035	79.36
399.244	87.55
399.453	157.18
399.663	91.65
399.872	114.17
400.081	108.03
400.29	5.63
400.499	128.51
400.708	153.09
400.917	114.17
401.127	99.84
401.336	136.7
401.545	77.31
401.754	75.26
401.963	110.08
402.172	32.26
402.381	36.35
402.59	105.98
402.799	151.04
403.008	65.02
403.217	103.93
403.426	81.41
403.635	116.22
403.844	165.37
404.053	101.89
404.262	77.31
404.471	128.51
404.68	52.74
404.888	142.85
405.097	120.32
405.306	171.52
405.515	91.65
405.724	118.27
405.933	222.72
406.142	165.37
406.35	169.47
406.559	140.8
406.768	196.09
406.977	132.61
407.185	165.37
407.394	194.05
407.603	126.46
407.812	222.72
408.02	202.24
408.229	177.66
408.438	185.85
408.646	206.33
408.855	239.1
409.064	269.82
409.272	253.44
409.481	208.38
409.69	245.24
409.898	361.98
410.107	275.96
410.315	327.16
410.524	341.5
410.733	337.4
410.941	253.44
411.15	265.72
411.358	318.97
411.567	347.64
411.775	284.16
411.984	339.45
412.192	378.36
412.401	267.77
412.609	388.6
412.818	462.33
413.026	392.7
413.234	402.94
413.443	474.62
413.651	460.28
413.86	482.81
414.068	577.02
414.276	570.87
414.485	570.87
414.693	538.1
414.901	642.55
415.11	648.69
415.318	634.36
415.526	624.12
415.734	761.33
415.943	728.56
416.151	753.14
416.359	839.16
416.567	849.4
416.776	857.59
416.984	896.5
417.192	851.44
417.4	871.92
417.608	884.21
417.817	925.17
418.025	1011.18
418.233	1009.14
418.441	994.8
418.649	1080.82
418.857	1123.82
419.065	1148.4
419.273	1205.74
419.481	1205.74
419.689	1342.96
419.897	1381.87
420.105	1357.29
420.313	1437.16
420.521	1416.68
420.729	1498.6
420.937	1625.58
421.145	1521.13
421.353	1617.38
421.561	1801.7
421.769	1840.61
421.977	1859.04
422.185	1934.82
422.393	1953.25
422.601	2086.37
422.809	2137.57
423.017	2149.86
423.224	2178.53
423.432	2354.65
423.64	2262.49
423.848	2477.53
424.056	2438.62
424.263	2604.5
424.471	2608.6
424.679	2633.18
424.887	2780.63
425.094	2872.79
425.302	2848.21
425.51	3007.95
425.718	3118.54
425.925	3159.5
426.133	3218.89
426.341	3372.49
426.548	3478.99
426.756	3524.04
426.964	3511.75
427.171	3825.09
427.379	3933.64
427.586	4120
427.794	4128.19
428.001	4232.64
428.209	4521.4
428.417	4410.81
428.624	4709.82
428.832	4826.55
429.039	4668.86
429.247	4734.39
429.454	5023.16
429.662	5389.74
429.869	5158.32
430.076	5610.92
430.284	5359.02
430.491	5500.33
430.699	5854.63
430.906	5887.4
431.114	6012.32
431.321	6143.39
431.528	6383.01
431.736	6694.3
431.943	6911.38
432.15	6585.76
432.358	6835.61
432.565	7409.04
432.772	7269.78
432.979	7560.59
433.187	7642.51
433.394	7705.99
433.601	8394.11
433.808	8404.35
434.016	8265.09
434.223	8508.8
434.43	9282.93
434.637	8867.19
434.844	9577.84
435.052	9616.75
435.259	9702.76
435.466	9889.13
435.673	9645.42
435.88	10313.06
436.087	11013.46
436.294	10888.54
436.501	10452.32
436.708	10771.8
436.915	11226.45
437.122	11459.92
437.329	11621.71
437.537	12150.09
437.743	12016.97
437.95	12289.35
438.157	13026.62
438.364	13241.65
438.571	13206.84
438.778	13071.67
438.985	14265.64
439.192	14081.32
439.399	14300.45
439.606	14001.45
439.813	14933.28
440.02	15803.66
440.227	15375.64
440.433	15500.56
440.64	15742.22
440.847	15662.35
441.054	16045.32
441.261	17483
441.467	16954.62
441.674	17347.83
441.881	18048.24
442.088	17888.5
442.294	17988.85
442.501	18167.02
442.708	18580.71
442.914	19092.7
443.121	20022.48
443.328	19578.07
443.534	21177.53
443.741	20268.23
443.948	19881.17
444.154	21505.21
444.361	21230.78
444.568	21427.39
444.774	21255.36
444.981	22025.39
445.187	22447.27
445.394	23612.57
445.6	23174.3
445.807	25640.06
446.013	24190.09
446.22	24974.47
446.426	25803.89
446.633	25889.91
446.839	26807.4
447.046	25846.9
447.252	26924.13
447.459	27300.96
447.665	27061.35
447.871	28478.54
448.078	29977.65
448.284	28163.15
448.491	28771.4
448.697	30334
448.903	30700.59
449.11	30790.7
449.316	30180.4
449.522	30839.85
449.728	31794.2
449.935	31419.42
450.141	31759.39
450.347	32644.11
450.553	31560.73
450.76	31820.83
450.966	33104.9
451.172	32717.84
451.378	33313.8
451.584	32582.67
451.791	33838.08
451.997	33414.15
452.203	34044.92
452.409	34417.65
452.615	33809.4
452.821	32873.48
453.027	32549.9
453.233	34360.31
453.44	32803.85
453.646	33225.73
453.852	33473.54
454.058	34024.44
454.264	32865.29
454.47	33397.76
454.676	32359.44
454.882	33815.55
455.088	31210.53
455.294	31470.62
455.5	31466.53
455.705	32123.93
455.911	31075.37
456.117	30209.08
456.323	30002.23
456.529	27970.65
456.735	29713.47
456.941	28933.19
457.147	28341.33
457.352	27481.18
457.558	27116.64
457.764	27319.39
457.97	27092.07
458.176	26264.69
458.381	26399.85
458.587	24988.8
458.793	25005.19
458.999	23540.89
459.204	25277.57
459.41	24505.48
459.616	23084.19
459.821	22955.17
460.027	22989.99
460.233	22373.55
460.438	21281.98
460.644	21603.51
460.85	20450.5
461.055	20241.61
461.261	20176.08
461.466	18713.83
461.672	18312.42
461.878	19244.25
462.083	18115.82
462.289	18144.49
462.494	17575.16
462.7	16606.47
462.905	16534.79
463.111	16831.74
463.316	17003.77
463.522	16678.15
463.727	16696.58
463.932	16737.54
464.138	16454.92
464.343	16780.54
464.549	16086.28
464.754	16463.11
464.959	16225.54
465.165	16327.94
465.37	15654.16
465.575	15209.75
465.781	15926.54
465.986	15721.74
466.191	15451.41
466.397	15162.65
466.602	14363.94
466.807	14929.18
467.012	15009.05
467.218	14970.14
467.423	14605.6
467.628	14767.39
467.833	15443.22
468.038	14667.04
468.244	14402.85
468.449	14902.56
468.654	14417.19
468.859	14347.56
469.064	14320.93
469.269	13755.69
469.474	13856.04
469.679	13866.28
469.885	13710.64
470.09	14050.6
470.295	13542.71
470.5	13557.04
470.705	13425.97
470.91	13239.61
471.115	12938.55
471.32	13438.26
471.525	13116.73
471.73	12731.71
471.935	12936.51
472.139	12313.92
472.344	12469.57
472.549	12270.92
472.754	12424.51
472.959	12145.99
473.164	11777.36
473.369	11689.29
473.574	12223.81
473.778	11861.32
473.983	11672.91
474.188	11732.3
474.393	11339.09
474.598	11296.08
474.802	10943.83
475.007	11169.11
475.212	10941.79
475.417	10700.12
475.621	10804.57
475.826	10683.74
476.031	10427.74
476.235	10233.19
476.44	10440.03
476.645	10263.91
476.849	10456.42
477.054	10265.96
477.259	10091.88
477.463	9952.62
477.668	9680.24
477.872	9768.3
478.077	9551.21
478.282	9274.74
478.486	9457.01
478.691	9411.95
478.895	9493.87
479.1	9264.5
479.304	9229.68
479.509	8867.19
479.713	9055.61
479.918	8840.57
480.122	8942.97
480.326	9108.85
480.531	8996.21
480.735	8842.62
480.94	8695.16
481.144	8932.73
481.348	8648.06
481.553	8371.58
481.757	8435.07
481.961	8531.33
482.166	8641.92
482.37	8869.24
482.574	8433.02
482.778	8578.43
482.983	8680.83
483.187	8564.09
483.391	8568.19
483.595	8435.07
483.8	8291.71
484.004	8492.41
484.208	8572.29
484.412	8496.51
484.616	8506.75
484.821	8433.02
485.025	8398.21
485.229	8516.99
485.433	8592.76
485.637	8465.79
485.841	8224.13
486.045	8555.9
486.249	8490.37
486.453	8539.52
486.657	8535.42
486.861	8586.62
487.065	8365.44
487.269	8584.57
487.473	8113.54
487.677	8584.57
487.881	8537.47
488.085	8347.01
488.289	8342.91
488.493	8387.97
488.697	8428.93
488.901	8451.46
489.105	8566.14
489.309	8553.85
489.512	8527.23
489.716	8410.5
489.92	8605.05
490.124	8680.83
490.328	8535.42
490.531	8705.4
490.735	8805.75
490.939	8668.54
491.143	8598.91
491.346	8705.4
491.55	8666.49
491.754	8775.03
491.958	8930.68
492.161	8785.27
492.365	8885.62
492.569	8768.89
492.772	8947.06
492.976	8926.58
493.18	9022.84
493.383	9127.28
493.587	9295.22
493.79	9094.52
493.994	9096.57
494.197	9223.54
494.401	9418.1
494.605	9188.72
494.808	9514.35
495.012	9477.49
495.215	9442.67
495.419	9608.56
495.622	9686.38
495.825	9786.73
496.029	9678.19
496.232	9934.18
496.436	9862.51
496.639	10046.82
496.843	9962.86
497.046	10337.63
497.249	10528.1
497.453	10364.26
497.656	10610.01
497.859	10460.51
498.063	10517.86
498.266	10962.26
498.469	10761.56
498.673	11138.39
498.876	10923.35
499.079	11158.87
499.282	11124.05
499.485	11322.71
499.689	11576.66
499.892	11638.09
500.095	11713.87
500.298	12031.3
500.501	12041.54
500.705	12135.75
500.908	12309.83
501.111	12504.39
501.314	12629.31
501.517	12690.75
501.72	12813.63
501.923	12731.71
502.126	13202.74
502.329	13559.09
502.532	13704.49
502.735	13620.53
502.938	13579.57
503.141	13751.6
503.344	14167.34
503.547	13940.01
503.75	14120.23
503.953	14638.37
504.156	14538.02
504.359	14724.38
504.562	14828.83
504.765	15150.36
504.968	15297.81
505.17	15469.84
505.373	15459.6
505.576	15838.48
505.779	15807.76
505.982	16045.32
506.185	16217.35
506.387	16416.01
506.59	16686.34
506.793	16862.46
506.996	16868.61
507.198	17134.84
507.401	17261.82
507.604	17343.74
507.807	17841.39
508.009	17757.43
508.212	18044.14
508.415	18459.88
508.617	18324.71
508.82	18549.99
509.022	18599.14
509.225	18951.39
509.428	19102.94
509.63	19447
509.833	19524.82
510.035	19903.7
510.238	19999.95
510.44	19977.42
510.643	20348.11
510.845	20344.01
511.048	20493.51
511.25	20847.81
511.453	21169.34
511.655	22097.07
511.858	21499.06
512.06	21943.47
512.262	21836.98
512.465	22076.59
512.667	22420.65
512.87	22703.27
513.072	22760.61
513.274	23196.83
513.477	23280.8
513.679	23397.53
513.881	23813.27
514.084	24147.09
514.286	24147.09
514.488	24390.8
514.69	24974.47
514.893	24777.86
515.095	25146.5
515.297	25500.79
515.499	25201.79
515.701	25726.07
515.904	26059.89
516.106	25986.16
516.308	26406
516.51	26774.63
516.712	26776.68
516.914	27452.51
517.116	27567.2
517.318	27753.56
517.52	27917.4
517.722	27935.83
517.925	28408.91
518.127	28585.04
518.329	29047.88
518.531	28920.9
518.733	29463.61
518.935	29776.95
519.136	29994.04
519.338	30121.01
519.54	30532.65
519.742	30985.26
519.944	31030.31
520.146	31433.76
520.348	31370.27
520.55	31804.44
520.752	31804.44
520.954	31978.52
521.155	32168.98
521.357	32656.4
521.559	32822.28
521.761	33338.37
521.963	33156.1
522.164	33408
522.366	33881.08
522.568	33993.72
522.77	34417.65
522.971	35099.62
523.173	34456.56
523.375	34892.78
523.576	34927.6
523.778	35210.21
523.98	35511.27
524.181	35886.04
524.383	35707.87
524.584	36197.34
524.786	36197.34
524.988	36348.89
525.189	36490.2
525.391	36899.79
525.592	36969.42
525.794	36998.09
525.995	37329.86
526.197	37600.19
526.398	37399.49
526.6	37698.5
526.801	38126.52
527.003	37802.94
527.204	38269.88
527.406	38765.49
527.607	38591.41
527.808	38779.82
528.01	38525.88
528.211	38480.82
528.412	39238.57
528.614	38984.62
528.815	39148.46
529.016	39273.38
529.218	39279.53
529.419	39547.81
529.62	39652.26
529.822	39539.62
530.023	39527.33
530.224	39584.68
530.425	39603.11
530.626	39572.39
530.828	39584.68
531.029	40508.31
531.23	39666.59
531.431	40199.07
531.632	39738.27
531.833	40186.78
532.035	40469.4
532.236	40407.96
532.437	40414.1
532.638	40391.58
532.839	40246.17
533.04	40635.28
533.241	39947.17
533.442	40827.79
533.643	40909.71
533.844	40672.15
534.045	40694.68
534.246	40371.1
534.447	41016.21
534.648	40522.65
534.849	40608.66
535.05	40463.25
535.251	40745.87
535.451	40543.13
535.652	40655.76
535.853	40506.26
536.054	40614.8
536.255	40903.57
536.456	40330.14
536.657	40940.43
536.857	40479.64
537.058	40739.73
537.259	40962.96
537.46	40698.77
537.66	40602.52
537.861	40883.09
538.062	40246.17
538.263	40805.27
538.463	40489.88
538.664	40375.19
538.865	40516.5
539.065	40711.06
539.266	40256.41
539.466	40907.66
539.667	40342.42
539.868	40807.31
540.068	40311.7
540.269	40954.77
540.469	40489.88
540.67	40612.76
540.87	40682.39
541.071	40448.92
541.271	40496.02
541.472	40471.45
541.672	40463.25
541.873	40500.12
542.073	39891.87
542.274	40905.62
542.474	40379.29
542.675	39752.61
542.875	40823.7
543.075	40418.2
543.276	39613.35
543.476	40586.13
543.676	40397.72
543.877	40496.02
544.077	40805.27
544.277	40397.72
544.478	40219.55
544.678	40670.1
544.878	40323.99
545.078	40315.8
545.279	39949.21
545.479	40010.65
545.679	40410.01
545.879	40414.1
546.079	40317.85
546.28	40387.48
546.48	39967.65
546.68	40221.59
546.88	40444.82
547.08	40383.38
547.28	40158.11
547.48	39953.31
547.68	40233.88
547.88	40098.72
548.081	40270.75
548.281	40221.59
548.481	40156.06
548.681	40242.07
548.881	40229.79
549.081	39785.38
549.28	39701.41
549.48	40450.97
549.68	40289.18
549.88	40276.89
550.08	40211.35
550.28	39951.26
550.48	40137.63
550.68	40287.13
550.88	39738.27
551.08	40176.54
551.279	40080.28
551.479	40010.65
551.679	40135.58
551.879	39975.84
552.079	40119.2
552.278	40227.74
552.478	39908.26
552.678	40246.17
552.878	40094.62
553.077	40291.23
553.277	39525.28
553.477	40119.2
553.676	40010.65
553.876	39932.83
554.076	39580.58
554.275	39631.78
554.475	39406.5
554.674	39795.62
554.874	40008.61
555.074	39644.07
555.273	39758.75
555.473	40164.25
555.672	39586.72
555.872	39699.36
556.071	39584.68
556.271	39803.81
556.47	39281.58
556.67	39330.73
556.869	39658.4
557.068	39244.71
557.268	39418.79
557.467	39363.5
557.667	39672.74
557.866	39646.12
558.065	39213.99
558.265	39052.2
558.464	39146.41
558.663	39308.2
558.863	38921.13
559.062	39629.73
559.261	38562.74
559.461	39439.27
559.66	38779.82
559.859	39064.49
560.058	38329.27
560.258	38904.75
560.457	38374.33
560.656	38859.7
560.855	38294.46
561.054	38869.93
561.253	38767.54
561.453	38718.39
561.652	38923.18
561.851	38806.45
562.05	38230.97
562.249	38239.16
562.448	38306.74
562.647	38499.25
562.846	38335.42
563.045	38491.06
563.244	37354.44
563.443	38349.75
563.642	37338.05
563.841	37804.99
564.04	37594.05
564.239	38034.36
564.438	37659.59
564.637	37780.42
564.836	37862.33
565.035	37243.85
565.234	37692.35
565.432	37153.74
565.631	37272.52
565.83	37520.32
566.029	36807.63
566.228	37151.69
566.427	37104.59
566.625	36895.69
566.824	36545.49
567.023	36514.77
567.222	36377.56
567.42	36613.07
567.619	36373.46
567.818	36035.55
568.016	36654.03
568.215	36496.34
568.414	35773.41
568.612	36473.81
568.811	35886.04
569.01	36352.98
569.208	35568.61
569.407	35826.65
569.605	35429.35
569.804	35668.96
570.002	35329
570.201	35634.14
570.4	35683.3
570.598	34524.15
570.797	35136.49
570.995	35245.03
571.193	34452.47
571.392	35216.36
571.59	34540.53
571.789	34694.13
571.987	34632.69
572.186	34524.15
572.384	34307.06
572.582	34518
572.781	34153.46
572.979	33823.74
573.177	34049.02
573.376	34524.15
573.574	33866.75
573.772	34051.06
573.971	33774.59
574.169	33805.31
574.367	33491.97
574.565	33436.67
574.763	33545.22
574.962	33047.56
575.16	32951.31
575.358	33467.39
575.556	32603.15
575.754	33094.66
575.952	32504.85
576.151	32949.26
576.349	32277.52
576.547	32472.08
576.745	32500.75
576.943	32445.46
577.141	32345.11
577.339	32506.9
577.537	32224.28
577.735	31994.9
577.933	32056.34
578.131	31697.95
578.329	31620.13
578.527	31497.25
578.725	31462.43
578.923	31806.49
579.121	31431.71
579.319	31263.78
579.516	31200.29
579.714	31376.42
579.912	31022.12
580.11	30845.99
580.308	31231.01
580.506	31073.32
580.704	30487.6
580.901	30831.66
581.099	30686.25
581.297	30305.33
581.495	30372.91
581.692	30499.89
581.89	30280.75
582.088	30415.92
582.285	30311.47
582.483	30278.71
582.681	30030.9
582.878	30075.96
583.076	29584.44
583.274	29772.86
583.471	29475.9
583.669	29752.38
583.866	29140.04
584.064	29539.39
584.262	29320.26
584.459	29494.33
584.657	28828.74
584.854	29230.15
585.052	28757.07
585.249	29103.17
585.447	29035.59
585.644	28509.26
585.841	28466.25
586.039	28900.42
586.236	28118.1
586.434	28294.22
586.631	28165.2
586.828	28294.22
587.026	28226.64
587.223	28062.8
587.42	28054.61
587.618	27860.05
587.815	27380.83
588.012	27778.14
588.21	27712.6
588.407	27759.7
588.604	27448.41
588.801	27120.74
588.999	27372.64
589.196	27085.92
589.393	27278.43
589.59	27044.96
589.787	26715.24
589.984	26926.18
590.182	26733.67
590.379	27300.96
590.576	26592.36
590.773	26369.13
590.97	26397.81
591.167	26487.92
591.364	26166.38
591.561	26506.35
591.758	26037.36
591.955	26004.6
592.152	26188.91
592.349	25963.64
592.546	26072.18
592.743	25926.77
592.94	25619.58
593.137	25758.84
593.334	25846.9
593.531	25367.68
593.727	25767.03
593.924	25633.91
594.121	25021.57
594.318	25420.92
594.515	24990.85
594.712	25230.46
594.908	24892.55
595.105	24835.21
595.302	24693.9
595.499	25052.29
595.696	24620.17
595.892	24456.33
596.089	24972.42
596.286	24554.63
596.482	24501.39
596.679	24390.8
596.876	24206.48
597.072	24001.68
597.269	24626.31
597.466	23905.43
597.662	23823.51
597.859	24024.21
598.055	24046.74
598.252	23497.88
598.448	23766.17
598.645	23557.27
598.841	23372.96
599.038	23641.24
599.234	23336.09
599.431	23227.55
599.627	23178.4
599.824	23458.97
600.02	23076
600.217	23266.46
600.413	22760.61
600.609	22817.96
600.806	22285.48
601.002	22897.83
601.198	22637.73
601.395	22490.28
601.591	22504.62
601.787	22545.58
601.984	22428.84
602.18	22701.22
602.376	22279.34
602.572	22168.75
602.769	22097.07
602.965	22090.93
603.161	22107.31
603.357	21724.34
603.553	21847.22
603.75	21683.38
603.946	21509.3
604.142	21826.74
604.338	21470.39
604.534	21494.97
604.73	21458.1
604.926	21361.85
605.122	21372.09
605.318	21068.99
605.514	21275.84
605.71	21038.27
605.906	21075.13
606.102	20917.44
606.298	20958.4
606.494	20874.43
606.69	21134.53
606.886	21017.79
607.082	20401.35
607.278	20733.12
607.474	20372.68
607.67	20755.65
607.866	20309.19
608.062	20743.36
608.257	20257.99
608.453	20376.78
608.649	20341.96
608.845	19811.54
609.041	20049.1
609.236	20344.01
609.432	19963.09
609.628	20059.34
609.824	20110.54
610.019	19719.38
610.215	19862.74
610.411	19856.59
610.606	19786.96
610.802	19926.22
610.998	19553.49
611.193	19746
611.389	19717.33
611.584	19684.56
611.78	19496.15
611.976	19567.83
612.171	19475.67
612.367	19367.13
612.562	19160.28
612.758	19014.88
612.953	19125.47
613.149	19385.56
613.344	18588.9
613.539	19141.85
613.735	19137.76
613.93	18816.22
614.126	18828.51
614.321	19311.83
614.517	18715.87
614.712	18805.99
614.907	18693.35
615.103	18883.81
615.298	18701.54
615.493	18889.95
615.688	18533.61
615.884	18885.86
616.079	18388.2
616.274	18724.07
616.47	18644.2
616.665	18562.28
616.86	18337
617.055	18406.63
617.25	18093.29
617.445	18298.09
617.641	17870.06
617.836	18154.73
618.031	17868.02
618.226	18230.51
618.421	17837.3
618.616	17949.93
618.811	17706.23
619.006	17845.49
619.201	17560.82
619.396	17747.19
619.591	17304.82
619.786	17290.49
619.981	17220.86
620.176	17386.74
620.371	16981.24
620.566	17120.51
620.761	17005.82
620.956	17124.6
621.151	16856.32
621.346	16678.15
621.541	16733.44
621.735	16782.59
621.93	16481.54
622.125	16375.05
622.32	16231.69
622.515	16239.88
622.709	16166.15
622.904	16166.15
623.099	16053.52
623.294	16092.43
623.488	15879.44
623.683	15879.44
623.878	15766.8
624.072	15674.64
624.267	15572.24
624.462	15281.43
624.656	15082.78
624.851	15289.62
625.046	15299.86
625.24	15197.46
625.435	14920.99
625.629	15072.54
625.824	15140.12
626.018	14986.52
626.213	14671.14
626.407	14552.35
626.602	14372.13
626.796	14699.81
626.991	14513.44
627.185	14355.75
627.38	14411.04
627.574	14132.52
627.768	13980.97
627.963	13968.68
628.157	13802.8
628.352	13968.68
628.546	13573.42
628.74	13653.3
628.935	13794.61
629.129	13432.12
629.323	13471.03
629.517	13468.98
629.712	13421.88
629.906	13245.75
630.1	13155.64
630.294	13163.83
630.489	13149.5
630.683	13061.43
630.877	12668.22
631.071	12942.65
631.265	12991.8
631.459	12719.42
631.653	12633.41
631.848	12668.22
632.042	12496.19
632.236	12522.82
632.43	12373.32
632.624	12385.6
632.818	12307.78
633.012	11898.19
633.206	12129.61
633.4	12066.12
633.594	11806.03
633.788	12016.97
633.982	11945.29
634.176	11963.72
634.369	11629.9
634.563	11912.52
634.757	11474.26
634.951	11332.95
635.145	11509.07
635.339	11582.8
635.533	11410.77
635.726	11310.42
635.92	11015.51
636.114	11113.81
636.308	11167.06
636.501	10995.03
636.695	10884.44
636.889	11191.64
637.083	10904.92
637.276	10681.69
637.47	10655.07
637.664	10763.61
637.857	10937.69
638.051	10509.66
638.244	10437.98
638.438	10501.47
638.632	10536.29
638.825	10046.82
639.019	10360.16
639.212	10177.89
639.406	10110.31
639.599	10167.65
639.793	10161.51
639.986	9950.57
640.18	10026.34
640.373	10020.2
640.567	9770.35
640.76	9778.54
640.954	9688.43
641.147	9620.85
641.34	9473.39
641.534	9600.37
641.727	9481.58
641.92	9364.85
642.114	9325.94
642.307	9377.14
642.5	9217.4
642.694	9035.13
642.887	8975.74
643.08	9106.81
643.273	8969.59
643.467	9049.46
643.66	8758.65
643.853	8682.88
644.046	8621.44
644.239	8723.83
644.432	8717.69
644.626	8596.86
644.819	8566.14
645.012	8576.38
645.205	8635.77
645.398	8684.92
645.591	8336.77
645.784	8437.12
645.977	8045.96
646.17	8357.25
646.363	8342.91
646.556	8177.03
646.749	8107.4
646.942	8220.03
647.135	7976.33
647.328	8105.35
647.521	7818.63
647.714	7726.47
647.907	7806.34
648.099	7986.57
648.292	7810.44
648.485	7816.58
648.678	7425.42
648.871	7562.64
649.064	7464.33
649.256	7619.98
649.449	7536.01
649.642	7437.71
649.835	7400.85
650.027	7443.85
650.22	7378.32
650.413	7402.9
650.605	7329.17
650.798	7136.66
650.991	7183.76
651.183	7456.14
651.376	7067.03
651.568	7128.47
651.761	6987.16
651.954	7032.21
652.146	7107.99
652.339	6995.35
652.531	6899.09
652.724	6851.99
652.916	6804.89
653.109	6768.02
653.301	6780.31
653.494	6659.48
653.686	6540.7
653.879	6794.65
654.071	6636.95
654.263	6458.78
654.456	6653.34
654.648	6759.83
654.84	6331.81
655.033	6520.22
655.225	6225.31
655.417	6446.49
655.61	6327.71
655.802	6333.86
655.994	6151.59
656.186	6274.46
656.379	6190.5
656.571	6073.76
656.763	6026.66
656.955	6141.35
657.148	6213.03
657.34	6000.04
657.532	5901.73
657.724	5850.53
657.916	5981.6
658.108	6028.71
658.3	5828.01
658.492	5772.71
658.684	5698.99
658.876	5750.18
659.068	5785
659.26	5750.18
659.452	5807.53
659.644	5588.39
659.836	5592.49
660.028	5682.6
660.22	5461.42
660.412	5451.18
660.604	5602.73
660.796	5463.47
660.988	5529
661.18	5531.05
661.372	5250.48
661.563	5393.84
661.755	5338.54
661.947	5348.78
662.139	5285.3
662.331	5184.94
662.522	5293.49
662.714	5066.16
662.906	5258.67
663.097	5176.75
663.289	5037.49
663.481	4965.81
663.673	5078.45
663.864	4931
664.056	4840.89
664.247	5184.94
664.439	4898.23
664.631	4890.04
664.822	4783.54
665.014	4969.91
665.205	4767.16
665.397	4769.21
665.588	4718.01
665.78	4804.02
665.971	4804.02
666.163	4783.54
666.354	4808.12
666.546	4656.57
666.737	4662.71
666.929	4560.31
667.12	4695.48
667.311	4746.68
667.503	4584.89
667.694	4732.34
667.885	4468.16
668.077	4519.36
668.268	4611.51
668.459	4556.22
668.651	4345.28
668.842	4378.05
669.033	4345.28
669.224	4332.99
669.416	4392.38
669.607	4361.66
669.798	4416.96
669.989	4373.95
670.18	4359.61
670.371	4193.73
670.563	4292.03
670.754	4222.4
670.945	4271.55
671.136	4257.22
671.327	4187.58
671.518	4148.67
671.709	4185.54
671.9	4115.91
672.091	4269.5
672.282	4107.71
672.473	4214.21
672.664	4195.78
672.855	3988.93
673.046	4001.22
673.237	4029.89
673.428	4056.51
673.619	4072.9
673.809	3993.03
674	3966.4
674.191	4056.51
674.382	3982.79
674.573	3818.95
674.764	3923.4
674.954	3988.93
675.145	3950.02
675.336	3876.29
675.527	3866.05
675.717	3745.22
675.908	3775.94
676.099	3784.13
676.289	3814.85
676.48	3704.26
676.671	3786.18
676.861	3857.86
677.052	3724.74
677.243	3763.65
677.433	3708.36
677.624	3816.9
677.814	3653.06
678.005	3722.7
678.195	3696.07
678.386	3716.55
678.576	3560.91
678.767	3710.41
678.957	3667.4
679.148	3700.17
679.338	3777.99
679.529	3712.46
679.719	3601.87
679.909	3562.95
680.1	3581.39
680.29	3573.19
680.481	3597.77
680.671	3653.06
680.861	3616.2
681.052	3696.07
681.242	3499.47
681.432	3515.85
681.622	3589.58
681.813	3591.63
682.003	3581.39
682.193	3681.74
682.383	3608.01
682.573	3556.81
682.764	3472.84
682.954	3442.12
683.144	3526.09
683.334	3476.94
683.524	3403.21
683.714	3558.86
683.904	3448.27
684.094	3517.9
684.284	3454.41
684.474	3464.65
684.664	3433.93
684.854	3474.89
685.044	3370.44
685.234	3343.82
685.424	3384.78
685.614	3442.12
685.804	3405.26
685.994	3382.73
686.184	3225.04
686.374	3421.64
686.564	3444.17
686.753	3331.53
686.943	3399.12
687.133	3290.57
687.323	3313.1
687.513	3423.69
687.702	3362.25
687.892	3200.46
688.082	3227.09
688.272	3263.95
688.461	3231.18
688.651	3253.71
688.841	3186.13
689.03	3089.87
689.22	3319.25
689.41	3259.85
689.599	3206.61
689.789	3108.3
689.979	3214.8
690.168	3104.21
690.358	3057.11
690.547	3110.35
690.737	3141.07
690.926	3071.44
691.116	3136.98
691.305	3102.16
691.495	2975.19
691.684	2960.85
691.874	2948.56
692.063	3071.44
692.252	2995.67
692.442	3108.3
692.631	2954.71
692.82	2874.84
693.01	3032.53
693.199	3085.78
693.388	2973.14
693.578	2987.47
693.767	2917.84
693.956	2981.33
694.146	3014.1
694.335	2966.99
694.524	2897.36
694.713	2958.8
694.902	2944.47
695.092	2948.56
695.281	2905.56
695.47	3032.53
695.659	2842.07
695.848	2872.79
696.037	2921.94
696.226	2948.56
696.415	2778.58
696.604	2811.35
696.793	2760.15
696.982	2926.04
697.171	2850.26
697.36	2856.4
697.549	2880.98
697.738	2893.27
697.927	2891.22
698.116	2991.57
698.305	2911.7
698.494	2833.88
698.683	2817.49
698.872	2764.25
699.061	2768.34
699.25	2862.55
699.438	2858.45
699.627	2895.32
699.816	2858.45
700.005	2909.65
700.193	2899.41
700.382	2848.21
700.571	2784.73
700.76	2758.1
700.948	2788.82
701.137	2893.27
701.326	2903.51
701.514	2835.92
701.703	2913.75
701.892	2846.16
702.08	2921.94
702.269	2684.38
702.457	2833.88
702.646	2805.21
702.834	2766.29
703.023	2788.82
703.212	2762.2
703.4	2647.51
703.589	2805.21
703.777	2880.98
703.965	2633.18
704.154	2756.05
704.342	2745.81
704.531	2866.64
704.719	2782.68
704.907	2860.5
705.096	2762.2
705.284	2737.62
705.472	2813.4
705.661	2747.86
705.849	2721.24
706.037	2618.84
706.226	2762.2
706.414	2790.87
706.602	2719.19
706.79	2792.92
706.979	2754.01
707.167	2768.34
707.355	2754.01
707.543	2766.29
707.731	2762.2
707.919	2624.98
708.107	2751.96
708.296	2670.04
708.484	2688.47
708.672	2708.95
708.86	2754.01
709.048	2629.08
709.236	2606.55
709.424	2768.34
709.612	2586.07
709.8	2498.01
709.988	2641.37
710.176	2581.98
710.364	2694.61
710.551	2569.69
710.739	2586.07
710.927	2534.87
711.115	2631.13
711.303	2647.51
711.491	2592.22
711.679	2581.98
711.866	2538.97
712.054	2561.5
712.242	2545.11
712.43	2516.44
712.617	2561.5
712.805	2557.4
712.993	2600.41
713.181	2508.25
713.368	2657.75
713.556	2581.98
713.744	2438.62
713.931	2522.59
714.119	2455
714.306	2555.35
714.494	2450.91
714.682	2547.16
714.869	2520.54
715.057	2457.05
715.244	2467.29
715.432	2440.67
715.619	2397.66
715.807	2545.11
715.994	2520.54
716.182	2475.48
716.369	2510.3
716.556	2522.59
716.744	2571.74
716.931	2442.71
717.119	2493.91
717.306	2510.3
717.493	2409.95
717.681	2403.8
717.868	2465.24
718.055	2397.66
718.242	2547.16
718.43	2299.36
718.617	2450.91
718.804	2450.91
718.991	2422.24
719.179	2352.6
719.366	2401.76
719.553	2225.63
719.74	2317.79
719.927	2358.75
720.114	2270.69
720.301	2252.25
720.488	2256.35
720.676	2219.49
720.863	2438.62
721.05	2270.69
721.237	2285.02
721.424	2303.45
721.611	2201.05
721.798	2307.55
721.985	2262.49
722.172	2151.9
722.358	2237.92
722.545	2221.53
722.732	2262.49
722.919	2231.77
723.106	2223.58
723.293	2360.8
723.48	2252.25
723.667	2074.08
723.853	2192.86
724.04	2233.82
724.227	2123.23
724.414	2213.34
724.6	2205.15
724.787	2164.19
724.974	2192.86
725.161	2129.38
725.347	2162.14
725.534	2215.39
725.72	2151.9
725.907	2174.43
726.094	2059.74
726.28	2047.46
726.467	2145.76
726.653	2158.05
726.84	2117.09
727.027	2180.57
727.213	2162.14
727.4	2153.95
727.586	2121.18
727.773	2041.31
727.959	2084.32
728.145	2156
728.332	1924.58
728.518	2057.7
728.705	2082.27
728.891	2022.88
729.077	2024.93
729.264	2000.35
729.45	2078.18
729.636	2059.74
729.823	2098.66
730.009	2029.03
730.195	2002.4
730.382	2035.17
730.568	1895.91
730.754	1947.11
730.94	2031.07
731.126	2086.37
731.313	1945.06
731.499	1977.83
731.685	1953.25
731.871	1955.3
732.057	2006.5
732.243	2043.36
732.429	1932.77
732.615	1981.92
732.801	1977.83
732.987	1957.35
733.173	1996.26
733.359	1988.07
733.545	1920.48
733.731	1897.96
733.917	1897.96
734.103	2080.22
734.289	1992.16
734.475	1992.16
734.661	1928.67
734.847	1889.76
735.033	1910.24
735.219	1801.7
735.404	1949.15
735.59	1799.65
735.776	1820.13
735.962	1803.75
736.148	1852.9
736.333	1848.8
736.519	1801.7
736.705	1877.48
736.89	1793.51
737.076	1766.89
737.262	1902.05
737.447	1756.65
737.633	1820.13
737.819	1879.52
738.004	1838.56
738.19	1795.56
738.375	1793.51
738.561	1859.04
738.747	1795.56
738.932	1879.52
739.118	1813.99
739.303	1752.55
739.489	1895.91
739.674	1664.49
739.859	1727.97
740.045	1676.77
740.23	1697.25
740.416	1678.82
740.601	1768.93
740.786	1684.97
740.972	1648.1
741.157	1570.28
741.342	1711.59
741.528	1689.06
741.713	1734.12
741.898	1496.55
742.084	1590.76
742.269	1654.25
742.454	1621.48
742.639	1629.67
742.824	1537.51
743.01	1691.11
743.195	1592.81
743.38	1629.67
743.565	1572.33
743.75	1555.94
743.935	1656.29
744.12	1609.19
744.305	1588.71
744.49	1549.8
744.675	1572.33
744.86	1586.66
745.045	1623.53
745.23	1482.22
745.415	1471.98
745.6	1490.41
745.785	1359.34
745.97	1517.03
746.155	1492.46
746.34	1461.74
746.525	1414.63
746.71	1484.27
746.895	1482.22
747.079	1349.1
747.264	1375.72
747.449	1457.64
747.634	1457.64
747.819	1390.06
748.003	1435.11
748.188	1451.5
748.373	1457.64
748.557	1232.37
748.742	1322.48
748.927	1279.47
749.111	1342.96
749.296	1371.63
749.481	1285.61
749.665	1304.04
749.85	1330.67
750.034	1299.95
750.219	1261.04
750.404	1334.76
750.588	1252.84
750.773	1195.5
750.957	1248.75
751.141	1228.27
751.326	1172.97
751.51	1336.81
751.695	1238.51
751.879	1281.52
752.064	1203.69
752.248	1134.06
752.432	1244.65
752.617	1295.85
752.801	1187.31
752.985	1220.08
753.17	1103.34
753.354	1181.17
753.538	1261.04
753.722	1138.16
753.907	1127.92
754.091	1064.43
754.275	1091.06
754.459	1076.72
754.643	1062.38
754.828	1043.95
755.012	1025.52
755.196	1007.09
755.38	1156.59
755.564	1064.43
755.748	941.55
755.932	1009.14
756.116	1060.34
756.3	1046
756.484	1009.14
756.668	1023.47
756.852	1029.62
757.036	914.93
757.22	974.32
757.404	1039.86
757.588	933.36
757.772	894.45
757.956	953.84
758.14	949.75
758.323	855.54
758.507	955.89
758.691	953.84
758.875	906.74
759.059	994.8
759.242	847.35
759.426	763.38
759.61	978.42
759.794	857.59
759.977	914.93
760.161	869.87
760.345	882.16
760.528	955.89
760.712	927.22
760.895	933.36
761.079	755.19
761.263	855.54
761.446	826.87
761.63	863.73
761.813	837.11
761.997	865.78
762.18	751.09
762.364	845.3
762.547	796.15
762.731	880.11
762.914	890.35
763.098	769.52
763.281	802.29
763.464	820.72
763.648	751.09
763.831	806.39
764.015	742.9
764.198	859.63
764.381	767.48
764.564	722.42
764.748	828.92
764.931	800.24
765.114	802.29
765.297	802.29
765.481	701.94
765.664	761.33
765.847	753.14
766.03	732.66
766.213	673.27
766.397	769.52
766.58	790
766.763	626.17
766.946	808.44
767.129	706.04
767.312	724.47
767.495	738.8
767.678	767.48
767.861	703.99
768.044	712.18
768.227	648.69
768.41	761.33
768.593	714.23
768.776	703.99
768.959	681.46
769.142	685.56
769.324	615.93
769.507	740.85
769.69	650.74
769.873	697.85
770.056	867.83
770.239	718.33
770.421	626.17
770.604	660.98
770.787	679.41
770.97	706.04
771.152	783.86
771.335	626.17
771.518	703.99
771.7	636.41
771.883	697.85
772.066	634.36
772.248	607.73
772.431	574.97
772.613	671.22
772.796	601.59
772.978	654.84
773.161	673.27
773.343	613.88
773.526	544.25
773.708	654.84
773.891	579.06
774.073	630.26
774.256	454.14
774.438	640.5
774.621	587.26
774.803	562.68
774.985	603.64
775.168	581.11
775.35	581.11
775.532	638.45
775.715	630.26
775.897	622.07
776.079	488.95
776.261	583.16
776.444	529.91
776.626	597.49
776.808	589.3
776.99	478.71
777.173	515.58
777.355	579.06
777.537	527.86
777.719	554.49
777.901	525.82
778.083	462.33
778.265	572.92
778.447	478.71
778.629	497.14
778.811	544.25
778.993	482.81
779.175	476.66
779.357	497.14
779.539	431.61
779.721	531.96
779.903	456.19
780.085	501.24
780.267	476.66
780.449	538.1
780.631	544.25
780.812	431.61
780.994	493.05
781.176	468.47
781.358	396.79
781.54	415.23
781.721	478.71
781.903	396.79
782.085	472.57
782.267	404.99
782.448	384.51
782.63	468.47
782.812	357.88
782.993	372.22
783.175	445.95
783.357	345.59
783.538	425.47
783.72	390.65
783.901	402.94
784.083	404.99
784.264	349.69
784.446	357.88
784.627	361.98
784.809	384.51
784.99	423.42
785.172	400.89
785.353	431.61
785.535	468.47
785.716	435.71
785.897	366.07
786.079	347.64
786.26	331.26
786.441	402.94
786.623	298.49
786.804	327.16
786.985	376.31
787.167	368.12
787.348	353.79
787.529	407.03
787.71	296.44
787.891	372.22
788.073	327.16
788.254	278.01
788.435	433.66
788.616	298.49
788.797	325.12
788.978	269.82
789.159	308.73
789.34	261.63
789.522	345.59
789.703	228.86
789.884	327.16
790.065	263.68
790.246	308.73
790.427	261.63
790.607	265.72
790.788	275.96
790.969	173.57
791.15	271.87
791.331	296.44
791.512	304.64
791.693	255.48
791.874	261.63
792.054	249.34
792.235	310.78
792.416	271.87
792.597	265.72
792.778	259.58
792.958	269.82
793.139	239.1
793.32	218.62
793.5	218.62
793.681	210.43
793.862	318.97
794.042	120.32
794.223	222.72
794.404	288.25
794.584	226.81
794.765	179.71
794.945	210.43
795.126	269.82
795.306	245.24
795.487	232.96
795.667	273.92
795.848	259.58
796.028	230.91
796.209	237.05
796.389	224.76
796.57	271.87
796.75	167.42
796.93	196.09
797.111	187.9
797.291	214.52
797.471	247.29
797.652	187.9
797.832	194.05
798.012	206.33
798.192	189.95
798.373	220.67
798.553	167.42
798.733	214.52
798.913	194.05
799.093	220.67
799.274	275.96
799.454	241.15
799.634	165.37
799.814	144.89
799.994	148.99
800.174	128.51
800.354	173.57
800.534	146.94
800.714	171.52
800.894	161.28
801.074	210.43
801.254	175.61
801.434	208.38
801.614	194.05
801.794	181.76
801.974	730.61
802.154	175.61
802.334	235
802.514	130.56
802.693	183.81
802.873	126.46
803.053	183.81
803.233	278.01
803.413	128.51
803.592	165.37
803.772	179.71
803.952	128.51
804.131	153.09
804.311	134.65
804.491	198.14
804.67	144.89
804.85	169.47
805.03	189.95
805.209	185.85
805.389	136.7
805.568	165.37
805.748	171.52
805.928	83.45
806.107	105.98
806.287	118.27
806.466	175.61
806.646	192
806.825	132.61
807.004	101.89
807.184	159.23
807.363	146.94
807.543	161.28
807.722	179.71
807.901	183.81
808.081	122.37
808.26	97.79
808.439	167.42
808.619	124.41
808.798	220.67
808.977	153.09
809.156	161.28
809.336	136.7
809.515	171.52
809.694	136.7
809.873	130.56
810.052	97.79
810.231	146.94
810.411	153.09
810.59	126.46
810.769	138.75
810.948	122.37
811.127	122.37
811.306	144.89
811.485	183.81
811.664	216.57
811.843	108.03
812.022	124.41
812.201	161.28
812.38	134.65
812.559	124.41
812.737	101.89
812.916	122.37
813.095	114.17
813.274	114.17
813.453	177.66
813.632	128.51
813.811	169.47
813.989	155.13
814.168	187.9
814.347	161.28
814.526	138.75
814.704	165.37
814.883	155.13
815.062	116.22
815.24	114.17
815.419	81.41
815.598	124.41
815.776	183.81
815.955	77.31
816.133	77.31
816.312	1.54
816.49	103.93
816.669	177.66
816.847	101.89
817.026	110.08
817.204	65.02
817.383	101.89
817.561	208.38
817.74	140.8
817.918	105.98
818.097	126.46
818.275	112.13
818.453	114.17
818.632	69.12
818.81	120.32
818.988	-12.8
819.167	73.21
819.345	120.32
819.523	122.37
819.701	38.4
819.879	89.6
820.058	60.93
820.236	69.12
820.414	101.89
820.592	40.45
820.77	71.17
820.948	89.6
821.127	91.65
821.305	83.45
821.483	108.03
821.661	108.03
821.839	69.12
822.017	81.41
822.195	130.56
822.373	146.94
822.551	36.35
822.729	79.36
822.907	54.78
823.085	69.12
823.262	60.93
823.44	40.45
823.618	75.26
823.796	108.03
823.974	60.93
824.152	65.02
824.329	157.18
824.507	54.78
824.685	17.92
824.863	151.04
825.04	30.21
825.218	22.02
825.396	17.92
825.574	52.74
825.751	48.64
825.929	120.32
826.107	65.02
826.284	85.5
826.462	24.06
826.639	38.4
826.817	42.5
826.994	71.17
827.172	136.7
827.349	122.37
827.527	122.37
827.704	30.21
827.882	38.4
828.059	26.11
828.237	50.69
828.414	13.82
828.591	-27.14
828.769	62.98
828.946	44.54
829.124	58.88
829.301	134.65
829.478	89.6
829.655	69.12
829.833	142.85
830.01	122.37
830.187	118.27
830.364	73.21
830.542	30.21
830.719	122.37
830.896	48.64
831.073	101.89
831.25	26.11
831.427	50.69
831.604	7.68
831.782	-4.61
831.959	56.83
832.136	50.69
832.313	48.64
832.49	58.88
832.667	48.64
832.844	81.41
833.021	54.78
833.198	58.88
833.374	110.08
833.551	-8.7
833.728	-45.57
833.905	48.64
834.082	73.21
834.259	157.18
834.436	108.03
834.612	71.17
834.789	36.35
834.966	60.93
835.143	62.98
835.319	48.64
835.496	46.59
835.673	89.6
835.85	58.88
836.026	32.26
836.203	58.88
836.38	9.73
836.556	-14.85
836.733	-0.51
836.909	24.06
837.086	28.16
837.262	13.82
837.439	46.59
837.616	60.93
837.792	32.26
837.968	-27.14
838.145	42.5
838.321	-0.51
838.498	62.98
838.674	69.12
838.851	75.26
839.027	75.26
839.203	105.98
839.38	83.45
839.556	19.97
839.732	52.74
839.909	44.54
840.085	40.45
840.261	58.88
840.437	77.31
840.614	38.4
840.79	77.31
840.966	-2.56
841.142	32.26
841.318	95.74
841.494	11.78
841.671	97.79
841.847	67.07
842.023	24.06
842.199	81.41
842.375	75.26
842.551	42.5
842.727	5.63
842.903	93.69
843.079	-2.56
843.255	34.3
843.431	65.02
843.607	42.5
843.783	-27.14
843.959	11.78
844.134	-2.56
844.31	48.64
844.486	11.78
844.662	30.21
844.838	28.16
845.013	83.45
845.189	81.41
845.365	-6.66
845.541	-23.04
845.716	48.64
845.892	34.3
846.068	26.11
846.244	56.83
846.419	19.97
846.595	-29.18
846.77	58.88
846.946	81.41
847.122	28.16
847.297	42.5
847.473	91.65
847.648	11.78
847.824	11.78
847.999	-2.56
848.175	17.92
848.35	34.3
848.526	60.93
848.701	67.07
848.876	54.78
849.052	30.21
849.227	95.74
849.403	73.21
849.578	54.78
849.753	-20.99
849.929	11.78
850.104	11.78
850.279	-23.04
850.454	19.97
850.63	15.87
850.805	36.35
850.98	-51.71
851.155	30.21
851.33	62.98
851.505	9.73
851.681	24.06
851.856	32.26
852.031	22.02
852.206	77.31
852.381	-23.04
852.556	17.92
852.731	11.78
852.906	15.87
853.081	-20.99
853.256	50.69
853.431	136.7
853.606	32.26
853.781	42.5
853.956	-45.57
854.131	-14.85
854.305	52.74
854.48	-35.33
854.655	-33.28
854.83	46.59
855.005	-70.14
855.18	65.02
855.354	44.54
855.529	42.5
855.704	-57.86
855.879	-18.94
856.053	-29.18
856.228	7.68
856.403	93.69
856.577	3.58
856.752	-10.75
856.926	3.58
857.101	40.45
857.276	-20.99
857.45	11.78
857.625	-33.28
857.799	-31.23
857.974	42.5
858.148	36.35
858.323	7.68
858.497	-6.66
858.672	19.97
858.846	5.63
859.02	48.64
859.195	22.02
859.369	-0.51
859.543	60.93
859.718	50.69
859.892	-4.61
860.066	-12.8
860.241	15.87
860.415	-16.9
860.589	-47.62
860.763	-47.62
860.938	15.87
861.112	65.02
861.286	54.78
861.46	13.82
861.634	36.35
861.808	42.5
861.982	24.06
862.157	3.58
862.331	3.58
862.505	-8.7
862.679	-8.7
862.853	30.21
863.027	-49.66
863.201	40.45
863.375	-10.75
863.549	17.92
863.722	46.59
863.896	3.58
864.07	17.92
864.244	24.06
864.418	5.63
864.592	56.83
864.766	17.92
864.939	15.87
865.113	7.68
865.287	11.78
865.461	-43.52
865.634	75.26
865.808	30.21
865.982	32.26
866.156	-0.51
866.329	-8.7
866.503	9.73
866.676	46.59
866.85	19.97
867.024	17.92
867.197	-8.7
867.371	-31.23
867.544	44.54
867.718	-43.52
867.891	26.11
868.065	32.26
868.238	-31.23
868.412	38.4
868.585	36.35
868.759	17.92
868.932	-10.75
869.105	-43.52
869.279	17.92
869.452	62.98
869.625	38.4
869.799	44.54
869.972	-31.23
870.145	1.54
870.319	1.54
870.492	3.58
870.665	-25.09
870.838	44.54
871.011	3.58
871.185	42.5
871.358	36.35
871.531	85.5
871.704	-16.9
871.877	5.63
872.05	7.68
872.223	-25.09
872.396	95.74
872.569	42.5
872.742	-2.56
872.915	-25.09
873.088	-18.94
873.261	-33.28
873.434	-43.52
873.607	-25.09
873.78	34.3
873.953	32.26
874.126	83.45
874.299	60.93
874.471	-37.38
874.644	52.74
874.817	-23.04
874.99	5.63
875.163	26.11
875.335	40.45
875.508	69.12
875.681	26.11
875.853	-10.75
876.026	13.82
876.199	22.02
876.371	-12.8
876.544	9.73
876.717	-4.61
876.889	38.4
877.062	-4.61
877.234	1.54
877.407	3.58
877.579	3.58
877.752	-4.61
877.924	30.21
878.097	36.35
878.269	73.21
878.442	17.92
878.614	62.98
878.786	-6.66
878.959	-12.8
879.131	52.74
879.303	69.12
879.476	83.45
879.648	15.87
879.82	42.5
879.993	-20.99
880.165	-12.8
880.337	-16.9
880.509	34.3
880.681	24.06
880.854	-20.99
881.026	-4.61
881.198	50.69
881.37	-70.14
881.542	11.78
881.714	87.55
881.886	38.4
882.058	-51.71
882.23	28.16
882.402	30.21
882.574	13.82
882.746	9.73
882.918	-4.61
883.09	-2.56
883.262	11.78
883.434	-41.47
883.606	-39.42
883.778	-25.09
883.95	7.68
884.122	-6.66
884.293	30.21
884.465	-16.9
884.637	-35.33
884.809	71.17
884.98	9.73
885.152	5.63
885.324	40.45
885.496	17.92
885.667	-6.66
885.839	-0.51
886.011	50.69
886.182	19.97
886.354	60.93
886.525	24.06
886.697	7.68
886.869	-41.47
887.04	36.35
887.212	-8.7
887.383	101.89
887.555	3.58
887.726	52.74
887.897	36.35
888.069	-33.28
888.24	60.93
888.412	-41.47
888.583	1.54
888.754	36.35
888.926	-45.57
889.097	46.59
889.268	-57.86
889.44	-51.71
889.611	22.02
889.782	-23.04
889.953	-12.8
890.125	40.45
890.296	-8.7
890.467	-0.51
890.638	-57.86
890.809	54.78
890.98	11.78
891.151	22.02
891.323	3.58
891.494	-29.18
891.665	19.97
891.836	-2.56
892.007	-23.04
892.178	50.69
892.349	-8.7
892.52	-49.66
892.691	46.59
892.862	-53.76
893.032	-29.18
893.203	-35.33
893.374	42.5
893.545	46.59
893.716	15.87
893.887	-23.04
894.057	-14.85
894.228	15.87
894.399	-53.76
894.57	7.68
894.74	-4.61
894.911	46.59
895.082	-8.7
895.253	-8.7
895.423	-41.47
895.594	97.79
895.764	40.45
895.935	-29.18
896.106	-74.24
896.276	-8.7
896.447	-14.85
896.617	-25.09
896.788	42.5
896.958	-10.75
897.129	75.26
897.299	-8.7
897.47	19.97
897.64	79.36
897.81	-76.29
897.981	46.59
898.151	-84.48
898.322	-61.95
898.492	-12.8
898.662	-41.47
898.832	-29.18
899.003	-31.23
899.173	58.88
899.343	-31.23
899.513	-64
