Data from USB4F104151__94__12-37-11-430.txt Node

Date: Fri Mar 14 12:37:11 EDT 2025
User: louis
Spectrometer: USB4F10415
Trigger mode: 4
Integration Time (sec): 2.000000E-2
Scans to average: 1
Electric dark correction enabled: true
Nonlinearity correction enabled: false
Boxcar width: 0
XAxis mode: Wavelengths
Number of Pixels in Spectrum: 3648
>>>>>Begin Spectral Data<<<<<
178.204	-42.84
178.424	-42.84
178.644	-42.84
178.864	-77.65
179.084	-79.7
179.304	24.75
179.524	2.22
179.744	26.79
179.964	-48.98
180.184	-63.32
180.404	32.94
180.624	37.03
180.844	4.27
181.064	-34.64
181.283	-40.79
181.503	-14.17
181.723	73.9
181.943	10.41
182.163	-36.69
182.383	-5.97
182.602	67.75
182.822	45.23
183.042	-18.26
183.262	59.56
183.482	28.84
183.701	30.89
183.921	-5.97
184.141	-42.84
184.361	6.31
184.58	-79.7
184.8	88.23
185.02	20.65
185.239	90.28
185.459	47.27
185.679	112.81
185.898	51.37
186.118	34.99
186.338	8.36
186.557	-16.21
186.777	2.22
186.997	6.31
187.216	-18.26
187.436	37.03
187.655	-24.4
187.875	26.79
188.095	20.65
188.314	-32.6
188.534	96.43
188.753	-8.02
188.973	-1.88
189.192	65.71
189.412	51.37
189.631	4.27
189.851	26.79
190.07	2.22
190.29	10.41
190.509	24.75
190.729	41.13
190.948	88.23
191.168	145.58
191.387	41.13
191.607	63.66
191.826	59.56
192.045	22.7
192.265	59.56
192.484	-24.4
192.704	90.28
192.923	-30.55
193.142	6.31
193.362	45.23
193.581	34.99
193.8	-16.21
194.02	32.94
194.239	28.84
194.458	73.9
194.678	63.66
194.897	18.6
195.116	75.95
195.335	41.13
195.555	6.31
195.774	26.79
195.993	96.43
196.212	75.95
196.432	-12.12
196.651	2.22
196.87	59.56
197.089	102.57
197.308	55.47
197.528	57.51
197.747	-38.74
197.966	49.32
198.185	-10.07
198.404	-5.97
198.623	22.7
198.842	69.8
199.062	-18.26
199.281	63.66
199.5	-24.4
199.719	-10.07
199.938	18.6
200.157	147.62
200.376	65.71
200.595	30.89
200.814	20.65
201.033	-73.56
201.252	51.37
201.471	47.27
201.69	69.8
201.909	22.7
202.128	26.79
202.347	77.99
202.566	-42.84
202.785	26.79
203.004	-22.36
203.223	67.75
203.442	-34.64
203.661	39.08
203.879	-24.4
204.098	57.51
204.317	43.18
204.536	55.47
204.755	10.41
204.974	6.31
205.193	28.84
205.411	75.95
205.63	84.14
205.849	67.75
206.068	20.65
206.287	106.67
206.505	18.6
206.724	22.7
206.943	-59.22
207.162	12.46
207.381	-26.45
207.599	0.17
207.818	51.37
208.037	51.37
208.255	-12.12
208.474	4.27
208.693	45.23
208.911	18.6
209.13	-10.07
209.349	34.99
209.567	61.61
209.786	28.84
210.005	30.89
210.223	43.18
210.442	55.47
210.661	84.14
210.879	12.46
211.098	18.6
211.316	57.51
211.535	28.84
211.753	-3.93
211.972	4.27
212.191	116.9
212.409	55.47
212.628	-5.97
212.846	14.51
213.065	59.56
213.283	86.19
213.502	-36.69
213.72	49.32
213.938	88.23
214.157	-32.6
214.375	59.56
214.594	104.62
214.812	32.94
215.031	47.27
215.249	-73.56
215.467	2.22
215.686	55.47
215.904	6.31
216.122	18.6
216.341	34.99
216.559	30.89
216.778	14.51
216.996	57.51
217.214	12.46
217.432	2.22
217.651	65.71
217.869	16.55
218.087	14.51
218.306	75.95
218.524	92.33
218.742	2.22
218.96	90.28
219.179	32.94
219.397	47.27
219.615	63.66
219.833	98.47
220.051	37.03
220.27	90.28
220.488	71.85
220.706	59.56
220.924	10.41
221.142	129.19
221.36	94.38
221.578	0.17
221.796	-8.02
222.015	47.27
222.233	39.08
222.451	73.9
222.669	-1.88
222.887	22.7
223.105	4.27
223.323	104.62
223.541	14.51
223.759	-8.02
223.977	49.32
224.195	137.38
224.413	-10.07
224.631	114.86
224.849	18.6
225.067	100.52
225.285	-1.88
225.503	24.75
225.721	-53.08
225.939	77.99
226.157	45.23
226.375	92.33
226.592	22.7
226.81	51.37
227.028	30.89
227.246	69.8
227.464	80.04
227.682	4.27
227.9	61.61
228.117	55.47
228.335	45.23
228.553	26.79
228.771	67.75
228.989	18.6
229.206	22.7
229.424	32.94
229.642	-1.88
229.86	-20.31
230.077	30.89
230.295	4.27
230.513	69.8
230.731	-1.88
230.948	41.13
231.166	90.28
231.384	28.84
231.601	82.09
231.819	47.27
232.037	-5.97
232.254	-20.31
232.472	8.36
232.689	39.08
232.907	98.47
233.125	4.27
233.342	82.09
233.56	61.61
233.777	39.08
233.995	61.61
234.213	61.61
234.43	34.99
234.648	24.75
234.865	10.41
235.083	22.7
235.3	8.36
235.518	98.47
235.735	39.08
235.953	32.94
236.17	4.27
236.388	-8.02
236.605	10.41
236.822	155.82
237.04	26.79
237.257	-1.88
237.475	-3.93
237.692	28.84
237.909	-36.69
238.127	53.42
238.344	16.55
238.562	16.55
238.779	-3.93
238.996	63.66
239.214	51.37
239.431	63.66
239.648	-28.5
239.865	86.19
240.083	63.66
240.3	18.6
240.517	49.32
240.735	57.51
240.952	94.38
241.169	-34.64
241.386	51.37
241.603	24.75
241.821	-10.07
242.038	22.7
242.255	57.51
242.472	18.6
242.689	10.41
242.907	45.23
243.124	45.23
243.341	71.85
243.558	28.84
243.775	65.71
243.992	-32.6
244.209	-28.5
244.426	104.62
244.643	114.86
244.86	16.55
245.078	53.42
245.295	82.09
245.512	69.8
245.729	86.19
245.946	94.38
246.163	133.29
246.38	32.94
246.597	88.23
246.814	49.32
247.031	28.84
247.248	24.75
247.464	8.36
247.681	82.09
247.898	6.31
248.115	53.42
248.332	57.51
248.549	80.04
248.766	123.05
248.983	94.38
249.2	8.36
249.417	102.57
249.633	-40.79
249.85	4.27
250.067	12.46
250.284	41.13
250.501	37.03
250.717	34.99
250.934	32.94
251.151	55.47
251.368	12.46
251.585	86.19
251.801	-36.69
252.018	22.7
252.235	88.23
252.451	4.27
252.668	-8.02
252.885	82.09
253.102	67.75
253.318	28.84
253.535	55.47
253.752	-81.75
253.968	77.99
254.185	39.08
254.401	14.51
254.618	75.95
254.835	73.9
255.051	65.71
255.268	75.95
255.484	57.51
255.701	-18.26
255.917	57.51
256.134	59.56
256.351	47.27
256.567	0.17
256.784	24.75
257	8.36
257.217	90.28
257.433	86.19
257.65	82.09
257.866	118.95
258.082	98.47
258.299	80.04
258.515	26.79
258.732	-22.36
258.948	20.65
259.165	-14.17
259.381	26.79
259.597	67.75
259.814	92.33
260.03	82.09
260.246	6.31
260.463	75.95
260.679	131.24
260.895	49.32
261.112	90.28
261.328	51.37
261.544	80.04
261.761	100.52
261.977	51.37
262.193	45.23
262.409	92.33
262.626	53.42
262.842	75.95
263.058	77.99
263.274	104.62
263.49	49.32
263.707	108.71
263.923	86.19
264.139	69.8
264.355	65.71
264.571	49.32
264.787	8.36
265.004	14.51
265.22	80.04
265.436	41.13
265.652	14.51
265.868	8.36
266.084	18.6
266.3	88.23
266.516	12.46
266.732	45.23
266.948	24.75
267.164	14.51
267.38	22.7
267.596	45.23
267.812	61.61
268.028	63.66
268.244	73.9
268.46	90.28
268.676	16.55
268.892	-3.93
269.108	61.61
269.324	47.27
269.54	6.31
269.756	51.37
269.972	59.56
270.188	108.71
270.403	53.42
270.619	18.6
270.835	47.27
271.051	6.31
271.267	49.32
271.483	37.03
271.698	-8.02
271.914	-53.08
272.13	84.14
272.346	37.03
272.562	51.37
272.777	69.8
272.993	51.37
273.209	51.37
273.425	77.99
273.64	-22.36
273.856	22.7
274.072	51.37
274.287	82.09
274.503	75.95
274.719	73.9
274.934	32.94
275.15	26.79
275.366	26.79
275.581	59.56
275.797	65.71
276.012	47.27
276.228	-40.79
276.444	55.47
276.659	26.79
276.875	63.66
277.09	98.47
277.306	30.89
277.521	129.19
277.737	20.65
277.952	92.33
278.168	26.79
278.383	77.99
278.599	80.04
278.814	69.8
279.03	6.31
279.245	28.84
279.461	-1.88
279.676	41.13
279.892	-3.93
280.107	24.75
280.322	26.79
280.538	24.75
280.753	34.99
280.969	14.51
281.184	43.18
281.399	28.84
281.615	47.27
281.83	100.52
282.045	80.04
282.26	92.33
282.476	77.99
282.691	41.13
282.906	-3.93
283.122	71.85
283.337	30.89
283.552	55.47
283.767	51.37
283.983	30.89
284.198	45.23
284.413	-1.88
284.628	2.22
284.843	123.05
285.058	96.43
285.274	-3.93
285.489	-20.31
285.704	75.95
285.919	67.75
286.134	39.08
286.349	71.85
286.564	37.03
286.779	6.31
286.995	39.08
287.21	47.27
287.425	57.51
287.64	67.75
287.855	43.18
288.07	86.19
288.285	37.03
288.5	45.23
288.715	51.37
288.93	8.36
289.145	94.38
289.36	49.32
289.575	-28.5
289.79	-30.55
290.004	55.47
290.219	73.9
290.434	2.22
290.649	-10.07
290.864	-40.79
291.079	-1.88
291.294	147.62
291.509	90.28
291.724	28.84
291.938	53.42
292.153	43.18
292.368	30.89
292.583	77.99
292.798	55.47
293.012	67.75
293.227	61.61
293.442	59.56
293.657	114.86
293.871	47.27
294.086	18.6
294.301	110.76
294.516	59.56
294.73	63.66
294.945	65.71
295.16	-20.31
295.374	59.56
295.589	24.75
295.804	108.71
296.018	88.23
296.233	57.51
296.447	16.55
296.662	65.71
296.877	63.66
297.091	69.8
297.306	51.37
297.52	55.47
297.735	61.61
297.949	53.42
298.164	86.19
298.378	71.85
298.593	-1.88
298.807	-10.07
299.022	18.6
299.236	59.56
299.451	37.03
299.665	30.89
299.88	55.47
300.094	-3.93
300.309	-3.93
300.523	57.51
300.737	59.56
300.952	84.14
301.166	32.94
301.381	37.03
301.595	41.13
301.809	26.79
302.024	84.14
302.238	49.32
302.452	41.13
302.667	96.43
302.881	67.75
303.095	34.99
303.309	71.85
303.524	22.7
303.738	22.7
303.952	18.6
304.166	57.51
304.381	49.32
304.595	86.19
304.809	49.32
305.023	65.71
305.237	24.75
305.452	18.6
305.666	51.37
305.88	71.85
306.094	14.51
306.308	102.57
306.522	67.75
306.736	18.6
306.95	82.09
307.164	-32.6
307.379	43.18
307.593	-1.88
307.807	49.32
308.021	127.14
308.235	49.32
308.449	-5.97
308.663	84.14
308.877	100.52
309.091	69.8
309.305	96.43
309.519	-32.6
309.733	90.28
309.947	-1.88
310.161	104.62
310.374	84.14
310.588	59.56
310.802	16.55
311.016	172.2
311.23	18.6
311.444	47.27
311.658	20.65
311.872	49.32
312.085	151.72
312.299	61.61
312.513	16.55
312.727	12.46
312.941	6.31
313.154	108.71
313.368	65.71
313.582	49.32
313.796	90.28
314.009	22.7
314.223	63.66
314.437	39.08
314.651	26.79
314.864	118.95
315.078	63.66
315.292	80.04
315.505	2.22
315.719	34.99
315.933	-22.36
316.146	45.23
316.36	-40.79
316.573	133.29
316.787	100.52
317.001	116.9
317.214	0.17
317.428	82.09
317.641	45.23
317.855	24.75
318.068	116.9
318.282	43.18
318.495	77.99
318.709	24.75
318.922	51.37
319.136	30.89
319.349	123.05
319.563	-10.07
319.776	-3.93
319.99	28.84
320.203	86.19
320.417	90.28
320.63	73.9
320.843	82.09
321.057	51.37
321.27	82.09
321.483	151.72
321.697	57.51
321.91	30.89
322.124	41.13
322.337	32.94
322.55	51.37
322.763	41.13
322.977	49.32
323.19	41.13
323.403	28.84
323.617	53.42
323.83	65.71
324.043	90.28
324.256	92.33
324.469	4.27
324.683	51.37
324.896	53.42
325.109	67.75
325.322	12.46
325.535	100.52
325.748	63.66
325.962	90.28
326.175	139.43
326.388	32.94
326.601	69.8
326.814	-5.97
327.027	51.37
327.24	94.38
327.453	75.95
327.666	53.42
327.879	10.41
328.092	92.33
328.305	116.9
328.518	65.71
328.731	53.42
328.944	28.84
329.157	47.27
329.37	104.62
329.583	75.95
329.796	59.56
330.009	37.03
330.222	102.57
330.435	110.76
330.648	84.14
330.861	47.27
331.073	30.89
331.286	102.57
331.499	90.28
331.712	49.32
331.925	30.89
332.138	88.23
332.35	30.89
332.563	47.27
332.776	57.51
332.989	18.6
333.202	88.23
333.414	77.99
333.627	41.13
333.84	59.56
334.053	34.99
334.265	37.03
334.478	-36.69
334.691	92.33
334.903	-3.93
335.116	49.32
335.329	43.18
335.541	88.23
335.754	88.23
335.966	92.33
336.179	0.17
336.392	43.18
336.604	34.99
336.817	75.95
337.029	137.38
337.242	-10.07
337.454	110.76
337.667	51.37
337.88	57.51
338.092	61.61
338.305	69.8
338.517	110.76
338.729	12.46
338.942	67.75
339.154	118.95
339.367	102.57
339.579	106.67
339.792	108.71
340.004	98.47
340.217	32.94
340.429	12.46
340.641	34.99
340.854	0.17
341.066	37.03
341.278	41.13
341.491	65.71
341.703	125.1
341.915	20.65
342.128	69.8
342.34	110.76
342.552	-5.97
342.764	121
342.977	102.57
343.189	28.84
343.401	67.75
343.613	102.57
343.826	139.43
344.038	26.79
344.25	86.19
344.462	32.94
344.674	45.23
344.886	116.9
345.099	57.51
345.311	67.75
345.523	59.56
345.735	28.84
345.947	53.42
346.159	45.23
346.371	37.03
346.583	18.6
346.795	92.33
347.007	69.8
347.219	67.75
347.431	84.14
347.643	45.23
347.855	65.71
348.067	34.99
348.279	47.27
348.491	32.94
348.703	8.36
348.915	145.58
349.127	16.55
349.339	77.99
349.551	26.79
349.763	102.57
349.975	-12.12
350.187	80.04
350.399	37.03
350.61	41.13
350.822	67.75
351.034	114.86
351.246	69.8
351.458	114.86
351.669	94.38
351.881	80.04
352.093	71.85
352.305	32.94
352.517	2.22
352.728	141.48
352.94	77.99
353.152	-8.02
353.363	43.18
353.575	34.99
353.787	55.47
353.999	198.82
354.21	39.08
354.422	94.38
354.633	55.47
354.845	18.6
355.057	39.08
355.268	47.27
355.48	118.95
355.692	30.89
355.903	61.61
356.115	41.13
356.326	73.9
356.538	82.09
356.749	149.67
356.961	123.05
357.172	41.13
357.384	77.99
357.595	47.27
357.807	51.37
358.018	2.22
358.23	71.85
358.441	102.57
358.653	131.24
358.864	6.31
359.075	63.66
359.287	24.75
359.498	32.94
359.709	123.05
359.921	133.29
360.132	90.28
360.344	53.42
360.555	75.95
360.766	53.42
360.977	133.29
361.189	43.18
361.4	20.65
361.611	39.08
361.823	127.14
362.034	88.23
362.245	65.71
362.456	121
362.667	80.04
362.879	75.95
363.09	61.61
363.301	104.62
363.512	69.8
363.723	106.67
363.935	67.75
364.146	59.56
364.357	96.43
364.568	53.42
364.779	-8.02
364.99	86.19
365.201	34.99
365.412	92.33
365.623	67.75
365.834	53.42
366.045	65.71
366.256	57.51
366.467	53.42
366.678	24.75
366.889	88.23
367.1	82.09
367.311	94.38
367.522	86.19
367.733	82.09
367.944	41.13
368.155	12.46
368.366	90.28
368.577	71.85
368.788	102.57
368.999	16.55
369.209	-26.45
369.42	118.95
369.631	127.14
369.842	102.57
370.053	49.32
370.264	127.14
370.474	49.32
370.685	24.75
370.896	67.75
371.107	88.23
371.317	92.33
371.528	16.55
371.739	71.85
371.95	51.37
372.16	59.56
372.371	92.33
372.582	145.58
372.792	92.33
373.003	41.13
373.214	51.37
373.424	75.95
373.635	63.66
373.846	24.75
374.056	61.61
374.267	80.04
374.477	67.75
374.688	110.76
374.898	77.99
375.109	51.37
375.319	92.33
375.53	116.9
375.74	96.43
375.951	47.27
376.161	-3.93
376.372	80.04
376.582	82.09
376.793	55.47
377.003	57.51
377.214	86.19
377.424	90.28
377.635	94.38
377.845	34.99
378.055	90.28
378.266	8.36
378.476	104.62
378.686	110.76
378.897	133.29
379.107	37.03
379.317	71.85
379.528	90.28
379.738	67.75
379.948	145.58
380.158	77.99
380.369	75.95
380.579	84.14
380.789	65.71
380.999	84.14
381.21	82.09
381.42	92.33
381.63	80.04
381.84	98.47
382.05	73.9
382.261	123.05
382.471	16.55
382.681	49.32
382.891	63.66
383.101	55.47
383.311	26.79
383.521	30.89
383.731	45.23
383.941	131.24
384.151	67.75
384.361	125.1
384.571	112.81
384.781	26.79
384.991	188.58
385.201	34.99
385.411	100.52
385.621	106.67
385.831	37.03
386.041	37.03
386.251	102.57
386.461	92.33
386.671	37.03
386.881	57.51
387.091	32.94
387.301	49.32
387.511	127.14
387.72	125.1
387.93	90.28
388.14	71.85
388.35	75.95
388.56	63.66
388.769	98.47
388.979	49.32
389.189	151.72
389.399	71.85
389.609	116.9
389.818	172.2
390.028	121
390.238	94.38
390.447	106.67
390.657	114.86
390.867	75.95
391.076	116.9
391.286	116.9
391.496	77.99
391.705	88.23
391.915	118.95
392.125	137.38
392.334	98.47
392.544	123.05
392.753	63.66
392.963	94.38
393.172	106.67
393.382	59.56
393.591	151.72
393.801	94.38
394.01	180.39
394.22	86.19
394.429	209.06
394.639	118.95
394.848	123.05
395.058	41.13
395.267	121
395.477	88.23
395.686	172.2
395.895	125.1
396.105	221.35
396.314	94.38
396.524	145.58
396.733	180.39
396.942	166.06
397.152	98.47
397.361	180.39
397.57	204.97
397.78	221.35
397.989	125.1
398.198	145.58
398.407	131.24
398.617	129.19
398.826	129.19
399.035	161.96
399.244	100.52
399.453	180.39
399.663	116.9
399.872	237.74
400.081	141.48
400.29	188.58
400.499	110.76
400.708	170.15
400.917	166.06
401.127	141.48
401.336	145.58
401.545	172.2
401.754	211.11
401.963	211.11
402.172	164.01
402.381	174.25
402.59	155.82
402.799	166.06
403.008	170.15
403.217	192.68
403.426	176.3
403.635	188.58
403.844	157.86
404.053	182.44
404.262	200.87
404.471	227.5
404.68	184.49
404.888	272.55
405.097	200.87
405.306	157.86
405.515	168.1
405.724	229.54
405.933	329.89
406.142	245.93
406.35	245.93
406.559	213.16
406.768	295.08
406.977	254.12
407.185	276.65
407.394	276.65
407.603	282.79
407.812	303.27
408.02	295.08
408.229	266.41
408.438	286.89
408.646	331.94
408.855	391.33
409.064	340.13
409.272	340.13
409.481	350.37
409.69	336.04
409.898	356.52
410.107	411.81
410.315	413.86
410.524	479.4
410.733	413.86
410.941	467.11
411.15	544.93
411.358	493.73
411.567	598.18
411.775	639.14
411.984	530.59
412.192	624.8
412.401	639.14
412.609	704.67
412.818	618.66
413.026	704.67
413.234	678.05
413.443	620.71
413.651	733.34
413.86	698.53
414.068	762.02
414.276	850.08
414.485	798.88
414.693	899.23
414.901	925.85
415.11	975
415.318	878.75
415.526	944.28
415.734	981.15
415.943	1089.69
416.151	1097.88
416.359	995.48
416.567	1226.9
416.776	1128.6
416.984	1253.53
417.192	1456.28
417.4	1398.93
417.608	1458.32
417.817	1446.04
418.025	1474.71
418.233	1573.01
418.441	1511.57
418.649	1659.03
418.857	1710.22
419.065	1835.15
419.273	1822.86
419.481	1902.73
419.689	2005.13
419.897	2093.19
420.105	2132.11
420.313	2140.3
420.521	2273.42
420.729	2306.18
420.937	2214.02
421.145	2496.64
421.353	2422.92
421.561	2586.76
421.769	2642.05
421.977	2785.41
422.185	2863.23
422.393	2920.57
422.601	3199.1
422.809	3154.04
423.017	3119.23
423.224	3188.86
423.432	3367.03
423.64	3309.69
423.848	3727.47
424.056	3715.19
424.263	4032.62
424.471	3876.98
424.679	3967.09
424.887	4237.42
425.094	4339.82
425.302	4329.58
425.51	4481.13
425.718	4704.35
425.925	4722.79
426.133	4937.82
426.341	5202.01
426.548	5427.29
426.756	5492.82
426.964	5523.54
427.171	5754.96
427.379	5953.62
427.586	5890.13
427.794	6291.53
428.001	6551.62
428.209	6862.91
428.417	6725.7
428.624	7131.2
428.832	7106.62
429.039	7202.88
429.247	7186.49
429.454	8081.46
429.662	8398.89
429.869	7862.32
430.076	8421.42
430.284	8163.37
430.491	8507.43
430.699	8847.4
430.906	9003.04
431.114	8974.37
431.321	9375.77
431.528	9631.77
431.736	10182.67
431.943	10729.48
432.15	10381.32
432.358	10557.45
432.565	11165.7
432.772	11114.5
432.979	11704.31
433.187	11980.79
433.394	11624.44
433.601	12765.16
433.808	12902.37
434.016	12525.55
434.223	13006.82
434.43	14069.72
434.637	13789.14
434.844	14649.29
435.052	14643.15
435.259	14704.59
435.466	14893
435.673	14737.35
435.88	15691.71
436.087	16719.79
436.294	16529.33
436.501	15929.27
436.708	16476.08
436.915	17096.61
437.122	17788.83
437.329	17745.82
437.537	18167.7
437.743	18726.8
437.95	18507.66
438.157	19466.11
438.364	20279.16
438.571	20158.33
438.778	20240.25
438.985	22075.23
439.192	21079.91
439.399	21782.37
439.606	21475.17
439.813	22617.94
440.02	24039.23
440.227	23478.08
440.433	23402.31
440.64	24004.41
440.847	24051.52
441.054	24708.91
441.261	26216.22
441.467	25802.53
441.674	26461.97
441.881	27684.61
442.088	27037.45
442.294	27158.28
442.501	28032.77
442.708	28665.59
442.914	29259.5
443.121	30740.18
443.328	29822.69
443.534	32151.23
443.741	31262.41
443.948	30889.68
444.154	32673.46
444.361	32908.98
444.568	32927.41
444.774	32976.56
444.981	33351.34
445.187	34430.62
445.394	35841.67
445.6	35380.88
445.807	38602.33
446.013	37068.41
446.22	38012.52
446.426	39517.78
446.633	39450.19
446.839	40947.26
447.046	39296.6
447.252	41496.11
447.459	41451.06
447.665	41094.71
447.871	42872.35
448.078	45409.78
448.284	42911.26
448.491	43980.3
448.697	45411.83
448.903	46515.68
449.11	46628.32
449.316	45841.9
449.522	46929.37
449.728	47920.59
449.935	48315.85
450.141	48278.99
450.347	49331.64
450.553	48188.88
450.76	48770.5
450.966	50130.35
451.172	49325.5
451.378	50869.67
451.584	49806.77
451.791	50744.74
451.997	50474.41
452.203	51373.47
452.409	51248.54
452.615	51361.18
452.821	49649.08
453.027	48842.18
453.233	51223.97
453.44	49561.01
453.646	49905.07
453.852	50081.2
454.058	51170.72
454.264	49395.13
454.47	50603.43
454.676	49608.12
454.882	51226.01
455.088	46851.55
455.294	47480.28
455.5	48256.46
455.705	48803.27
455.911	46857.7
456.117	46161.39
456.323	45491.7
456.529	43349.53
456.735	45192.7
456.941	43980.3
457.147	42915.36
457.352	41561.65
457.558	41399.86
457.764	41252.41
457.97	40640.06
458.176	39497.3
458.381	39734.86
458.587	37893.74
458.793	38102.63
458.999	35866.25
459.204	38327.91
459.41	37510.77
459.616	34786.97
459.821	35055.25
460.027	34893.46
460.233	34344.61
460.438	32460.48
460.644	32970.42
460.85	31727.3
461.055	30615.26
461.261	30584.54
461.466	28602.1
461.672	27895.55
461.878	29714.15
462.083	27805.44
462.289	27238.16
462.494	26724.11
462.7	25577.25
462.905	25038.64
463.111	26101.53
463.316	25956.13
463.522	25667.36
463.727	25784.1
463.932	25616.16
464.138	25083.69
464.343	25173.8
464.549	24626.99
464.754	25366.31
464.959	25026.35
465.165	24715.06
465.37	24031.04
465.575	23154.51
465.781	24016.7
465.986	24571.7
466.191	23471.94
466.397	23148.36
466.602	22048.6
466.807	22794.06
467.012	22845.26
467.218	22650.71
467.423	22294.36
467.628	22429.52
467.833	23521.09
468.038	22417.24
468.244	21911.39
468.449	22730.58
468.654	21743.45
468.859	21884.76
469.064	21802.85
469.269	21124.97
469.474	21104.49
469.679	21581.67
469.885	20961.13
470.09	21313.38
470.295	21098.34
470.5	20850.54
470.705	20834.16
470.91	20412.28
471.115	20133.75
471.32	20490.1
471.525	20211.57
471.73	19517.31
471.935	19529.6
472.139	18837.39
472.344	19341.19
472.549	19087.24
472.754	18859.91
472.959	18677.65
473.164	18112.41
473.369	17930.14
473.574	18519.95
473.778	18149.27
473.983	18071.45
474.188	18136.98
474.393	17276.84
474.598	17440.67
474.802	17188.77
475.007	17086.37
475.212	17178.53
475.417	16650.16
475.621	16476.08
475.826	16369.58
476.031	16250.8
476.235	16078.77
476.44	16275.38
476.645	15900.6
476.849	15876.02
477.054	15742.91
477.259	15460.29
477.463	15349.7
477.668	14749.64
477.872	14968.77
478.077	14864.33
478.282	14444.49
478.486	14622.67
478.691	14290.9
478.895	14393.3
479.1	14225.36
479.304	14151.63
479.509	13963.22
479.713	14186.45
479.918	14006.23
480.122	13727.71
480.326	13774.81
480.531	13762.52
480.735	13641.69
480.94	13586.4
481.144	13920.21
481.348	13187.04
481.553	13311.97
481.757	13314.02
481.961	13246.43
482.166	13461.47
482.37	13162.47
482.574	13250.53
482.778	13125.6
482.983	13461.47
483.187	13230.05
483.391	13307.87
483.595	13402.08
483.8	12980.2
484.004	13334.5
484.208	13369.31
484.412	13238.24
484.616	13217.76
484.821	13084.64
485.025	13066.21
485.229	13039.59
485.433	13027.3
485.637	13234.14
485.841	13029.35
486.045	13113.31
486.249	13082.6
486.453	13342.69
486.657	13246.43
486.861	13289.44
487.065	12771.3
487.269	13041.64
487.473	12969.96
487.677	13129.7
487.881	13213.67
488.085	13080.55
488.289	13256.67
488.493	13086.69
488.697	13414.37
488.901	13066.21
489.105	13301.73
489.309	13393.89
489.512	13369.31
489.716	13397.98
489.92	13228
490.124	13162.47
490.328	13590.49
490.531	13256.67
490.735	13504.48
490.939	13473.76
491.143	13352.93
491.346	13543.39
491.55	13885.4
491.754	13680.6
491.958	13823.96
492.161	13666.27
492.365	13823.96
492.569	13862.87
492.772	13666.27
492.976	14026.71
493.18	13940.69
493.383	14239.7
493.587	14235.6
493.79	14376.91
493.994	14282.7
494.197	14305.23
494.401	14372.82
494.605	14583.76
494.808	14827.46
495.012	14831.56
495.215	14925.77
495.419	15022.02
495.622	15069.12
495.825	15347.65
496.029	15103.94
496.232	15515.58
496.436	15329.22
496.639	16072.63
496.843	15935.42
497.046	15796.15
497.249	16439.22
497.453	16248.75
497.656	16363.44
497.859	16523.18
498.063	16443.31
498.266	17053.61
498.469	16998.31
498.673	17037.22
498.876	17473.44
499.079	17880.99
499.282	17549.21
499.485	17887.13
499.689	17971.1
499.892	18352.02
500.095	18421.65
500.298	18904.97
500.501	18640.78
500.705	19206.02
500.908	19296.13
501.111	19466.11
501.314	19615.62
501.517	19982.2
501.72	20084.6
501.923	20045.69
502.126	20533.11
502.329	21010.28
502.532	20989.8
502.735	20889.45
502.938	21233.51
503.141	21624.67
503.344	22040.41
503.547	21956.44
503.75	22282.07
503.953	22802.25
504.156	22671.18
504.359	23009.1
504.562	23013.2
504.765	23701.31
504.968	23963.45
505.17	23938.88
505.373	23906.11
505.576	24538.93
505.779	24794.93
505.982	24919.85
506.185	25489.19
506.387	25542.44
506.59	25605.92
506.793	26134.3
506.996	25988.89
507.198	26711.83
507.401	26656.53
507.604	26894.1
507.807	27723.52
508.009	27641.6
508.212	27873.03
508.415	28161.79
508.617	28526.33
508.82	28876.53
509.022	28458.74
509.225	29597.42
509.428	29607.65
509.63	29941.47
509.833	29853.41
510.035	30846.68
510.238	30451.42
510.44	30758.61
510.643	31035.09
510.845	31585.99
511.048	31260.37
511.25	31852.23
511.453	32114.37
511.655	33289.9
511.858	32800.44
512.06	33205.94
512.262	33711.78
512.465	33580.71
512.667	34455.2
512.87	34588.31
513.072	34520.73
513.274	35055.25
513.477	35470.99
513.679	35696.27
513.881	36232.83
514.084	36492.93
514.286	36587.13
514.488	36503.17
514.69	37656.17
514.893	37985.9
515.095	38125.16
515.297	38610.53
515.499	38620.77
515.701	39329.36
515.904	39456.34
516.106	39833.16
516.308	40037.96
516.51	40394.31
516.712	40234.56
516.914	40949.31
517.116	41696.81
517.318	41676.33
517.52	42069.54
517.722	42278.44
517.925	42516
518.127	43306.52
518.329	43388.44
518.531	43327
518.733	44105.23
518.935	44756.48
519.136	44414.47
519.338	45338.1
519.54	45211.13
519.742	45940.21
519.944	45936.11
520.146	46595.56
520.348	46841.31
520.55	47185.37
520.752	46925.28
520.954	48287.18
521.155	48102.86
521.357	48168.4
521.559	48571.85
521.761	49614.26
521.963	49270.2
522.164	49475
522.366	49679.8
522.568	50216.36
522.77	50349.48
522.971	50838.95
523.173	50617.77
523.375	51228.06
523.576	51158.43
523.778	51344.8
523.98	51821.97
524.181	52583.82
524.383	52497.8
524.584	52934.02
524.786	52956.55
524.988	53013.89
525.189	53677.43
525.391	53505.4
525.592	54197.62
525.794	54078.83
525.995	54386.03
526.197	54535.53
526.398	54390.12
526.6	54855.01
526.801	54979.94
527.003	55264.61
527.204	55477.6
527.406	55754.07
527.607	55496.03
527.808	56331.6
528.01	55285.09
528.211	56167.76
528.412	56798.54
528.614	56165.71
528.815	56585.55
529.016	57126.21
529.218	56372.56
529.419	56896.84
529.62	56872.26
529.822	56702.28
530.023	56950.09
530.224	57236.8
530.425	57242.95
530.626	56745.29
530.828	56472.91
531.029	57888.06
531.23	57328.96
531.431	57339.2
531.632	57625.92
531.833	58248.5
532.035	57662.78
532.236	57896.25
532.437	58047.8
532.638	57783.61
532.839	58322.22
533.04	58273.07
533.241	57949.49
533.442	58733.87
533.643	58467.63
533.844	58189.11
534.045	58455.34
534.246	57773.37
534.447	58459.44
534.648	58223.92
534.849	58129.72
535.05	57949.49
535.251	58391.86
535.451	57986.36
535.652	58557.74
535.853	57830.71
536.054	58195.25
536.255	58729.77
536.456	57630.01
536.657	58750.25
536.857	58072.37
537.058	58395.95
537.259	58467.63
537.46	58326.32
537.66	58174.77
537.861	58365.23
538.062	58010.93
538.263	58150.2
538.463	58109.24
538.664	57945.4
538.865	58275.12
539.065	58576.17
539.266	57949.49
539.466	58762.54
539.667	57642.3
539.868	58406.19
540.068	57791.8
540.269	58094.9
540.469	58660.14
540.67	57920.82
540.87	58336.56
541.071	57812.28
541.271	58400.05
541.472	57771.32
541.672	57787.7
541.873	57656.63
542.073	57226.56
542.274	58195.25
542.474	57863.48
542.675	57724.22
542.875	58268.98
543.075	57623.87
543.276	57482.56
543.476	58393.9
543.676	57556.28
543.877	58101.04
544.077	57943.35
544.277	58092.85
544.478	57879.86
544.678	57820.47
544.878	58254.64
545.078	57621.82
545.279	57369.92
545.479	57322.82
545.679	57845.05
545.879	57929.01
546.079	58088.76
546.28	57304.38
546.48	56771.91
546.68	57414.97
546.88	57691.45
547.08	57589.05
547.28	58023.22
547.48	57288
547.68	57544
547.88	57292.1
548.081	57978.17
548.281	57660.73
548.481	57392.45
548.681	57484.61
548.881	57335.1
549.081	57316.67
549.28	57527.61
549.48	57703.74
549.68	56995.14
549.88	57660.73
550.08	57392.45
550.28	57388.35
550.48	57324.86
550.68	57550.14
550.88	56999.24
551.08	57003.33
551.279	57785.66
551.479	57218.37
551.679	57032
551.879	57134.4
552.079	57656.63
552.278	56868.17
552.478	57257.28
552.678	56853.83
552.878	57314.62
553.077	57271.62
553.277	56591.69
553.477	57470.27
553.676	56884.55
553.876	57212.23
554.076	57148.74
554.275	56976.71
554.475	56511.82
554.674	57085.25
554.874	57056.58
555.074	57017.67
555.273	56933.7
555.473	57072.96
555.672	56495.44
555.872	56505.68
556.071	56782.15
556.271	56720.71
556.47	56601.93
556.67	56405.33
556.869	56380.75
557.068	56653.13
557.268	55958.87
557.467	56302.93
557.667	56178
557.866	56558.92
558.065	56188.24
558.265	55881.05
558.464	55772.5
558.663	56403.28
558.863	55338.33
559.062	56431.95
559.261	55592.28
559.461	56294.74
559.66	55944.53
559.859	55674.2
560.058	55977.3
560.258	55973.2
560.457	55295.33
560.656	55876.95
560.855	55197.02
561.054	55766.36
561.253	55371.1
561.453	55276.9
561.652	55446.88
561.851	55174.5
562.05	54758.76
562.249	54947.17
562.448	55010.66
562.647	54766.95
562.846	55045.47
563.045	54467.95
563.244	54510.95
563.443	54832.49
563.642	54293.87
563.841	54547.82
564.04	53859.7
564.239	54617.45
564.438	53572.99
564.637	54250.86
564.836	54353.26
565.035	53859.7
565.234	54371.69
565.432	53618.04
565.631	53599.61
565.83	53982.58
566.029	53536.12
566.228	53458.3
566.427	53149.06
566.625	53052.8
566.824	52751.75
567.023	53050.75
567.222	52528.52
567.42	53353.85
567.619	52815.24
567.818	52829.57
568.016	52475.27
568.215	52794.76
568.414	52393.36
568.612	52637.06
568.811	52229.52
569.01	52628.87
569.208	51838.36
569.407	51991.95
569.605	51805.59
569.804	52096.4
570.002	51989.91
570.201	52063.63
570.4	51500.44
570.598	51137.95
570.797	51258.78
570.995	51013.02
571.193	50486.7
571.392	51051.94
571.59	50806.18
571.789	50734.5
571.987	50994.59
572.186	50757.03
572.384	50105.77
572.582	50431.4
572.781	50716.07
572.979	49405.37
573.177	50197.93
573.376	50044.34
573.574	49464.76
573.772	50195.88
573.971	49339.83
574.169	49612.21
574.367	49278.39
574.565	49139.13
574.763	49436.09
574.962	48995.78
575.16	48385.48
575.358	48948.67
575.556	48653.76
575.754	48911.81
575.952	48502.21
576.151	48905.66
576.349	48053.71
576.547	48195.02
576.745	48158.16
576.943	47908.3
577.141	48201.16
577.339	48297.42
577.537	47433.17
577.735	47689.17
577.933	47562.2
578.131	47603.16
578.329	47388.12
578.527	46912.99
578.725	47132.12
578.923	47082.97
579.121	46958.05
579.319	46489.06
579.516	47140.32
579.714	46517.73
579.912	46179.82
580.11	46188.01
580.308	46061.04
580.506	45848.05
580.704	45544.95
580.901	45958.64
581.099	45823.47
581.297	45166.07
581.495	46054.89
581.692	45772.27
581.89	45145.59
582.088	45262.33
582.285	44955.13
582.483	45327.86
582.681	45075.96
582.878	44946.94
583.076	44596.74
583.274	45069.82
583.471	44273.16
583.669	44287.49
583.866	44127.75
584.064	44142.09
584.262	43984.4
584.459	44441.09
584.657	43621.91
584.854	43611.67
585.052	43552.27
585.249	43630.1
585.447	43509.27
585.644	42794.53
585.841	43030.04
586.039	43404.82
586.236	42898.97
586.434	42819.1
586.631	42649.12
586.828	42946.08
587.026	42581.54
587.223	42096.17
587.42	42360.36
587.618	41977.39
587.815	41887.28
588.012	41672.24
588.21	41676.33
588.407	42038.83
588.604	41639.47
588.801	41029.18
588.999	41481.78
589.196	41150.01
589.393	41418.29
589.59	41180.73
589.787	40752.7
589.984	40840.76
590.182	40588.86
590.379	40873.53
590.576	40416.83
590.773	40375.87
590.97	40375.87
591.167	40427.07
591.364	39734.86
591.561	40130.12
591.758	39556.69
591.955	39874.12
592.152	39898.7
592.349	39003.74
592.546	39224.92
592.743	39538.26
592.94	38710.88
593.137	39181.91
593.334	39188.05
593.531	38596.19
593.727	38823.51
593.924	38841.95
594.121	38614.62
594.318	38606.43
594.515	37989.99
594.712	38665.82
594.908	38008.42
595.105	38594.14
595.302	37652.08
595.499	37805.67
595.696	37535.34
595.892	37422.7
596.089	37525.1
596.286	37422.7
596.482	37228.15
596.679	37191.28
596.876	37613.16
597.072	37015.16
597.269	37191.28
597.466	36380.29
597.662	36609.66
597.859	36611.71
598.055	36290.18
598.252	36300.42
598.448	36597.37
598.645	36075.14
598.841	35565.2
599.038	35790.47
599.234	35462.8
599.431	35571.34
599.627	35518.09
599.824	35466.89
600.02	35163.79
600.217	35784.33
600.413	34897.56
600.609	34875.03
600.806	34774.68
601.002	34956.95
601.198	34795.16
601.395	34485.92
601.591	34606.75
601.787	34504.35
601.984	34242.21
602.18	34500.25
602.376	34301.6
602.572	33814.18
602.769	33930.92
602.965	33203.89
603.161	33595.05
603.357	33283.76
603.553	33279.66
603.75	33640.11
603.946	33138.35
604.142	33246.9
604.338	32689.85
604.534	33427.12
604.73	32532.15
604.926	32575.16
605.122	32806.58
605.318	32624.31
605.514	32403.13
605.71	32394.94
605.906	32296.64
606.102	32190.14
606.298	31979.2
606.494	32052.93
606.69	32061.12
606.886	32001.73
607.082	31663.82
607.278	31923.91
607.474	31379.15
607.67	31944.39
607.866	31004.37
608.062	31475.4
608.257	31264.46
608.453	31395.53
608.649	31434.44
608.845	30848.72
609.041	31192.78
609.236	31065.81
609.432	30783.19
609.628	31141.58
609.824	30725.85
610.019	30791.38
610.215	30820.05
610.411	30447.32
610.606	30449.37
610.802	30504.67
610.998	30404.31
611.193	30428.89
611.389	30398.17
611.584	30160.61
611.78	29884.13
611.976	30285.53
612.171	30101.22
612.367	29918.95
612.562	29736.68
612.758	29486.82
612.953	29544.17
613.149	30064.35
613.344	29333.23
613.539	30047.97
613.735	29439.72
613.93	29368.04
614.126	29384.43
614.321	29290.22
614.517	29374.19
614.712	29384.43
614.907	28983.02
615.103	29327.08
615.298	28894.96
615.493	29437.67
615.688	28794.61
615.884	29263.6
616.079	28632.82
616.274	29044.46
616.47	28593.91
616.665	28677.88
616.86	28804.85
617.055	28507.9
617.25	28237.56
617.445	28561.14
617.641	28110.59
617.836	28473.08
618.031	27664.13
618.226	28249.85
618.421	27698.95
618.616	28405.5
618.811	27696.9
619.006	28161.79
619.201	27418.38
619.396	27776.77
619.591	27092.75
619.786	27373.32
619.981	26933.01
620.176	27244.3
620.371	26677.01
620.566	26803.99
620.761	26468.12
620.956	26867.47
621.151	26048.29
621.346	26386.2
621.541	25786.15
621.735	26226.46
621.93	25995.04
622.125	26052.38
622.32	25458.47
622.515	25646.88
622.709	25442.09
622.904	25579.3
623.099	25405.22
623.294	25347.88
623.488	24852.27
623.683	25069.36
623.878	24665.91
624.072	24428.34
624.267	24600.37
624.462	24649.52
624.656	23887.68
624.851	24072
625.046	23881.53
625.24	24076.09
625.435	23435.08
625.629	23648.07
625.824	23277.38
626.018	23449.41
626.213	22767.44
626.407	23144.27
626.602	22871.89
626.796	23048.01
626.991	22755.15
627.185	22701.9
627.38	22601.55
627.574	22216.54
627.768	21921.63
627.963	22046.55
628.157	21880.67
628.352	22054.75
628.546	21462.88
628.74	21665.63
628.935	21622.62
629.129	21571.43
629.323	21038.95
629.517	21092.2
629.712	21249.89
629.906	21049.19
630.1	20860.78
630.294	20666.22
630.489	20688.75
630.683	20653.94
630.877	20264.82
631.071	20254.58
631.265	20045.69
631.459	20174.71
631.653	19902.33
631.848	19892.09
632.042	19591.04
632.236	19554.18
632.43	19281.8
632.624	19533.7
632.818	19253.12
633.012	19134.34
633.206	19013.51
633.4	19478.4
633.594	18685.84
633.788	19197.83
633.982	18835.34
634.176	18724.75
634.369	18509.71
634.563	18335.63
634.757	18329.49
634.951	18284.44
635.145	18311.06
635.339	18229.14
635.533	17848.22
635.726	17997.72
635.92	17588.13
636.114	17729.44
636.308	17647.52
636.501	17461.15
636.695	17631.13
636.889	17190.82
637.083	17285.03
637.276	17002.41
637.47	16895.91
637.664	16918.44
637.857	16885.67
638.051	16613.29
638.244	16514.99
638.438	16615.34
638.632	16455.6
638.825	16558
639.019	16451.5
639.212	16076.73
639.406	16336.82
639.599	15812.54
639.793	16117.68
639.986	15656.89
640.18	15849.4
640.373	15691.71
640.567	15525.82
640.76	15747
640.954	15472.57
641.147	15554.49
641.34	15161.28
641.534	15179.72
641.727	15122.37
641.92	15144.9
642.114	14806.98
642.307	14942.15
642.5	14862.28
642.694	14514.13
642.887	14573.52
643.08	14706.63
643.273	14434.25
643.467	14297.04
643.66	14313.42
643.853	14266.32
644.046	13969.37
644.239	14155.73
644.432	13830.1
644.626	13742.04
644.819	13723.61
645.012	13748.18
645.205	13805.53
645.398	13758.42
645.591	13637.59
645.784	13670.36
645.977	13406.17
646.17	13574.11
646.363	13172.71
646.556	12969.96
646.749	13205.47
646.942	13195.23
647.135	13010.92
647.328	12898.28
647.521	12767.21
647.714	12826.6
647.907	12763.11
648.099	12654.57
648.292	12699.62
648.485	12443.63
648.678	12330.99
648.871	12457.96
649.064	12144.63
649.256	12527.6
649.449	12046.32
649.642	12220.4
649.835	12070.9
650.027	12005.36
650.22	11976.69
650.413	11814.9
650.605	11945.97
650.798	11737.08
650.991	11460.6
651.183	11864.05
651.376	11249.66
651.568	11509.76
651.761	11347.97
651.954	11202.56
652.146	11692.02
652.339	11286.53
652.531	10950.66
652.724	10932.23
652.916	10903.56
653.109	10946.56
653.301	10930.18
653.494	10831.88
653.686	10797.06
653.879	10938.37
654.071	10764.29
654.263	10743.81
654.456	10657.8
654.648	10733.57
654.84	10336.27
655.033	10500.11
655.225	10557.45
655.417	10209.29
655.61	10276.88
655.802	10366.99
655.994	10201.1
656.186	10311.69
656.379	10246.16
656.571	10147.86
656.763	9936.92
656.955	9725.97
657.148	10135.57
657.34	9992.21
657.532	9717.78
657.724	9539.61
657.916	9580.57
658.108	9572.38
658.3	9555.99
658.492	9492.51
658.684	9375.77
658.876	9275.42
659.068	9336.86
659.26	9297.95
659.452	9285.66
659.644	9170.97
659.836	9175.07
660.028	9160.73
660.22	8876.07
660.412	9027.62
660.604	8871.97
660.796	8996.9
660.988	8906.79
661.18	8757.29
661.372	8630.31
661.563	8699.94
661.755	8486.95
661.947	8636.45
662.139	8673.32
662.331	8491.05
662.522	8298.54
662.714	8460.33
662.906	8425.51
663.097	8319.02
663.289	8292.4
663.481	8411.18
663.673	8323.12
663.864	8175.66
664.056	8038.45
664.247	8075.31
664.439	7956.53
664.631	8005.68
664.822	8036.4
665.014	7766.07
665.205	7968.82
665.397	7927.86
665.588	7915.57
665.78	7741.49
665.971	7745.59
666.163	7751.73
666.354	7530.55
666.546	7534.65
666.737	7485.5
666.929	7571.51
667.12	7567.42
667.311	7450.68
667.503	7397.43
667.694	7335.99
667.885	7407.67
668.077	7186.49
668.268	7356.47
668.459	7368.76
668.651	7221.31
668.842	7192.64
669.033	7264.32
669.224	7104.57
669.416	7286.84
669.607	7139.39
669.798	7028.8
669.989	7311.42
670.18	6801.47
670.371	6926.4
670.563	7059.52
670.754	6983.74
670.945	6826.05
671.136	6922.31
671.327	6709.32
671.518	6697.03
671.709	6760.52
671.9	6838.34
672.091	6600.77
672.282	6647.88
672.473	6692.93
672.664	6557.77
672.855	6625.35
673.046	6557.77
673.237	6453.32
673.428	6379.59
673.619	6645.83
673.809	6338.63
674	6328.39
674.191	6297.67
674.382	6504.52
674.573	6238.28
674.764	6383.69
674.954	6373.45
675.145	6338.63
675.336	6119.5
675.527	6062.16
675.717	6285.39
675.908	6176.84
676.099	6223.95
676.289	6168.65
676.48	6015.05
676.671	6051.92
676.861	6111.31
677.052	5988.43
677.243	5863.51
677.433	5888.08
677.624	6115.41
677.814	5892.18
678.005	5996.62
678.195	6119.5
678.386	5881.94
678.576	5757.01
678.767	5734.48
678.957	5761.11
679.148	5910.61
679.338	5642.32
679.529	5814.35
679.719	5662.8
679.909	5914.7
680.1	5847.12
680.29	5769.3
680.481	5736.53
680.671	5611.61
680.861	5656.66
681.052	5689.43
681.242	5552.21
681.432	5609.56
681.622	5671
681.813	5544.02
682.003	5607.51
682.193	5517.4
682.383	5580.89
682.573	5589.08
682.764	5476.44
682.954	5498.97
683.144	5507.16
683.334	5421.14
683.524	5568.6
683.714	5300.31
683.904	5388.38
684.094	5384.28
684.284	5490.77
684.474	5449.82
684.664	5357.66
684.854	5322.84
685.044	5283.93
685.234	5257.31
685.424	5292.12
685.614	5283.93
685.804	5099.61
685.994	5175.39
686.184	5312.6
686.374	5042.27
686.564	4958.3
686.753	5261.4
686.943	5140.57
687.133	5077.09
687.323	5050.46
687.513	5247.07
687.702	4884.58
687.892	4929.63
688.082	5042.27
688.272	4980.83
688.461	4876.38
688.651	4941.92
688.841	4868.19
689.03	4923.49
689.22	4804.71
689.41	4784.23
689.599	4778.08
689.789	4712.55
689.979	4692.07
690.168	4753.51
690.358	4769.89
690.547	4712.55
690.737	4583.52
690.926	4663.4
691.116	4624.48
691.305	4651.11
691.495	4571.24
691.684	4593.76
691.874	4561
692.063	4483.17
692.252	4522.09
692.442	4438.12
692.631	4495.46
692.82	4452.45
693.01	4323.43
693.199	4393.06
693.388	4391.02
693.578	4356.2
693.767	4444.26
693.956	4276.33
694.146	4257.9
694.335	4171.88
694.524	4345.96
694.713	4321.38
694.902	4200.55
695.092	4309.1
695.281	4233.32
695.47	4229.23
695.659	4081.77
695.848	4214.89
696.037	4165.74
696.226	4128.88
696.415	4102.25
696.604	4241.51
696.793	4046.96
696.982	4010.09
697.171	4122.73
697.36	4026.48
697.549	3987.57
697.738	3993.71
697.927	4003.95
698.116	3975.28
698.305	4059.24
698.494	4012.14
698.683	3969.13
698.872	4057.2
699.061	3985.52
699.25	3899.5
699.438	4024.43
699.627	3985.52
699.816	3881.07
700.005	3891.31
700.193	3997.81
700.382	3903.6
700.571	3924.08
700.76	4003.95
700.948	3889.26
701.137	3807.34
701.326	3903.6
701.514	3836.02
701.703	3881.07
701.892	3750
702.08	3821.68
702.269	3911.79
702.457	3799.15
702.646	3747.95
702.834	3815.54
703.023	3752.05
703.212	3651.7
703.4	3735.67
703.589	3850.35
703.777	3782.77
703.965	3631.22
704.154	3733.62
704.342	3717.23
704.531	3711.09
704.719	3580.02
704.907	3678.32
705.096	3655.79
705.284	3717.23
705.472	3715.19
705.661	3782.77
705.849	3670.13
706.037	3604.6
706.226	3608.69
706.414	3600.5
706.602	3557.49
706.79	3762.29
706.979	3446.9
707.167	3522.68
707.355	3528.82
707.543	3549.3
707.731	3485.81
707.919	3571.83
708.107	3608.69
708.296	3397.75
708.484	3528.82
708.672	3663.99
708.86	3487.86
709.048	3545.2
709.236	3442.81
709.424	3416.18
709.612	3403.89
709.8	3393.65
709.988	3440.76
710.176	3473.53
710.364	3477.62
710.551	3289.21
710.739	3414.13
710.927	3373.18
711.115	3377.27
711.303	3344.5
711.491	3414.13
711.679	3350.65
711.866	3315.83
712.054	3336.31
712.242	3383.42
712.43	3414.13
712.617	3221.63
712.805	3096.7
712.993	3176.57
713.181	3209.34
713.368	3299.45
713.556	3227.77
713.744	3199.1
713.931	3311.74
714.119	3264.63
714.306	3303.54
714.494	3127.42
714.682	3192.95
714.869	3192.95
715.057	3258.49
715.244	2982.01
715.432	3121.28
715.619	3135.61
715.807	3084.41
715.994	3076.22
716.182	3096.7
716.369	3172.47
716.556	3108.99
716.744	3022.97
716.931	3068.03
717.119	3072.12
717.306	3276.92
717.493	3039.36
717.681	2910.33
717.868	3061.88
718.055	3059.84
718.242	2750.59
718.43	3108.99
718.617	2941.05
718.804	2957.44
718.991	3115.13
719.179	3092.6
719.366	3037.31
719.553	2967.68
719.74	2908.29
719.927	2920.57
720.114	2963.58
720.301	2994.3
720.488	2871.42
720.676	2857.09
720.863	2994.3
721.05	2930.81
721.237	2984.06
721.424	2855.04
721.611	2785.41
721.798	2939.01
721.985	2832.51
722.172	2844.8
722.358	2779.26
722.545	2930.81
722.732	2785.41
722.919	2893.95
723.106	2801.79
723.293	2771.07
723.48	2855.04
723.667	2809.98
723.853	2773.12
724.04	2730.11
724.227	2777.22
724.414	2744.45
724.6	2777.22
724.787	2732.16
724.974	2785.41
725.161	2703.49
725.347	2709.63
725.534	2734.21
725.72	2818.18
725.907	2654.34
726.094	2732.16
726.28	2687.11
726.467	2676.87
726.653	2605.19
726.84	2654.34
727.027	2769.02
727.213	2584.71
727.4	2707.59
727.586	2678.91
727.773	2621.57
727.959	2644.1
728.145	2633.86
728.332	2607.23
728.518	2551.94
728.705	2627.71
728.891	2551.94
729.077	2570.37
729.264	2609.28
729.45	2705.54
729.636	2646.15
729.823	2586.76
730.009	2594.95
730.195	2617.47
730.382	2599.04
730.568	2580.61
730.754	2648.19
730.94	2515.08
731.126	2594.95
731.313	2537.6
731.499	2429.06
731.685	2431.11
731.871	2572.42
732.057	2465.93
732.243	2416.77
732.429	2486.4
732.615	2560.13
732.801	2513.03
732.987	2500.74
733.173	2457.73
733.359	2437.25
733.545	2523.27
733.731	2381.96
733.917	2441.35
734.103	2377.86
734.289	2474.12
734.475	2285.7
734.661	2556.04
734.847	2443.4
735.033	2470.02
735.219	2408.58
735.404	2429.06
735.59	2429.06
735.776	2369.67
735.962	2396.29
736.148	2508.93
736.333	2427.01
736.519	2295.94
736.705	2355.33
736.89	2367.62
737.076	2332.81
737.262	2345.09
737.447	2275.46
737.633	2232.46
737.819	2338.95
738.004	2271.37
738.19	2277.51
738.375	2191.5
738.561	2388.1
738.747	2310.28
738.932	2175.11
739.118	2293.9
739.303	2279.56
739.489	2216.07
739.674	2277.51
739.859	2300.04
740.045	2246.79
740.23	2062.48
740.416	2144.39
740.601	2195.59
740.786	2064.52
740.972	2287.75
741.157	2123.91
741.342	2146.44
741.528	2072.72
741.713	2087.05
741.898	2162.83
742.084	2033.8
742.269	2107.53
742.454	2166.92
742.639	2187.4
742.824	2080.91
743.01	2005.13
743.195	2119.82
743.38	1910.93
743.565	2048.14
743.75	2134.15
743.935	1996.94
744.12	1988.75
744.305	2001.04
744.49	1892.49
744.675	1994.89
744.86	1923.21
745.045	1955.98
745.23	2023.56
745.415	1984.65
745.6	1865.87
745.785	1953.93
745.97	1947.79
746.155	1900.69
746.34	1872.01
746.525	1906.83
746.71	1933.45
746.895	1847.44
747.079	1841.29
747.264	1853.58
747.449	1812.62
747.634	1874.06
747.819	1753.23
748.003	1722.51
748.188	1818.77
748.373	1722.51
748.557	1745.04
748.742	1671.31
748.927	1708.18
749.111	1724.56
749.296	1687.7
749.481	1581.2
749.665	1599.63
749.85	1573.01
750.034	1693.84
750.219	1632.4
750.404	1609.87
750.588	1591.44
750.773	1599.63
750.957	1667.22
751.141	1644.69
751.326	1593.49
751.51	1581.2
751.695	1487
751.879	1620.11
752.064	1546.39
752.248	1538.2
752.432	1552.53
752.617	1460.37
752.801	1446.04
752.985	1484.95
753.17	1501.33
753.354	1421.46
753.538	1366.17
753.722	1427.6
753.907	1427.6
754.091	1400.98
754.275	1446.04
754.459	1386.65
754.643	1390.74
754.828	1409.17
755.012	1403.03
755.196	1360.02
755.38	1327.25
755.564	1341.59
755.748	1366.17
755.932	1284.25
756.116	1245.34
756.3	1357.97
756.484	1247.38
756.668	1321.11
756.852	1253.53
757.036	1343.64
757.22	1198.23
757.404	1202.33
757.588	1259.67
757.772	1271.96
757.956	1241.24
758.14	1261.72
758.323	1231
758.507	1157.27
758.691	1136.79
758.875	1142.94
759.059	1118.36
759.242	1183.9
759.426	1224.86
759.61	1165.46
759.794	1153.18
759.977	1134.75
760.161	1235.1
760.345	1077.4
760.528	1147.03
760.712	1124.51
760.895	1202.33
761.079	1196.18
761.263	1085.59
761.446	1083.55
761.63	1011.87
761.813	1044.63
761.997	1040.54
762.18	1007.77
762.364	1026.2
762.547	997.53
762.731	944.28
762.914	1083.55
763.098	972.96
763.281	1015.96
763.464	1020.06
763.648	993.44
763.831	1097.88
764.015	979.1
764.198	991.39
764.381	950.43
764.564	964.76
764.748	970.91
764.931	964.76
765.114	952.48
765.297	1009.82
765.481	942.24
765.664	970.91
765.847	1038.49
766.03	958.62
766.213	958.62
766.397	1083.55
766.58	942.24
766.763	934.04
766.946	962.72
767.129	981.15
767.312	927.9
767.495	913.56
767.678	903.32
767.861	907.42
768.044	858.27
768.227	899.23
768.41	831.65
768.593	954.52
768.776	805.02
768.959	921.76
769.142	934.04
769.324	852.13
769.507	907.42
769.69	985.24
769.873	862.37
770.056	901.28
770.239	899.23
770.421	815.26
770.604	932
770.787	809.12
770.97	805.02
771.152	886.94
771.335	811.17
771.518	843.93
771.7	807.07
771.883	772.25
772.066	829.6
772.248	786.59
772.431	819.36
772.613	802.97
772.796	825.5
772.978	895.13
773.161	805.02
773.343	800.93
773.526	780.45
773.708	792.73
773.891	766.11
774.073	811.17
774.256	798.88
774.438	798.88
774.621	653.47
774.803	747.68
774.985	725.15
775.168	831.65
775.35	682.14
775.532	735.39
775.715	678.05
775.897	686.24
776.079	706.72
776.261	729.25
776.444	708.77
776.626	725.15
776.808	719.01
776.99	690.34
777.173	626.85
777.355	682.14
777.537	706.72
777.719	716.96
777.901	635.04
778.083	616.61
778.265	608.42
778.447	614.56
778.629	680.1
778.811	581.79
778.993	671.9
779.175	649.38
779.357	618.66
779.539	589.99
779.721	573.6
779.903	665.76
780.085	637.09
780.267	573.6
780.449	528.55
780.631	620.71
780.812	673.95
780.994	624.8
781.176	600.23
781.358	538.79
781.54	608.42
781.721	559.27
781.903	587.94
782.085	596.13
782.267	680.1
782.448	506.02
782.63	565.41
782.812	530.59
782.993	571.55
783.175	495.78
783.357	487.59
783.538	512.16
783.72	469.16
783.901	516.26
784.083	460.96
784.264	491.68
784.446	475.3
784.627	460.96
784.809	456.87
784.99	438.44
785.172	417.96
785.353	444.58
785.535	520.35
785.716	415.91
785.897	420
786.079	452.77
786.26	491.68
786.441	467.11
786.623	452.77
786.804	479.4
786.985	471.2
787.167	448.68
787.348	413.86
787.529	432.29
787.71	477.35
787.891	401.57
788.073	463.01
788.254	454.82
788.435	483.49
788.616	377
788.797	417.96
788.978	354.47
789.159	366.76
789.34	379.04
789.522	303.27
789.703	395.43
789.884	381.09
790.065	422.05
790.246	297.13
790.427	362.66
790.607	397.48
790.788	381.09
790.969	381.09
791.15	424.1
791.331	317.61
791.512	362.66
791.693	303.27
791.874	379.04
792.054	403.62
792.235	366.76
792.416	370.85
792.597	325.8
792.778	372.9
792.958	372.9
793.139	336.04
793.32	290.98
793.5	342.18
793.681	440.48
793.862	352.42
794.042	293.03
794.223	256.17
794.404	338.09
794.584	286.89
794.765	417.96
794.945	239.78
795.126	346.28
795.306	297.13
795.487	305.32
795.667	237.74
795.848	266.41
796.028	286.89
796.209	307.37
796.389	217.26
796.57	319.65
796.75	237.74
796.93	317.61
797.111	221.35
797.291	247.97
797.471	276.65
797.652	254.12
797.832	164.01
798.012	370.85
798.192	174.25
798.373	262.31
798.553	370.85
798.733	311.46
798.913	297.13
799.093	262.31
799.274	278.69
799.454	362.66
799.634	239.78
799.814	260.26
799.994	274.6
800.174	239.78
800.354	243.88
800.534	178.34
800.714	313.51
800.894	233.64
801.074	231.59
801.254	280.74
801.434	319.65
801.614	329.89
801.794	221.35
801.974	600.23
802.154	241.83
802.334	264.36
802.514	227.5
802.693	237.74
802.873	219.3
803.053	155.82
803.233	211.11
803.413	231.59
803.592	178.34
803.772	211.11
803.952	239.78
804.131	256.17
804.311	274.6
804.491	313.51
804.67	194.73
804.85	237.74
805.03	290.98
805.209	264.36
805.389	192.68
805.568	157.86
805.748	137.38
805.928	229.54
806.107	202.92
806.287	215.21
806.466	209.06
806.646	168.1
806.825	321.7
807.004	166.06
807.184	184.49
807.363	202.92
807.543	245.93
807.722	233.64
807.901	207.02
808.081	229.54
808.26	196.78
808.439	256.17
808.619	196.78
808.798	211.11
808.977	133.29
809.156	274.6
809.336	182.44
809.515	153.77
809.694	125.1
809.873	145.58
810.052	121
810.231	282.79
810.411	229.54
810.59	100.52
810.769	225.45
810.948	116.9
811.127	159.91
811.306	143.53
811.485	174.25
811.664	164.01
811.843	194.73
812.022	133.29
812.201	168.1
812.38	164.01
812.559	174.25
812.737	217.26
812.916	170.15
813.095	116.9
813.274	235.69
813.453	116.9
813.632	211.11
813.811	213.16
813.989	211.11
814.168	133.29
814.347	139.43
814.526	211.11
814.704	127.14
814.883	155.82
815.062	112.81
815.24	108.71
815.419	104.62
815.598	237.74
815.776	143.53
815.955	127.14
816.133	75.95
816.312	225.45
816.49	100.52
816.669	159.91
816.847	139.43
817.026	180.39
817.204	153.77
817.383	204.97
817.561	129.19
817.74	153.77
817.918	127.14
818.097	164.01
818.275	133.29
818.453	200.87
818.632	137.38
818.81	176.3
818.988	118.95
819.167	127.14
819.345	166.06
819.523	110.76
819.701	125.1
819.879	161.96
820.058	137.38
820.236	188.58
820.414	125.1
820.592	168.1
820.77	84.14
820.948	123.05
821.127	153.77
821.305	102.57
821.483	192.68
821.661	170.15
821.839	110.76
822.017	116.9
822.195	127.14
822.373	106.67
822.551	137.38
822.729	125.1
822.907	61.61
823.085	145.58
823.262	143.53
823.44	90.28
823.618	133.29
823.796	123.05
823.974	98.47
824.152	75.95
824.329	116.9
824.507	129.19
824.685	65.71
824.863	190.63
825.04	161.96
825.218	108.71
825.396	71.85
825.574	106.67
825.751	2.22
825.929	106.67
826.107	82.09
826.284	100.52
826.462	141.48
826.639	59.56
826.817	155.82
826.994	135.34
827.172	43.18
827.349	125.1
827.527	118.95
827.704	123.05
827.882	69.8
828.059	96.43
828.237	61.61
828.414	125.1
828.591	92.33
828.769	135.34
828.946	114.86
829.124	71.85
829.301	71.85
829.478	127.14
829.655	106.67
829.833	-32.6
830.01	49.32
830.187	114.86
830.364	102.57
830.542	135.34
830.719	82.09
830.896	88.23
831.073	90.28
831.25	86.19
831.427	157.86
831.604	149.67
831.782	102.57
831.959	82.09
832.136	90.28
832.313	71.85
832.49	41.13
832.667	77.99
832.844	53.42
833.021	131.24
833.198	77.99
833.374	106.67
833.551	73.9
833.728	92.33
833.905	77.99
834.082	65.71
834.259	53.42
834.436	90.28
834.612	69.8
834.789	14.51
834.966	116.9
835.143	157.86
835.319	43.18
835.496	65.71
835.673	108.71
835.85	26.79
836.026	51.37
836.203	127.14
836.38	82.09
836.556	24.75
836.733	32.94
836.909	96.43
837.086	55.47
837.262	98.47
837.439	125.1
837.616	121
837.792	8.36
837.968	137.38
838.145	59.56
838.321	90.28
838.498	2.22
838.674	84.14
838.851	65.71
839.027	75.95
839.203	43.18
839.38	34.99
839.556	90.28
839.732	98.47
839.909	71.85
840.085	24.75
840.261	10.41
840.437	98.47
840.614	84.14
840.79	141.48
840.966	114.86
841.142	53.42
841.318	75.95
841.494	59.56
841.671	67.75
841.847	80.04
842.023	6.31
842.199	121
842.375	45.23
842.551	-28.5
842.727	20.65
842.903	110.76
843.079	57.51
843.255	65.71
843.431	-14.17
843.607	118.95
843.783	55.47
843.959	4.27
844.134	65.71
844.31	129.19
844.486	8.36
844.662	26.79
844.838	39.08
845.013	69.8
845.189	71.85
845.365	69.8
845.541	63.66
845.716	12.46
845.892	43.18
846.068	26.79
846.244	-30.55
846.419	110.76
846.595	18.6
846.77	100.52
846.946	96.43
847.122	-28.5
847.297	71.85
847.473	-1.88
847.648	-1.88
847.824	43.18
847.999	28.84
848.175	61.61
848.35	92.33
848.526	71.85
848.701	75.95
848.876	61.61
849.052	88.23
849.227	45.23
849.403	75.95
849.578	51.37
849.753	57.51
849.929	53.42
850.104	-8.02
850.279	104.62
850.454	63.66
850.63	24.75
850.805	10.41
850.98	100.52
851.155	71.85
851.33	65.71
851.505	16.55
851.681	53.42
851.856	47.27
852.031	75.95
852.206	43.18
852.381	84.14
852.556	-26.45
852.731	-16.21
852.906	43.18
853.081	-32.6
853.256	100.52
853.431	43.18
853.606	14.51
853.781	51.37
853.956	67.75
854.131	96.43
854.305	41.13
854.48	4.27
854.655	32.94
854.83	37.03
855.005	-26.45
855.18	45.23
855.354	-28.5
855.529	59.56
855.704	-10.07
855.879	4.27
856.053	51.37
856.228	26.79
856.403	14.51
856.577	123.05
856.752	43.18
856.926	51.37
857.101	-3.93
857.276	24.75
857.45	65.71
857.625	75.95
857.799	0.17
857.974	-28.5
858.148	2.22
858.323	116.9
858.497	73.9
858.672	32.94
858.846	100.52
859.02	108.71
859.195	-24.4
859.369	73.9
859.543	75.95
859.718	51.37
859.892	45.23
860.066	51.37
860.241	75.95
860.415	18.6
860.589	12.46
860.763	26.79
860.938	67.75
861.112	104.62
861.286	-5.97
861.46	77.99
861.634	30.89
861.808	82.09
861.982	43.18
862.157	-28.5
862.331	0.17
862.505	53.42
862.679	47.27
862.853	26.79
863.027	-8.02
863.201	-10.07
863.375	-3.93
863.549	-98.13
863.722	75.95
863.896	114.86
864.07	-40.79
864.244	114.86
864.418	41.13
864.592	41.13
864.766	57.51
864.939	82.09
865.113	57.51
865.287	30.89
865.461	6.31
865.634	22.7
865.808	-20.31
865.982	-8.02
866.156	6.31
866.329	47.27
866.503	49.32
866.676	-28.5
866.85	6.31
867.024	0.17
867.197	28.84
867.371	67.75
867.544	125.1
867.718	12.46
867.891	45.23
868.065	-73.56
868.238	-24.4
868.412	34.99
868.585	-71.51
868.759	6.31
868.932	37.03
869.105	14.51
869.279	41.13
869.452	32.94
869.625	51.37
869.799	6.31
869.972	39.08
870.145	20.65
870.319	30.89
870.492	41.13
870.665	12.46
870.838	-12.12
871.011	-1.88
871.185	-10.07
871.358	-18.26
871.531	12.46
871.704	-10.07
871.877	-8.02
872.05	90.28
872.223	49.32
872.396	6.31
872.569	80.04
872.742	-1.88
872.915	90.28
873.088	-20.31
873.261	26.79
873.434	90.28
873.607	26.79
873.78	2.22
873.953	32.94
874.126	47.27
874.299	12.46
874.471	39.08
874.644	18.6
874.817	18.6
874.99	53.42
875.163	30.89
875.335	37.03
875.508	106.67
875.681	67.75
875.853	18.6
876.026	39.08
876.199	-26.45
876.371	59.56
876.544	65.71
876.717	6.31
876.889	37.03
877.062	20.65
877.234	18.6
877.407	22.7
877.579	-5.97
877.752	51.37
877.924	-26.45
878.097	34.99
878.269	-38.74
878.442	26.79
878.614	-5.97
878.786	26.79
878.959	22.7
879.131	2.22
879.303	-57.17
879.476	12.46
879.648	-3.93
879.82	34.99
879.993	32.94
880.165	32.94
880.337	20.65
880.509	22.7
880.681	16.55
880.854	2.22
881.026	-8.02
881.198	34.99
881.37	61.61
881.542	45.23
881.714	-24.4
881.886	65.71
882.058	-10.07
882.23	39.08
882.402	-38.74
882.574	-61.27
882.746	67.75
882.918	104.62
883.09	-3.93
883.262	2.22
883.434	30.89
883.606	47.27
883.778	-10.07
883.95	-12.12
884.122	-20.31
884.293	32.94
884.465	30.89
884.637	18.6
884.809	-16.21
884.98	77.99
885.152	45.23
885.324	75.95
885.496	8.36
885.667	-26.45
885.839	2.22
886.011	65.71
886.182	-3.93
886.354	8.36
886.525	18.6
886.697	16.55
886.869	-65.36
887.04	-1.88
887.212	55.47
887.383	45.23
887.555	65.71
887.726	-24.4
887.897	73.9
888.069	51.37
888.24	30.89
888.412	16.55
888.583	4.27
888.754	-55.12
888.926	-14.17
889.097	39.08
889.268	-30.55
889.44	-42.84
889.611	2.22
889.782	-42.84
889.953	-42.84
890.125	73.9
890.296	-5.97
890.467	-5.97
890.638	59.56
890.809	18.6
890.98	20.65
891.151	34.99
891.323	39.08
891.494	80.04
891.665	34.99
891.836	-61.27
892.007	41.13
892.178	26.79
892.349	49.32
892.52	-14.17
892.691	-12.12
892.862	16.55
893.032	-40.79
893.203	53.42
893.374	75.95
893.545	67.75
893.716	37.03
893.887	22.7
894.057	26.79
894.228	28.84
894.399	77.99
894.57	51.37
894.74	-32.6
894.911	55.47
895.082	-3.93
895.253	39.08
895.423	-48.98
895.594	-22.36
895.764	32.94
895.935	-22.36
896.106	18.6
896.276	34.99
896.447	-3.93
896.617	77.99
896.788	37.03
896.958	12.46
897.129	-53.08
897.299	-51.03
897.47	12.46
897.64	14.51
897.81	53.42
897.981	-1.88
898.151	30.89
898.322	32.94
898.492	2.22
898.662	-22.36
898.832	24.75
899.003	18.6
899.173	16.55
899.343	22.7
899.513	0.17
