Data from USB4F104151__69__12-36-36-954.txt Node

Date: Fri Mar 14 12:36:36 EDT 2025
User: louis
Spectrometer: USB4F10415
Trigger mode: 4
Integration Time (sec): 2.000000E-2
Scans to average: 1
Electric dark correction enabled: true
Nonlinearity correction enabled: false
Boxcar width: 0
XAxis mode: Wavelengths
Number of Pixels in Spectrum: 3648
>>>>>Begin Spectral Data<<<<<
178.204	-76.8
178.424	-76.8
178.644	-76.8
178.864	-70.65
179.084	-23.55
179.304	9.22
179.524	72.7
179.744	29.7
179.964	44.03
180.184	27.65
180.404	-31.74
180.624	-3.07
180.844	-31.74
181.064	25.6
181.283	-37.89
181.503	-66.56
181.723	-37.89
181.943	-27.65
182.163	27.65
182.383	25.6
182.602	-25.6
182.822	80.89
183.042	48.13
183.262	41.98
183.482	50.18
183.701	-9.22
183.921	-21.5
184.141	58.37
184.361	103.42
184.58	44.03
184.8	52.22
185.02	3.07
185.239	78.85
185.459	46.08
185.679	52.22
185.898	11.26
186.118	41.98
186.338	52.22
186.557	17.41
186.777	-66.56
186.997	41.98
187.216	5.12
187.436	-11.26
187.655	103.42
187.875	70.65
188.095	5.12
188.314	117.76
188.534	9.22
188.753	54.27
188.973	5.12
189.192	13.31
189.412	123.9
189.631	7.17
189.851	35.84
190.07	117.76
190.29	-7.17
190.509	41.98
190.729	-31.74
190.948	37.89
191.168	91.13
191.387	1.02
191.607	15.36
191.826	27.65
192.045	7.17
192.265	-27.65
192.484	66.56
192.704	9.22
192.923	58.37
193.142	62.46
193.362	68.61
193.581	-33.79
193.8	82.94
194.02	15.36
194.239	52.22
194.458	19.46
194.678	-41.98
194.897	123.9
195.116	-31.74
195.335	-21.5
195.555	52.22
195.774	9.22
195.993	1.02
196.212	39.94
196.432	23.55
196.651	72.7
196.87	-52.22
197.089	17.41
197.308	11.26
197.528	56.32
197.747	41.98
197.966	54.27
198.185	99.33
198.404	33.79
198.623	3.07
198.842	-27.65
199.062	70.65
199.281	41.98
199.5	11.26
199.719	46.08
199.938	31.74
200.157	9.22
200.376	35.84
200.595	87.04
200.814	44.03
201.033	74.75
201.252	70.65
201.471	99.33
201.69	68.61
201.909	58.37
202.128	48.13
202.347	62.46
202.566	52.22
202.785	3.07
203.004	7.17
203.223	46.08
203.442	91.13
203.661	62.46
203.879	9.22
204.098	56.32
204.317	46.08
204.536	52.22
204.755	54.27
204.974	-39.94
205.193	52.22
205.411	99.33
205.63	17.41
205.849	-37.89
206.068	35.84
206.287	-33.79
206.505	21.5
206.724	66.56
206.943	78.85
207.162	62.46
207.381	15.36
207.599	46.08
207.818	50.18
208.037	13.31
208.255	13.31
208.474	-21.5
208.693	91.13
208.911	11.26
209.13	25.6
209.349	111.61
209.567	62.46
209.786	99.33
210.005	-9.22
210.223	105.47
210.442	17.41
210.661	21.5
210.879	35.84
211.098	29.7
211.316	-33.79
211.535	78.85
211.753	-76.8
211.972	13.31
212.191	-3.07
212.409	105.47
212.628	68.61
212.846	62.46
213.065	76.8
213.283	117.76
213.502	78.85
213.72	33.79
213.938	25.6
214.157	72.7
214.375	-3.07
214.594	-15.36
214.812	48.13
215.031	27.65
215.249	60.42
215.467	25.6
215.686	-21.5
215.904	103.42
216.122	-13.31
216.341	74.75
216.559	58.37
216.778	60.42
216.996	3.07
217.214	70.65
217.432	-23.55
217.651	37.89
217.869	17.41
218.087	37.89
218.306	-19.46
218.524	-33.79
218.742	-50.18
218.96	48.13
219.179	93.18
219.397	33.79
219.615	62.46
219.833	25.6
220.051	25.6
220.27	-37.89
220.488	68.61
220.706	56.32
220.924	-21.5
221.142	-7.17
221.36	58.37
221.578	48.13
221.796	78.85
222.015	19.46
222.233	-7.17
222.451	41.98
222.669	23.55
222.887	25.6
223.105	68.61
223.323	-1.02
223.541	1.02
223.759	64.51
223.977	25.6
224.195	66.56
224.413	109.57
224.631	62.46
224.849	-15.36
225.067	123.9
225.285	-41.98
225.503	66.56
225.721	13.31
225.939	52.22
226.157	-3.07
226.375	9.22
226.592	50.18
226.81	48.13
227.028	11.26
227.246	80.89
227.464	78.85
227.682	17.41
227.9	3.07
228.117	50.18
228.335	21.5
228.553	-13.31
228.771	31.74
228.989	29.7
229.206	31.74
229.424	-44.03
229.642	54.27
229.86	37.89
230.077	60.42
230.295	74.75
230.513	56.32
230.731	60.42
230.948	15.36
231.166	58.37
231.384	-23.55
231.601	41.98
231.819	58.37
232.037	31.74
232.254	11.26
232.472	19.46
232.689	123.9
232.907	29.7
233.125	-44.03
233.342	27.65
233.56	58.37
233.777	7.17
233.995	-27.65
234.213	41.98
234.43	3.07
234.648	99.33
234.865	-5.12
235.083	68.61
235.3	29.7
235.518	-23.55
235.735	48.13
235.953	-37.89
236.17	80.89
236.388	62.46
236.605	35.84
236.822	60.42
237.04	37.89
237.257	25.6
237.475	35.84
237.692	72.7
237.909	48.13
238.127	54.27
238.344	-1.02
238.562	9.22
238.779	-64.51
238.996	-46.08
239.214	89.09
239.431	39.94
239.648	-1.02
239.865	62.46
240.083	17.41
240.3	21.5
240.517	17.41
240.735	93.18
240.952	62.46
241.169	44.03
241.386	37.89
241.603	-27.65
241.821	11.26
242.038	9.22
242.255	15.36
242.472	-5.12
242.689	46.08
242.907	33.79
243.124	39.94
243.341	48.13
243.558	87.04
243.775	13.31
243.992	56.32
244.209	-9.22
244.426	50.18
244.643	41.98
244.86	13.31
245.078	62.46
245.295	3.07
245.512	72.7
245.729	-31.74
245.946	11.26
246.163	-27.65
246.38	-3.07
246.597	-44.03
246.814	17.41
247.031	56.32
247.248	70.65
247.464	29.7
247.681	-13.31
247.898	-3.07
248.115	132.09
248.332	11.26
248.549	-5.12
248.766	48.13
248.983	60.42
249.2	9.22
249.417	27.65
249.633	19.46
249.85	21.5
250.067	-3.07
250.284	54.27
250.501	80.89
250.717	68.61
250.934	-74.75
251.151	44.03
251.368	66.56
251.585	27.65
251.801	17.41
252.018	11.26
252.235	7.17
252.451	5.12
252.668	11.26
252.885	44.03
253.102	-19.46
253.318	44.03
253.535	39.94
253.752	72.7
253.968	105.47
254.185	27.65
254.401	41.98
254.618	9.22
254.835	48.13
255.051	33.79
255.268	15.36
255.484	17.41
255.701	97.28
255.917	31.74
256.134	-1.02
256.351	95.23
256.567	46.08
256.784	72.7
257	-39.94
257.217	148.48
257.433	23.55
257.65	23.55
257.866	25.6
258.082	19.46
258.299	13.31
258.515	21.5
258.732	76.8
258.948	117.76
259.165	21.5
259.381	27.65
259.597	39.94
259.814	31.74
260.03	27.65
260.246	11.26
260.463	21.5
260.679	-1.02
260.895	11.26
261.112	80.89
261.328	23.55
261.544	56.32
261.761	60.42
261.977	-19.46
262.193	19.46
262.409	17.41
262.626	-5.12
262.842	66.56
263.058	82.94
263.274	-29.7
263.49	44.03
263.707	37.89
263.923	72.7
264.139	44.03
264.355	35.84
264.571	13.31
264.787	60.42
265.004	171.01
265.22	25.6
265.436	64.51
265.652	60.42
265.868	80.89
266.084	35.84
266.3	70.65
266.516	17.41
266.732	101.37
266.948	5.12
267.164	21.5
267.38	101.37
267.596	35.84
267.812	123.9
268.028	-5.12
268.244	23.55
268.46	68.61
268.676	89.09
268.892	62.46
269.108	50.18
269.324	46.08
269.54	7.17
269.756	44.03
269.972	123.9
270.188	17.41
270.403	25.6
270.619	25.6
270.835	117.76
271.051	-33.79
271.267	3.07
271.483	33.79
271.698	27.65
271.914	19.46
272.13	54.27
272.346	-15.36
272.562	23.55
272.777	27.65
272.993	11.26
273.209	31.74
273.425	35.84
273.64	33.79
273.856	21.5
274.072	-5.12
274.287	29.7
274.503	84.99
274.719	27.65
274.934	19.46
275.15	48.13
275.366	33.79
275.581	-15.36
275.797	-7.17
276.012	19.46
276.228	64.51
276.444	66.56
276.659	31.74
276.875	11.26
277.09	23.55
277.306	29.7
277.521	-11.26
277.737	82.94
277.952	41.98
278.168	54.27
278.383	-31.74
278.599	9.22
278.814	1.02
279.03	84.99
279.245	27.65
279.461	-15.36
279.676	41.98
279.892	5.12
280.107	78.85
280.322	-52.22
280.538	35.84
280.753	1.02
280.969	-23.55
281.184	-1.02
281.399	29.7
281.615	-11.26
281.83	13.31
282.045	-17.41
282.26	11.26
282.476	62.46
282.691	95.23
282.906	39.94
283.122	62.46
283.337	17.41
283.552	50.18
283.767	27.65
283.983	19.46
284.198	31.74
284.413	82.94
284.628	-13.31
284.843	37.89
285.058	56.32
285.274	89.09
285.489	37.89
285.704	54.27
285.919	39.94
286.134	21.5
286.349	25.6
286.564	-19.46
286.779	115.71
286.995	87.04
287.21	-37.89
287.425	95.23
287.64	7.17
287.855	21.5
288.07	-48.13
288.285	82.94
288.5	82.94
288.715	56.32
288.93	13.31
289.145	41.98
289.36	-7.17
289.575	19.46
289.79	93.18
290.004	41.98
290.219	15.36
290.434	-7.17
290.649	-21.5
290.864	27.65
291.079	25.6
291.294	33.79
291.509	72.7
291.724	35.84
291.938	-15.36
292.153	93.18
292.368	66.56
292.583	52.22
292.798	52.22
293.012	19.46
293.227	50.18
293.442	9.22
293.657	7.17
293.871	115.71
294.086	115.71
294.301	115.71
294.516	48.13
294.73	41.98
294.945	60.42
295.16	35.84
295.374	76.8
295.589	1.02
295.804	23.55
296.018	72.7
296.233	66.56
296.447	74.75
296.662	-1.02
296.877	35.84
297.091	74.75
297.306	-9.22
297.52	31.74
297.735	35.84
297.949	44.03
298.164	37.89
298.378	-19.46
298.593	70.65
298.807	21.5
299.022	52.22
299.236	68.61
299.451	35.84
299.665	-9.22
299.88	29.7
300.094	23.55
300.309	136.19
300.523	76.8
300.737	62.46
300.952	87.04
301.166	74.75
301.381	68.61
301.595	23.55
301.809	46.08
302.024	33.79
302.238	52.22
302.452	62.46
302.667	13.31
302.881	-5.12
303.095	27.65
303.309	48.13
303.524	37.89
303.738	13.31
303.952	31.74
304.166	58.37
304.381	-27.65
304.595	23.55
304.809	62.46
305.023	68.61
305.237	52.22
305.452	97.28
305.666	-1.02
305.88	99.33
306.094	39.94
306.308	19.46
306.522	48.13
306.736	101.37
306.95	1.02
307.164	68.61
307.379	80.89
307.593	91.13
307.807	68.61
308.021	33.79
308.235	80.89
308.449	-66.56
308.663	35.84
308.877	21.5
309.091	-27.65
309.305	25.6
309.519	-41.98
309.733	84.99
309.947	78.85
310.161	44.03
310.374	15.36
310.588	150.53
310.802	41.98
311.016	113.66
311.23	62.46
311.444	82.94
311.658	25.6
311.872	54.27
312.085	105.47
312.299	31.74
312.513	3.07
312.727	-3.07
312.941	33.79
313.154	54.27
313.368	41.98
313.582	140.29
313.796	23.55
314.009	-72.7
314.223	105.47
314.437	15.36
314.651	54.27
314.864	80.89
315.078	-1.02
315.292	111.61
315.505	15.36
315.719	50.18
315.933	58.37
316.146	132.09
316.36	56.32
316.573	50.18
316.787	68.61
317.001	52.22
317.214	25.6
317.428	70.65
317.641	52.22
317.855	50.18
318.068	37.89
318.282	62.46
318.495	154.62
318.709	134.14
318.922	-48.13
319.136	105.47
319.349	25.6
319.563	25.6
319.776	99.33
319.99	25.6
320.203	95.23
320.417	76.8
320.63	60.42
320.843	113.66
321.057	33.79
321.27	37.89
321.483	-7.17
321.697	95.23
321.91	70.65
322.124	58.37
322.337	78.85
322.55	44.03
322.763	70.65
322.977	66.56
323.19	13.31
323.403	44.03
323.617	117.76
323.83	82.94
324.043	54.27
324.256	54.27
324.469	62.46
324.683	15.36
324.896	35.84
325.109	89.09
325.322	-15.36
325.535	78.85
325.748	84.99
325.962	97.28
326.175	80.89
326.388	5.12
326.601	78.85
326.814	-1.02
327.027	56.32
327.24	74.75
327.453	39.94
327.666	25.6
327.879	54.27
328.092	87.04
328.305	37.89
328.518	11.26
328.731	1.02
328.944	54.27
329.157	39.94
329.37	99.33
329.583	121.85
329.796	62.46
330.009	31.74
330.222	44.03
330.435	74.75
330.648	64.51
330.861	60.42
331.073	52.22
331.286	115.71
331.499	78.85
331.712	-5.12
331.925	50.18
332.138	23.55
332.35	74.75
332.563	91.13
332.776	74.75
332.989	46.08
333.202	58.37
333.414	1.02
333.627	-31.74
333.84	23.55
334.053	62.46
334.265	87.04
334.478	62.46
334.691	39.94
334.903	74.75
335.116	33.79
335.329	72.7
335.541	29.7
335.754	52.22
335.966	35.84
336.179	68.61
336.392	-13.31
336.604	-5.12
336.817	95.23
337.029	80.89
337.242	87.04
337.454	91.13
337.667	48.13
337.88	9.22
338.092	37.89
338.305	23.55
338.517	-9.22
338.729	37.89
338.942	68.61
339.154	-3.07
339.367	-17.41
339.579	52.22
339.792	44.03
340.004	74.75
340.217	82.94
340.429	52.22
340.641	-15.36
340.854	15.36
341.066	101.37
341.278	46.08
341.491	74.75
341.703	46.08
341.915	58.37
342.128	93.18
342.34	54.27
342.552	31.74
342.764	68.61
342.977	60.42
343.189	52.22
343.401	15.36
343.613	58.37
343.826	5.12
344.038	60.42
344.25	72.7
344.462	-17.41
344.674	60.42
344.886	48.13
345.099	50.18
345.311	140.29
345.523	74.75
345.735	87.04
345.947	60.42
346.159	9.22
346.371	76.8
346.583	119.81
346.795	111.61
347.007	27.65
347.219	66.56
347.431	15.36
347.643	11.26
347.855	60.42
348.067	156.67
348.279	46.08
348.491	62.46
348.703	39.94
348.915	17.41
349.127	39.94
349.339	15.36
349.551	87.04
349.763	66.56
349.975	76.8
350.187	72.7
350.399	74.75
350.61	46.08
350.822	123.9
351.034	15.36
351.246	74.75
351.458	52.22
351.669	74.75
351.881	82.94
352.093	160.77
352.305	105.47
352.517	101.37
352.728	78.85
352.94	78.85
353.152	33.79
353.363	41.98
353.575	76.8
353.787	115.71
353.999	-7.17
354.21	74.75
354.422	48.13
354.633	58.37
354.845	113.66
355.057	3.07
355.268	68.61
355.48	50.18
355.692	54.27
355.903	76.8
356.115	101.37
356.326	-29.7
356.538	72.7
356.749	58.37
356.961	93.18
357.172	23.55
357.384	70.65
357.595	44.03
357.807	60.42
358.018	56.32
358.23	33.79
358.441	11.26
358.653	25.6
358.864	21.5
359.075	9.22
359.287	41.98
359.498	60.42
359.709	35.84
359.921	60.42
360.132	54.27
360.344	48.13
360.555	91.13
360.766	80.89
360.977	117.76
361.189	50.18
361.4	41.98
361.611	76.8
361.823	105.47
362.034	-5.12
362.245	33.79
362.456	37.89
362.667	37.89
362.879	11.26
363.09	54.27
363.301	13.31
363.512	130.05
363.723	50.18
363.935	62.46
364.146	64.51
364.357	58.37
364.568	82.94
364.779	60.42
364.99	107.52
365.201	56.32
365.412	109.57
365.623	60.42
365.834	70.65
366.045	80.89
366.256	66.56
366.467	89.09
366.678	62.46
366.889	21.5
367.1	31.74
367.311	128
367.522	21.5
367.733	33.79
367.944	39.94
368.155	109.57
368.366	76.8
368.577	48.13
368.788	93.18
368.999	52.22
369.209	19.46
369.42	123.9
369.631	103.42
369.842	-3.07
370.053	97.28
370.264	64.51
370.474	97.28
370.685	95.23
370.896	33.79
371.107	93.18
371.317	58.37
371.528	48.13
371.739	123.9
371.95	113.66
372.16	115.71
372.371	-33.79
372.582	37.89
372.792	107.52
373.003	121.85
373.214	-7.17
373.424	107.52
373.635	54.27
373.846	117.76
374.056	128
374.267	105.47
374.477	58.37
374.688	66.56
374.898	54.27
375.109	101.37
375.319	66.56
375.53	97.28
375.74	56.32
375.951	60.42
376.161	5.12
376.372	25.6
376.582	64.51
376.793	91.13
377.003	48.13
377.214	37.89
377.424	136.19
377.635	74.75
377.845	62.46
378.055	-27.65
378.266	60.42
378.476	68.61
378.686	39.94
378.897	46.08
379.107	66.56
379.317	37.89
379.528	54.27
379.738	11.26
379.948	87.04
380.158	80.89
380.369	37.89
380.579	37.89
380.789	82.94
380.999	115.71
381.21	89.09
381.42	142.33
381.63	54.27
381.84	125.95
382.05	62.46
382.261	111.61
382.471	37.89
382.681	5.12
382.891	107.52
383.101	37.89
383.311	95.23
383.521	48.13
383.731	74.75
383.941	84.99
384.151	23.55
384.361	101.37
384.571	107.52
384.781	181.25
384.991	72.7
385.201	50.18
385.411	123.9
385.621	78.85
385.831	99.33
386.041	109.57
386.251	19.46
386.461	66.56
386.671	84.99
386.881	66.56
387.091	111.61
387.301	74.75
387.511	130.05
387.72	95.23
387.93	99.33
388.14	101.37
388.35	111.61
388.56	99.33
388.769	50.18
388.979	111.61
389.189	101.37
389.399	152.57
389.609	138.24
389.818	109.57
390.028	162.81
390.238	109.57
390.447	33.79
390.657	84.99
390.867	70.65
391.076	56.32
391.286	46.08
391.496	82.94
391.705	132.09
391.915	162.81
392.125	121.85
392.334	109.57
392.544	150.53
392.753	54.27
392.963	91.13
393.172	74.75
393.382	168.96
393.591	99.33
393.801	107.52
394.01	146.43
394.22	101.37
394.429	109.57
394.639	150.53
394.848	146.43
395.058	82.94
395.267	138.24
395.477	-1.02
395.686	93.18
395.895	144.38
396.105	211.96
396.314	166.91
396.524	105.47
396.733	144.38
396.942	140.29
397.152	146.43
397.361	162.81
397.57	150.53
397.78	214.01
397.989	117.76
398.198	166.91
398.407	130.05
398.617	271.36
398.826	89.09
399.035	150.53
399.244	107.52
399.453	144.38
399.663	97.28
399.872	146.43
400.081	103.42
400.29	173.05
400.499	214.01
400.708	205.82
400.917	101.37
401.127	154.62
401.336	130.05
401.545	189.44
401.754	158.72
401.963	203.77
402.172	175.1
402.381	191.49
402.59	203.77
402.799	148.48
403.008	214.01
403.217	191.49
403.426	234.49
403.635	199.68
403.844	207.87
404.053	240.64
404.262	234.49
404.471	216.06
404.68	236.54
404.888	183.29
405.097	173.05
405.306	207.87
405.515	291.84
405.724	205.82
405.933	236.54
406.142	232.44
406.35	289.79
406.559	222.2
406.768	369.66
406.977	285.69
407.185	330.75
407.394	230.4
407.603	252.92
407.812	355.32
408.02	381.95
408.229	433.15
408.438	338.94
408.646	349.18
408.855	392.19
409.064	359.42
409.272	422.91
409.481	408.57
409.69	343.03
409.898	435.19
410.107	373.75
410.315	498.68
410.524	472.06
410.733	525.3
410.941	470.01
411.15	549.88
411.358	586.74
411.567	506.87
411.775	666.61
411.984	566.26
412.192	627.7
412.401	666.61
412.609	756.72
412.818	654.33
413.026	683
413.234	758.77
413.443	771.06
413.651	762.87
413.86	783.35
414.068	850.93
414.276	963.57
414.485	867.31
414.693	975.86
414.901	1033.2
415.11	1043.44
415.318	1018.86
415.526	1006.58
415.734	1078.26
415.943	1174.51
416.151	1176.56
416.359	1240.05
416.567	1367.02
416.776	1334.25
416.984	1340.4
417.192	1543.14
417.4	1485.8
417.608	1563.62
417.817	1489.9
418.025	1567.72
418.233	1692.65
418.441	1758.18
418.649	1809.38
418.857	1903.59
419.065	1905.63
419.273	1915.87
419.481	2092
419.689	2126.82
419.897	2184.16
420.105	2249.69
420.313	2319.32
420.521	2382.81
420.729	2378.72
420.937	2565.08
421.145	2603.99
421.353	2763.73
421.561	2792.41
421.769	2925.52
421.977	3115.98
422.185	2991.06
422.393	3095.5
422.601	3261.39
422.809	3345.36
423.017	3517.39
423.224	3650.5
423.432	3638.22
423.64	3724.23
423.848	4088.77
424.056	3955.65
424.263	4266.94
424.471	4150.21
424.679	4309.95
424.887	4471.74
425.094	4680.63
425.302	4633.53
425.51	4916.15
425.718	5047.22
425.925	5120.95
426.133	5389.23
426.341	5452.72
426.548	5919.65
426.756	5796.78
426.964	5704.62
427.171	6325.15
427.379	6527.9
427.586	6491.04
427.794	6736.79
428.001	6925.21
428.209	7379.86
428.417	7377.81
428.624	7711.63
428.832	7900.04
429.039	7768.97
429.247	7596.94
429.454	8446.85
429.662	8964.98
429.869	8223.62
430.076	9071.48
430.284	8952.7
430.491	9061.24
430.699	9716.59
430.906	9687.92
431.114	9966.44
431.321	10142.57
431.528	10367.84
431.736	10906.46
431.943	11387.73
432.15	11025.24
432.358	11434.83
432.565	12069.7
432.772	12018.5
432.979	12495.68
433.187	12753.73
433.394	12630.85
433.601	13689.65
433.808	13794.09
434.016	13583.15
434.223	14240.55
434.43	15196.95
434.637	14897.95
434.844	15698.7
435.052	16081.67
435.259	15676.18
435.466	16141.07
435.673	16085.77
435.88	17060.6
436.087	18090.73
436.294	18203.37
436.501	17855.22
436.708	17705.71
436.915	18445.03
437.122	19495.64
437.329	19229.4
437.537	19802.83
437.743	20218.57
437.95	19880.66
438.157	21240.51
438.364	21736.12
438.571	21742.26
438.778	22020.78
438.985	23972.5
439.192	23247.52
439.399	23904.92
439.606	23292.57
439.813	24550.03
440.02	25784.95
440.227	25385.6
440.433	25291.39
440.64	26231.41
440.847	25780.85
441.054	26983.01
441.261	28244.56
441.467	27910.74
441.674	28846.66
441.881	29600.32
442.088	29733.43
442.294	29256.26
442.501	29979.19
442.708	30917.16
442.914	31900.19
443.121	33350.15
443.328	32498.19
443.534	34787.82
443.741	33317.38
443.948	32915.98
444.154	35600.86
444.361	35113.45
444.568	35910.11
444.774	35604.96
444.981	36237.78
445.187	37046.73
445.394	38822.32
445.6	37958.08
445.807	41644.42
446.013	40069.53
446.22	40665.49
446.426	42189.18
446.633	42844.53
446.839	43979.1
447.046	42367.35
447.252	44628.31
447.459	44947.79
447.665	44364.12
447.871	46246.21
448.078	48412.96
448.284	46100.8
448.491	47024.43
448.697	48996.63
448.903	49916.17
449.11	49686.79
449.316	49293.58
449.522	50073.86
449.728	51568.88
449.935	51630.32
450.141	51661.04
450.347	53285.07
450.553	50917.62
450.76	52162.79
450.966	53821.64
451.172	53162.2
451.378	54157.51
451.584	53530.83
451.791	54622.4
451.997	54386.88
452.203	55138.49
452.409	55619.76
452.615	54495.42
452.821	53080.28
453.027	52787.42
453.233	55304.37
453.44	52797.66
453.646	53620.94
453.852	53827.79
454.058	55038.14
454.264	53039.32
454.47	53803.21
454.676	52941.02
454.882	54823.1
455.088	50360.58
455.294	51261.68
455.5	51499.25
455.705	52144.36
455.911	50544.89
456.117	49426.7
456.323	48378.14
456.529	46127.42
456.735	48144.67
456.941	47040.82
457.147	46534.97
457.352	44556.63
457.558	44155.23
457.764	44210.53
457.97	43653.48
458.176	42965.36
458.381	42492.28
458.587	40767.89
458.793	41052.56
458.999	39078.32
459.204	41312.65
459.41	39731.62
459.616	37636.55
459.821	37788.1
460.027	37609.92
460.233	36651.47
460.438	34931.18
460.644	35138.02
460.85	33589.76
461.055	33098.25
461.261	33257.99
461.466	30462.51
461.672	29631.04
461.878	32002.58
462.083	29786.68
462.289	29145.67
462.494	28750.41
462.7	27210.34
462.905	26888.81
463.111	27994.71
463.316	28140.11
463.522	26813.03
463.727	27220.58
463.932	27425.37
464.138	26745.45
464.343	27138.66
464.549	26262.13
464.754	27038.31
464.959	26776.17
465.165	26622.57
465.37	25631.35
465.575	25170.56
465.781	25832.05
465.986	26038.9
466.191	25107.07
466.397	24588.94
466.602	23298.72
466.807	24300.17
467.012	24560.27
467.218	24242.83
467.423	23861.91
467.628	24095.38
467.833	25334.4
468.038	24275.6
468.244	23732.89
468.449	24367.76
468.654	23503.51
468.859	23331.48
469.064	23263.9
469.269	22403.75
469.474	22788.77
469.679	23141.02
469.885	22373.03
470.09	22565.54
470.295	22534.82
470.5	21953.2
470.705	22053.55
470.91	21660.34
471.115	21291.71
471.32	21742.26
471.525	21349.05
471.73	21213.88
471.935	20906.69
472.139	20208.33
472.344	20699.84
472.549	20159.18
472.754	20030.16
472.959	19725.01
473.164	19301.08
473.369	19055.33
473.574	19659.48
473.778	19450.58
473.983	19454.68
474.188	19288.79
474.393	18569.96
474.598	18412.26
474.802	18086.64
475.007	18301.67
475.212	18432.74
475.417	17568.5
475.621	17457.91
475.826	17867.5
476.031	17373.94
476.235	17013.5
476.44	17474.29
476.645	17099.52
476.849	16952.06
477.054	16868.09
477.259	16593.67
477.463	16442.12
477.668	15969.04
477.872	16245.51
478.077	15971.08
478.282	15442.71
478.486	15356.69
478.691	15422.23
478.895	15305.49
479.1	15108.89
479.304	15223.58
479.509	14799.65
479.713	15100.7
479.918	14809.89
480.122	14402.34
480.326	14742.3
480.531	14689.06
480.735	14541.6
480.94	14342.95
481.144	14992.16
481.348	14060.33
481.553	14650.14
481.757	14193.45
481.961	14424.87
482.166	14385.96
482.37	14336.81
482.574	14076.71
482.778	14265.13
482.983	14365.48
483.187	14058.28
483.391	14115.62
483.595	13955.88
483.8	13710.13
484.004	14045.99
484.208	14295.85
484.412	14037.8
484.616	14027.56
484.821	14009.13
485.025	13943.6
485.229	14224.17
485.433	14041.9
485.637	14080.81
485.841	13908.78
486.045	13931.31
486.249	14035.75
486.453	14123.82
486.657	13966.12
486.861	13984.55
487.065	13777.71
487.269	14029.61
487.473	13749.04
487.677	14025.51
487.881	14078.76
488.085	14048.04
488.289	14400.29
488.493	13935.4
488.697	14189.35
488.901	14220.07
489.105	14250.79
489.309	14275.37
489.512	14207.78
489.716	14248.74
489.92	14281.51
490.124	14220.07
490.328	14596.9
490.531	14213.93
490.735	14486.31
490.939	14459.68
491.143	14445.35
491.346	14428.96
491.55	14650.14
491.754	14451.49
491.958	14813.98
492.161	14787.36
492.365	14789.41
492.569	14813.98
492.772	14660.38
492.976	15072.03
493.18	15051.55
493.383	15160.09
493.587	15278.87
493.79	15373.08
493.994	14920.48
494.197	15391.51
494.401	15543.06
494.605	15581.97
494.808	15977.23
495.012	15913.74
495.215	15860.49
495.419	15975.18
495.622	16053
495.825	16231.18
496.029	16186.12
496.232	16667.39
496.436	16497.41
496.639	16986.88
496.843	16884.48
497.046	16999.16
497.249	17404.66
497.453	17597.17
497.656	17429.24
497.859	17726.19
498.063	17638.13
498.266	18295.53
498.469	18330.34
498.673	18426.6
498.876	18631.4
499.079	18846.43
499.282	18604.77
499.485	19460.82
499.689	19684.05
499.892	19595.99
500.095	19538.65
500.298	20312.78
500.501	20017.87
500.705	20327.11
500.908	20583.11
501.111	20884.16
501.314	21033.66
501.517	21168.83
501.72	21830.32
501.923	21480.12
502.126	21938.87
502.329	22203.05
502.532	22450.86
502.735	22327.98
502.938	23171.74
503.141	22788.77
503.344	23630.49
503.547	23628.44
503.75	23607.96
503.953	24291.98
504.156	24298.13
504.359	24609.42
504.562	24713.86
504.765	25236.09
504.968	25248.38
505.17	25690.74
505.373	25827.96
505.576	26024.56
505.779	26458.73
505.982	26825.32
506.185	27161.19
506.387	27318.88
506.59	27433.57
506.793	28230.23
506.996	27814.49
507.198	28744.27
507.401	28295.76
507.604	28998.21
507.807	29409.86
508.009	29454.91
508.212	29633.08
508.415	30100.02
508.617	30526
508.82	30601.77
509.022	30491.18
509.225	31183.4
509.428	31664.67
509.63	31773.21
509.833	31590.94
510.035	32457.23
510.238	32557.58
510.44	32875.02
510.643	33301
510.845	33690.11
511.048	33434.11
511.25	34025.98
511.453	34374.13
511.655	35355.11
511.858	34918.89
512.06	35060.2
512.262	35850.72
512.465	35762.65
512.667	36317.65
512.87	36710.86
513.072	36708.82
513.274	37345.73
513.477	38029.76
513.679	37861.82
513.881	38642.1
514.084	39125.42
514.286	38742.45
514.488	38992.3
514.69	39793.06
514.893	39891.36
515.095	40223.13
515.297	40894.86
515.499	40649.11
515.701	41449.86
515.904	41894.27
516.106	41861.51
516.308	42150.27
516.51	42627.45
516.712	42940.78
516.914	43411.82
517.116	44042.59
517.318	43944.29
517.52	44386.65
517.722	44462.43
517.925	44958.03
518.127	45689.16
518.329	45451.59
518.531	45465.93
518.733	46471.48
518.935	46532.92
519.136	47106.35
519.338	47272.24
519.54	47620.39
519.742	48007.46
519.944	47692.07
520.146	49314.06
520.348	49203.47
520.55	49367.31
520.752	49664.27
520.954	50344.19
521.155	50231.55
521.357	50909.43
521.559	50850.04
521.761	51560.69
521.963	51527.92
522.164	51593.45
522.366	52037.86
522.568	52506.85
522.77	52658.4
522.971	53219.54
523.173	53207.25
523.375	53328.08
523.576	53582.03
523.778	53950.66
523.98	54345.92
524.181	54370.5
524.383	54481.09
524.584	54896.83
524.786	54976.7
524.988	54988.98
525.189	55939.24
525.391	55808.17
525.592	56484
525.794	56379.56
525.995	56285.35
526.197	56395.94
526.398	56410.28
526.6	57411.73
526.801	57028.76
527.003	57047.19
527.204	57368.72
527.406	57925.77
527.607	57821.33
527.808	57974.92
528.01	57272.47
528.211	57888.91
528.412	59199.61
528.614	58771.58
528.815	58816.64
529.016	59299.96
529.218	58654.85
529.419	58771.58
529.62	58880.13
529.822	58892.41
530.023	59170.94
530.224	58869.89
530.425	59537.52
530.626	58833.02
530.828	58706.05
531.029	60256.36
531.23	59293.82
531.431	59484.28
531.632	59848.81
531.833	59697.27
532.035	59762.8
532.236	60203.11
532.437	60070
532.638	60014.7
532.839	60174.44
533.04	60076.14
533.241	59680.88
533.442	60706.91
533.643	60412.01
533.844	60330.09
534.045	60346.47
534.246	60147.82
534.447	60891.23
534.648	59969.64
534.849	60244.07
535.05	59834.48
535.251	60190.83
535.451	59973.74
535.652	60184.68
535.853	60203.11
536.054	60768.35
536.255	60485.73
536.456	59863.15
536.657	61128.8
536.857	60252.26
537.058	60242.02
537.259	60430.44
537.46	60344.42
537.66	60481.64
537.861	60354.66
538.062	60170.35
538.263	59996.27
538.463	60143.72
538.664	59875.44
538.865	60385.38
539.065	60485.73
539.266	59779.18
539.466	60911.71
539.667	59644.02
539.868	60434.53
540.068	59783.28
540.269	60072.04
540.469	60436.58
540.67	60113
540.87	60063.85
541.071	59891.82
541.271	60231.78
541.472	60063.85
541.672	59897.97
541.873	59852.91
542.073	59336.82
542.274	60534.88
542.474	59877.49
542.675	59271.29
542.875	60362.85
543.075	59852.91
543.276	59453.56
543.476	60135.53
543.676	59502.71
543.877	59758.7
544.077	60117.1
544.277	59621.49
544.478	59682.93
544.678	59768.94
544.878	59723.89
545.078	59422.84
545.279	59666.55
545.479	59326.58
545.679	59932.78
545.879	59682.93
546.079	59629.68
546.28	59424.89
546.48	59080.83
546.68	59574.39
546.88	60074.09
547.08	60022.89
547.28	59596.91
547.48	58929.28
547.68	59625.59
547.88	59070.59
548.081	59727.98
548.281	59478.13
548.481	59189.37
548.681	59342.97
548.881	59156.6
549.081	59246.71
549.28	59261.05
549.48	59601.01
549.68	59613.3
549.88	59586.67
550.08	59367.54
550.28	59449.46
550.48	59297.91
550.68	59916.4
550.88	58933.37
551.08	59195.51
551.279	58978.43
551.479	59119.74
551.679	58708.1
551.879	58992.76
552.079	58978.43
552.278	59033.72
552.478	58966.14
552.678	58921.08
552.878	59086.97
553.077	59146.36
553.277	58675.33
553.477	59269.24
553.676	58517.64
553.876	59060.35
554.076	58806.4
554.275	58755.2
554.475	58349.7
554.674	58781.82
554.874	58765.44
555.074	58521.73
555.273	58857.6
555.473	58468.48
555.672	58232.97
555.872	58802.3
556.071	58011.79
556.271	58564.74
556.47	58093.71
556.67	57962.64
556.869	58495.11
557.068	58368.13
557.268	58364.04
557.467	58099.85
557.667	58347.65
557.866	58126.47
558.065	58288.26
558.265	57917.58
558.464	57489.55
558.663	58235.02
558.863	57159.83
559.062	58253.45
559.261	57286.81
559.461	57780.37
559.66	57360.53
559.859	57911.44
560.058	57297.05
560.258	57165.98
560.457	56914.08
560.656	57239.7
560.855	57053.34
561.054	57448.6
561.253	56928.41
561.453	57141.4
561.652	56916.12
561.851	57256.09
562.05	56952.99
562.249	56684.7
562.448	57239.7
562.647	56508.58
562.846	56457.38
563.045	56975.51
563.244	56137.9
563.443	56682.66
563.642	55523.5
563.841	55959.72
564.04	56330.4
564.239	56453.28
564.438	55894.19
564.637	56139.94
564.836	56311.97
565.035	55197.88
565.234	56141.99
565.432	55328.95
565.631	55644.33
565.83	55781.55
566.029	55216.31
566.228	54886.59
566.427	54970.55
566.625	54921.4
566.824	54483.14
567.023	55255.22
567.222	54272.2
567.42	55081.14
567.619	54569.15
567.818	54175.94
568.016	54567.1
568.215	54493.38
568.414	54073.54
568.612	54476.99
568.811	53915.85
569.01	54141.13
569.208	53508.3
569.407	54120.65
569.605	53323.99
569.804	54272.2
570.002	53592.27
570.201	53678.28
570.4	53256.4
570.598	52879.58
570.797	53225.68
570.995	53313.75
571.193	52271.33
571.392	53418.19
571.59	52807.9
571.789	52885.72
571.987	52572.38
572.186	52652.25
572.384	52547.81
572.582	52437.22
572.781	52334.82
572.979	51982.57
573.177	52242.66
573.376	52414.69
573.574	52027.62
573.772	52183.27
573.971	51499.25
574.169	51474.67
574.367	51347.7
574.565	51646.7
574.763	51304.69
574.962	51093.75
575.16	50589.95
575.358	50643.2
575.556	50503.93
575.754	51136.76
575.952	50542.84
576.151	50667.77
576.349	49969.41
576.547	50110.72
576.745	50305.28
576.943	50301.18
577.141	49973.51
577.339	50254.08
577.537	49887.49
577.735	49645.83
577.933	49373.45
578.131	49389.84
578.329	49547.53
578.527	49053.97
578.725	49223.95
578.923	49334.54
579.121	49352.97
579.319	48904.47
579.516	49043.73
579.714	48910.61
579.912	48544.03
580.11	48189.73
580.308	48267.55
580.506	48228.64
580.704	47386.92
580.901	48046.37
581.099	48279.84
581.297	47802.66
581.495	47507.76
581.692	47659.3
581.89	47546.67
582.088	47687.98
582.285	47259.95
582.483	47337.77
582.681	47147.31
582.878	46940.47
583.076	46928.18
583.274	46827.83
583.471	46219.58
583.669	46735.67
583.866	46541.11
584.064	46752.05
584.262	46104.9
584.459	45971.78
584.657	46203.2
584.854	46084.42
585.052	45318.48
585.249	45850.95
585.447	45740.36
585.644	45273.42
585.841	45408.59
586.039	45445.45
586.236	44654.93
586.434	44722.52
586.631	44536.15
586.828	44786
587.026	44435.8
587.223	44583.26
587.42	44429.66
587.618	44400.99
587.815	43729.25
588.012	44081.5
588.21	43641.19
588.407	44237.15
588.604	43721.06
588.801	43985.25
588.999	43368.81
589.196	43467.11
589.393	43184.49
589.59	42787.19
589.787	43243.88
589.984	43370.86
590.182	42772.85
590.379	42977.65
590.576	42516.86
590.773	43057.52
590.97	42305.91
591.167	42303.87
591.364	41904.51
591.561	42176.89
591.758	42027.39
591.955	41795.97
592.152	41871.75
592.349	41402.76
592.546	41484.68
592.743	41525.64
592.94	40987.02
593.137	41128.33
593.334	41417.1
593.531	40728.98
593.727	41167.24
593.924	40868.24
594.121	40550.81
594.318	40309.14
594.515	39940.51
594.712	40421.78
594.908	40255.9
595.105	40137.12
595.302	39612.84
595.499	40155.55
595.696	39686.56
595.892	39301.54
596.089	39621.03
596.286	39909.79
596.482	39371.18
596.679	39270.82
596.876	39152.04
597.072	38746.54
597.269	39119.28
597.466	38609.33
597.662	38179.26
597.859	38748.59
598.055	38648.24
598.252	38298.04
598.448	38574.52
598.645	38029.76
598.841	37724.61
599.038	37941.69
599.234	37876.16
599.431	37237.19
599.627	37335.49
599.824	37824.96
600.02	37560.77
600.217	36958.67
600.413	37208.52
600.609	36934.09
600.806	36604.37
601.002	36848.08
601.198	36823.5
601.395	36348.37
601.591	36858.32
601.787	36446.68
601.984	36336.09
602.18	36420.05
602.376	35885.53
602.572	35928.54
602.769	36073.95
602.965	35754.46
603.161	35410.4
603.357	35776.99
603.553	35434.98
603.75	35490.27
603.946	35547.62
604.142	35367.4
604.338	34820.59
604.534	35201.51
604.73	34906.6
604.926	34836.97
605.122	34640.37
605.318	34507.25
605.514	34374.13
605.71	34374.13
605.906	34298.36
606.102	34175.48
606.298	34374.13
606.494	34101.75
606.69	33755.64
606.886	33909.24
607.082	33329.67
607.278	34030.07
607.474	33219.08
607.67	33710.59
607.866	33147.4
608.062	33339.91
608.257	33354.24
608.453	33051.14
608.649	33335.81
608.845	33214.98
609.041	33088.01
609.236	33501.7
609.432	33004.04
609.628	33088.01
609.824	32854.54
610.019	32875.02
610.215	32293.4
610.411	32498.19
610.606	32442.9
610.802	32469.52
610.998	32522.77
611.193	32387.6
611.389	32246.29
611.584	32027.16
611.78	32274.96
611.976	32256.53
612.171	32102.93
612.367	31881.75
612.562	31975.96
612.758	31099.43
612.953	31496.74
613.149	31654.43
613.344	31488.54
613.539	32086.55
613.735	31420.96
613.93	31523.36
614.126	31408.67
614.321	31744.54
614.517	31570.46
614.712	31023.65
614.907	30984.74
615.103	31414.82
615.298	31341.09
615.493	31451.68
615.688	30726.7
615.884	31408.67
616.079	30407.22
616.274	30659.12
616.47	30724.65
616.665	31064.61
616.86	30497.33
617.055	30399.02
617.25	30226.99
617.445	30364.21
617.641	30089.78
617.836	30427.7
618.031	30153.27
618.226	30018.1
618.421	29796.92
618.616	30110.26
618.811	29413.95
619.006	30454.32
619.201	29311.55
619.396	29608.51
619.591	28906.05
619.786	29235.78
619.981	28901.96
620.176	29260.35
620.371	28752.46
620.566	28734.03
620.761	28514.89
620.956	28777.03
621.151	28156.5
621.346	28539.47
621.541	28195.41
621.735	28203.6
621.93	27587.16
622.125	27906.65
622.32	27198.05
622.515	27509.34
622.709	27464.28
622.904	27116.13
623.099	27081.31
623.294	27056.74
623.488	26825.32
623.683	27077.22
623.878	26292.85
624.072	26387.05
624.267	26360.43
624.462	26278.51
624.656	26045.04
624.851	25891.44
625.046	25764.47
625.24	25651.83
625.435	25627.26
625.629	25533.05
625.824	25219.71
626.018	25266.81
626.213	24767.11
626.407	24898.18
626.602	24564.36
626.796	24507.02
626.991	24515.21
627.185	24289.93
627.38	24351.37
627.574	23896.72
627.768	23888.53
627.963	23526.04
628.157	23644.82
628.352	23571.1
628.546	23235.23
628.74	23683.73
628.935	23057.06
629.129	23442.07
629.323	22950.56
629.517	22422.19
629.712	22651.56
629.906	22590.12
630.1	22190.77
630.294	22706.85
630.489	22067.89
630.683	22338.22
630.877	21646.01
631.071	21738.16
631.265	21785.27
631.459	21535.42
631.653	21422.78
631.848	21344.95
632.042	21109.44
632.236	21267.13
632.43	20959.94
632.624	21220.03
632.818	20617.93
633.012	20705.99
633.206	20933.31
633.4	20591.3
633.594	20323.02
633.788	20425.42
633.982	20447.94
634.176	20361.93
634.369	19845.84
634.563	19643.09
634.757	19647.19
634.951	19708.63
635.145	19628.76
635.339	19636.95
635.533	19600.08
635.726	19665.62
635.92	19157.72
636.114	18946.78
636.308	18989.79
636.501	19135.2
636.695	18813.66
636.889	18725.6
637.083	18651.88
637.276	18375.4
637.47	18297.58
637.664	18377.45
637.857	18225.9
638.051	18133.74
638.244	17963.76
638.438	18129.64
638.632	17683.19
638.825	17849.07
639.019	17818.35
639.212	17574.64
639.406	17730.29
639.599	17615.6
639.793	17531.64
639.986	17128.19
640.18	17216.25
640.373	17130.23
640.567	16855.81
640.76	16882.43
640.954	16550.66
641.147	16700.16
641.34	16683.78
641.534	16552.71
641.727	16442.12
641.92	16562.95
642.114	16206.6
642.307	16110.35
642.5	16001.8
642.694	15866.64
642.887	15880.97
643.08	15956.75
643.273	15661.84
643.467	15659.79
643.66	15512.34
643.853	15598.35
644.046	15522.58
644.239	15334.17
644.432	15385.37
644.626	15112.99
644.819	15123.23
645.012	14908.19
645.205	15164.18
645.398	14852.89
645.591	15069.98
645.784	14859.04
645.977	14779.17
646.17	14525.22
646.363	14428.96
646.556	14273.32
646.749	14297.89
646.942	14459.68
647.135	14230.31
647.328	14244.65
647.521	14089
647.714	13861.68
647.907	13970.22
648.099	13833
648.292	13726.51
648.485	13921.07
648.678	13437.75
648.871	13488.95
649.064	13265.72
649.256	13513.52
649.449	13292.34
649.642	13308.72
649.835	13011.77
650.027	12991.29
650.22	13028.15
650.413	13189.94
650.605	12991.29
650.798	12659.52
650.991	12391.23
651.183	12905.28
651.376	12360.52
651.568	12585.79
651.761	12579.65
651.954	12424
652.146	12473.15
652.339	12321.6
652.531	12299.08
652.724	12104.52
652.916	12047.18
653.109	12137.29
653.301	12014.41
653.494	11965.26
653.686	11774.8
653.879	11852.62
654.071	11733.84
654.263	11553.62
654.456	11707.21
654.648	11762.51
654.84	11393.87
655.033	11475.79
655.225	11551.57
655.417	11217.75
655.61	11244.37
655.802	11379.54
655.994	11207.51
656.186	11170.65
656.379	10908.51
656.571	10933.08
656.763	10980.18
656.955	10896.22
657.148	10873.69
657.34	10892.12
657.532	10687.32
657.724	10484.58
657.916	10283.88
658.108	10425.18
658.3	10439.52
658.492	10451.81
658.684	10347.36
658.876	10333.03
659.068	10242.92
659.26	10107.75
659.452	10330.98
659.644	10136.42
659.836	10021.74
660.028	9997.16
660.22	9868.14
660.412	9937.77
660.604	9745.26
660.796	9888.62
660.988	9784.17
661.18	9530.22
661.372	9665.39
661.563	9569.13
661.755	9436.02
661.947	9540.46
662.139	9565.04
662.331	9440.11
662.522	9259.89
662.714	9212.79
662.906	9116.53
663.097	9055.09
663.289	9003.89
663.481	9087.86
663.673	8983.41
663.864	8868.73
664.056	8995.7
664.247	8815.48
664.439	8618.88
664.631	8899.45
664.822	8657.79
665.014	8620.92
665.205	8584.06
665.397	8543.1
665.588	8586.11
665.78	8602.49
665.971	8518.53
666.163	8553.34
666.354	8352.64
666.546	8631.16
666.737	8176.52
666.929	8352.64
667.12	8340.35
667.311	8369.02
667.503	8067.97
667.694	8096.64
667.885	8088.45
668.077	8043.4
668.268	7969.67
668.459	8031.11
668.651	7867.27
668.842	7871.37
669.033	7791.5
669.224	7777.16
669.416	7897.99
669.607	7734.15
669.798	7795.59
669.989	7834.5
670.18	7531.41
670.371	7449.49
670.563	7646.09
670.754	7619.47
670.945	7420.81
671.136	7529.36
671.327	7574.41
671.518	7242.64
671.709	7560.08
671.9	7404.43
672.091	7416.72
672.282	7318.42
672.473	7181.2
672.664	7181.2
672.855	7150.48
673.046	7175.06
673.237	7109.52
673.428	7195.54
673.619	7056.28
673.809	7064.47
674	7017.36
674.191	6978.45
674.382	7119.76
674.573	6892.44
674.764	6744.99
674.954	7009.17
675.145	6644.63
675.336	6826.9
675.527	6677.4
675.717	6857.62
675.908	6683.55
676.099	6753.18
676.289	6787.99
676.48	6542.24
676.671	6425.5
676.861	6597.53
677.052	6638.49
677.243	6529.95
677.433	6581.15
677.624	6493.08
677.814	6394.78
678.005	6462.37
678.195	6386.59
678.386	6542.24
678.576	6466.46
678.767	6380.45
678.957	6386.59
679.148	6271.9
679.338	6380.45
679.529	6355.87
679.719	6212.51
679.909	6308.77
680.1	6249.38
680.29	6208.42
680.481	6165.41
680.671	6222.75
680.861	6056.87
681.052	6110.11
681.242	6056.87
681.432	6214.56
681.622	6099.87
681.813	5974.95
682.003	5981.09
682.193	5852.07
682.383	5954.47
682.573	5860.26
682.764	5866.41
682.954	5860.26
683.144	5800.87
683.334	5688.23
683.524	5743.53
683.714	5862.31
683.904	5811.11
684.094	5948.33
684.284	5872.55
684.474	5704.62
684.664	5811.11
684.854	5581.74
685.044	5700.52
685.234	5671.85
685.424	5686.19
685.614	5444.52
685.804	5403.57
685.994	5551.02
686.184	5622.7
686.374	5483.44
686.564	5397.42
686.753	5467.05
686.943	5307.31
687.133	5460.91
687.323	5292.98
687.513	5526.44
687.702	5370.8
687.892	5323.69
688.082	5354.41
688.272	5184.43
688.461	5141.43
688.651	5346.22
688.841	5155.76
689.03	5133.23
689.22	5166
689.41	5096.37
689.599	5125.04
689.789	5125.04
689.979	4928.44
690.168	4899.77
690.358	4873.14
690.547	4836.28
690.737	5096.37
690.926	4957.11
691.116	4981.68
691.305	4907.96
691.495	4830.13
691.684	4858.81
691.874	4901.81
692.063	4766.65
692.252	4770.74
692.442	4883.38
692.631	4631.48
692.82	4555.71
693.01	4680.63
693.199	4733.88
693.388	4518.84
693.578	4713.4
693.767	4533.18
693.956	4746.17
694.146	4717.5
694.335	4522.94
694.524	4580.28
694.713	4611
694.902	4553.66
695.092	4531.13
695.281	4557.75
695.47	4484.03
695.659	4479.93
695.848	4320.19
696.037	4348.86
696.226	4391.87
696.415	4273.09
696.604	4426.68
696.793	4303.81
696.982	4289.47
697.171	4459.45
697.36	4293.57
697.549	4303.81
697.738	4135.87
697.927	4180.93
698.116	4246.46
698.305	4248.51
698.494	4242.37
698.683	4252.61
698.872	4279.23
699.061	4250.56
699.25	4139.97
699.438	4273.09
699.627	4152.26
699.816	4101.06
700.005	4156.35
700.193	4172.74
700.382	4131.78
700.571	4080.58
700.76	4094.91
700.948	4053.95
701.137	4027.33
701.326	3976.13
701.514	3953.6
701.703	4142.02
701.892	3959.75
702.08	4076.48
702.269	3908.55
702.457	3953.6
702.646	3941.32
702.834	3830.73
703.023	3939.27
703.212	4006.85
703.4	3748.81
703.589	3810.25
703.777	3910.6
703.965	3752.9
704.154	3941.32
704.342	3824.58
704.531	3830.73
704.719	3832.77
704.907	3812.29
705.096	3685.32
705.284	3769.29
705.472	3914.69
705.661	3963.84
705.849	3918.79
706.037	3814.34
706.226	3793.86
706.414	3720.14
706.602	3738.57
706.79	3759.05
706.979	3632.07
707.167	3775.43
707.355	3656.65
707.543	3666.89
707.731	3800.01
707.919	3695.56
708.107	3724.23
708.296	3574.73
708.484	3591.11
708.672	3642.31
708.86	3664.84
709.048	3501
709.236	3646.41
709.424	3619.78
709.612	3662.79
709.8	3474.38
709.988	3548.11
710.176	3560.39
710.364	3548.11
710.551	3494.86
710.739	3408.84
710.927	3636.17
711.115	3369.93
711.303	3494.86
711.491	3546.06
711.679	3486.67
711.866	3453.9
712.054	3492.81
712.242	3406.8
712.43	3488.71
712.617	3478.47
712.805	3421.13
712.993	3353.55
713.181	3421.13
713.368	3582.92
713.556	3548.11
713.744	3363.79
713.931	3464.14
714.119	3269.58
714.306	3470.28
714.494	3306.45
714.682	3236.81
714.869	3519.43
715.057	3320.78
715.244	3343.31
715.432	3369.93
715.619	3271.63
715.807	3314.64
715.994	3320.78
716.182	3247.05
716.369	3353.55
716.556	3185.62
716.744	3267.53
716.931	3253.2
717.119	3257.29
717.306	3290.06
717.493	3253.2
717.681	3261.39
717.868	3140.56
718.055	3331.02
718.242	3306.45
718.43	3187.66
718.617	3189.71
718.804	3236.81
718.991	3322.83
719.179	3177.42
719.366	3228.62
719.553	3105.74
719.74	3150.8
719.927	3048.4
720.114	2986.96
720.301	3234.77
720.488	3181.52
720.676	3068.88
720.863	3134.42
721.05	3161.04
721.237	3058.64
721.424	3091.41
721.611	2986.96
721.798	3036.11
721.985	3019.73
722.172	2974.67
722.358	3025.87
722.545	2958.29
722.732	2991.06
722.919	3087.31
723.106	2993.11
723.293	2960.34
723.48	3013.59
723.667	2864.08
723.853	2976.72
724.04	2974.67
724.227	3040.21
724.414	2980.82
724.6	3062.74
724.787	2909.14
724.974	2941.91
725.161	2866.13
725.347	2814.93
725.534	2941.91
725.72	2941.91
725.907	2806.74
726.094	2984.91
726.28	2864.08
726.467	2816.98
726.653	2806.74
726.84	2943.96
727.027	2804.69
727.213	2776.02
727.4	2941.91
727.586	2851.8
727.773	2784.21
727.959	2900.95
728.145	2841.56
728.332	2831.32
728.518	2857.94
728.705	2837.46
728.891	2915.28
729.077	2808.79
729.264	2712.53
729.45	2872.28
729.636	2814.93
729.823	2745.3
730.009	2847.7
730.195	2741.21
730.382	2722.77
730.568	2608.09
730.754	2702.29
730.94	2819.03
731.126	2618.33
731.313	2825.17
731.499	2874.32
731.685	2726.87
731.871	2671.58
732.057	2655.19
732.243	2800.6
732.429	2644.95
732.615	2825.17
732.801	2694.1
732.987	2698.2
733.173	2622.42
733.359	2548.7
733.545	2601.94
733.731	2696.15
733.917	2718.68
734.103	2618.33
734.289	2698.2
734.475	2571.22
734.661	2548.7
734.847	2737.11
735.033	2804.69
735.219	2642.9
735.404	2681.82
735.59	2761.69
735.776	2632.66
735.962	2606.04
736.148	2698.2
736.333	2558.94
736.519	2554.84
736.705	2706.39
736.89	2530.27
737.076	2530.27
737.262	2528.22
737.447	2534.36
737.633	2448.35
737.819	2415.58
738.004	2608.09
738.19	2434.01
738.375	2563.03
738.561	2567.13
738.747	2509.79
738.932	2460.63
739.118	2472.92
739.303	2374.62
739.489	2507.74
739.674	2477.02
739.859	2524.12
740.045	2458.59
740.23	2298.84
740.416	2348
740.601	2454.49
740.786	2421.72
740.972	2360.28
741.157	2335.71
741.342	2343.9
741.528	2364.38
741.713	2307.04
741.898	2374.62
742.084	2304.99
742.269	2290.65
742.454	2366.43
742.639	2307.04
742.824	2284.51
743.01	2182.11
743.195	2327.52
743.38	2319.32
743.565	2261.98
743.75	2298.84
743.935	2278.37
744.12	2200.54
744.305	2145.25
744.49	2167.77
744.675	2126.82
744.86	2126.82
745.045	2348
745.23	2229.21
745.415	2272.22
745.6	2116.58
745.785	2155.49
745.97	2116.58
746.155	2085.86
746.34	2081.76
746.525	2112.48
746.71	2059.23
746.895	2098.14
747.079	2026.47
747.264	2022.37
747.449	1979.36
747.634	2061.28
747.819	2124.77
748.003	2067.42
748.188	1922.02
748.373	1981.41
748.557	2030.56
748.742	1973.22
748.927	1926.11
749.111	1930.21
749.296	1866.72
749.481	1967.07
749.665	1887.2
749.85	1919.97
750.034	1948.64
750.219	1684.45
750.404	1727.46
750.588	1854.44
750.773	1768.42
750.957	1799.14
751.141	1821.67
751.326	1827.81
751.51	1635.3
751.695	1629.16
751.879	1795.04
752.064	1711.08
752.248	1758.18
752.432	1743.85
752.617	1647.59
752.801	1655.78
752.985	1686.5
753.17	1661.93
753.354	1610.73
753.538	1623.02
753.722	1582.06
753.907	1686.5
754.091	1590.25
754.275	1573.86
754.459	1653.73
754.643	1575.91
754.828	1582.06
755.012	1524.71
755.196	1467.37
755.38	1551.34
755.564	1438.7
755.748	1545.19
755.932	1477.61
756.116	1514.47
756.3	1504.23
756.484	1518.57
756.668	1422.31
756.852	1475.56
757.036	1428.46
757.22	1258.48
757.404	1356.78
757.588	1332.2
757.772	1444.84
757.956	1364.97
758.14	1360.88
758.323	1414.12
758.507	1319.92
758.691	1272.81
758.875	1307.63
759.059	1428.46
759.242	1332.2
759.426	1291.24
759.61	1254.38
759.794	1211.37
759.977	1379.31
760.161	1379.31
760.345	1180.65
760.528	1203.18
760.712	1197.04
760.895	1229.81
761.079	1233.9
761.263	1254.38
761.446	1166.32
761.63	1242.09
761.813	1190.89
761.997	1207.28
762.18	1254.38
762.364	1176.56
762.547	1086.45
762.731	1151.98
762.914	1160.17
763.098	1199.09
763.281	1168.37
763.464	1113.07
763.648	1090.54
763.831	1164.27
764.015	1147.89
764.198	1145.84
764.381	1090.54
764.564	1098.74
764.748	1072.11
764.931	1092.59
765.114	1043.44
765.297	1156.08
765.481	1098.74
765.664	1096.69
765.847	1129.45
766.03	1111.02
766.213	996.34
766.397	1029.1
766.58	1047.54
766.763	1117.17
766.946	1082.35
767.129	1029.1
767.312	1061.87
767.495	1084.4
767.678	928.75
767.861	1000.43
768.044	1051.63
768.227	975.86
768.41	984.05
768.593	1033.2
768.776	992.24
768.959	961.52
769.142	1102.83
769.324	1004.53
769.507	1027.06
769.69	914.42
769.873	865.27
770.056	1041.39
770.239	979.95
770.421	1010.67
770.604	1004.53
770.787	1008.62
770.97	982
771.152	973.81
771.335	959.47
771.518	971.76
771.7	975.86
771.883	975.86
772.066	930.8
772.248	926.71
772.431	861.17
772.613	920.56
772.796	977.91
772.978	990.19
773.161	885.75
773.343	822.26
773.526	814.07
773.708	879.6
773.891	822.26
774.073	807.92
774.256	775.16
774.438	793.59
774.621	832.5
774.803	832.5
774.985	832.5
775.168	769.01
775.35	822.26
775.532	777.2
775.715	820.21
775.897	793.59
776.079	773.11
776.261	771.06
776.444	748.53
776.626	900.08
776.808	781.3
776.99	861.17
777.173	795.64
777.355	711.67
777.537	779.25
777.719	754.68
777.901	687.09
778.083	777.2
778.265	635.89
778.447	785.4
778.629	695.29
778.811	793.59
778.993	691.19
779.175	728.05
779.357	701.43
779.539	648.18
779.721	658.42
779.903	621.56
780.085	637.94
780.267	644.09
780.449	605.17
780.631	668.66
780.812	732.15
780.994	656.37
781.176	648.18
781.358	646.13
781.54	603.13
781.721	601.08
781.903	543.74
782.085	650.23
782.267	646.13
782.448	617.46
782.63	605.17
782.812	551.93
782.993	541.69
783.175	541.69
783.357	543.74
783.538	547.83
783.72	588.79
783.901	533.5
784.083	506.87
784.264	506.87
784.446	574.46
784.627	578.55
784.809	533.5
784.99	533.5
785.172	533.5
785.353	519.16
785.535	558.07
785.716	447.48
785.897	420.86
786.079	451.58
786.26	472.06
786.441	478.2
786.623	476.15
786.804	527.35
786.985	523.26
787.167	523.26
787.348	467.96
787.529	504.82
787.71	486.39
787.891	494.58
788.073	433.15
788.254	517.11
788.435	572.41
788.616	449.53
788.797	367.61
788.978	398.33
789.159	451.58
789.34	367.61
789.522	420.86
789.703	381.95
789.884	463.86
790.065	467.96
790.246	414.71
790.427	472.06
790.607	400.38
790.788	392.19
790.969	322.56
791.15	369.66
791.331	424.95
791.512	513.02
791.693	412.67
791.874	418.81
792.054	383.99
792.235	373.75
792.416	322.56
792.597	424.95
792.778	365.56
792.958	347.13
793.139	330.75
793.32	410.62
793.5	373.75
793.681	334.84
793.862	320.51
794.042	353.27
794.223	373.75
794.404	275.45
794.584	322.56
794.765	326.65
794.945	355.32
795.126	427
795.306	318.46
795.487	324.6
795.667	340.99
795.848	289.79
796.028	310.27
796.209	257.02
796.389	279.55
796.57	306.17
796.75	308.22
796.93	304.12
797.111	269.31
797.291	322.56
797.471	336.89
797.652	320.51
797.832	236.54
798.012	267.26
798.192	250.88
798.373	326.65
798.553	209.92
798.733	189.44
798.913	291.84
799.093	306.17
799.274	418.81
799.454	353.27
799.634	340.99
799.814	312.32
799.994	285.69
800.174	283.64
800.354	242.68
800.534	261.12
800.714	263.16
800.894	293.88
801.074	310.27
801.254	201.72
801.434	326.65
801.614	281.6
801.794	275.45
801.974	572.41
802.154	214.01
802.334	300.03
802.514	273.4
802.693	252.92
802.873	205.82
803.053	281.6
803.233	250.88
803.413	287.74
803.592	259.07
803.772	238.59
803.952	230.4
804.131	201.72
804.311	306.17
804.491	271.36
804.67	166.91
804.85	146.43
805.03	261.12
805.209	250.88
805.389	162.81
805.568	216.06
805.748	236.54
805.928	197.63
806.107	232.44
806.287	218.11
806.466	236.54
806.646	197.63
806.825	175.1
807.004	181.25
807.184	214.01
807.363	201.72
807.543	244.73
807.722	218.11
807.901	193.53
808.081	191.49
808.26	195.58
808.439	148.48
808.619	193.53
808.798	166.91
808.977	205.82
809.156	209.92
809.336	203.77
809.515	162.81
809.694	191.49
809.873	214.01
810.052	222.2
810.231	232.44
810.411	199.68
810.59	230.4
810.769	179.2
810.948	273.4
811.127	128
811.306	160.77
811.485	160.77
811.664	236.54
811.843	164.86
812.022	197.63
812.201	197.63
812.38	136.19
812.559	173.05
812.737	171.01
812.916	191.49
813.095	189.44
813.274	222.2
813.453	125.95
813.632	181.25
813.811	164.86
813.989	136.19
814.168	195.58
814.347	95.23
814.526	168.96
814.704	263.16
814.883	201.72
815.062	134.14
815.24	234.49
815.419	142.33
815.598	115.71
815.776	95.23
815.955	140.29
816.133	121.85
816.312	185.34
816.49	97.28
816.669	111.61
816.847	154.62
817.026	148.48
817.204	183.29
817.383	150.53
817.561	158.72
817.74	78.85
817.918	152.57
818.097	195.58
818.275	146.43
818.453	136.19
818.632	117.76
818.81	123.9
818.988	119.81
819.167	123.9
819.345	89.09
819.523	140.29
819.701	84.99
819.879	109.57
820.058	166.91
820.236	103.42
820.414	91.13
820.592	74.75
820.77	105.47
820.948	173.05
821.127	162.81
821.305	123.9
821.483	70.65
821.661	82.94
821.839	179.2
822.017	44.03
822.195	78.85
822.373	97.28
822.551	89.09
822.729	134.14
822.907	89.09
823.085	181.25
823.262	66.56
823.44	-7.17
823.618	134.14
823.796	95.23
823.974	58.37
824.152	78.85
824.329	64.51
824.507	107.52
824.685	87.04
824.863	76.8
825.04	84.99
825.218	107.52
825.396	115.71
825.574	160.77
825.751	62.46
825.929	107.52
826.107	111.61
826.284	87.04
826.462	87.04
826.639	82.94
826.817	109.57
826.994	136.19
827.172	44.03
827.349	113.66
827.527	50.18
827.704	107.52
827.882	140.29
828.059	140.29
828.237	29.7
828.414	107.52
828.591	87.04
828.769	87.04
828.946	136.19
829.124	121.85
829.301	148.48
829.478	78.85
829.655	179.2
829.833	82.94
830.01	128
830.187	123.9
830.364	64.51
830.542	91.13
830.719	89.09
830.896	62.46
831.073	119.81
831.25	56.32
831.427	144.38
831.604	121.85
831.782	-31.74
831.959	140.29
832.136	74.75
832.313	156.67
832.49	109.57
832.667	70.65
832.844	152.57
833.021	60.42
833.198	50.18
833.374	84.99
833.551	87.04
833.728	119.81
833.905	119.81
834.082	29.7
834.259	72.7
834.436	95.23
834.612	140.29
834.789	142.33
834.966	39.94
835.143	41.98
835.319	11.26
835.496	39.94
835.673	130.05
835.85	125.95
836.026	44.03
836.203	152.57
836.38	74.75
836.556	48.13
836.733	70.65
836.909	103.42
837.086	-5.12
837.262	148.48
837.439	68.61
837.616	37.89
837.792	101.37
837.968	37.89
838.145	25.6
838.321	17.41
838.498	111.61
838.674	25.6
838.851	25.6
839.027	123.9
839.203	7.17
839.38	68.61
839.556	99.33
839.732	91.13
839.909	27.65
840.085	181.25
840.261	33.79
840.437	78.85
840.614	58.37
840.79	21.5
840.966	33.79
841.142	89.09
841.318	113.66
841.494	95.23
841.671	91.13
841.847	31.74
842.023	29.7
842.199	44.03
842.375	9.22
842.551	70.65
842.727	39.94
842.903	128
843.079	21.5
843.255	60.42
843.431	119.81
843.607	70.65
843.783	33.79
843.959	56.32
844.134	33.79
844.31	72.7
844.486	23.55
844.662	-7.17
844.838	23.55
845.013	35.84
845.189	21.5
845.365	27.65
845.541	39.94
845.716	7.17
845.892	101.37
846.068	-5.12
846.244	-15.36
846.419	82.94
846.595	58.37
846.77	58.37
846.946	31.74
847.122	17.41
847.297	54.27
847.473	95.23
847.648	7.17
847.824	62.46
847.999	1.02
848.175	89.09
848.35	68.61
848.526	60.42
848.701	130.05
848.876	44.03
849.052	64.51
849.227	46.08
849.403	33.79
849.578	84.99
849.753	78.85
849.929	105.47
850.104	48.13
850.279	54.27
850.454	15.36
850.63	136.19
850.805	60.42
850.98	-11.26
851.155	25.6
851.33	62.46
851.505	23.55
851.681	7.17
851.856	37.89
852.031	99.33
852.206	-27.65
852.381	13.31
852.556	33.79
852.731	62.46
852.906	33.79
853.081	23.55
853.256	82.94
853.431	58.37
853.606	48.13
853.781	23.55
853.956	-62.46
854.131	25.6
854.305	39.94
854.48	-7.17
854.655	11.26
854.83	33.79
855.005	97.28
855.18	62.46
855.354	54.27
855.529	-15.36
855.704	33.79
855.879	72.7
856.053	15.36
856.228	132.09
856.403	11.26
856.577	58.37
856.752	-3.07
856.926	1.02
857.101	25.6
857.276	-5.12
857.45	52.22
857.625	46.08
857.799	33.79
857.974	41.98
858.148	31.74
858.323	33.79
858.497	19.46
858.672	130.05
858.846	19.46
859.02	31.74
859.195	46.08
859.369	121.85
859.543	-17.41
859.718	70.65
859.892	-11.26
860.066	-27.65
860.241	-15.36
860.415	25.6
860.589	-23.55
860.763	17.41
860.938	76.8
861.112	105.47
861.286	25.6
861.46	-5.12
861.634	37.89
861.808	35.84
861.982	-31.74
862.157	70.65
862.331	-41.98
862.505	35.84
862.679	-3.07
862.853	72.7
863.027	50.18
863.201	72.7
863.375	54.27
863.549	37.89
863.722	3.07
863.896	-3.07
864.07	23.55
864.244	41.98
864.418	23.55
864.592	44.03
864.766	56.32
864.939	-33.79
865.113	-9.22
865.287	-13.31
865.461	5.12
865.634	9.22
865.808	39.94
865.982	58.37
866.156	23.55
866.329	9.22
866.503	87.04
866.676	9.22
866.85	64.51
867.024	-9.22
867.197	66.56
867.371	13.31
867.544	27.65
867.718	-21.5
867.891	46.08
868.065	-19.46
868.238	3.07
868.412	1.02
868.585	37.89
868.759	-7.17
868.932	17.41
869.105	1.02
869.279	-11.26
869.452	60.42
869.625	-41.98
869.799	89.09
869.972	-1.02
870.145	5.12
870.319	11.26
870.492	62.46
870.665	27.65
870.838	-7.17
871.011	5.12
871.185	-25.6
871.358	-3.07
871.531	17.41
871.704	-46.08
871.877	-19.46
872.05	46.08
872.223	82.94
872.396	37.89
872.569	29.7
872.742	-13.31
872.915	-27.65
873.088	21.5
873.261	-13.31
873.434	-11.26
873.607	35.84
873.78	44.03
873.953	-5.12
874.126	25.6
874.299	17.41
874.471	9.22
874.644	19.46
874.817	15.36
874.99	101.37
875.163	27.65
875.335	17.41
875.508	-13.31
875.681	41.98
875.853	-11.26
876.026	-1.02
876.199	52.22
876.371	-19.46
876.544	33.79
876.717	13.31
876.889	48.13
877.062	17.41
877.234	-5.12
877.407	3.07
877.579	-23.55
877.752	11.26
877.924	-25.6
878.097	58.37
878.269	17.41
878.442	44.03
878.614	1.02
878.786	13.31
878.959	37.89
879.131	37.89
879.303	-23.55
879.476	-1.02
879.648	119.81
879.82	41.98
879.993	39.94
880.165	-27.65
880.337	9.22
880.509	-46.08
880.681	13.31
880.854	76.8
881.026	31.74
881.198	62.46
881.37	-33.79
881.542	-31.74
881.714	39.94
881.886	52.22
882.058	58.37
882.23	74.75
882.402	15.36
882.574	62.46
882.746	48.13
882.918	82.94
883.09	-25.6
883.262	89.09
883.434	25.6
883.606	-46.08
883.778	44.03
883.95	70.65
884.122	31.74
884.293	93.18
884.465	-31.74
884.637	56.32
884.809	-23.55
884.98	-23.55
885.152	46.08
885.324	-15.36
885.496	-29.7
885.667	50.18
885.839	-39.94
886.011	44.03
886.182	11.26
886.354	25.6
886.525	41.98
886.697	-33.79
886.869	-7.17
887.04	-80.89
887.212	68.61
887.383	103.42
887.555	21.5
887.726	41.98
887.897	-54.27
888.069	54.27
888.24	41.98
888.412	27.65
888.583	-3.07
888.754	80.89
888.926	-39.94
889.097	23.55
889.268	-7.17
889.44	80.89
889.611	-21.5
889.782	-9.22
889.953	19.46
890.125	15.36
890.296	-31.74
890.467	-5.12
890.638	-15.36
890.809	48.13
890.98	56.32
891.151	3.07
891.323	15.36
891.494	-41.98
891.665	-21.5
891.836	9.22
892.007	-15.36
892.178	80.89
892.349	25.6
892.52	-29.7
892.691	-41.98
892.862	-13.31
893.032	-1.02
893.203	3.07
893.374	-3.07
893.545	128
893.716	58.37
893.887	78.85
894.057	-5.12
894.228	29.7
894.399	13.31
894.57	87.04
894.74	46.08
894.911	17.41
895.082	54.27
895.253	-35.84
895.423	-46.08
895.594	-23.55
895.764	115.71
895.935	-29.7
896.106	-25.6
896.276	25.6
896.447	46.08
896.617	27.65
896.788	39.94
896.958	-1.02
897.129	-3.07
897.299	-37.89
897.47	-56.32
897.64	41.98
897.81	39.94
897.981	-15.36
898.151	-37.89
898.322	31.74
898.492	-35.84
898.662	-1.02
898.832	-25.6
899.003	101.37
899.173	70.65
899.343	27.65
899.513	7.17
