Data from USB4F104151__58__12-36-26-036.txt Node

Date: Fri Mar 14 12:36:26 EDT 2025
User: louis
Spectrometer: USB4F10415
Trigger mode: 4
Integration Time (sec): 2.000000E-2
Scans to average: 1
Electric dark correction enabled: true
Nonlinearity correction enabled: false
Boxcar width: 0
XAxis mode: Wavelengths
Number of Pixels in Spectrum: 3648
>>>>>Begin Spectral Data<<<<<
178.204	-97.62
178.424	-97.62
178.644	-97.62
178.864	-97.62
179.084	-95.57
179.304	-64.85
179.524	-19.8
179.744	-19.8
179.964	86.7
180.184	0.68
180.404	8.87
180.624	-30.04
180.844	-9.56
181.064	111.27
181.283	-7.51
181.503	-52.56
181.723	-3.41
181.943	-66.9
182.163	51.88
182.383	33.45
182.602	-17.75
182.822	74.41
183.042	39.59
183.262	-23.89
183.482	23.21
183.701	-13.65
183.921	-34.13
184.141	-30.04
184.361	144.04
184.58	19.11
184.8	92.84
185.02	-38.23
185.239	25.26
185.459	-17.75
185.679	0.68
185.898	35.5
186.118	78.51
186.338	12.97
186.557	39.59
186.777	29.35
186.997	-3.41
187.216	58.03
187.436	41.64
187.655	-23.89
187.875	-15.7
188.095	39.59
188.314	-38.23
188.534	45.74
188.753	64.17
188.973	111.27
189.192	60.07
189.412	-5.46
189.631	6.83
189.851	27.31
190.07	37.55
190.29	-3.41
190.509	23.21
190.729	58.03
190.948	39.59
191.168	166.57
191.387	6.83
191.607	94.89
191.826	8.87
192.045	-19.8
192.265	-62.8
192.484	49.83
192.704	23.21
192.923	12.97
193.142	43.69
193.362	60.07
193.581	2.73
193.8	53.93
194.02	64.17
194.239	39.59
194.458	86.7
194.678	-21.85
194.897	-27.99
195.116	53.93
195.335	12.97
195.555	15.02
195.774	125.61
195.993	55.98
196.212	25.26
196.432	-1.37
196.651	2.73
196.87	8.87
197.089	23.21
197.308	70.31
197.528	94.89
197.747	-3.41
197.966	17.07
198.185	-7.51
198.404	-13.65
198.623	-44.37
198.842	53.93
199.062	-40.28
199.281	2.73
199.5	60.07
199.719	25.26
199.938	55.98
200.157	4.78
200.376	17.07
200.595	58.03
200.814	-32.08
201.033	-11.61
201.252	12.97
201.471	-11.61
201.69	47.79
201.909	43.69
202.128	60.07
202.347	-7.51
202.566	51.88
202.785	-81.24
203.004	45.74
203.223	76.46
203.442	17.07
203.661	-5.46
203.879	84.65
204.098	-7.51
204.317	27.31
204.536	49.83
204.755	72.36
204.974	12.97
205.193	-46.42
205.411	-17.75
205.63	19.11
205.849	31.4
206.068	35.5
206.287	19.11
206.505	49.83
206.724	-64.85
206.943	6.83
207.162	27.31
207.381	-13.65
207.599	0.68
207.818	-21.85
208.037	10.92
208.255	-5.46
208.474	88.75
208.693	-95.57
208.911	15.02
209.13	-3.41
209.349	-3.41
209.567	45.74
209.786	51.88
210.005	2.73
210.223	-38.23
210.442	49.83
210.661	60.07
210.879	55.98
211.098	-3.41
211.316	66.22
211.535	-32.08
211.753	55.98
211.972	41.64
212.191	-36.18
212.409	-1.37
212.628	37.55
212.846	101.03
213.065	23.21
213.283	92.84
213.502	-11.61
213.72	74.41
213.938	51.88
214.157	19.11
214.375	58.03
214.594	25.26
214.812	55.98
215.031	66.22
215.249	10.92
215.467	-25.94
215.686	8.87
215.904	-9.56
216.122	43.69
216.341	15.02
216.559	58.03
216.778	-75.09
216.996	105.13
217.214	-1.37
217.432	-13.65
217.651	15.02
217.869	51.88
218.087	-15.7
218.306	-38.23
218.524	41.64
218.742	-21.85
218.96	-68.95
219.179	82.6
219.397	4.78
219.615	35.5
219.833	-32.08
220.051	19.11
220.27	-5.46
220.488	47.79
220.706	55.98
220.924	0.68
221.142	47.79
221.36	25.26
221.578	-27.99
221.796	117.42
222.015	19.11
222.233	6.83
222.451	39.59
222.669	47.79
222.887	29.35
223.105	-77.14
223.323	35.5
223.541	37.55
223.759	-32.08
223.977	-30.04
224.195	101.03
224.413	19.11
224.631	58.03
224.849	-13.65
225.067	80.55
225.285	45.74
225.503	41.64
225.721	-7.51
225.939	-40.28
226.157	74.41
226.375	115.37
226.592	-7.51
226.81	25.26
227.028	2.73
227.246	33.45
227.464	39.59
227.682	29.35
227.9	-3.41
228.117	2.73
228.335	51.88
228.553	37.55
228.771	31.4
228.989	-17.75
229.206	25.26
229.424	4.78
229.642	45.74
229.86	-23.89
230.077	17.07
230.295	90.79
230.513	33.45
230.731	68.27
230.948	-17.75
231.166	53.93
231.384	15.02
231.601	47.79
231.819	29.35
232.037	-1.37
232.254	86.7
232.472	78.51
232.689	-25.94
232.907	49.83
233.125	-58.71
233.342	-44.37
233.56	4.78
233.777	-54.61
233.995	55.98
234.213	25.26
234.43	4.78
234.648	21.16
234.865	-5.46
235.083	39.59
235.3	31.4
235.518	15.02
235.735	-5.46
235.953	98.99
236.17	12.97
236.388	68.27
236.605	45.74
236.822	-44.37
237.04	43.69
237.257	62.12
237.475	27.31
237.692	10.92
237.909	51.88
238.127	-19.8
238.344	51.88
238.562	19.11
238.779	10.92
238.996	27.31
239.214	43.69
239.431	29.35
239.648	-9.56
239.865	47.79
240.083	-11.61
240.3	27.31
240.517	-58.71
240.735	6.83
240.952	82.6
241.169	-46.42
241.386	43.69
241.603	-19.8
241.821	19.11
242.038	53.93
242.255	12.97
242.472	78.51
242.689	-7.51
242.907	27.31
243.124	64.17
243.341	19.11
243.558	17.07
243.775	2.73
243.992	41.64
244.209	74.41
244.426	27.31
244.643	41.64
244.86	-23.89
245.078	15.02
245.295	-9.56
245.512	-25.94
245.729	64.17
245.946	107.18
246.163	47.79
246.38	84.65
246.597	17.07
246.814	41.64
247.031	70.31
247.248	-30.04
247.464	17.07
247.681	58.03
247.898	23.21
248.115	-11.61
248.332	23.21
248.549	64.17
248.766	68.27
248.983	-58.71
249.2	29.35
249.417	72.36
249.633	4.78
249.85	80.55
250.067	10.92
250.284	96.94
250.501	94.89
250.717	-3.41
250.934	-9.56
251.151	27.31
251.368	2.73
251.585	-9.56
251.801	15.02
252.018	-1.37
252.235	64.17
252.451	25.26
252.668	23.21
252.885	10.92
253.102	60.07
253.318	-27.99
253.535	80.55
253.752	-23.89
253.968	-27.99
254.185	-34.13
254.401	-3.41
254.618	4.78
254.835	-36.18
255.051	33.45
255.268	60.07
255.484	49.83
255.701	78.51
255.917	76.46
256.134	-23.89
256.351	60.07
256.567	64.17
256.784	21.16
257	-91.48
257.217	21.16
257.433	58.03
257.65	53.93
257.866	64.17
258.082	-11.61
258.299	25.26
258.515	19.11
258.732	39.59
258.948	-25.94
259.165	-9.56
259.381	111.27
259.597	-1.37
259.814	39.59
260.03	72.36
260.246	29.35
260.463	-5.46
260.679	121.51
260.895	-23.89
261.112	41.64
261.328	-19.8
261.544	27.31
261.761	160.42
261.977	2.73
262.193	-23.89
262.409	84.65
262.626	29.35
262.842	-23.89
263.058	15.02
263.274	-52.56
263.49	8.87
263.707	33.45
263.923	47.79
264.139	49.83
264.355	0.68
264.571	49.83
264.787	29.35
265.004	15.02
265.22	6.83
265.436	8.87
265.652	43.69
265.868	25.26
266.084	21.16
266.3	4.78
266.516	2.73
266.732	47.79
266.948	-17.75
267.164	6.83
267.38	-9.56
267.596	58.03
267.812	92.84
268.028	25.26
268.244	-38.23
268.46	8.87
268.676	-38.23
268.892	45.74
269.108	-1.37
269.324	0.68
269.54	6.83
269.756	-23.89
269.972	10.92
270.188	-5.46
270.403	-7.51
270.619	98.99
270.835	-3.41
271.051	86.7
271.267	43.69
271.483	76.46
271.698	43.69
271.914	80.55
272.13	78.51
272.346	41.64
272.562	6.83
272.777	96.94
272.993	-15.7
273.209	-7.51
273.425	-7.51
273.64	17.07
273.856	35.5
274.072	8.87
274.287	-107.86
274.503	0.68
274.719	17.07
274.934	12.97
275.15	31.4
275.366	39.59
275.581	-101.72
275.797	78.51
276.012	45.74
276.228	51.88
276.444	-38.23
276.659	58.03
276.875	33.45
277.09	-3.41
277.306	-32.08
277.521	15.02
277.737	62.12
277.952	17.07
278.168	-27.99
278.383	68.27
278.599	41.64
278.814	19.11
279.03	0.68
279.245	103.08
279.461	25.26
279.676	76.46
279.892	23.21
280.107	27.31
280.322	41.64
280.538	23.21
280.753	-19.8
280.969	25.26
281.184	51.88
281.399	74.41
281.615	47.79
281.83	113.32
282.045	-17.75
282.26	-11.61
282.476	51.88
282.691	68.27
282.906	-7.51
283.122	33.45
283.337	-52.56
283.552	-19.8
283.767	43.69
283.983	43.69
284.198	2.73
284.413	62.12
284.628	62.12
284.843	33.45
285.058	-5.46
285.274	-60.76
285.489	58.03
285.704	-23.89
285.919	-30.04
286.134	80.55
286.349	119.46
286.564	58.03
286.779	27.31
286.995	19.11
287.21	60.07
287.425	27.31
287.64	19.11
287.855	76.46
288.07	6.83
288.285	80.55
288.5	51.88
288.715	39.59
288.93	27.31
289.145	27.31
289.36	-19.8
289.575	2.73
289.79	70.31
290.004	-15.7
290.219	35.5
290.434	51.88
290.649	21.16
290.864	19.11
291.079	4.78
291.294	41.64
291.509	78.51
291.724	-48.47
291.938	37.55
292.153	6.83
292.368	33.45
292.583	21.16
292.798	70.31
293.012	47.79
293.227	105.13
293.442	17.07
293.657	-23.89
293.871	82.6
294.086	39.59
294.301	90.79
294.516	33.45
294.73	39.59
294.945	12.97
295.16	70.31
295.374	109.22
295.589	-54.61
295.804	94.89
296.018	4.78
296.233	58.03
296.447	27.31
296.662	-17.75
296.877	47.79
297.091	2.73
297.306	51.88
297.52	55.98
297.735	21.16
297.949	-25.94
298.164	12.97
298.378	90.79
298.593	0.68
298.807	-34.13
299.022	55.98
299.236	43.69
299.451	33.45
299.665	43.69
299.88	60.07
300.094	39.59
300.309	-5.46
300.523	10.92
300.737	12.97
300.952	23.21
301.166	35.5
301.381	-54.61
301.595	66.22
301.809	39.59
302.024	45.74
302.238	39.59
302.452	64.17
302.667	-25.94
302.881	47.79
303.095	41.64
303.309	-3.41
303.524	64.17
303.738	33.45
303.952	-11.61
304.166	-11.61
304.381	17.07
304.595	80.55
304.809	96.94
305.023	33.45
305.237	-25.94
305.452	23.21
305.666	74.41
305.88	62.12
306.094	80.55
306.308	60.07
306.522	6.83
306.736	21.16
306.95	68.27
307.164	43.69
307.379	70.31
307.593	45.74
307.807	25.26
308.021	131.75
308.235	47.79
308.449	-50.52
308.663	37.55
308.877	33.45
309.091	17.07
309.305	25.26
309.519	-50.52
309.733	35.5
309.947	47.79
310.161	76.46
310.374	25.26
310.588	-46.42
310.802	4.78
311.016	78.51
311.23	-19.8
311.444	60.07
311.658	86.7
311.872	33.45
312.085	-1.37
312.299	146.09
312.513	111.27
312.727	88.75
312.941	45.74
313.154	51.88
313.368	33.45
313.582	82.6
313.796	135.85
314.009	33.45
314.223	62.12
314.437	84.65
314.651	117.42
314.864	82.6
315.078	74.41
315.292	-1.37
315.505	-36.18
315.719	29.35
315.933	15.02
316.146	10.92
316.36	37.55
316.573	55.98
316.787	19.11
317.001	-5.46
317.214	-27.99
317.428	53.93
317.641	12.97
317.855	6.83
318.068	58.03
318.282	45.74
318.495	70.31
318.709	92.84
318.922	10.92
319.136	119.46
319.349	62.12
319.563	76.46
319.776	98.99
319.99	-40.28
320.203	66.22
320.417	72.36
320.63	4.78
320.843	90.79
321.057	29.35
321.27	45.74
321.483	115.37
321.697	74.41
321.91	12.97
322.124	51.88
322.337	-1.37
322.55	39.59
322.763	23.21
322.977	60.07
323.19	66.22
323.403	72.36
323.617	94.89
323.83	23.21
324.043	51.88
324.256	101.03
324.469	31.4
324.683	94.89
324.896	96.94
325.109	62.12
325.322	19.11
325.535	39.59
325.748	64.17
325.962	64.17
326.175	80.55
326.388	96.94
326.601	39.59
326.814	76.46
327.027	33.45
327.24	84.65
327.453	6.83
327.666	76.46
327.879	129.7
328.092	66.22
328.305	-9.56
328.518	86.7
328.731	-19.8
328.944	78.51
329.157	68.27
329.37	19.11
329.583	121.51
329.796	47.79
330.009	64.17
330.222	105.13
330.435	-3.41
330.648	31.4
330.861	49.83
331.073	17.07
331.286	47.79
331.499	58.03
331.712	125.61
331.925	98.99
332.138	123.56
332.35	4.78
332.563	10.92
332.776	39.59
332.989	31.4
333.202	58.03
333.414	49.83
333.627	29.35
333.84	15.02
334.053	12.97
334.265	47.79
334.478	0.68
334.691	53.93
334.903	21.16
335.116	55.98
335.329	21.16
335.541	0.68
335.754	15.02
335.966	66.22
336.179	55.98
336.392	70.31
336.604	41.64
336.817	4.78
337.029	-30.04
337.242	10.92
337.454	53.93
337.667	29.35
337.88	94.89
338.092	84.65
338.305	51.88
338.517	70.31
338.729	49.83
338.942	49.83
339.154	66.22
339.367	29.35
339.579	4.78
339.792	31.4
340.004	74.41
340.217	62.12
340.429	72.36
340.641	96.94
340.854	19.11
341.066	62.12
341.278	74.41
341.491	53.93
341.703	107.18
341.915	60.07
342.128	88.75
342.34	49.83
342.552	49.83
342.764	0.68
342.977	-44.37
343.189	31.4
343.401	19.11
343.613	6.83
343.826	74.41
344.038	41.64
344.25	41.64
344.462	37.55
344.674	10.92
344.886	80.55
345.099	135.85
345.311	84.65
345.523	-3.41
345.735	41.64
345.947	35.5
346.159	76.46
346.371	105.13
346.583	-9.56
346.795	53.93
347.007	53.93
347.219	125.61
347.431	27.31
347.643	92.84
347.855	10.92
348.067	78.51
348.279	-19.8
348.491	43.69
348.703	68.27
348.915	12.97
349.127	29.35
349.339	58.03
349.551	35.5
349.763	8.87
349.975	60.07
350.187	29.35
350.399	-7.51
350.61	68.27
350.822	43.69
351.034	84.65
351.246	6.83
351.458	66.22
351.669	49.83
351.881	96.94
352.093	17.07
352.305	135.85
352.517	84.65
352.728	84.65
352.94	-17.75
353.152	33.45
353.363	66.22
353.575	76.46
353.787	86.7
353.999	84.65
354.21	78.51
354.422	47.79
354.633	29.35
354.845	21.16
355.057	-11.61
355.268	49.83
355.48	15.02
355.692	125.61
355.903	70.31
356.115	66.22
356.326	51.88
356.538	41.64
356.749	35.5
356.961	90.79
357.172	111.27
357.384	53.93
357.595	141.99
357.807	25.26
358.018	-5.46
358.23	92.84
358.441	129.7
358.653	33.45
358.864	2.73
359.075	17.07
359.287	47.79
359.498	115.37
359.709	37.55
359.921	43.69
360.132	19.11
360.344	55.98
360.555	31.4
360.766	-3.41
360.977	51.88
361.189	64.17
361.4	12.97
361.611	90.79
361.823	31.4
362.034	92.84
362.245	29.35
362.456	94.89
362.667	62.12
362.879	135.85
363.09	49.83
363.301	64.17
363.512	49.83
363.723	111.27
363.935	33.45
364.146	58.03
364.357	-11.61
364.568	47.79
364.779	31.4
364.99	92.84
365.201	21.16
365.412	66.22
365.623	117.42
365.834	115.37
366.045	-5.46
366.256	96.94
366.467	88.75
366.678	115.37
366.889	78.51
367.1	27.31
367.311	92.84
367.522	31.4
367.733	70.31
367.944	82.6
368.155	39.59
368.366	37.55
368.577	146.09
368.788	109.22
368.999	41.64
369.209	-21.85
369.42	103.08
369.631	33.45
369.842	66.22
370.053	19.11
370.264	27.31
370.474	-7.51
370.685	49.83
370.896	21.16
371.107	60.07
371.317	25.26
371.528	53.93
371.739	55.98
371.95	58.03
372.16	121.51
372.371	45.74
372.582	74.41
372.792	6.83
373.003	119.46
373.214	35.5
373.424	88.75
373.635	10.92
373.846	55.98
374.056	68.27
374.267	113.32
374.477	76.46
374.688	37.55
374.898	76.46
375.109	41.64
375.319	86.7
375.53	21.16
375.74	0.68
375.951	55.98
376.161	31.4
376.372	55.98
376.582	68.27
376.793	98.99
377.003	125.61
377.214	41.64
377.424	27.31
377.635	66.22
377.845	82.6
378.055	113.32
378.266	49.83
378.476	60.07
378.686	82.6
378.897	62.12
379.107	115.37
379.317	66.22
379.528	105.13
379.738	47.79
379.948	23.21
380.158	74.41
380.369	113.32
380.579	49.83
380.789	49.83
380.999	49.83
381.21	103.08
381.42	51.88
381.63	-23.89
381.84	82.6
382.05	88.75
382.261	66.22
382.471	80.55
382.681	0.68
382.891	41.64
383.101	35.5
383.311	19.11
383.521	66.22
383.731	10.92
383.941	35.5
384.151	23.21
384.361	84.65
384.571	62.12
384.781	101.03
384.991	107.18
385.201	213.67
385.411	168.62
385.621	53.93
385.831	64.17
386.041	141.99
386.251	66.22
386.461	164.52
386.671	101.03
386.881	60.07
387.091	117.42
387.301	101.03
387.511	60.07
387.72	76.46
387.93	84.65
388.14	60.07
388.35	86.7
388.56	129.7
388.769	129.7
388.979	86.7
389.189	55.98
389.399	25.26
389.609	72.36
389.818	160.42
390.028	88.75
390.238	80.55
390.447	133.8
390.657	92.84
390.867	119.46
391.076	92.84
391.286	82.6
391.496	76.46
391.705	49.83
391.915	131.75
392.125	76.46
392.334	49.83
392.544	82.6
392.753	51.88
392.963	76.46
393.172	105.13
393.382	51.88
393.591	131.75
393.801	98.99
394.01	70.31
394.22	21.16
394.429	92.84
394.639	98.99
394.848	141.99
395.058	27.31
395.267	109.22
395.477	105.13
395.686	166.57
395.895	166.57
396.105	98.99
396.314	88.75
396.524	62.12
396.733	72.36
396.942	160.42
397.152	127.66
397.361	131.75
397.57	139.94
397.78	166.57
397.989	117.42
398.198	185
398.407	154.28
398.617	117.42
398.826	123.56
399.035	121.51
399.244	168.62
399.453	88.75
399.663	135.85
399.872	121.51
400.081	180.9
400.29	164.52
400.499	125.61
400.708	182.95
400.917	201.38
401.127	152.23
401.336	166.57
401.545	148.14
401.754	211.62
401.963	182.95
402.172	141.99
402.381	193.19
402.59	121.51
402.799	125.61
403.008	150.18
403.217	168.62
403.426	238.25
403.635	195.24
403.844	250.53
404.053	221.86
404.262	178.86
404.471	225.96
404.68	197.29
404.888	187.05
405.097	182.95
405.306	197.29
405.515	207.53
405.724	223.91
405.933	225.96
406.142	238.25
406.35	207.53
406.559	260.77
406.768	275.11
406.977	275.11
407.185	328.36
407.394	307.88
407.603	338.6
407.812	348.84
408.02	326.31
408.229	338.6
408.438	281.25
408.646	416.42
408.855	357.03
409.064	383.65
409.272	322.21
409.481	428.71
409.69	400.04
409.898	449.19
410.107	455.33
410.315	527.01
410.524	524.96
410.733	498.34
410.941	494.24
411.15	451.24
411.358	479.91
411.567	584.35
411.775	600.74
411.984	649.89
412.192	602.79
412.401	656.03
412.609	682.66
412.818	705.18
413.026	770.72
413.234	760.48
413.443	805.53
413.651	787.1
413.86	797.34
414.068	887.45
414.276	834.21
414.485	952.99
414.693	932.51
414.901	952.99
415.11	1026.71
415.318	1049.24
415.526	1118.87
415.734	1143.45
415.943	1133.21
416.151	1170.07
416.359	1190.55
416.567	1213.08
416.776	1305.24
416.984	1424.02
417.192	1407.64
417.4	1424.02
417.608	1344.15
417.817	1436.31
418.025	1620.63
418.233	1671.83
418.441	1661.59
418.649	1747.6
418.857	1835.66
419.065	1903.25
419.273	1903.25
419.481	1995.4
419.689	2048.65
419.897	2261.64
420.105	2124.43
420.313	2359.94
420.521	2341.51
420.729	2433.67
420.937	2441.86
421.145	2687.62
421.353	2634.37
421.561	2810.5
421.769	2845.31
421.977	2947.71
422.185	2992.76
422.393	3091.07
422.601	3332.73
422.809	3400.31
423.017	3342.97
423.224	3564.15
423.432	3560.05
423.64	3766.9
423.848	3992.17
424.056	3814
424.263	4117.1
424.471	4217.45
424.679	4153.96
424.887	4315.75
425.094	4579.94
425.302	4711.01
425.51	4921.95
425.718	5073.5
425.925	5059.17
426.133	5288.54
426.341	5274.2
426.548	5778
426.756	5837.39
426.964	5884.5
427.171	6251.08
427.379	6380.11
427.586	6425.16
427.794	6584.9
428.001	6779.46
428.209	7277.12
428.417	7201.34
428.624	7588.41
428.832	7602.74
429.039	7490.1
429.247	7567.93
429.454	8161.84
429.662	8993.31
429.869	8299.05
430.076	8831.52
430.284	8784.42
430.491	9067.04
430.699	9521.69
430.906	9613.85
431.114	9630.23
431.321	10154.51
431.528	10414.6
431.736	10807.81
431.943	11321.85
432.15	11209.22
432.358	11207.17
432.565	12165.62
432.772	11805.17
432.979	12552.68
433.187	12532.2
433.394	12863.97
433.601	13554.14
433.808	13674.97
434.016	13576.67
434.223	13994.45
434.43	14971.33
434.637	14639.56
434.844	15528.38
435.052	15894.97
435.259	16003.51
435.466	15921.59
435.673	15888.82
435.88	17156.52
436.087	17861.02
436.294	17650.08
436.501	17457.57
436.708	17801.63
436.915	18452.88
437.122	19319.17
437.329	19165.57
437.537	19726.72
437.743	19947.9
437.95	19745.15
438.157	20685.17
438.364	21713.25
438.571	21600.61
438.778	21862.75
438.985	23818.56
439.192	22716.75
439.399	23316.81
439.606	23060.81
439.813	24289.59
440.02	25688.35
440.227	25213.23
440.433	24764.72
440.64	25778.47
440.847	25887.01
441.054	26538.26
441.261	27955.46
441.467	27676.93
441.674	28537.08
441.881	29325.55
442.088	29554.92
442.294	29155.57
442.501	30167.26
442.708	30593.24
442.914	31649.99
443.121	32780.47
443.328	32153.79
443.534	34195.62
443.741	33382.57
443.948	32694.46
444.154	35291.28
444.361	35174.55
444.568	35356.82
444.774	35254.42
444.981	35580.04
445.187	36794.49
445.394	38148.2
445.6	37957.74
445.807	41295.92
446.013	39956.55
446.22	40718.4
446.426	42278.95
446.633	42194.98
446.839	43659.28
447.046	41748.53
447.252	44363.78
447.459	44308.49
447.665	43974.67
447.871	46198.76
448.078	47992.78
448.284	45682.67
448.491	47085.53
448.697	48641.99
448.903	49573.81
449.11	49602.49
449.316	49205.18
449.522	50055.09
449.728	51199.9
449.935	51115.93
450.141	51539.86
450.347	52688.77
450.553	51492.76
450.76	51748.76
450.966	53168
451.172	52791.17
451.378	54335.34
451.584	52887.43
451.791	53835.64
451.997	53770.1
452.203	54941.54
452.409	55009.12
452.615	54828.9
452.821	52785.03
453.027	52516.75
453.233	55103.33
453.44	52711.3
453.646	53653.37
453.852	53745.53
454.058	54904.68
454.264	53098.37
454.47	54019.95
454.676	53122.94
454.882	54929.25
455.088	50360.23
455.294	50997.15
455.5	51435.42
455.705	52045.71
455.911	50198.44
456.117	49297.34
456.323	48695.24
456.529	46155.75
456.735	48490.44
456.941	46929.89
457.147	46356.46
457.352	44949.5
457.558	44478.47
457.764	44558.34
457.97	43460.63
458.176	42965.02
458.381	43034.65
458.587	40845.37
458.793	41091.13
458.999	38563.93
459.204	41480.24
459.41	40130.63
459.616	37580.91
459.821	37501.04
460.027	37806.19
460.233	36575.36
460.438	35020.95
460.644	35332.24
460.85	33712.3
461.055	33427.63
461.261	33331.37
461.466	30490.84
461.672	30105.82
461.878	31981.76
462.083	29661.41
462.289	29284.59
462.494	28946.67
462.7	27449.61
462.905	26722.58
463.111	28064
463.316	27969.79
463.522	27402.5
463.727	27367.69
463.932	27216.14
464.138	27017.49
464.343	27230.48
464.549	26294.55
464.754	27218.19
464.959	27207.95
465.165	27025.68
465.37	25817.38
465.575	25155.88
465.781	26278.17
465.986	26241.31
466.191	24944.94
466.397	24852.78
466.602	23769.41
466.807	24578.36
467.012	24656.18
467.218	24303.93
467.423	24224.06
467.628	24287.54
467.833	25276.71
468.038	24172.86
468.244	23796.03
468.449	24674.61
468.654	23865.66
468.859	23660.87
469.064	23720.26
469.269	22575.44
469.474	22960.46
469.679	23202.12
469.885	22485.33
470.09	22778.19
470.295	22702.42
470.5	22100.31
470.705	22186.33
470.91	21655.9
471.115	21760.35
471.32	22022.49
471.525	21789.02
471.73	21295.46
471.935	21158.25
472.139	20251
472.344	20750.7
472.549	20459.89
472.754	20543.86
472.959	20052.34
473.164	19634.56
473.369	19251.59
473.574	19992.95
473.778	19876.22
473.983	19736.96
474.188	19673.47
474.393	18692.49
474.598	18678.16
474.802	18456.98
475.007	18450.83
475.212	18700.69
475.417	17543.58
475.621	17613.21
475.826	17848.73
476.031	17580.45
476.235	17197.48
476.44	17498.53
476.645	17095.08
476.849	17136.04
477.054	16982.44
477.259	16533.93
477.463	16511.41
477.668	16091.57
477.872	16449.97
478.077	15993.27
478.282	15589.82
478.486	15548.86
478.691	15653.31
478.895	15520.19
479.1	15477.18
479.304	15282.63
479.509	14709.19
479.713	15319.49
479.918	14766.54
480.122	14254.55
480.326	14873.03
480.531	14531.02
480.735	14858.7
480.94	14627.28
481.144	14965.19
481.348	14309.84
481.553	14389.71
481.757	14246.35
481.961	14410.19
482.166	14729.67
482.37	14490.06
482.574	14227.92
482.778	14103
482.983	14428.62
483.187	14283.22
483.391	14436.81
483.595	14016.98
483.8	14072.28
484.004	14414.29
484.208	14262.74
484.412	14027.22
484.616	14334.42
484.821	14275.02
485.025	13826.52
485.229	14520.78
485.433	14103
485.637	14078.42
485.841	14197.2
486.045	14072.28
486.249	14068.18
486.453	13945.3
486.657	14240.21
486.861	14324.18
487.065	13963.73
487.269	14215.63
487.473	14035.41
487.677	14242.26
487.881	14234.07
488.085	14250.45
488.289	14203.35
488.493	14055.89
488.697	14500.3
488.901	14227.92
489.105	14098.9
489.309	14320.08
489.512	14420.43
489.716	14340.56
489.92	14395.85
490.124	14320.08
490.328	14684.62
490.531	14780.87
490.735	14498.25
490.939	14664.14
491.143	14559.69
491.346	14496.21
491.55	14854.6
491.754	14510.54
491.958	14703.05
492.161	14848.46
492.365	15090.12
492.569	14975.43
492.772	15065.54
492.976	15004.1
493.18	15002.05
493.383	15147.46
493.587	15274.43
493.79	15485.37
493.994	15167.94
494.197	15432.13
494.401	15636.92
494.605	15604.16
494.808	15946.17
495.012	16001.46
495.215	16013.75
495.419	16134.58
495.622	16099.76
495.825	16423.34
496.029	16445.87
496.232	16691.63
496.436	16413.1
496.639	17144.23
496.843	16984.49
497.046	17269.16
497.249	17727.9
497.453	17611.17
497.656	17834.39
497.859	17901.98
498.063	17975.7
498.266	18276.76
498.469	18147.73
498.673	18282.9
498.876	18872.71
499.079	19124.61
499.282	18749.84
499.485	19294.6
499.689	19415.43
499.892	19659.13
500.095	19712.38
500.298	20191.61
500.501	19767.68
500.705	20662.64
500.908	20590.96
501.111	21070.19
501.314	21139.82
501.517	21186.92
501.72	21639.52
501.923	21528.93
502.126	22128.99
502.329	22323.54
502.532	22612.31
502.735	22753.62
502.938	22917.45
503.141	23359.81
503.344	23454.02
503.547	23636.29
503.75	23982.4
503.953	24301.88
504.156	24723.76
504.359	24734
504.562	24809.78
504.765	25200.94
504.968	25366.82
505.17	25684.26
505.373	25661.73
505.576	26329.37
505.779	26624.28
505.982	26773.78
506.185	26960.14
506.387	27044.11
506.59	27285.77
506.793	28209.4
506.996	27631.88
507.198	28619
507.401	28432.63
507.604	28874.99
507.807	29710.57
508.009	29653.22
508.212	29487.34
508.415	29837.54
508.617	30296.28
508.82	30611.67
509.022	30793.94
509.225	31355.08
509.428	31693
509.63	31711.43
509.833	31881.41
510.035	33114.29
510.238	32473.28
510.44	32741.56
510.643	33341.61
510.845	33519.79
511.048	33730.73
511.25	34189.47
511.453	34013.35
511.655	35344.53
511.858	35135.63
512.06	35307.66
512.262	35934.34
512.465	35883.14
512.667	36446.33
512.87	36792.44
513.072	36675.71
513.274	37070.96
513.477	37642.35
513.679	38221.92
513.881	38500.45
514.084	38445.15
514.286	38926.42
514.488	39227.48
514.69	39899.21
514.893	40202.31
515.095	40044.62
515.297	40759.36
515.499	40724.54
515.701	41254.97
515.904	41343.03
516.106	42131.5
516.308	42446.88
516.51	42844.19
516.712	42467.36
516.914	43081.75
517.116	43804.69
517.318	44146.7
517.52	44152.84
517.722	44232.71
517.925	44953.6
518.127	45547.51
518.329	45375.48
518.531	45150.2
518.733	46583.78
518.935	46491.62
519.136	46639.07
519.338	47464.41
519.54	47374.3
519.742	47990.73
519.944	48060.37
520.146	48842.69
520.348	49135.55
520.55	49070.01
520.752	49504.18
520.954	49905.59
521.155	50042.8
521.357	50556.84
521.559	50720.68
521.761	51761.04
521.963	51410.84
522.164	51888.02
522.366	52047.76
522.568	52187.02
522.77	52357
522.971	53280.64
523.173	52930.43
523.375	53288.83
523.576	53292.93
523.778	53313.41
523.98	54329.2
524.181	54560.62
524.383	54341.49
524.584	54753.13
524.786	55025.51
524.988	54890.34
525.189	55494.49
525.391	55801.69
525.592	55746.39
525.794	56108.88
525.995	56385.36
526.197	56901.45
526.398	56491.85
526.6	56825.67
526.801	57151.3
527.003	56966.98
527.204	57079.62
527.406	57704.25
527.607	58017.59
527.808	58087.22
528.01	57163.59
528.211	57675.58
528.412	58623.79
528.614	58498.86
528.815	58083.12
529.016	58867.5
529.218	58330.93
529.419	58822.44
529.62	58963.75
529.822	58832.68
530.023	58973.99
530.224	59162.4
530.425	59227.94
530.626	58750.76
530.828	58748.71
531.029	59619.1
531.23	59350.82
531.431	59559.71
531.632	59610.91
531.833	59764.51
532.035	59621.15
532.236	59774.75
532.437	60260.12
532.638	59791.13
532.839	59893.53
533.04	60501.78
533.241	59158.31
533.442	60661.52
533.643	60243.73
533.844	59813.66
534.045	60325.65
534.246	59612.96
534.447	60159.76
534.648	59709.21
534.849	60309.27
535.05	59551.52
535.251	60114.71
535.451	59834.14
535.652	60591.89
535.853	59985.69
536.054	60000.02
536.255	60725
536.456	59537.18
536.657	60649.23
536.857	60098.33
537.058	59801.37
537.259	60251.92
537.46	60036.89
537.66	59547.42
537.861	60100.37
538.062	59989.78
538.263	60151.57
538.463	60026.65
538.664	59768.6
538.865	60055.32
539.065	60628.75
539.266	59600.67
539.466	60831.5
539.667	59479.84
539.868	60217.11
540.068	60002.07
540.269	60032.79
540.469	59985.69
540.67	60112.66
540.87	59760.41
541.071	59592.48
541.271	59916.06
541.472	59985.69
541.672	59674.4
541.873	59780.89
542.073	59170.6
542.274	59901.72
542.474	59524.89
542.675	59481.89
542.875	60421.9
543.075	60049.17
543.276	59316
543.476	60124.95
543.676	59522.85
543.877	59717.4
544.077	59324.19
544.277	59508.51
544.478	59510.56
544.678	59756.31
544.878	59760.41
545.078	59944.73
545.279	59125.54
545.479	59778.84
545.679	59416.35
545.879	59686.68
546.079	59688.73
546.28	59600.67
546.48	58861.35
546.68	59365.15
546.88	59440.93
547.08	59825.95
547.28	59211.56
547.48	58842.92
547.68	59248.42
547.88	59078.44
548.081	59559.71
548.281	59531.04
548.481	59068.2
548.681	59834.14
548.881	59338.53
549.081	59373.34
549.28	59359.01
549.48	59506.46
549.68	59305.76
549.88	59795.23
550.08	59375.39
550.28	59225.89
550.48	59131.68
550.68	59598.62
550.88	58740.52
551.08	59426.59
551.279	58859.3
551.479	58625.84
551.679	59096.87
551.879	59002.66
552.079	58982.18
552.278	58730.28
552.478	59125.54
552.678	58730.28
552.878	59043.62
553.077	58224.43
553.277	58588.97
553.477	59359.01
553.676	58464.05
553.876	58857.26
554.076	58650.41
554.275	58580.78
554.475	58105.65
554.674	58711.85
554.874	58466.09
555.074	58654.51
555.273	59252.51
555.473	58918.7
555.672	58294.07
555.872	58486.57
556.071	58437.42
556.271	58613.55
556.47	58474.29
556.67	58124.08
556.869	58060.6
557.068	58007.35
557.268	57868.09
557.467	57861.94
557.667	57945.91
557.866	57913.14
558.065	58058.55
558.265	57704.25
558.464	57511.74
558.663	58124.08
558.863	57511.74
559.062	57980.73
559.261	57515.84
559.461	57909.05
559.66	57003.84
559.859	57845.56
560.058	57050.95
560.258	57601.85
560.457	57272.13
560.656	57327.42
560.855	57151.3
561.054	57468.73
561.253	57032.52
561.453	57188.16
561.652	57044.8
561.851	57321.28
562.05	56923.97
562.249	56713.03
562.448	56944.45
562.647	56926.02
562.846	56676.17
563.045	56969.03
563.244	56239.95
563.443	56835.91
563.642	55535.45
563.841	56571.72
564.04	56135.51
564.239	56704.84
564.438	56172.37
564.637	55830.36
564.836	56518.48
565.035	55596.89
565.234	55750.49
565.432	55641.95
565.631	55482.2
565.83	55639.9
566.029	55592.79
566.228	55467.87
566.427	55256.93
566.625	55148.39
566.824	54632.3
567.023	55070.56
567.222	54407.02
567.42	55201.63
567.619	55031.65
567.818	54462.32
568.016	54425.45
568.215	55193.44
568.414	54169.46
568.612	54888.29
568.811	54263.66
569.01	54439.79
569.208	54052.72
569.407	54550.38
569.605	53514.11
569.804	54138.74
570.002	53557.11
570.201	54378.35
570.4	53481.34
570.598	53792.63
570.797	53452.67
570.995	53516.15
571.193	53204.86
571.392	53583.74
571.59	52797.32
571.789	52791.17
571.987	52301.71
572.186	52873.09
572.384	52264.85
572.582	52780.93
572.781	52770.69
572.979	51951.51
573.177	52385.68
573.376	52791.17
573.574	51976.08
573.772	52344.72
573.971	52123.54
574.169	51953.55
574.367	51609.5
574.565	51654.55
574.763	51683.22
574.962	51589.02
575.16	51388.31
575.358	51429.27
575.556	50878.37
575.754	51777.43
575.952	50577.32
576.151	51117.98
576.349	50409.39
576.547	50939.81
576.745	50649
576.943	50503.59
577.141	50511.78
577.339	50679.72
577.537	49557.43
577.735	50137.01
577.933	49520.57
578.131	50214.83
578.329	49848.24
578.527	49336.25
578.725	49405.88
578.923	49866.67
579.121	49065.92
579.319	49539
579.516	49196.99
579.714	49260.47
579.912	48728
580.11	48504.77
580.308	48881.6
580.506	48891.84
580.704	47929.3
580.901	48652.23
581.099	48549.83
581.297	47843.28
581.495	47591.38
581.692	47960.01
581.89	47808.47
582.088	48121.8
582.285	47658.96
582.483	47671.25
582.681	47437.78
582.878	47648.72
583.076	46858.21
583.274	47652.82
583.471	46673.89
583.669	46841.82
583.866	46862.3
584.064	47075.29
584.262	46157.8
584.459	46901.21
584.657	47024.09
584.854	46587.88
585.052	45598.71
585.249	46049.26
585.447	45815.79
585.644	45580.28
585.841	45768.69
586.039	45981.68
586.236	44937.21
586.434	45154.3
586.631	45211.64
586.828	45451.25
587.026	44900.35
587.223	45164.54
587.42	45078.52
587.618	45006.84
587.815	44210.18
588.012	44709.89
588.21	44320.77
588.407	44425.22
588.604	43681.81
588.801	43984.91
588.999	43862.03
589.196	44142.6
589.393	43933.71
589.59	43470.87
589.787	43474.96
589.984	43067.42
590.182	43016.22
590.379	43765.77
590.576	42745.89
590.773	42831.9
590.97	42618.91
591.167	42836
591.364	42321.96
591.561	42760.22
591.758	42199.08
591.955	42098.73
592.152	42207.27
592.349	41887.79
592.546	41711.66
592.743	41730.09
592.94	41281.59
593.137	41881.64
593.334	41807.92
593.531	41207.86
593.727	41517.11
593.924	41105.46
594.121	40691.77
594.318	40976.44
594.515	40718.4
594.712	41269.3
594.908	40323.14
595.105	40392.77
595.302	40077.38
595.499	40294.47
595.696	40095.81
595.892	39766.09
596.089	39796.81
596.286	40153.16
596.482	39571.53
596.679	39798.86
596.876	39645.26
597.072	39493.71
597.269	39329.87
597.466	39073.88
597.662	39260.24
597.859	39088.21
598.055	39274.58
598.252	38746.2
598.448	38727.77
598.645	38363.23
598.841	38240.36
599.038	38260.83
599.234	38574.17
599.431	37548.14
599.627	38074.47
599.824	37949.54
600.02	37793.9
600.217	37945.45
600.413	37445.74
600.609	37509.23
600.806	36921.46
601.002	37589.1
601.198	36946.04
601.395	37027.96
601.591	37077.11
601.787	37111.92
601.984	36860.02
602.18	36843.64
602.376	36524.16
602.572	36702.33
602.769	36401.28
602.965	35852.42
603.161	36180.1
603.357	36098.18
603.553	35786.89
603.75	36049.03
603.946	35299.47
604.142	35629.19
604.338	34986.13
604.534	35661.96
604.73	35225.75
604.926	35121.3
605.122	35344.53
605.318	34584.73
605.514	34703.51
605.71	34750.62
605.906	34343.07
606.102	34375.84
606.298	34644.12
606.494	34402.46
606.69	34422.94
606.886	34807.96
607.082	33851.56
607.278	34322.59
607.474	33566.89
607.67	34146.47
607.866	33405.1
608.062	33923.24
608.257	33869.99
608.453	33484.97
608.649	33700.01
608.845	33462.44
609.041	33644.71
609.236	33409.2
609.432	33345.71
609.628	33312.94
609.824	33069.23
610.019	33280.17
610.215	33171.63
610.411	32854.2
610.606	32721.08
610.802	33030.32
610.998	32821.43
611.193	32866.49
611.389	32616.63
611.584	32585.91
611.78	32573.63
611.976	32487.61
612.171	32561.34
612.367	32374.97
612.562	32186.56
612.758	32221.38
612.953	32151.74
613.149	32340.16
613.344	31807.69
613.539	32477.37
613.735	31842.5
613.93	32102.59
614.126	31938.76
614.321	31951.04
614.517	32096.45
614.712	31889.6
614.907	31887.56
615.103	31758.53
615.298	31500.49
615.493	31940.8
615.688	30767.32
615.884	31697.1
616.079	30841.04
616.274	31553.74
616.47	30957.78
616.665	31340.75
616.86	30939.35
617.055	31328.46
617.25	30941.39
617.445	30828.76
617.641	30525.66
617.836	30771.41
618.031	30314.72
618.226	30830.8
618.421	30228.7
618.616	30599.38
618.811	29925.6
619.006	30566.62
619.201	29458.67
619.396	29941.99
619.591	29556.97
619.786	29903.07
619.981	29425.9
620.176	29391.08
620.371	29348.07
620.566	29481.19
620.761	29153.52
620.956	29343.98
621.151	28592.37
621.346	28731.64
621.541	28498.17
621.735	28399.87
621.93	28186.88
622.125	28375.29
622.32	27480.33
622.515	28051.71
622.709	27898.11
622.904	27740.42
623.099	27590.92
623.294	27582.73
623.488	27142.41
623.683	27330.83
623.878	27109.65
624.072	26867.98
624.267	26530.07
624.462	26589.46
624.656	26530.07
624.851	26589.46
625.046	26259.74
625.24	26089.76
625.435	25852.19
625.629	25596.2
625.824	25827.62
626.018	25770.27
626.213	25039.15
626.407	25334.06
626.602	25143.6
626.796	25157.93
626.991	24846.64
627.185	24912.17
627.38	24537.4
627.574	24529.2
627.768	24197.43
627.963	24168.76
628.157	24056.12
628.352	23949.63
628.546	23523.65
628.74	23916.86
628.935	23341.38
629.129	23451.97
629.323	23095.63
629.517	23073.1
629.712	23138.63
629.906	23044.43
630.1	22591.83
630.294	23003.47
630.489	22540.63
630.683	22749.52
630.877	22042.97
631.071	22167.9
631.265	22413.65
631.459	22264.15
631.653	21668.19
631.848	22020.44
632.042	21625.18
632.236	21975.39
632.43	21807.45
632.624	21410.15
632.818	21223.78
633.012	20834.67
633.206	20978.03
633.4	21168.49
633.594	20965.74
633.788	20879.72
633.982	20799.85
634.176	20896.11
634.369	20214.13
634.563	20433.27
634.757	20214.13
634.951	20076.92
635.145	20185.46
635.339	20083.06
635.533	19857.79
635.726	20160.89
635.92	19464.58
636.114	19505.54
636.308	19558.78
636.501	19433.86
636.695	19255.68
636.889	19198.34
637.083	19016.07
637.276	18870.67
637.47	18835.85
637.664	18876.81
637.857	18573.71
638.051	18749.84
638.244	18315.67
638.438	18407.83
638.632	18049.43
638.825	17979.8
639.019	18096.53
639.212	17924.51
639.406	18213.27
639.599	17748.38
639.793	17873.31
639.986	17443.23
640.18	17365.41
640.373	17492.38
640.567	17054.12
640.76	17183.14
640.954	16771.5
641.147	16822.7
641.34	16699.82
641.534	17021.35
641.727	16687.53
641.92	16953.77
642.114	16748.97
642.307	16622
642.5	16406.96
642.694	16433.58
642.887	16333.23
643.08	16185.78
643.273	16245.17
643.467	15921.59
643.66	15915.45
643.853	15851.96
644.046	15567.29
644.239	15864.25
644.432	15882.68
644.626	15301.06
644.819	15534.53
645.012	15352.26
645.205	15335.87
645.398	15507.9
645.591	15112.64
645.784	15012.29
645.977	14963.14
646.17	14813.64
646.363	14789.06
646.556	14561.74
646.749	14664.14
646.942	14662.09
647.135	14543.31
647.328	14692.81
647.521	14442.96
647.714	14146
647.907	14264.78
648.099	14156.24
648.292	14082.52
648.485	13937.11
648.678	14135.76
648.871	13588.96
649.064	13701.59
649.256	13720.03
649.449	13660.63
649.642	13464.03
649.835	13304.29
650.027	13378.01
650.22	13378.01
650.413	13296.1
650.605	13388.25
650.798	13158.88
650.991	13009.38
651.183	12958.18
651.376	12704.23
651.568	12935.65
651.761	12896.74
651.954	12870.12
652.146	12741.1
652.339	12448.24
652.531	12763.62
652.724	12442.09
652.916	12425.71
653.109	12251.63
653.301	12257.78
653.494	12278.26
653.686	11960.82
653.879	12169.71
654.071	11846.13
654.263	12007.92
654.456	11930.1
654.648	11858.42
654.84	11612.67
655.033	11946.48
655.225	11659.77
655.417	11397.63
655.61	11461.12
655.802	11604.47
655.994	11332.09
656.186	11452.92
656.379	11276.8
656.571	11112.96
656.763	11239.94
656.955	11031.04
657.148	11037.19
657.34	11024.9
657.532	10854.92
657.724	10893.83
657.916	10779.14
658.108	10973.7
658.3	10904.07
658.492	10850.82
658.684	10711.56
658.876	10572.3
659.068	10404.36
659.26	10377.74
659.452	10412.56
659.644	10514.95
659.836	10183.18
660.028	10177.04
660.22	10066.45
660.412	10091.02
660.604	9955.86
660.796	9908.76
660.988	10009.11
661.18	9853.46
661.372	9689.62
661.563	9759.25
661.755	9902.61
661.947	9857.56
662.139	9640.47
662.331	9581.08
662.522	9572.89
662.714	9347.61
662.906	9509.4
663.097	9382.43
663.289	9298.46
663.481	9345.56
663.673	9216.54
663.864	9165.34
664.056	9216.54
664.247	9103.9
664.439	8954.4
664.631	9202.21
664.822	8759.85
665.014	8909.35
665.205	8978.98
665.397	8788.52
665.588	8882.72
665.78	8823.33
665.971	8741.41
666.163	8481.32
666.354	8512.04
666.546	8581.67
666.737	8466.99
666.929	8690.21
667.12	8569.38
667.311	8348.2
667.503	8280.62
667.694	8362.54
667.885	8350.25
668.077	8243.76
668.268	8002.1
668.459	8163.89
668.651	8149.55
668.842	7940.66
669.033	8227.37
669.224	8104.49
669.416	8079.92
669.607	8049.2
669.798	7889.46
669.989	7922.23
670.18	7848.5
670.371	7662.13
670.563	7696.95
670.754	7815.73
670.945	7664.18
671.136	7572.02
671.327	7563.83
671.518	7549.5
671.709	7424.57
671.9	7443
672.091	7359.03
672.282	7402.04
672.473	7350.84
672.664	7254.59
672.855	7369.27
673.046	7238.2
673.237	7305.79
673.428	7121.47
673.619	7248.44
673.809	7275.07
674	7072.32
674.191	7248.44
674.382	7000.64
674.573	7100.99
674.764	7139.9
674.954	7000.64
675.145	6924.86
675.336	7035.46
675.527	6928.96
675.717	7055.94
675.908	6842.95
676.099	6904.39
676.289	6791.75
676.48	6697.54
676.671	6801.99
676.861	6881.86
677.052	6724.16
677.243	6695.49
677.433	6558.28
677.624	6601.29
677.814	6582.85
678.005	6613.57
678.195	6523.46
678.386	6502.98
678.576	6533.7
678.767	6416.97
678.957	6333
679.148	6367.82
679.338	6414.92
679.529	6222.41
679.719	6267.47
679.909	6333
680.1	6246.99
680.29	6474.31
680.481	6253.13
680.671	6228.56
680.861	6128.21
681.052	6148.68
681.242	5966.42
681.432	6154.83
681.622	6077.01
681.813	5950.03
682.003	6046.29
682.193	6019.66
682.383	6099.53
682.573	5941.84
682.764	5833.3
682.954	5933.65
683.144	5999.18
683.334	6083.15
683.524	5972.56
683.714	5870.16
683.904	5833.3
684.094	5986.9
684.284	5888.59
684.474	5792.34
684.664	5888.59
684.854	5689.94
685.044	5857.87
685.234	5591.64
685.424	5757.52
685.614	5669.46
685.804	5741.14
685.994	5542.49
686.184	5567.06
686.374	5589.59
686.564	5624.4
686.753	5540.44
686.943	5431.9
687.133	5468.76
687.323	5399.13
687.513	5456.47
687.702	5296.73
687.892	5431.9
688.082	5448.28
688.272	5431.9
688.461	5282.39
688.651	5423.7
688.841	5220.95
689.03	5241.43
689.22	5198.43
689.41	5237.34
689.599	5163.61
689.789	5167.71
689.979	5091.93
690.168	5067.36
690.358	5071.45
690.547	4950.62
690.737	5075.55
690.926	5042.78
691.116	4919.9
691.305	4891.23
691.495	4932.19
691.684	4870.75
691.874	4776.55
692.063	4833.89
692.252	4809.31
692.442	4907.62
692.631	4794.98
692.82	4721.25
693.01	4721.25
693.199	4758.11
693.388	4672.1
693.578	4651.62
693.767	4645.48
693.956	4622.95
694.146	4610.66
694.335	4397.67
694.524	4426.34
694.713	4579.94
694.902	4485.73
695.092	4561.51
695.281	4551.27
695.47	4452.97
695.659	4356.71
695.848	4319.85
696.037	4414.06
696.226	4465.25
696.415	4356.71
696.604	4428.39
696.793	4407.91
696.982	4405.86
697.171	4336.23
697.36	4409.96
697.549	4332.14
697.738	4182.63
697.927	4217.45
698.116	4270.7
698.305	4229.74
698.494	4235.88
698.683	4260.46
698.872	4219.5
699.061	4430.44
699.25	4192.87
699.438	4051.56
699.627	4121.2
699.816	4213.35
700.005	3945.07
700.193	4061.8
700.382	4215.4
700.571	4065.9
700.76	4033.13
700.948	4002.41
701.137	4002.41
701.326	3914.35
701.514	4078.19
701.703	4170.35
701.892	3916.4
702.08	4113
702.269	4024.94
702.457	3979.89
702.646	3906.16
702.834	3926.64
703.023	3945.07
703.212	3902.06
703.4	3961.45
703.589	3959.41
703.777	4029.04
703.965	3834.48
704.154	3838.58
704.342	3887.73
704.531	3928.69
704.719	3744.37
704.907	3932.78
705.096	3981.93
705.284	3738.23
705.472	3684.98
705.661	3650.16
705.849	3852.91
706.037	3783.28
706.226	3654.26
706.414	3740.27
706.602	3531.38
706.79	3717.75
706.979	3660.4
707.167	3617.4
707.355	3580.53
707.543	3666.55
707.731	3689.07
707.919	3594.87
708.107	3611.25
708.296	3553.91
708.484	3510.9
708.672	3646.07
708.86	3568.24
709.048	3695.22
709.236	3545.72
709.424	3598.96
709.612	3607.16
709.8	3488.37
709.988	3551.86
710.176	3512.95
710.364	3490.42
710.551	3463.8
710.739	3443.32
710.927	3484.28
711.115	3488.37
711.303	3555.96
711.491	3408.5
711.679	3445.37
711.866	3416.69
712.054	3517.05
712.242	3451.51
712.43	3459.7
712.617	3340.92
712.805	3291.77
712.993	3416.69
713.181	3297.91
713.368	3287.67
713.556	3287.67
713.744	3385.97
713.931	3398.26
714.119	3191.42
714.306	3422.84
714.494	3441.27
714.682	3338.87
714.869	3359.35
715.057	3388.02
715.244	3252.86
715.432	3252.86
715.619	3211.9
715.807	3246.71
715.994	3281.53
716.182	3275.38
716.369	3291.77
716.556	3142.27
716.744	3179.13
716.931	3086.97
717.119	3240.57
717.306	3164.79
717.493	3039.87
717.681	3213.95
717.868	3244.67
718.055	3340.92
718.242	3228.28
718.43	3138.17
718.617	3189.37
718.804	3117.69
718.991	3162.75
719.179	3132.03
719.366	3021.44
719.553	3068.54
719.74	3080.83
719.927	3031.68
720.114	3181.18
720.301	3033.72
720.488	2953.85
720.676	3097.21
720.863	2996.86
721.05	3142.27
721.237	3160.7
721.424	3068.54
721.611	2996.86
721.798	2998.91
721.985	2876.03
722.172	3037.82
722.358	2996.86
722.545	2972.29
722.732	2990.72
722.919	2921.09
723.106	2908.8
723.293	2910.85
723.48	3033.72
723.667	2953.85
723.853	2794.11
724.04	2949.76
724.227	2855.55
724.414	2871.93
724.6	2921.09
724.787	2914.94
724.974	2878.08
725.161	2835.07
725.347	2761.34
725.534	2818.69
725.72	2818.69
725.907	2843.26
726.094	2808.45
726.28	2796.16
726.467	2921.09
726.653	2820.74
726.84	2833.02
727.027	2767.49
727.213	2667.14
727.4	2787.97
727.586	2802.3
727.773	2710.15
727.959	2687.62
728.145	2755.2
728.332	2681.47
728.518	2826.88
728.705	2644.61
728.891	2744.96
729.077	2806.4
729.264	2679.43
729.45	2701.95
729.636	2806.4
729.823	2792.06
730.009	2701.95
730.195	2660.99
730.382	2654.85
730.568	2794.11
730.754	2599.55
730.94	2605.7
731.126	2716.29
731.313	2685.57
731.499	2704
731.685	2644.61
731.871	2617.99
732.057	2663.04
732.243	2650.75
732.429	2663.04
732.615	2554.5
732.801	2654.85
732.987	2507.4
733.173	2658.95
733.359	2585.22
733.545	2531.97
733.731	2652.8
733.917	2617.99
734.103	2658.95
734.289	2605.7
734.475	2603.65
734.661	2675.33
734.847	2531.97
735.033	2529.92
735.219	2640.51
735.404	2620.03
735.59	2605.7
735.776	2564.74
735.962	2542.21
736.148	2536.07
736.333	2609.79
736.519	2636.42
736.705	2599.55
736.89	2437.77
737.076	2474.63
737.262	2497.16
737.447	2427.53
737.633	2427.53
737.819	2554.5
738.004	2513.54
738.19	2454.15
738.375	2466.44
738.561	2466.44
738.747	2337.41
738.932	2380.42
739.118	2417.29
739.303	2402.95
739.489	2439.81
739.674	2302.6
739.859	2245.26
740.045	2302.6
740.23	2374.28
740.416	2294.41
740.601	2316.94
740.786	2298.5
740.972	2243.21
741.157	2247.3
741.342	2294.41
741.528	2196.11
741.713	2257.54
741.898	2220.68
742.084	2198.15
742.269	2321.03
742.454	2214.54
742.639	2257.54
742.824	2216.58
743.01	2269.83
743.195	2257.54
743.38	2214.54
743.565	2261.64
743.75	2169.48
743.935	2013.84
744.12	2091.66
744.305	2169.48
744.49	2083.47
744.675	2194.06
744.86	2189.96
745.045	2216.58
745.23	2153.1
745.415	1991.31
745.6	2093.71
745.785	2026.12
745.97	2073.23
746.155	2036.36
746.34	2085.51
746.525	2015.88
746.71	2116.23
746.895	1925.77
747.079	2130.57
747.264	1856.14
747.449	1878.67
747.634	1936.01
747.819	1927.82
748.003	1886.86
748.188	1919.63
748.373	2022.03
748.557	1909.39
748.742	1759.89
748.927	1827.47
749.111	1876.62
749.296	1864.33
749.481	1784.46
749.665	1845.9
749.85	1766.03
750.034	1829.52
750.219	1686.16
750.404	1704.59
750.588	1821.33
750.773	1747.6
750.957	1720.98
751.141	1798.8
751.326	1766.03
751.51	1727.12
751.695	1714.83
751.879	1639.06
752.064	1694.35
752.248	1565.33
752.432	1710.74
752.617	1639.06
752.801	1704.59
752.985	1682.06
753.17	1561.23
753.354	1608.34
753.538	1542.8
753.722	1548.95
753.907	1555.09
754.091	1559.19
754.275	1532.56
754.459	1587.86
754.643	1493.65
754.828	1522.32
755.012	1458.84
755.196	1456.79
755.38	1456.79
755.564	1389.21
755.748	1505.94
755.932	1460.88
756.116	1428.12
756.3	1329.81
756.484	1405.59
756.668	1333.91
756.852	1434.26
757.036	1364.63
757.22	1360.53
757.404	1305.24
757.588	1292.95
757.772	1348.25
757.956	1284.76
758.14	1278.62
758.323	1311.38
758.507	1217.18
758.691	1360.53
758.875	1239.7
759.059	1260.18
759.242	1389.21
759.426	1280.66
759.61	1354.39
759.794	1331.86
759.977	1264.28
760.161	1221.27
760.345	1200.79
760.528	1196.7
760.712	1104.54
760.895	1157.78
761.079	1198.74
761.263	1170.07
761.446	1108.63
761.63	1186.46
761.813	1190.55
761.997	1069.72
762.18	1157.78
762.364	1157.78
762.547	1200.79
762.731	1120.92
762.914	1208.98
763.098	1104.54
763.281	1112.73
763.464	1069.72
763.648	1049.24
763.831	1127.07
764.015	1118.87
764.198	1102.49
764.381	1120.92
764.564	1034.91
764.748	1069.72
764.931	1030.81
765.114	1063.58
765.297	1063.58
765.481	1127.07
765.664	1073.82
765.847	1065.63
766.03	1102.49
766.213	1036.95
766.397	1047.19
766.58	967.32
766.763	1016.48
766.946	1053.34
767.129	1014.43
767.312	1008.28
767.495	1016.48
767.678	1039
767.861	1090.2
768.044	1020.57
768.227	1051.29
768.41	975.52
768.593	1057.43
768.776	1010.33
768.959	1065.63
769.142	967.32
769.324	983.71
769.507	1012.38
769.69	922.27
769.873	920.22
770.056	1034.91
770.239	912.03
770.421	1012.38
770.604	903.84
770.787	950.94
770.97	879.26
771.152	885.41
771.335	895.64
771.518	903.84
771.7	895.64
771.883	905.88
772.066	893.6
772.248	891.55
772.431	877.21
772.613	993.95
772.796	836.25
772.978	815.77
773.161	895.64
773.343	817.82
773.526	924.32
773.708	901.79
773.891	815.77
774.073	858.78
774.256	807.58
774.438	883.36
774.621	803.49
774.803	909.98
774.985	850.59
775.168	819.87
775.35	789.15
775.532	731.81
775.715	838.3
775.897	787.1
776.079	858.78
776.261	766.62
776.444	809.63
776.626	748.19
776.808	754.34
776.99	707.23
777.173	758.43
777.355	785.05
777.537	778.91
777.719	799.39
777.901	713.38
778.083	699.04
778.265	766.62
778.447	746.14
778.629	709.28
778.811	707.23
778.993	750.24
779.175	664.22
779.357	662.18
779.539	643.74
779.721	705.18
779.903	696.99
780.085	561.83
780.267	670.37
780.449	576.16
780.631	658.08
780.812	615.07
780.994	731.81
781.176	686.75
781.358	592.55
781.54	588.45
781.721	674.46
781.903	625.31
782.085	610.98
782.267	541.35
782.448	539.3
782.63	598.69
782.812	635.55
782.993	639.65
783.175	582.31
783.357	559.78
783.538	600.74
783.72	543.39
783.901	551.59
784.083	514.72
784.264	606.88
784.446	469.67
784.627	535.2
784.809	586.4
784.99	471.72
785.172	570.02
785.353	541.35
785.535	565.92
785.716	559.78
785.897	459.43
786.079	477.86
786.26	492.2
786.441	461.48
786.623	486.05
786.804	488.1
786.985	486.05
787.167	414.37
787.348	434.85
787.529	420.52
787.71	449.19
787.891	471.72
788.073	490.15
788.254	461.48
788.435	467.62
788.616	383.65
788.797	373.41
788.978	416.42
789.159	428.71
789.34	406.18
789.522	461.48
789.703	481.96
789.884	428.71
790.065	447.14
790.246	393.89
790.427	424.61
790.607	420.52
790.788	412.32
790.969	387.75
791.15	389.8
791.331	361.13
791.512	332.45
791.693	404.13
791.874	418.47
792.054	348.84
792.235	352.93
792.416	326.31
792.597	361.13
792.778	379.56
792.958	402.08
793.139	422.56
793.32	373.41
793.5	354.98
793.681	322.21
793.862	387.75
794.042	377.51
794.223	281.25
794.404	352.93
794.584	311.97
794.765	330.41
794.945	311.97
795.126	326.31
795.306	340.65
795.487	268.97
795.667	303.78
795.848	357.03
796.028	334.5
796.209	344.74
796.389	232.1
796.57	283.3
796.75	318.12
796.93	320.17
797.111	338.6
797.291	293.54
797.471	293.54
797.652	268.97
797.832	264.87
798.012	301.73
798.192	238.25
798.373	262.82
798.553	305.83
798.733	359.08
798.913	322.21
799.093	297.64
799.274	326.31
799.454	334.5
799.634	311.97
799.814	328.36
799.994	279.21
800.174	275.11
800.354	301.73
800.534	230.06
800.714	189.1
800.894	367.27
801.074	332.45
801.254	256.68
801.434	289.45
801.614	254.63
801.794	262.82
801.974	610.98
802.154	244.39
802.334	248.49
802.514	326.31
802.693	283.3
802.873	238.25
803.053	275.11
803.233	291.49
803.413	324.26
803.592	271.01
803.772	248.49
803.952	262.82
804.131	289.45
804.311	256.68
804.491	168.62
804.67	221.86
804.85	180.9
805.03	209.58
805.209	209.58
805.389	195.24
805.568	271.01
805.748	180.9
805.928	209.58
806.107	223.91
806.287	203.43
806.466	230.06
806.646	213.67
806.825	197.29
807.004	162.47
807.184	164.52
807.363	199.34
807.543	223.91
807.722	162.47
807.901	236.2
808.081	213.67
808.26	144.04
808.439	203.43
808.619	191.14
808.798	254.63
808.977	213.67
809.156	193.19
809.336	156.33
809.515	221.86
809.694	260.77
809.873	185
810.052	211.62
810.231	273.06
810.411	195.24
810.59	158.38
810.769	117.42
810.948	197.29
811.127	131.75
811.306	193.19
811.485	178.86
811.664	295.59
811.843	221.86
812.022	209.58
812.201	137.9
812.38	217.77
812.559	154.28
812.737	275.11
812.916	137.9
813.095	215.72
813.274	139.94
813.453	156.33
813.632	146.09
813.811	254.63
813.989	195.24
814.168	164.52
814.347	174.76
814.526	166.57
814.704	164.52
814.883	189.1
815.062	107.18
815.24	191.14
815.419	101.03
815.598	207.53
815.776	66.22
815.955	139.94
816.133	113.32
816.312	109.22
816.49	215.72
816.669	182.95
816.847	60.07
817.026	160.42
817.204	160.42
817.383	180.9
817.561	121.51
817.74	146.09
817.918	164.52
818.097	125.61
818.275	180.9
818.453	213.67
818.632	174.76
818.81	125.61
818.988	162.47
819.167	121.51
819.345	154.28
819.523	133.8
819.701	221.86
819.879	146.09
820.058	146.09
820.236	180.9
820.414	176.81
820.592	96.94
820.77	135.85
820.948	96.94
821.127	107.18
821.305	107.18
821.483	121.51
821.661	178.86
821.839	113.32
822.017	70.31
822.195	84.65
822.373	182.95
822.551	103.08
822.729	123.56
822.907	125.61
823.085	84.65
823.262	162.47
823.44	201.38
823.618	92.84
823.796	127.66
823.974	232.1
824.152	98.99
824.329	178.86
824.507	158.38
824.685	90.79
824.863	109.22
825.04	53.93
825.218	41.64
825.396	107.18
825.574	119.46
825.751	107.18
825.929	127.66
826.107	96.94
826.284	64.17
826.462	125.61
826.639	131.75
826.817	41.64
826.994	131.75
827.172	150.18
827.349	141.99
827.527	109.22
827.704	90.79
827.882	92.84
828.059	148.14
828.237	47.79
828.414	82.6
828.591	98.99
828.769	70.31
828.946	121.51
829.124	70.31
829.301	154.28
829.478	141.99
829.655	170.66
829.833	68.27
830.01	25.26
830.187	111.27
830.364	21.16
830.542	105.13
830.719	109.22
830.896	94.89
831.073	51.88
831.25	156.33
831.427	133.8
831.604	174.76
831.782	25.26
831.959	107.18
832.136	15.02
832.313	76.46
832.49	72.36
832.667	72.36
832.844	96.94
833.021	101.03
833.198	60.07
833.374	58.03
833.551	92.84
833.728	68.27
833.905	80.55
834.082	84.65
834.259	10.92
834.436	84.65
834.612	154.28
834.789	74.41
834.966	111.27
835.143	62.12
835.319	23.21
835.496	41.64
835.673	98.99
835.85	74.41
836.026	94.89
836.203	23.21
836.38	64.17
836.556	12.97
836.733	39.59
836.909	72.36
837.086	41.64
837.262	113.32
837.439	55.98
837.616	23.21
837.792	53.93
837.968	17.07
838.145	29.35
838.321	45.74
838.498	31.4
838.674	78.51
838.851	64.17
839.027	43.69
839.203	-34.13
839.38	105.13
839.556	35.5
839.732	43.69
839.909	17.07
840.085	72.36
840.261	35.5
840.437	27.31
840.614	33.45
840.79	111.27
840.966	94.89
841.142	76.46
841.318	49.83
841.494	39.59
841.671	150.18
841.847	62.12
842.023	39.59
842.199	55.98
842.375	60.07
842.551	17.07
842.727	107.18
842.903	82.6
843.079	109.22
843.255	117.42
843.431	41.64
843.607	74.41
843.783	21.16
843.959	90.79
844.134	43.69
844.31	90.79
844.486	27.31
844.662	21.16
844.838	8.87
845.013	60.07
845.189	49.83
845.365	45.74
845.541	60.07
845.716	62.12
845.892	121.51
846.068	94.89
846.244	47.79
846.419	96.94
846.595	25.26
846.77	12.97
846.946	88.75
847.122	37.55
847.297	27.31
847.473	103.08
847.648	53.93
847.824	-9.56
847.999	23.21
848.175	51.88
848.35	41.64
848.526	43.69
848.701	21.16
848.876	31.4
849.052	37.55
849.227	-17.75
849.403	10.92
849.578	17.07
849.753	-36.18
849.929	15.02
850.104	-3.41
850.279	60.07
850.454	76.46
850.63	-27.99
850.805	15.02
850.98	33.45
851.155	53.93
851.33	72.36
851.505	60.07
851.681	43.69
851.856	76.46
852.031	27.31
852.206	47.79
852.381	35.5
852.556	49.83
852.731	66.22
852.906	27.31
853.081	109.22
853.256	-38.23
853.431	35.5
853.606	86.7
853.781	-7.51
853.956	62.12
854.131	-7.51
854.305	4.78
854.48	101.03
854.655	70.31
854.83	23.21
855.005	21.16
855.18	29.35
855.354	60.07
855.529	-11.61
855.704	53.93
855.879	39.59
856.053	-25.94
856.228	82.6
856.403	6.83
856.577	45.74
856.752	70.31
856.926	27.31
857.101	27.31
857.276	25.26
857.45	-5.46
857.625	23.21
857.799	2.73
857.974	70.31
858.148	10.92
858.323	43.69
858.497	90.79
858.672	-3.41
858.846	107.18
859.02	17.07
859.195	-7.51
859.369	72.36
859.543	-23.89
859.718	29.35
859.892	-40.28
860.066	41.64
860.241	-38.23
860.415	-15.7
860.589	2.73
860.763	62.12
860.938	12.97
861.112	49.83
861.286	-9.56
861.46	25.26
861.634	15.02
861.808	33.45
861.982	0.68
862.157	53.93
862.331	90.79
862.505	-7.51
862.679	2.73
862.853	39.59
863.027	-30.04
863.201	82.6
863.375	29.35
863.549	4.78
863.722	25.26
863.896	-13.65
864.07	6.83
864.244	-17.75
864.418	-1.37
864.592	66.22
864.766	39.59
864.939	86.7
865.113	70.31
865.287	-23.89
865.461	19.11
865.634	45.74
865.808	-13.65
865.982	31.4
866.156	-17.75
866.329	-11.61
866.503	45.74
866.676	27.31
866.85	55.98
867.024	33.45
867.197	23.21
867.371	51.88
867.544	-7.51
867.718	-17.75
867.891	92.84
868.065	-54.61
868.238	-32.08
868.412	94.89
868.585	37.55
868.759	41.64
868.932	-9.56
869.105	39.59
869.279	15.02
869.452	25.26
869.625	25.26
869.799	0.68
869.972	-30.04
870.145	-34.13
870.319	45.74
870.492	2.73
870.665	39.59
870.838	17.07
871.011	-17.75
871.185	55.98
871.358	-34.13
871.531	-5.46
871.704	-13.65
871.877	-97.62
872.05	-19.8
872.223	25.26
872.396	64.17
872.569	43.69
872.742	33.45
872.915	-36.18
873.088	19.11
873.261	-105.81
873.434	25.26
873.607	-34.13
873.78	25.26
873.953	-42.32
874.126	4.78
874.299	25.26
874.471	-62.8
874.644	-1.37
874.817	33.45
874.99	31.4
875.163	0.68
875.335	-46.42
875.508	-13.65
875.681	51.88
875.853	-52.56
876.026	23.21
876.199	-7.51
876.371	15.02
876.544	31.4
876.717	-9.56
876.889	-23.89
877.062	-50.52
877.234	-38.23
877.407	62.12
877.579	-64.85
877.752	43.69
877.924	10.92
878.097	15.02
878.269	19.11
878.442	45.74
878.614	33.45
878.786	-11.61
878.959	-36.18
879.131	37.55
879.303	33.45
879.476	0.68
879.648	27.31
879.82	29.35
879.993	-11.61
880.165	2.73
880.337	-25.94
880.509	49.83
880.681	8.87
880.854	53.93
881.026	47.79
881.198	-30.04
881.37	-5.46
881.542	-11.61
881.714	-48.47
881.886	-27.99
882.058	64.17
882.23	58.03
882.402	23.21
882.574	-81.24
882.746	-34.13
882.918	37.55
883.09	68.27
883.262	-9.56
883.434	45.74
883.606	2.73
883.778	47.79
883.95	96.94
884.122	-34.13
884.293	58.03
884.465	78.51
884.637	-15.7
884.809	2.73
884.98	43.69
885.152	-79.19
885.324	33.45
885.496	60.07
885.667	-21.85
885.839	-7.51
886.011	90.79
886.182	-36.18
886.354	-9.56
886.525	90.79
886.697	53.93
886.869	-36.18
887.04	31.4
887.212	66.22
887.383	-11.61
887.555	-11.61
887.726	-27.99
887.897	23.21
888.069	-13.65
888.24	-36.18
888.412	-15.7
888.583	-83.28
888.754	-32.08
888.926	-46.42
889.097	74.41
889.268	-7.51
889.44	12.97
889.611	-75.09
889.782	-17.75
889.953	-68.95
890.125	37.55
890.296	35.5
890.467	17.07
890.638	29.35
890.809	23.21
890.98	-21.85
891.151	-54.61
891.323	68.27
891.494	76.46
891.665	19.11
891.836	-34.13
892.007	27.31
892.178	55.98
892.349	-27.99
892.52	-21.85
892.691	-58.71
892.862	-9.56
893.032	10.92
893.203	-3.41
893.374	2.73
893.545	4.78
893.716	-38.23
893.887	62.12
894.057	-27.99
894.228	80.55
894.399	-17.75
894.57	45.74
894.74	-9.56
894.911	6.83
895.082	17.07
895.253	29.35
895.423	-64.85
895.594	51.88
895.764	17.07
895.935	-21.85
896.106	27.31
896.276	-1.37
896.447	-11.61
896.617	-32.08
896.788	-42.32
896.958	19.11
897.129	-3.41
897.299	-17.75
897.47	78.51
897.64	23.21
897.81	-79.19
897.981	2.73
898.151	-30.04
898.322	21.16
898.492	-32.08
898.662	-1.37
898.832	8.87
899.003	-40.28
899.173	4.78
899.343	-25.94
899.513	-38.23
