Data from USB4F104151__38__12-35-46-460.txt Node

Date: Fri Mar 14 12:35:46 EDT 2025
User: louis
Spectrometer: USB4F10415
Trigger mode: 4
Integration Time (sec): 2.000000E-2
Scans to average: 1
Electric dark correction enabled: true
Nonlinearity correction enabled: false
Boxcar width: 0
XAxis mode: Wavelengths
Number of Pixels in Spectrum: 3648
>>>>>Begin Spectral Data<<<<<
178.204	-86.01
178.424	-86.01
178.644	-86.01
178.864	-38.91
179.084	-28.67
179.304	-47.1
179.524	-57.34
179.744	-12.29
179.964	10.24
180.184	51.2
180.404	32.77
180.624	-8.19
180.844	57.34
181.064	-40.96
181.283	8.19
181.503	-22.53
181.723	28.67
181.943	-59.39
182.163	-24.58
182.383	-10.24
182.602	53.25
182.822	55.3
183.042	102.4
183.262	-30.72
183.482	26.62
183.701	34.82
183.921	-8.19
184.141	47.1
184.361	24.58
184.58	-8.19
184.8	-40.96
185.02	6.14
185.239	26.62
185.459	55.3
185.679	18.43
185.898	-45.06
186.118	51.2
186.338	-12.29
186.557	34.82
186.777	6.14
186.997	51.2
187.216	20.48
187.436	63.49
187.655	16.38
187.875	-18.43
188.095	59.39
188.314	-16.38
188.534	65.54
188.753	-57.34
188.973	51.2
189.192	22.53
189.412	2.05
189.631	-36.86
189.851	-6.14
190.07	67.58
190.29	-73.73
190.509	94.21
190.729	-63.49
190.948	77.82
191.168	67.58
191.387	86.01
191.607	-12.29
191.826	-28.67
192.045	-22.53
192.265	14.34
192.484	20.48
192.704	-8.19
192.923	18.43
193.142	20.48
193.362	34.82
193.581	-8.19
193.8	0
194.02	18.43
194.239	24.58
194.458	6.14
194.678	-8.19
194.897	102.4
195.116	20.48
195.335	2.05
195.555	12.29
195.774	-34.82
195.993	14.34
196.212	-2.05
196.432	6.14
196.651	30.72
196.87	12.29
197.089	59.39
197.308	51.2
197.528	20.48
197.747	-45.06
197.966	90.11
198.185	-20.48
198.404	-6.14
198.623	53.25
198.842	47.1
199.062	61.44
199.281	73.73
199.5	24.58
199.719	45.06
199.938	32.77
200.157	30.72
200.376	6.14
200.595	47.1
200.814	65.54
201.033	-4.1
201.252	24.58
201.471	24.58
201.69	0
201.909	0
202.128	67.58
202.347	-49.15
202.566	6.14
202.785	-4.1
203.004	-22.53
203.223	-18.43
203.442	-4.1
203.661	2.05
203.879	14.34
204.098	16.38
204.317	24.58
204.536	51.2
204.755	-14.34
204.974	16.38
205.193	55.3
205.411	79.87
205.63	-2.05
205.849	34.82
206.068	-28.67
206.287	16.38
206.505	51.2
206.724	-24.58
206.943	-4.1
207.162	-36.86
207.381	16.38
207.599	51.2
207.818	20.48
208.037	10.24
208.255	79.87
208.474	43.01
208.693	20.48
208.911	-6.14
209.13	73.73
209.349	57.34
209.567	43.01
209.786	143.36
210.005	43.01
210.223	0
210.442	24.58
210.661	-16.38
210.879	12.29
211.098	2.05
211.316	-100.35
211.535	-6.14
211.753	55.3
211.972	-75.77
212.191	-28.67
212.409	10.24
212.628	57.34
212.846	26.62
213.065	6.14
213.283	6.14
213.502	40.96
213.72	-20.48
213.938	-71.68
214.157	57.34
214.375	24.58
214.594	-8.19
214.812	22.53
215.031	63.49
215.249	18.43
215.467	53.25
215.686	-22.53
215.904	63.49
216.122	12.29
216.341	16.38
216.559	59.39
216.778	4.1
216.996	28.67
217.214	38.91
217.432	36.86
217.651	61.44
217.869	40.96
218.087	2.05
218.306	0
218.524	-45.06
218.742	-12.29
218.96	-38.91
219.179	-38.91
219.397	55.3
219.615	45.06
219.833	77.82
220.051	-30.72
220.27	26.62
220.488	40.96
220.706	-6.14
220.924	12.29
221.142	6.14
221.36	-4.1
221.578	92.16
221.796	14.34
222.015	32.77
222.233	-24.58
222.451	114.69
222.669	36.86
222.887	38.91
223.105	12.29
223.323	36.86
223.541	-71.68
223.759	38.91
223.977	22.53
224.195	114.69
224.413	-16.38
224.631	-8.19
224.849	18.43
225.067	73.73
225.285	-34.82
225.503	-12.29
225.721	20.48
225.939	28.67
226.157	30.72
226.375	30.72
226.592	16.38
226.81	45.06
227.028	-2.05
227.246	38.91
227.464	0
227.682	81.92
227.9	124.93
228.117	-4.1
228.335	67.58
228.553	-36.86
228.771	-6.14
228.989	22.53
229.206	-61.44
229.424	71.68
229.642	-83.97
229.86	-10.24
230.077	28.67
230.295	-24.58
230.513	67.58
230.731	10.24
230.948	71.68
231.166	55.3
231.384	8.19
231.601	-2.05
231.819	12.29
232.037	-24.58
232.254	-8.19
232.472	49.15
232.689	-16.38
232.907	14.34
233.125	6.14
233.342	18.43
233.56	-10.24
233.777	-6.14
233.995	43.01
234.213	22.53
234.43	55.3
234.648	-2.05
234.865	34.82
235.083	45.06
235.3	-28.67
235.518	118.78
235.735	-38.91
235.953	34.82
236.17	-43.01
236.388	22.53
236.605	-12.29
236.822	65.54
237.04	-26.62
237.257	0
237.475	-18.43
237.692	92.16
237.909	-40.96
238.127	30.72
238.344	4.1
238.562	-49.15
238.779	-104.45
238.996	8.19
239.214	14.34
239.431	40.96
239.648	0
239.865	16.38
240.083	26.62
240.3	2.05
240.517	12.29
240.735	10.24
240.952	-16.38
241.169	55.3
241.386	-8.19
241.603	-83.97
241.821	43.01
242.038	126.97
242.255	43.01
242.472	-8.19
242.689	-6.14
242.907	43.01
243.124	6.14
243.341	-4.1
243.558	12.29
243.775	-108.54
243.992	-8.19
244.209	-18.43
244.426	81.92
244.643	2.05
244.86	8.19
245.078	79.87
245.295	20.48
245.512	71.68
245.729	55.3
245.946	61.44
246.163	12.29
246.38	12.29
246.597	2.05
246.814	-6.14
247.031	8.19
247.248	30.72
247.464	-26.62
247.681	32.77
247.898	18.43
248.115	45.06
248.332	-20.48
248.549	-12.29
248.766	49.15
248.983	61.44
249.2	-4.1
249.417	-32.77
249.633	8.19
249.85	38.91
250.067	-71.68
250.284	34.82
250.501	24.58
250.717	61.44
250.934	73.73
251.151	2.05
251.368	-12.29
251.585	28.67
251.801	53.25
252.018	-40.96
252.235	49.15
252.451	57.34
252.668	2.05
252.885	30.72
253.102	32.77
253.318	6.14
253.535	0
253.752	36.86
253.968	-4.1
254.185	30.72
254.401	34.82
254.618	14.34
254.835	20.48
255.051	43.01
255.268	45.06
255.484	-16.38
255.701	26.62
255.917	20.48
256.134	-4.1
256.351	20.48
256.567	2.05
256.784	-36.86
257	-12.29
257.217	30.72
257.433	-34.82
257.65	51.2
257.866	86.01
258.082	67.58
258.299	-32.77
258.515	-6.14
258.732	-8.19
258.948	69.63
259.165	47.1
259.381	-20.48
259.597	98.3
259.814	77.82
260.03	-2.05
260.246	8.19
260.463	6.14
260.679	34.82
260.895	-6.14
261.112	-18.43
261.328	18.43
261.544	-10.24
261.761	73.73
261.977	16.38
262.193	20.48
262.409	124.93
262.626	59.39
262.842	2.05
263.058	8.19
263.274	43.01
263.49	-12.29
263.707	53.25
263.923	34.82
264.139	-16.38
264.355	83.97
264.571	71.68
264.787	-53.25
265.004	18.43
265.22	16.38
265.436	51.2
265.652	2.05
265.868	67.58
266.084	-45.06
266.3	-49.15
266.516	18.43
266.732	79.87
266.948	-24.58
267.164	-4.1
267.38	32.77
267.596	81.92
267.812	12.29
268.028	34.82
268.244	-53.25
268.46	53.25
268.676	2.05
268.892	-49.15
269.108	43.01
269.324	18.43
269.54	-26.62
269.756	120.83
269.972	-4.1
270.188	86.01
270.403	34.82
270.619	34.82
270.835	4.1
271.051	57.34
271.267	-2.05
271.483	16.38
271.698	55.3
271.914	30.72
272.13	-34.82
272.346	22.53
272.562	61.44
272.777	59.39
272.993	20.48
273.209	-32.77
273.425	10.24
273.64	0
273.856	65.54
274.072	6.14
274.287	57.34
274.503	-18.43
274.719	-6.14
274.934	6.14
275.15	88.06
275.366	22.53
275.581	-14.34
275.797	24.58
276.012	28.67
276.228	14.34
276.444	104.45
276.659	-18.43
276.875	-38.91
277.09	12.29
277.306	65.54
277.521	28.67
277.737	14.34
277.952	53.25
278.168	-14.34
278.383	-20.48
278.599	0
278.814	34.82
279.03	38.91
279.245	45.06
279.461	47.1
279.676	79.87
279.892	-34.82
280.107	40.96
280.322	34.82
280.538	12.29
280.753	-6.14
280.969	16.38
281.184	30.72
281.399	22.53
281.615	43.01
281.83	-14.34
282.045	-8.19
282.26	63.49
282.476	6.14
282.691	36.86
282.906	24.58
283.122	49.15
283.337	30.72
283.552	-6.14
283.767	30.72
283.983	69.63
284.198	-14.34
284.413	61.44
284.628	32.77
284.843	67.58
285.058	-2.05
285.274	126.97
285.489	-34.82
285.704	75.77
285.919	-12.29
286.134	12.29
286.349	22.53
286.564	34.82
286.779	65.54
286.995	-16.38
287.21	-22.53
287.425	81.92
287.64	-30.72
287.855	86.01
288.07	-65.53
288.285	-2.05
288.5	-8.19
288.715	-38.91
288.93	55.3
289.145	67.58
289.36	59.39
289.575	34.82
289.79	71.68
290.004	55.3
290.219	14.34
290.434	-12.29
290.649	34.82
290.864	-12.29
291.079	-20.48
291.294	18.43
291.509	6.14
291.724	51.2
291.938	67.58
292.153	110.59
292.368	57.34
292.583	-69.63
292.798	69.63
293.012	10.24
293.227	22.53
293.442	16.38
293.657	36.86
293.871	75.77
294.086	36.86
294.301	-16.38
294.516	55.3
294.73	12.29
294.945	-22.53
295.16	-30.72
295.374	12.29
295.589	49.15
295.804	-71.68
296.018	-38.91
296.233	16.38
296.447	20.48
296.662	-8.19
296.877	55.3
297.091	51.2
297.306	40.96
297.52	28.67
297.735	4.1
297.949	67.58
298.164	65.54
298.378	-65.53
298.593	-4.1
298.807	79.87
299.022	-12.29
299.236	-28.67
299.451	32.77
299.665	-45.06
299.88	-12.29
300.094	20.48
300.309	-18.43
300.523	71.68
300.737	65.54
300.952	4.1
301.166	16.38
301.381	-32.77
301.595	40.96
301.809	2.05
302.024	10.24
302.238	-28.67
302.452	57.34
302.667	14.34
302.881	51.2
303.095	-16.38
303.309	16.38
303.524	24.58
303.738	12.29
303.952	-30.72
304.166	45.06
304.381	36.86
304.595	36.86
304.809	-18.43
305.023	8.19
305.237	-20.48
305.452	-2.05
305.666	51.2
305.88	16.38
306.094	0
306.308	-16.38
306.522	71.68
306.736	112.64
306.95	-30.72
307.164	47.1
307.379	40.96
307.593	16.38
307.807	26.62
308.021	-40.96
308.235	0
308.449	43.01
308.663	-30.72
308.877	137.21
309.091	92.16
309.305	28.67
309.519	-6.14
309.733	65.54
309.947	-53.25
310.161	59.39
310.374	-2.05
310.588	131.07
310.802	6.14
311.016	51.2
311.23	53.25
311.444	16.38
311.658	-2.05
311.872	75.77
312.085	30.72
312.299	30.72
312.513	26.62
312.727	45.06
312.941	10.24
313.154	36.86
313.368	67.58
313.582	104.45
313.796	53.25
314.009	-2.05
314.223	40.96
314.437	12.29
314.651	45.06
314.864	-57.34
315.078	57.34
315.292	10.24
315.505	-16.38
315.719	16.38
315.933	-8.19
316.146	-55.3
316.36	4.1
316.573	20.48
316.787	16.38
317.001	8.19
317.214	26.62
317.428	77.82
317.641	61.44
317.855	10.24
318.068	-26.62
318.282	32.77
318.495	34.82
318.709	26.62
318.922	81.92
319.136	30.72
319.349	22.53
319.563	24.58
319.776	28.67
319.99	40.96
320.203	-6.14
320.417	12.29
320.63	51.2
320.843	18.43
321.057	20.48
321.27	57.34
321.483	-38.91
321.697	43.01
321.91	61.44
322.124	55.3
322.337	47.1
322.55	24.58
322.763	67.58
322.977	24.58
323.19	2.05
323.403	57.34
323.617	49.15
323.83	81.92
324.043	-26.62
324.256	36.86
324.469	-24.58
324.683	38.91
324.896	26.62
325.109	-8.19
325.322	24.58
325.535	92.16
325.748	30.72
325.962	0
326.175	51.2
326.388	6.14
326.601	51.2
326.814	-30.72
327.027	-8.19
327.24	-18.43
327.453	-43.01
327.666	34.82
327.879	100.35
328.092	-16.38
328.305	-20.48
328.518	36.86
328.731	32.77
328.944	28.67
329.157	-30.72
329.37	12.29
329.583	51.2
329.796	38.91
330.009	14.34
330.222	79.87
330.435	40.96
330.648	49.15
330.861	18.43
331.073	47.1
331.286	-24.58
331.499	120.83
331.712	28.67
331.925	47.1
332.138	6.14
332.35	153.6
332.563	8.19
332.776	-10.24
332.989	-20.48
333.202	-34.82
333.414	-40.96
333.627	24.58
333.84	-40.96
334.053	-24.58
334.265	16.38
334.478	16.38
334.691	18.43
334.903	22.53
335.116	-10.24
335.329	61.44
335.541	30.72
335.754	38.91
335.966	22.53
336.179	47.1
336.392	18.43
336.604	-16.38
336.817	67.58
337.029	102.4
337.242	73.73
337.454	12.29
337.667	12.29
337.88	16.38
338.092	6.14
338.305	24.58
338.517	51.2
338.729	-40.96
338.942	90.11
339.154	-43.01
339.367	14.34
339.579	43.01
339.792	-6.14
340.004	51.2
340.217	38.91
340.429	100.35
340.641	63.49
340.854	24.58
341.066	-8.19
341.278	114.69
341.491	77.82
341.703	53.25
341.915	-43.01
342.128	40.96
342.34	26.62
342.552	38.91
342.764	26.62
342.977	30.72
343.189	32.77
343.401	59.39
343.613	-69.63
343.826	-22.53
344.038	28.67
344.25	59.39
344.462	77.82
344.674	36.86
344.886	36.86
345.099	45.06
345.311	14.34
345.523	30.72
345.735	-18.43
345.947	47.1
346.159	-22.53
346.371	47.1
346.583	0
346.795	57.34
347.007	6.14
347.219	36.86
347.431	10.24
347.643	14.34
347.855	-20.48
348.067	32.77
348.279	30.72
348.491	30.72
348.703	40.96
348.915	30.72
349.127	-32.77
349.339	36.86
349.551	34.82
349.763	6.14
349.975	65.54
350.187	49.15
350.399	-30.72
350.61	75.77
350.822	59.39
351.034	2.05
351.246	22.53
351.458	14.34
351.669	71.68
351.881	61.44
352.093	8.19
352.305	38.91
352.517	55.3
352.728	75.77
352.94	59.39
353.152	96.25
353.363	81.92
353.575	30.72
353.787	40.96
353.999	36.86
354.21	81.92
354.422	22.53
354.633	10.24
354.845	30.72
355.057	45.06
355.268	40.96
355.48	2.05
355.692	38.91
355.903	-30.72
356.115	57.34
356.326	2.05
356.538	40.96
356.749	40.96
356.961	2.05
357.172	-4.1
357.384	6.14
357.595	28.67
357.807	-4.1
358.018	-12.29
358.23	32.77
358.441	28.67
358.653	18.43
358.864	24.58
359.075	-12.29
359.287	67.58
359.498	-8.19
359.709	79.87
359.921	12.29
360.132	57.34
360.344	57.34
360.555	30.72
360.766	36.86
360.977	20.48
361.189	55.3
361.4	24.58
361.611	102.4
361.823	96.25
362.034	73.73
362.245	30.72
362.456	53.25
362.667	34.82
362.879	77.82
363.09	36.86
363.301	-18.43
363.512	120.83
363.723	59.39
363.935	47.1
364.146	59.39
364.357	86.01
364.568	81.92
364.779	65.54
364.99	61.44
365.201	79.87
365.412	43.01
365.623	-51.2
365.834	83.97
366.045	14.34
366.256	67.58
366.467	69.63
366.678	34.82
366.889	8.19
367.1	-24.58
367.311	34.82
367.522	16.38
367.733	16.38
367.944	34.82
368.155	12.29
368.366	4.1
368.577	67.58
368.788	61.44
368.999	0
369.209	16.38
369.42	120.83
369.631	116.73
369.842	92.16
370.053	28.67
370.264	65.54
370.474	47.1
370.685	65.54
370.896	2.05
371.107	53.25
371.317	106.49
371.528	4.1
371.739	4.1
371.95	73.73
372.16	79.87
372.371	57.34
372.582	98.3
372.792	34.82
373.003	73.73
373.214	59.39
373.424	2.05
373.635	65.54
373.846	16.38
374.056	0
374.267	12.29
374.477	102.4
374.688	59.39
374.898	18.43
375.109	30.72
375.319	-10.24
375.53	75.77
375.74	43.01
375.951	34.82
376.161	40.96
376.372	106.49
376.582	83.97
376.793	14.34
377.003	-47.1
377.214	-4.1
377.424	77.82
377.635	26.62
377.845	-38.91
378.055	38.91
378.266	49.15
378.476	83.97
378.686	61.44
378.897	32.77
379.107	79.87
379.317	24.58
379.528	12.29
379.738	86.01
379.948	65.54
380.158	67.58
380.369	57.34
380.579	18.43
380.789	26.62
380.999	65.54
381.21	69.63
381.42	159.74
381.63	67.58
381.84	24.58
382.05	47.1
382.261	69.63
382.471	24.58
382.681	40.96
382.891	77.82
383.101	0
383.311	51.2
383.521	45.06
383.731	-10.24
383.941	47.1
384.151	-6.14
384.361	53.25
384.571	22.53
384.781	116.73
384.991	92.16
385.201	92.16
385.411	57.34
385.621	55.3
385.831	102.4
386.041	20.48
386.251	-8.19
386.461	69.63
386.671	40.96
386.881	47.1
387.091	-12.29
387.301	73.73
387.511	69.63
387.72	36.86
387.93	100.35
388.14	14.34
388.35	-36.86
388.56	100.35
388.769	40.96
388.979	30.72
389.189	98.3
389.399	53.25
389.609	83.97
389.818	40.96
390.028	65.54
390.238	4.1
390.447	65.54
390.657	53.25
390.867	-43.01
391.076	94.21
391.286	45.06
391.496	10.24
391.705	57.34
391.915	43.01
392.125	83.97
392.334	16.38
392.544	100.35
392.753	81.92
392.963	26.62
393.172	92.16
393.382	2.05
393.591	75.77
393.801	71.68
394.01	81.92
394.22	102.4
394.429	106.49
394.639	100.35
394.848	79.87
395.058	40.96
395.267	94.21
395.477	57.34
395.686	147.45
395.895	96.25
396.105	96.25
396.314	53.25
396.524	75.77
396.733	20.48
396.942	147.45
397.152	61.44
397.361	77.82
397.57	88.06
397.78	92.16
397.989	108.54
398.198	106.49
398.407	108.54
398.617	96.25
398.826	63.49
399.035	61.44
399.244	110.59
399.453	65.54
399.663	57.34
399.872	100.35
400.081	122.88
400.29	106.49
400.499	104.45
400.708	73.73
400.917	28.67
401.127	163.84
401.336	73.73
401.545	81.92
401.754	151.55
401.963	139.26
402.172	151.55
402.381	139.26
402.59	79.87
402.799	122.88
403.008	77.82
403.217	40.96
403.426	90.11
403.635	88.06
403.844	96.25
404.053	65.54
404.262	116.73
404.471	149.5
404.68	131.07
404.888	139.26
405.097	124.93
405.306	151.55
405.515	104.45
405.724	100.35
405.933	161.79
406.142	210.94
406.35	225.28
406.559	147.45
406.768	186.37
406.977	212.99
407.185	116.73
407.394	192.51
407.603	118.78
407.812	231.42
408.02	114.69
408.229	180.22
408.438	126.97
408.646	245.76
408.855	337.91
409.064	145.41
409.272	198.65
409.481	219.13
409.69	229.37
409.898	208.89
410.107	311.29
410.315	329.72
410.524	249.85
410.733	245.76
410.941	260.09
411.15	264.19
411.358	329.72
411.567	311.29
411.775	325.63
411.984	415.74
412.192	473.08
412.401	374.78
412.609	495.61
412.818	440.31
413.026	468.98
413.234	471.03
413.443	442.36
413.651	428.03
413.86	501.75
414.068	563.19
414.276	628.73
414.485	516.09
414.693	520.18
414.901	643.06
415.11	673.78
415.318	542.71
415.526	602.1
415.734	634.87
415.943	735.22
416.151	724.98
416.359	669.69
416.567	835.57
416.776	827.38
416.984	798.71
417.192	917.49
417.4	880.63
417.608	837.62
417.817	929.78
418.025	1019.89
418.233	1060.85
418.441	962.55
418.649	1148.91
418.857	1048.56
419.065	1241.07
419.273	1193.97
419.481	1112.05
419.689	1372.14
419.897	1355.76
420.105	1392.62
420.313	1433.58
420.521	1458.15
420.729	1460.2
420.937	1376.24
421.145	1538.02
421.353	1665
421.561	1726.44
421.769	1697.77
421.977	1826.79
422.185	1918.95
422.393	1914.85
422.601	2017.25
422.809	2076.64
423.017	2019.3
423.224	2131.94
423.432	2316.25
423.64	2260.96
423.848	2404.32
424.056	2389.98
424.263	2711.51
424.471	2504.67
424.679	2654.17
424.887	2760.66
425.094	2750.42
425.302	2842.58
425.51	2895.83
425.718	3080.15
425.925	3188.69
426.133	3168.21
426.341	3452.88
426.548	3465.16
426.756	3516.36
426.964	3692.49
427.171	3743.69
427.379	3866.56
427.586	4007.87
427.794	4151.23
428.001	4300.73
428.209	4468.67
428.417	4294.59
428.624	4616.12
428.832	4724.66
429.039	4612.03
429.247	4644.79
429.454	5044.15
429.662	5513.13
429.869	5009.33
430.076	5449.64
430.284	5314.48
430.491	5334.96
430.699	5959.59
430.906	5795.75
431.114	5879.72
431.321	6184.87
431.528	6238.11
431.736	6684.57
431.943	7075.73
432.15	6692.76
432.358	6842.26
432.565	7233.43
432.772	7014.29
432.979	7591.82
433.187	7608.2
433.394	7593.87
433.601	8357.76
433.808	8089.48
434.016	8286.08
434.223	8476.54
434.43	9158.52
434.637	8912.76
434.844	9408.37
435.052	9453.42
435.259	9449.33
435.466	9533.29
435.673	9518.96
435.88	10119.01
436.087	10477.41
436.294	10768.22
436.501	10501.98
436.708	10436.45
436.915	10891.1
437.122	11358.03
437.329	11525.97
437.537	11925.32
437.743	11937.61
437.95	11777.87
438.157	12457.79
438.364	12836.67
438.571	13184.82
438.778	12877.63
438.985	14104.36
439.192	13489.97
439.399	14047.02
439.606	13739.82
439.813	14276.39
440.02	15300.37
440.227	15087.39
440.433	14849.82
440.64	15486.74
440.847	15386.39
441.054	15552.27
441.261	16539.4
441.467	16455.43
441.674	16570.12
441.881	17350.39
442.088	17458.93
442.294	17204.99
442.501	17987.31
442.708	17870.58
442.914	18835.17
443.121	19185.37
443.328	18841.31
443.534	20139.72
443.741	19662.55
443.948	19441.37
444.154	20876.99
444.361	20672.2
444.568	20874.95
444.774	20926.14
444.981	21053.12
445.187	21698.23
445.394	22748.84
445.6	22511.27
445.807	24333.96
446.013	23795.35
446.22	24016.53
446.426	24755.85
446.633	24655.5
446.839	25722.49
447.046	24551.05
447.252	25958
447.459	26021.49
447.665	26357.36
447.871	27141.73
448.078	28327.5
448.284	27047.52
448.491	27625.05
448.697	29017.67
448.903	29331.01
449.11	29554.24
449.316	29001.29
449.522	29443.65
449.728	29990.45
449.935	30307.89
450.141	30201.4
450.347	31460.9
450.553	30393.9
450.76	30244.4
450.966	31297.06
451.172	30742.06
451.378	31694.36
451.584	31565.34
451.791	32202.26
451.997	31893.02
452.203	32783.88
452.409	32372.24
452.615	32374.29
452.821	30953
453.027	30524.97
453.233	32120.34
453.44	31120.93
453.646	31807
453.852	31512.1
454.058	32181.78
454.264	31149.6
454.47	31757.85
454.676	31157.8
454.882	32015.9
455.088	29363.78
455.294	29666.88
455.5	30215.73
455.705	30570.03
455.911	29140.55
456.117	28694.09
456.323	28229.2
456.529	27004.52
456.735	28128.85
456.941	27043.43
457.147	26664.55
457.352	26029.68
457.558	25720.44
457.764	25804.41
457.97	24995.46
458.176	24557.19
458.381	24733.32
458.587	23223.97
458.793	23342.75
458.999	22202.03
459.204	23541.4
459.41	23117.47
459.616	21507.77
459.821	21538.49
460.027	21698.23
460.233	21092.03
460.438	20008.65
460.644	20324.04
460.85	19470.04
461.055	19273.43
461.261	18953.95
461.466	17696.5
461.672	16975.61
461.878	18290.41
462.083	16793.34
462.289	16621.31
462.494	16736
462.7	15843.09
462.905	15353.62
463.111	15841.04
463.316	15929.1
463.522	15355.67
463.727	15683.34
463.932	15675.15
464.138	15566.61
464.343	15529.75
464.549	14919.45
464.754	15419.16
464.959	15615.76
465.165	15288.09
465.37	14466.85
465.575	14159.66
465.781	14640.93
465.986	14972.7
466.191	14376.74
466.397	14239.53
466.602	13360.95
466.807	13907.76
467.012	13887.28
467.218	13819.69
467.423	13510.45
467.628	13565.74
467.833	14321.45
468.038	13741.87
468.244	13119.29
468.449	13784.88
468.654	13428.53
468.859	13229.88
469.064	13381.43
469.269	12865.34
469.474	12859.2
469.679	13076.28
469.885	12681.02
470.09	12900.16
470.295	12738.37
470.5	12296
470.705	12719.93
470.91	12296
471.115	12197.7
471.32	12341.06
471.525	12349.25
471.73	12060.49
471.935	11759.44
472.139	11460.43
472.344	11611.98
472.549	11396.95
472.754	11511.63
472.959	11233.11
473.164	11009.88
473.369	10950.49
473.574	11349.84
473.778	11073.37
473.983	10925.91
474.188	11116.37
474.393	10604.38
474.598	10532.7
474.802	10293.09
475.007	10309.47
475.212	10458.98
475.417	9826.15
475.621	9959.27
475.826	10057.57
476.031	9879.4
476.235	9588.59
476.44	9961.32
476.645	9465.71
476.849	9535.34
477.054	9346.93
477.259	9447.28
477.463	9412.46
477.668	9193.33
477.872	9168.76
478.077	9029.49
478.282	8920.95
478.486	8728.44
478.691	8703.87
478.895	8802.17
479.1	8720.25
479.304	8836.99
479.509	8220.55
479.713	8648.57
479.918	8175.49
480.122	8304.51
480.326	8353.66
480.531	8437.63
480.735	8335.23
480.94	8208.26
481.144	8515.45
481.348	8107.91
481.553	8087.43
481.757	7921.54
481.961	8128.39
482.166	8400.77
482.37	8198.02
482.574	7911.3
482.778	8114.05
482.983	8216.45
483.187	8173.44
483.391	8075.14
483.595	8069
483.8	8079.24
484.004	8236.93
484.208	8083.33
484.412	8177.54
484.616	8021.89
484.821	8230.79
485.025	7860.1
485.229	8218.5
485.433	8040.33
485.637	7946.12
485.841	8095.62
486.045	8021.89
486.249	8195.97
486.453	7954.31
486.657	8232.83
486.861	8275.84
487.065	7847.82
487.269	8216.45
487.473	7999.37
487.677	8130.44
487.881	8048.52
488.085	8167.3
488.289	8230.79
488.493	8040.33
488.697	8255.36
488.901	8001.41
489.105	8038.28
489.309	8171.4
489.512	8099.72
489.716	8298.37
489.92	8136.58
490.124	8185.73
490.328	8474.49
490.531	8230.79
490.735	8263.55
490.939	8361.86
491.143	8433.54
491.346	8425.34
491.55	8525.69
491.754	8368
491.958	8431.49
492.161	8576.89
492.365	8501.12
492.569	8492.93
492.772	8507.26
492.976	8580.99
493.18	8634.24
493.383	8888.18
493.587	8978.29
493.79	8935.29
493.994	8898.42
494.197	8986.49
494.401	9015.16
494.605	8916.86
494.808	9193.33
495.012	9181.04
495.215	9314.16
495.419	9344.88
495.622	9402.22
495.825	9437.04
496.029	9715.56
496.232	9738.09
496.436	9932.65
496.639	9989.99
496.843	9805.67
497.046	9944.94
497.249	10288.99
497.453	10405.73
497.656	10551.13
497.859	10450.78
498.063	10516.32
498.266	10809.18
498.469	10682.2
498.673	10960.73
498.876	10878.81
499.079	11079.51
499.282	11056.98
499.485	11616.08
499.689	11409.23
499.892	11620.17
500.095	11673.42
500.298	12037.96
500.501	11804.49
500.705	11941.71
500.908	12179.27
501.111	12465.99
501.314	12613.44
501.517	12529.47
501.72	12777.28
501.923	12842.81
502.126	13115.19
502.329	13186.87
502.532	13477.68
502.735	13332.28
502.938	13750.06
503.141	13905.71
503.344	14104.36
503.547	13918
503.75	14546.72
503.953	14575.39
504.156	14497.57
504.359	14966.56
504.562	14847.77
504.765	15329.05
504.968	15462.16
505.17	15759.12
505.373	15513.36
505.576	16060.17
505.779	15769.36
505.982	16162.57
506.185	16396.04
506.387	16510.72
506.59	16594.69
506.793	17184.51
506.996	17139.45
507.198	17643.25
507.401	17426.17
507.604	17534.71
507.807	18130.67
508.009	18200.3
508.212	18444.01
508.415	18915.04
508.617	18904.8
508.82	18921.18
509.022	18933.47
509.225	19654.36
509.428	19465.94
509.63	19828.43
509.833	19939.02
510.035	20334.28
510.238	20199.12
510.44	20795.07
510.643	21010.11
510.845	21190.33
511.048	21038.78
511.25	21491.38
511.453	21581.49
511.655	22331.05
511.858	22007.47
512.06	22195.89
512.262	22664.87
512.465	22812.32
512.667	22820.52
512.87	23361.18
513.072	23404.19
513.274	23740.05
513.477	24110.74
513.679	24432.27
513.881	24462.99
514.084	25036.42
514.286	24917.64
514.488	25204.35
514.69	25945.72
514.893	25781.88
515.095	26029.68
515.297	26447.47
515.499	26513
515.701	26760.81
515.904	27178.59
516.106	27131.49
516.308	27414.11
516.51	28030.55
516.712	28212.82
516.914	28292.69
517.116	28546.64
517.318	28636.75
517.52	29247.04
517.722	29109.83
517.925	29441.6
518.127	30215.73
518.329	30119.48
518.531	30084.66
518.733	30807.59
518.935	30897.7
519.136	30946.86
519.338	31804.95
519.54	32069.14
519.742	32001.56
519.944	32130.58
520.146	32677.39
520.348	33136.13
520.55	32890.38
520.752	33377.79
520.954	33519.1
521.155	33435.14
521.357	33922.55
521.559	34291.19
521.761	35026.41
521.963	34751.98
522.164	35218.92
522.366	35223.01
522.568	35833.31
522.77	35931.61
522.971	36378.07
523.173	36029.91
523.375	36562.39
523.576	36752.85
523.778	36978.12
523.98	37522.88
524.181	37508.55
524.383	37416.39
524.584	38014.4
524.786	37924.29
524.988	38043.07
525.189	38354.36
525.391	38532.53
525.592	38737.33
525.794	39030.19
525.995	38972.85
526.197	39486.89
526.398	39040.43
526.6	39634.34
526.801	39703.97
527.003	39886.24
527.204	39843.23
527.406	40129.95
527.607	40086.94
527.808	40756.63
528.01	40189.34
528.211	40527.25
528.412	40996.24
528.614	41059.73
528.815	40893.84
529.016	41602.44
529.218	40957.33
529.419	41016.72
529.62	41792.9
529.822	41387.4
530.023	41364.87
530.224	41717.12
530.425	41545.09
530.626	41588.1
530.828	41131.4
531.029	42362.23
531.23	41481.61
531.431	41594.25
531.632	41776.51
531.833	42300.79
532.035	42194.3
532.236	42083.71
532.437	42124.67
532.638	41719.17
532.839	42372.47
533.04	42241.4
533.241	41432.46
533.442	42777.97
533.643	42233.21
533.844	41880.96
534.045	42306.94
534.246	41741.7
534.447	42167.68
534.648	42165.63
534.849	42145.15
535.05	41895.3
535.251	42259.84
535.451	41923.97
535.652	42284.41
535.853	42212.73
536.054	42212.73
536.255	42272.12
536.456	41541
536.657	42720.63
536.857	41801.09
537.058	41960.83
537.259	42280.31
537.46	42474.87
537.66	41821.57
537.861	42116.48
538.062	41624.96
538.263	41817.47
538.463	41860.48
538.664	41614.72
538.865	41921.92
539.065	42284.41
539.266	42155.39
539.466	42564.98
539.667	41088.4
539.868	41891.2
540.068	41723.27
540.269	41649.54
540.469	41770.37
540.67	41821.57
540.87	41555.33
541.071	41958.78
541.271	41682.31
541.472	41538.95
541.672	41266.57
541.873	41405.83
542.073	41082.25
542.274	41592.2
542.474	41629.06
542.675	41305.48
542.875	41624.96
543.075	41231.75
543.276	40969.61
543.476	41809.28
543.676	41172.36
543.877	40854.93
544.077	41151.88
544.277	41180.56
544.478	40662.42
544.678	41059.73
544.878	41190.8
545.078	41258.38
545.279	40899.98
545.479	41092.49
545.679	41145.74
545.879	41194.89
546.079	40883.6
546.28	41170.32
546.48	40764.82
546.68	41278.86
546.88	41086.35
547.08	41151.88
547.28	40881.55
547.48	40504.73
547.68	41039.25
547.88	40705.43
548.081	40916.37
548.281	40500.63
548.481	40625.56
548.681	41002.38
548.881	40848.78
549.081	40691.09
549.28	40623.51
549.48	40822.16
549.68	40490.39
549.88	40842.64
550.08	40488.34
550.28	40707.47
550.48	40588.69
550.68	40879.5
550.88	40431
551.08	40277.4
551.279	40426.9
551.479	40275.35
551.679	40471.96
551.879	40236.44
552.079	40861.07
552.278	40203.67
552.478	40287.64
552.678	40203.67
552.878	40375.7
553.077	40140.19
553.277	40011.17
553.477	40455.57
553.676	40275.35
553.876	40113.56
554.076	39857.57
554.275	40052.12
554.475	39689.63
554.674	40136.09
554.874	40301.98
555.074	39968.16
555.273	39931.29
555.473	39951.77
555.672	39966.11
555.872	39607.72
556.071	39687.59
556.271	39890.34
556.47	39568.8
556.67	39130.54
556.869	39138.73
557.068	39691.68
557.268	39165.35
557.467	39343.53
557.667	39663.01
557.866	39378.34
558.065	39142.83
558.265	39409.06
558.464	39126.44
558.663	39265.7
558.863	38770.1
559.062	39261.61
559.261	38602.16
559.461	39161.26
559.66	38770.1
559.859	38796.72
560.058	38647.22
560.258	38614.45
560.457	38297.02
560.656	38630.83
560.855	38079.93
561.054	38579.64
561.253	38098.36
561.453	38401.46
561.652	38374.84
561.851	38137.27
562.05	38176.19
562.249	37619.14
562.448	38137.27
562.647	37948.86
562.846	38016.44
563.045	37565.89
563.244	37342.66
563.443	37928.38
563.642	37303.75
563.841	37258.7
564.04	37391.81
564.239	37328.33
564.438	37217.74
564.637	37103.05
564.836	37395.91
565.035	36785.61
565.234	36902.35
565.432	36578.77
565.631	37066.19
565.83	36740.56
566.029	36625.87
566.228	36230.62
566.427	36165.08
566.625	36195.8
566.824	35692
567.023	35823.07
567.222	35247.59
567.42	36099.55
567.619	35530.21
567.818	35894.75
568.016	35339.75
568.215	35784.16
568.414	35411.43
568.612	35450.34
568.811	34993.64
569.01	35372.52
569.208	34741.74
569.407	34809.32
569.605	34264.57
569.804	34819.56
570.002	34145.78
570.201	34584.05
570.4	34084.34
570.598	34297.33
570.797	33725.95
570.995	33953.27
571.193	33539.58
571.392	33953.27
571.59	33285.64
571.789	33484.29
571.987	33486.34
572.186	33306.12
572.384	32986.63
572.582	33529.34
572.781	33213.96
572.979	33082.89
573.177	32904.71
573.376	32859.66
573.574	32421.39
573.772	32712.2
573.971	32439.82
574.169	32171.54
574.367	32194.07
574.565	32394.77
574.763	32314.9
574.962	32173.59
575.16	31751.71
575.358	31532.57
575.556	31327.78
575.754	31804.95
575.952	31061.54
576.151	31516.19
576.349	31458.85
576.547	31215.14
576.745	31139.36
576.943	31020.58
577.141	30981.67
577.339	30873.13
577.537	30629.42
577.735	30502.45
577.933	30400.05
578.131	30322.23
578.329	30277.17
578.527	29963.83
578.725	30105.14
578.923	29957.69
579.121	29937.21
579.319	29918.78
579.516	29945.4
579.714	29685.31
579.912	29658.68
580.11	29533.76
580.308	29265.47
580.506	29548.09
580.704	29050.44
580.901	29253.19
581.099	29406.78
581.297	28651.08
581.495	28847.69
581.692	28726.86
581.89	28825.16
582.088	28958.28
582.285	28382.8
582.483	28728.91
582.681	28464.72
582.878	28292.69
583.076	27934.29
583.274	28427.85
583.471	27965.01
583.669	28229.2
583.866	27565.66
584.064	27956.82
584.262	27391.58
584.459	27960.92
584.657	27674.2
584.854	27483.74
585.052	27061.86
585.249	27526.75
585.447	27252.32
585.644	26949.22
585.841	26785.38
586.039	27272.8
586.236	26857.06
586.434	26697.32
586.631	26738.28
586.828	26721.9
587.026	26558.06
587.223	26431.08
587.42	26476.14
587.618	26343.02
587.815	26015.35
588.012	25917.04
588.21	25962.1
588.407	26371.69
588.604	25958
588.801	25837.17
588.999	25646.71
589.196	25523.83
589.393	26097.27
589.59	25597.56
589.787	25540.22
589.984	25355.9
590.182	25175.68
590.379	25163.39
590.576	25243.26
590.773	25220.74
590.97	24899.2
591.167	25081.47
591.364	24909.44
591.561	25060.99
591.758	24428.17
591.955	24620.68
592.152	24817.29
592.349	24487.56
592.546	24673.93
592.743	24563.34
592.94	23910.04
593.137	24596.1
593.334	24174.22
593.531	23985.81
593.727	24272.53
593.924	24090.26
594.121	24084.11
594.318	24166.03
594.515	23830.16
594.712	23686.81
594.908	23418.52
595.105	23912.08
595.302	23422.62
595.499	23510.68
595.696	23256.73
595.892	23299.74
596.089	23344.8
596.286	23518.87
596.482	23025.31
596.679	23125.66
596.876	23137.95
597.072	22967.97
597.269	23279.26
597.466	22873.76
597.662	22851.24
597.859	22568.62
598.055	22693.54
598.252	22331.05
598.448	22523.56
598.645	22435.5
598.841	22464.17
599.038	22247.08
599.234	22382.25
599.431	22021.81
599.627	22380.2
599.824	22101.68
600.02	21913.27
600.217	21972.66
600.413	21591.73
600.609	21755.57
600.806	21857.97
601.002	21767.86
601.198	21659.32
601.395	21493.43
601.591	21585.59
601.787	21655.22
601.984	21493.43
602.18	21411.51
602.376	21364.41
602.572	21149.37
602.769	20887.23
602.965	21132.99
603.161	21024.45
603.357	20934.34
603.553	20760.26
603.75	20758.21
603.946	20666.05
604.142	20823.75
604.338	20440.78
604.534	20461.26
604.73	20391.62
604.926	20410.06
605.122	20514.5
605.318	20498.12
605.514	20043.47
605.71	20125.39
605.906	20104.91
606.102	20287.18
606.298	20117.2
606.494	19961.55
606.69	20094.67
606.886	20158.16
607.082	19666.64
607.278	20037.33
607.474	19461.85
607.67	20035.28
607.866	19576.53
608.062	19936.98
608.257	19637.97
608.453	19824.34
608.649	19617.49
608.845	19334.87
609.041	19506.9
609.236	19705.56
609.432	19326.68
609.628	19533.53
609.824	19259.1
610.019	19125.98
610.215	19293.91
610.411	19453.66
610.606	19091.16
610.802	19179.23
610.998	19207.9
611.193	19003.1
611.389	19150.56
611.584	18880.22
611.78	18951.9
611.976	18437.86
612.171	19050.21
612.367	18829.02
612.562	18865.89
612.758	18466.53
612.953	18413.29
613.149	18978.53
613.344	18448.1
613.539	18859.74
613.735	18489.06
613.93	18542.31
614.126	18489.06
614.321	18530.02
614.517	18403.05
614.712	18185.96
614.907	18292.46
615.103	18357.99
615.298	18308.84
615.493	18380.52
615.688	17815.28
615.884	18392.81
616.079	18161.39
616.274	17895.15
616.47	18261.74
616.665	17903.34
616.86	17831.66
617.055	17893.1
617.25	17796.85
617.445	18001.65
617.641	17245.94
617.836	17628.92
618.031	17383.16
618.226	17733.36
618.421	17680.11
618.616	17573.62
618.811	17385.21
619.006	17633.01
619.201	16930.56
619.396	17319.67
619.591	16832.26
619.786	17049.34
619.981	16867.07
620.176	16979.71
620.371	16957.18
620.566	17008.38
620.761	16695.04
620.956	16785.15
621.151	16496.39
621.346	16635.65
621.541	16363.27
621.735	16510.72
621.93	16017.16
622.125	16262.92
622.32	16029.45
622.515	15963.92
622.709	15994.64
622.904	16121.61
623.099	15826.7
623.294	16074.51
623.488	15703.82
623.683	15892.24
623.878	15347.48
624.072	15449.88
624.267	15400.72
624.462	15306.52
624.656	15066.91
624.851	15144.73
625.046	15042.33
625.24	14884.64
625.435	14794.53
625.629	14798.62
625.824	14688.03
626.018	14665.5
626.213	14444.32
626.407	14731.04
626.602	14323.49
626.796	14495.52
626.991	14260.01
627.185	14247.72
627.38	13971.24
627.574	14065.45
627.768	13897.52
627.963	13745.97
628.157	13936.43
628.352	13948.72
628.546	13547.31
628.74	13791.02
628.935	13580.08
629.129	13479.73
629.323	13258.55
629.517	13287.22
629.712	13467.44
629.906	13217.59
630.1	12973.88
630.294	13289.27
630.489	12918.59
630.683	13090.62
630.877	12760.89
631.071	12738.37
631.265	12789.56
631.459	12703.55
631.653	12683.07
631.848	12633.92
632.042	12339.01
632.236	12658.49
632.43	12296
632.624	12394.31
632.818	12189.51
633.012	11931.47
633.206	12201.8
633.4	12150.6
633.594	12025.67
633.788	11970.38
633.982	11888.46
634.176	11880.27
634.369	11831.12
634.563	11745.1
634.757	11573.07
634.951	11609.93
635.145	11599.69
635.339	11605.84
635.533	11288.4
635.726	11444.05
635.92	11343.7
636.114	11136.85
636.308	11247.44
636.501	11188.05
636.695	11265.88
636.889	11130.71
637.083	11040.6
637.276	10708.83
637.47	10882.91
637.664	10671.97
637.857	10684.25
638.051	10608.48
638.244	10608.48
638.438	10653.53
638.632	10565.47
638.825	10334.05
639.019	10291.04
639.212	10170.21
639.406	10383.2
639.599	10096.49
639.793	9983.85
639.986	9846.63
640.18	10000.23
640.373	9801.58
640.567	9863.02
640.76	9918.31
640.954	9918.31
641.147	9801.58
641.34	9617.26
641.534	9543.53
641.727	9533.29
641.92	9488.24
642.114	9465.71
642.307	9385.84
642.5	9090.93
642.694	9199.48
642.887	8927.1
643.08	9103.22
643.273	9131.89
643.467	9009.01
643.66	9009.01
643.853	8988.53
644.046	8861.56
644.239	8736.63
644.432	8714.11
644.626	8720.25
644.819	8566.65
645.012	8722.3
645.205	8607.61
645.398	8671.1
645.591	8486.78
645.784	8372.1
645.977	8329.09
646.17	8394.62
646.363	8236.93
646.556	8148.87
646.749	8361.86
646.942	8347.52
647.135	8025.99
647.328	8079.24
647.521	8048.52
647.714	7769.99
647.907	7837.58
648.099	7755.66
648.292	7802.76
648.485	7798.66
648.678	7690.12
648.871	7604.11
649.064	7516.05
649.256	7700.36
649.449	7579.53
649.642	7587.72
649.835	7440.27
650.027	7499.66
650.22	7413.65
650.413	7374.74
650.605	7448.46
650.798	7131.03
650.991	7122.84
651.183	7233.43
651.376	7034.77
651.568	7280.53
651.761	7133.08
651.954	7057.3
652.146	7020.44
652.339	6872.98
652.531	6748.06
652.724	6694.81
652.916	6655.9
653.109	6719.39
653.301	6743.96
653.494	6746.01
653.686	6659.99
653.879	6766.49
654.071	6678.43
654.263	6356.89
654.456	6551.45
654.648	6672.28
654.84	6447.01
655.033	6385.57
655.225	6449.05
655.417	6377.37
655.61	6297.5
655.802	6442.91
655.994	6352.8
656.186	6211.49
656.379	6291.36
656.571	6219.68
656.763	6041.51
656.955	6188.96
657.148	6160.29
657.34	5975.97
657.532	6076.32
657.724	6025.12
657.916	6084.52
658.108	5896.1
658.3	5969.83
658.492	5855.14
658.684	5879.72
658.876	5736.36
659.068	5820.33
659.26	5642.15
659.452	5859.24
659.644	5756.84
659.836	5724.07
660.028	5576.62
660.22	5445.55
660.412	5660.59
660.604	5408.69
660.796	5463.98
660.988	5498.8
661.18	5570.47
661.372	5394.35
661.563	5414.83
661.755	5386.16
661.947	5343.15
662.139	5308.34
662.331	5167.03
662.522	5320.62
662.714	5150.64
662.906	5248.94
663.097	5177.27
663.289	5146.55
663.481	5103.54
663.673	5103.54
663.864	5042.1
664.056	5093.3
664.247	5087.15
664.439	4913.08
664.631	4874.17
664.822	5019.57
665.014	4831.16
665.205	4810.68
665.397	4841.4
665.588	4847.54
665.78	4837.3
665.971	4775.86
666.163	4792.25
666.354	4724.66
666.546	4681.66
666.737	4804.53
666.929	4710.33
667.12	4689.85
667.311	4833.21
667.503	4628.41
667.694	4485.05
667.885	4675.51
668.077	4747.19
668.268	4683.7
668.459	4538.3
668.651	4485.05
668.842	4526.01
669.033	4415.42
669.224	4489.15
669.416	4452.28
669.607	4437.95
669.798	4325.31
669.989	4474.81
670.18	4472.76
670.371	4505.53
670.563	4423.61
670.754	4440
670.945	4399.04
671.136	4405.18
671.327	4306.88
671.518	4270.01
671.709	4376.51
671.9	4247.49
672.091	4368.32
672.282	4378.56
672.473	4095.94
672.664	4276.16
672.855	4181.95
673.046	4317.12
673.237	4233.15
673.428	4102.08
673.619	4173.76
673.809	4204.48
674	4018.11
674.191	4184
674.382	4108.23
674.573	4173.76
674.764	3950.53
674.954	4184
675.145	3991.49
675.336	4108.23
675.527	4081.6
675.717	4106.18
675.908	4151.23
676.099	3995.59
676.289	4245.44
676.48	4044.74
676.671	4034.5
676.861	4005.83
677.052	3956.68
677.243	3989.44
677.433	4022.21
677.624	4042.69
677.814	3975.11
678.005	3925.96
678.195	4040.64
678.386	4108.23
678.576	4095.94
678.767	3825.61
678.957	3973.06
679.148	4020.16
679.338	3977.16
679.529	3962.82
679.719	3913.67
679.909	4157.38
680.1	3985.35
680.29	4034.5
680.481	3909.57
680.671	4061.12
680.861	3882.95
681.052	3958.72
681.242	4020.16
681.432	4003.78
681.622	4028.35
681.813	3907.52
682.003	3897.28
682.193	3979.2
682.383	4018.11
682.573	3946.44
682.764	3764.17
682.954	3966.92
683.144	3844.04
683.334	3913.67
683.524	3852.23
683.714	3950.53
683.904	3919.81
684.094	4005.83
684.284	3870.66
684.474	3968.96
684.664	3878.85
684.854	3874.76
685.044	3850.18
685.234	3901.38
685.424	3794.89
685.614	3868.61
685.804	3882.95
685.994	3796.93
686.184	3872.71
686.374	3801.03
686.564	3882.95
686.753	3786.69
686.943	3835.85
687.133	3815.37
687.323	3823.56
687.513	3837.89
687.702	3717.06
687.892	3815.37
688.082	3696.58
688.272	3715.02
688.461	3751.88
688.651	3639.24
688.841	3762.12
689.03	3522.51
689.22	3672.01
689.41	3696.58
689.599	3745.73
689.789	3755.97
689.979	3616.71
690.168	3676.1
690.358	3620.81
690.547	3616.71
690.737	3708.87
690.926	3577.8
691.116	3573.71
691.305	3487.69
691.495	3553.23
691.684	3481.55
691.874	3639.24
692.063	3471.31
692.252	3538.89
692.442	3297.23
692.631	3483.59
692.82	3465.16
693.01	3475.4
693.199	3485.64
693.388	3463.12
693.578	3502.03
693.767	3475.4
693.956	3485.64
694.146	3442.64
694.335	3352.52
694.524	3360.72
694.713	3252.17
694.902	3411.92
695.092	3518.41
695.281	3413.96
695.47	3456.97
695.659	3364.81
695.848	3332.05
696.037	3391.44
696.226	3465.16
696.415	3407.82
696.604	3379.15
696.793	3483.59
696.982	3358.67
697.171	3440.59
697.36	3596.23
697.549	3325.9
697.738	3215.31
697.927	3289.04
698.116	3319.76
698.305	3346.38
698.494	3395.53
698.683	3291.09
698.872	3360.72
699.061	3282.89
699.25	3262.41
699.438	3338.19
699.627	3303.37
699.816	3276.75
700.005	3307.47
700.193	3375.05
700.382	3377.1
700.571	3344.33
700.76	3250.13
700.948	3336.14
701.137	3356.62
701.326	3358.67
701.514	3211.22
701.703	3325.9
701.892	3280.85
702.08	3299.28
702.269	3231.69
702.457	3258.32
702.646	3198.93
702.834	3295.18
703.023	3108.82
703.212	3129.3
703.4	3348.43
703.589	3256.27
703.777	3315.66
703.965	3254.22
704.154	3162.06
704.342	3203.02
704.531	3205.07
704.719	3186.64
704.907	3346.38
705.096	3194.83
705.284	3180.5
705.472	3272.65
705.661	3198.93
705.849	3221.45
706.037	3231.69
706.226	3268.56
706.414	3221.45
706.602	3278.8
706.79	3239.89
706.979	3114.96
707.167	3160.02
707.355	3149.78
707.543	3135.44
707.731	3174.35
707.919	3110.86
708.107	3119.06
708.296	3106.77
708.484	3188.69
708.672	3074
708.86	3069.91
709.048	3030.99
709.236	3028.95
709.424	3074
709.612	3110.86
709.8	2971.6
709.988	3004.37
710.176	3020.75
710.364	3063.76
710.551	3020.75
710.739	3035.09
710.927	2877.4
711.115	3012.56
711.303	3004.37
711.491	3055.57
711.679	2990.03
711.866	2914.26
712.054	3010.51
712.242	3002.32
712.43	2926.55
712.617	2920.4
712.805	2867.16
712.993	2938.84
713.181	2834.39
713.368	2957.27
713.556	2916.31
713.744	2889.68
713.931	2918.36
714.119	2920.4
714.306	2953.17
714.494	2775
714.682	2971.6
714.869	2781.14
715.057	2951.12
715.244	2938.84
715.432	2942.93
715.619	2826.2
715.807	2912.21
715.994	2803.67
716.182	2848.72
716.369	2840.53
716.556	2858.96
716.744	2863.06
716.931	2842.58
717.119	2779.09
717.306	2803.67
717.493	2858.96
717.681	2793.43
717.868	2848.72
718.055	2813.91
718.242	2762.71
718.43	2836.44
718.617	2772.95
718.804	2803.67
718.991	2750.42
719.179	2639.83
719.366	2639.83
719.553	2725.85
719.74	2688.98
719.927	2641.88
720.114	2740.18
720.301	2684.89
720.488	2719.7
720.676	2758.61
720.863	2658.26
721.05	2658.26
721.237	2701.27
721.424	2736.09
721.611	2635.74
721.798	2635.74
721.985	2684.89
722.172	2650.07
722.358	2639.83
722.545	2596.82
722.732	2580.44
722.919	2537.43
723.106	2664.41
723.293	2568.15
723.48	2559.96
723.667	2621.4
723.853	2564.06
724.04	2625.5
724.227	2605.02
724.414	2557.91
724.6	2615.26
724.787	2586.58
724.974	2564.06
725.161	2662.36
725.347	2533.34
725.534	2582.49
725.72	2478.04
725.907	2457.56
726.094	2426.84
726.28	2525.15
726.467	2435.03
726.653	2523.1
726.84	2449.37
727.027	2506.71
727.213	2467.8
727.4	2537.43
727.586	2457.56
727.773	2516.95
727.959	2412.51
728.145	2488.28
728.332	2373.6
728.518	2416.6
728.705	2463.71
728.891	2467.8
729.077	2375.64
729.264	2355.16
729.45	2445.27
729.636	2420.7
729.823	2377.69
730.009	2373.6
730.195	2490.33
730.382	2359.26
730.568	2281.44
730.754	2349.02
730.94	2357.21
731.126	2357.21
731.313	2371.55
731.499	2349.02
731.685	2355.16
731.871	2293.72
732.057	2451.42
732.243	2418.65
732.429	2389.98
732.615	2269.15
732.801	2303.96
732.987	2461.66
733.173	2285.53
733.359	2318.3
733.545	2256.86
733.731	2359.26
733.917	2383.84
734.103	2273.25
734.289	2275.29
734.475	2306.01
734.661	2363.36
734.847	2322.4
735.033	2297.82
735.219	2322.4
735.404	2281.44
735.59	2283.49
735.776	2189.28
735.962	2340.83
736.148	2254.81
736.333	2168.8
736.519	2181.09
736.705	2197.47
736.89	2355.16
737.076	2172.89
737.262	2248.67
737.447	2133.98
737.633	2095.07
737.819	2222.05
738.004	2148.32
738.19	2156.51
738.375	2078.69
738.561	2117.6
738.747	2236.38
738.932	2113.5
739.118	2119.65
739.303	2121.7
739.489	2111.46
739.674	2199.52
739.859	2133.98
740.045	2052.06
740.23	2080.74
740.416	2105.31
740.601	2187.23
740.786	1968.1
740.972	1964
741.157	2082.78
741.342	1943.52
741.528	2015.2
741.713	2084.83
741.898	1998.82
742.084	2131.94
742.269	1869.8
742.454	1916.9
742.639	1957.86
742.824	1990.63
743.01	2052.06
743.195	2015.2
743.38	1998.82
743.565	1884.13
743.75	1869.8
743.935	1902.56
744.12	1882.08
744.305	1900.51
744.49	1929.19
744.675	1781.73
744.86	1861.6
745.045	1910.75
745.23	1832.93
745.415	1814.5
745.6	1867.75
745.785	1814.5
745.97	1916.9
746.155	1765.35
746.34	1789.92
746.525	1720.29
746.71	1767.4
746.895	1753.06
747.079	1751.01
747.264	1740.77
747.449	1781.73
747.634	1751.01
747.819	1701.86
748.003	1722.34
748.188	1716.2
748.373	1562.6
748.557	1785.83
748.742	1597.42
748.927	1689.57
749.111	1718.25
749.296	1652.71
749.481	1638.38
749.665	1607.66
749.85	1556.46
750.034	1578.98
750.219	1554.41
750.404	1626.09
750.588	1546.22
750.773	1529.83
750.957	1431.53
751.141	1374.19
751.326	1585.13
751.51	1480.68
751.695	1513.45
751.879	1456.11
752.064	1531.88
752.248	1456.11
752.432	1441.77
752.617	1435.63
752.801	1370.09
752.985	1441.77
753.17	1337.32
753.354	1327.08
753.538	1382.38
753.722	1273.84
753.907	1310.7
754.091	1286.12
754.275	1314.8
754.459	1296.36
754.643	1366
754.828	1298.41
755.012	1361.9
755.196	1101.81
755.38	1253.36
755.564	1159.15
755.748	1218.54
755.932	1269.74
756.116	1259.5
756.3	1222.64
756.484	1300.46
756.668	1247.21
756.852	1173.49
757.036	1177.58
757.22	1130.48
757.404	1085.42
757.588	1167.34
757.772	1114.1
757.956	1087.47
758.14	1083.38
758.323	1052.66
758.507	1081.33
758.691	1042.42
758.875	1046.51
759.059	1087.47
759.242	980.98
759.426	1189.87
759.61	1011.7
759.794	1101.81
759.977	1042.42
760.161	1052.66
760.345	1077.23
760.528	1169.39
760.712	1009.65
760.895	1032.18
761.079	997.36
761.263	944.11
761.446	940.02
761.63	1064.94
761.813	1056.75
761.997	937.97
762.18	903.15
762.364	931.83
762.547	948.21
762.731	927.73
762.914	894.96
763.098	862.19
763.281	897.01
763.464	968.69
763.648	954.35
763.831	907.25
764.015	915.44
764.198	882.67
764.381	1005.55
764.564	958.45
764.748	899.06
764.931	870.39
765.114	839.67
765.297	917.49
765.481	829.43
765.664	909.3
765.847	888.82
766.03	858.1
766.213	876.53
766.397	837.62
766.58	835.57
766.763	811
766.946	884.72
767.129	884.72
767.312	880.63
767.495	825.33
767.678	835.57
767.861	876.53
768.044	813.04
768.227	872.43
768.41	770.04
768.593	786.42
768.776	874.48
768.959	749.56
769.142	788.47
769.324	833.52
769.507	796.66
769.69	757.75
769.873	776.18
770.056	811
770.239	849.91
770.421	901.11
770.604	792.56
770.787	751.6
770.97	739.32
771.152	761.84
771.335	811
771.518	753.65
771.7	763.89
771.883	780.28
772.066	708.6
772.248	767.99
772.431	786.42
772.613	757.75
772.796	770.04
772.978	718.84
773.161	720.89
773.343	696.31
773.526	663.54
773.708	784.37
773.891	708.6
774.073	716.79
774.256	614.39
774.438	743.41
774.621	665.59
774.803	645.11
774.985	747.51
775.168	714.74
775.35	608.25
775.532	641.01
775.715	641.01
775.897	653.3
776.079	636.92
776.261	712.69
776.444	606.2
776.626	634.87
776.808	567.29
776.99	595.96
777.173	550.9
777.355	591.86
777.537	591.86
777.719	579.58
777.901	569.34
778.083	552.95
778.265	555
778.447	571.38
778.629	567.29
778.811	581.62
778.993	491.51
779.175	579.58
779.357	563.19
779.539	505.85
779.721	485.37
779.903	538.62
780.085	577.53
780.267	514.04
780.449	503.8
780.631	532.47
780.812	548.86
780.994	499.7
781.176	532.47
781.358	438.27
781.54	471.03
781.721	438.27
781.903	487.42
782.085	448.51
782.267	495.61
782.448	407.55
782.63	446.46
782.812	495.61
782.993	403.45
783.175	442.36
783.357	466.94
783.538	466.94
783.72	454.65
783.901	425.98
784.083	415.74
784.264	436.22
784.446	354.3
784.627	387.07
784.809	475.13
784.99	364.54
785.172	346.11
785.353	393.21
785.535	393.21
785.716	327.68
785.897	313.34
786.079	389.11
786.26	360.44
786.441	335.87
786.623	344.06
786.804	323.58
786.985	333.82
787.167	362.49
787.348	397.31
787.529	315.39
787.71	325.63
787.891	399.35
788.073	325.63
788.254	301.05
788.435	327.68
788.616	387.07
788.797	372.73
788.978	352.25
789.159	382.97
789.34	329.72
789.522	311.29
789.703	329.72
789.884	378.87
790.065	417.79
790.246	350.2
790.427	290.81
790.607	346.11
790.788	280.57
790.969	315.39
791.15	333.82
791.331	354.3
791.512	288.76
791.693	331.77
791.874	317.44
792.054	266.24
792.235	258.04
792.416	327.68
792.597	327.68
792.778	317.44
792.958	366.59
793.139	333.82
793.32	393.21
793.5	313.34
793.681	344.06
793.862	337.91
794.042	217.08
794.223	256
794.404	249.85
794.584	251.9
794.765	190.46
794.945	204.8
795.126	319.48
795.306	284.67
795.487	219.13
795.667	235.52
795.848	231.42
796.028	282.62
796.209	249.85
796.389	288.76
796.57	264.19
796.75	251.9
796.93	190.46
797.111	196.61
797.291	251.9
797.471	245.76
797.652	237.56
797.832	196.61
798.012	301.05
798.192	217.08
798.373	270.33
798.553	274.43
798.733	217.08
798.913	182.27
799.093	135.17
799.274	264.19
799.454	231.42
799.634	241.66
799.814	204.8
799.994	186.37
800.174	229.37
800.354	208.89
800.534	129.02
800.714	174.08
800.894	245.76
801.074	172.03
801.254	235.52
801.434	233.47
801.614	215.04
801.794	151.55
801.974	643.06
802.154	163.84
802.334	241.66
802.514	294.91
802.693	147.45
802.873	172.03
803.053	315.39
803.233	188.41
803.413	157.69
803.592	202.75
803.772	112.64
803.952	200.7
804.131	258.04
804.311	223.23
804.491	215.04
804.67	223.23
804.85	118.78
805.03	192.51
805.209	202.75
805.389	86.01
805.568	163.84
805.748	153.6
805.928	161.79
806.107	155.65
806.287	198.65
806.466	165.89
806.646	188.41
806.825	149.5
807.004	167.93
807.184	212.99
807.363	167.93
807.543	212.99
807.722	77.82
807.901	245.76
808.081	163.84
808.26	96.25
808.439	153.6
808.619	178.17
808.798	157.69
808.977	174.08
809.156	163.84
809.336	137.21
809.515	221.18
809.694	49.15
809.873	149.5
810.052	94.21
810.231	190.46
810.411	133.12
810.59	135.17
810.769	120.83
810.948	131.07
811.127	104.45
811.306	135.17
811.485	135.17
811.664	251.9
811.843	81.92
812.022	120.83
812.201	165.89
812.38	122.88
812.559	126.97
812.737	165.89
812.916	124.93
813.095	151.55
813.274	122.88
813.453	184.32
813.632	153.6
813.811	75.77
813.989	118.78
814.168	102.4
814.347	98.3
814.526	104.45
814.704	176.13
814.883	133.12
815.062	47.1
815.24	145.41
815.419	83.97
815.598	45.06
815.776	63.49
815.955	151.55
816.133	83.97
816.312	167.93
816.49	182.27
816.669	96.25
816.847	124.93
817.026	122.88
817.204	92.16
817.383	118.78
817.561	151.55
817.74	114.69
817.918	110.59
818.097	96.25
818.275	75.77
818.453	155.65
818.632	55.3
818.81	83.97
818.988	36.86
819.167	71.68
819.345	106.49
819.523	159.74
819.701	129.02
819.879	108.54
820.058	71.68
820.236	106.49
820.414	73.73
820.592	126.97
820.77	71.68
820.948	32.77
821.127	53.25
821.305	83.97
821.483	116.73
821.661	133.12
821.839	155.65
822.017	100.35
822.195	57.34
822.373	114.69
822.551	83.97
822.729	126.97
822.907	94.21
823.085	51.2
823.262	43.01
823.44	108.54
823.618	96.25
823.796	71.68
823.974	28.67
824.152	71.68
824.329	122.88
824.507	96.25
824.685	118.78
824.863	100.35
825.04	86.01
825.218	135.17
825.396	49.15
825.574	92.16
825.751	77.82
825.929	110.59
826.107	90.11
826.284	86.01
826.462	73.73
826.639	131.07
826.817	14.34
826.994	81.92
827.172	139.26
827.349	133.12
827.527	34.82
827.704	20.48
827.882	32.77
828.059	98.3
828.237	83.97
828.414	92.16
828.591	36.86
828.769	34.82
828.946	69.63
829.124	69.63
829.301	120.83
829.478	124.93
829.655	86.01
829.833	106.49
830.01	12.29
830.187	8.19
830.364	96.25
830.542	65.54
830.719	55.3
830.896	81.92
831.073	36.86
831.25	40.96
831.427	81.92
831.604	67.58
831.782	88.06
831.959	55.3
832.136	20.48
832.313	65.54
832.49	110.59
832.667	63.49
832.844	34.82
833.021	110.59
833.198	110.59
833.374	122.88
833.551	-6.14
833.728	104.45
833.905	102.4
834.082	108.54
834.259	116.73
834.436	88.06
834.612	43.01
834.789	22.53
834.966	-73.73
835.143	38.91
835.319	51.2
835.496	8.19
835.673	86.01
835.85	88.06
836.026	4.1
836.203	65.54
836.38	36.86
836.556	75.77
836.733	-32.77
836.909	49.15
837.086	20.48
837.262	36.86
837.439	94.21
837.616	6.14
837.792	83.97
837.968	49.15
838.145	14.34
838.321	-18.43
838.498	-10.24
838.674	-26.62
838.851	51.2
839.027	100.35
839.203	49.15
839.38	79.87
839.556	61.44
839.732	4.1
839.909	69.63
840.085	57.34
840.261	63.49
840.437	86.01
840.614	30.72
840.79	51.2
840.966	26.62
841.142	43.01
841.318	-14.34
841.494	26.62
841.671	61.44
841.847	53.25
842.023	20.48
842.199	73.73
842.375	65.54
842.551	4.1
842.727	-20.48
842.903	51.2
843.079	53.25
843.255	45.06
843.431	79.87
843.607	10.24
843.783	12.29
843.959	43.01
844.134	-20.48
844.31	108.54
844.486	65.54
844.662	47.1
844.838	-4.1
845.013	90.11
845.189	92.16
845.365	16.38
845.541	32.77
845.716	8.19
845.892	77.82
846.068	57.34
846.244	73.73
846.419	32.77
846.595	-43.01
846.77	14.34
846.946	86.01
847.122	36.86
847.297	34.82
847.473	71.68
847.648	-47.1
847.824	69.63
847.999	-4.1
848.175	59.39
848.35	30.72
848.526	36.86
848.701	77.82
848.876	8.19
849.052	0
849.227	61.44
849.403	28.67
849.578	63.49
849.753	-51.2
849.929	59.39
850.104	16.38
850.279	36.86
850.454	49.15
850.63	38.91
850.805	36.86
850.98	57.34
851.155	-8.19
851.33	118.78
851.505	61.44
851.681	38.91
851.856	90.11
852.031	26.62
852.206	75.77
852.381	28.67
852.556	-30.72
852.731	88.06
852.906	14.34
853.081	-18.43
853.256	61.44
853.431	-43.01
853.606	-8.19
853.781	22.53
853.956	-38.91
854.131	-10.24
854.305	65.54
854.48	34.82
854.655	6.14
854.83	-36.86
855.005	30.72
855.18	114.69
855.354	-20.48
855.529	43.01
855.704	81.92
855.879	8.19
856.053	-4.1
856.228	-40.96
856.403	77.82
856.577	47.1
856.752	-53.25
856.926	-4.1
857.101	51.2
857.276	-53.25
857.45	8.19
857.625	38.91
857.799	45.06
857.974	-22.53
858.148	-12.29
858.323	65.54
858.497	-69.63
858.672	-36.86
858.846	-28.67
859.02	-14.34
859.195	18.43
859.369	-8.19
859.543	43.01
859.718	63.49
859.892	-20.48
860.066	22.53
860.241	57.34
860.415	-8.19
860.589	47.1
860.763	28.67
860.938	61.44
861.112	4.1
861.286	8.19
861.46	59.39
861.634	2.05
861.808	67.58
861.982	34.82
862.157	-71.68
862.331	-30.72
862.505	2.05
862.679	-14.34
862.853	-30.72
863.027	6.14
863.201	8.19
863.375	-38.91
863.549	36.86
863.722	38.91
863.896	55.3
864.07	88.06
864.244	-63.49
864.418	14.34
864.592	-8.19
864.766	47.1
864.939	4.1
865.113	-2.05
865.287	71.68
865.461	53.25
865.634	-43.01
865.808	22.53
865.982	0
866.156	-4.1
866.329	-18.43
866.503	-8.19
866.676	-59.39
866.85	8.19
867.024	79.87
867.197	8.19
867.371	38.91
867.544	-36.86
867.718	-8.19
867.891	-8.19
868.065	30.72
868.238	12.29
868.412	-4.1
868.585	-16.38
868.759	-24.58
868.932	-22.53
869.105	-12.29
869.279	-20.48
869.452	-43.01
869.625	-38.91
869.799	-16.38
869.972	0
870.145	-57.34
870.319	-59.39
870.492	4.1
870.665	30.72
870.838	-30.72
871.011	-14.34
871.185	0
871.358	-36.86
871.531	-38.91
871.704	-34.82
871.877	43.01
872.05	45.06
872.223	24.58
872.396	22.53
872.569	16.38
872.742	49.15
872.915	-10.24
873.088	-10.24
873.261	0
873.434	4.1
873.607	-30.72
873.78	20.48
873.953	4.1
874.126	20.48
874.299	28.67
874.471	20.48
874.644	6.14
874.817	-18.43
874.99	4.1
875.163	38.91
875.335	55.3
875.508	10.24
875.681	24.58
875.853	-22.53
876.026	-18.43
876.199	-26.62
876.371	36.86
876.544	2.05
876.717	-32.77
876.889	22.53
877.062	16.38
877.234	30.72
877.407	-43.01
877.579	-24.58
877.752	-14.34
877.924	24.58
878.097	47.1
878.269	12.29
878.442	86.01
878.614	-34.82
878.786	-16.38
878.959	100.35
879.131	-8.19
879.303	-57.34
879.476	0
879.648	2.05
879.82	-55.3
879.993	-12.29
880.165	14.34
880.337	26.62
880.509	16.38
880.681	8.19
880.854	108.54
881.026	-38.91
881.198	10.24
881.37	-47.1
881.542	28.67
881.714	-40.96
881.886	59.39
882.058	-38.91
882.23	51.2
882.402	2.05
882.574	-6.14
882.746	-14.34
882.918	67.58
883.09	-18.43
883.262	18.43
883.434	-30.72
883.606	55.3
883.778	14.34
883.95	36.86
884.122	-57.34
884.293	-24.58
884.465	-24.58
884.637	32.77
884.809	-8.19
884.98	-59.39
885.152	14.34
885.324	20.48
885.496	26.62
885.667	75.77
885.839	20.48
886.011	12.29
886.182	96.25
886.354	20.48
886.525	6.14
886.697	-12.29
886.869	-30.72
887.04	32.77
887.212	28.67
887.383	55.3
887.555	8.19
887.726	34.82
887.897	-26.62
888.069	14.34
888.24	36.86
888.412	-22.53
888.583	-36.86
888.754	-10.24
888.926	22.53
889.097	32.77
889.268	-20.48
889.44	-43.01
889.611	30.72
889.782	26.62
889.953	-6.14
890.125	-26.62
890.296	-14.34
890.467	53.25
890.638	4.1
890.809	61.44
890.98	-65.53
891.151	-6.14
891.323	2.05
891.494	-63.49
891.665	-20.48
891.836	75.77
892.007	51.2
892.178	49.15
892.349	16.38
892.52	-6.14
892.691	-14.34
892.862	20.48
893.032	-61.44
893.203	-10.24
893.374	20.48
893.545	-4.1
893.716	10.24
893.887	40.96
894.057	61.44
894.228	4.1
894.399	-18.43
894.57	-12.29
894.74	-14.34
894.911	-36.86
895.082	-51.2
895.253	-34.82
895.423	43.01
895.594	16.38
895.764	61.44
895.935	-51.2
896.106	8.19
896.276	-2.05
896.447	-38.91
896.617	-18.43
896.788	-10.24
896.958	-49.15
897.129	-45.06
897.299	12.29
897.47	12.29
897.64	-18.43
897.81	-26.62
897.981	-4.1
898.151	-20.48
898.322	18.43
898.492	-4.1
898.662	-16.38
898.832	4.1
899.003	-86.01
899.173	14.34
899.343	-28.67
899.513	49.15
