Data from USB4F104151__53__12-36-16-957.txt Node

Date: Fri Mar 14 12:36:16 EDT 2025
User: louis
Spectrometer: USB4F10415
Trigger mode: 4
Integration Time (sec): 2.000000E-2
Scans to average: 1
Electric dark correction enabled: true
Nonlinearity correction enabled: false
Boxcar width: 0
XAxis mode: Wavelengths
Number of Pixels in Spectrum: 3648
>>>>>Begin Spectral Data<<<<<
178.204	-32.94
178.424	-32.94
178.644	-32.94
178.864	-69.8
179.084	-61.61
179.304	-37.03
179.524	8.02
179.744	-12.46
179.964	26.45
180.184	-0.17
180.404	-30.89
180.624	28.5
180.844	24.4
181.064	-39.08
181.283	20.31
181.503	-18.6
181.723	30.55
181.943	44.88
182.163	69.46
182.383	14.17
182.602	89.94
182.822	79.7
183.042	100.18
183.262	40.79
183.482	-16.55
183.701	57.17
183.921	34.64
184.141	55.12
184.361	22.36
184.58	18.26
184.8	79.7
185.02	46.93
185.239	108.37
185.459	12.12
185.679	-2.22
185.898	28.5
186.118	16.21
186.338	34.64
186.557	96.08
186.777	40.79
186.997	30.55
187.216	102.23
187.436	91.99
187.655	100.18
187.875	75.6
188.095	34.64
188.314	51.03
188.534	24.4
188.753	-39.08
188.973	5.97
189.192	51.03
189.412	63.32
189.631	61.27
189.851	-4.27
190.07	122.71
190.29	-30.89
190.509	38.74
190.729	100.18
190.948	118.61
191.168	67.41
191.387	53.08
191.607	-2.22
191.826	143.19
192.045	-6.31
192.265	36.69
192.484	77.65
192.704	75.6
192.923	5.97
193.142	108.37
193.362	40.79
193.581	120.66
193.8	63.32
194.02	73.56
194.239	81.75
194.458	8.02
194.678	26.45
194.897	53.08
195.116	38.74
195.335	48.98
195.555	26.45
195.774	79.7
195.993	44.88
196.212	69.46
196.432	3.93
196.651	26.45
196.87	69.46
197.089	135
197.308	61.27
197.528	12.12
197.747	14.17
197.966	55.12
198.185	46.93
198.404	14.17
198.623	71.51
198.842	42.84
199.062	81.75
199.281	12.12
199.5	63.32
199.719	81.75
199.938	44.88
200.157	89.94
200.376	28.5
200.595	61.27
200.814	91.99
201.033	57.17
201.252	57.17
201.471	57.17
201.69	67.41
201.909	73.56
202.128	34.64
202.347	53.08
202.566	36.69
202.785	79.7
203.004	-0.17
203.223	61.27
203.442	110.42
203.661	26.45
203.879	65.36
204.098	69.46
204.317	20.31
204.536	-0.17
204.755	63.32
204.974	44.88
205.193	61.27
205.411	67.41
205.63	120.66
205.849	38.74
206.068	3.93
206.287	26.45
206.505	46.93
206.724	12.12
206.943	-0.17
207.162	100.18
207.381	77.65
207.599	53.08
207.818	34.64
208.037	81.75
208.255	20.31
208.474	69.46
208.693	79.7
208.911	98.13
209.13	59.22
209.349	48.98
209.567	122.71
209.786	75.6
210.005	98.13
210.223	36.69
210.442	22.36
210.661	34.64
210.879	-14.51
211.098	96.08
211.316	46.93
211.535	73.56
211.753	85.84
211.972	69.46
212.191	18.26
212.409	48.98
212.628	36.69
212.846	10.07
213.065	108.37
213.283	132.95
213.502	26.45
213.72	18.26
213.938	79.7
214.157	61.27
214.375	75.6
214.594	30.55
214.812	79.7
215.031	51.03
215.249	20.31
215.467	36.69
215.686	1.88
215.904	77.65
216.122	24.4
216.341	106.32
216.559	114.52
216.778	61.27
216.996	69.46
217.214	75.6
217.432	120.66
217.651	102.23
217.869	18.26
218.087	67.41
218.306	61.27
218.524	83.8
218.742	122.71
218.96	73.56
219.179	67.41
219.397	100.18
219.615	59.22
219.833	79.7
220.051	59.22
220.27	87.89
220.488	46.93
220.706	114.52
220.924	44.88
221.142	143.19
221.36	22.36
221.578	59.22
221.796	-0.17
222.015	-14.51
222.233	112.47
222.451	89.94
222.669	-8.36
222.887	116.56
223.105	124.76
223.323	57.17
223.541	-12.46
223.759	151.38
223.977	65.36
224.195	46.93
224.413	73.56
224.631	100.18
224.849	38.74
225.067	87.89
225.285	46.93
225.503	40.79
225.721	94.04
225.939	63.32
226.157	1.88
226.375	118.61
226.592	-2.22
226.81	-14.51
227.028	40.79
227.246	128.85
227.464	59.22
227.682	16.21
227.9	73.56
228.117	34.64
228.335	141.14
228.553	22.36
228.771	98.13
228.989	65.36
229.206	-2.22
229.424	36.69
229.642	-16.55
229.86	1.88
230.077	59.22
230.295	8.02
230.513	85.84
230.731	28.5
230.948	69.46
231.166	10.07
231.384	48.98
231.601	44.88
231.819	20.31
232.037	98.13
232.254	59.22
232.472	59.22
232.689	53.08
232.907	157.52
233.125	8.02
233.342	63.32
233.56	28.5
233.777	14.17
233.995	38.74
234.213	22.36
234.43	79.7
234.648	110.42
234.865	14.17
235.083	116.56
235.3	59.22
235.518	65.36
235.735	130.9
235.953	135
236.17	79.7
236.388	18.26
236.605	28.5
236.822	96.08
237.04	67.41
237.257	3.93
237.475	30.55
237.692	40.79
237.909	28.5
238.127	67.41
238.344	3.93
238.562	116.56
238.779	14.17
238.996	12.12
239.214	108.37
239.431	44.88
239.648	57.17
239.865	120.66
240.083	44.88
240.3	51.03
240.517	20.31
240.735	42.84
240.952	59.22
241.169	61.27
241.386	55.12
241.603	63.32
241.821	28.5
242.038	65.36
242.255	83.8
242.472	-32.94
242.689	83.8
242.907	48.98
243.124	24.4
243.341	116.56
243.558	53.08
243.775	53.08
243.992	20.31
244.209	59.22
244.426	63.32
244.643	120.66
244.86	51.03
245.078	30.55
245.295	42.84
245.512	10.07
245.729	36.69
245.946	55.12
246.163	42.84
246.38	30.55
246.597	79.7
246.814	51.03
247.031	69.46
247.248	16.21
247.464	8.02
247.681	65.36
247.898	38.74
248.115	55.12
248.332	57.17
248.549	53.08
248.766	32.6
248.983	10.07
249.2	38.74
249.417	108.37
249.633	57.17
249.85	38.74
250.067	-4.27
250.284	-49.32
250.501	153.43
250.717	122.71
250.934	20.31
251.151	59.22
251.368	116.56
251.585	36.69
251.801	46.93
252.018	83.8
252.235	53.08
252.451	10.07
252.668	-6.31
252.885	85.84
253.102	48.98
253.318	46.93
253.535	57.17
253.752	46.93
253.968	87.89
254.185	-26.79
254.401	71.51
254.618	75.6
254.835	53.08
255.051	51.03
255.268	53.08
255.484	118.61
255.701	75.6
255.917	32.6
256.134	22.36
256.351	81.75
256.567	-2.22
256.784	55.12
257	61.27
257.217	73.56
257.433	100.18
257.65	108.37
257.866	48.98
258.082	44.88
258.299	96.08
258.515	44.88
258.732	59.22
258.948	69.46
259.165	40.79
259.381	38.74
259.597	22.36
259.814	67.41
260.03	30.55
260.246	48.98
260.463	85.84
260.679	141.14
260.895	14.17
261.112	65.36
261.328	14.17
261.544	100.18
261.761	32.6
261.977	106.32
262.193	-6.31
262.409	116.56
262.626	46.93
262.842	100.18
263.058	73.56
263.274	40.79
263.49	44.88
263.707	36.69
263.923	24.4
264.139	40.79
264.355	22.36
264.571	32.6
264.787	32.6
265.004	44.88
265.22	46.93
265.436	30.55
265.652	96.08
265.868	55.12
266.084	-2.22
266.3	42.84
266.516	26.45
266.732	18.26
266.948	91.99
267.164	38.74
267.38	36.69
267.596	57.17
267.812	46.93
268.028	83.8
268.244	73.56
268.46	32.6
268.676	59.22
268.892	42.84
269.108	48.98
269.324	26.45
269.54	53.08
269.756	81.75
269.972	67.41
270.188	96.08
270.403	69.46
270.619	53.08
270.835	87.89
271.051	61.27
271.267	59.22
271.483	73.56
271.698	26.45
271.914	44.88
272.13	24.4
272.346	34.64
272.562	83.8
272.777	44.88
272.993	87.89
273.209	36.69
273.425	53.08
273.64	61.27
273.856	46.93
274.072	42.84
274.287	5.97
274.503	42.84
274.719	110.42
274.934	59.22
275.15	10.07
275.366	24.4
275.581	38.74
275.797	55.12
276.012	30.55
276.228	63.32
276.444	96.08
276.659	118.61
276.875	8.02
277.09	69.46
277.306	34.64
277.521	81.75
277.737	112.47
277.952	24.4
278.168	104.28
278.383	89.94
278.599	65.36
278.814	81.75
279.03	120.66
279.245	98.13
279.461	18.26
279.676	96.08
279.892	46.93
280.107	36.69
280.322	36.69
280.538	-16.55
280.753	42.84
280.969	124.76
281.184	57.17
281.399	75.6
281.615	67.41
281.83	85.84
282.045	57.17
282.26	18.26
282.476	34.64
282.691	63.32
282.906	53.08
283.122	63.32
283.337	-0.17
283.552	69.46
283.767	73.56
283.983	114.52
284.198	28.5
284.413	102.23
284.628	-8.36
284.843	94.04
285.058	8.02
285.274	55.12
285.489	40.79
285.704	75.6
285.919	102.23
286.134	132.95
286.349	42.84
286.564	69.46
286.779	61.27
286.995	83.8
287.21	69.46
287.425	59.22
287.64	36.69
287.855	102.23
288.07	69.46
288.285	106.32
288.5	81.75
288.715	40.79
288.93	26.45
289.145	28.5
289.36	3.93
289.575	69.46
289.79	-12.46
290.004	71.51
290.219	51.03
290.434	98.13
290.649	67.41
290.864	20.31
291.079	91.99
291.294	53.08
291.509	-18.6
291.724	-20.65
291.938	55.12
292.153	120.66
292.368	81.75
292.583	32.6
292.798	81.75
293.012	102.23
293.227	112.47
293.442	18.26
293.657	71.51
293.871	71.51
294.086	44.88
294.301	-20.65
294.516	61.27
294.73	34.64
294.945	48.98
295.16	30.55
295.374	55.12
295.589	32.6
295.804	-8.36
296.018	67.41
296.233	75.6
296.447	30.55
296.662	61.27
296.877	98.13
297.091	59.22
297.306	85.84
297.52	53.08
297.735	-22.7
297.949	75.6
298.164	67.41
298.378	87.89
298.593	44.88
298.807	91.99
299.022	137.04
299.236	75.6
299.451	53.08
299.665	14.17
299.88	81.75
300.094	110.42
300.309	59.22
300.523	96.08
300.737	-20.65
300.952	46.93
301.166	67.41
301.381	-16.55
301.595	57.17
301.809	63.32
302.024	30.55
302.238	94.04
302.452	124.76
302.667	24.4
302.881	57.17
303.095	112.47
303.309	51.03
303.524	26.45
303.738	51.03
303.952	69.46
304.166	96.08
304.381	16.21
304.595	81.75
304.809	-45.23
305.023	81.75
305.237	8.02
305.452	106.32
305.666	57.17
305.88	114.52
306.094	137.04
306.308	100.18
306.522	59.22
306.736	26.45
306.95	55.12
307.164	94.04
307.379	38.74
307.593	67.41
307.807	87.89
308.021	102.23
308.235	61.27
308.449	71.51
308.663	16.21
308.877	112.47
309.091	3.93
309.305	75.6
309.519	114.52
309.733	145.24
309.947	67.41
310.161	57.17
310.374	83.8
310.588	114.52
310.802	22.36
311.016	-12.46
311.23	57.17
311.444	87.89
311.658	5.97
311.872	98.13
312.085	-2.22
312.299	61.27
312.513	65.36
312.727	16.21
312.941	63.32
313.154	57.17
313.368	34.64
313.582	128.85
313.796	65.36
314.009	87.89
314.223	65.36
314.437	12.12
314.651	30.55
314.864	42.84
315.078	51.03
315.292	44.88
315.505	24.4
315.719	46.93
315.933	116.56
316.146	91.99
316.36	44.88
316.573	65.36
316.787	102.23
317.001	83.8
317.214	1.88
317.428	128.85
317.641	69.46
317.855	42.84
318.068	20.31
318.282	81.75
318.495	65.36
318.709	116.56
318.922	110.42
319.136	38.74
319.349	73.56
319.563	94.04
319.776	57.17
319.99	26.45
320.203	98.13
320.417	108.37
320.63	98.13
320.843	96.08
321.057	69.46
321.27	100.18
321.483	65.36
321.697	124.76
321.91	69.46
322.124	116.56
322.337	89.94
322.55	108.37
322.763	63.32
322.977	126.8
323.19	67.41
323.403	55.12
323.617	59.22
323.83	83.8
324.043	48.98
324.256	48.98
324.469	40.79
324.683	61.27
324.896	1.88
325.109	85.84
325.322	22.36
325.535	59.22
325.748	55.12
325.962	98.13
326.175	75.6
326.388	42.84
326.601	100.18
326.814	1.88
327.027	57.17
327.24	141.14
327.453	-6.31
327.666	91.99
327.879	100.18
328.092	98.13
328.305	36.69
328.518	77.65
328.731	16.21
328.944	1.88
329.157	132.95
329.37	42.84
329.583	69.46
329.796	104.28
330.009	16.21
330.222	77.65
330.435	28.5
330.648	14.17
330.861	126.8
331.073	79.7
331.286	69.46
331.499	71.51
331.712	79.7
331.925	-49.32
332.138	75.6
332.35	87.89
332.563	85.84
332.776	46.93
332.989	42.84
333.202	75.6
333.414	-8.36
333.627	124.76
333.84	51.03
334.053	61.27
334.265	120.66
334.478	71.51
334.691	104.28
334.903	89.94
335.116	10.07
335.329	77.65
335.541	8.02
335.754	108.37
335.966	-14.51
336.179	75.6
336.392	63.32
336.604	-0.17
336.817	36.69
337.029	110.42
337.242	104.28
337.454	46.93
337.667	73.56
337.88	65.36
338.092	51.03
338.305	55.12
338.517	30.55
338.729	100.18
338.942	53.08
339.154	40.79
339.367	108.37
339.579	98.13
339.792	48.98
340.004	114.52
340.217	24.4
340.429	53.08
340.641	104.28
340.854	53.08
341.066	69.46
341.278	96.08
341.491	106.32
341.703	81.75
341.915	32.6
342.128	143.19
342.34	96.08
342.552	85.84
342.764	42.84
342.977	20.31
343.189	51.03
343.401	139.09
343.613	20.31
343.826	1.88
344.038	59.22
344.25	67.41
344.462	32.6
344.674	57.17
344.886	108.37
345.099	96.08
345.311	71.51
345.523	-14.51
345.735	28.5
345.947	61.27
346.159	67.41
346.371	87.89
346.583	8.02
346.795	149.33
347.007	118.61
347.219	83.8
347.431	83.8
347.643	91.99
347.855	96.08
348.067	38.74
348.279	63.32
348.491	44.88
348.703	132.95
348.915	36.69
349.127	42.84
349.339	67.41
349.551	53.08
349.763	61.27
349.975	44.88
350.187	61.27
350.399	94.04
350.61	91.99
350.822	-6.31
351.034	71.51
351.246	126.8
351.458	75.6
351.669	83.8
351.881	48.98
352.093	53.08
352.305	73.56
352.517	71.51
352.728	40.79
352.94	63.32
353.152	57.17
353.363	130.9
353.575	87.89
353.787	36.69
353.999	108.37
354.21	87.89
354.422	83.8
354.633	65.36
354.845	69.46
355.057	59.22
355.268	16.21
355.48	-14.51
355.692	69.46
355.903	147.28
356.115	18.26
356.326	-8.36
356.538	71.51
356.749	98.13
356.961	59.22
357.172	104.28
357.384	36.69
357.595	153.43
357.807	-55.47
358.018	-0.17
358.23	51.03
358.441	122.71
358.653	87.89
358.864	36.69
359.075	42.84
359.287	91.99
359.498	63.32
359.709	81.75
359.921	61.27
360.132	96.08
360.344	89.94
360.555	73.56
360.766	94.04
360.977	38.74
361.189	65.36
361.4	77.65
361.611	137.04
361.823	102.23
362.034	61.27
362.245	1.88
362.456	38.74
362.667	57.17
362.879	48.98
363.09	34.64
363.301	108.37
363.512	110.42
363.723	116.56
363.935	42.84
364.146	143.19
364.357	36.69
364.568	124.76
364.779	57.17
364.99	145.24
365.201	94.04
365.412	1.88
365.623	-28.84
365.834	106.32
366.045	79.7
366.256	61.27
366.467	46.93
366.678	57.17
366.889	51.03
367.1	67.41
367.311	118.61
367.522	104.28
367.733	139.09
367.944	57.17
368.155	108.37
368.366	77.65
368.577	40.79
368.788	167.76
368.999	42.84
369.209	73.56
369.42	63.32
369.631	104.28
369.842	53.08
370.053	-12.46
370.264	192.34
370.474	100.18
370.685	53.08
370.896	59.22
371.107	122.71
371.317	104.28
371.528	63.32
371.739	116.56
371.95	46.93
372.16	40.79
372.371	5.97
372.582	85.84
372.792	46.93
373.003	34.64
373.214	114.52
373.424	104.28
373.635	94.04
373.846	151.38
374.056	85.84
374.267	89.94
374.477	100.18
374.688	73.56
374.898	30.55
375.109	61.27
375.319	81.75
375.53	141.14
375.74	87.89
375.951	34.64
376.161	16.21
376.372	67.41
376.582	77.65
376.793	83.8
377.003	53.08
377.214	79.7
377.424	79.7
377.635	94.04
377.845	81.75
378.055	77.65
378.266	94.04
378.476	8.02
378.686	147.28
378.897	75.6
379.107	53.08
379.317	143.19
379.528	83.8
379.738	108.37
379.948	94.04
380.158	24.4
380.369	20.31
380.579	151.38
380.789	79.7
380.999	75.6
381.21	149.33
381.42	157.52
381.63	89.94
381.84	124.76
382.05	94.04
382.261	153.43
382.471	104.28
382.681	96.08
382.891	42.84
383.101	63.32
383.311	73.56
383.521	30.55
383.731	57.17
383.941	106.32
384.151	22.36
384.361	65.36
384.571	59.22
384.781	85.84
384.991	112.47
385.201	132.95
385.411	165.71
385.621	108.37
385.831	159.57
386.041	46.93
386.251	65.36
386.461	108.37
386.671	132.95
386.881	114.52
387.091	51.03
387.301	96.08
387.511	110.42
387.72	108.37
387.93	53.08
388.14	114.52
388.35	57.17
388.56	89.94
388.769	83.8
388.979	75.6
389.189	36.69
389.399	130.9
389.609	61.27
389.818	65.36
390.028	151.38
390.238	147.28
390.447	71.51
390.657	77.65
390.867	8.02
391.076	51.03
391.286	98.13
391.496	96.08
391.705	128.85
391.915	149.33
392.125	3.93
392.334	57.17
392.544	51.03
392.753	108.37
392.963	79.7
393.172	110.42
393.382	126.8
393.591	163.67
393.801	157.52
394.01	71.51
394.22	110.42
394.429	83.8
394.639	75.6
394.848	91.99
395.058	65.36
395.267	155.47
395.477	163.67
395.686	184.15
395.895	182.1
396.105	143.19
396.314	173.91
396.524	94.04
396.733	130.9
396.942	124.76
397.152	120.66
397.361	110.42
397.57	59.22
397.78	186.19
397.989	180.05
398.198	124.76
398.407	169.81
398.617	155.47
398.826	204.63
399.035	141.14
399.244	110.42
399.453	194.39
399.663	110.42
399.872	126.8
400.081	114.52
400.29	159.57
400.499	100.18
400.708	155.47
400.917	85.84
401.127	118.61
401.336	118.61
401.545	173.91
401.754	161.62
401.963	116.56
402.172	188.24
402.381	96.08
402.59	175.95
402.799	65.36
403.008	163.67
403.217	190.29
403.426	141.14
403.635	141.14
403.844	212.82
404.053	253.78
404.262	157.52
404.471	212.82
404.68	198.48
404.888	216.91
405.097	194.39
405.306	206.67
405.515	204.63
405.724	157.52
405.933	159.57
406.142	229.2
406.35	235.35
406.559	204.63
406.768	233.3
406.977	221.01
407.185	257.87
407.394	313.17
407.603	210.77
407.812	317.26
408.02	327.5
408.229	292.69
408.438	284.5
408.646	264.02
408.855	286.54
409.064	352.08
409.272	368.46
409.481	378.7
409.69	380.75
409.898	343.89
410.107	313.17
410.315	368.46
410.524	384.85
410.733	474.96
410.941	411.47
411.15	454.48
411.358	380.75
411.567	460.62
411.775	417.61
411.984	454.48
412.192	554.83
412.401	493.39
412.609	493.39
412.818	560.97
413.026	614.22
413.234	606.03
413.443	610.12
413.651	679.75
413.86	614.22
414.068	681.8
414.276	651.08
414.485	591.69
414.693	665.42
414.901	786.25
415.11	796.49
415.318	757.58
415.526	862.02
415.734	816.97
415.943	935.75
416.151	886.6
416.359	864.07
416.567	941.89
416.776	991.05
416.984	974.66
417.192	972.61
417.4	1103.68
417.608	1085.25
417.817	1136.45
418.025	1210.18
418.233	1292.1
418.441	1232.71
418.649	1365.82
418.857	1347.39
419.065	1439.55
419.273	1355.58
419.481	1513.28
419.689	1568.57
419.897	1654.59
420.105	1695.55
420.313	1732.41
420.521	1703.74
420.729	1685.31
420.937	1756.99
421.145	1802.04
421.353	1939.26
421.561	2058.04
421.769	2033.46
421.977	2135.86
422.185	2162.48
422.393	2305.84
422.601	2461.49
422.809	2371.38
423.017	2512.69
423.224	2453.3
423.432	2635.57
423.64	2705.2
423.848	2883.37
424.056	2803.5
424.263	3075.88
424.471	3063.59
424.679	3165.99
424.887	3288.87
425.094	3335.97
425.302	3354.4
425.51	3505.95
425.718	3661.6
425.925	3587.87
426.133	3696.41
426.341	3952.41
426.548	4103.96
426.756	4063
426.964	4181.78
427.171	4386.58
427.379	4587.28
427.586	4392.72
427.794	4732.69
428.001	4923.15
428.209	5234.44
428.417	5142.28
428.624	5476.1
428.832	5394.18
429.039	5439.23
429.247	5476.1
429.454	5844.73
429.662	6405.88
429.869	6006.52
430.076	6330.1
430.284	6094.58
430.491	6430.45
430.699	6653.68
430.906	6842.09
431.114	6870.76
431.321	7175.91
431.528	7130.86
431.736	7849.69
431.943	8001.24
432.15	7945.95
432.358	7825.12
432.565	8433.36
432.772	8539.86
432.979	8672.98
433.187	8910.54
433.394	8795.86
433.601	9713.35
433.808	9447.11
434.016	9612.99
434.223	9955.01
434.43	10491.57
434.637	10385.08
434.844	10921.65
435.052	11099.82
435.259	11030.19
435.466	11234.99
435.673	11062.96
435.88	11859.62
436.087	12263.07
436.294	12236.44
436.501	12084.89
436.708	12328.6
436.915	12756.63
437.122	13407.88
437.329	13436.55
437.537	13659.78
437.743	13803.14
437.95	13923.97
438.157	14585.46
438.364	15081.07
438.571	14896.75
438.778	15052.4
438.985	16436.83
439.192	15576.68
439.399	16256.61
439.606	15822.44
439.813	16631.38
440.02	17903.17
440.227	17702.47
440.433	17323.6
440.64	17974.85
440.847	17927.75
441.054	18335.29
441.261	19549.74
441.467	19181.1
441.674	19666.47
441.881	20387.36
442.088	20207.14
442.294	20031.01
442.501	20483.61
442.708	21116.44
442.914	21689.87
443.121	22707.71
443.328	22189.57
443.534	23793.13
443.741	23148.02
443.948	22507.01
444.154	24567.26
444.361	23954.92
444.568	24645.09
444.774	24567.26
444.981	24569.31
445.187	25294.29
445.394	26236.36
445.6	25957.83
445.807	28700.06
446.013	27129.27
446.22	28024.23
446.426	28941.72
446.633	29455.76
446.839	30412.17
447.046	29173.14
447.252	30412.17
447.459	30371.21
447.665	30522.76
447.871	31989.1
448.078	32943.45
448.284	31348.09
448.491	32185.71
448.697	33719.63
448.903	34628.93
449.11	34628.93
449.316	33838.42
449.522	34702.66
449.728	35972.4
449.935	36011.31
450.141	35929.39
450.347	36853.03
450.553	35171.64
450.76	36031.79
450.966	37063.97
451.172	36924.71
451.378	37846.29
451.584	37053.73
451.791	38239.5
451.997	37637.4
452.203	38227.21
452.409	38786.31
452.615	38159.63
452.821	37084.45
453.027	36648.23
453.233	38565.13
453.44	37123.36
453.646	37465.37
453.852	37571.86
454.058	38237.45
454.264	36875.55
454.47	37795.09
454.676	36560.17
454.882	37940.5
455.088	34952.51
455.294	35388.73
455.5	35917.11
455.705	36048.18
455.911	34878.79
456.117	34227.53
456.323	34086.22
456.529	31882.61
456.735	33404.25
456.941	32236.91
457.147	31978.86
457.352	31300.98
457.558	30563.71
457.764	30903.68
457.97	29891.98
458.176	29562.26
458.381	29599.12
458.587	27884.97
458.793	28302.76
458.999	26635.71
459.204	28878.24
459.41	27764.14
459.616	26078.66
459.821	26011.08
460.027	25847.24
460.233	25175.51
460.438	24053.22
460.644	24161.76
460.85	23463.41
461.055	22746.62
461.261	23098.87
461.466	20999.7
461.672	20387.36
461.878	22076.93
462.083	20733.46
462.289	19895.85
462.494	19942.95
462.7	19002.93
462.905	18591.29
463.111	19131.95
463.316	19400.24
463.522	19037.75
463.727	18851.38
463.932	19013.17
464.138	18746.94
464.343	18935.35
464.549	18073.15
464.754	18867.77
464.959	18445.88
465.165	18466.36
465.37	17874.5
465.575	17305.17
465.781	18239.04
465.986	18275.9
466.191	17296.97
466.397	17036.88
466.602	16152.16
466.807	17057.36
467.012	17204.81
467.218	16793.17
467.423	16653.91
467.628	16744.02
467.833	17237.58
468.038	16981.59
468.244	16234.08
468.449	16660.06
468.654	16346.72
468.859	16150.11
469.064	16197.21
469.269	15574.63
469.474	15677.03
469.679	15969.89
469.885	15576.68
470.09	15754.85
470.295	15814.24
470.5	15326.83
470.705	15302.25
470.91	15150.7
471.115	14872.18
471.32	15091.31
471.525	14943.86
471.73	14755.44
471.935	14648.95
472.139	14245.5
472.344	14132.86
472.549	14241.4
472.754	13880.96
472.959	14188.16
473.164	13553.29
473.369	13299.34
473.574	13651.59
473.778	13782.66
473.983	13608.58
474.188	13379.21
474.393	12983.95
474.598	12906.13
474.802	12715.67
475.007	12748.43
475.212	12775.06
475.417	12607.12
475.621	12218.01
475.826	12664.47
476.031	12035.74
476.235	11931.3
476.44	12250.78
476.645	11771.55
476.849	11720.35
477.054	11851.42
477.259	11544.23
477.463	11443.88
477.668	11265.71
477.872	11388.58
478.077	11269.8
478.282	11001.52
478.486	10974.89
478.691	10849.97
478.895	10856.11
479.1	10759.86
479.304	10727.09
479.509	10243.77
479.713	10706.61
479.918	10290.87
480.122	10163.9
480.326	10409.65
480.531	10473.14
480.735	10350.26
480.94	10073.79
481.144	10352.31
481.348	10016.44
481.553	10084.03
481.757	10022.59
481.961	9991.87
482.166	10172.09
482.37	10034.88
482.574	10008.25
482.778	10102.46
482.983	10215.1
483.187	9963.2
483.391	10221.24
483.595	10026.68
483.8	9825.98
484.004	9903.81
484.208	10262.2
484.412	9684.67
484.616	9993.92
484.821	10135.23
485.025	9932.48
485.229	10018.49
485.433	10014.4
485.637	10063.55
485.841	9955.01
486.045	10086.08
486.249	10014.4
486.453	10067.64
486.657	9973.44
486.861	9981.63
487.065	9709.25
487.269	9995.96
487.473	9696.96
487.677	10094.27
487.881	10071.74
488.085	9866.94
488.289	9981.63
488.493	10170.04
488.697	10165.95
488.901	9950.91
489.105	10045.12
489.309	10100.41
489.512	10159.8
489.716	10192.57
489.92	9965.25
490.124	10049.21
490.328	10260.15
490.531	10219.19
490.735	10237.63
490.939	10432.18
491.143	10423.99
491.346	10143.42
491.55	10331.83
491.754	10481.33
491.958	10456.76
492.161	10413.75
492.365	10608.31
492.569	10426.04
492.772	10514.1
492.976	10528.44
493.18	10770.1
493.383	10704.56
493.587	11022
493.79	10970.8
493.994	10888.88
494.197	10876.59
494.401	11011.76
494.605	11148.97
494.808	11196.07
495.012	11347.62
495.215	11232.94
495.419	11374.25
495.622	11411.11
495.825	11521.7
496.029	11538.09
496.232	11996.83
496.436	11716.26
496.639	12160.67
496.843	12166.81
497.046	12428.95
497.249	12322.46
497.453	12482.2
497.656	12730
497.859	12811.92
498.063	12721.81
498.266	13321.87
498.469	13051.53
498.673	13121.17
498.876	13344.39
499.079	13411.98
499.282	13532.81
499.485	13788.8
499.689	13817.47
499.892	14175.87
500.095	14382.71
500.298	14671.48
500.501	14632.57
500.705	14800.5
500.908	14816.88
501.111	15158.89
501.314	15191.66
501.517	15339.12
501.72	15588.97
501.923	15556.2
502.126	15623.78
502.329	16203.36
502.532	16371.29
502.735	16328.28
502.938	16594.52
503.141	16797.27
503.344	16897.62
503.547	16862.8
503.75	17057.36
503.953	17725
504.156	17444.43
504.359	17841.73
504.562	17944.13
504.765	18460.22
504.968	18638.39
505.17	18931.25
505.373	18828.85
505.576	19385.9
505.779	19447.34
505.982	19457.58
506.185	19949.09
506.387	19912.23
506.59	20293.15
506.793	20543
506.996	20782.62
507.198	21130.77
507.401	21263.89
507.604	21341.71
507.807	22005.25
508.009	21640.72
508.212	22109.7
508.415	22515.2
508.617	22433.28
508.82	22746.62
509.022	22734.33
509.225	23193.08
509.428	23719.4
509.63	23725.55
509.833	23717.36
510.035	24280.55
510.238	24200.68
510.44	24677.85
510.643	24911.32
510.845	25200.08
511.048	25001.43
511.25	25327.06
511.453	25568.72
511.655	26629.57
511.858	26308.04
512.06	26510.78
512.262	26914.23
512.465	26688.96
512.667	27284.92
512.87	27829.68
513.072	27450.8
513.274	28349.86
513.477	28214.69
513.679	28931.48
513.881	28806.56
514.084	29054.36
514.286	29289.88
514.488	29754.77
514.69	30539.14
514.893	30459.27
515.095	30637.44
515.297	30948.73
515.499	30985.6
515.701	31595.89
515.904	32189.8
516.106	32023.92
516.308	32304.49
516.51	32920.93
516.712	32748.9
516.914	33338.71
517.116	33662.29
517.318	34211.15
517.52	34108.75
517.722	33871.18
517.925	34542.92
518.127	35093.82
518.329	35112.25
518.531	34725.19
518.733	36029.74
518.935	36386.09
519.136	35956.02
519.338	36343.08
519.54	36945.19
519.742	37152.03
519.944	37342.49
520.146	37903.63
520.348	38106.38
520.55	38407.44
520.752	38157.58
520.954	38800.65
521.155	38964.48
521.357	38898.95
521.559	39757.05
521.761	40070.39
521.963	40133.87
522.164	40043.76
522.366	40400.11
522.568	40834.28
522.77	40635.63
522.971	41628.89
523.173	41649.37
523.375	41675.99
523.576	41837.78
523.778	42089.68
523.98	42570.96
524.181	42806.47
524.383	42829
524.584	43183.3
524.786	42714.31
524.988	42730.7
525.189	43553.98
525.391	43599.04
525.592	43945.14
525.794	43834.55
525.995	44235.95
526.197	44299.44
526.398	44344.5
526.6	44573.87
526.801	44709.04
527.003	44659.88
527.204	44911.78
527.406	45341.86
527.607	44919.98
527.808	45851.8
528.01	45104.29
528.211	45214.88
528.412	46167.19
528.614	45665.44
528.815	45823.13
529.016	46161.04
529.218	45655.2
529.419	45843.61
529.62	46115.99
529.822	45724.83
530.023	45909.14
530.224	45864.09
530.425	45855.9
530.626	45827.23
530.828	45980.82
531.029	46726.28
531.23	46011.54
531.431	45909.14
531.632	46507.15
531.833	46732.43
532.035	46410.9
532.236	46283.92
532.437	46802.06
532.638	45900.95
532.839	46566.54
533.04	46314.64
533.241	45935.77
533.442	47307.91
533.643	46617.74
533.844	46453.9
534.045	46814.35
534.246	46023.83
534.447	46507.15
534.648	46249.11
534.849	47019.14
535.05	45892.76
535.251	46283.92
535.451	46091.41
535.652	46439.57
535.853	46326.93
536.054	46275.73
536.255	46384.27
536.456	45929.62
536.657	46570.64
536.857	46068.89
537.058	46345.36
537.259	46122.13
537.46	46144.66
537.66	46300.31
537.861	46378.13
538.062	45841.56
538.263	45968.54
538.463	45417.63
538.664	46087.32
538.865	45874.33
539.065	45837.47
539.266	45567.13
539.466	45972.63
539.667	44893.35
539.868	46120.09
540.068	45497.5
540.269	45368.48
540.469	45796.51
540.67	45231.27
540.87	45319.33
541.071	45454.5
541.271	45196.45
541.472	45427.87
541.672	45149.35
541.873	45145.25
542.073	44299.44
542.274	45216.93
542.474	45221.03
542.675	44358.83
542.875	45466.78
543.075	45008.04
543.276	44563.63
543.476	44969.13
543.676	44719.27
543.877	45051.05
544.077	44948.65
544.277	44647.6
544.478	45026.47
544.678	44661.93
544.878	44559.53
545.078	45003.94
545.279	44373.17
545.479	44657.84
545.679	44668.08
545.879	44561.58
546.079	44559.53
546.28	44618.92
546.48	44254.39
546.68	44764.33
546.88	44725.42
547.08	44713.13
547.28	44113.08
547.48	44025.01
547.68	44238
547.88	44088.5
548.081	44508.33
548.281	44760.23
548.481	44133.56
548.681	44827.82
548.881	44516.53
549.081	44420.27
549.28	44039.35
549.48	44475.57
549.68	44373.17
549.88	44522.67
550.08	44104.88
550.28	44348.59
550.48	43994.29
550.68	44758.19
550.88	43898.04
551.08	44369.07
551.279	44211.38
551.479	43857.08
551.679	44133.56
551.879	44143.8
552.079	44401.84
552.278	44002.49
552.478	44115.12
552.678	43955.38
552.878	44430.51
553.077	44278.96
553.277	43676.86
553.477	44336.3
553.676	43820.22
553.876	43838.65
554.076	43906.23
554.275	43685.05
554.475	43910.33
554.674	44002.49
554.874	44133.56
555.074	43662.52
555.273	43723.96
555.473	43941.05
555.672	43001.03
555.872	43510.97
556.071	43963.57
556.271	43594.94
556.47	43402.43
556.67	43480.25
556.869	43615.42
557.068	43877.56
557.268	43932.85
557.467	43992.25
557.667	43199.68
557.866	43590.84
558.065	43283.65
558.265	43480.25
558.464	43320.51
558.663	43513.02
558.863	43085
559.062	43693.24
559.261	42917.06
559.461	43484.35
559.66	42869.96
559.859	43005.13
560.058	42742.99
560.258	43214.02
560.457	42593.48
560.656	43263.17
560.855	42960.07
561.054	42941.64
561.253	42566.86
561.453	42665.16
561.652	43166.91
561.851	42491.08
562.05	42357.97
562.249	42431.69
562.448	42630.35
562.647	42476.75
562.846	42482.89
563.045	42523.85
563.244	41770.2
563.443	42470.61
563.642	41592.03
563.841	42001.62
564.04	41336.03
564.239	42253.52
564.438	41561.31
564.637	41942.23
564.836	41745.62
565.035	41295.07
565.234	41698.52
565.432	41565.4
565.631	41270.5
565.83	41858.26
566.029	41333.98
566.228	41329.89
566.427	41297.12
566.625	40983.78
566.824	40475.88
567.023	40791.27
567.222	40357.1
567.42	41120.99
567.619	40586.47
567.818	40649.96
568.016	40486.12
568.215	40821.99
568.414	40252.66
568.612	40240.37
568.811	39857.4
569.01	40045.81
569.208	39628.02
569.407	39578.87
569.605	39329.02
569.804	39910.64
570.002	39218.43
570.201	39826.68
570.4	39453.95
570.598	39159.04
570.797	39079.17
570.995	39279.87
571.193	38825.22
571.392	39273.73
571.59	38667.53
571.789	38923.52
571.987	38524.17
572.186	38327.56
572.384	38452.49
572.582	38266.13
572.781	38411.53
572.979	37913.87
573.177	38077.71
573.376	38268.17
573.574	37750.04
573.772	38149.39
573.971	37446.94
574.169	37772.56
574.367	37154.08
574.565	37418.27
574.763	37082.4
574.962	36984.1
575.16	36748.58
575.358	37172.51
575.556	36676.9
575.754	36984.1
575.952	36511.02
576.151	36681
576.349	36134.19
576.547	36420.91
576.745	36404.52
576.943	36177.2
577.141	36355.37
577.339	36183.34
577.537	35910.96
577.735	35820.85
577.933	35677.49
578.131	35884.34
578.329	35380.54
578.527	35589.43
578.725	35343.67
578.923	35446.07
579.121	34895.17
579.319	35243.32
579.516	35452.22
579.714	35147.07
579.912	34850.11
580.11	34753.86
580.308	34833.73
580.506	34651.46
580.704	34325.83
580.901	34610.5
581.099	34727.24
581.297	33963.34
581.495	34649.41
581.692	34288.97
581.89	33860.94
582.088	34024.78
582.285	33635.67
582.483	34032.97
582.681	33762.64
582.878	33725.78
583.076	33289.56
583.274	33596.76
583.471	33310.04
583.669	33348.95
583.866	33228.12
584.064	33383.77
584.262	32709.99
584.459	33174.88
584.657	32773.47
584.854	32912.74
585.052	32468.33
585.249	32918.88
585.447	32529.76
585.644	32081.26
585.841	32752.99
586.039	32509.29
586.236	31999.34
586.434	32214.38
586.631	32085.36
586.828	31958.38
587.026	32126.32
587.223	31495.54
587.42	31794.54
587.618	31751.54
587.815	31337.85
588.012	31255.93
588.21	31321.46
588.407	31706.48
588.604	31356.28
588.801	31114.62
588.999	31298.94
589.196	30672.26
589.393	30690.69
589.59	30872.96
589.787	30918.01
589.984	30752.13
590.182	30516.61
590.379	30666.11
590.576	30326.15
590.773	30387.59
590.97	30420.36
591.167	30612.87
591.364	30008.72
591.561	29740.43
591.758	29599.12
591.955	30064.01
592.152	30195.08
592.349	29713.81
592.546	29867.41
592.743	29846.93
592.94	29371.8
593.137	29781.39
593.334	29840.78
593.531	29101.47
593.727	29529.49
593.924	29658.51
594.121	28941.72
594.318	29216.15
594.515	28710.3
594.712	28923.29
594.908	28767.65
595.105	29085.08
595.302	28380.58
595.499	28771.74
595.696	28949.92
595.892	28378.53
596.089	28411.3
596.286	28284.33
596.482	28296.61
596.679	28454.31
596.876	28272.04
597.072	28339.62
597.269	28153.26
597.466	28153.26
597.662	27895.21
597.859	27712.94
598.055	27884.97
598.252	27854.25
598.448	28005.8
598.645	27794.86
598.841	27624.88
599.038	27796.91
599.234	27518.39
599.431	27225.53
599.627	27248.05
599.824	27418.03
600.02	26840.51
600.217	27215.29
600.413	26848.7
600.609	26983.87
600.806	26738.11
601.002	27035.06
601.198	26752.45
601.395	26684.86
601.591	26437.06
601.787	26471.87
601.984	26625.47
602.18	26478.02
602.376	26445.25
602.572	26316.23
602.769	26183.11
602.965	26394.05
603.161	26385.86
603.357	25972.17
603.553	26064.33
603.75	25707.98
603.946	25759.18
604.142	26097.1
604.338	25527.76
604.534	25644.49
604.73	25701.84
604.926	25325.01
605.122	25820.62
605.318	25585.1
605.514	25163.22
605.71	25355.73
605.906	25478.61
606.102	25478.61
606.298	25370.07
606.494	25365.97
606.69	25091.54
606.886	25048.54
607.082	24647.13
607.278	25187.8
607.474	25175.51
607.67	24845.79
607.866	24669.66
608.062	24890.84
608.257	24499.68
608.453	24624.61
608.649	24841.69
608.845	24210.92
609.041	24442.34
609.236	24561.12
609.432	24493.54
609.628	24456.67
609.824	24272.35
610.019	23897.58
610.215	24499.68
610.411	24360.42
610.606	23954.92
610.802	24114.66
610.998	24135.14
611.193	23983.59
611.389	23782.89
611.584	23959.02
611.78	23621.1
611.976	24110.57
612.171	24008.17
612.367	23829.99
612.562	23739.88
612.758	23541.23
612.953	23385.58
613.149	23522.8
613.344	23643.63
613.539	24077.8
613.735	23287.28
613.93	23490.03
614.126	23195.12
614.321	23373.3
614.517	23324.15
614.712	23326.19
614.907	23078.39
615.103	23145.97
615.298	23156.21
615.493	23410.16
615.688	22715.9
615.884	23252.47
616.079	22674.94
616.274	22961.65
616.47	22846.97
616.665	22920.7
616.86	22775.29
617.055	22539.77
617.25	22654.46
617.445	22636.03
617.641	22367.74
617.836	22799.87
618.031	22232.58
618.226	22353.41
618.421	22244.87
618.616	22394.37
618.811	22113.8
619.006	22097.41
619.201	21554.7
619.396	21868.04
619.591	21653
619.786	21773.83
619.981	21347.86
620.176	21775.88
620.371	21331.47
620.566	21583.37
620.761	21278.22
620.956	21351.95
621.151	20901.4
621.346	21042.71
621.541	20749.85
621.735	21050.9
621.93	20311.58
622.125	20749.85
622.32	20301.34
622.515	20323.87
622.709	20467.23
622.904	20330.02
623.099	19813.93
623.294	20043.3
623.488	19969.57
623.683	19836.45
623.878	19727.91
624.072	19695.14
624.267	19789.35
624.462	19531.31
624.656	19226.16
624.851	19457.58
625.046	19156.53
625.24	19205.68
625.435	18857.53
625.629	19140.15
625.824	18736.7
626.018	18581.05
626.213	18085.44
626.407	18308.67
626.602	18011.71
626.796	18333.25
626.991	18064.96
627.185	18062.91
627.38	17876.55
627.574	18116.16
627.768	17665.61
627.963	17731.14
628.157	17501.77
628.352	17559.11
628.546	17391.18
628.74	17354.32
628.935	17141.33
629.129	17278.54
629.323	17083.98
629.517	16944.72
629.712	16731.73
629.906	16836.18
630.1	16762.45
630.294	16582.23
630.489	16293.47
630.683	16496.22
630.877	16420.44
631.071	16264.8
631.265	16571.99
631.459	16250.46
631.653	15971.94
631.848	16023.14
632.042	16029.28
632.236	15836.77
632.43	15715.94
632.624	15752.8
632.818	15652.45
633.012	15525.48
633.206	15601.26
633.4	15480.43
633.594	15261.29
633.788	15281.77
633.982	15224.43
634.176	15066.74
634.369	15191.66
634.563	14687.86
634.757	14954.1
634.951	14849.65
635.145	14720.63
635.339	14593.65
635.533	14616.18
635.726	14347.9
635.92	14341.75
636.114	14272.12
636.308	14288.51
636.501	14173.82
636.695	14077.57
636.889	14048.89
637.083	13880.96
637.276	13567.62
637.47	13518.47
637.664	13661.83
637.857	13418.12
638.051	13690.5
638.244	13190.8
638.438	13223.56
638.632	12930.7
638.825	13205.13
639.019	13059.73
639.212	12854.93
639.406	12852.88
639.599	12813.97
639.793	12756.63
639.986	12770.96
640.18	12572.31
640.373	12533.4
640.567	12295.83
640.76	12494.49
640.954	12433.05
641.147	12039.84
641.34	12109.47
641.534	12074.65
641.727	12140.19
641.92	12013.21
642.114	11861.66
642.307	11800.23
642.5	11853.47
642.694	11531.94
642.887	11480.74
643.08	11714.21
643.273	11454.12
643.467	11398.82
643.66	11325.1
643.853	11091.63
644.046	11167.4
644.239	11226.79
644.432	11163.31
644.626	10862.26
644.819	10907.31
645.012	10901.17
645.205	10722.99
645.398	10868.4
645.591	10747.57
645.784	10700.47
645.977	10436.28
646.17	10542.77
646.363	10286.78
646.556	10391.22
646.749	10124.99
646.942	10204.86
647.135	10043.07
647.328	10159.8
647.521	10055.36
647.714	9981.63
647.907	9887.42
648.099	9701.06
648.292	9885.37
648.485	9612.99
648.678	9668.29
648.871	9699.01
649.064	9453.25
649.256	9612.99
649.449	9477.83
649.642	9350.85
649.835	9092.81
650.027	9328.33
650.22	9227.98
650.413	9256.65
650.605	9170.63
650.798	9221.83
650.991	8918.73
651.183	9088.71
651.376	8871.63
651.568	8996.56
651.761	8869.58
651.954	8787.66
652.146	8855.25
652.339	8589.01
652.531	8541.91
652.724	8660.69
652.916	8433.36
653.109	8419.03
653.301	8439.51
653.494	8513.24
653.686	8316.63
653.879	8441.56
654.071	7937.76
654.263	8115.93
654.456	8316.63
654.648	8128.22
654.84	8023.77
655.033	8074.97
655.225	7876.32
655.417	7974.62
655.61	7900.89
655.802	7984.86
655.994	7806.69
656.186	7747.3
656.379	7603.94
656.571	7763.68
656.763	7532.26
656.955	7700.19
657.148	7436
657.34	7495.39
657.532	7376.61
657.724	7347.94
657.916	7390.95
658.108	7339.75
658.3	7196.39
658.492	7335.65
658.684	7259.88
658.876	7204.58
659.068	7106.28
659.26	7069.42
659.452	7159.53
659.644	6999.79
659.836	6993.64
660.028	7038.7
660.22	6840.04
660.412	6825.71
660.604	6862.57
660.796	6731.5
660.988	6684.4
661.18	6665.97
661.372	6711.02
661.563	6586.1
661.755	6403.83
661.947	6657.78
662.139	6491.89
662.331	6455.03
662.522	6469.36
662.714	6323.96
662.906	6280.95
663.097	6319.86
663.289	6334.2
663.481	6278.9
663.673	6235.89
663.864	6147.83
664.056	6135.54
664.247	6127.35
664.439	5924.6
664.631	6201.08
664.822	5947.13
665.014	6162.17
665.205	6020.86
665.397	5986.04
665.588	5887.74
665.78	5881.6
665.971	5662.46
666.163	5773.05
666.354	5768.96
666.546	5746.43
666.737	5787.39
666.929	5644.03
667.12	5768.96
667.311	5553.92
667.503	5490.43
667.694	5553.92
667.885	5566.21
668.077	5607.17
668.268	5457.67
668.459	5445.38
668.651	5342.98
668.842	5347.08
669.033	5416.71
669.224	5236.49
669.416	5465.86
669.607	5347.08
669.798	5242.63
669.989	5398.27
670.18	5252.87
670.371	5224.2
670.563	5248.77
670.754	5123.85
670.945	5181.19
671.136	5117.7
671.327	5134.09
671.518	4910.86
671.709	5095.18
671.9	5097.22
672.091	5111.56
672.282	5064.46
672.473	4970.25
672.664	4980.49
672.855	5058.31
673.046	5023.5
673.237	5129.99
673.428	4953.87
673.619	4706.06
673.809	4859.66
674	4880.14
674.191	4851.47
674.382	4835.08
674.573	4853.52
674.764	4892.43
674.954	4761.36
675.145	4804.36
675.336	4777.74
675.527	4640.53
675.717	4833.04
675.908	4665.1
676.099	4765.45
676.289	4804.36
676.48	4792.08
676.671	4507.41
676.861	4708.11
677.052	4609.81
677.243	4718.35
677.433	4632.33
677.624	4658.96
677.814	4665.1
678.005	4433.68
678.195	4538.13
678.386	4677.39
678.576	4476.69
678.767	4671.25
678.957	4548.37
679.148	4667.15
679.338	4505.36
679.529	4591.38
679.719	4343.57
679.909	4527.89
680.1	4448.02
680.29	4431.63
680.481	4486.93
680.671	4519.7
680.861	4454.16
681.052	4491.02
681.242	4405.01
681.432	4388.63
681.622	4456.21
681.813	4394.77
682.003	4378.39
682.193	4433.68
682.383	4427.54
682.573	4402.96
682.764	4421.39
682.954	4546.32
683.144	4298.52
683.334	4249.36
683.524	4421.39
683.714	4345.62
683.904	4359.95
684.094	4411.15
684.284	4286.23
684.474	4368.15
684.664	4286.23
684.854	4396.82
685.044	4286.23
685.234	4278.04
685.424	4343.57
685.614	4204.31
685.804	4144.92
685.994	4232.98
686.184	4288.28
686.374	4386.58
686.564	4206.36
686.753	4134.68
686.943	4003.61
687.133	4108.05
687.323	4163.35
687.513	4097.81
687.702	4226.84
687.892	4042.52
688.082	4247.32
688.272	4208.41
688.461	4271.89
688.651	4054.81
688.841	3936.03
689.03	4071.19
689.22	3860.25
689.41	4009.75
689.599	4003.61
689.789	3999.51
689.979	4097.81
690.168	3841.82
690.358	3919.64
690.547	3917.59
690.737	4015.9
690.926	4001.56
691.116	3868.44
691.305	3995.42
691.495	3886.87
691.684	3761.95
691.874	3915.55
692.063	3829.53
692.252	3784.48
692.442	3854.11
692.631	3821.34
692.82	3835.67
693.01	3796.76
693.199	3903.26
693.388	3843.87
693.578	3755.8
693.767	3831.58
693.956	3800.86
694.146	3698.46
694.335	3747.61
694.524	3807
694.713	3839.77
694.902	3700.51
695.092	3807
695.281	3776.28
695.47	3802.91
695.659	3692.32
695.848	3696.41
696.037	3643.17
696.226	3720.99
696.415	3626.78
696.604	3739.42
696.793	3729.18
696.982	3628.83
697.171	3614.49
697.36	3551.01
697.549	3542.82
697.738	3700.51
697.927	3542.82
698.116	3624.73
698.305	3606.3
698.494	3643.17
698.683	3651.36
698.872	3608.35
699.061	3604.25
699.25	3569.44
699.438	3458.85
699.627	3600.16
699.816	3559.2
700.005	3538.72
700.193	3516.19
700.382	3475.23
700.571	3479.33
700.76	3575.58
700.948	3645.21
701.137	3524.38
701.326	3530.53
701.514	3516.19
701.703	3483.42
701.892	3485.47
702.08	3440.42
702.269	3442.46
702.457	3270.44
702.646	3417.89
702.834	3264.29
703.023	3512.1
703.212	3256.1
703.4	3424.03
703.589	3348.26
703.777	3331.87
703.965	3358.5
704.154	3413.79
704.342	3288.87
704.531	3399.46
704.719	3276.58
704.907	3317.54
705.096	3256.1
705.284	3327.78
705.472	3282.72
705.661	3366.69
705.849	3145.51
706.037	3315.49
706.226	3344.16
706.414	3292.96
706.602	3155.75
706.79	3245.86
706.979	3247.91
707.167	3182.37
707.355	3196.71
707.543	3086.12
707.731	3180.32
707.919	3092.26
708.107	3139.37
708.296	3045.16
708.484	3163.94
708.672	3059.49
708.86	3114.79
709.048	3079.97
709.236	3061.54
709.424	3053.35
709.612	3032.87
709.8	3151.65
709.988	3014.44
710.176	3102.5
710.364	2969.38
710.551	2985.77
710.739	2967.34
710.927	3071.78
711.115	3008.3
711.303	3104.55
711.491	2907.94
711.679	2981.67
711.866	2975.53
712.054	3028.78
712.242	2879.27
712.43	2924.33
712.617	2965.29
712.805	2891.56
712.993	2889.51
713.181	2926.38
713.368	2953
713.556	2891.56
713.744	2819.88
713.931	2903.85
714.119	2893.61
714.306	2815.79
714.494	2797.35
714.682	2907.94
714.869	2807.59
715.057	2795.31
715.244	2555.69
715.432	2768.68
715.619	2727.72
715.807	2762.54
715.994	2688.81
716.182	2694.96
716.369	2686.76
716.556	2697
716.744	2668.33
716.931	2608.94
717.119	2651.95
717.306	2823.98
717.493	2621.23
717.681	2633.52
717.868	2604.85
718.055	2567.98
718.242	2582.32
718.43	2641.71
718.617	2567.98
718.804	2600.75
718.991	2498.35
719.179	2570.03
719.366	2586.41
719.553	2500.4
719.74	2484.02
719.927	2547.5
720.114	2502.45
720.301	2465.58
720.488	2473.78
720.676	2496.3
720.863	2465.58
721.05	2406.19
721.237	2391.86
721.424	2596.65
721.611	2475.82
721.798	2373.43
721.985	2365.23
722.172	2344.75
722.358	2350.9
722.545	2434.86
722.732	2395.95
722.919	2414.38
723.106	2398
723.293	2373.43
723.48	2281.27
723.667	2420.53
723.853	2236.21
724.04	2318.13
724.227	2305.84
724.414	2242.36
724.6	2361.14
724.787	2342.71
724.974	2371.38
725.161	2213.68
725.347	2250.55
725.534	2277.17
725.72	2303.79
725.907	2240.31
726.094	2262.83
726.28	2283.31
726.467	2150.2
726.653	2113.33
726.84	2135.86
727.027	2256.69
727.213	2105.14
727.4	2146.1
727.586	2225.97
727.773	2055.99
727.959	2271.03
728.145	2205.49
728.332	2168.63
728.518	2133.81
728.705	2133.81
728.891	2064.18
729.077	2107.19
729.264	2162.48
729.45	2043.7
729.636	2047.8
729.823	2017.08
730.009	2166.58
730.195	2092.85
730.382	2174.77
730.568	2101.05
730.754	2103.09
730.94	2129.72
731.126	2201.4
731.313	2162.48
731.499	1994.55
731.685	2000.69
731.871	2055.99
732.057	1943.35
732.243	1974.07
732.429	1990.45
732.615	1926.97
732.801	2012.98
732.987	1949.5
733.173	1974.07
733.359	1881.91
733.545	2010.93
733.731	1834.81
733.917	1912.63
734.103	2012.98
734.289	1906.49
734.475	1955.64
734.661	1984.31
734.847	2015.03
735.033	1943.35
735.219	1843
735.404	1912.63
735.59	1861.43
735.776	1969.98
735.962	1892.15
736.148	1906.49
736.333	1931.06
736.519	1787.71
736.705	1900.34
736.89	1779.51
737.076	1929.02
737.262	1726.27
737.447	1847.1
737.633	1808.19
737.819	1799.99
738.004	1826.62
738.19	1820.47
738.375	1724.22
738.561	1853.24
738.747	1722.17
738.932	1746.75
739.118	1787.71
739.303	1668.92
739.489	1795.9
739.674	1716.03
739.859	1718.08
740.045	1722.17
740.23	1693.5
740.416	1656.64
740.601	1742.65
740.786	1646.4
740.972	1607.48
741.157	1683.26
741.342	1640.25
741.528	1660.73
741.713	1779.51
741.898	1650.49
742.084	1668.92
742.269	1619.77
742.454	1640.25
742.639	1582.91
742.824	1709.88
743.01	1654.59
743.195	1683.26
743.38	1584.96
743.565	1619.77
743.75	1648.44
743.935	1627.96
744.12	1576.77
744.305	1468.22
744.49	1386.3
744.675	1515.33
744.86	1576.77
745.045	1478.46
745.23	1576.77
745.415	1546.05
745.6	1523.52
745.785	1474.37
745.97	1521.47
746.155	1408.83
746.34	1447.74
746.525	1541.95
746.71	1558.33
746.895	1435.46
747.079	1347.39
747.264	1408.83
747.449	1308.48
747.634	1400.64
747.819	1390.4
748.003	1371.97
748.188	1292.1
748.373	1331.01
748.557	1390.4
748.742	1335.1
748.927	1347.39
749.111	1285.95
749.296	1212.23
749.481	1288
749.665	1279.81
749.85	1265.47
750.034	1302.34
750.219	1269.57
750.404	1238.85
750.588	1173.32
750.773	1208.13
750.957	1312.58
751.141	1314.63
751.326	1185.6
751.51	1212.23
751.695	1124.16
751.879	1144.64
752.064	1232.71
752.248	1124.16
752.432	1220.42
752.617	1216.32
752.801	1214.27
752.985	1111.88
753.17	1144.64
753.354	1240.9
753.538	1128.26
753.722	1130.31
753.907	1085.25
754.091	1111.88
754.275	1050.44
754.459	1011.53
754.643	1109.83
754.828	1095.49
755.012	1066.82
755.196	1087.3
755.38	1075.01
755.564	991.05
755.748	1068.87
755.932	1079.11
756.116	1025.86
756.3	1038.15
756.484	968.52
756.668	986.95
756.852	976.71
757.036	890.7
757.22	978.76
757.404	970.57
757.588	1009.48
757.772	937.8
757.956	1011.53
758.14	972.61
758.323	933.7
758.507	952.13
758.691	913.22
758.875	907.08
759.059	1029.96
759.242	948.04
759.426	900.94
759.61	866.12
759.794	917.32
759.977	888.65
760.161	937.8
760.345	806.73
760.528	958.28
760.712	833.35
760.895	968.52
761.079	894.79
761.263	851.78
761.446	835.4
761.63	853.83
761.813	878.41
761.997	831.3
762.18	843.59
762.364	853.83
762.547	882.5
762.731	911.18
762.914	798.54
763.098	794.44
763.281	751.43
763.464	749.39
763.648	786.25
763.831	796.49
764.015	735.05
764.198	898.89
764.381	798.54
764.564	804.68
764.748	730.95
764.931	776.01
765.114	733
765.297	776.01
765.481	814.92
765.664	710.47
765.847	776.01
766.03	694.09
766.213	767.82
766.397	841.54
766.58	704.33
766.763	700.23
766.946	698.19
767.129	704.33
767.312	708.43
767.495	806.73
767.678	749.39
767.861	794.44
768.044	708.43
768.227	733
768.41	784.2
768.593	714.57
768.776	724.81
768.959	718.67
769.142	714.57
769.324	581.45
769.507	696.14
769.69	649.04
769.873	765.77
770.056	706.38
770.239	636.75
770.421	722.76
770.604	704.33
770.787	679.75
770.97	581.45
771.152	653.13
771.335	642.89
771.518	681.8
771.7	683.85
771.883	730.95
772.066	667.47
772.248	651.08
772.431	581.45
772.613	649.04
772.796	673.61
772.978	677.71
773.161	659.28
773.343	638.8
773.526	694.09
773.708	620.36
773.891	583.5
774.073	685.9
774.256	597.84
774.438	634.7
774.621	583.5
774.803	614.22
774.985	505.68
775.168	583.5
775.35	530.25
775.532	624.46
775.715	606.03
775.897	571.21
776.079	554.83
776.261	632.65
776.444	530.25
776.626	642.89
776.808	542.54
776.99	554.83
777.173	472.91
777.355	442.19
777.537	501.58
777.719	499.53
777.901	530.25
778.083	575.31
778.265	464.72
778.447	526.16
778.629	407.38
778.811	579.4
778.993	501.58
779.175	489.29
779.357	503.63
779.539	481.1
779.721	474.96
779.903	483.15
780.085	460.62
780.267	528.21
780.449	550.73
780.631	509.77
780.812	462.67
780.994	487.25
781.176	563.02
781.358	450.38
781.54	370.51
781.721	446.29
781.903	474.96
782.085	409.42
782.267	468.81
782.448	350.03
782.63	456.53
782.812	397.14
782.993	423.76
783.175	483.15
783.357	378.7
783.538	413.52
783.72	405.33
783.901	440.14
784.083	411.47
784.264	370.51
784.446	411.47
784.627	372.56
784.809	374.61
784.99	376.66
785.172	350.03
785.353	423.76
785.535	393.04
785.716	380.75
785.897	337.74
786.079	436.05
786.26	368.46
786.441	335.7
786.623	325.46
786.804	347.98
786.985	390.99
787.167	405.33
787.348	333.65
787.529	317.26
787.71	356.18
787.891	345.94
788.073	405.33
788.254	386.9
788.435	335.7
788.616	280.4
788.797	347.98
788.978	339.79
789.159	333.65
789.34	337.74
789.522	251.73
789.703	266.07
789.884	337.74
790.065	354.13
790.246	362.32
790.427	323.41
790.607	331.6
790.788	329.55
790.969	235.35
791.15	243.54
791.331	268.11
791.512	259.92
791.693	321.36
791.874	300.88
792.054	339.79
792.235	249.68
792.416	245.59
792.597	274.26
792.778	255.83
792.958	331.6
793.139	227.15
793.32	257.87
793.5	255.83
793.681	280.4
793.862	317.26
794.042	302.93
794.223	184.15
794.404	313.17
794.584	225.11
794.765	274.26
794.945	227.15
795.126	264.02
795.306	298.83
795.487	300.88
795.667	333.65
795.848	239.44
796.028	212.82
796.209	245.59
796.389	292.69
796.57	261.97
796.75	280.4
796.93	276.31
797.111	268.11
797.291	233.3
797.471	255.83
797.652	200.53
797.832	149.33
798.012	237.39
798.192	225.11
798.373	163.67
798.553	266.07
798.733	227.15
798.913	198.48
799.093	276.31
799.274	237.39
799.454	210.77
799.634	264.02
799.814	212.82
799.994	216.91
800.174	163.67
800.354	241.49
800.534	245.59
800.714	292.69
800.894	190.29
801.074	233.3
801.254	171.86
801.434	249.68
801.614	206.67
801.794	206.67
801.974	550.73
802.154	188.24
802.334	141.14
802.514	198.48
802.693	270.16
802.873	157.52
803.053	239.44
803.233	161.62
803.413	202.58
803.592	255.83
803.772	206.67
803.952	188.24
804.131	175.95
804.311	159.57
804.491	235.35
804.67	200.53
804.85	241.49
805.03	229.2
805.209	241.49
805.389	184.15
805.568	149.33
805.748	153.43
805.928	227.15
806.107	190.29
806.287	188.24
806.466	206.67
806.646	196.43
806.825	153.43
807.004	137.04
807.184	145.24
807.363	192.34
807.543	180.05
807.722	184.15
807.901	171.86
808.081	229.2
808.26	94.04
808.439	194.39
808.619	214.87
808.798	221.01
808.977	178
809.156	180.05
809.336	161.62
809.515	272.21
809.694	120.66
809.873	118.61
810.052	104.28
810.231	147.28
810.411	204.63
810.59	229.2
810.769	206.67
810.948	192.34
811.127	155.47
811.306	130.9
811.485	67.41
811.664	155.47
811.843	186.19
812.022	153.43
812.201	143.19
812.38	132.95
812.559	206.67
812.737	184.15
812.916	145.24
813.095	102.23
813.274	180.05
813.453	120.66
813.632	104.28
813.811	171.86
813.989	192.34
814.168	175.95
814.347	180.05
814.526	173.91
814.704	118.61
814.883	180.05
815.062	104.28
815.24	175.95
815.419	94.04
815.598	155.47
815.776	128.85
815.955	81.75
816.133	98.13
816.312	178
816.49	169.81
816.669	108.37
816.847	94.04
817.026	96.08
817.204	216.91
817.383	178
817.561	116.56
817.74	171.86
817.918	137.04
818.097	132.95
818.275	120.66
818.453	192.34
818.632	89.94
818.81	110.42
818.988	108.37
819.167	67.41
819.345	147.28
819.523	118.61
819.701	153.43
819.879	149.33
820.058	116.56
820.236	153.43
820.414	89.94
820.592	122.71
820.77	155.47
820.948	149.33
821.127	124.76
821.305	139.09
821.483	87.89
821.661	139.09
821.839	184.15
822.017	98.13
822.195	130.9
822.373	118.61
822.551	83.8
822.729	169.81
822.907	102.23
823.085	91.99
823.262	135
823.44	85.84
823.618	116.56
823.796	124.76
823.974	59.22
824.152	149.33
824.329	102.23
824.507	94.04
824.685	139.09
824.863	147.28
825.04	94.04
825.218	155.47
825.396	116.56
825.574	77.65
825.751	46.93
825.929	124.76
826.107	147.28
826.284	73.56
826.462	149.33
826.639	59.22
826.817	77.65
826.994	128.85
827.172	34.64
827.349	100.18
827.527	75.6
827.704	100.18
827.882	126.8
828.059	110.42
828.237	98.13
828.414	145.24
828.591	59.22
828.769	63.32
828.946	71.51
829.124	98.13
829.301	100.18
829.478	89.94
829.655	128.85
829.833	73.56
830.01	57.17
830.187	116.56
830.364	114.52
830.542	100.18
830.719	116.56
830.896	137.04
831.073	79.7
831.25	139.09
831.427	53.08
831.604	135
831.782	104.28
831.959	81.75
832.136	135
832.313	63.32
832.49	-6.31
832.667	153.43
832.844	106.32
833.021	112.47
833.198	44.88
833.374	89.94
833.551	106.32
833.728	102.23
833.905	118.61
834.082	38.74
834.259	81.75
834.436	55.12
834.612	77.65
834.789	81.75
834.966	51.03
835.143	79.7
835.319	65.36
835.496	102.23
835.673	75.6
835.85	85.84
836.026	53.08
836.203	69.46
836.38	55.12
836.556	48.98
836.733	73.56
836.909	108.37
837.086	71.51
837.262	55.12
837.439	110.42
837.616	83.8
837.792	67.41
837.968	63.32
838.145	42.84
838.321	132.95
838.498	77.65
838.674	22.36
838.851	48.98
839.027	48.98
839.203	98.13
839.38	65.36
839.556	5.97
839.732	79.7
839.909	65.36
840.085	14.17
840.261	77.65
840.437	53.08
840.614	137.04
840.79	36.69
840.966	65.36
841.142	94.04
841.318	-16.55
841.494	96.08
841.671	79.7
841.847	22.36
842.023	32.6
842.199	42.84
842.375	32.6
842.551	69.46
842.727	98.13
842.903	98.13
843.079	-18.6
843.255	141.14
843.431	151.38
843.607	75.6
843.783	44.88
843.959	100.18
844.134	73.56
844.31	81.75
844.486	38.74
844.662	28.5
844.838	71.51
845.013	14.17
845.189	130.9
845.365	28.5
845.541	48.98
845.716	18.26
845.892	44.88
846.068	85.84
846.244	26.45
846.419	96.08
846.595	94.04
846.77	108.37
846.946	63.32
847.122	63.32
847.297	24.4
847.473	120.66
847.648	-14.51
847.824	-10.41
847.999	28.5
848.175	28.5
848.35	81.75
848.526	120.66
848.701	53.08
848.876	83.8
849.052	89.94
849.227	-6.31
849.403	42.84
849.578	135
849.753	102.23
849.929	106.32
850.104	55.12
850.279	87.89
850.454	51.03
850.63	98.13
850.805	30.55
850.98	46.93
851.155	46.93
851.33	42.84
851.505	65.36
851.681	32.6
851.856	20.31
852.031	104.28
852.206	53.08
852.381	30.55
852.556	18.26
852.731	79.7
852.906	63.32
853.081	55.12
853.256	81.75
853.431	12.12
853.606	87.89
853.781	26.45
853.956	-8.36
854.131	-18.6
854.305	44.88
854.48	22.36
854.655	96.08
854.83	77.65
855.005	5.97
855.18	57.17
855.354	87.89
855.529	77.65
855.704	44.88
855.879	57.17
856.053	14.17
856.228	116.56
856.403	30.55
856.577	44.88
856.752	67.41
856.926	1.88
857.101	24.4
857.276	59.22
857.45	81.75
857.625	40.79
857.799	51.03
857.974	26.45
858.148	-32.94
858.323	42.84
858.497	48.98
858.672	83.8
858.846	22.36
859.02	126.8
859.195	20.31
859.369	-12.46
859.543	94.04
859.718	55.12
859.892	30.55
860.066	57.17
860.241	20.31
860.415	65.36
860.589	36.69
860.763	32.6
860.938	65.36
861.112	75.6
861.286	124.76
861.46	10.07
861.634	53.08
861.808	132.95
861.982	63.32
862.157	28.5
862.331	59.22
862.505	10.07
862.679	59.22
862.853	34.64
863.027	-24.75
863.201	63.32
863.375	-18.6
863.549	83.8
863.722	22.36
863.896	73.56
864.07	67.41
864.244	79.7
864.418	38.74
864.592	42.84
864.766	67.41
864.939	-12.46
865.113	30.55
865.287	55.12
865.461	22.36
865.634	91.99
865.808	16.21
865.982	44.88
866.156	55.12
866.329	-16.55
866.503	28.5
866.676	30.55
866.85	30.55
867.024	83.8
867.197	-18.6
867.371	14.17
867.544	53.08
867.718	32.6
867.891	124.76
868.065	81.75
868.238	79.7
868.412	51.03
868.585	8.02
868.759	67.41
868.932	12.12
869.105	38.74
869.279	32.6
869.452	-2.22
869.625	28.5
869.799	71.51
869.972	28.5
870.145	38.74
870.319	44.88
870.492	69.46
870.665	-0.17
870.838	16.21
871.011	32.6
871.185	36.69
871.358	63.32
871.531	65.36
871.704	18.26
871.877	24.4
872.05	32.6
872.223	42.84
872.396	89.94
872.569	51.03
872.742	28.5
872.915	157.52
873.088	28.5
873.261	14.17
873.434	91.99
873.607	51.03
873.78	77.65
873.953	12.12
874.126	-26.79
874.299	46.93
874.471	-18.6
874.644	57.17
874.817	5.97
874.99	18.26
875.163	24.4
875.335	69.46
875.508	-10.41
875.681	100.18
875.853	55.12
876.026	16.21
876.199	53.08
876.371	57.17
876.544	-0.17
876.717	75.6
876.889	8.02
877.062	18.26
877.234	-34.99
877.407	10.07
877.579	59.22
877.752	79.7
877.924	38.74
878.097	36.69
878.269	26.45
878.442	83.8
878.614	-6.31
878.786	53.08
878.959	81.75
879.131	79.7
879.303	5.97
879.476	63.32
879.648	46.93
879.82	14.17
879.993	-22.7
880.165	77.65
880.337	89.94
880.509	40.79
880.681	57.17
880.854	48.98
881.026	22.36
881.198	53.08
881.37	18.26
881.542	44.88
881.714	20.31
881.886	57.17
882.058	10.07
882.23	5.97
882.402	18.26
882.574	81.75
882.746	-2.22
882.918	77.65
883.09	73.56
883.262	40.79
883.434	36.69
883.606	71.51
883.778	-6.31
883.95	42.84
884.122	-20.65
884.293	69.46
884.465	24.4
884.637	24.4
884.809	-39.08
884.98	65.36
885.152	1.88
885.324	100.18
885.496	28.5
885.667	12.12
885.839	87.89
886.011	104.28
886.182	67.41
886.354	16.21
886.525	38.74
886.697	38.74
886.869	-18.6
887.04	40.79
887.212	5.97
887.383	51.03
887.555	63.32
887.726	38.74
887.897	34.64
888.069	40.79
888.24	30.55
888.412	65.36
888.583	85.84
888.754	5.97
888.926	61.27
889.097	26.45
889.268	46.93
889.44	42.84
889.611	96.08
889.782	81.75
889.953	-8.36
890.125	67.41
890.296	81.75
890.467	26.45
890.638	-4.27
890.809	46.93
890.98	22.36
891.151	14.17
891.323	79.7
891.494	34.64
891.665	75.6
891.836	26.45
892.007	-55.47
892.178	98.13
892.349	-16.55
892.52	16.21
892.691	44.88
892.862	12.12
893.032	-0.17
893.203	46.93
893.374	46.93
893.545	128.85
893.716	104.28
893.887	91.99
894.057	36.69
894.228	59.22
894.399	28.5
894.57	24.4
894.74	61.27
894.911	75.6
895.082	-2.22
895.253	48.98
895.423	36.69
895.594	14.17
895.764	55.12
895.935	-53.42
896.106	-14.51
896.276	-26.79
896.447	26.45
896.617	36.69
896.788	28.5
896.958	10.07
897.129	-22.7
897.299	55.12
897.47	65.36
897.64	61.27
897.81	1.88
897.981	145.24
898.151	-14.51
898.322	77.65
898.492	32.6
898.662	-63.66
898.832	14.17
899.003	3.93
899.173	-2.22
899.343	18.26
899.513	34.64
