Data from USB4F104151__13__12-35-09-344.txt Node

Date: Fri Mar 14 12:35:09 EDT 2025
User: louis
Spectrometer: USB4F10415
Trigger mode: 4
Integration Time (sec): 2.000000E-2
Scans to average: 1
Electric dark correction enabled: true
Nonlinearity correction enabled: false
Boxcar width: 0
XAxis mode: Wavelengths
Number of Pixels in Spectrum: 3648
>>>>>Begin Spectral Data<<<<<
178.204	-12.97
178.424	-12.97
178.644	-12.97
178.864	-76.46
179.084	-72.36
179.304	-2.73
179.524	-37.55
179.744	-41.64
179.964	68.95
180.184	34.13
180.404	34.13
180.624	9.56
180.844	-23.21
181.064	-12.97
181.283	-2.73
181.503	-37.55
181.723	11.61
181.943	-35.5
182.163	66.9
182.383	109.91
182.602	34.13
182.822	81.24
183.042	56.66
183.262	-45.74
183.482	-4.78
183.701	-27.31
183.921	-2.73
184.141	-2.73
184.361	77.14
184.58	-25.26
184.8	34.13
185.02	1.37
185.239	52.56
185.459	62.8
185.679	13.65
185.898	52.56
186.118	120.15
186.338	-17.07
186.557	34.13
186.777	48.47
186.997	44.37
187.216	103.76
187.436	17.75
187.655	9.56
187.875	56.66
188.095	40.28
188.314	19.8
188.534	64.85
188.753	-41.64
188.973	34.13
189.192	34.13
189.412	54.61
189.631	-47.79
189.851	19.8
190.07	103.76
190.29	27.99
190.509	97.62
190.729	21.85
190.948	42.32
191.168	150.87
191.387	81.24
191.607	23.89
191.826	79.19
192.045	-51.88
192.265	30.04
192.484	64.85
192.704	9.56
192.923	-2.73
193.142	60.76
193.362	46.42
193.581	87.38
193.8	50.52
194.02	-4.78
194.239	34.13
194.458	9.56
194.678	-6.83
194.897	40.28
195.116	50.52
195.335	120.15
195.555	66.9
195.774	46.42
195.993	64.85
196.212	60.76
196.432	-2.73
196.651	97.62
196.87	23.89
197.089	68.95
197.308	58.71
197.528	-10.92
197.747	-31.4
197.966	91.48
198.185	68.95
198.404	-29.35
198.623	54.61
198.842	93.52
199.062	81.24
199.281	60.76
199.5	23.89
199.719	17.75
199.938	95.57
200.157	13.65
200.376	91.48
200.595	48.47
200.814	42.32
201.033	60.76
201.252	118.1
201.471	7.51
201.69	75.09
201.909	87.38
202.128	17.75
202.347	36.18
202.566	64.85
202.785	52.56
203.004	21.85
203.223	30.04
203.442	32.08
203.661	11.61
203.879	-58.03
204.098	34.13
204.317	48.47
204.536	-6.83
204.755	93.52
204.974	36.18
205.193	42.32
205.411	50.52
205.63	50.52
205.849	87.38
206.068	30.04
206.287	46.42
206.505	-33.45
206.724	19.8
206.943	85.33
207.162	77.14
207.381	130.39
207.599	-47.79
207.818	1.37
208.037	77.14
208.255	36.18
208.474	34.13
208.693	79.19
208.911	44.37
209.13	73.04
209.349	79.19
209.567	79.19
209.786	56.66
210.005	17.75
210.223	-17.07
210.442	56.66
210.661	30.04
210.879	-0.68
211.098	64.85
211.316	-25.26
211.535	62.8
211.753	27.99
211.972	21.85
212.191	-2.73
212.409	21.85
212.628	-2.73
212.846	-0.68
213.065	44.37
213.283	68.95
213.502	34.13
213.72	34.13
213.938	62.8
214.157	42.32
214.375	27.99
214.594	77.14
214.812	48.47
215.031	9.56
215.249	-27.31
215.467	71
215.686	71
215.904	89.43
216.122	11.61
216.341	93.52
216.559	68.95
216.778	46.42
216.996	77.14
217.214	27.99
217.432	64.85
217.651	40.28
217.869	71
218.087	38.23
218.306	64.85
218.524	68.95
218.742	89.43
218.96	58.71
219.179	136.53
219.397	23.89
219.615	36.18
219.833	-12.97
220.051	40.28
220.27	134.48
220.488	99.67
220.706	34.13
220.924	46.42
221.142	-21.16
221.36	36.18
221.578	85.33
221.796	42.32
222.015	95.57
222.233	54.61
222.451	142.68
222.669	40.28
222.887	42.32
223.105	27.99
223.323	40.28
223.541	38.23
223.759	48.47
223.977	27.99
224.195	64.85
224.413	32.08
224.631	23.89
224.849	9.56
225.067	116.05
225.285	46.42
225.503	27.99
225.721	-39.59
225.939	44.37
226.157	42.32
226.375	175.44
226.592	48.47
226.81	13.65
227.028	52.56
227.246	77.14
227.464	-45.74
227.682	11.61
227.9	68.95
228.117	-0.68
228.335	-6.83
228.553	30.04
228.771	68.95
228.989	71
229.206	23.89
229.424	32.08
229.642	68.95
229.86	-0.68
230.077	91.48
230.295	105.81
230.513	38.23
230.731	85.33
230.948	15.7
231.166	101.72
231.384	25.94
231.601	34.13
231.819	81.24
232.037	1.37
232.254	77.14
232.472	-23.21
232.689	32.08
232.907	50.52
233.125	7.51
233.342	1.37
233.56	52.56
233.777	9.56
233.995	87.38
234.213	109.91
234.43	34.13
234.648	9.56
234.865	-0.68
235.083	124.24
235.3	5.46
235.518	34.13
235.735	83.28
235.953	15.7
236.17	-19.11
236.388	21.85
236.605	101.72
236.822	48.47
237.04	52.56
237.257	34.13
237.475	19.8
237.692	-8.87
237.909	77.14
238.127	44.37
238.344	97.62
238.562	58.71
238.779	19.8
238.996	7.51
239.214	38.23
239.431	17.75
239.648	5.46
239.865	77.14
240.083	27.99
240.3	34.13
240.517	60.76
240.735	23.89
240.952	101.72
241.169	99.67
241.386	25.94
241.603	17.75
241.821	58.71
242.038	68.95
242.255	130.39
242.472	17.75
242.689	118.1
242.907	87.38
243.124	64.85
243.341	87.38
243.558	27.99
243.775	-21.16
243.992	1.37
244.209	118.1
244.426	95.57
244.643	111.96
244.86	44.37
245.078	1.37
245.295	36.18
245.512	62.8
245.729	32.08
245.946	68.95
246.163	97.62
246.38	109.91
246.597	30.04
246.814	64.85
247.031	-2.73
247.248	62.8
247.464	89.43
247.681	124.24
247.898	93.52
248.115	116.05
248.332	27.99
248.549	9.56
248.766	71
248.983	128.34
249.2	116.05
249.417	62.8
249.633	-17.07
249.85	38.23
250.067	34.13
250.284	93.52
250.501	111.96
250.717	81.24
250.934	85.33
251.151	44.37
251.368	71
251.585	-43.69
251.801	60.76
252.018	-2.73
252.235	15.7
252.451	34.13
252.668	7.51
252.885	73.04
253.102	71
253.318	17.75
253.535	7.51
253.752	-17.07
253.968	50.52
254.185	27.99
254.401	23.89
254.618	30.04
254.835	66.9
255.051	105.81
255.268	64.85
255.484	56.66
255.701	-27.31
255.917	23.89
256.134	-17.07
256.351	103.76
256.567	13.65
256.784	79.19
257	19.8
257.217	54.61
257.433	17.75
257.65	46.42
257.866	64.85
258.082	11.61
258.299	64.85
258.515	48.47
258.732	15.7
258.948	9.56
259.165	36.18
259.381	13.65
259.597	95.57
259.814	38.23
260.03	105.81
260.246	23.89
260.463	48.47
260.679	48.47
260.895	73.04
261.112	87.38
261.328	142.68
261.544	-8.87
261.761	136.53
261.977	54.61
262.193	105.81
262.409	68.95
262.626	89.43
262.842	138.58
263.058	30.04
263.274	64.85
263.49	105.81
263.707	56.66
263.923	13.65
264.139	46.42
264.355	46.42
264.571	48.47
264.787	101.72
265.004	27.99
265.22	99.67
265.436	56.66
265.652	32.08
265.868	46.42
266.084	68.95
266.3	42.32
266.516	87.38
266.732	89.43
266.948	-6.83
267.164	27.99
267.38	30.04
267.596	56.66
267.812	48.47
268.028	7.51
268.244	52.56
268.46	136.53
268.676	44.37
268.892	13.65
269.108	32.08
269.324	48.47
269.54	48.47
269.756	42.32
269.972	-23.21
270.188	42.32
270.403	-10.92
270.619	60.76
270.835	17.75
271.051	42.32
271.267	-17.07
271.483	38.23
271.698	25.94
271.914	30.04
272.13	54.61
272.346	79.19
272.562	52.56
272.777	44.37
272.993	40.28
273.209	21.85
273.425	79.19
273.64	52.56
273.856	93.52
274.072	66.9
274.287	-12.97
274.503	93.52
274.719	118.1
274.934	25.94
275.15	17.75
275.366	83.28
275.581	46.42
275.797	44.37
276.012	36.18
276.228	-29.35
276.444	101.72
276.659	126.29
276.875	91.48
277.09	91.48
277.306	-8.87
277.521	42.32
277.737	3.41
277.952	105.81
278.168	73.04
278.383	60.76
278.599	38.23
278.814	81.24
279.03	27.99
279.245	124.24
279.461	62.8
279.676	58.71
279.892	9.56
280.107	40.28
280.322	52.56
280.538	103.76
280.753	44.37
280.969	50.52
281.184	25.94
281.399	101.72
281.615	15.7
281.83	40.28
282.045	23.89
282.26	60.76
282.476	44.37
282.691	11.61
282.906	64.85
283.122	109.91
283.337	77.14
283.552	46.42
283.767	46.42
283.983	99.67
284.198	-12.97
284.413	11.61
284.628	68.95
284.843	50.52
285.058	66.9
285.274	73.04
285.489	19.8
285.704	-2.73
285.919	-2.73
286.134	66.9
286.349	64.85
286.564	91.48
286.779	95.57
286.995	103.76
287.21	38.23
287.425	-15.02
287.64	21.85
287.855	77.14
288.07	19.8
288.285	23.89
288.5	114
288.715	77.14
288.93	44.37
289.145	7.51
289.36	66.9
289.575	128.34
289.79	44.37
290.004	25.94
290.219	-8.87
290.434	44.37
290.649	58.71
290.864	89.43
291.079	-27.31
291.294	-6.83
291.509	5.46
291.724	-23.21
291.938	21.85
292.153	75.09
292.368	97.62
292.583	77.14
292.798	79.19
293.012	85.33
293.227	27.99
293.442	-41.64
293.657	124.24
293.871	83.28
294.086	91.48
294.301	44.37
294.516	93.52
294.73	77.14
294.945	15.7
295.16	38.23
295.374	140.63
295.589	124.24
295.804	38.23
296.018	118.1
296.233	68.95
296.447	73.04
296.662	40.28
296.877	23.89
297.091	60.76
297.306	46.42
297.52	103.76
297.735	105.81
297.949	97.62
298.164	132.44
298.378	-0.68
298.593	30.04
298.807	71
299.022	30.04
299.236	77.14
299.451	17.75
299.665	19.8
299.88	140.63
300.094	62.8
300.309	11.61
300.523	71
300.737	81.24
300.952	36.18
301.166	44.37
301.381	21.85
301.595	42.32
301.809	42.32
302.024	87.38
302.238	-0.68
302.452	56.66
302.667	48.47
302.881	93.52
303.095	44.37
303.309	21.85
303.524	3.41
303.738	27.99
303.952	-37.55
304.166	7.51
304.381	64.85
304.595	3.41
304.809	19.8
305.023	91.48
305.237	75.09
305.452	103.76
305.666	13.65
305.88	62.8
306.094	38.23
306.308	114
306.522	126.29
306.736	107.86
306.95	56.66
307.164	1.37
307.379	77.14
307.593	77.14
307.807	62.8
308.021	7.51
308.235	46.42
308.449	75.09
308.663	32.08
308.877	91.48
309.091	40.28
309.305	13.65
309.519	7.51
309.733	99.67
309.947	105.81
310.161	128.34
310.374	-25.26
310.588	56.66
310.802	11.61
311.016	11.61
311.23	30.04
311.444	75.09
311.658	56.66
311.872	64.85
312.085	36.18
312.299	68.95
312.513	66.9
312.727	130.39
312.941	21.85
313.154	52.56
313.368	46.42
313.582	27.99
313.796	15.7
314.009	109.91
314.223	48.47
314.437	101.72
314.651	23.89
314.864	48.47
315.078	77.14
315.292	9.56
315.505	58.71
315.719	71
315.933	60.76
316.146	60.76
316.36	56.66
316.573	34.13
316.787	81.24
317.001	118.1
317.214	3.41
317.428	60.76
317.641	23.89
317.855	85.33
318.068	25.94
318.282	91.48
318.495	81.24
318.709	126.29
318.922	77.14
319.136	95.57
319.349	1.37
319.563	54.61
319.776	111.96
319.99	34.13
320.203	46.42
320.417	54.61
320.63	107.86
320.843	99.67
321.057	73.04
321.27	132.44
321.483	23.89
321.697	124.24
321.91	46.42
322.124	93.52
322.337	81.24
322.55	36.18
322.763	30.04
322.977	136.53
323.19	48.47
323.403	103.76
323.617	87.38
323.83	89.43
324.043	71
324.256	50.52
324.469	91.48
324.683	118.1
324.896	83.28
325.109	95.57
325.322	40.28
325.535	152.92
325.748	75.09
325.962	38.23
326.175	93.52
326.388	128.34
326.601	81.24
326.814	64.85
327.027	68.95
327.24	77.14
327.453	17.75
327.666	79.19
327.879	79.19
328.092	114
328.305	50.52
328.518	85.33
328.731	71
328.944	116.05
329.157	71
329.37	42.32
329.583	79.19
329.796	118.1
330.009	3.41
330.222	83.28
330.435	85.33
330.648	64.85
330.861	114
331.073	85.33
331.286	50.52
331.499	21.85
331.712	60.76
331.925	68.95
332.138	1.37
332.35	42.32
332.563	66.9
332.776	83.28
332.989	15.7
333.202	7.51
333.414	146.77
333.627	68.95
333.84	111.96
334.053	79.19
334.265	111.96
334.478	-27.31
334.691	87.38
334.903	103.76
335.116	-10.92
335.329	89.43
335.541	7.51
335.754	85.33
335.966	11.61
336.179	9.56
336.392	91.48
336.604	81.24
336.817	81.24
337.029	126.29
337.242	130.39
337.454	107.86
337.667	111.96
337.88	83.28
338.092	87.38
338.305	66.9
338.517	38.23
338.729	40.28
338.942	144.72
339.154	30.04
339.367	81.24
339.579	60.76
339.792	19.8
340.004	56.66
340.217	15.7
340.429	66.9
340.641	124.24
340.854	91.48
341.066	15.7
341.278	87.38
341.491	163.15
341.703	68.95
341.915	58.71
342.128	114
342.34	44.37
342.552	93.52
342.764	62.8
342.977	36.18
343.189	46.42
343.401	56.66
343.613	54.61
343.826	42.32
344.038	5.46
344.25	109.91
344.462	15.7
344.674	68.95
344.886	124.24
345.099	109.91
345.311	79.19
345.523	52.56
345.735	109.91
345.947	62.8
346.159	34.13
346.371	120.15
346.583	52.56
346.795	60.76
347.007	79.19
347.219	103.76
347.431	64.85
347.643	107.86
347.855	9.56
348.067	132.44
348.279	-15.02
348.491	52.56
348.703	136.53
348.915	56.66
349.127	-17.07
349.339	66.9
349.551	52.56
349.763	52.56
349.975	-35.5
350.187	64.85
350.399	99.67
350.61	71
350.822	25.94
351.034	118.1
351.246	64.85
351.458	62.8
351.669	75.09
351.881	83.28
352.093	83.28
352.305	48.47
352.517	114
352.728	122.2
352.94	32.08
353.152	60.76
353.363	75.09
353.575	42.32
353.787	38.23
353.999	99.67
354.21	50.52
354.422	66.9
354.633	95.57
354.845	1.37
355.057	11.61
355.268	99.67
355.48	77.14
355.692	64.85
355.903	93.52
356.115	36.18
356.326	15.7
356.538	130.39
356.749	-0.68
356.961	87.38
357.172	54.61
357.384	50.52
357.595	85.33
357.807	44.37
358.018	66.9
358.23	97.62
358.441	130.39
358.653	118.1
358.864	81.24
359.075	36.18
359.287	50.52
359.498	75.09
359.709	25.94
359.921	58.71
360.132	40.28
360.344	15.7
360.555	38.23
360.766	87.38
360.977	32.08
361.189	64.85
361.4	25.94
361.611	68.95
361.823	3.41
362.034	3.41
362.245	62.8
362.456	42.32
362.667	93.52
362.879	54.61
363.09	68.95
363.301	132.44
363.512	23.89
363.723	17.75
363.935	91.48
364.146	64.85
364.357	83.28
364.568	56.66
364.779	64.85
364.99	27.99
365.201	83.28
365.412	50.52
365.623	81.24
365.834	73.04
366.045	66.9
366.256	77.14
366.467	27.99
366.678	66.9
366.889	93.52
367.1	71
367.311	40.28
367.522	111.96
367.733	64.85
367.944	58.71
368.155	34.13
368.366	66.9
368.577	120.15
368.788	27.99
368.999	52.56
369.209	71
369.42	91.48
369.631	146.77
369.842	3.41
370.053	83.28
370.264	64.85
370.474	105.81
370.685	77.14
370.896	36.18
371.107	50.52
371.317	40.28
371.528	19.8
371.739	71
371.95	116.05
372.16	116.05
372.371	91.48
372.582	85.33
372.792	66.9
373.003	128.34
373.214	36.18
373.424	68.95
373.635	27.99
373.846	132.44
374.056	87.38
374.267	118.1
374.477	68.95
374.688	79.19
374.898	85.33
375.109	83.28
375.319	38.23
375.53	1.37
375.74	105.81
375.951	21.85
376.161	83.28
376.372	1.37
376.582	83.28
376.793	40.28
377.003	42.32
377.214	60.76
377.424	81.24
377.635	15.7
377.845	56.66
378.055	132.44
378.266	77.14
378.476	85.33
378.686	93.52
378.897	38.23
379.107	93.52
379.317	34.13
379.528	42.32
379.738	58.71
379.948	42.32
380.158	103.76
380.369	30.04
380.579	79.19
380.789	71
380.999	105.81
381.21	120.15
381.42	150.87
381.63	89.43
381.84	95.57
382.05	77.14
382.261	120.15
382.471	116.05
382.681	54.61
382.891	83.28
383.101	146.77
383.311	91.48
383.521	89.43
383.731	93.52
383.941	68.95
384.151	126.29
384.361	66.9
384.571	114
384.781	60.76
384.991	77.14
385.201	99.67
385.411	126.29
385.621	50.52
385.831	68.95
386.041	87.38
386.251	128.34
386.461	97.62
386.671	42.32
386.881	163.15
387.091	107.86
387.301	136.53
387.511	81.24
387.72	163.15
387.93	109.91
388.14	42.32
388.35	50.52
388.56	128.34
388.769	93.52
388.979	60.76
389.189	95.57
389.399	40.28
389.609	134.48
389.818	93.52
390.028	107.86
390.238	71
390.447	159.06
390.657	148.82
390.867	126.29
391.076	111.96
391.286	71
391.496	93.52
391.705	50.52
391.915	101.72
392.125	73.04
392.334	134.48
392.544	118.1
392.753	144.72
392.963	107.86
393.172	81.24
393.382	138.58
393.591	134.48
393.801	118.1
394.01	193.87
394.22	79.19
394.429	30.04
394.639	97.62
394.848	103.76
395.058	146.77
395.267	13.65
395.477	130.39
395.686	93.52
395.895	122.2
396.105	216.4
396.314	103.76
396.524	159.06
396.733	30.04
396.942	163.15
397.152	85.33
397.361	150.87
397.57	128.34
397.78	116.05
397.989	122.2
398.198	187.73
398.407	120.15
398.617	114
398.826	114
399.035	152.92
399.244	120.15
399.453	116.05
399.663	124.24
399.872	224.59
400.081	101.72
400.29	130.39
400.499	87.38
400.708	175.44
400.917	167.25
401.127	116.05
401.336	148.82
401.545	179.54
401.754	161.11
401.963	167.25
402.172	175.44
402.381	210.26
402.59	261.46
402.799	179.54
403.008	202.07
403.217	224.59
403.426	191.83
403.635	142.68
403.844	183.63
404.053	214.35
404.262	197.97
404.471	185.68
404.68	228.69
404.888	234.83
405.097	136.53
405.306	181.59
405.515	183.63
405.724	216.4
405.933	263.51
406.142	275.79
406.35	216.4
406.559	202.07
406.768	279.89
406.977	283.99
407.185	349.52
407.394	253.27
407.603	261.46
407.812	300.37
408.02	294.22
408.229	261.46
408.438	312.66
408.646	306.51
408.855	302.42
409.064	302.42
409.272	345.42
409.481	408.91
409.69	355.66
409.898	357.71
410.107	374.1
410.315	449.87
410.524	398.67
410.733	476.49
410.941	492.88
411.15	509.26
411.358	431.44
411.567	546.12
411.775	503.12
411.984	617.8
412.192	701.77
412.401	527.69
412.609	605.52
412.818	712.01
413.026	673.1
413.234	695.63
413.443	650.57
413.651	748.87
413.86	789.83
414.068	795.98
414.276	816.46
414.485	832.84
414.693	937.29
414.901	886.09
415.11	1027.4
415.318	916.81
415.526	922.95
415.734	984.39
415.943	1039.69
416.151	1199.43
416.359	1123.65
416.567	1131.84
416.776	1176.9
416.984	1258.82
417.192	1240.39
417.4	1287.49
417.608	1299.78
417.817	1404.22
418.025	1436.99
418.233	1461.57
418.441	1463.62
418.649	1482.05
418.857	1572.16
419.065	1686.84
419.273	1699.13
419.481	1768.76
419.689	1914.17
419.897	1889.59
420.105	2143.54
420.313	2024.76
420.521	2047.29
420.729	2071.86
420.937	2366.77
421.145	2243.89
421.353	2422.06
421.561	2549.04
421.769	2585.9
421.977	2559.28
422.185	2774.32
422.393	2825.51
422.601	3026.22
422.809	2968.87
423.017	3087.65
423.224	3118.37
423.432	3304.74
423.64	3314.98
423.848	3616.03
424.056	3487.01
424.263	3822.88
424.471	3743
424.679	3886.36
424.887	4042.01
425.094	3980.57
425.302	4330.77
425.51	4238.61
425.718	4332.82
425.925	4408.59
426.133	4637.97
426.341	4914.44
426.548	5209.35
426.756	5022.98
426.964	5057.8
427.171	5383.43
427.379	5678.33
427.586	5823.74
427.794	5860.6
428.001	6106.36
428.209	6333.68
428.417	6202.61
428.624	6792.43
428.832	6880.49
429.039	6841.58
429.247	6755.57
429.454	7335.14
429.662	7724.26
429.869	7156.97
430.076	7851.23
430.284	7761.12
430.491	8017.12
430.699	8457.43
430.906	8494.29
431.114	8541.39
431.321	8983.76
431.528	9100.49
431.736	9653.44
431.943	9929.92
432.15	9641.15
432.358	9919.68
432.565	10353.85
432.772	10308.79
432.979	10855.6
433.187	11197.61
433.394	11003.05
433.601	12135.58
433.808	11738.27
434.016	11789.47
434.223	12354.71
434.43	12979.34
434.637	12940.43
434.844	13728.9
435.052	13950.08
435.259	13792.39
435.466	13769.86
435.673	13763.72
435.88	14740.6
436.087	15535.21
436.294	15424.62
436.501	14933.11
436.708	15365.23
436.915	16163.93
437.122	16870.48
437.329	16362.59
437.537	16903.25
437.743	17630.28
437.95	17296.46
438.157	18332.73
438.364	19072.05
438.571	18895.92
438.778	19053.62
438.985	20696.09
439.192	19842.09
439.399	20497.44
439.606	19981.35
439.813	21349.39
440.02	22363.14
440.227	21820.42
440.433	21900.3
440.64	22672.38
440.847	22461.44
441.054	22877.18
441.261	24323.04
441.467	24288.23
441.674	24560.61
441.881	25672.65
442.088	25158.61
442.294	25301.97
442.501	25695.18
442.708	26739.65
442.914	27720.62
443.121	28548
443.328	28091.3
443.534	30028.68
443.741	29211.54
443.948	28724.13
444.154	30813.06
444.361	30688.13
444.568	30714.75
444.774	30614.4
444.981	31267.7
445.187	32017.26
445.394	33545.05
445.6	33117.02
445.807	36000.56
446.013	34386.76
446.22	35515.19
446.426	36733.73
446.633	36836.13
446.839	38052.62
447.046	36598.57
447.252	38847.24
447.459	38904.58
447.665	38449.93
447.871	40334.06
448.078	41761.5
448.284	39461.63
448.491	41095.91
448.697	42349.26
448.903	43422.4
449.11	43426.49
449.316	42365.65
449.522	43805.37
449.728	44763.82
449.935	45257.38
450.141	45077.16
450.347	45931.16
450.553	44530.35
450.76	45122.21
450.966	46842.51
451.172	45773.47
451.378	47276.68
451.584	46592.65
451.791	47559.3
451.997	47231.62
452.203	48228.98
452.409	48001.66
452.615	47753.85
452.821	46527.12
453.027	45791.9
453.233	48548.46
453.44	45916.82
453.646	46838.41
453.852	47272.58
454.058	47657.6
454.264	46228.12
454.47	46992.01
454.676	46117.53
454.882	47528.58
455.088	43745.98
455.294	44589.74
455.5	45337.25
455.705	45316.77
455.911	43690.68
456.117	42832.58
456.323	42521.29
456.529	40381.17
456.735	41958.1
456.941	40786.66
457.147	40098.55
457.352	39236.35
457.558	38847.24
457.764	38660.87
457.97	37999.38
458.176	37108.51
458.381	37325.6
458.587	35201.85
458.793	35263.29
458.999	33594.2
459.204	35849.01
459.41	35031.87
459.616	32832.35
459.821	32656.23
460.027	32320.36
460.233	31961.97
460.438	30317.45
460.644	30724.99
460.85	29326.23
461.055	28951.45
461.261	28867.48
461.466	26512.32
461.672	25938.89
461.878	27648.94
462.083	26024.9
462.289	25351.12
462.494	25027.54
462.7	23925.74
462.905	23487.47
463.111	24173.54
463.316	23940.07
463.522	23665.64
463.727	23727.08
463.932	23878.63
464.138	23280.63
464.343	23624.68
464.549	22651.9
464.754	23360.5
464.959	23450.61
465.165	23616.49
465.37	22174.72
465.575	21797.9
465.781	22406.14
465.986	22469.63
466.191	22127.62
466.397	21515.28
466.602	20155.43
466.807	21191.7
467.012	21238.8
467.218	21240.85
467.423	20784.15
467.628	21007.38
467.833	21869.58
468.038	20790.3
468.244	20392.99
468.449	21177.36
468.654	20708.38
468.859	20374.56
469.064	20243.49
469.269	19303.47
469.474	19565.61
469.679	19917.86
469.885	19328.05
470.09	19602.47
470.295	19682.35
470.5	19094.58
470.705	19362.86
470.91	18877.49
471.115	18408.51
471.32	19059.76
471.525	18639.93
471.73	18443.32
471.935	18435.13
472.139	17493.07
472.344	17751.11
472.549	17388.62
472.754	17337.42
472.959	17269.84
473.164	16870.48
473.369	16397.4
473.574	17310.8
473.778	16950.35
473.983	16868.44
474.188	16561.24
474.393	15942.75
474.598	16034.91
474.802	16082.02
475.007	15750.24
475.212	15713.38
475.417	15213.68
475.621	15205.49
475.826	15371.37
476.031	14959.73
476.235	14842.99
476.44	14949.49
476.645	14697.59
476.849	14804.08
477.054	14396.54
477.259	14429.31
477.463	14347.39
477.668	13898.88
477.872	14158.97
478.077	13520.01
478.282	13186.19
478.486	13378.7
478.691	13409.42
478.895	13352.07
479.1	13192.33
479.304	13128.84
479.509	12729.49
479.713	12987.54
479.918	12790.93
480.122	12682.39
480.326	12776.59
480.531	12883.09
480.735	12385.43
480.94	12424.34
481.144	12782.74
481.348	12074.14
481.553	12424.34
481.757	12014.75
481.961	12534.93
482.166	12498.07
482.37	12487.83
482.574	11945.12
482.778	12147.87
482.983	12235.93
483.187	12270.75
483.391	12268.7
483.595	12104.86
483.8	12205.21
484.004	12082.33
484.208	12211.35
484.412	12168.35
484.616	12180.64
484.821	12242.07
485.025	11941.02
485.229	12272.79
485.433	12135.58
485.637	11945.12
485.841	12088.48
486.045	12188.83
486.249	12010.65
486.453	11975.84
486.657	12092.57
486.861	12283.03
487.065	11850.91
487.269	12027.04
487.473	11943.07
487.677	12141.72
487.881	12213.4
488.085	12016.8
488.289	12102.81
488.493	11967.65
488.697	12072.09
488.901	11904.16
489.105	12151.96
489.309	12268.7
489.512	12201.12
489.716	12197.02
489.92	12307.61
490.124	12006.56
490.328	12483.73
490.531	12262.55
490.735	12463.26
490.939	12577.94
491.143	12309.66
491.346	12131.48
491.55	12616.85
491.754	12440.73
491.958	12575.89
492.161	12453.02
492.365	12721.3
492.569	12623
492.772	12698.77
492.976	12942.48
493.18	12823.7
493.383	13020.3
493.587	13202.57
493.79	13325.45
493.994	12952.72
494.197	13089.93
494.401	13155.47
494.605	13276.3
494.808	13487.24
495.012	13405.32
495.215	13917.31
495.419	13563.01
495.622	13862.02
495.825	13816.96
496.029	13894.79
496.232	14132.35
496.436	14054.53
496.639	14550.14
496.843	14191.74
497.046	14543.99
497.249	14886
497.453	15101.04
497.656	14752.88
497.859	15031.41
498.063	15199.34
498.266	15477.87
498.469	15479.91
498.673	15723.62
498.876	16043.1
499.079	16000.1
499.282	16047.2
499.485	16637.02
499.689	16526.43
499.892	16960.59
500.095	16895.06
500.298	17257.55
500.501	17050.71
500.705	17478.73
500.908	17710.15
501.111	17861.7
501.314	18113.6
501.517	18310.21
501.72	18486.33
501.923	18388.03
502.126	18912.31
502.329	18789.43
502.532	19082.29
502.735	19252.27
502.938	19577.9
503.141	19805.22
503.344	20188.19
503.547	20274.21
503.75	20452.38
503.953	20900.89
504.156	20919.32
504.359	21120.02
504.562	21371.92
504.765	21632.01
504.968	21881.86
505.17	21982.21
505.373	22012.93
505.576	22680.57
505.779	22547.45
505.982	22660.09
506.185	23454.7
506.387	23303.15
506.59	23505.9
506.793	23876.58
506.996	23809
507.198	24742.88
507.401	24716.25
507.604	24570.85
507.807	25306.07
508.009	25408.47
508.212	25904.07
508.415	26098.63
508.617	26405.83
508.82	26340.29
509.022	26201.03
509.225	27024.31
509.428	27083.7
509.63	27669.42
509.833	27605.94
510.035	28236.71
510.238	28220.33
510.44	28634.02
510.643	28920.73
510.845	29170.58
511.048	28789.66
511.25	29445.01
511.453	29459.35
511.655	30491.52
511.858	30370.69
512.06	30434.18
512.262	30925.69
512.465	31124.35
512.667	31720.31
512.87	32031.6
513.072	31783.79
513.274	32858.98
513.477	32734.05
513.679	32971.61
513.881	33536.85
514.084	33712.98
514.286	34024.27
514.488	34278.22
514.69	34886.46
514.893	34947.9
515.095	35183.42
515.297	35670.84
515.499	35746.61
515.701	36113.2
515.904	36678.44
516.106	36690.73
516.308	37063.46
516.51	37675.8
516.712	37438.23
516.914	38038.29
517.116	38593.29
517.318	38445.83
517.52	38738.69
517.722	38961.92
517.925	39850.74
518.127	40080.11
518.329	40319.73
518.531	40139.5
518.733	40989.41
518.935	41067.23
519.136	41138.91
519.338	42056.4
519.54	42187.47
519.742	42527.44
519.944	42566.35
520.146	43731.64
520.348	43496.13
520.55	43582.14
520.752	43975.35
520.954	45060.77
521.155	44249.78
521.357	45073.06
521.559	45648.54
521.761	45994.65
521.963	45658.78
522.164	45916.82
522.366	45920.92
522.568	46846.6
522.77	47315.59
522.971	47841.92
523.173	47223.43
523.375	47557.25
523.576	47647.36
523.778	47782.52
523.98	48722.54
524.181	48878.19
524.383	48632.43
524.584	49545.83
524.786	49455.71
524.988	49586.78
525.189	50070.11
525.391	50244.18
525.592	50436.69
525.794	50698.83
525.995	50868.81
526.197	50874.96
526.398	50940.49
526.6	51180.1
526.801	51495.49
527.003	51395.14
527.204	51210.82
527.406	52642.35
527.607	52277.82
527.808	52761.14
528.01	51528.26
528.211	51782.21
528.412	53244.46
528.614	52933.17
528.815	52298.3
529.016	52959.79
529.218	52955.69
529.419	52912.69
529.62	53445.16
529.822	52869.68
530.023	53508.64
530.224	53516.84
530.425	53465.64
530.626	53131.82
530.828	53133.87
531.029	54385.18
531.23	53226.03
531.431	53703.2
531.632	53801.5
531.833	54213.15
532.035	53928.48
532.236	54190.62
532.437	54592.02
532.638	54014.49
532.839	54166.04
533.04	54133.28
533.241	53727.78
533.442	54860.3
533.643	54071.84
533.844	54311.45
534.045	54743.57
534.246	54180.38
534.447	54704.66
534.648	54268.44
534.849	54725.14
535.05	54506.01
535.251	54608.4
535.451	54202.91
535.652	54788.63
535.853	54141.47
536.054	54831.63
536.255	54974.99
536.456	54315.54
536.657	55104.01
536.857	54207
537.058	54493.72
537.259	54727.19
537.46	54192.67
537.66	54223.39
537.861	54516.25
538.062	54446.61
538.263	54428.18
538.463	54182.43
538.664	54293.02
538.865	54372.89
539.065	54573.59
539.266	53926.43
539.466	54553.11
539.667	53819.94
539.868	54604.31
540.068	53951.01
540.269	54223.39
540.469	54428.18
540.67	53645.86
540.87	54084.12
541.071	54241.82
541.271	54184.47
541.472	54182.43
541.672	54157.85
541.873	54037.02
542.073	53441.06
542.274	54207
542.474	54043.16
542.675	53682.72
542.875	54473.24
543.075	54018.59
543.276	53406.25
543.476	54383.13
543.676	53762.59
543.877	54288.92
544.077	53529.12
544.277	53434.92
544.478	54047.26
544.678	54055.45
544.878	53791.26
545.078	53539.36
545.279	53754.4
545.479	53633.57
545.679	54198.81
545.879	53840.42
546.079	53969.44
546.28	53766.69
546.48	53240.36
546.68	54022.68
546.88	53879.33
547.08	53899.81
547.28	53715.49
547.48	53396.01
547.68	53623.33
547.88	53219.88
548.081	53727.78
548.281	53508.64
548.481	53588.52
548.681	53522.98
548.881	54004.25
549.081	53662.24
549.28	53543.46
549.48	53746.21
549.68	53043.76
549.88	54106.65
550.08	53285.42
550.28	53629.47
550.48	53488.17
550.68	53609
550.88	53441.06
551.08	53072.43
551.279	53293.61
551.479	52716.08
551.679	53342.76
551.879	53303.85
552.079	53690.91
552.278	53170.73
552.478	53074.48
552.678	52986.41
552.878	53434.92
553.077	53072.43
553.277	52197.94
553.477	53875.23
553.676	52578.87
553.876	53158.44
554.076	53215.79
554.275	52828.72
554.475	52384.31
554.674	52802.1
554.874	53256.74
555.074	52580.91
555.273	53084.72
555.473	53160.49
555.672	52490.8
555.872	52806.19
556.071	52865.58
556.271	52568.63
556.47	52228.66
556.67	51952.19
556.869	52187.7
557.068	52558.39
557.268	52230.71
557.467	52310.58
557.667	52247.1
557.866	52146.75
558.065	52238.9
558.265	51747.39
558.464	51640.9
558.663	52263.48
558.863	51446.34
559.062	52603.44
559.261	51274.31
559.461	52337.21
559.66	51458.63
559.859	51704.38
560.058	51206.73
560.258	51585.6
560.457	51182.15
560.656	51886.65
560.855	51182.15
561.054	51718.72
561.253	50924.11
561.453	51305.03
561.652	50866.77
561.851	51438.15
562.05	50463.32
562.249	50920.01
562.448	51518.02
562.647	50795.09
562.846	50776.65
563.045	50659.92
563.244	50129.5
563.443	51173.96
563.642	49748.57
563.841	50621.01
564.04	49623.65
564.239	50508.37
564.438	49574.5
564.637	50250.33
564.836	49863.26
565.035	49402.47
565.234	50184.79
565.432	49443.43
565.631	49617.5
565.83	49836.64
566.029	49300.07
566.228	49238.63
566.427	48974.44
566.625	49054.31
566.824	48697.97
567.023	49257.06
567.222	48620.14
567.42	48765.55
567.619	48657.01
567.818	48269.94
568.016	48605.81
568.215	48665.2
568.414	48081.53
568.612	48456.31
568.811	47698.56
569.01	48026.23
569.208	47309.44
569.407	47575.68
569.605	46959.24
569.804	48114.3
570.002	46842.51
570.201	47884.92
570.4	47354.5
570.598	47073.93
570.797	46998.15
570.995	47024.78
571.193	46629.52
571.392	47080.07
571.59	46496.4
571.789	46297.75
571.987	46314.13
572.186	46482.06
572.384	46121.62
572.582	46295.7
572.781	46449.3
572.979	45601.44
573.177	45873.82
573.376	45730.46
573.574	45564.57
573.772	45226.66
573.971	45666.97
574.169	45040.29
574.367	45011.62
574.565	45685.4
574.763	44974.76
574.962	44970.66
575.16	44384.94
575.358	43995.83
575.556	44327.6
575.754	44782.25
575.952	43993.78
576.151	44892.84
576.349	43508.41
576.547	43678.39
576.745	43530.94
576.943	44149.43
577.141	43702.97
577.339	43664.06
577.537	43375.3
577.735	43111.11
577.933	43041.48
578.131	43246.27
578.329	42816.2
578.527	42496.72
578.725	42697.42
578.923	42859.21
579.121	42863.3
579.319	42685.13
579.516	42549.96
579.714	42451.66
579.912	42105.55
580.11	42312.4
580.308	41716.44
580.506	41648.86
580.704	41169.63
580.901	41394.91
581.099	41476.83
581.297	40975.08
581.495	40973.03
581.692	41644.76
581.89	40676.07
582.088	41247.46
582.285	40794.85
582.483	41034.47
582.681	40880.87
582.878	40469.23
583.076	40387.31
583.274	40784.61
583.471	40055.54
583.669	40076.02
583.866	39830.26
584.064	39877.36
584.262	39539.45
584.459	40239.86
584.657	39400.19
584.854	39740.15
585.052	39144.19
585.249	39260.93
585.447	38890.24
585.644	38982.4
585.841	39242.49
586.039	39142.14
586.236	38529.8
586.434	38501.13
586.631	38587.14
586.828	38429.45
587.026	38132.5
587.223	38417.16
587.42	38152.98
587.618	38040.34
587.815	37600.02
588.012	37630.74
588.21	37094.18
588.407	37686.04
588.604	37473.05
588.801	37169.95
588.999	37065.5
589.196	36975.39
589.393	37178.14
589.59	36791.08
589.787	36827.94
589.984	36909.86
590.182	36195.12
590.379	36887.33
590.576	36242.22
590.773	36246.32
590.97	36350.76
591.167	36494.12
591.364	35830.58
591.561	36283.18
591.758	35646.26
591.955	35824.43
592.152	35291.96
592.349	35478.33
592.546	35711.8
592.743	35754.8
592.94	34952
593.137	34949.95
593.334	35265.34
593.531	34788.16
593.727	34843.46
593.924	34751.3
594.121	34452.3
594.318	34702.15
594.515	34247.5
594.712	34319.18
594.908	34186.06
595.105	33911.63
595.302	33682.26
595.499	33768.27
595.696	33729.36
595.892	33430.36
596.089	33583.96
596.286	33694.55
596.482	33485.65
596.679	33325.91
596.876	33346.39
597.072	32785.25
597.269	33049.44
597.466	32385.9
597.662	32512.87
597.859	32785.25
598.055	33026.91
598.252	32478.05
598.448	32514.92
598.645	32150.38
598.841	31869.81
599.038	32090.99
599.234	32441.19
599.431	31552.37
599.627	31789.94
599.824	31841.14
600.02	31468.41
600.217	31884.14
600.413	31452.02
600.609	31202.17
600.806	31013.76
601.002	31138.68
601.198	31112.06
601.395	30790.53
601.591	30778.24
601.787	30796.67
601.984	30733.18
602.18	30962.56
602.376	30456.71
602.572	30681.99
602.769	30258.06
602.965	29879.18
603.161	30311.3
603.357	29875.09
603.553	30235.53
603.75	30063.5
603.946	29639.57
604.142	29762.45
604.338	29225.88
604.534	29428.63
604.73	29150.1
604.926	29352.85
605.122	29750.16
605.318	29338.52
605.514	28961.69
605.71	28896.16
605.906	29035.42
606.102	28591.01
606.298	28668.83
606.494	28609.44
606.69	28519.33
606.886	28621.73
607.082	28275.62
607.278	28822.43
607.474	28154.79
607.67	28232.61
607.866	27968.43
608.062	28031.91
608.257	28302.25
608.453	27935.66
608.649	28142.5
608.845	27450.29
609.041	27743.15
609.236	27837.36
609.432	27583.41
609.628	27694
609.824	27628.46
610.019	27421.62
610.215	27491.25
610.411	27341.75
610.606	27251.64
610.802	27517.87
610.998	27403.19
611.193	26944.44
611.389	27249.59
611.584	27095.99
611.78	27016.12
611.976	26817.47
612.171	26872.76
612.367	26637.25
612.562	26510.27
612.758	26143.69
612.953	26547.14
613.149	26966.97
613.344	26426.31
613.539	26807.23
613.735	26491.84
613.93	26293.19
614.126	26182.6
614.321	26631.1
614.517	26358.72
614.712	26203.08
614.907	25953.23
615.103	26002.38
615.298	25664.46
615.493	26153.93
615.688	25523.15
615.884	26377.15
616.079	25435.09
616.274	25834.44
616.47	25412.56
616.665	25717.71
616.86	25709.52
617.055	25494.48
617.25	25158.61
617.445	25541.58
617.641	25134.04
617.836	25351.12
618.031	24708.06
618.226	25486.29
618.421	24620
618.616	25144.28
618.811	24390.63
619.006	25000.92
619.201	24499.17
619.396	24789.98
619.591	24232.93
619.786	24779.74
619.981	23780.33
620.176	24325.09
620.371	23868.39
620.566	24036.33
620.761	24003.56
620.956	24003.56
621.151	23450.61
621.346	23739.37
621.541	23268.34
621.735	23731.18
621.93	23378.93
622.125	23217.14
622.32	22754.3
622.515	23030.77
622.709	22705.15
622.904	22494.21
623.099	22602.75
623.294	22604.8
623.488	22144
623.683	22246.4
623.878	22201.35
624.072	22023.17
624.267	22031.37
624.462	21675.02
624.656	21732.36
624.851	21793.8
625.046	21636.11
625.24	21249.04
625.435	21148.69
625.629	21527.56
625.824	20915.22
626.018	20689.95
626.213	20165.67
626.407	20778.01
626.602	20286.5
626.796	20550.68
626.991	20130.85
627.185	20128.8
627.38	19876.9
627.574	19874.85
627.768	20005.92
627.963	19743.78
628.157	19500.08
628.352	19538.99
628.546	19364.91
628.74	19330.09
628.935	19018.8
629.129	19270.7
629.323	18863.16
629.517	19072.05
629.712	18910.26
629.906	18662.46
630.1	18695.22
630.294	18738.23
630.489	18117.7
630.683	18574.39
630.877	18205.76
631.071	18000.96
631.265	18107.46
631.459	17753.16
631.653	17996.87
631.848	17976.39
632.042	17597.51
632.236	17810.5
632.43	17491.02
632.624	17443.92
632.818	17398.86
633.012	17144.91
633.206	17019.99
633.4	17265.74
633.594	16864.34
633.788	16841.81
633.982	16880.72
634.176	16725.08
634.369	16628.82
634.563	16804.95
634.757	16544.86
634.951	16845.91
635.145	16290.91
635.339	16301.15
635.533	16192.61
635.726	16249.95
635.92	15885.41
636.114	15826.02
636.308	16102.5
636.501	15807.59
636.695	15789.16
636.889	15537.26
637.083	15527.02
637.276	15357.03
637.47	15268.97
637.664	15383.66
637.857	15096.94
638.051	15142
638.244	14865.52
638.438	15127.66
638.632	14711.92
638.825	14787.7
639.019	14564.47
639.212	14709.88
639.406	14584.95
639.599	14570.61
639.793	14380.15
639.986	14509.18
640.18	14390.39
640.373	14292.09
640.567	14021.76
640.76	13970.56
640.954	13866.11
641.147	13892.74
641.34	13663.36
641.534	13771.91
641.727	13868.16
641.92	13411.46
642.114	13370.51
642.307	13540.49
642.5	13270.15
642.694	12928.14
642.887	13249.68
643.08	13241.48
643.273	13018.25
643.467	12930.19
643.66	12995.73
643.853	12747.92
644.046	12700.82
644.239	12704.92
644.432	12733.59
644.626	12455.06
644.819	12348.57
645.012	12240.03
645.205	12328.09
645.398	12278.94
645.591	12176.54
645.784	12280.99
645.977	11957.41
646.17	11799.71
646.363	11601.06
646.556	11740.32
646.749	11908.26
646.942	11715.75
647.135	11449.51
647.328	11588.77
647.521	11398.31
647.714	11306.15
647.907	11338.92
648.099	11336.87
648.292	11164.84
648.485	11144.36
648.678	11213.99
648.871	11123.88
649.064	10908.85
649.256	10931.37
649.449	10933.42
649.642	10675.38
649.835	10730.67
650.027	10702
650.22	10505.4
650.413	10658.99
650.605	10515.64
650.798	10603.7
650.991	10464.44
651.183	10300.6
651.376	10292.41
651.568	10333.37
651.761	10200.25
651.954	10097.85
652.146	10206.39
652.339	10263.74
652.531	9934.01
652.724	9929.92
652.916	9733.31
653.109	9979.07
653.301	9710.79
653.494	9870.53
653.686	9485.51
653.879	9788.61
654.071	9520.32
654.263	9712.83
654.456	9841.86
654.648	9600.19
654.84	9368.77
655.033	9282.76
655.225	9395.4
655.417	9188.55
655.61	9223.37
655.802	9381.06
655.994	9090.25
656.186	9356.49
656.379	9057.48
656.571	9092.3
656.763	8826.06
656.955	8797.39
657.148	8914.13
657.34	8877.26
657.532	8754.38
657.724	8850.64
657.916	8694.99
658.108	8498.39
658.3	8459.48
658.492	8594.64
658.684	8178.9
658.876	8484.05
659.068	8330.45
659.26	8344.79
659.452	8121.56
659.644	8244.44
659.836	8117.47
660.028	8226.01
660.22	8021.21
660.412	7947.48
660.604	8133.85
660.796	8015.07
660.988	8033.5
661.18	7830.75
661.372	7701.73
661.563	7933.15
661.755	7617.76
661.947	7724.26
662.139	7621.86
662.331	7705.82
662.522	7562.47
662.714	7593.19
662.906	7687.39
663.097	7505.12
663.289	7365.86
663.481	7441.64
663.673	7486.69
663.864	7343.33
664.056	7234.79
664.247	7148.78
664.439	6997.23
664.631	7214.31
664.822	7136.49
665.014	7214.31
665.205	7122.15
665.397	6980.84
665.588	6997.23
665.78	6952.17
665.971	6855.92
666.163	6919.4
666.354	6911.21
666.546	6886.64
666.737	6792.43
666.929	6745.33
667.12	6823.15
667.311	6720.75
667.503	6481.14
667.694	6683.89
667.885	6563.06
668.077	6597.87
668.268	6505.71
668.459	6558.96
668.651	6378.74
668.842	6501.62
669.033	6325.49
669.224	6434.04
669.416	6235.38
669.607	6315.25
669.798	6061.3
669.989	6366.45
670.18	6030.59
670.371	6102.26
670.563	6241.53
670.754	6241.53
670.945	6038.78
671.136	6106.36
671.327	6139.13
671.518	6034.68
671.709	5919.99
671.9	6003.96
672.091	5919.99
672.282	5891.32
672.473	5899.52
672.664	5938.43
672.855	5936.38
673.046	5737.73
673.237	5805.31
673.428	5883.13
673.619	5723.39
673.809	5702.91
674	5776.64
674.191	5551.36
674.382	5502.21
674.573	5612.8
674.764	5483.78
674.954	5631.23
675.145	5559.55
675.336	5569.79
675.527	5643.52
675.717	5522.69
675.908	5416.19
676.099	5563.65
676.289	5375.24
676.48	5577.98
676.671	5438.72
676.861	5508.35
677.052	5307.65
677.243	5334.28
677.433	5250.31
677.624	5481.73
677.814	5238.02
678.005	5424.39
678.195	5244.17
678.386	5188.87
678.576	5213.45
678.767	5401.86
678.957	5274.88
679.148	5377.28
679.338	5072.14
679.529	5180.68
679.719	5233.93
679.909	5201.16
680.1	5100.81
680.29	5004.55
680.481	5100.81
680.671	5006.6
680.861	5037.32
681.052	5072.14
681.242	4982.03
681.432	4994.31
681.622	4869.39
681.813	4920.59
682.003	5002.51
682.193	4881.67
682.383	4916.49
682.573	5004.55
682.764	4842.76
682.954	4898.06
683.144	4934.92
683.334	4810
683.524	4818.19
683.714	4885.77
683.904	4771.08
684.094	4988.17
684.284	4793.61
684.474	4607.25
684.664	4797.71
684.854	4877.58
685.044	4799.76
685.234	4648.21
685.424	4789.52
685.614	4578.58
685.804	4769.04
685.994	4822.28
686.184	4764.94
686.374	4547.86
686.564	4642.06
686.753	4719.89
686.943	4592.91
687.133	4695.31
687.323	4556.05
687.513	4500.75
687.702	4549.9
687.892	4568.34
688.082	4443.41
688.272	4449.55
688.461	4326.68
688.651	4465.94
688.841	4347.15
689.03	4316.44
689.22	4386.07
689.41	4312.34
689.599	4261.14
689.789	4386.07
689.979	4322.58
690.168	4367.63
690.358	4289.81
690.547	4214.04
690.737	4238.61
690.926	4244.76
691.116	4156.69
691.305	4168.98
691.495	4390.16
691.684	4216.09
691.874	4132.12
692.063	4267.28
692.252	4128.02
692.442	4162.84
692.631	4121.88
692.82	4058.39
693.01	4066.58
693.199	4132.12
693.388	4060.44
693.578	4097.3
693.767	4052.25
693.956	3999
694.146	3935.51
694.335	4044.06
694.524	4101.4
694.713	3945.75
694.902	4035.86
695.092	4005.14
695.281	3945.75
695.47	3876.12
695.659	3949.85
695.848	3951.9
696.037	3865.88
696.226	3943.71
696.415	3810.59
696.604	3867.93
696.793	3976.47
696.982	3765.53
697.171	3912.99
697.36	3919.13
697.549	3818.78
697.738	3730.72
697.927	3806.49
698.116	3820.83
698.305	3734.81
698.494	3695.9
698.683	3704.09
698.872	3738.91
699.061	3724.57
699.25	3691.81
699.438	3724.57
699.627	3800.35
699.816	3847.45
700.005	3693.85
700.193	3718.43
700.382	3609.89
700.571	3716.38
700.76	3726.62
700.948	3783.96
701.137	3656.99
701.326	3783.96
701.514	3538.21
701.703	3624.22
701.892	3607.84
702.08	3691.81
702.269	3626.27
702.457	3630.37
702.646	3632.41
702.834	3593.5
703.023	3597.6
703.212	3589.41
703.4	3618.08
703.589	3595.55
703.777	3513.63
703.965	3630.37
704.154	3435.81
704.342	3476.77
704.531	3562.78
704.719	3474.72
704.907	3587.36
705.096	3491.1
705.284	3452.19
705.472	3523.87
705.661	3564.83
705.849	3583.26
706.037	3444
706.226	3546.4
706.414	3292.45
706.602	3456.29
706.79	3439.9
706.979	3335.46
707.167	3380.51
707.355	3337.51
707.543	3421.47
707.731	3454.24
707.919	3392.8
708.107	3317.03
708.296	3333.41
708.484	3319.07
708.672	3466.53
708.86	3349.79
709.048	3407.14
709.236	3157.29
709.424	3312.93
709.612	3276.07
709.8	3304.74
709.988	3325.22
710.176	3220.77
710.364	3351.84
710.551	3288.36
710.739	3327.27
710.927	3317.03
711.115	3226.92
711.303	3177.76
711.491	3126.57
711.679	3120.42
711.866	3216.68
712.054	3239.2
712.242	3089.7
712.43	3120.42
712.617	3126.57
712.805	3099.94
712.993	3118.37
713.181	3222.82
713.368	3179.81
713.556	3145
713.744	3130.66
713.931	3091.75
714.119	3083.56
714.306	3214.63
714.494	3114.28
714.682	3001.64
714.869	3032.36
715.057	3108.13
715.244	3065.13
715.432	3026.22
715.619	3009.83
715.807	3015.98
715.994	3040.55
716.182	3034.41
716.369	3007.78
716.556	3042.6
716.744	2938.15
716.931	2975.02
717.119	3026.22
717.306	3114.28
717.493	3093.8
717.681	2919.72
717.868	2995.5
718.055	2876.71
718.242	2823.47
718.43	2938.15
718.617	2909.48
718.804	2850.09
718.991	2901.29
719.179	2915.62
719.366	2839.85
719.553	2948.39
719.74	2837.8
719.927	2837.8
720.114	2864.43
720.301	2821.42
720.488	2809.13
720.676	2876.71
720.863	2796.84
721.05	2850.09
721.237	2747.69
721.424	2907.43
721.611	2770.22
721.798	2864.43
721.985	2807.08
722.172	2604.33
722.358	2811.18
722.545	2768.17
722.732	2643.24
722.919	2768.17
723.106	2759.98
723.293	2772.27
723.48	2600.24
723.667	2651.44
723.853	2667.82
724.04	2737.45
724.227	2739.5
724.414	2684.2
724.6	2641.2
724.787	2692.4
724.974	2729.26
725.161	2598.19
725.347	2612.53
725.534	2682.16
725.72	2491.7
725.907	2635.05
726.094	2635.05
726.28	2524.46
726.467	2583.85
726.653	2616.62
726.84	2522.41
727.027	2598.19
727.213	2503.98
727.4	2469.17
727.586	2467.12
727.773	2499.89
727.959	2577.71
728.145	2467.12
728.332	2452.78
728.518	2442.54
728.705	2565.42
728.891	2549.04
729.077	2452.78
729.264	2436.4
729.45	2403.63
729.636	2528.56
729.823	2454.83
730.009	2553.13
730.195	2463.02
730.382	2493.74
730.568	2489.65
730.754	2495.79
730.94	2452.78
731.126	2397.49
731.313	2385.2
731.499	2391.34
731.685	2499.89
731.871	2417.97
732.057	2368.82
732.243	2399.54
732.429	2456.88
732.615	2393.39
732.801	2430.26
732.987	2276.66
733.173	2315.57
733.359	2434.35
733.545	2348.34
733.731	2256.18
733.917	2401.58
734.103	2381.1
734.289	2379.06
734.475	2274.61
734.661	2268.47
734.847	2440.5
735.033	2278.71
735.219	2295.09
735.404	2295.09
735.59	2227.51
735.776	2245.94
735.962	2227.51
736.148	2354.48
736.333	2219.32
736.519	2268.47
736.705	2223.41
736.89	2274.61
737.076	2323.76
737.262	2166.07
737.447	2204.98
737.633	2186.55
737.819	2157.88
738.004	2221.36
738.19	2213.17
738.375	2184.5
738.561	2260.27
738.747	2108.73
738.932	2135.35
739.118	2157.88
739.303	2102.58
739.489	2086.2
739.674	2075.96
739.859	1996.09
740.045	1973.56
740.23	2135.35
740.416	2022.71
740.601	2100.53
740.786	2069.81
740.972	2078.01
741.157	2022.71
741.342	2161.97
741.528	2114.87
741.713	2047.29
741.898	2086.2
742.084	1989.94
742.269	1895.74
742.454	1953.08
742.639	2090.29
742.824	1928.5
743.01	1930.55
743.195	2000.18
743.38	1918.26
743.565	1862.97
743.75	1928.5
743.935	1901.88
744.12	1860.92
744.305	1908.02
744.49	1912.12
744.675	1885.5
744.86	1991.99
745.045	1848.63
745.23	1760.57
745.415	1815.87
745.6	1916.22
745.785	1756.47
745.97	1842.49
746.155	1770.81
746.34	1830.2
746.525	1725.75
746.71	1842.49
746.895	1774.91
747.079	1666.36
747.264	1733.95
747.449	1760.57
747.634	1721.66
747.819	1735.99
748.003	1690.94
748.188	1738.04
748.373	1584.45
748.557	1682.75
748.742	1588.54
748.927	1707.32
749.111	1635.64
749.296	1676.6
749.481	1557.82
749.665	1578.3
749.85	1594.69
750.034	1547.58
750.219	1527.1
750.404	1570.11
750.588	1482.05
750.773	1533.25
750.957	1551.68
751.141	1441.09
751.326	1566.01
751.51	1512.77
751.695	1578.3
751.879	1496.38
752.064	1408.32
752.248	1508.67
752.432	1504.57
752.617	1369.41
752.801	1441.09
752.985	1295.68
753.17	1396.03
753.354	1480
753.538	1389.89
753.722	1412.42
753.907	1348.93
754.091	1350.98
754.275	1363.26
754.459	1320.26
754.643	1267.01
754.828	1363.26
755.012	1305.92
755.196	1314.11
755.38	1295.68
755.564	1228.1
755.748	1287.49
755.932	1226.05
756.116	1203.52
756.3	1250.63
756.484	1221.95
756.668	1264.96
756.852	1240.39
757.036	1146.18
757.22	1203.52
757.404	1113.41
757.588	1144.13
757.772	1150.28
757.956	1240.39
758.14	1170.76
758.323	1174.85
758.507	1187.14
758.691	1019.21
758.875	1135.94
759.059	1142.08
759.242	1156.42
759.426	1092.93
759.61	1131.84
759.794	1006.92
759.977	1125.7
760.161	1123.65
760.345	1072.45
760.528	1148.23
760.712	980.29
760.895	1011.01
761.079	1123.65
761.263	1047.88
761.446	1025.35
761.63	1037.64
761.813	1137.99
761.997	1152.32
762.18	978.25
762.364	994.63
762.547	1037.64
762.731	957.77
762.914	1041.73
763.098	1004.87
763.281	963.91
763.464	869.7
763.648	955.72
763.831	972.1
764.015	918.86
764.198	935.24
764.381	992.58
764.564	986.44
764.748	1008.97
764.931	943.43
765.114	914.76
765.297	1004.87
765.481	939.34
765.664	984.39
765.847	945.48
766.03	986.44
766.213	851.27
766.397	896.33
766.58	871.75
766.763	851.27
766.946	927.05
767.129	879.94
767.312	861.51
767.495	867.66
767.678	836.94
767.861	843.08
768.044	881.99
768.227	871.75
768.41	912.71
768.593	902.47
768.776	904.52
768.959	925
769.142	822.6
769.324	906.57
769.507	816.46
769.69	795.98
769.873	759.11
770.056	857.42
770.239	701.77
770.421	857.42
770.604	781.64
770.787	732.49
770.97	814.41
771.152	793.93
771.335	750.92
771.518	791.88
771.7	763.21
771.883	802.12
772.066	722.25
772.248	843.08
772.431	781.64
772.613	763.21
772.796	781.64
772.978	812.36
773.161	773.45
773.343	744.78
773.526	785.74
773.708	795.98
773.891	849.22
774.073	722.25
774.256	783.69
774.438	705.87
774.621	773.45
774.803	705.87
774.985	626
775.168	666.96
775.35	677.19
775.532	656.72
775.715	705.87
775.897	623.95
776.079	644.43
776.261	662.86
776.444	650.57
776.626	675.15
776.808	707.91
776.99	634.19
777.173	652.62
777.355	615.76
777.537	626
777.719	724.3
777.901	630.09
778.083	599.37
778.265	638.28
778.447	642.38
778.629	587.08
778.811	546.12
778.993	648.52
779.175	634.19
779.357	607.56
779.539	580.94
779.721	496.97
779.903	527.69
780.085	515.41
780.267	574.8
780.449	599.37
780.631	656.72
780.812	519.5
780.994	572.75
781.176	492.88
781.358	527.69
781.54	515.41
781.721	466.25
781.903	531.79
782.085	515.41
782.267	531.79
782.448	566.6
782.63	460.11
782.812	513.36
782.993	464.21
783.175	531.79
783.357	490.83
783.538	585.04
783.72	468.3
783.901	456.01
784.083	478.54
784.264	523.6
784.446	507.21
784.627	437.58
784.809	419.15
784.99	490.83
785.172	568.65
785.353	492.88
785.535	472.4
785.716	458.06
785.897	445.77
786.079	503.12
786.26	453.97
786.441	453.97
786.623	435.53
786.804	421.2
786.985	429.39
787.167	449.87
787.348	431.44
787.529	408.91
787.71	433.49
787.891	425.29
788.073	384.34
788.254	367.95
788.435	367.95
788.616	400.72
788.797	345.42
788.978	308.56
789.159	343.38
789.34	439.63
789.522	339.28
789.703	388.43
789.884	408.91
790.065	443.73
790.246	378.19
790.427	335.18
790.607	343.38
790.788	322.9
790.969	372.05
791.15	365.9
791.331	294.22
791.512	347.47
791.693	408.91
791.874	296.27
792.054	372.05
792.235	427.34
792.416	271.7
792.597	351.57
792.778	329.04
792.958	300.37
793.139	322.9
793.32	343.38
793.5	322.9
793.681	324.94
793.862	308.56
794.042	331.09
794.223	343.38
794.404	277.84
794.584	238.93
794.765	294.22
794.945	304.46
795.126	343.38
795.306	304.46
795.487	318.8
795.667	224.59
795.848	324.94
796.028	294.22
796.209	290.13
796.389	259.41
796.57	292.18
796.75	234.83
796.93	279.89
797.111	220.5
797.291	253.27
797.471	279.89
797.652	304.46
797.832	300.37
798.012	281.94
798.192	175.44
798.373	220.5
798.553	302.42
798.733	224.59
798.913	238.93
799.093	339.28
799.274	230.74
799.454	318.8
799.634	185.68
799.814	335.18
799.994	222.55
800.174	253.27
800.354	232.79
800.534	253.27
800.714	224.59
800.894	200.02
801.074	212.31
801.254	208.21
801.434	306.51
801.614	259.41
801.794	222.55
801.974	601.42
802.154	210.26
802.334	265.55
802.514	249.17
802.693	232.79
802.873	161.11
803.053	214.35
803.233	275.79
803.413	202.07
803.592	181.59
803.772	263.51
803.952	216.4
804.131	195.92
804.311	173.39
804.491	232.79
804.67	220.5
804.85	187.73
805.03	169.3
805.209	281.94
805.389	216.4
805.568	197.97
805.748	226.64
805.928	224.59
806.107	157.01
806.287	185.68
806.466	202.07
806.646	281.94
806.825	265.55
807.004	208.21
807.184	191.83
807.363	159.06
807.543	189.78
807.722	163.15
807.901	222.55
808.081	220.5
808.26	118.1
808.439	226.64
808.619	146.77
808.798	226.64
808.977	183.63
809.156	236.88
809.336	130.39
809.515	214.35
809.694	150.87
809.873	132.44
810.052	150.87
810.231	206.16
810.411	187.73
810.59	163.15
810.769	130.39
810.948	173.39
811.127	144.72
811.306	202.07
811.485	150.87
811.664	230.74
811.843	181.59
812.022	200.02
812.201	148.82
812.38	114
812.559	64.85
812.737	140.63
812.916	197.97
813.095	62.8
813.274	85.33
813.453	140.63
813.632	126.29
813.811	224.59
813.989	185.68
814.168	146.77
814.347	81.24
814.526	159.06
814.704	169.3
814.883	165.2
815.062	89.43
815.24	220.5
815.419	120.15
815.598	144.72
815.776	171.35
815.955	87.38
816.133	140.63
816.312	109.91
816.49	120.15
816.669	138.58
816.847	171.35
817.026	103.76
817.204	161.11
817.383	138.58
817.561	93.52
817.74	173.39
817.918	183.63
818.097	159.06
818.275	107.86
818.453	134.48
818.632	161.11
818.81	136.53
818.988	173.39
819.167	154.96
819.345	66.9
819.523	159.06
819.701	142.68
819.879	32.08
820.058	118.1
820.236	183.63
820.414	111.96
820.592	101.72
820.77	165.2
820.948	91.48
821.127	93.52
821.305	218.45
821.483	66.9
821.661	118.1
821.839	118.1
822.017	83.28
822.195	52.56
822.373	161.11
822.551	175.44
822.729	144.72
822.907	105.81
823.085	157.01
823.262	144.72
823.44	99.67
823.618	130.39
823.796	101.72
823.974	107.86
824.152	206.16
824.329	95.57
824.507	152.92
824.685	132.44
824.863	111.96
825.04	140.63
825.218	144.72
825.396	111.96
825.574	114
825.751	73.04
825.929	179.54
826.107	93.52
826.284	195.92
826.462	140.63
826.639	111.96
826.817	50.52
826.994	183.63
827.172	75.09
827.349	105.81
827.527	152.92
827.704	89.43
827.882	89.43
828.059	77.14
828.237	105.81
828.414	97.62
828.591	71
828.769	101.72
828.946	114
829.124	144.72
829.301	169.3
829.478	191.83
829.655	83.28
829.833	68.95
830.01	71
830.187	79.19
830.364	52.56
830.542	124.24
830.719	146.77
830.896	173.39
831.073	54.61
831.25	120.15
831.427	107.86
831.604	136.53
831.782	120.15
831.959	95.57
832.136	132.44
832.313	54.61
832.49	114
832.667	-17.07
832.844	56.66
833.021	75.09
833.198	97.62
833.374	107.86
833.551	122.2
833.728	48.47
833.905	132.44
834.082	89.43
834.259	50.52
834.436	99.67
834.612	93.52
834.789	122.2
834.966	132.44
835.143	105.81
835.319	56.66
835.496	87.38
835.673	36.18
835.85	48.47
836.026	71
836.203	83.28
836.38	68.95
836.556	87.38
836.733	93.52
836.909	116.05
837.086	60.76
837.262	3.41
837.439	52.56
837.616	44.37
837.792	50.52
837.968	77.14
838.145	81.24
838.321	111.96
838.498	30.04
838.674	71
838.851	140.63
839.027	40.28
839.203	109.91
839.38	103.76
839.556	128.34
839.732	97.62
839.909	71
840.085	146.77
840.261	46.42
840.437	3.41
840.614	44.37
840.79	93.52
840.966	42.32
841.142	58.71
841.318	25.94
841.494	105.81
841.671	134.48
841.847	60.76
842.023	1.37
842.199	25.94
842.375	81.24
842.551	62.8
842.727	38.23
842.903	97.62
843.079	54.61
843.255	91.48
843.431	66.9
843.607	62.8
843.783	71
843.959	124.24
844.134	87.38
844.31	144.72
844.486	71
844.662	19.8
844.838	87.38
845.013	66.9
845.189	163.15
845.365	66.9
845.541	32.08
845.716	75.09
845.892	95.57
846.068	56.66
846.244	-17.07
846.419	3.41
846.595	87.38
846.77	40.28
846.946	23.89
847.122	17.75
847.297	19.8
847.473	97.62
847.648	-15.02
847.824	130.39
847.999	95.57
848.175	91.48
848.35	77.14
848.526	36.18
848.701	32.08
848.876	75.09
849.052	40.28
849.227	44.37
849.403	19.8
849.578	40.28
849.753	62.8
849.929	-23.21
850.104	9.56
850.279	38.23
850.454	109.91
850.63	44.37
850.805	54.61
850.98	27.99
851.155	54.61
851.33	154.96
851.505	62.8
851.681	-33.45
851.856	32.08
852.031	75.09
852.206	114
852.381	68.95
852.556	103.76
852.731	19.8
852.906	15.7
853.081	75.09
853.256	46.42
853.431	32.08
853.606	48.47
853.781	27.99
853.956	42.32
854.131	23.89
854.305	85.33
854.48	48.47
854.655	13.65
854.83	62.8
855.005	-23.21
855.18	89.43
855.354	83.28
855.529	56.66
855.704	30.04
855.879	79.19
856.053	46.42
856.228	79.19
856.403	50.52
856.577	48.47
856.752	-31.4
856.926	44.37
857.101	62.8
857.276	-4.78
857.45	68.95
857.625	19.8
857.799	66.9
857.974	120.15
858.148	-25.26
858.323	46.42
858.497	99.67
858.672	34.13
858.846	-31.4
859.02	62.8
859.195	-29.35
859.369	52.56
859.543	66.9
859.718	25.94
859.892	56.66
860.066	91.48
860.241	-17.07
860.415	97.62
860.589	56.66
860.763	5.46
860.938	-0.68
861.112	83.28
861.286	40.28
861.46	42.32
861.634	50.52
861.808	25.94
861.982	120.15
862.157	-15.02
862.331	32.08
862.505	-41.64
862.679	52.56
862.853	25.94
863.027	23.89
863.201	48.47
863.375	3.41
863.549	83.28
863.722	60.76
863.896	56.66
864.07	-12.97
864.244	7.51
864.418	81.24
864.592	-12.97
864.766	50.52
864.939	27.99
865.113	-2.73
865.287	38.23
865.461	13.65
865.634	36.18
865.808	-12.97
865.982	-21.16
866.156	56.66
866.329	32.08
866.503	27.99
866.676	87.38
866.85	25.94
867.024	21.85
867.197	46.42
867.371	32.08
867.544	89.43
867.718	34.13
867.891	44.37
868.065	-8.87
868.238	19.8
868.412	27.99
868.585	-17.07
868.759	58.71
868.932	-29.35
869.105	34.13
869.279	-47.79
869.452	13.65
869.625	15.7
869.799	44.37
869.972	-41.64
870.145	-21.16
870.319	19.8
870.492	71
870.665	-2.73
870.838	-31.4
871.011	54.61
871.185	27.99
871.358	-0.68
871.531	136.53
871.704	64.85
871.877	54.61
872.05	34.13
872.223	-35.5
872.396	73.04
872.569	101.72
872.742	3.41
872.915	34.13
873.088	-23.21
873.261	54.61
873.434	54.61
873.607	44.37
873.78	50.52
873.953	75.09
874.126	83.28
874.299	40.28
874.471	46.42
874.644	97.62
874.817	97.62
874.99	34.13
875.163	40.28
875.335	27.99
875.508	-27.31
875.681	38.23
875.853	17.75
876.026	7.51
876.199	38.23
876.371	11.61
876.544	25.94
876.717	38.23
876.889	-12.97
877.062	32.08
877.234	9.56
877.407	48.47
877.579	32.08
877.752	17.75
877.924	60.76
878.097	60.76
878.269	64.85
878.442	85.33
878.614	30.04
878.786	-17.07
878.959	54.61
879.131	52.56
879.303	-15.02
879.476	13.65
879.648	73.04
879.82	54.61
879.993	-12.97
880.165	25.94
880.337	-8.87
880.509	77.14
880.681	34.13
880.854	34.13
881.026	81.24
881.198	44.37
881.37	-12.97
881.542	27.99
881.714	7.51
881.886	99.67
882.058	-35.5
882.23	71
882.402	-51.88
882.574	52.56
882.746	25.94
882.918	52.56
883.09	64.85
883.262	-49.83
883.434	27.99
883.606	38.23
883.778	44.37
883.95	-23.21
884.122	66.9
884.293	36.18
884.465	30.04
884.637	7.51
884.809	32.08
884.98	-0.68
885.152	71
885.324	52.56
885.496	19.8
885.667	15.7
885.839	11.61
886.011	111.96
886.182	-0.68
886.354	9.56
886.525	32.08
886.697	40.28
886.869	36.18
887.04	-47.79
887.212	93.52
887.383	40.28
887.555	15.7
887.726	73.04
887.897	-4.78
888.069	-10.92
888.24	15.7
888.412	-27.31
888.583	27.99
888.754	46.42
888.926	-4.78
889.097	60.76
889.268	38.23
889.44	9.56
889.611	-6.83
889.782	62.8
889.953	32.08
890.125	44.37
890.296	-4.78
890.467	-17.07
890.638	-4.78
890.809	11.61
890.98	-8.87
891.151	1.37
891.323	44.37
891.494	83.28
891.665	-35.5
891.836	52.56
892.007	56.66
892.178	91.48
892.349	-2.73
892.52	-6.83
892.691	52.56
892.862	44.37
893.032	-12.97
893.203	-8.87
893.374	89.43
893.545	60.76
893.716	23.89
893.887	42.32
894.057	-21.16
894.228	44.37
894.399	13.65
894.57	25.94
894.74	60.76
894.911	-6.83
895.082	-0.68
895.253	44.37
895.423	-21.16
895.594	11.61
895.764	46.42
895.935	11.61
896.106	9.56
896.276	-23.21
896.447	-6.83
896.617	32.08
896.788	21.85
896.958	36.18
897.129	66.9
897.299	25.94
897.47	-41.64
897.64	38.23
897.81	13.65
897.981	60.76
898.151	17.75
898.322	71
898.492	23.89
898.662	23.89
898.832	-49.83
899.003	87.38
899.173	15.7
899.343	27.99
899.513	13.65
