Data from USB4F104151__75__12-36-49-573.txt Node

Date: Fri Mar 14 12:36:49 EDT 2025
User: louis
Spectrometer: USB4F10415
Trigger mode: 4
Integration Time (sec): 2.000000E-2
Scans to average: 1
Electric dark correction enabled: true
Nonlinearity correction enabled: false
Boxcar width: 0
XAxis mode: Wavelengths
Number of Pixels in Spectrum: 3648
>>>>>Begin Spectral Data<<<<<
178.204	-146.77
178.424	-146.77
178.644	-146.77
178.864	-91.48
179.084	-62.8
179.304	-52.56
179.524	53.93
179.744	-66.9
179.964	109.22
180.184	-32.08
180.404	10.92
180.624	31.4
180.844	-46.42
181.064	-32.08
181.283	-13.65
181.503	19.11
181.723	19.11
181.943	-17.75
182.163	23.21
182.383	-9.56
182.602	92.84
182.822	60.07
183.042	12.97
183.262	-32.08
183.482	-34.13
183.701	19.11
183.921	17.07
184.141	4.78
184.361	60.07
184.58	19.11
184.8	70.31
185.02	-9.56
185.239	86.7
185.459	4.78
185.679	10.92
185.898	-58.71
186.118	37.55
186.338	19.11
186.557	19.11
186.777	-21.85
186.997	-3.41
187.216	27.31
187.436	55.98
187.655	17.07
187.875	-23.89
188.095	-42.32
188.314	76.46
188.534	68.27
188.753	53.93
188.973	45.74
189.192	45.74
189.412	0.68
189.631	60.07
189.851	-5.46
190.07	92.84
190.29	27.31
190.509	-52.56
190.729	21.16
190.948	6.83
191.168	76.46
191.387	37.55
191.607	-83.28
191.826	68.27
192.045	25.26
192.265	0.68
192.484	21.16
192.704	-34.13
192.923	-54.61
193.142	45.74
193.362	21.16
193.581	62.12
193.8	-13.65
194.02	37.55
194.239	31.4
194.458	-21.85
194.678	-1.37
194.897	-91.48
195.116	8.87
195.335	25.26
195.555	4.78
195.774	53.93
195.993	25.26
196.212	-1.37
196.432	-60.76
196.651	-7.51
196.87	-1.37
197.089	103.08
197.308	10.92
197.528	37.55
197.747	-9.56
197.966	19.11
198.185	49.83
198.404	31.4
198.623	53.93
198.842	12.97
199.062	49.83
199.281	-54.61
199.5	-36.18
199.719	33.45
199.938	-9.56
200.157	17.07
200.376	23.21
200.595	51.88
200.814	-15.7
201.033	-3.41
201.252	-46.42
201.471	19.11
201.69	15.02
201.909	-23.89
202.128	21.16
202.347	-30.04
202.566	-5.46
202.785	0.68
203.004	4.78
203.223	33.45
203.442	98.99
203.661	-13.65
203.879	12.97
204.098	35.5
204.317	8.87
204.536	27.31
204.755	66.22
204.974	15.02
205.193	80.55
205.411	144.04
205.63	43.69
205.849	39.59
206.068	45.74
206.287	43.69
206.505	33.45
206.724	2.73
206.943	35.5
207.162	-13.65
207.381	47.79
207.599	-46.42
207.818	107.18
208.037	-9.56
208.255	6.83
208.474	37.55
208.693	8.87
208.911	-7.51
209.13	49.83
209.349	90.79
209.567	-36.18
209.786	55.98
210.005	41.64
210.223	70.31
210.442	-46.42
210.661	41.64
210.879	25.26
211.098	-11.61
211.316	31.4
211.535	55.98
211.753	-15.7
211.972	23.21
212.191	-54.61
212.409	2.73
212.628	-23.89
212.846	47.79
213.065	-17.75
213.283	107.18
213.502	-17.75
213.72	62.12
213.938	17.07
214.157	27.31
214.375	-17.75
214.594	-34.13
214.812	80.55
215.031	12.97
215.249	41.64
215.467	8.87
215.686	15.02
215.904	86.7
216.122	19.11
216.341	39.59
216.559	31.4
216.778	78.51
216.996	62.12
217.214	-38.23
217.432	88.75
217.651	31.4
217.869	-7.51
218.087	-23.89
218.306	4.78
218.524	21.16
218.742	15.02
218.96	39.59
219.179	62.12
219.397	41.64
219.615	51.88
219.833	27.31
220.051	19.11
220.27	62.12
220.488	76.46
220.706	58.03
220.924	-50.52
221.142	76.46
221.36	41.64
221.578	90.79
221.796	23.21
222.015	37.55
222.233	58.03
222.451	23.21
222.669	15.02
222.887	49.83
223.105	-19.8
223.323	49.83
223.541	29.35
223.759	2.73
223.977	-11.61
224.195	80.55
224.413	64.17
224.631	82.6
224.849	-5.46
225.067	115.37
225.285	33.45
225.503	6.83
225.721	-128.34
225.939	17.07
226.157	72.36
226.375	0.68
226.592	-30.04
226.81	109.22
227.028	72.36
227.246	72.36
227.464	-15.7
227.682	70.31
227.9	31.4
228.117	113.32
228.335	74.41
228.553	-13.65
228.771	47.79
228.989	2.73
229.206	37.55
229.424	-1.37
229.642	-36.18
229.86	17.07
230.077	-11.61
230.295	-5.46
230.513	80.55
230.731	35.5
230.948	51.88
231.166	37.55
231.384	47.79
231.601	80.55
231.819	62.12
232.037	-11.61
232.254	19.11
232.472	35.5
232.689	4.78
232.907	-54.61
233.125	55.98
233.342	70.31
233.56	27.31
233.777	19.11
233.995	-62.8
234.213	76.46
234.43	68.27
234.648	103.08
234.865	31.4
235.083	-7.51
235.3	23.21
235.518	31.4
235.735	64.17
235.953	15.02
236.17	-13.65
236.388	2.73
236.605	76.46
236.822	23.21
237.04	12.97
237.257	8.87
237.475	8.87
237.692	107.18
237.909	27.31
238.127	17.07
238.344	66.22
238.562	55.98
238.779	-23.89
238.996	6.83
239.214	66.22
239.431	74.41
239.648	55.98
239.865	6.83
240.083	21.16
240.3	78.51
240.517	6.83
240.735	62.12
240.952	45.74
241.169	49.83
241.386	72.36
241.603	58.03
241.821	78.51
242.038	-5.46
242.255	62.12
242.472	-38.23
242.689	-25.94
242.907	-38.23
243.124	-9.56
243.341	2.73
243.558	8.87
243.775	-50.52
243.992	31.4
244.209	68.27
244.426	74.41
244.643	39.59
244.86	82.6
245.078	43.69
245.295	62.12
245.512	19.11
245.729	58.03
245.946	17.07
246.163	68.27
246.38	37.55
246.597	19.11
246.814	29.35
247.031	21.16
247.248	27.31
247.464	-48.47
247.681	78.51
247.898	-15.7
248.115	64.17
248.332	29.35
248.549	45.74
248.766	39.59
248.983	109.22
249.2	19.11
249.417	47.79
249.633	15.02
249.85	78.51
250.067	49.83
250.284	12.97
250.501	31.4
250.717	96.94
250.934	-101.72
251.151	21.16
251.368	-54.61
251.585	-7.51
251.801	86.7
252.018	-11.61
252.235	17.07
252.451	-40.28
252.668	21.16
252.885	51.88
253.102	45.74
253.318	82.6
253.535	8.87
253.752	55.98
253.968	-21.85
254.185	86.7
254.401	45.74
254.618	78.51
254.835	82.6
255.051	53.93
255.268	49.83
255.484	-60.76
255.701	39.59
255.917	90.79
256.134	-21.85
256.351	53.93
256.567	49.83
256.784	76.46
257	27.31
257.217	-17.75
257.433	-17.75
257.65	-17.75
257.866	-23.89
258.082	-62.8
258.299	21.16
258.515	41.64
258.732	-27.99
258.948	-19.8
259.165	19.11
259.381	-9.56
259.597	64.17
259.814	2.73
260.03	25.26
260.246	39.59
260.463	90.79
260.679	58.03
260.895	78.51
261.112	0.68
261.328	82.6
261.544	78.51
261.761	10.92
261.977	101.03
262.193	-19.8
262.409	51.88
262.626	-13.65
262.842	-1.37
263.058	6.83
263.274	51.88
263.49	70.31
263.707	25.26
263.923	72.36
264.139	37.55
264.355	-25.94
264.571	41.64
264.787	74.41
265.004	60.07
265.22	-19.8
265.436	-21.85
265.652	-46.42
265.868	-19.8
266.084	88.75
266.3	-66.9
266.516	-62.8
266.732	12.97
266.948	33.45
267.164	51.88
267.38	27.31
267.596	47.79
267.812	49.83
268.028	-54.61
268.244	6.83
268.46	41.64
268.676	-3.41
268.892	62.12
269.108	43.69
269.324	15.02
269.54	19.11
269.756	72.36
269.972	49.83
270.188	2.73
270.403	29.35
270.619	49.83
270.835	49.83
271.051	49.83
271.267	-32.08
271.483	62.12
271.698	-36.18
271.914	53.93
272.13	-19.8
272.346	-23.89
272.562	-7.51
272.777	17.07
272.993	-3.41
273.209	-23.89
273.425	45.74
273.64	-15.7
273.856	-3.41
274.072	-15.7
274.287	43.69
274.503	-27.99
274.719	43.69
274.934	-1.37
275.15	21.16
275.366	27.31
275.581	-13.65
275.797	-19.8
276.012	58.03
276.228	-13.65
276.444	43.69
276.659	80.55
276.875	21.16
277.09	33.45
277.306	60.07
277.521	41.64
277.737	4.78
277.952	27.31
278.168	76.46
278.383	43.69
278.599	0.68
278.814	21.16
279.03	27.31
279.245	8.87
279.461	41.64
279.676	15.02
279.892	-21.85
280.107	6.83
280.322	-3.41
280.538	4.78
280.753	-64.85
280.969	29.35
281.184	-5.46
281.399	43.69
281.615	74.41
281.83	-15.7
282.045	23.21
282.26	72.36
282.476	0.68
282.691	27.31
282.906	2.73
283.122	-13.65
283.337	6.83
283.552	35.5
283.767	84.65
283.983	55.98
284.198	41.64
284.413	37.55
284.628	68.27
284.843	55.98
285.058	94.89
285.274	60.07
285.489	62.12
285.704	64.17
285.919	90.79
286.134	33.45
286.349	-66.9
286.564	-17.75
286.779	90.79
286.995	33.45
287.21	39.59
287.425	43.69
287.64	55.98
287.855	58.03
288.07	45.74
288.285	62.12
288.5	51.88
288.715	62.12
288.93	-3.41
289.145	31.4
289.36	8.87
289.575	10.92
289.79	80.55
290.004	21.16
290.219	45.74
290.434	6.83
290.649	45.74
290.864	33.45
291.079	15.02
291.294	37.55
291.509	51.88
291.724	76.46
291.938	68.27
292.153	68.27
292.368	-48.47
292.583	64.17
292.798	53.93
293.012	-5.46
293.227	47.79
293.442	72.36
293.657	-30.04
293.871	-30.04
294.086	-25.94
294.301	39.59
294.516	49.83
294.73	86.7
294.945	-1.37
295.16	-62.8
295.374	33.45
295.589	90.79
295.804	10.92
296.018	35.5
296.233	84.65
296.447	41.64
296.662	25.26
296.877	45.74
297.091	58.03
297.306	10.92
297.52	-25.94
297.735	80.55
297.949	-21.85
298.164	6.83
298.378	-66.9
298.593	-19.8
298.807	98.99
299.022	88.75
299.236	105.13
299.451	23.21
299.665	43.69
299.88	82.6
300.094	72.36
300.309	-15.7
300.523	-3.41
300.737	8.87
300.952	-40.28
301.166	76.46
301.381	6.83
301.595	62.12
301.809	82.6
302.024	4.78
302.238	10.92
302.452	123.56
302.667	8.87
302.881	58.03
303.095	80.55
303.309	74.41
303.524	19.11
303.738	115.37
303.952	-3.41
304.166	2.73
304.381	-19.8
304.595	10.92
304.809	23.21
305.023	17.07
305.237	21.16
305.452	0.68
305.666	84.65
305.88	68.27
306.094	-11.61
306.308	37.55
306.522	80.55
306.736	117.42
306.95	25.26
307.164	41.64
307.379	8.87
307.593	127.66
307.807	27.31
308.021	-3.41
308.235	10.92
308.449	-21.85
308.663	37.55
308.877	72.36
309.091	17.07
309.305	45.74
309.519	-62.8
309.733	29.35
309.947	29.35
310.161	33.45
310.374	98.99
310.588	68.27
310.802	39.59
311.016	105.13
311.23	58.03
311.444	23.21
311.658	98.99
311.872	51.88
312.085	-60.76
312.299	23.21
312.513	84.65
312.727	27.31
312.941	43.69
313.154	55.98
313.368	45.74
313.582	78.51
313.796	21.16
314.009	8.87
314.223	39.59
314.437	68.27
314.651	-11.61
314.864	39.59
315.078	66.22
315.292	35.5
315.505	-23.89
315.719	117.42
315.933	58.03
316.146	41.64
316.36	58.03
316.573	82.6
316.787	35.5
317.001	25.26
317.214	8.87
317.428	43.69
317.641	29.35
317.855	39.59
318.068	60.07
318.282	17.07
318.495	-21.85
318.709	15.02
318.922	-5.46
319.136	76.46
319.349	4.78
319.563	27.31
319.776	62.12
319.99	0.68
320.203	86.7
320.417	74.41
320.63	-11.61
320.843	86.7
321.057	4.78
321.27	31.4
321.483	72.36
321.697	33.45
321.91	21.16
322.124	29.35
322.337	27.31
322.55	-13.65
322.763	90.79
322.977	137.9
323.19	45.74
323.403	49.83
323.617	53.93
323.83	113.32
324.043	15.02
324.256	2.73
324.469	27.31
324.683	27.31
324.896	27.31
325.109	90.79
325.322	41.64
325.535	-5.46
325.748	76.46
325.962	10.92
326.175	53.93
326.388	51.88
326.601	125.61
326.814	55.98
327.027	27.31
327.24	94.89
327.453	-44.37
327.666	31.4
327.879	47.79
328.092	21.16
328.305	29.35
328.518	21.16
328.731	45.74
328.944	74.41
329.157	49.83
329.37	12.97
329.583	-5.46
329.796	49.83
330.009	45.74
330.222	70.31
330.435	31.4
330.648	55.98
330.861	8.87
331.073	78.51
331.286	101.03
331.499	58.03
331.712	10.92
331.925	27.31
332.138	45.74
332.35	31.4
332.563	-87.38
332.776	41.64
332.989	49.83
333.202	2.73
333.414	70.31
333.627	96.94
333.84	4.78
334.053	45.74
334.265	43.69
334.478	23.21
334.691	17.07
334.903	31.4
335.116	62.12
335.329	15.02
335.541	25.26
335.754	117.42
335.966	43.69
336.179	29.35
336.392	45.74
336.604	82.6
336.817	64.17
337.029	39.59
337.242	12.97
337.454	62.12
337.667	-46.42
337.88	51.88
338.092	-3.41
338.305	64.17
338.517	86.7
338.729	123.56
338.942	101.03
339.154	-15.7
339.367	53.93
339.579	82.6
339.792	25.26
340.004	107.18
340.217	33.45
340.429	4.78
340.641	53.93
340.854	-21.85
341.066	98.99
341.278	45.74
341.491	51.88
341.703	55.98
341.915	35.5
342.128	84.65
342.34	72.36
342.552	-17.75
342.764	-1.37
342.977	-9.56
343.189	53.93
343.401	25.26
343.613	27.31
343.826	37.55
344.038	25.26
344.25	98.99
344.462	49.83
344.674	45.74
344.886	-1.37
345.099	111.27
345.311	45.74
345.523	-50.52
345.735	4.78
345.947	58.03
346.159	12.97
346.371	39.59
346.583	58.03
346.795	90.79
347.007	53.93
347.219	101.03
347.431	101.03
347.643	55.98
347.855	45.74
348.067	43.69
348.279	51.88
348.491	31.4
348.703	-7.51
348.915	4.78
349.127	60.07
349.339	25.26
349.551	33.45
349.763	127.66
349.975	-7.51
350.187	58.03
350.399	74.41
350.61	41.64
350.822	-5.46
351.034	39.59
351.246	51.88
351.458	62.12
351.669	33.45
351.881	101.03
352.093	74.41
352.305	37.55
352.517	19.11
352.728	92.84
352.94	72.36
353.152	96.94
353.363	25.26
353.575	60.07
353.787	119.46
353.999	62.12
354.21	27.31
354.422	45.74
354.633	107.18
354.845	62.12
355.057	72.36
355.268	4.78
355.48	-30.04
355.692	62.12
355.903	21.16
356.115	55.98
356.326	6.83
356.538	76.46
356.749	19.11
356.961	58.03
357.172	111.27
357.384	51.88
357.595	8.87
357.807	17.07
358.018	68.27
358.23	94.89
358.441	88.75
358.653	21.16
358.864	62.12
359.075	37.55
359.287	82.6
359.498	70.31
359.709	113.32
359.921	-1.37
360.132	45.74
360.344	82.6
360.555	45.74
360.766	76.46
360.977	64.17
361.189	4.78
361.4	68.27
361.611	113.32
361.823	62.12
362.034	66.22
362.245	-34.13
362.456	66.22
362.667	8.87
362.879	-36.18
363.09	6.83
363.301	60.07
363.512	33.45
363.723	4.78
363.935	41.64
364.146	43.69
364.357	92.84
364.568	72.36
364.779	2.73
364.99	98.99
365.201	27.31
365.412	133.8
365.623	-13.65
365.834	27.31
366.045	33.45
366.256	98.99
366.467	121.51
366.678	-19.8
366.889	103.08
367.1	25.26
367.311	31.4
367.522	129.7
367.733	49.83
367.944	43.69
368.155	-3.41
368.366	80.55
368.577	103.08
368.788	27.31
368.999	45.74
369.209	-36.18
369.42	72.36
369.631	76.46
369.842	105.13
370.053	66.22
370.264	21.16
370.474	43.69
370.685	68.27
370.896	31.4
371.107	84.65
371.317	76.46
371.528	4.78
371.739	76.46
371.95	25.26
372.16	72.36
372.371	70.31
372.582	82.6
372.792	119.46
373.003	82.6
373.214	115.37
373.424	15.02
373.635	55.98
373.846	2.73
374.056	86.7
374.267	35.5
374.477	31.4
374.688	70.31
374.898	88.75
375.109	51.88
375.319	45.74
375.53	127.66
375.74	10.92
375.951	-5.46
376.161	76.46
376.372	41.64
376.582	-5.46
376.793	119.46
377.003	68.27
377.214	60.07
377.424	84.65
377.635	62.12
377.845	-7.51
378.055	74.41
378.266	4.78
378.476	35.5
378.686	12.97
378.897	64.17
379.107	47.79
379.317	47.79
379.528	39.59
379.738	84.65
379.948	45.74
380.158	68.27
380.369	86.7
380.579	101.03
380.789	33.45
380.999	76.46
381.21	-15.7
381.42	12.97
381.63	25.26
381.84	55.98
382.05	78.51
382.261	103.08
382.471	-7.51
382.681	37.55
382.891	107.18
383.101	86.7
383.311	90.79
383.521	78.51
383.731	25.26
383.941	86.7
384.151	-9.56
384.361	68.27
384.571	23.21
384.781	-9.56
384.991	66.22
385.201	127.66
385.411	78.51
385.621	64.17
385.831	62.12
386.041	27.31
386.251	6.83
386.461	68.27
386.671	96.94
386.881	70.31
387.091	29.35
387.301	123.56
387.511	92.84
387.72	41.64
387.93	41.64
388.14	21.16
388.35	127.66
388.56	68.27
388.769	119.46
388.979	96.94
389.189	60.07
389.399	55.98
389.609	86.7
389.818	146.09
390.028	23.21
390.238	70.31
390.447	66.22
390.657	107.18
390.867	88.75
391.076	37.55
391.286	90.79
391.496	119.46
391.705	29.35
391.915	62.12
392.125	144.04
392.334	39.59
392.544	6.83
392.753	72.36
392.963	33.45
393.172	111.27
393.382	37.55
393.591	53.93
393.801	64.17
394.01	105.13
394.22	84.65
394.429	98.99
394.639	60.07
394.848	86.7
395.058	144.04
395.267	51.88
395.477	105.13
395.686	135.85
395.895	115.37
396.105	139.94
396.314	90.79
396.524	135.85
396.733	180.9
396.942	10.92
397.152	131.75
397.361	133.8
397.57	174.76
397.78	49.83
397.989	174.76
398.198	107.18
398.407	58.03
398.617	174.76
398.826	164.52
399.035	68.27
399.244	187.05
399.453	131.75
399.663	101.03
399.872	166.57
400.081	72.36
400.29	248.49
400.499	43.69
400.708	127.66
400.917	111.27
401.127	119.46
401.336	129.7
401.545	158.38
401.754	86.7
401.963	174.76
402.172	98.99
402.381	135.85
402.59	123.56
402.799	144.04
403.008	174.76
403.217	133.8
403.426	195.24
403.635	166.57
403.844	141.99
404.053	170.66
404.262	152.23
404.471	256.68
404.68	133.8
404.888	191.14
405.097	164.52
405.306	223.91
405.515	172.71
405.724	205.48
405.933	260.77
406.142	303.78
406.35	176.81
406.559	133.8
406.768	199.34
406.977	275.11
407.185	211.62
407.394	275.11
407.603	254.63
407.812	250.53
408.02	266.92
408.229	316.07
408.438	316.07
408.646	260.77
408.855	342.69
409.064	248.49
409.272	344.74
409.481	361.13
409.69	420.52
409.898	430.76
410.107	354.98
410.315	420.52
410.524	354.98
410.733	359.08
410.941	422.56
411.15	475.81
411.358	438.95
411.567	504.48
411.775	533.15
411.984	567.97
412.192	529.06
412.401	592.55
412.609	610.98
412.818	545.44
413.026	529.06
413.234	692.9
413.443	705.18
413.651	641.7
413.86	740
414.068	801.44
414.276	811.68
414.485	801.44
414.693	748.19
414.901	899.74
415.11	905.88
415.318	869.02
415.526	938.65
415.734	1034.91
415.943	998.04
416.151	991.9
416.359	1079.96
416.567	1061.53
416.776	1036.95
416.984	1163.93
417.192	1225.37
417.4	1348.25
417.608	1221.27
417.817	1333.91
418.025	1452.69
418.233	1338.01
418.441	1446.55
418.649	1505.94
418.857	1544.85
419.065	1583.76
419.273	1559.19
419.481	1725.07
419.689	1745.55
419.897	1841.81
420.105	1989.26
420.313	1913.49
420.521	2085.51
420.729	2069.13
420.937	2046.6
421.145	2208.39
421.353	2310.79
421.561	2466.44
421.769	2478.72
421.977	2632.32
422.185	2568.84
422.393	2755.2
422.601	2939.52
422.809	2904.7
423.017	2919.04
423.224	3086.97
423.432	3095.16
423.64	3267.19
423.848	3428.98
424.056	3287.67
424.263	3703.41
424.471	3549.81
424.679	3609.2
424.887	3887.73
425.094	4010.61
425.302	3986.03
425.51	4217.45
425.718	4309.61
425.925	4366.95
426.133	4354.66
426.341	4766.31
426.548	4901.47
426.756	4977.25
426.964	4887.14
427.171	5464.66
427.379	5440.09
427.586	5601.88
427.794	5732.95
428.001	6013.52
428.209	6326.86
428.417	6042.19
428.624	6572.61
428.832	6621.77
429.039	6558.28
429.247	6416.97
429.454	7084.61
429.662	7600.69
429.869	7166.53
430.076	7709.24
430.284	7371.32
430.491	7707.19
430.699	8299.05
430.906	8184.37
431.114	8241.71
431.321	8636.97
431.528	8800.8
431.736	9429.53
431.943	9779.73
432.15	9634.33
432.358	9607.7
432.565	10252.81
432.772	10248.72
432.979	10562.06
433.187	10906.12
433.394	11024.9
433.601	11661.82
433.808	11477.5
434.016	11561.47
434.223	12161.52
434.43	12794.34
434.637	12481
434.844	13394.4
435.052	13605.34
435.259	13490.65
435.466	13478.36
435.673	13550.04
435.88	14344.66
436.087	15157.7
436.294	15038.92
436.501	14717.39
436.708	15088.07
436.915	15798.71
437.122	16331.19
437.329	16341.43
437.537	16826.79
437.743	16972.2
437.95	17000.87
438.157	18016.66
438.364	18575.76
438.571	18196.89
438.778	18678.16
438.985	20470.13
439.192	19528.06
439.399	20105.59
439.606	19382.66
439.813	20779.37
440.02	21930.33
440.227	21584.23
440.433	21533.03
440.64	22147.42
440.847	21950.81
441.054	22372.69
441.261	23947.58
441.467	23705.92
441.674	24328.5
441.881	24992.05
442.088	24899.89
442.294	25086.25
442.501	25323.82
442.708	26237.21
442.914	27189.52
443.121	27820.29
443.328	27521.29
443.534	29389.03
443.741	28344.57
443.948	28373.24
444.154	30419.16
444.361	29714.66
444.568	30161.12
444.774	29974.75
444.981	30660.82
445.187	31301.84
445.394	32762.04
445.6	32237.76
445.807	35121.3
446.013	34027.68
446.22	34646.17
446.426	35571.85
446.633	35995.78
446.839	37644.4
447.046	36165.76
447.252	37953.64
447.459	38006.89
447.665	37636.2
447.871	39264.34
448.078	41127.99
448.284	39047.25
448.491	40028.23
448.697	41742.38
448.903	42313.76
449.11	42903.58
449.316	42027.05
449.522	43329.56
449.728	43640.85
449.935	43964.43
450.141	43964.43
450.347	45189.11
450.553	43816.97
450.76	44361.73
450.966	45787.12
451.172	45383.67
451.378	46755.81
451.584	45641.71
451.791	46467.05
451.997	46268.39
452.203	47370.2
452.409	47159.26
452.615	46890.98
452.821	45373.43
453.027	45094.91
453.233	47572.95
453.44	45664.24
453.646	46114.79
453.852	46327.78
454.058	46723.04
454.264	45543.41
454.47	46778.34
454.676	45623.28
454.882	46712.8
455.088	43309.08
455.294	43431.96
455.5	44017.67
455.705	44505.09
455.911	43333.65
456.117	42627.1
456.323	41515.06
456.529	39413.84
456.735	41486.39
456.941	40327.24
457.147	39602.25
457.352	38357.09
457.558	38074.47
457.764	38004.84
457.97	37382.26
458.176	36415.61
458.381	36247.68
458.587	34648.22
458.793	34762.9
458.999	33200.3
459.204	35328.14
459.41	34138.27
459.616	32274.62
459.821	32327.87
460.027	32209.09
460.233	31731.91
460.438	29800.68
460.644	30021.86
460.85	28920.05
461.055	28477.69
461.261	28553.46
461.466	26349.85
461.672	25510.18
461.878	27154.7
462.083	25428.26
462.289	24740.15
462.494	24670.51
462.7	23501.12
462.905	23136.59
463.111	23656.77
463.316	23861.57
463.522	23525.7
463.727	23447.88
463.932	23460.16
464.138	23218.5
464.343	23138.63
464.549	22374.74
464.754	22825.29
464.959	22909.26
465.165	22800.72
465.37	21967.2
465.575	21246.31
465.781	22274.39
465.986	22223.19
466.191	21705.06
466.397	20883.82
466.602	20347.25
466.807	20783.47
467.012	21174.63
467.218	20580.72
467.423	20633.97
467.628	20769.13
467.833	21410.15
468.038	20564.34
468.244	19966.33
468.449	21074.28
468.654	20230.52
468.859	20089.21
469.064	19966.33
469.269	19118.47
469.474	19419.52
469.679	19808.64
469.885	19204.49
470.09	19536.26
470.295	19462.53
470.5	18764.17
470.705	18678.16
470.91	18518.42
471.115	18063.77
471.32	18669.97
471.525	18547.09
471.73	17914.27
471.935	17981.85
472.139	17672.6
472.344	17764.76
472.549	17449.38
472.754	17414.56
472.959	17250.72
473.164	16595.37
473.369	16665
473.574	17078.69
473.778	16925.1
473.983	16619.95
474.188	16517.55
474.393	15829.43
474.598	15825.34
474.802	15722.94
475.007	15706.55
475.212	15624.64
475.417	14961.09
475.621	14991.81
475.826	15036.87
476.031	15049.16
476.235	14643.66
476.44	14653.9
476.645	14471.63
476.849	14576.08
477.054	14442.96
477.259	14084.56
477.463	14166.48
477.668	13963.73
477.872	14129.62
478.077	13597.15
478.282	13205.99
478.486	13246.94
478.691	13193.7
478.895	13330.91
479.1	13128.16
479.304	13283.81
479.509	12732.9
479.713	12933.61
479.918	12704.23
480.122	12472.81
480.326	12837.35
480.531	12679.66
480.735	12440.04
480.94	12347.89
481.144	12544.49
481.348	12143.09
481.553	12104.18
481.757	12149.23
481.961	12136.95
482.166	12476.91
482.37	12392.94
482.574	12255.73
482.778	12194.29
482.983	12163.57
483.187	12130.8
483.391	12192.24
483.595	12044.79
483.8	12095.99
484.004	12296.69
484.208	12282.35
484.412	12040.69
484.616	12233.2
484.821	12069.36
485.025	11989.49
485.229	12290.54
485.433	11987.44
485.637	12202.48
485.841	11862.52
486.045	12134.9
486.249	12237.3
486.453	11964.92
486.657	12161.52
486.861	12290.54
487.065	11817.46
487.269	12085.75
487.473	11643.39
487.677	12474.86
487.881	12108.27
488.085	11962.87
488.289	12231.15
488.493	12192.24
488.697	12093.94
488.901	12259.82
489.105	12167.66
489.309	12188.14
489.512	12225.01
489.716	12251.63
489.92	12104.18
490.124	12196.34
490.328	12255.73
490.531	12329.45
490.735	12542.44
490.939	12380.65
491.143	12558.83
491.346	12464.62
491.55	12767.72
491.754	12560.88
491.958	12503.53
492.161	12753.38
492.365	12620.27
492.569	12573.16
492.772	12655.08
492.976	12925.41
493.18	12675.56
493.383	12886.5
493.587	13136.35
493.79	13142.5
493.994	13193.7
494.197	13142.5
494.401	13425.12
494.605	13392.35
494.808	13605.34
495.012	13642.2
495.215	13683.16
495.419	13625.82
495.622	13707.74
495.825	13771.22
496.029	13900.25
496.232	14481.87
496.436	14133.72
496.639	14664.14
496.843	14563.79
497.046	14637.52
497.249	15053.25
497.453	14866.89
497.656	15182.27
497.859	15165.89
498.063	15471.04
498.266	15870.39
498.469	15653.31
498.673	15790.52
498.876	16142.77
499.079	16110
499.282	16333.23
499.485	16449.97
499.689	16431.54
499.892	16619.95
500.095	16974.25
500.298	17488.29
500.501	17082.79
500.705	17506.72
500.908	17752.48
501.111	17703.32
501.314	18086.29
501.517	18274.71
501.72	18506.13
501.923	18495.89
502.126	18868.62
502.329	19153.29
502.532	19147.14
502.735	19466.63
502.938	19679.61
503.141	19652.99
503.344	20187.51
503.547	19829.12
503.75	20711.79
503.953	20846.96
504.156	20689.26
504.359	21064.04
504.562	21205.35
504.765	21709.15
504.968	21913.95
505.17	21877.08
505.373	22194.52
505.576	22217.05
505.779	22821.2
505.982	22772.05
506.185	23398.73
506.387	23257.42
506.59	23802.18
506.793	23861.57
506.996	23857.47
507.198	24633.65
507.401	24473.91
507.604	24660.27
507.807	25063.72
508.009	25372.97
508.212	25684.26
508.415	25708.83
508.617	26030.37
508.82	26331.42
509.022	26132.76
509.225	27166.99
509.428	27134.22
509.63	27265.29
509.833	27328.78
510.035	27977.98
510.238	28080.38
510.44	28178.68
510.643	28825.84
510.845	29096.17
511.048	28834.03
511.25	29231.34
511.453	29360.36
511.655	30486.75
511.858	29878.5
512.06	30539.99
512.262	30769.37
512.465	30580.95
512.667	31598.79
512.87	31621.32
513.072	31402.19
513.274	32110.78
513.477	32444.6
513.679	33032.37
513.881	33378.48
514.084	33501.36
514.286	33474.73
514.488	33913
514.69	34695.32
514.893	34910.36
515.095	34537.63
515.297	35397.77
515.499	35375.25
515.701	35670.15
515.904	36135.04
516.106	36288.64
516.308	36765.82
516.51	36810.87
516.712	37415.02
516.914	37513.33
517.116	38060.13
517.318	37879.91
517.52	38211.68
517.722	38422.62
517.925	39020.63
518.127	39465.04
518.329	39426.13
518.531	39587.92
518.733	40448.07
518.935	41082.94
519.136	40607.81
519.338	41678.89
519.54	41492.53
519.742	42137.64
519.944	42020.91
520.146	42594.34
520.348	42967.07
520.55	43065.37
520.752	43587.6
520.954	43976.72
521.155	43434
521.357	44337.16
521.559	44390.41
521.761	44953.6
521.963	44933.12
522.164	45404.15
522.366	45539.32
522.568	45799.41
522.77	46034.92
522.971	46927.84
523.173	46340.07
523.375	46649.31
523.576	46919.65
523.778	46843.87
523.98	47577.04
524.181	47876.05
524.383	47738.83
524.584	48336.84
524.786	48605.12
524.988	48592.84
525.189	48977.86
525.391	48965.57
525.592	49237.95
525.794	49649.59
525.995	49794.99
526.197	50067.37
526.398	49938.35
526.6	50423.72
526.801	50476.97
527.003	50857.89
527.204	50767.78
527.406	50735.01
527.607	51210.14
527.808	51429.27
528.01	50304.94
528.211	50857.89
528.412	52211.6
528.614	51941.27
528.815	51802
529.016	52440.97
529.218	51703.7
529.419	52162.45
529.62	52242.32
529.822	51867.54
530.023	52662.15
530.224	52445.07
530.425	53077.89
530.626	51916.69
530.828	52330.38
531.029	53139.33
531.23	52746.12
531.431	52963.2
531.632	53313.41
531.833	53845.88
532.035	52938.63
532.236	53249.92
532.437	53571.45
532.638	53090.18
532.839	53598.07
533.04	53653.37
533.241	53174.14
533.442	53716.85
533.643	53475.19
533.844	53512.06
534.045	53616.5
534.246	53059.46
534.447	54003.57
534.648	53348.22
534.849	53782.39
535.05	53159.81
535.251	53489.53
535.451	53542.78
535.652	53831.54
535.853	53593.98
536.054	53880.69
536.255	53929.84
536.456	53340.03
536.657	53944.18
536.857	53446.52
537.058	53536.63
537.259	54048.63
537.46	53786.49
537.66	53542.78
537.861	53679.99
538.062	53317.5
538.263	54126.45
538.463	53456.76
538.664	53233.53
538.865	53614.46
539.065	54046.58
539.266	53198.72
539.466	53639.03
539.667	52860.8
539.868	53835.64
540.068	53368.7
540.269	53657.46
540.469	53585.78
540.67	53329.79
540.87	53516.15
541.071	53364.6
541.271	53917.56
541.472	53497.72
541.672	53344.12
541.873	53598.07
542.073	52748.17
542.274	53757.81
542.474	53679.99
542.675	53045.12
542.875	53938.04
543.075	53247.87
543.276	52952.96
543.476	53935.99
543.676	53630.84
543.877	53368.7
544.077	53174.14
544.277	53585.78
544.478	53151.62
544.678	53759.86
544.878	53464.95
545.078	53084.03
545.279	52989.83
545.479	52692.87
545.679	53538.68
545.879	53237.63
546.079	53321.6
546.28	53432.19
546.48	52672.39
546.68	53567.35
546.88	53112.7
547.08	53131.14
547.28	53225.34
547.48	52928.39
547.68	53266.3
547.88	52889.48
548.081	52750.21
548.281	53278.59
548.481	52617.1
548.681	53596.02
548.881	53221.25
549.081	53204.86
549.28	52766.6
549.48	53217.15
549.68	52621.19
549.88	53315.45
550.08	53049.22
550.28	53159.81
550.48	52821.89
550.68	53335.93
550.88	52744.07
551.08	52957.06
551.279	52658.06
551.479	52322.19
551.679	52610.95
551.879	52643.72
552.079	52850.56
552.278	52293.52
552.478	52877.19
552.678	52641.67
552.878	52846.47
553.077	52635.53
553.277	52467.59
553.477	52934.53
553.676	52733.83
553.876	52846.47
554.076	52928.39
554.275	52572.04
554.475	51955.6
554.674	52633.48
554.874	52481.93
555.074	52643.72
555.273	52434.83
555.473	52602.76
555.672	52019.09
555.872	51761.04
556.071	52078.48
556.271	52684.68
556.47	52193.17
556.67	51875.73
556.869	51943.31
557.068	52105.1
557.268	51965.84
557.467	51955.6
557.667	52049.81
557.866	51896.21
558.065	51470.23
558.265	51308.44
558.464	51642.26
558.663	52070.29
558.863	51363.74
559.062	51943.31
559.261	51208.09
559.461	51603.35
559.66	51062.69
559.859	51392.41
560.058	51042.21
560.258	51713.94
560.457	50833.31
560.656	51273.63
560.855	51107.74
561.054	51603.35
561.253	50816.93
561.453	50784.16
561.652	51320.73
561.851	50620.33
562.05	50366.38
562.249	50241.45
562.448	50722.72
562.647	50880.42
562.846	50511.78
563.045	50212.78
563.244	50425.77
563.443	50972.58
563.642	49522.61
563.841	50149.29
564.04	50032.56
564.239	50042.8
564.438	49596.34
564.637	49891.25
564.836	50327.47
565.035	49731.51
565.234	49612.73
565.432	48938.94
565.631	49237.95
565.83	49491.9
566.029	49270.71
566.228	48809.92
566.427	49100.73
566.625	48576.45
566.824	48560.07
567.023	48926.66
567.222	48216.01
567.42	48852.93
567.619	48754.63
567.818	48652.23
568.016	48429
568.215	48613.32
568.414	48160.72
568.612	48498.63
568.811	48353.22
569.01	47792.08
569.208	47585.24
569.407	48170.96
569.605	46938.08
569.804	47644.63
570.002	47523.8
570.201	47495.13
570.4	46995.42
570.598	47439.83
570.797	47046.62
570.995	47450.07
571.193	46469.09
571.392	47028.19
571.59	46456.81
571.789	46647.27
571.987	46424.04
572.186	46374.89
572.384	46374.89
572.582	46430.18
572.781	46686.18
572.979	45668.34
573.177	46114.79
573.376	46077.93
573.574	45256.7
573.772	46096.36
573.971	45572.08
574.169	45631.47
574.367	45056
574.565	45058.04
574.763	45244.41
574.962	45203.45
575.16	44779.52
575.358	44765.18
575.556	44726.27
575.754	45094.91
575.952	44439.56
576.151	44898.3
576.349	44097.55
576.547	44277.77
576.745	44402.69
576.943	44361.73
577.141	44204.04
577.339	43819.02
577.537	43888.65
577.735	43646.99
577.933	43472.92
578.131	43800.59
578.329	43444.24
578.527	43012.12
578.725	43554.83
578.923	43358.23
579.121	43245.59
579.319	42809.37
579.516	43221.02
579.714	42924.06
579.912	42795.04
580.11	42723.36
580.308	42870.81
580.506	42094.63
580.704	41848.88
580.901	42371.11
581.099	42631.2
581.297	41609.26
581.495	41703.47
581.692	41732.14
581.89	41474.1
582.088	41758.77
582.285	41295.92
582.483	41431.09
582.681	41214.01
582.878	41101.37
583.076	41052.22
583.274	41087.03
583.471	40687.68
583.669	40732.73
583.866	40908.86
584.064	40839.23
584.262	40065.1
584.459	40544.32
584.657	39714.89
584.854	40618.05
585.052	39538.77
585.249	40261.7
585.447	40022.09
585.644	39592.01
585.841	40065.1
586.039	39938.12
586.236	39299.15
586.434	39372.88
586.631	39456.85
586.828	39131.22
587.026	39352.4
587.223	38979.67
587.42	38733.92
587.618	38656.09
587.815	38148.2
588.012	38213.73
588.21	38250.59
588.407	38398.05
588.604	38373.47
588.801	38152.29
588.999	37570.67
589.196	37587.05
589.393	37884.01
589.59	37537.9
589.787	37488.75
589.984	37183.6
590.182	37023.86
590.379	37613.68
590.576	37156.98
590.773	37290.1
590.97	36585.6
591.167	37116.02
591.364	36507.77
591.561	36669.56
591.758	36288.64
591.955	36436.09
592.152	36579.45
592.349	36147.33
592.546	36124.8
592.743	36014.21
592.94	35526.8
593.137	36055.17
593.334	36051.08
593.531	35424.4
593.727	35938.44
593.924	35565.71
594.121	35041.43
594.318	35510.41
594.515	34744.47
594.712	34850.97
594.908	34744.47
595.105	34791.58
595.302	34621.59
595.499	34840.73
595.696	34302.11
595.892	34205.86
596.089	34220.19
596.286	34402.46
596.482	34177.19
596.679	34113.7
596.876	34076.83
597.072	33786.02
597.269	33622.19
597.466	33769.64
597.662	33212.59
597.859	33482.92
598.055	33548.46
598.252	33130.67
598.448	33347.76
598.645	32776.37
598.841	32759.99
599.038	33118.39
599.234	32934.07
599.431	32229.57
599.627	32430.27
599.824	32327.87
600.02	31983.81
600.217	32194.75
600.413	32053.44
600.609	31914.18
600.806	32108.74
601.002	31946.95
601.198	31693
601.395	31682.76
601.591	31656.14
601.787	31488.2
601.984	31170.77
602.18	31426.76
602.376	31295.69
602.572	31477.96
602.769	31338.7
602.965	30664.92
603.161	30935.25
603.357	30474.46
603.553	30531.8
603.75	30984.4
603.946	30339.29
604.142	30433.5
604.338	30292.19
604.534	30087.39
604.73	30417.11
604.926	29987.04
605.122	30064.86
605.318	29835.49
605.514	29810.92
605.71	29436.14
605.906	29628.65
606.102	29292.78
606.298	29876.45
606.494	29409.51
606.69	29270.25
606.886	29319.4
607.082	28985.58
607.278	29473
607.474	28840.18
607.67	29098.22
607.866	28993.78
608.062	28762.36
608.257	28547.32
608.453	28762.36
608.649	28969.2
608.845	28336.38
609.041	28569.85
609.236	28694.77
609.432	28315.9
609.628	28184.83
609.824	27910.4
610.019	28152.06
610.215	28125.44
610.411	28129.53
610.606	27889.92
610.802	28158.21
610.998	27908.35
611.193	27875.59
611.389	27617.54
611.584	27660.55
611.78	27386.12
611.976	27592.97
612.171	27316.49
612.367	27607.3
612.562	27257.1
612.758	26972.43
612.953	26978.57
613.149	27441.42
613.344	26980.62
613.539	27549.96
613.735	27101.45
613.93	27132.17
614.126	27058.45
614.321	27224.33
614.517	27201.8
614.712	26798.35
614.907	26771.73
615.103	26497.3
615.298	26611.99
615.493	26865.94
615.688	26124.57
615.884	26655
616.079	26165.53
616.274	26437.91
616.47	26372.38
616.665	26222.87
616.86	26280.22
617.055	26433.82
617.25	26061.08
617.445	26376.47
617.641	25717.03
617.836	26079.52
618.031	25690.4
618.226	25755.94
618.421	25729.31
618.616	26036.51
618.811	25354.54
619.006	25651.49
619.201	25473.32
619.396	25313.58
619.591	24664.37
619.786	25245.99
619.981	24578.36
620.176	24555.83
620.371	24955.18
620.566	24588.6
620.761	24211.77
620.956	24568.12
621.151	24453.43
621.346	24596.79
621.541	24172.86
621.735	24031.55
621.93	23660.87
622.125	23972.16
622.32	23572.8
622.515	23605.57
622.709	23066.95
622.904	23357.77
623.099	23365.96
623.294	23185.74
623.488	22899.02
623.683	22860.11
623.878	22378.84
624.072	22833.49
624.267	22737.23
624.462	22704.46
624.656	22284.63
624.851	22546.77
625.046	21932.38
625.24	22135.13
625.435	21819.74
625.629	21842.27
625.824	21846.37
626.018	21375.33
626.213	21064.04
626.407	21305.7
626.602	21387.62
626.796	20865.39
626.991	21096.81
627.185	20959.59
627.38	20689.26
627.574	20564.34
627.768	20486.51
627.963	20162.93
628.157	20238.71
628.352	20343.16
628.546	19976.57
628.74	20115.83
628.935	19888.51
629.129	19730.81
629.323	19661.18
629.517	19564.93
629.712	19296.64
629.906	19595.65
630.1	19345.8
630.294	19077.51
630.489	19028.36
630.683	19097.99
630.877	18708.88
631.071	18702.73
631.265	18844.04
631.459	18483.6
631.653	18491.79
631.848	18739.6
632.042	17957.27
632.236	18293.14
632.43	18049.43
632.624	18028.95
632.818	17987.99
633.012	17861.02
633.206	17709.47
633.4	17666.46
633.594	17488.29
633.788	17549.73
633.982	17516.96
634.176	17652.13
634.369	17111.46
634.563	17033.64
634.757	17043.88
634.951	17037.73
635.145	17107.37
635.339	16990.63
635.533	16683.44
635.726	16816.55
635.92	16558.51
636.114	16568.75
636.308	16253.36
636.501	16370.1
636.695	16429.49
636.889	16183.73
637.083	16038.33
637.276	16120.24
637.47	15815.1
637.664	15684.03
637.857	15657.4
638.051	15737.27
638.244	15342.02
638.438	15409.6
638.632	15440.32
638.825	15186.37
639.019	15159.75
639.212	15069.64
639.406	15098.31
639.599	15135.17
639.793	15122.88
639.986	14506.45
640.18	14772.68
640.373	14692.81
640.567	14453.2
640.76	14567.88
640.954	14387.66
641.147	14252.5
641.34	14109.14
641.534	14324.18
641.727	14168.53
641.92	14031.32
642.114	14027.22
642.307	13744.6
642.5	13775.32
642.694	13664.73
642.887	13576.67
643.08	13756.89
643.273	13664.73
643.467	13425.12
643.66	13261.28
643.853	13388.25
644.046	13150.69
644.239	13244.9
644.432	13087.2
644.626	12902.89
644.819	12927.46
645.012	13062.63
645.205	12739.05
645.398	12818.92
645.591	12810.73
645.784	12726.76
645.977	12542.44
646.17	12405.23
646.363	12462.57
646.556	12237.3
646.749	12470.76
646.942	12327.41
647.135	12188.14
647.328	12282.35
647.521	12200.43
647.714	11794.93
647.907	12083.7
648.099	11788.79
648.292	12122.61
648.485	11604.47
648.678	11674.1
648.871	11657.72
649.064	11618.81
649.256	11733.5
649.449	11393.53
649.642	11414.01
649.835	11168.26
650.027	11399.68
650.22	11328
650.413	11041.28
650.605	11280.89
650.798	11241.98
650.991	10957.32
651.183	10936.84
651.376	10811.91
651.568	10826.25
651.761	10945.03
651.954	10854.92
652.146	10689.03
652.339	10527.24
652.531	10529.29
652.724	10482.19
652.916	10224.14
653.109	10430.99
653.301	10377.74
653.494	10412.56
653.686	10228.24
653.879	10404.36
654.071	10000.91
654.263	10000.91
654.456	10021.39
654.648	10058.26
654.84	9824.79
655.033	9888.28
655.225	9826.84
655.417	9714.2
655.61	9720.34
655.802	9718.29
655.994	9546.26
656.186	9681.43
656.379	9734.68
656.571	9525.79
656.763	9407
656.955	9331.23
657.148	9378.33
657.34	9394.72
657.532	9007.65
657.724	9173.53
657.916	9077.28
658.108	9351.71
658.3	9122.34
658.492	8966.69
658.684	8993.31
658.876	8876.58
659.068	8917.54
659.26	8794.66
659.452	8880.68
659.644	8829.48
659.836	8596.01
660.028	8684.07
660.22	8415.79
660.412	8536.62
660.604	8579.62
660.796	8399.4
660.988	8464.94
661.18	8274.48
661.372	8301.1
661.563	8243.76
661.755	8213.04
661.947	8426.03
662.139	8133.17
662.331	8086.06
662.522	7959.09
662.714	7885.36
662.906	7967.28
663.097	7940.66
663.289	7860.79
663.481	7979.57
663.673	7791.16
663.864	7735.86
664.056	7787.06
664.247	7662.13
664.439	7572.02
664.631	7649.85
664.822	7578.17
665.014	7711.28
665.205	7563.83
665.397	7664.18
665.588	7576.12
665.78	7397.95
665.971	7451.19
666.163	7420.47
666.354	7227.96
666.546	7115.33
666.737	7068.22
666.929	7182.91
667.12	7342.65
667.311	7076.41
667.503	7086.65
667.694	6912.58
667.885	7002.69
668.077	6926.91
668.268	6797.89
668.459	6888
668.651	6937.15
668.842	6758.98
669.033	6785.6
669.224	6685.25
669.416	6992.45
669.607	6734.4
669.798	6646.34
669.989	6691.4
670.18	6754.88
670.371	6705.73
670.563	6466.12
670.754	6605.38
670.945	6500.94
671.136	6459.98
671.327	6455.88
671.518	6498.89
671.709	6312.52
671.9	6509.13
672.091	6357.58
672.282	6318.67
672.473	6156.88
672.664	6257.23
672.855	6337.1
673.046	6130.25
673.237	6439.5
673.428	6113.87
673.619	6130.25
673.809	6027.85
674	6167.12
674.191	6167.12
674.382	6056.53
674.573	5970.51
674.764	5956.18
674.954	6027.85
675.145	5804.63
675.336	6048.33
675.527	6015.57
675.717	5843.54
675.908	5812.82
676.099	5943.89
676.289	5843.54
676.48	5876.3
676.671	5696.08
676.861	5696.08
677.052	5780.05
677.243	5694.04
677.433	5716.56
677.624	5677.65
677.814	5585.49
678.005	5558.87
678.195	5691.99
678.386	5667.41
678.576	5573.21
678.767	5487.19
678.957	5581.4
679.148	5560.92
679.338	5597.78
679.529	5444.18
679.719	5536.34
679.909	5515.86
680.1	5444.18
680.29	5507.67
680.481	5444.18
680.671	5341.79
680.861	5325.4
681.052	5395.03
681.242	5390.94
681.432	5327.45
681.622	5157.47
681.813	5261.91
682.003	5200.48
682.193	5214.81
682.383	5165.66
682.573	5251.67
682.764	5266.01
682.954	5235.29
683.144	5175.9
683.334	5048.93
683.524	5241.43
683.714	5319.26
683.904	5280.35
684.094	5153.37
684.284	5073.5
684.474	5067.36
684.664	5085.79
684.854	4967.01
685.044	4995.68
685.234	4964.96
685.424	4883.04
685.614	4819.55
685.804	4958.81
685.994	4817.51
686.184	4934.24
686.374	4858.46
686.564	4876.9
686.753	4926.05
686.943	4858.46
687.133	4727.39
687.323	4762.21
687.513	4782.69
687.702	4645.48
687.892	4815.46
688.082	4743.78
688.272	4723.3
688.461	4633.19
688.651	4704.87
688.841	4538.98
689.03	4588.13
689.22	4668
689.41	4524.65
689.599	4594.28
689.789	4495.97
689.979	4387.43
690.168	4354.66
690.358	4436.58
690.547	4522.6
690.737	4549.22
690.926	4323.94
691.116	4350.57
691.305	4325.99
691.495	4330.09
691.684	4205.16
691.874	4346.47
692.063	4153.96
692.252	4151.92
692.442	4211.31
692.631	3945.07
692.82	3936.88
693.01	4094.57
693.199	4072.04
693.388	4004.46
693.578	4125.29
693.767	4141.68
693.956	4137.58
694.146	3994.22
694.335	4125.29
694.524	4002.41
694.713	3981.93
694.902	3963.5
695.092	3838.58
695.281	3951.21
695.47	3949.17
695.659	3959.41
695.848	3838.58
696.037	3844.72
696.226	3936.88
696.415	3814
696.604	3951.21
696.793	3844.72
696.982	3863.15
697.171	3998.32
697.36	3930.73
697.549	3725.94
697.738	3828.34
697.927	3662.45
698.116	3719.79
698.305	3740.27
698.494	3760.75
698.683	3689.07
698.872	3797.62
699.061	3764.85
699.25	3656.31
699.438	3609.2
699.627	3750.51
699.816	3807.86
700.005	3703.41
700.193	3648.11
700.382	3703.41
700.571	3625.59
700.76	3725.94
700.948	3603.06
701.137	3641.97
701.326	3703.41
701.514	3558
701.703	3691.12
701.892	3633.78
702.08	3584.63
702.269	3717.75
702.457	3508.85
702.646	3527.28
702.834	3486.33
703.023	3347.06
703.212	3572.34
703.4	3510.9
703.589	3547.76
703.777	3533.43
703.965	3461.75
704.154	3648.11
704.342	3398.26
704.531	3392.12
704.719	3349.11
704.907	3558
705.096	3418.74
705.284	3474.04
705.472	3543.67
705.661	3404.41
705.849	3238.52
706.037	3478.13
706.226	3420.79
706.414	3492.47
706.602	3336.82
706.79	3488.37
706.979	3404.41
707.167	3406.45
707.355	3224.19
707.543	3345.02
707.731	3379.83
707.919	3324.54
708.107	3246.71
708.296	3236.47
708.484	3306.1
708.672	3263.1
708.86	3242.62
709.048	3314.3
709.236	3256.95
709.424	3195.51
709.612	3224.19
709.8	3351.16
709.988	3162.75
710.176	3166.84
710.364	3240.57
710.551	3240.57
710.739	3179.13
710.927	3123.84
711.115	3158.65
711.303	3136.12
711.491	3103.36
711.679	3207.8
711.866	3164.79
712.054	3152.51
712.242	3140.22
712.43	3093.12
712.617	3246.71
712.805	3140.22
712.993	3074.68
713.181	3064.44
713.368	3068.54
713.556	3154.55
713.744	3027.58
713.931	3119.74
714.119	3037.82
714.306	3041.92
714.494	2986.62
714.682	3058.3
714.869	3017.34
715.057	3052.16
715.244	3013.24
715.432	3039.87
715.619	3103.36
715.807	2960
715.994	3015.29
716.182	2900.61
716.369	2951.81
716.556	3068.54
716.744	3031.68
716.931	3046.01
717.119	2929.28
717.306	2970.24
717.493	2835.07
717.681	2947.71
717.868	2882.17
718.055	2882.17
718.242	2830.98
718.43	2873.98
718.617	2820.74
718.804	2824.83
718.991	2892.41
719.179	2968.19
719.366	2894.46
719.553	2835.07
719.74	2894.46
719.927	2804.35
720.114	2736.77
720.301	2714.24
720.488	2773.63
720.676	2704
720.863	2779.78
721.05	2751.1
721.237	2796.16
721.424	2747.01
721.611	2691.71
721.798	2740.86
721.985	2761.34
722.172	2771.58
722.358	2697.86
722.545	2671.23
722.732	2781.82
722.919	2761.34
723.106	2630.27
723.293	2607.75
723.48	2749.06
723.667	2701.95
723.853	2650.75
724.04	2767.49
724.227	2677.38
724.414	2650.75
724.6	2534.02
724.787	2560.64
724.974	2656.9
725.161	2542.21
725.347	2591.36
725.534	2663.04
725.72	2615.94
725.907	2648.71
726.094	2615.94
726.28	2601.6
726.467	2542.21
726.653	2599.56
726.84	2556.55
727.027	2634.37
727.213	2439.81
727.4	2538.12
727.586	2595.46
727.773	2499.2
727.959	2609.79
728.145	2534.02
728.332	2509.44
728.518	2499.2
728.705	2507.4
728.891	2534.02
729.077	2581.12
729.264	2548.36
729.45	2454.15
729.636	2558.6
729.823	2503.3
730.009	2421.38
730.195	2466.44
730.382	2464.39
730.568	2540.16
730.754	2448.01
730.94	2314.89
731.126	2439.81
731.313	2423.43
731.499	2462.34
731.685	2417.29
731.871	2499.2
732.057	2372.23
732.243	2425.48
732.429	2450.05
732.615	2505.35
732.801	2378.37
732.987	2364.04
733.173	2433.67
733.359	2390.66
733.545	2476.68
733.731	2333.32
733.917	2423.43
734.103	2378.37
734.289	2405
734.475	2423.43
734.661	2382.47
734.847	2278.02
735.033	2425.48
735.219	2280.07
735.404	2318.98
735.59	2194.06
735.776	2273.93
735.962	2425.48
736.148	2249.35
736.333	2310.79
736.519	2296.46
736.705	2232.97
736.89	2290.31
737.076	2237.06
737.262	2149
737.447	2261.64
737.633	2259.59
737.819	2247.3
738.004	2173.58
738.19	2249.35
738.375	2257.54
738.561	2202.25
738.747	2118.28
738.932	2177.67
739.118	2228.87
739.303	2136.71
739.489	2134.67
739.674	2175.63
739.859	2196.11
740.045	2046.6
740.23	2177.67
740.416	2050.7
740.601	2157.19
740.786	2120.33
740.972	2022.03
741.157	2007.69
741.342	2046.6
741.528	2130.57
741.713	2042.51
741.898	2009.74
742.084	2034.32
742.269	1946.25
742.454	2046.6
742.639	2085.51
742.824	1938.06
743.01	1917.58
743.195	2056.84
743.38	2046.6
743.565	1866.38
743.75	1866.38
743.935	1927.82
744.12	2022.03
744.305	1843.85
744.49	2001.55
744.675	1956.49
744.86	1925.77
745.045	1901.2
745.23	1882.77
745.415	1921.68
745.6	1888.91
745.785	1899.15
745.97	1837.71
746.155	1757.84
746.34	1837.71
746.525	1768.08
746.71	1905.29
746.895	1778.32
747.079	1782.42
747.264	1856.14
747.449	1763.98
747.634	1751.7
747.819	1739.41
748.003	1669.78
748.188	1737.36
748.373	1725.07
748.557	1696.4
748.742	1688.21
748.927	1702.54
749.111	1647.25
749.296	1622.67
749.481	1602.19
749.665	1598.1
749.85	1557.14
750.034	1688.21
750.219	1499.8
750.404	1528.47
750.588	1610.39
750.773	1526.42
750.957	1591.95
751.141	1583.76
751.326	1485.46
751.51	1553.04
751.695	1546.9
751.879	1446.55
752.064	1514.13
752.248	1528.47
752.432	1477.27
752.617	1456.79
752.801	1442.45
752.985	1469.08
753.17	1421.97
753.354	1497.75
753.538	1411.73
753.722	1333.91
753.907	1387.16
754.091	1217.18
754.275	1450.64
754.459	1335.96
754.643	1321.62
754.828	1413.78
755.012	1346.2
755.196	1301.14
755.38	1278.62
755.564	1297.05
755.748	1256.09
755.932	1258.14
756.116	1256.09
756.3	1258.14
756.484	1249.94
756.668	1292.95
756.852	1168.02
757.036	1239.7
757.22	1307.29
757.404	1174.17
757.588	1258.14
757.772	1204.89
757.956	1192.6
758.14	1305.24
758.323	1229.46
758.507	1211.03
758.691	1233.56
758.875	1108.63
759.059	1163.93
759.242	1110.68
759.426	1114.78
759.61	1094.3
759.794	1094.3
759.977	1174.17
760.161	1116.83
760.345	1139.35
760.528	1114.78
760.712	1125.02
760.895	1000.09
761.079	1141.4
761.263	1114.78
761.446	1079.96
761.63	1018.52
761.813	1022.62
761.997	1039
762.18	1041.05
762.364	1104.54
762.547	977.56
762.731	985.76
762.914	1018.52
763.098	952.99
763.281	1057.43
763.464	1004.19
763.648	1030.81
763.831	987.8
764.015	965.28
764.198	1022.62
764.381	1016.48
764.564	955.04
764.748	932.51
764.931	1016.48
765.114	955.04
765.297	963.23
765.481	897.69
765.664	993.95
765.847	934.56
766.03	973.47
766.213	977.56
766.397	938.65
766.58	975.52
766.763	1024.67
766.946	901.79
767.129	854.69
767.312	895.64
767.495	907.93
767.678	871.07
767.861	924.32
768.044	887.45
768.227	934.56
768.41	887.45
768.593	909.98
768.776	909.98
768.959	795.29
769.142	936.6
769.324	895.64
769.507	901.79
769.69	883.36
769.873	815.77
770.056	903.84
770.239	846.49
770.421	797.34
770.604	856.73
770.787	793.25
770.97	748.19
771.152	783.01
771.335	817.82
771.518	744.1
771.7	783.01
771.883	815.77
772.066	803.49
772.248	752.29
772.431	828.06
772.613	737.95
772.796	832.16
772.978	862.88
773.161	711.33
773.343	633.51
773.526	631.46
773.708	748.19
773.891	555.68
774.073	682.66
774.256	729.76
774.438	744.1
774.621	658.08
774.803	719.52
774.985	737.95
775.168	711.33
775.35	705.18
775.532	692.9
775.715	678.56
775.897	664.22
776.079	639.65
776.261	670.37
776.444	672.42
776.626	727.71
776.808	608.93
776.99	610.98
777.173	580.26
777.355	613.03
777.537	608.93
777.719	684.7
777.901	561.83
778.083	608.93
778.265	629.41
778.447	617.12
778.629	594.59
778.811	586.4
778.993	631.46
779.175	559.78
779.357	543.39
779.539	588.45
779.721	533.15
779.903	621.22
780.085	629.41
780.267	613.03
780.449	613.03
780.631	600.74
780.812	453.28
780.994	547.49
781.176	465.57
781.358	504.48
781.54	584.35
781.721	547.49
781.903	453.28
782.085	594.59
782.267	506.53
782.448	527.01
782.63	524.96
782.812	496.29
782.993	508.58
783.175	488.1
783.357	465.57
783.538	471.72
783.72	424.61
783.901	449.19
784.083	481.96
784.264	461.48
784.446	438.95
784.627	357.03
784.809	520.87
784.99	430.76
785.172	465.57
785.353	414.37
785.535	443.04
785.716	412.32
785.897	449.19
786.079	406.18
786.26	395.94
786.441	461.48
786.623	406.18
786.804	441
786.985	391.84
787.167	408.23
787.348	412.32
787.529	479.91
787.71	443.04
787.891	365.22
788.073	451.24
788.254	471.72
788.435	404.13
788.616	346.79
788.797	393.89
788.978	369.32
789.159	316.07
789.34	432.8
789.522	385.7
789.703	311.97
789.884	391.84
790.065	293.54
790.246	354.98
790.427	348.84
790.607	449.19
790.788	420.52
790.969	225.96
791.15	383.65
791.331	318.12
791.512	322.21
791.693	299.69
791.874	250.53
792.054	332.45
792.235	365.22
792.416	256.68
792.597	309.93
792.778	348.84
792.958	299.69
793.139	365.22
793.32	240.3
793.5	268.97
793.681	361.13
793.862	322.21
794.042	328.36
794.223	303.78
794.404	223.91
794.584	268.97
794.765	330.41
794.945	311.97
795.126	311.97
795.306	264.87
795.487	326.31
795.667	266.92
795.848	252.58
796.028	314.02
796.209	248.49
796.389	271.01
796.57	256.68
796.75	246.44
796.93	264.87
797.111	185
797.291	211.62
797.471	330.41
797.652	187.05
797.832	264.87
798.012	305.83
798.192	260.77
798.373	191.14
798.553	273.06
798.733	262.82
798.913	254.63
799.093	205.48
799.274	225.96
799.454	242.34
799.634	309.93
799.814	209.58
799.994	195.24
800.174	211.62
800.354	242.34
800.534	287.4
800.714	232.1
800.894	264.87
801.074	187.05
801.254	250.53
801.434	322.21
801.614	156.33
801.794	158.38
801.974	535.2
802.154	205.48
802.334	211.62
802.514	180.9
802.693	211.62
802.873	201.38
803.053	264.87
803.233	209.58
803.413	144.04
803.592	223.91
803.772	230.06
803.952	213.67
804.131	201.38
804.311	230.06
804.491	232.1
804.67	55.98
804.85	150.18
805.03	238.25
805.209	236.2
805.389	166.57
805.568	203.43
805.748	160.42
805.928	205.48
806.107	234.15
806.287	211.62
806.466	217.77
806.646	254.63
806.825	180.9
807.004	189.1
807.184	213.67
807.363	252.58
807.543	70.31
807.722	131.75
807.901	170.66
808.081	150.18
808.26	121.51
808.439	121.51
808.619	111.27
808.798	119.46
808.977	150.18
809.156	273.06
809.336	187.05
809.515	166.57
809.694	191.14
809.873	168.62
810.052	221.86
810.231	185
810.411	133.8
810.59	152.23
810.769	203.43
810.948	105.13
811.127	205.48
811.306	185
811.485	205.48
811.664	160.42
811.843	162.47
812.022	182.95
812.201	146.09
812.38	92.84
812.559	154.28
812.737	185
812.916	58.03
813.095	148.14
813.274	117.42
813.453	228.01
813.632	166.57
813.811	185
813.989	86.7
814.168	166.57
814.347	150.18
814.526	174.76
814.704	76.46
814.883	197.29
815.062	205.48
815.24	109.22
815.419	121.51
815.598	205.48
815.776	109.22
815.955	19.11
816.133	94.89
816.312	92.84
816.49	92.84
816.669	273.06
816.847	158.38
817.026	115.37
817.204	152.23
817.383	123.56
817.561	117.42
817.74	168.62
817.918	80.55
818.097	68.27
818.275	80.55
818.453	115.37
818.632	78.51
818.81	162.47
818.988	111.27
819.167	215.72
819.345	88.75
819.523	168.62
819.701	115.37
819.879	33.45
820.058	86.7
820.236	152.23
820.414	152.23
820.592	103.08
820.77	109.22
820.948	68.27
821.127	80.55
821.305	164.52
821.483	86.7
821.661	70.31
821.839	152.23
822.017	135.85
822.195	123.56
822.373	119.46
822.551	92.84
822.729	113.32
822.907	78.51
823.085	113.32
823.262	35.5
823.44	129.7
823.618	84.65
823.796	43.69
823.974	76.46
824.152	152.23
824.329	39.59
824.507	78.51
824.685	0.68
824.863	113.32
825.04	127.66
825.218	92.84
825.396	80.55
825.574	105.13
825.751	58.03
825.929	62.12
826.107	35.5
826.284	74.41
826.462	121.51
826.639	98.99
826.817	64.17
826.994	129.7
827.172	37.55
827.349	119.46
827.527	17.07
827.704	191.14
827.882	92.84
828.059	51.88
828.237	84.65
828.414	88.75
828.591	88.75
828.769	23.21
828.946	109.22
829.124	123.56
829.301	31.4
829.478	123.56
829.655	109.22
829.833	92.84
830.01	33.45
830.187	119.46
830.364	55.98
830.542	66.22
830.719	137.9
830.896	35.5
831.073	78.51
831.25	70.31
831.427	125.61
831.604	82.6
831.782	74.41
831.959	113.32
832.136	101.03
832.313	80.55
832.49	70.31
832.667	125.61
832.844	62.12
833.021	139.94
833.198	88.75
833.374	76.46
833.551	101.03
833.728	31.4
833.905	84.65
834.082	107.18
834.259	15.02
834.436	129.7
834.612	127.66
834.789	86.7
834.966	70.31
835.143	74.41
835.319	17.07
835.496	113.32
835.673	101.03
835.85	92.84
836.026	62.12
836.203	105.13
836.38	33.45
836.556	41.64
836.733	70.31
836.909	117.42
837.086	58.03
837.262	58.03
837.439	70.31
837.616	60.07
837.792	82.6
837.968	15.02
838.145	60.07
838.321	131.75
838.498	41.64
838.674	55.98
838.851	80.55
839.027	78.51
839.203	-1.37
839.38	111.27
839.556	58.03
839.732	86.7
839.909	29.35
840.085	90.79
840.261	51.88
840.437	109.22
840.614	68.27
840.79	129.7
840.966	58.03
841.142	-13.65
841.318	55.98
841.494	86.7
841.671	-32.08
841.847	6.83
842.023	27.31
842.199	64.17
842.375	10.92
842.551	8.87
842.727	12.97
842.903	96.94
843.079	-21.85
843.255	109.22
843.431	70.31
843.607	88.75
843.783	68.27
843.959	58.03
844.134	31.4
844.31	49.83
844.486	12.97
844.662	27.31
844.838	49.83
845.013	37.55
845.189	58.03
845.365	33.45
845.541	88.75
845.716	-30.04
845.892	60.07
846.068	25.26
846.244	49.83
846.419	-42.32
846.595	-34.13
846.77	21.16
846.946	27.31
847.122	51.88
847.297	41.64
847.473	53.93
847.648	-7.51
847.824	4.78
847.999	-36.18
848.175	10.92
848.35	64.17
848.526	19.11
848.701	29.35
848.876	-40.28
849.052	88.75
849.227	-30.04
849.403	58.03
849.578	80.55
849.753	60.07
849.929	49.83
850.104	21.16
850.279	-58.71
850.454	60.07
850.63	-40.28
850.805	15.02
850.98	31.4
851.155	-19.8
851.33	90.79
851.505	-38.23
851.681	23.21
851.856	80.55
852.031	37.55
852.206	58.03
852.381	21.16
852.556	45.74
852.731	-36.18
852.906	72.36
853.081	-9.56
853.256	43.69
853.431	10.92
853.606	-77.14
853.781	-7.51
853.956	19.11
854.131	15.02
854.305	58.03
854.48	4.78
854.655	72.36
854.83	-27.99
855.005	33.45
855.18	-36.18
855.354	-15.7
855.529	86.7
855.704	-1.37
855.879	80.55
856.053	31.4
856.228	-1.37
856.403	23.21
856.577	37.55
856.752	39.59
856.926	21.16
857.101	-7.51
857.276	-1.37
857.45	23.21
857.625	98.99
857.799	25.26
857.974	-27.99
858.148	2.73
858.323	25.26
858.497	-3.41
858.672	47.79
858.846	19.11
859.02	113.32
859.195	-17.75
859.369	-34.13
859.543	53.93
859.718	-19.8
859.892	39.59
860.066	43.69
860.241	-5.46
860.415	2.73
860.589	82.6
860.763	33.45
860.938	-17.75
861.112	78.51
861.286	19.11
861.46	-21.85
861.634	10.92
861.808	29.35
861.982	33.45
862.157	88.75
862.331	19.11
862.505	66.22
862.679	21.16
862.853	10.92
863.027	-15.7
863.201	-48.47
863.375	21.16
863.549	-30.04
863.722	-36.18
863.896	37.55
864.07	53.93
864.244	39.59
864.418	29.35
864.592	35.5
864.766	72.36
864.939	25.26
865.113	-50.52
865.287	25.26
865.461	0.68
865.634	33.45
865.808	25.26
865.982	-1.37
866.156	-56.66
866.329	15.02
866.503	17.07
866.676	68.27
866.85	-7.51
867.024	-25.94
867.197	8.87
867.371	25.26
867.544	0.68
867.718	-30.04
867.891	70.31
868.065	-7.51
868.238	-34.13
868.412	60.07
868.585	86.7
868.759	12.97
868.932	33.45
869.105	62.12
869.279	31.4
869.452	33.45
869.625	-19.8
869.799	21.16
869.972	-66.9
870.145	45.74
870.319	58.03
870.492	-3.41
870.665	53.93
870.838	-1.37
871.011	-11.61
871.185	-23.89
871.358	-54.61
871.531	19.11
871.704	-7.51
871.877	47.79
872.05	33.45
872.223	29.35
872.396	78.51
872.569	43.69
872.742	-34.13
872.915	0.68
873.088	0.68
873.261	17.07
873.434	66.22
873.607	94.89
873.78	27.31
873.953	12.97
874.126	29.35
874.299	68.27
874.471	-3.41
874.644	-30.04
874.817	12.97
874.99	15.02
875.163	37.55
875.335	-60.76
875.508	0.68
875.681	55.98
875.853	-1.37
876.026	31.4
876.199	2.73
876.371	131.75
876.544	29.35
876.717	-9.56
876.889	-3.41
877.062	31.4
877.234	-17.75
877.407	31.4
877.579	-7.51
877.752	37.55
877.924	-11.61
878.097	47.79
878.269	0.68
878.442	-3.41
878.614	8.87
878.786	8.87
878.959	21.16
879.131	31.4
879.303	21.16
879.476	72.36
879.648	10.92
879.82	31.4
879.993	-23.89
880.165	35.5
880.337	15.02
880.509	-42.32
880.681	33.45
880.854	23.21
881.026	-46.42
881.198	25.26
881.37	-21.85
881.542	-27.99
881.714	-13.65
881.886	10.92
882.058	4.78
882.23	76.46
882.402	6.83
882.574	-9.56
882.746	-9.56
882.918	23.21
883.09	-13.65
883.262	39.59
883.434	68.27
883.606	8.87
883.778	4.78
883.95	47.79
884.122	-15.7
884.293	55.98
884.465	33.45
884.637	123.56
884.809	31.4
884.98	-1.37
885.152	74.41
885.324	21.16
885.496	82.6
885.667	-64.85
885.839	-3.41
886.011	-15.7
886.182	6.83
886.354	35.5
886.525	15.02
886.697	15.02
886.869	-15.7
887.04	-32.08
887.212	2.73
887.383	27.31
887.555	-52.56
887.726	23.21
887.897	-7.51
888.069	-32.08
888.24	2.73
888.412	82.6
888.583	-19.8
888.754	37.55
888.926	17.07
889.097	-21.85
889.268	-42.32
889.44	55.98
889.611	31.4
889.782	78.51
889.953	23.21
890.125	-21.85
890.296	-56.66
890.467	8.87
890.638	-83.28
890.809	-13.65
890.98	-42.32
891.151	-48.47
891.323	-5.46
891.494	8.87
891.665	17.07
891.836	-7.51
892.007	23.21
892.178	53.93
892.349	-19.8
892.52	2.73
892.691	-15.7
892.862	121.51
893.032	37.55
893.203	4.78
893.374	39.59
893.545	62.12
893.716	45.74
893.887	33.45
894.057	10.92
894.228	39.59
894.399	23.21
894.57	39.59
894.74	-54.61
894.911	6.83
895.082	-50.52
895.253	-58.71
895.423	33.45
895.594	-15.7
895.764	49.83
895.935	17.07
896.106	8.87
896.276	8.87
896.447	96.94
896.617	15.02
896.788	-3.41
896.958	6.83
897.129	45.74
897.299	-101.72
897.47	-7.51
897.64	25.26
897.81	25.26
897.981	-1.37
898.151	29.35
898.322	10.92
898.492	15.02
898.662	-54.61
898.832	-62.8
899.003	0.68
899.173	12.97
899.343	-7.51
899.513	-34.13
