Data from USB4F104151__67__12-36-36-155.txt Node

Date: Fri Mar 14 12:36:36 EDT 2025
User: louis
Spectrometer: USB4F10415
Trigger mode: 4
Integration Time (sec): 2.000000E-2
Scans to average: 1
Electric dark correction enabled: true
Nonlinearity correction enabled: false
Boxcar width: 0
XAxis mode: Wavelengths
Number of Pixels in Spectrum: 3648
>>>>>Begin Spectral Data<<<<<
178.204	-25.6
178.424	-25.6
178.644	-25.6
178.864	-89.09
179.084	-15.36
179.304	-3.07
179.524	-33.79
179.744	-23.55
179.964	48.13
180.184	-25.6
180.404	-37.89
180.624	-11.26
180.844	-35.84
181.064	-52.22
181.283	113.66
181.503	25.6
181.723	35.84
181.943	54.27
182.163	72.7
182.383	56.32
182.602	93.18
182.822	68.61
183.042	-5.12
183.262	48.13
183.482	89.09
183.701	35.84
183.921	109.57
184.141	46.08
184.361	33.79
184.58	21.5
184.8	68.61
185.02	-1.02
185.239	101.37
185.459	103.42
185.679	37.89
185.898	52.22
186.118	54.27
186.338	33.79
186.557	37.89
186.777	117.76
186.997	101.37
187.216	76.8
187.436	91.13
187.655	50.18
187.875	70.65
188.095	66.56
188.314	95.23
188.534	95.23
188.753	93.18
188.973	105.47
189.192	87.04
189.412	62.46
189.631	109.57
189.851	39.94
190.07	66.56
190.29	-44.03
190.509	64.51
190.729	97.28
190.948	66.56
191.168	166.91
191.387	50.18
191.607	19.46
191.826	-7.17
192.045	48.13
192.265	74.75
192.484	95.23
192.704	103.42
192.923	23.55
193.142	74.75
193.362	136.19
193.581	37.89
193.8	87.04
194.02	52.22
194.239	113.66
194.458	35.84
194.678	21.5
194.897	35.84
195.116	31.74
195.335	109.57
195.555	60.42
195.774	130.05
195.993	72.7
196.212	87.04
196.432	72.7
196.651	39.94
196.87	5.12
197.089	107.52
197.308	99.33
197.528	84.99
197.747	15.36
197.966	25.6
198.185	99.33
198.404	33.79
198.623	48.13
198.842	74.75
199.062	60.42
199.281	54.27
199.5	3.07
199.719	60.42
199.938	46.08
200.157	87.04
200.376	9.22
200.595	125.95
200.814	52.22
201.033	-29.7
201.252	93.18
201.471	37.89
201.69	70.65
201.909	99.33
202.128	105.47
202.347	50.18
202.566	25.6
202.785	68.61
203.004	29.7
203.223	168.96
203.442	41.98
203.661	128
203.879	103.42
204.098	66.56
204.317	13.31
204.536	44.03
204.755	89.09
204.974	39.94
205.193	37.89
205.411	44.03
205.63	60.42
205.849	76.8
206.068	109.57
206.287	76.8
206.505	31.74
206.724	-15.36
206.943	48.13
207.162	44.03
207.381	62.46
207.599	35.84
207.818	31.74
208.037	60.42
208.255	60.42
208.474	138.24
208.693	64.51
208.911	93.18
209.13	44.03
209.349	41.98
209.567	80.89
209.786	74.75
210.005	9.22
210.223	58.37
210.442	52.22
210.661	52.22
210.879	64.51
211.098	31.74
211.316	-31.74
211.535	11.26
211.753	44.03
211.972	23.55
212.191	44.03
212.409	82.94
212.628	91.13
212.846	58.37
213.065	23.55
213.283	107.52
213.502	64.51
213.72	33.79
213.938	152.57
214.157	56.32
214.375	62.46
214.594	111.61
214.812	46.08
215.031	101.37
215.249	78.85
215.467	39.94
215.686	33.79
215.904	140.29
216.122	68.61
216.341	97.28
216.559	41.98
216.778	89.09
216.996	3.07
217.214	15.36
217.432	17.41
217.651	50.18
217.869	39.94
218.087	35.84
218.306	54.27
218.524	148.48
218.742	25.6
218.96	50.18
219.179	76.8
219.397	56.32
219.615	97.28
219.833	74.75
220.051	5.12
220.27	130.05
220.488	66.56
220.706	25.6
220.924	11.26
221.142	78.85
221.36	52.22
221.578	19.46
221.796	37.89
222.015	68.61
222.233	66.56
222.451	21.5
222.669	-15.36
222.887	191.49
223.105	113.66
223.323	84.99
223.541	58.37
223.759	82.94
223.977	99.33
224.195	91.13
224.413	46.08
224.631	68.61
224.849	1.02
225.067	113.66
225.285	-1.02
225.503	105.47
225.721	-1.02
225.939	107.52
226.157	80.89
226.375	93.18
226.592	52.22
226.81	44.03
227.028	72.7
227.246	60.42
227.464	76.8
227.682	50.18
227.9	107.52
228.117	50.18
228.335	89.09
228.553	87.04
228.771	66.56
228.989	99.33
229.206	50.18
229.424	72.7
229.642	3.07
229.86	58.37
230.077	-3.07
230.295	-15.36
230.513	89.09
230.731	134.14
230.948	-17.41
231.166	66.56
231.384	39.94
231.601	3.07
231.819	58.37
232.037	78.85
232.254	17.41
232.472	101.37
232.689	-11.26
232.907	-1.02
233.125	68.61
233.342	31.74
233.56	48.13
233.777	78.85
233.995	66.56
234.213	78.85
234.43	31.74
234.648	-5.12
234.865	25.6
235.083	76.8
235.3	119.81
235.518	134.14
235.735	97.28
235.953	130.05
236.17	37.89
236.388	33.79
236.605	39.94
236.822	58.37
237.04	13.31
237.257	80.89
237.475	37.89
237.692	17.41
237.909	74.75
238.127	78.85
238.344	78.85
238.562	95.23
238.779	17.41
238.996	58.37
239.214	89.09
239.431	84.99
239.648	87.04
239.865	95.23
240.083	87.04
240.3	-21.5
240.517	44.03
240.735	35.84
240.952	103.42
241.169	93.18
241.386	91.13
241.603	80.89
241.821	91.13
242.038	54.27
242.255	64.51
242.472	31.74
242.689	99.33
242.907	15.36
243.124	87.04
243.341	35.84
243.558	115.71
243.775	103.42
243.992	54.27
244.209	78.85
244.426	95.23
244.643	27.65
244.86	37.89
245.078	109.57
245.295	164.86
245.512	58.37
245.729	19.46
245.946	-13.31
246.163	50.18
246.38	209.92
246.597	37.89
246.814	52.22
247.031	46.08
247.248	54.27
247.464	76.8
247.681	31.74
247.898	93.18
248.115	95.23
248.332	11.26
248.549	82.94
248.766	33.79
248.983	70.65
249.2	91.13
249.417	68.61
249.633	41.98
249.85	54.27
250.067	54.27
250.284	107.52
250.501	19.46
250.717	76.8
250.934	64.51
251.151	7.17
251.368	29.7
251.585	66.56
251.801	68.61
252.018	68.61
252.235	25.6
252.451	95.23
252.668	-1.02
252.885	84.99
253.102	21.5
253.318	23.55
253.535	125.95
253.752	68.61
253.968	29.7
254.185	109.57
254.401	11.26
254.618	74.75
254.835	44.03
255.051	99.33
255.268	95.23
255.484	115.71
255.701	130.05
255.917	101.37
256.134	-3.07
256.351	78.85
256.567	66.56
256.784	95.23
257	17.41
257.217	37.89
257.433	25.6
257.65	48.13
257.866	93.18
258.082	54.27
258.299	29.7
258.515	136.19
258.732	76.8
258.948	13.31
259.165	17.41
259.381	84.99
259.597	13.31
259.814	70.65
260.03	62.46
260.246	82.94
260.463	134.14
260.679	111.61
260.895	99.33
261.112	138.24
261.328	7.17
261.544	50.18
261.761	128
261.977	62.46
262.193	41.98
262.409	74.75
262.626	62.46
262.842	60.42
263.058	-41.98
263.274	87.04
263.49	1.02
263.707	27.65
263.923	115.71
264.139	56.32
264.355	52.22
264.571	101.37
264.787	105.47
265.004	97.28
265.22	27.65
265.436	70.65
265.652	33.79
265.868	80.89
266.084	-72.7
266.3	82.94
266.516	54.27
266.732	125.95
266.948	74.75
267.164	35.84
267.38	72.7
267.596	48.13
267.812	60.42
268.028	95.23
268.244	39.94
268.46	46.08
268.676	76.8
268.892	37.89
269.108	80.89
269.324	95.23
269.54	44.03
269.756	97.28
269.972	35.84
270.188	50.18
270.403	52.22
270.619	48.13
270.835	48.13
271.051	128
271.267	50.18
271.483	13.31
271.698	64.51
271.914	72.7
272.13	125.95
272.346	21.5
272.562	70.65
272.777	97.28
272.993	39.94
273.209	76.8
273.425	17.41
273.64	66.56
273.856	39.94
274.072	25.6
274.287	80.89
274.503	62.46
274.719	95.23
274.934	58.37
275.15	-5.12
275.366	76.8
275.581	125.95
275.797	119.81
276.012	7.17
276.228	50.18
276.444	60.42
276.659	101.37
276.875	82.94
277.09	130.05
277.306	80.89
277.521	115.71
277.737	52.22
277.952	64.51
278.168	68.61
278.383	93.18
278.599	54.27
278.814	21.5
279.03	48.13
279.245	70.65
279.461	-50.18
279.676	37.89
279.892	35.84
280.107	62.46
280.322	27.65
280.538	84.99
280.753	41.98
280.969	91.13
281.184	66.56
281.399	74.75
281.615	9.22
281.83	125.95
282.045	-15.36
282.26	19.46
282.476	58.37
282.691	113.66
282.906	23.55
283.122	74.75
283.337	62.46
283.552	128
283.767	87.04
283.983	58.37
284.198	109.57
284.413	91.13
284.628	50.18
284.843	29.7
285.058	132.09
285.274	87.04
285.489	46.08
285.704	87.04
285.919	56.32
286.134	48.13
286.349	52.22
286.564	60.42
286.779	111.61
286.995	95.23
287.21	103.42
287.425	175.1
287.64	41.98
287.855	111.61
288.07	35.84
288.285	70.65
288.5	117.76
288.715	121.85
288.93	89.09
289.145	29.7
289.36	68.61
289.575	99.33
289.79	31.74
290.004	58.37
290.219	72.7
290.434	54.27
290.649	125.95
290.864	-9.22
291.079	-17.41
291.294	101.37
291.509	64.51
291.724	99.33
291.938	119.81
292.153	80.89
292.368	-1.02
292.583	70.65
292.798	119.81
293.012	46.08
293.227	101.37
293.442	121.85
293.657	39.94
293.871	134.14
294.086	39.94
294.301	87.04
294.516	72.7
294.73	31.74
294.945	29.7
295.16	37.89
295.374	68.61
295.589	128
295.804	72.7
296.018	80.89
296.233	121.85
296.447	78.85
296.662	25.6
296.877	72.7
297.091	82.94
297.306	52.22
297.52	11.26
297.735	25.6
297.949	37.89
298.164	89.09
298.378	46.08
298.593	41.98
298.807	56.32
299.022	119.81
299.236	58.37
299.451	48.13
299.665	33.79
299.88	-19.46
300.094	80.89
300.309	99.33
300.523	11.26
300.737	82.94
300.952	17.41
301.166	39.94
301.381	148.48
301.595	5.12
301.809	60.42
302.024	35.84
302.238	17.41
302.452	64.51
302.667	93.18
302.881	156.67
303.095	148.48
303.309	107.52
303.524	76.8
303.738	56.32
303.952	101.37
304.166	91.13
304.381	58.37
304.595	70.65
304.809	37.89
305.023	80.89
305.237	33.79
305.452	21.5
305.666	15.36
305.88	158.72
306.094	78.85
306.308	54.27
306.522	37.89
306.736	107.52
306.95	35.84
307.164	95.23
307.379	144.38
307.593	64.51
307.807	109.57
308.021	109.57
308.235	142.33
308.449	66.56
308.663	84.99
308.877	80.89
309.091	91.13
309.305	33.79
309.519	9.22
309.733	132.09
309.947	1.02
310.161	134.14
310.374	62.46
310.588	123.9
310.802	109.57
311.016	48.13
311.23	95.23
311.444	74.75
311.658	82.94
311.872	80.89
312.085	113.66
312.299	78.85
312.513	39.94
312.727	46.08
312.941	44.03
313.154	78.85
313.368	58.37
313.582	82.94
313.796	80.89
314.009	1.02
314.223	37.89
314.437	13.31
314.651	70.65
314.864	52.22
315.078	62.46
315.292	48.13
315.505	50.18
315.719	70.65
315.933	7.17
316.146	56.32
316.36	31.74
316.573	93.18
316.787	70.65
317.001	64.51
317.214	41.98
317.428	37.89
317.641	103.42
317.855	58.37
318.068	115.71
318.282	60.42
318.495	109.57
318.709	60.42
318.922	60.42
319.136	76.8
319.349	128
319.563	52.22
319.776	91.13
319.99	33.79
320.203	111.61
320.417	82.94
320.63	99.33
320.843	146.43
321.057	27.65
321.27	87.04
321.483	33.79
321.697	164.86
321.91	115.71
322.124	66.56
322.337	41.98
322.55	84.99
322.763	115.71
322.977	97.28
323.19	39.94
323.403	19.46
323.617	25.6
323.83	111.61
324.043	-15.36
324.256	54.27
324.469	68.61
324.683	-7.17
324.896	27.65
325.109	132.09
325.322	97.28
325.535	82.94
325.748	138.24
325.962	74.75
326.175	44.03
326.388	82.94
326.601	21.5
326.814	111.61
327.027	44.03
327.24	99.33
327.453	46.08
327.666	35.84
327.879	80.89
328.092	39.94
328.305	44.03
328.518	62.46
328.731	74.75
328.944	44.03
329.157	130.05
329.37	109.57
329.583	56.32
329.796	150.53
330.009	93.18
330.222	136.19
330.435	64.51
330.648	87.04
330.861	80.89
331.073	109.57
331.286	107.52
331.499	72.7
331.712	109.57
331.925	76.8
332.138	46.08
332.35	25.6
332.563	76.8
332.776	101.37
332.989	-1.02
333.202	101.37
333.414	109.57
333.627	74.75
333.84	89.09
334.053	3.07
334.265	152.57
334.478	44.03
334.691	41.98
334.903	150.53
335.116	17.41
335.329	123.9
335.541	89.09
335.754	82.94
335.966	111.61
336.179	107.52
336.392	31.74
336.604	93.18
336.817	103.42
337.029	58.37
337.242	78.85
337.454	31.74
337.667	119.81
337.88	117.76
338.092	105.47
338.305	70.65
338.517	29.7
338.729	150.53
338.942	60.42
339.154	11.26
339.367	17.41
339.579	74.75
339.792	107.52
340.004	117.76
340.217	89.09
340.429	142.33
340.641	41.98
340.854	60.42
341.066	41.98
341.278	111.61
341.491	52.22
341.703	99.33
341.915	19.46
342.128	105.47
342.34	68.61
342.552	54.27
342.764	41.98
342.977	119.81
343.189	84.99
343.401	48.13
343.613	37.89
343.826	105.47
344.038	80.89
344.25	84.99
344.462	52.22
344.674	64.51
344.886	37.89
345.099	119.81
345.311	74.75
345.523	74.75
345.735	62.46
345.947	101.37
346.159	113.66
346.371	111.61
346.583	93.18
346.795	68.61
347.007	111.61
347.219	134.14
347.431	52.22
347.643	119.81
347.855	64.51
348.067	21.5
348.279	37.89
348.491	31.74
348.703	130.05
348.915	95.23
349.127	99.33
349.339	134.14
349.551	25.6
349.763	78.85
349.975	111.61
350.187	84.99
350.399	123.9
350.61	119.81
350.822	29.7
351.034	74.75
351.246	72.7
351.458	87.04
351.669	103.42
351.881	111.61
352.093	136.19
352.305	87.04
352.517	119.81
352.728	91.13
352.94	82.94
353.152	117.76
353.363	89.09
353.575	68.61
353.787	111.61
353.999	64.51
354.21	82.94
354.422	115.71
354.633	44.03
354.845	17.41
355.057	58.37
355.268	123.9
355.48	95.23
355.692	19.46
355.903	113.66
356.115	142.33
356.326	76.8
356.538	144.38
356.749	136.19
356.961	128
357.172	99.33
357.384	158.72
357.595	66.56
357.807	87.04
358.018	72.7
358.23	105.47
358.441	115.71
358.653	109.57
358.864	99.33
359.075	105.47
359.287	33.79
359.498	138.24
359.709	54.27
359.921	160.77
360.132	132.09
360.344	142.33
360.555	148.48
360.766	39.94
360.977	33.79
361.189	101.37
361.4	117.76
361.611	97.28
361.823	156.67
362.034	33.79
362.245	74.75
362.456	82.94
362.667	46.08
362.879	93.18
363.09	50.18
363.301	119.81
363.512	66.56
363.723	58.37
363.935	44.03
364.146	144.38
364.357	117.76
364.568	95.23
364.779	76.8
364.99	15.36
365.201	128
365.412	148.48
365.623	27.65
365.834	99.33
366.045	140.29
366.256	89.09
366.467	84.99
366.678	115.71
366.889	31.74
367.1	95.23
367.311	107.52
367.522	156.67
367.733	154.62
367.944	113.66
368.155	119.81
368.366	125.95
368.577	46.08
368.788	142.33
368.999	103.42
369.209	50.18
369.42	115.71
369.631	216.06
369.842	87.04
370.053	101.37
370.264	64.51
370.474	78.85
370.685	68.61
370.896	109.57
371.107	95.23
371.317	82.94
371.528	46.08
371.739	152.57
371.95	103.42
372.16	101.37
372.371	33.79
372.582	87.04
372.792	138.24
373.003	52.22
373.214	99.33
373.424	76.8
373.635	103.42
373.846	150.53
374.056	87.04
374.267	50.18
374.477	31.74
374.688	142.33
374.898	150.53
375.109	52.22
375.319	82.94
375.53	105.47
375.74	154.62
375.951	44.03
376.161	130.05
376.372	142.33
376.582	15.36
376.793	62.46
377.003	39.94
377.214	125.95
377.424	117.76
377.635	130.05
377.845	68.61
378.055	101.37
378.266	44.03
378.476	105.47
378.686	48.13
378.897	23.55
379.107	101.37
379.317	138.24
379.528	99.33
379.738	113.66
379.948	70.65
380.158	201.72
380.369	91.13
380.579	64.51
380.789	119.81
380.999	177.15
381.21	52.22
381.42	103.42
381.63	68.61
381.84	119.81
382.05	125.95
382.261	80.89
382.471	84.99
382.681	84.99
382.891	156.67
383.101	154.62
383.311	74.75
383.521	119.81
383.731	144.38
383.941	99.33
384.151	125.95
384.361	78.85
384.571	95.23
384.781	74.75
384.991	111.61
385.201	107.52
385.411	87.04
385.621	101.37
385.831	109.57
386.041	138.24
386.251	82.94
386.461	84.99
386.671	80.89
386.881	91.13
387.091	54.27
387.301	62.46
387.511	58.37
387.72	35.84
387.93	91.13
388.14	136.19
388.35	123.9
388.56	162.81
388.769	179.2
388.979	58.37
389.189	41.98
389.399	173.05
389.609	142.33
389.818	95.23
390.028	134.14
390.238	76.8
390.447	117.76
390.657	164.86
390.867	140.29
391.076	160.77
391.286	115.71
391.496	138.24
391.705	46.08
391.915	97.28
392.125	146.43
392.334	160.77
392.544	105.47
392.753	134.14
392.963	128
393.172	160.77
393.382	35.84
393.591	154.62
393.801	166.91
394.01	168.96
394.22	177.15
394.429	160.77
394.639	203.77
394.848	140.29
395.058	99.33
395.267	144.38
395.477	187.39
395.686	181.25
395.895	150.53
396.105	252.92
396.314	152.57
396.524	152.57
396.733	185.34
396.942	128
397.152	269.31
397.361	244.73
397.57	175.1
397.78	189.44
397.989	203.77
398.198	142.33
398.407	166.91
398.617	201.72
398.826	123.9
399.035	138.24
399.244	214.01
399.453	111.61
399.663	191.49
399.872	195.58
400.081	132.09
400.29	228.35
400.499	246.78
400.708	152.57
400.917	113.66
401.127	222.2
401.336	132.09
401.545	232.44
401.754	142.33
401.963	177.15
402.172	189.44
402.381	179.2
402.59	171.01
402.799	242.68
403.008	205.82
403.217	240.64
403.426	185.34
403.635	152.57
403.844	216.06
404.053	287.74
404.262	300.03
404.471	322.56
404.68	158.72
404.888	306.17
405.097	162.81
405.306	242.68
405.515	242.68
405.724	220.16
405.933	347.13
406.142	214.01
406.35	275.45
406.559	242.68
406.768	295.93
406.977	379.9
407.185	338.94
407.394	320.51
407.603	293.88
407.812	412.67
408.02	386.04
408.229	283.64
408.438	400.38
408.646	424.95
408.855	355.32
409.064	476.15
409.272	404.47
409.481	410.62
409.69	424.95
409.898	478.2
410.107	420.86
410.315	498.68
410.524	508.92
410.733	504.82
410.941	478.2
411.15	576.5
411.358	590.84
411.567	607.22
411.775	594.93
411.984	611.32
412.192	670.71
412.401	672.76
412.609	709.62
412.818	707.57
413.026	748.53
413.234	785.4
413.443	771.06
413.651	809.97
413.86	844.79
414.068	967.67
414.276	883.7
414.485	961.52
414.693	918.51
414.901	1037.3
415.11	1039.34
415.318	1051.63
415.526	1080.3
415.734	1111.02
415.943	1197.04
416.151	1201.13
416.359	1281
416.567	1338.35
416.776	1342.44
416.984	1389.55
417.192	1385.45
417.4	1551.34
417.608	1407.98
417.817	1594.34
418.025	1631.21
418.233	1717.22
418.441	1672.17
418.649	1758.18
418.857	1889.25
419.065	1854.44
419.273	1848.29
419.481	2110.43
419.689	2069.47
419.897	2266.08
420.105	2241.5
420.313	2280.41
420.521	2417.63
420.729	2491.35
420.937	2474.97
421.145	2618.33
421.353	2626.52
421.561	2851.8
421.769	2843.6
421.977	3126.22
422.185	2853.84
422.393	3132.37
422.601	3359.69
422.809	3249.1
423.017	3320.78
423.224	3587.02
423.432	3623.88
423.64	3736.52
423.848	3922.88
424.056	3922.88
424.263	4182.98
424.471	4225.98
424.679	4295.61
424.887	4725.69
425.094	4828.09
425.302	4572.09
425.51	4793.27
425.718	5196.72
425.925	5075.89
426.133	5317.55
426.341	5467.05
426.548	5882.79
426.756	5786.54
426.964	5815.21
427.171	6192.03
427.379	6372.25
427.586	6486.94
427.794	6667.16
428.001	7111.57
428.209	7170.96
428.417	7332.75
428.624	7746.44
428.832	7754.63
429.039	7771.02
429.247	7719.82
429.454	8336.26
429.662	8907.64
429.869	8518.53
430.076	9048.95
430.284	8629.12
430.491	9311.09
430.699	9649
430.906	9681.77
431.114	9761.64
431.321	10066.79
431.528	10593.12
431.736	11021.14
431.943	11332.44
432.15	11391.83
432.358	11236.18
432.565	11967.31
432.772	11928.39
432.979	12487.49
433.187	12608.32
433.394	12868.41
433.601	13740.85
433.808	13785.9
434.016	13574.96
434.223	14275.37
434.43	14813.98
434.637	14801.69
434.844	15633.17
435.052	16139.02
435.259	15885.07
435.466	16179.98
435.673	15754
435.88	16925.44
436.087	17740.53
436.294	17900.27
436.501	17201.91
436.708	17765.1
436.915	18586.34
437.122	19210.97
437.329	19014.37
437.537	19669.72
437.743	20300.49
437.95	19739.35
438.157	21088.96
438.364	21779.12
438.571	21445.3
438.778	21723.83
438.985	23591.58
439.192	22946.47
439.399	23722.65
439.606	22930.08
439.813	24320.65
440.02	25768.57
440.227	25463.42
440.433	24951.43
440.64	26126.96
440.847	25670.26
441.054	26872.42
441.261	28207.7
441.467	27544.16
441.674	28336.72
441.881	29581.88
442.088	29067.84
442.294	29033.03
442.501	29893.18
442.708	30624.3
442.914	31744.54
443.121	32911.88
443.328	31969.82
443.534	34023.93
443.741	33511.94
443.948	33092.1
444.154	35248.61
444.361	35271.14
444.568	35181.03
444.774	35490.27
444.981	35758.56
445.187	36966.86
445.394	38412.73
445.6	37878.21
445.807	41324.94
446.013	39768.48
446.22	40649.11
446.426	41781.63
446.633	42137.98
446.839	43489.64
447.046	41869.7
447.252	44495.19
447.459	44427.61
447.665	43989.34
447.871	45853
448.078	47536.43
448.284	45846.85
448.491	46860.6
448.697	49193.23
448.903	49781
449.11	49834.25
449.316	48892.18
449.522	49615.11
449.728	51120.37
449.935	51106.04
450.141	51632.36
450.347	52418.78
450.553	50761.98
450.76	51628.27
450.966	53211.35
451.172	52617.44
451.378	54046.92
451.584	53094.61
451.791	54241.48
451.997	53633.23
452.203	54806.72
452.409	54872.25
452.615	54579.39
452.821	52562.14
453.027	52252.9
453.233	54503.62
453.44	52566.24
453.646	53211.35
453.852	53612.75
454.058	54302.92
454.264	52453.6
454.47	53872.84
454.676	52377.82
454.882	54679.74
455.088	50032.9
455.294	50338.05
455.5	51513.58
455.705	51716.33
455.911	50090.24
456.117	49336.59
456.323	48171.3
456.529	46106.94
456.735	47866.15
456.941	46758.2
457.147	45775.17
457.352	43927.91
457.558	44044.64
457.764	43540.84
457.97	43159.92
458.176	42158.46
458.381	42146.17
458.587	40352.15
458.793	40515.99
458.999	37925.31
459.204	41163.15
459.41	40100.25
459.616	37161.42
459.821	37319.11
460.027	37724.61
460.233	36327.89
460.438	34501.11
460.644	34886.12
460.85	33436.16
461.055	33141.25
461.261	32539.15
461.466	30280.24
461.672	29323.84
461.878	31328.8
462.083	29557.31
462.289	29024.84
462.494	28768.84
462.7	27542.11
462.905	26677.86
463.111	27517.53
463.316	27892.31
463.522	27073.12
463.727	26892.9
463.932	26868.33
464.138	26614.38
464.343	26778.22
464.549	26165.87
464.754	26858.09
464.959	26610.28
465.165	26798.7
465.37	25555.58
465.575	24638.09
465.781	25803.38
465.986	26362.48
466.191	25330.3
466.397	24244.88
466.602	23186.08
466.807	24291.98
467.012	24124.05
467.218	23947.92
467.423	23986.83
467.628	23653.02
467.833	25303.68
468.038	23728.79
468.244	23583.38
468.449	24455.82
468.654	23278.24
468.859	22960.8
469.064	23034.53
469.269	22143.66
469.474	22317.74
469.679	22485.67
469.885	22162.09
470.09	22340.27
470.295	22430.38
470.5	21922.48
470.705	21924.53
470.91	21527.22
471.115	21338.81
471.32	21785.27
471.525	21451.45
471.73	20921.02
471.935	21127.87
472.139	20220.62
472.344	20427.46
472.549	20216.52
472.754	20314.83
472.959	19628.76
473.164	18987.74
473.369	19129.05
473.574	19692.24
473.778	19563.22
473.983	18995.93
474.188	19061.47
474.393	18442.98
474.598	18508.52
474.802	17992.43
475.007	18049.77
475.212	18148.08
475.417	17421.05
475.621	17601.27
475.826	17648.37
476.031	17163
476.235	16919.29
476.44	17087.23
476.645	16634.63
476.849	16812.8
477.054	16509.7
477.259	16464.64
477.463	16270.09
477.668	15991.56
477.872	16048.91
478.077	15704.85
478.282	15446.8
478.486	15366.93
478.691	15010.59
478.895	15096.6
479.1	15307.54
479.304	14949.15
479.509	14662.43
479.713	14912.28
479.918	14734.11
480.122	14375.72
480.326	14445.35
480.531	14625.57
480.735	14521.12
480.94	14334.76
481.144	14756.64
481.348	14099.24
481.553	14242.6
481.757	14023.47
481.961	14195.5
482.166	14332.71
482.37	14078.76
482.574	13886.25
482.778	13882.16
482.983	14263.08
483.187	13978.41
483.391	14082.86
483.595	14009.13
483.8	13869.87
484.004	13996.84
484.208	14138.15
484.412	14267.17
484.616	13882.16
484.821	14314.28
485.025	14019.37
485.229	13925.16
485.433	13880.11
485.637	14043.95
485.841	14000.94
486.045	13847.34
486.249	14189.35
486.453	13730.61
486.657	13925.16
486.861	14099.24
487.065	13490.99
487.269	13798.19
487.473	13822.77
487.677	14015.27
487.881	14041.9
488.085	13773.61
488.289	14168.87
488.493	14074.67
488.697	14134.06
488.901	14101.29
489.105	14045.99
489.309	14314.28
489.512	14129.96
489.716	14261.03
489.92	14271.27
490.124	14095.14
490.328	14279.46
490.531	14367.52
490.735	14457.64
490.939	14469.92
491.143	14369.57
491.346	14568.23
491.55	14279.46
491.754	14531.36
491.958	14797.6
492.161	14766.88
492.365	14754.59
492.569	14648.1
492.772	14658.34
492.976	14922.52
493.18	14656.29
493.383	15080.22
493.587	14957.34
493.79	15498
493.994	15178.52
494.197	15305.49
494.401	15313.69
494.605	15287.06
494.808	15690.51
495.012	15764.24
495.215	15915.79
495.419	16046.86
495.622	15997.71
495.825	16110.35
496.029	16247.56
496.232	16655.11
496.436	16565
496.639	16960.25
496.843	16726.78
497.046	17361.66
497.249	17169.15
497.453	17091.32
497.656	17328.89
497.859	17734.39
498.063	17767.15
498.266	18072.3
498.469	18135.79
498.673	18146.03
498.876	18420.45
499.079	18733.79
499.282	18705.12
499.485	19057.37
499.689	19108.57
499.892	19448.54
500.095	19579.61
500.298	19878.61
500.501	19571.41
500.705	20421.32
500.908	20667.08
501.111	20613.83
501.314	20910.78
501.517	21017.28
501.72	21459.64
501.923	21625.53
502.126	21795.51
502.329	22209.2
502.532	22231.72
502.735	22475.43
502.938	22880.93
503.141	23067.3
503.344	23472.79
503.547	23464.6
503.75	23818.9
503.953	24136.34
504.156	24378
504.359	24332.94
504.562	24529.55
504.765	25203.33
504.968	25148.03
505.17	25563.77
505.373	25649.78
505.576	25807.48
505.779	26380.91
505.982	26167.92
506.185	27034.21
506.387	26868.33
506.59	27558.49
506.793	27714.14
506.996	27796.06
507.198	28437.07
507.401	28410.45
507.604	28385.87
507.807	28897.86
508.009	29418.05
508.212	29481.53
508.415	29942.33
508.617	30489.13
508.82	30474.8
509.022	30399.02
509.225	30941.74
509.428	31365.67
509.63	31640.09
509.833	31611.42
510.035	32586.25
510.238	32066.07
510.44	32674.32
510.643	32784.91
510.845	33825.28
511.048	33677.82
511.25	33745.41
511.453	34318.84
511.655	35617.25
511.858	35103.21
512.06	34849.26
512.262	35492.32
512.465	35475.94
512.667	36047.32
512.87	36370.9
513.072	36600.27
513.274	36975.05
513.477	37507.52
513.679	37673.41
513.881	37910.97
514.084	38136.25
514.286	38685.11
514.488	38685.11
514.69	39807.39
514.893	39831.97
515.095	40124.83
515.297	40354.2
515.499	40882.58
515.701	40909.2
515.904	41398.66
516.106	41681.28
516.308	42017.15
516.51	42836.34
516.712	42498.42
516.914	42961.26
517.116	43725.16
517.318	43305.32
517.52	44134.75
517.722	44591.45
517.925	44642.65
518.127	44917.07
518.329	45586.76
518.531	45482.31
518.733	46408
518.935	46692.66
519.136	46262.59
519.338	47089.97
519.54	47223.09
519.742	47524.14
519.944	48044.32
520.146	48460.06
520.348	48773.4
520.55	48720.15
520.752	49254.67
520.954	49752.33
521.155	49645.83
521.357	50006.28
521.559	50536.7
521.761	50825.46
521.963	51267.83
522.164	51304.69
522.366	51796.2
522.568	52261.09
522.77	52001
522.971	52965.59
523.173	52480.22
523.375	53248.21
523.576	53209.3
523.778	53123.29
523.98	54124.74
524.181	54405.31
524.383	54431.94
524.584	55206.07
524.786	55212.21
524.988	54587.58
525.189	55255.22
525.391	55740.59
525.592	55646.38
525.794	55900.33
525.995	56084.65
526.197	56471.71
526.398	56330.4
526.6	56686.75
526.801	56641.7
527.003	57200.79
527.204	56838.3
527.406	57927.82
527.607	57448.6
527.808	58220.68
528.01	57098.39
528.211	57833.61
528.412	58818.69
528.614	57895.05
528.815	58210.44
529.016	58886.27
529.218	58493.06
529.419	58585.22
529.62	58708.1
529.822	58685.57
530.023	58519.68
530.224	59132.03
530.425	59142.27
530.626	58335.37
530.828	58843.26
531.029	59820.14
531.23	58974.33
531.431	59443.32
531.632	59844.72
531.833	59861.1
532.035	59172.99
532.236	59676.79
532.437	59742.32
532.638	59465.84
532.839	59340.92
533.04	59934.83
533.241	59064.44
533.442	60614.76
533.643	60078.19
533.844	60162.15
534.045	60076.14
534.246	59691.12
534.447	60129.39
534.648	59613.3
534.849	60106.86
535.05	59488.37
535.251	59922.54
535.451	59770.99
535.652	60090.48
535.853	59877.49
536.054	60010.6
536.255	60485.73
536.456	59543.67
536.657	60334.18
536.857	60225.64
537.058	59768.94
537.259	59994.22
537.46	60123.24
537.66	59922.54
537.861	60100.71
538.062	59730.03
538.263	60008.56
538.463	59234.42
538.664	59635.83
538.865	60045.42
539.065	60131.43
539.266	59465.84
539.466	60008.56
539.667	59121.79
539.868	60223.59
540.068	59918.45
540.269	59564.15
540.469	59916.4
540.67	59725.94
540.87	59717.74
541.071	59617.39
541.271	59922.54
541.472	59773.04
541.672	59795.57
541.873	59652.21
542.073	59013.24
542.274	60117.1
542.474	59621.49
542.675	59183.22
542.875	60088.43
543.075	59476.08
543.276	58558.59
543.476	59766.9
543.676	59441.27
543.877	59574.39
544.077	59293.82
544.277	59172.99
544.478	59431.03
544.678	59320.44
544.878	59461.75
545.078	59582.58
545.279	59134.07
545.479	59230.33
545.679	59089.02
545.879	59451.51
546.079	59687.03
546.28	59111.55
546.48	58771.58
546.68	59304.06
546.88	59650.16
547.08	59414.65
547.28	59246.71
547.48	58900.61
547.68	59197.56
547.88	58914.94
548.081	59127.93
548.281	58814.59
548.481	58974.33
548.681	59070.59
548.881	59228.28
549.081	58822.78
549.28	58656.9
549.48	59328.63
549.68	58648.71
549.88	59506.8
550.08	58810.49
550.28	58865.79
550.48	58855.55
550.68	59070.59
550.88	58265.73
551.08	58753.15
551.279	59158.65
551.479	58595.46
551.679	59089.02
551.879	58853.5
552.079	59175.03
552.278	58165.38
552.478	58742.91
552.678	58400.9
552.878	58929.28
553.077	58800.25
553.277	58054.79
553.477	58878.08
553.676	58503.3
553.876	58329.22
554.076	58607.75
554.275	58390.66
554.475	57835.66
554.674	58042.51
554.874	58226.82
555.074	58194.06
555.273	58517.64
555.473	58714.24
555.672	58024.07
555.872	58361.99
556.071	58368.13
556.271	58298.5
556.47	57862.29
556.67	57704.59
556.869	57985.16
557.068	58017.93
557.268	57657.49
557.467	57585.81
557.667	57479.31
557.866	57608.34
558.065	57696.4
558.265	57438.36
558.464	57305.24
558.663	57888.91
558.863	57362.58
559.062	58054.79
559.261	57088.15
559.461	58058.89
559.66	57272.47
559.859	57288.85
560.058	56780.96
560.258	57278.61
560.457	56653.98
560.656	57211.03
560.855	56723.61
561.054	56795.29
561.253	56475.81
561.453	56869.02
561.652	56969.37
561.851	56621.22
562.05	56225.96
562.249	56191.14
562.448	57047.19
562.647	56096.94
562.846	56127.66
563.045	56088.74
563.244	55767.21
563.443	56301.73
563.642	55685.29
563.841	56187.05
564.04	55675.05
564.239	56549.54
564.438	55578.8
564.637	55775.4
564.836	55994.54
565.035	55101.62
565.234	55531.7
565.432	54952.12
565.631	55222.45
565.83	55261.36
566.029	55046.33
566.228	55173.3
566.427	54452.42
566.625	54749.37
566.824	53795.02
567.023	54630.59
567.222	53864.65
567.42	54888.63
567.619	54585.54
567.818	54386.88
568.016	54264
568.215	54520
568.414	53874.89
568.612	54370.5
568.811	53995.72
569.01	53883.08
569.208	53553.36
569.407	53872.84
569.605	53188.82
569.804	53893.32
570.002	53012.7
570.201	53270.74
570.4	52820.19
570.598	52799.71
570.797	52484.32
570.995	52437.22
571.193	52062.44
571.392	52644.06
571.59	52584.67
571.789	52449.5
571.987	52621.53
572.186	52009.19
572.384	52160.74
572.582	52566.24
572.781	52130.02
572.979	51472.62
573.177	51919.08
573.376	51869.93
573.574	51421.42
573.772	51568.88
573.971	51224.82
574.169	51359.98
574.367	51052.79
574.565	51220.72
574.763	51011.83
574.962	50956.53
575.16	50342.14
575.358	50784.51
575.556	50028.8
575.754	50888.95
575.952	49621.26
576.151	50641.15
576.349	49588.49
576.547	50108.68
576.745	49604.88
576.943	49590.54
577.141	49856.78
577.339	49619.21
577.537	49344.78
577.735	49342.74
577.933	49379.6
578.131	49453.33
578.329	48603.42
578.527	48888.09
578.725	48824.6
578.923	48795.93
579.121	48541.98
579.319	48535.84
579.516	48693.53
579.714	48331.04
579.912	48081.19
580.11	48167.2
580.308	48150.82
580.506	47986.98
580.704	47495.47
580.901	47644.97
581.099	47524.14
581.297	47386.92
581.495	47266.09
581.692	47673.64
581.89	46934.32
582.088	47614.25
582.285	47022.39
582.483	47294.77
582.681	46897.46
582.878	46760.25
583.076	46666.04
583.274	46661.94
583.471	45877.57
583.669	46391.61
583.866	45928.77
584.064	46295.36
584.262	45969.73
584.459	46098.75
584.657	45224.27
584.854	45996.35
585.052	44898.64
585.249	45486.41
585.447	45476.17
585.644	44982.61
585.841	44689.75
586.039	45193.55
586.236	44818.77
586.434	44618.07
586.631	44476.76
586.828	44556.63
587.026	44681.56
587.223	44568.92
587.42	44407.13
587.618	44314.97
587.815	43800.93
588.012	43700.58
588.21	43526.5
588.407	44013.92
588.604	43147.63
588.801	43434.35
588.999	43118.96
589.196	43198.83
589.393	43282.8
589.59	42969.46
589.787	42830.19
589.984	42905.97
590.182	42668.4
590.379	42514.81
590.576	42084.73
590.773	42631.54
590.97	42189.18
591.167	42197.37
591.364	41519.49
591.561	41949.57
591.758	41351.56
591.955	41433.48
592.152	41681.28
592.349	41355.66
592.546	41159.05
592.743	41261.45
592.94	40513.94
593.137	41159.05
593.334	41222.54
593.531	40401.3
593.727	40343.96
593.924	40788.37
594.121	40165.79
594.318	40229.27
594.515	39920.03
594.712	40231.32
594.908	39764.39
595.105	40069.53
595.302	39438.76
595.499	39492.01
595.696	39381.42
595.892	38867.37
596.089	39188.91
596.286	39250.35
596.482	39037.36
596.679	39266.73
596.876	38947.25
597.072	38513.08
597.269	38562.23
597.466	38603.19
597.662	37900.73
597.859	38283.7
598.055	38179.26
598.252	37808.58
598.448	38359.48
598.645	38193.59
598.841	37515.72
599.038	37779.9
599.234	37693.89
599.431	37208.52
599.627	37067.21
599.824	37398.98
600.02	36946.38
600.217	37114.31
600.413	36661.71
600.609	36809.17
600.806	36549.07
601.002	36354.52
601.198	36073.95
601.395	36096.47
601.591	36358.61
601.787	36280.79
601.984	35729.89
602.18	36286.93
602.376	36022.75
602.572	35682.78
602.769	36051.42
602.965	34929.13
603.161	35465.7
603.357	35072.49
603.553	35138.02
603.75	35219.94
603.946	35160.55
604.142	35322.34
604.338	34566.64
604.534	35072.49
604.73	34597.36
604.926	34415.09
605.122	34521.59
605.318	34335.22
605.514	34107.9
605.71	34007.55
605.906	34095.61
606.102	33829.37
606.298	34265.59
606.494	34068.98
606.69	33659.39
606.886	34132.47
607.082	33030.66
607.278	33481.22
607.474	32971.27
607.67	33653.25
607.866	32893.45
608.062	33319.43
608.257	33260.04
608.453	33335.81
608.649	32969.22
608.845	32838.15
609.041	32762.38
609.236	32999.94
609.432	32705.04
609.628	32344.59
609.824	32420.37
610.019	32320.02
610.215	32492.05
610.411	32608.78
610.606	31990.3
610.802	32403.99
610.998	32119.32
611.193	32041.5
611.389	32111.13
611.584	31734.3
611.78	31691.29
611.976	32131.61
612.171	31660.57
612.367	31836.7
612.562	31818.27
612.758	31666.72
612.953	31373.86
613.149	31783.45
613.344	31162.92
613.539	31726.11
613.735	31050.28
613.93	31285.79
614.126	31058.47
614.321	31480.35
614.517	31449.63
614.712	30865.96
614.907	30845.48
615.103	31285.79
615.298	30612.01
615.493	31124.01
615.688	30370.35
615.884	31328.8
616.079	30546.48
616.274	30505.52
616.47	30853.67
616.665	30341.68
616.86	30356.02
617.055	30235.19
617.25	30118.45
617.445	30267.95
617.641	29725.24
617.836	30333.49
618.031	29669.95
618.226	29811.26
618.421	29729.34
618.616	29743.67
618.811	29428.29
619.006	29946.42
619.201	29385.28
619.396	29301.31
619.591	28893.77
619.786	29039.17
619.981	28920.39
620.176	29223.49
620.371	28699.21
620.566	28590.67
620.761	28187.22
620.956	28588.62
621.151	28109.4
621.346	28138.07
621.541	28125.78
621.735	28275.28
621.93	27574.88
622.125	27861.59
622.32	27210.34
622.515	27552.35
622.709	27384.41
622.904	27042.4
623.099	26937.96
623.294	26888.81
623.488	26262.13
623.683	26745.45
623.878	26325.61
624.072	26190.45
624.267	26237.55
624.462	26012.28
624.656	25563.77
624.851	25905.78
625.046	25440.89
625.24	25555.58
625.435	24996.48
625.629	25150.08
625.824	25422.46
626.018	25107.07
626.213	24570.51
626.407	24720.01
626.602	24185.49
626.796	24543.88
626.991	24740.49
627.185	24179.34
627.38	23960.21
627.574	23681.69
627.768	23640.73
627.963	23485.08
628.157	23403.16
628.352	23706.26
628.546	22991.52
628.74	23276.19
628.935	22923.94
629.129	23091.87
629.323	22588.07
629.517	22788.77
629.712	22561.45
629.906	22411.95
630.1	22201.01
630.294	22004.4
630.489	21775.03
630.683	22067.89
630.877	21801.65
631.071	21566.13
631.265	21893.81
631.459	21533.37
631.653	21547.7
631.848	21402.3
632.042	21240.51
632.236	20812.48
632.43	20884.16
632.624	21000.9
632.818	20908.74
633.012	20441.8
633.206	20513.48
633.4	20654.79
633.594	20189.9
633.788	20107.98
633.982	20210.38
634.176	19917.52
634.369	20067.02
634.563	19800.79
634.757	19651.28
634.951	19462.87
635.145	19583.7
635.339	19493.59
635.533	19329.75
635.726	19180.25
635.92	18957.02
636.114	19073.76
636.308	18795.23
636.501	18930.4
636.695	18797.28
636.889	18660.07
637.083	18399.98
637.276	18440.93
637.47	18340.58
637.664	18117.36
637.857	18275.05
638.051	18336.49
638.244	18363.11
638.438	17883.89
638.632	17713.91
638.825	17634.03
639.019	17486.58
639.212	17556.21
639.406	17398.52
639.599	17455.86
639.793	17179.39
639.986	17134.33
640.18	17072.89
640.373	17081.08
640.567	16820.99
640.76	16796.42
640.954	16687.87
641.147	16651.01
641.34	16130.83
641.534	16376.58
641.727	16298.76
641.92	16354.05
642.114	16044.81
642.307	16128.78
642.5	15874.83
642.694	15713.04
642.887	15577.87
643.08	15631.12
643.273	15622.93
643.467	15631.12
643.66	15504.15
643.853	15549.2
644.046	15323.93
644.239	15260.44
644.432	15182.62
644.626	15158.04
644.819	15016.73
645.012	14955.29
645.205	14834.46
645.398	15024.92
645.591	14574.37
645.784	14658.34
645.977	14467.88
646.17	14562.08
646.363	14375.72
646.556	14187.3
646.749	14285.61
646.942	14451.49
647.135	14170.92
647.328	13943.6
647.521	14023.47
647.714	13833
647.907	13919.02
648.099	13644.59
648.292	13753.13
648.485	13660.98
648.678	13523.76
648.871	13372.21
649.064	13531.95
649.256	13515.57
649.449	13245.24
649.642	13179.7
649.835	13253.43
650.027	12960.57
650.22	12886.84
650.413	12835.64
650.605	12919.61
650.798	12641.09
650.991	12514.11
651.183	12882.75
651.376	12444.48
651.568	12639.04
651.761	12550.98
651.954	12288.84
652.146	12319.56
652.339	12211.01
652.531	12100.42
652.724	12161.86
652.916	11891.53
653.109	12112.71
653.301	11905.87
653.494	12125
653.686	11514.7
653.879	11862.86
654.071	11801.42
654.263	11637.58
654.456	11619.15
654.648	11801.42
654.84	11365.2
655.033	11367.25
655.225	11383.63
655.417	11281.24
655.61	11244.37
655.802	11127.64
655.994	10851.16
656.186	11049.82
656.379	10785.63
656.571	10947.42
656.763	10904.41
656.955	10799.96
657.148	10867.55
657.34	10726.24
657.532	10781.53
657.724	10683.23
657.916	10578.78
658.108	10627.93
658.3	10347.36
658.492	10419.04
658.684	10441.57
658.876	10310.5
659.068	10326.88
659.26	10163.04
659.452	9988.97
659.644	10161
659.836	9915.24
660.028	10302.31
660.22	9898.86
660.412	9829.23
660.604	9745.26
660.796	9708.4
660.988	9610.09
661.18	9573.23
661.372	9495.41
661.563	9724.78
661.755	9550.7
661.947	9501.55
662.139	9333.62
662.331	9509.74
662.522	9177.97
662.714	9143.16
662.906	9110.39
663.097	9436.02
663.289	9012.09
663.481	9143.16
663.673	9016.18
663.864	8872.82
664.056	8936.31
664.247	8958.84
664.439	8819.58
664.631	8665.98
664.822	8737.66
665.014	8842.11
665.205	8512.38
665.397	8424.32
665.588	8680.32
665.78	8524.67
665.971	8395.65
666.163	8407.94
666.354	8395.65
666.546	8584.06
666.737	8369.02
666.929	8209.28
667.12	8295.3
667.311	8270.72
667.503	8158.08
667.694	8213.38
667.885	7977.86
668.077	7928.71
668.268	7922.57
668.459	7971.72
668.651	7730.06
668.842	7895.94
669.033	7879.56
669.224	7859.08
669.416	7869.32
669.607	7664.52
669.798	7656.33
669.989	7611.28
670.18	7715.72
670.371	7717.77
670.563	7603.08
670.754	7510.93
670.945	7568.27
671.136	7398.29
671.327	7381.9
671.518	7232.4
671.709	7203.73
671.9	7381.9
672.091	7357.33
672.282	7336.85
672.473	7183.25
672.664	7236.5
672.855	7281.55
673.046	7125.91
673.237	7187.35
673.428	6970.26
673.619	6943.64
673.809	7015.32
674	7021.46
674.191	7019.41
674.382	6925.21
674.573	6957.97
674.764	6730.65
674.954	6980.5
675.145	6714.27
675.336	6806.42
675.527	6824.86
675.717	6601.63
675.908	6697.88
676.099	6681.5
676.289	6724.51
676.48	6728.6
676.671	6423.45
676.861	6624.15
677.052	6468.51
677.243	6499.23
677.433	6491.04
677.624	6505.37
677.814	6421.41
678.005	6374.3
678.195	6292.38
678.386	6249.38
678.576	6341.54
678.767	6382.49
678.957	6230.94
679.148	6370.21
679.338	6278.05
679.529	6171.55
679.719	6312.86
679.909	6329.25
680.1	6038.44
680.29	6118.31
680.481	5985.19
680.671	6206.37
680.861	6151.07
681.052	6210.47
681.242	5927.85
681.432	6044.58
681.622	5991.33
681.813	6026.15
682.003	6187.94
682.193	5850.02
682.383	5970.85
682.573	5940.13
682.764	5878.69
682.954	5913.51
683.144	5948.33
683.334	5718.95
683.524	5847.97
683.714	5819.3
683.904	5692.33
684.094	5852.07
684.284	5628.84
684.474	5800.87
684.664	5782.44
684.854	5630.89
685.044	5555.12
685.234	5632.94
685.424	5589.93
685.614	5639.08
685.804	5561.26
685.994	5608.36
686.184	5645.23
686.374	5497.77
686.564	5438.38
686.753	5491.63
686.943	5411.76
687.133	5489.58
687.323	5188.53
687.513	5528.49
687.702	5315.5
687.892	5348.27
688.082	5411.76
688.272	5354.41
688.461	5280.69
688.651	5188.53
688.841	5274.54
689.03	5227.44
689.22	5260.21
689.41	4985.78
689.599	5180.34
689.789	5143.47
689.979	5059.51
690.168	4991.92
690.358	5067.7
690.547	5049.27
690.737	5073.84
690.926	4893.62
691.116	4740.02
691.305	4854.71
691.495	4873.14
691.684	4842.42
691.874	4815.8
692.063	4688.82
692.252	4785.08
692.442	4776.89
692.631	4512.7
692.82	4707.26
693.01	4506.56
693.199	4535.23
693.388	4541.37
693.578	4584.38
693.767	4713.4
693.956	4508.6
694.146	4543.42
694.335	4660.15
694.524	4379.58
694.713	4506.56
694.902	4416.44
695.092	4346.81
695.281	4398.01
695.47	4432.83
695.659	4504.51
695.848	4377.53
696.037	4371.39
696.226	4346.81
696.415	4246.46
696.604	4340.67
696.793	4250.56
696.982	4211.65
697.171	4469.69
697.36	4303.81
697.549	4150.21
697.738	4189.12
697.927	4219.84
698.116	4256.7
698.305	4283.33
698.494	4375.49
698.683	4205.5
698.872	4037.57
699.061	4369.34
699.25	4193.22
699.438	4193.22
699.627	4144.06
699.816	4156.35
700.005	4041.67
700.193	4078.53
700.382	4131.78
700.571	4045.76
700.76	4103.11
700.948	3969.99
701.137	3978.18
701.326	4133.82
701.514	3988.42
701.703	4099.01
701.892	3959.75
702.08	4066.24
702.269	4019.14
702.457	3972.04
702.646	4004.8
702.834	3894.21
703.023	3853.25
703.212	3945.41
703.4	3857.35
703.589	3738.57
703.777	3961.8
703.965	3918.79
704.154	3908.55
704.342	3898.31
704.531	3767.24
704.719	3759.05
704.907	3869.64
705.096	3748.81
705.284	3738.57
705.472	3822.53
705.661	3689.42
705.849	3892.16
706.037	3759.05
706.226	3658.7
706.414	3732.42
706.602	3851.21
706.79	3771.33
706.979	3625.93
707.167	3769.29
707.355	3615.69
707.543	3730.38
707.731	3677.13
707.919	3652.55
708.107	3630.02
708.296	3720.14
708.484	3783.62
708.672	3675.08
708.86	3607.5
709.048	3650.5
709.236	3673.03
709.424	3603.4
709.612	3468.24
709.8	3539.91
709.988	3621.83
710.176	3382.22
710.364	3539.91
710.551	3548.11
710.739	3507.15
710.927	3599.31
711.115	3439.56
711.303	3431.37
711.491	3509.19
711.679	3376.08
711.866	3439.56
712.054	3521.48
712.242	3464.14
712.43	3527.63
712.617	3546.06
712.805	3429.32
712.993	3349.45
713.181	3396.56
713.368	3460.04
713.556	3425.23
713.744	3259.34
713.931	3535.82
714.119	3404.75
714.306	3425.23
714.494	3341.26
714.682	3357.64
714.869	3183.57
715.057	3384.27
715.244	3355.6
715.432	3290.06
715.619	3294.16
715.807	3443.66
715.994	3283.92
716.182	3288.01
716.369	3279.82
716.556	3308.49
716.744	3374.03
716.931	3156.94
717.119	3212.24
717.306	3294.16
717.493	3341.26
717.681	3326.93
717.868	3257.29
718.055	3199.95
718.242	3257.29
718.43	3324.88
718.617	3247.05
718.804	3103.7
718.991	3216.33
719.179	3118.03
719.366	3167.18
719.553	3070.93
719.74	3179.47
719.927	3118.03
720.114	3204.05
720.301	3109.84
720.488	3052.5
720.676	3118.03
720.863	3079.12
721.05	3148.75
721.237	3120.08
721.424	2997.2
721.611	3099.6
721.798	2941.91
721.985	3021.78
722.172	2917.33
722.358	3185.62
722.545	3021.78
722.732	3085.26
722.919	3101.65
723.106	3068.88
723.293	2986.96
723.48	2929.62
723.667	2997.2
723.853	2874.32
724.04	2958.29
724.227	3034.07
724.414	2952.15
724.6	2968.53
724.787	3034.07
724.974	2886.61
725.161	2966.48
725.347	2884.56
725.534	2888.66
725.72	2927.57
725.907	2862.04
726.094	2941.91
726.28	2857.94
726.467	2898.9
726.653	2903
726.84	2966.48
727.027	2956.24
727.213	2780.12
727.4	2931.67
727.586	2864.08
727.773	2968.53
727.959	2888.66
728.145	2898.9
728.332	2753.49
728.518	2821.08
728.705	2851.8
728.891	2800.6
729.077	2870.23
729.264	2819.03
729.45	2862.04
729.636	2835.41
729.823	2804.69
730.009	2747.35
730.195	2579.42
730.382	2681.82
730.568	2773.97
730.754	2714.58
730.94	2788.31
731.126	2692.05
731.313	2802.65
731.499	2685.91
731.685	2724.82
731.871	2767.83
732.057	2683.86
732.243	2724.82
732.429	2708.44
732.615	2554.84
732.801	2751.45
732.987	2685.91
733.173	2687.96
733.359	2647
733.545	2583.51
733.731	2624.47
733.917	2659.29
734.103	2657.24
734.289	2714.58
734.475	2569.18
734.661	2587.61
734.847	2630.62
735.033	2749.4
735.219	2608.09
735.404	2720.73
735.59	2636.76
735.776	2618.33
735.962	2626.52
736.148	2599.9
736.333	2528.22
736.519	2628.57
736.705	2520.03
736.89	2558.94
737.076	2534.36
737.262	2560.98
737.447	2608.09
737.633	2526.17
737.819	2651.1
738.004	2579.42
738.19	2520.03
738.375	2526.17
738.561	2507.74
738.747	2481.11
738.932	2442.2
739.118	2507.74
739.303	2593.75
739.489	2376.67
739.674	2474.97
739.859	2440.15
740.045	2474.97
740.23	2464.73
740.416	2341.85
740.601	2415.58
740.786	2403.29
740.972	2403.29
741.157	2339.8
741.342	2339.8
741.528	2364.38
741.713	2411.48
741.898	2290.65
742.084	2315.23
742.269	2311.13
742.454	2206.69
742.639	2208.73
742.824	2362.33
743.01	2229.21
743.195	2397.15
743.38	2257.89
743.565	2257.89
743.75	2194.4
743.935	2292.7
744.12	2255.84
744.305	2227.17
744.49	2147.3
744.675	2116.58
744.86	2171.87
745.045	2274.27
745.23	2073.57
745.415	2104.29
745.6	2081.76
745.785	2030.56
745.97	2087.9
746.155	2151.39
746.34	2175.97
746.525	2206.69
746.71	2120.67
746.895	2112.48
747.079	2005.99
747.264	1989.6
747.449	1997.79
747.634	2038.75
747.819	2026.47
748.003	1993.7
748.188	1985.51
748.373	1954.79
748.557	1993.7
748.742	1942.5
748.927	1944.55
749.111	1958.88
749.296	2008.03
749.481	1962.98
749.665	1795.04
749.85	1881.06
750.034	1821.67
750.219	1872.87
750.404	1866.72
750.588	1901.54
750.773	1858.53
750.957	1848.29
751.141	1819.62
751.326	1772.52
751.51	1819.62
751.695	1651.69
751.879	1760.23
752.064	1731.56
752.248	1688.55
752.432	1784.8
752.617	1676.26
752.801	1661.93
752.985	1532.9
753.17	1762.28
753.354	1702.89
753.538	1602.54
753.722	1725.41
753.907	1643.49
754.091	1520.62
754.275	1559.53
754.459	1641.45
754.643	1641.45
754.828	1453.03
755.012	1592.3
755.196	1520.62
755.38	1491.95
755.564	1491.95
755.748	1467.37
755.932	1539.05
756.116	1502.19
756.3	1453.03
756.484	1420.27
756.668	1500.14
756.852	1393.64
757.036	1334.25
757.22	1391.59
757.404	1377.26
757.588	1477.61
757.772	1395.69
757.956	1416.17
758.14	1250.28
758.323	1375.21
758.507	1383.4
758.691	1319.92
758.875	1278.96
759.059	1281
759.242	1274.86
759.426	1283.05
759.61	1283.05
759.794	1307.63
759.977	1225.71
760.161	1309.68
760.345	1369.07
760.528	1240.05
760.712	1221.61
760.895	1199.09
761.079	1307.63
761.263	1221.61
761.446	1289.2
761.63	1190.89
761.813	1301.48
761.997	1201.13
762.18	1182.7
762.364	1262.57
762.547	1186.8
762.731	1190.89
762.914	1299.44
763.098	1166.32
763.281	1143.79
763.464	1135.6
763.648	1131.5
763.831	1104.88
764.015	1010.67
764.198	1197.04
764.381	1199.09
764.564	1168.37
764.748	1076.21
764.931	1141.74
765.114	1065.97
765.297	1162.22
765.481	1104.88
765.664	971.76
765.847	1133.55
766.03	1117.17
766.213	975.86
766.397	1096.69
766.58	1070.06
766.763	1137.65
766.946	1133.55
767.129	1141.74
767.312	1051.63
767.495	1063.92
767.678	1127.41
767.861	934.9
768.044	1027.06
768.227	1022.96
768.41	1020.91
768.593	998.38
768.776	1055.73
768.959	1047.54
769.142	998.38
769.324	953.33
769.507	979.95
769.69	955.38
769.873	951.28
770.056	992.24
770.239	867.31
770.421	1014.77
770.604	1010.67
770.787	930.8
770.97	988.14
771.152	852.98
771.335	955.38
771.518	992.24
771.7	1035.25
771.883	1045.49
772.066	934.9
772.248	922.61
772.431	943.09
772.613	852.98
772.796	969.71
772.978	904.18
773.161	881.65
773.343	906.23
773.526	926.71
773.708	941.04
773.891	885.75
774.073	941.04
774.256	875.51
774.438	924.66
774.621	840.69
774.803	834.55
774.985	752.63
775.168	812.02
775.35	834.55
775.532	814.07
775.715	891.89
775.897	750.58
776.079	799.73
776.261	852.98
776.444	789.49
776.626	834.55
776.808	779.25
776.99	873.46
777.173	742.39
777.355	807.92
777.537	762.87
777.719	846.84
777.901	789.49
778.083	756.72
778.265	748.53
778.447	771.06
778.629	766.96
778.811	744.44
778.993	707.57
779.175	672.76
779.357	742.39
779.539	646.13
779.721	713.72
779.903	799.73
780.085	666.61
780.267	635.89
780.449	685.05
780.631	664.57
780.812	676.85
780.994	744.44
781.176	576.5
781.358	615.41
781.54	644.09
781.721	691.19
781.903	621.56
782.085	689.14
782.267	603.13
782.448	656.37
782.63	578.55
782.812	576.5
782.993	605.17
783.175	687.09
783.357	580.6
783.538	576.5
783.72	601.08
783.901	594.93
784.083	721.91
784.264	504.82
784.446	539.64
784.627	580.6
784.809	537.59
784.99	543.74
785.172	582.65
785.353	488.44
785.535	523.26
785.716	605.17
785.897	513.02
786.079	599.03
786.26	457.72
786.441	498.68
786.623	476.15
786.804	590.84
786.985	443.39
787.167	463.86
787.348	480.25
787.529	414.71
787.71	529.4
787.891	545.78
788.073	455.67
788.254	556.02
788.435	521.21
788.616	506.87
788.797	474.1
788.978	406.52
789.159	404.47
789.34	513.02
789.522	429.05
789.703	470.01
789.884	467.96
790.065	429.05
790.246	463.86
790.427	457.72
790.607	486.39
790.788	502.78
790.969	396.28
791.15	519.16
791.331	392.19
791.512	371.71
791.693	408.57
791.874	408.57
792.054	457.72
792.235	394.23
792.416	363.51
792.597	402.43
792.778	363.51
792.958	383.99
793.139	383.99
793.32	390.14
793.5	332.79
793.681	422.91
793.862	330.75
794.042	394.23
794.223	308.22
794.404	414.71
794.584	304.12
794.765	343.03
794.945	353.27
795.126	402.43
795.306	392.19
795.487	332.79
795.667	357.37
795.848	336.89
796.028	357.37
796.209	361.47
796.389	400.38
796.57	332.79
796.75	332.79
796.93	361.47
797.111	343.03
797.291	340.99
797.471	369.66
797.652	455.67
797.832	250.88
798.012	369.66
798.192	287.74
798.373	367.61
798.553	281.6
798.733	381.95
798.913	343.03
799.093	340.99
799.274	334.84
799.454	343.03
799.634	422.91
799.814	367.61
799.994	314.36
800.174	322.56
800.354	291.84
800.534	322.56
800.714	285.69
800.894	259.07
801.074	308.22
801.254	238.59
801.434	306.17
801.614	293.88
801.794	259.07
801.974	650.23
802.154	275.45
802.334	285.69
802.514	263.16
802.693	306.17
802.873	291.84
803.053	261.12
803.233	236.54
803.413	349.18
803.592	197.63
803.772	320.51
803.952	271.36
804.131	248.83
804.311	244.73
804.491	363.51
804.67	351.23
804.85	209.92
805.03	252.92
805.209	242.68
805.389	283.64
805.568	281.6
805.748	275.45
805.928	279.55
806.107	250.88
806.287	207.87
806.466	214.01
806.646	238.59
806.825	205.82
807.004	277.5
807.184	244.73
807.363	375.8
807.543	293.88
807.722	199.68
807.901	330.75
808.081	300.03
808.26	234.49
808.439	265.21
808.619	189.44
808.798	275.45
808.977	211.96
809.156	306.17
809.336	214.01
809.515	283.64
809.694	152.57
809.873	312.32
810.052	152.57
810.231	261.12
810.411	236.54
810.59	279.55
810.769	216.06
810.948	218.11
811.127	191.49
811.306	185.34
811.485	224.25
811.664	234.49
811.843	140.29
812.022	160.77
812.201	205.82
812.38	128
812.559	193.53
812.737	254.97
812.916	271.36
813.095	179.2
813.274	152.57
813.453	171.01
813.632	222.2
813.811	191.49
813.989	183.29
814.168	154.62
814.347	203.77
814.526	297.98
814.704	236.54
814.883	207.87
815.062	193.53
815.24	250.88
815.419	138.24
815.598	136.19
815.776	156.67
815.955	166.91
816.133	152.57
816.312	246.78
816.49	158.72
816.669	166.91
816.847	138.24
817.026	183.29
817.204	230.4
817.383	130.05
817.561	193.53
817.74	209.92
817.918	191.49
818.097	232.44
818.275	140.29
818.453	220.16
818.632	220.16
818.81	156.67
818.988	193.53
819.167	191.49
819.345	113.66
819.523	140.29
819.701	154.62
819.879	189.44
820.058	197.63
820.236	205.82
820.414	93.18
820.592	185.34
820.77	261.12
820.948	166.91
821.127	97.28
821.305	168.96
821.483	156.67
821.661	125.95
821.839	138.24
822.017	128
822.195	134.14
822.373	152.57
822.551	150.53
822.729	136.19
822.907	160.77
823.085	130.05
823.262	140.29
823.44	78.85
823.618	140.29
823.796	171.01
823.974	95.23
824.152	162.81
824.329	146.43
824.507	162.81
824.685	101.37
824.863	173.05
825.04	160.77
825.218	132.09
825.396	138.24
825.574	142.33
825.751	93.18
825.929	144.38
826.107	154.62
826.284	199.68
826.462	107.52
826.639	101.37
826.817	123.9
826.994	185.34
827.172	105.47
827.349	195.58
827.527	134.14
827.704	91.13
827.882	162.81
828.059	74.75
828.237	101.37
828.414	111.61
828.591	66.56
828.769	76.8
828.946	134.14
829.124	107.52
829.301	140.29
829.478	109.57
829.655	166.91
829.833	134.14
830.01	39.94
830.187	123.9
830.364	148.48
830.542	111.61
830.719	195.58
830.896	173.05
831.073	128
831.25	128
831.427	138.24
831.604	70.65
831.782	84.99
831.959	158.72
832.136	117.76
832.313	111.61
832.49	128
832.667	113.66
832.844	125.95
833.021	185.34
833.198	52.22
833.374	154.62
833.551	136.19
833.728	87.04
833.905	138.24
834.082	156.67
834.259	70.65
834.436	146.43
834.612	25.6
834.789	97.28
834.966	111.61
835.143	138.24
835.319	91.13
835.496	146.43
835.673	128
835.85	125.95
836.026	70.65
836.203	74.75
836.38	41.98
836.556	66.56
836.733	123.9
836.909	136.19
837.086	152.57
837.262	87.04
837.439	125.95
837.616	-1.02
837.792	109.57
837.968	109.57
838.145	128
838.321	76.8
838.498	101.37
838.674	130.05
838.851	93.18
839.027	74.75
839.203	84.99
839.38	72.7
839.556	-3.07
839.732	168.96
839.909	87.04
840.085	87.04
840.261	146.43
840.437	146.43
840.614	89.09
840.79	44.03
840.966	101.37
841.142	146.43
841.318	39.94
841.494	121.85
841.671	128
841.847	128
842.023	132.09
842.199	82.94
842.375	82.94
842.551	91.13
842.727	72.7
842.903	66.56
843.079	5.12
843.255	146.43
843.431	52.22
843.607	62.46
843.783	19.46
843.959	115.71
844.134	46.08
844.31	146.43
844.486	64.51
844.662	142.33
844.838	62.46
845.013	68.61
845.189	72.7
845.365	95.23
845.541	107.52
845.716	97.28
845.892	76.8
846.068	84.99
846.244	66.56
846.419	89.09
846.595	-17.41
846.77	35.84
846.946	52.22
847.122	50.18
847.297	5.12
847.473	87.04
847.648	56.32
847.824	130.05
847.999	-29.7
848.175	93.18
848.35	70.65
848.526	111.61
848.701	105.47
848.876	84.99
849.052	27.65
849.227	89.09
849.403	58.37
849.578	15.36
849.753	91.13
849.929	80.89
850.104	56.32
850.279	89.09
850.454	23.55
850.63	113.66
850.805	70.65
850.98	109.57
851.155	39.94
851.33	95.23
851.505	52.22
851.681	93.18
851.856	72.7
852.031	-15.36
852.206	66.56
852.381	68.61
852.556	33.79
852.731	101.37
852.906	48.13
853.081	89.09
853.256	60.42
853.431	70.65
853.606	99.33
853.781	48.13
853.956	9.22
854.131	89.09
854.305	35.84
854.48	78.85
854.655	54.27
854.83	91.13
855.005	87.04
855.18	44.03
855.354	35.84
855.529	68.61
855.704	109.57
855.879	19.46
856.053	13.31
856.228	48.13
856.403	62.46
856.577	76.8
856.752	72.7
856.926	33.79
857.101	132.09
857.276	80.89
857.45	54.27
857.625	130.05
857.799	33.79
857.974	89.09
858.148	25.6
858.323	156.67
858.497	64.51
858.672	91.13
858.846	37.89
859.02	70.65
859.195	60.42
859.369	58.37
859.543	84.99
859.718	19.46
859.892	41.98
860.066	-7.17
860.241	70.65
860.415	5.12
860.589	89.09
860.763	125.95
860.938	-11.26
861.112	95.23
861.286	17.41
861.46	87.04
861.634	23.55
861.808	111.61
861.982	19.46
862.157	35.84
862.331	41.98
862.505	11.26
862.679	27.65
862.853	99.33
863.027	39.94
863.201	138.24
863.375	11.26
863.549	107.52
863.722	35.84
863.896	44.03
864.07	44.03
864.244	46.08
864.418	48.13
864.592	44.03
864.766	-9.22
864.939	87.04
865.113	-1.02
865.287	64.51
865.461	58.37
865.634	56.32
865.808	25.6
865.982	31.74
866.156	134.14
866.329	17.41
866.503	13.31
866.676	109.57
866.85	58.37
867.024	74.75
867.197	115.71
867.371	44.03
867.544	-21.5
867.718	31.74
867.891	33.79
868.065	-13.31
868.238	7.17
868.412	82.94
868.585	-25.6
868.759	76.8
868.932	76.8
869.105	-19.46
869.279	46.08
869.452	-1.02
869.625	89.09
869.799	52.22
869.972	58.37
870.145	25.6
870.319	56.32
870.492	-21.5
870.665	58.37
870.838	101.37
871.011	-11.26
871.185	105.47
871.358	58.37
871.531	27.65
871.704	44.03
871.877	41.98
872.05	39.94
872.223	27.65
872.396	62.46
872.569	33.79
872.742	-1.02
872.915	50.18
873.088	50.18
873.261	68.61
873.434	52.22
873.607	62.46
873.78	84.99
873.953	68.61
874.126	31.74
874.299	144.38
874.471	29.7
874.644	33.79
874.817	7.17
874.99	84.99
875.163	80.89
875.335	62.46
875.508	115.71
875.681	80.89
875.853	-27.65
876.026	95.23
876.199	21.5
876.371	101.37
876.544	-39.94
876.717	64.51
876.889	-15.36
877.062	76.8
877.234	-23.55
877.407	144.38
877.579	46.08
877.752	44.03
877.924	70.65
878.097	84.99
878.269	109.57
878.442	58.37
878.614	29.7
878.786	33.79
878.959	93.18
879.131	-19.46
879.303	9.22
879.476	48.13
879.648	72.7
879.82	60.42
879.993	31.74
880.165	78.85
880.337	29.7
880.509	5.12
880.681	68.61
880.854	68.61
881.026	134.14
881.198	95.23
881.37	-31.74
881.542	58.37
881.714	-21.5
881.886	60.42
882.058	89.09
882.23	13.31
882.402	-27.65
882.574	37.89
882.746	50.18
882.918	15.36
883.09	-17.41
883.262	25.6
883.434	-9.22
883.606	64.51
883.778	-15.36
883.95	64.51
884.122	25.6
884.293	56.32
884.465	54.27
884.637	41.98
884.809	-3.07
884.98	58.37
885.152	70.65
885.324	89.09
885.496	25.6
885.667	23.55
885.839	84.99
886.011	46.08
886.182	52.22
886.354	109.57
886.525	-29.7
886.697	50.18
886.869	3.07
887.04	5.12
887.212	95.23
887.383	72.7
887.555	66.56
887.726	44.03
887.897	-54.27
888.069	37.89
888.24	113.66
888.412	39.94
888.583	41.98
888.754	-11.26
888.926	52.22
889.097	84.99
889.268	80.89
889.44	52.22
889.611	56.32
889.782	41.98
889.953	15.36
890.125	-35.84
890.296	37.89
890.467	62.46
890.638	-31.74
890.809	50.18
890.98	11.26
891.151	29.7
891.323	39.94
891.494	37.89
891.665	35.84
891.836	-5.12
892.007	58.37
892.178	105.47
892.349	23.55
892.52	95.23
892.691	58.37
892.862	46.08
893.032	-13.31
893.203	68.61
893.374	-7.17
893.545	97.28
893.716	76.8
893.887	74.75
894.057	62.46
894.228	76.8
894.399	5.12
894.57	80.89
894.74	11.26
894.911	7.17
895.082	50.18
895.253	-7.17
895.423	39.94
895.594	13.31
895.764	109.57
895.935	70.65
896.106	37.89
896.276	31.74
896.447	70.65
896.617	41.98
896.788	27.65
896.958	-11.26
897.129	44.03
897.299	23.55
897.47	117.76
897.64	44.03
897.81	13.31
897.981	-1.02
898.151	13.31
898.322	76.8
898.492	35.84
898.662	66.56
898.832	44.03
899.003	7.17
899.173	25.6
899.343	23.55
899.513	87.04
