Data from USB4F104151__48__12-36-06-859.txt Node

Date: Fri Mar 14 12:36:06 EDT 2025
User: louis
Spectrometer: USB4F10415
Trigger mode: 4
Integration Time (sec): 2.000000E-2
Scans to average: 1
Electric dark correction enabled: true
Nonlinearity correction enabled: false
Boxcar width: 0
XAxis mode: Wavelengths
Number of Pixels in Spectrum: 3648
>>>>>Begin Spectral Data<<<<<
178.204	-164.01
178.424	-164.01
178.644	-164.01
178.864	-118.95
179.084	-96.43
179.304	42.84
179.524	-30.89
179.744	-49.32
179.964	28.5
180.184	26.45
180.404	-34.99
180.624	44.88
180.844	28.5
181.064	-2.22
181.283	-16.55
181.503	-26.79
181.723	-10.41
181.943	1.88
182.163	98.13
182.383	-0.17
182.602	51.03
182.822	44.88
183.042	5.97
183.262	10.07
183.482	44.88
183.701	34.64
183.921	3.93
184.141	5.97
184.361	10.07
184.58	42.84
184.8	83.8
185.02	22.36
185.239	24.4
185.459	-24.75
185.679	20.31
185.898	-32.94
186.118	59.22
186.338	55.12
186.557	42.84
186.777	26.45
186.997	57.17
187.216	34.64
187.436	87.89
187.655	18.26
187.875	3.93
188.095	26.45
188.314	59.22
188.534	40.79
188.753	34.64
188.973	75.6
189.192	108.37
189.412	30.55
189.631	-41.13
189.851	100.18
190.07	44.88
190.29	38.74
190.509	32.6
190.729	44.88
190.948	81.75
191.168	147.28
191.387	5.97
191.607	32.6
191.826	34.64
192.045	79.7
192.265	-4.27
192.484	71.51
192.704	-12.46
192.923	-16.55
193.142	65.36
193.362	-28.84
193.581	69.46
193.8	30.55
194.02	-6.31
194.239	-6.31
194.458	67.41
194.678	-24.75
194.897	-18.6
195.116	89.94
195.335	-51.37
195.555	-10.41
195.774	30.55
195.993	24.4
196.212	16.21
196.432	46.93
196.651	3.93
196.87	65.36
197.089	40.79
197.308	100.18
197.528	73.56
197.747	16.21
197.966	38.74
198.185	55.12
198.404	59.22
198.623	16.21
198.842	81.75
199.062	14.17
199.281	65.36
199.5	5.97
199.719	32.6
199.938	14.17
200.157	18.26
200.376	89.94
200.595	14.17
200.814	38.74
201.033	22.36
201.252	77.65
201.471	63.32
201.69	61.27
201.909	18.26
202.128	-14.51
202.347	104.28
202.566	83.8
202.785	-30.89
203.004	-2.22
203.223	118.61
203.442	18.26
203.661	-45.23
203.879	73.56
204.098	30.55
204.317	24.4
204.536	8.02
204.755	16.21
204.974	16.21
205.193	3.93
205.411	57.17
205.63	48.98
205.849	46.93
206.068	57.17
206.287	48.98
206.505	26.45
206.724	53.08
206.943	96.08
207.162	-12.46
207.381	28.5
207.599	18.26
207.818	63.32
208.037	3.93
208.255	-24.75
208.474	65.36
208.693	71.51
208.911	-30.89
209.13	73.56
209.349	71.51
209.567	26.45
209.786	42.84
210.005	34.64
210.223	87.89
210.442	34.64
210.661	8.02
210.879	112.47
211.098	73.56
211.316	-0.17
211.535	71.51
211.753	130.9
211.972	57.17
212.191	34.64
212.409	30.55
212.628	26.45
212.846	-20.65
213.065	-24.75
213.283	26.45
213.502	-45.23
213.72	51.03
213.938	-22.7
214.157	-51.37
214.375	16.21
214.594	-43.18
214.812	-12.46
215.031	65.36
215.249	12.12
215.467	75.6
215.686	-20.65
215.904	116.56
216.122	36.69
216.341	40.79
216.559	36.69
216.778	38.74
216.996	22.36
217.214	-34.99
217.432	16.21
217.651	-32.94
217.869	40.79
218.087	32.6
218.306	40.79
218.524	44.88
218.742	53.08
218.96	-34.99
219.179	73.56
219.397	28.5
219.615	94.04
219.833	61.27
220.051	-0.17
220.27	53.08
220.488	20.31
220.706	79.7
220.924	89.94
221.142	89.94
221.36	-4.27
221.578	16.21
221.796	8.02
222.015	65.36
222.233	51.03
222.451	28.5
222.669	16.21
222.887	46.93
223.105	42.84
223.323	-57.51
223.541	-0.17
223.759	48.98
223.977	-8.36
224.195	28.5
224.413	3.93
224.631	24.4
224.849	18.26
225.067	48.98
225.285	26.45
225.503	-8.36
225.721	16.21
225.939	87.89
226.157	-20.65
226.375	124.76
226.592	-14.51
226.81	59.22
227.028	-16.55
227.246	51.03
227.464	36.69
227.682	55.12
227.9	75.6
228.117	38.74
228.335	79.7
228.553	139.09
228.771	59.22
228.989	85.84
229.206	36.69
229.424	-12.46
229.642	79.7
229.86	-32.94
230.077	30.55
230.295	69.46
230.513	108.37
230.731	32.6
230.948	-2.22
231.166	63.32
231.384	71.51
231.601	55.12
231.819	30.55
232.037	14.17
232.254	-34.99
232.472	53.08
232.689	30.55
232.907	40.79
233.125	57.17
233.342	38.74
233.56	-22.7
233.777	-2.22
233.995	48.98
234.213	85.84
234.43	3.93
234.648	75.6
234.865	51.03
235.083	24.4
235.3	36.69
235.518	59.22
235.735	69.46
235.953	63.32
236.17	-49.32
236.388	5.97
236.605	89.94
236.822	110.42
237.04	30.55
237.257	32.6
237.475	5.97
237.692	26.45
237.909	59.22
238.127	-10.41
238.344	46.93
238.562	55.12
238.779	-18.6
238.996	16.21
239.214	59.22
239.431	26.45
239.648	20.31
239.865	44.88
240.083	18.26
240.3	26.45
240.517	-0.17
240.735	-4.27
240.952	30.55
241.169	40.79
241.386	-30.89
241.603	20.31
241.821	-55.47
242.038	-16.55
242.255	1.88
242.472	18.26
242.689	34.64
242.907	75.6
243.124	87.89
243.341	38.74
243.558	26.45
243.775	-14.51
243.992	20.31
244.209	67.41
244.426	102.23
244.643	18.26
244.86	-18.6
245.078	24.4
245.295	-12.46
245.512	34.64
245.729	36.69
245.946	96.08
246.163	87.89
246.38	-20.65
246.597	-12.46
246.814	10.07
247.031	69.46
247.248	122.71
247.464	28.5
247.681	44.88
247.898	40.79
248.115	22.36
248.332	46.93
248.549	28.5
248.766	57.17
248.983	75.6
249.2	18.26
249.417	32.6
249.633	79.7
249.85	59.22
250.067	55.12
250.284	42.84
250.501	32.6
250.717	-0.17
250.934	-28.84
251.151	-39.08
251.368	46.93
251.585	-75.95
251.801	18.26
252.018	24.4
252.235	42.84
252.451	114.52
252.668	87.89
252.885	22.36
253.102	32.6
253.318	55.12
253.535	20.31
253.752	46.93
253.968	24.4
254.185	20.31
254.401	-2.22
254.618	108.37
254.835	63.32
255.051	46.93
255.268	44.88
255.484	38.74
255.701	-0.17
255.917	79.7
256.134	-4.27
256.351	46.93
256.567	5.97
256.784	102.23
257	-12.46
257.217	55.12
257.433	38.74
257.65	38.74
257.866	51.03
258.082	48.98
258.299	63.32
258.515	-34.99
258.732	-2.22
258.948	-26.79
259.165	-39.08
259.381	46.93
259.597	40.79
259.814	22.36
260.03	28.5
260.246	59.22
260.463	40.79
260.679	63.32
260.895	1.88
261.112	108.37
261.328	-49.32
261.544	10.07
261.761	65.36
261.977	42.84
262.193	-43.18
262.409	22.36
262.626	69.46
262.842	55.12
263.058	-59.56
263.274	28.5
263.49	38.74
263.707	55.12
263.923	83.8
264.139	-80.04
264.355	48.98
264.571	157.52
264.787	1.88
265.004	132.95
265.22	32.6
265.436	28.5
265.652	26.45
265.868	30.55
266.084	-18.6
266.3	-10.41
266.516	38.74
266.732	114.52
266.948	32.6
267.164	-0.17
267.38	1.88
267.596	67.41
267.812	-8.36
268.028	34.64
268.244	20.31
268.46	71.51
268.676	100.18
268.892	24.4
269.108	8.02
269.324	5.97
269.54	81.75
269.756	14.17
269.972	5.97
270.188	104.28
270.403	30.55
270.619	-6.31
270.835	32.6
271.051	28.5
271.267	18.26
271.483	20.31
271.698	18.26
271.914	-2.22
272.13	34.64
272.346	3.93
272.562	77.65
272.777	67.41
272.993	53.08
273.209	44.88
273.425	-6.31
273.64	10.07
273.856	51.03
274.072	8.02
274.287	34.64
274.503	38.74
274.719	91.99
274.934	1.88
275.15	14.17
275.366	28.5
275.581	30.55
275.797	-51.37
276.012	98.13
276.228	59.22
276.444	44.88
276.659	3.93
276.875	20.31
277.09	34.64
277.306	48.98
277.521	34.64
277.737	63.32
277.952	73.56
278.168	132.95
278.383	5.97
278.599	-6.31
278.814	77.65
279.03	38.74
279.245	130.9
279.461	51.03
279.676	55.12
279.892	-14.51
280.107	-6.31
280.322	20.31
280.538	48.98
280.753	10.07
280.969	67.41
281.184	34.64
281.399	32.6
281.615	-43.18
281.83	20.31
282.045	44.88
282.26	12.12
282.476	28.5
282.691	65.36
282.906	116.56
283.122	48.98
283.337	-47.27
283.552	116.56
283.767	59.22
283.983	69.46
284.198	51.03
284.413	12.12
284.628	18.26
284.843	48.98
285.058	42.84
285.274	73.56
285.489	-24.75
285.704	122.71
285.919	-28.84
286.134	36.69
286.349	85.84
286.564	104.28
286.779	96.08
286.995	16.21
287.21	53.08
287.425	42.84
287.64	20.31
287.855	24.4
288.07	18.26
288.285	108.37
288.5	32.6
288.715	89.94
288.93	53.08
289.145	-32.94
289.36	40.79
289.575	34.64
289.79	14.17
290.004	-12.46
290.219	65.36
290.434	38.74
290.649	12.12
290.864	12.12
291.079	-4.27
291.294	112.47
291.509	46.93
291.724	32.6
291.938	32.6
292.153	12.12
292.368	-14.51
292.583	57.17
292.798	59.22
293.012	65.36
293.227	1.88
293.442	83.8
293.657	81.75
293.871	59.22
294.086	104.28
294.301	79.7
294.516	75.6
294.73	69.46
294.945	-14.51
295.16	12.12
295.374	57.17
295.589	16.21
295.804	-12.46
296.018	16.21
296.233	81.75
296.447	-0.17
296.662	-45.23
296.877	55.12
297.091	-32.94
297.306	77.65
297.52	40.79
297.735	28.5
297.949	63.32
298.164	16.21
298.378	42.84
298.593	28.5
298.807	59.22
299.022	61.27
299.236	30.55
299.451	83.8
299.665	65.36
299.88	34.64
300.094	67.41
300.309	40.79
300.523	-24.75
300.737	100.18
300.952	26.45
301.166	87.89
301.381	-20.65
301.595	69.46
301.809	38.74
302.024	61.27
302.238	46.93
302.452	48.98
302.667	34.64
302.881	65.36
303.095	110.42
303.309	-16.55
303.524	65.36
303.738	28.5
303.952	-6.31
304.166	96.08
304.381	12.12
304.595	16.21
304.809	26.45
305.023	-65.71
305.237	-6.31
305.452	28.5
305.666	75.6
305.88	24.4
306.094	87.89
306.308	67.41
306.522	44.88
306.736	10.07
306.95	14.17
307.164	71.51
307.379	102.23
307.593	30.55
307.807	61.27
308.021	94.04
308.235	75.6
308.449	46.93
308.663	30.55
308.877	98.13
309.091	51.03
309.305	137.04
309.519	-37.03
309.733	67.41
309.947	-34.99
310.161	38.74
310.374	53.08
310.588	73.56
310.802	-2.22
311.016	63.32
311.23	22.36
311.444	77.65
311.658	26.45
311.872	36.69
312.085	73.56
312.299	65.36
312.513	30.55
312.727	20.31
312.941	8.02
313.154	18.26
313.368	44.88
313.582	32.6
313.796	89.94
314.009	-14.51
314.223	20.31
314.437	44.88
314.651	63.32
314.864	28.5
315.078	36.69
315.292	55.12
315.505	32.6
315.719	79.7
315.933	-24.75
316.146	63.32
316.36	22.36
316.573	22.36
316.787	71.51
317.001	110.42
317.214	-43.18
317.428	81.75
317.641	3.93
317.855	71.51
318.068	59.22
318.282	18.26
318.495	-8.36
318.709	75.6
318.922	14.17
319.136	71.51
319.349	124.76
319.563	61.27
319.776	59.22
319.99	24.4
320.203	51.03
320.417	28.5
320.63	16.21
320.843	81.75
321.057	40.79
321.27	98.13
321.483	1.88
321.697	40.79
321.91	16.21
322.124	10.07
322.337	20.31
322.55	69.46
322.763	-22.7
322.977	59.22
323.19	67.41
323.403	-4.27
323.617	24.4
323.83	22.36
324.043	-16.55
324.256	3.93
324.469	-53.42
324.683	75.6
324.896	98.13
325.109	32.6
325.322	59.22
325.535	100.18
325.748	55.12
325.962	89.94
326.175	14.17
326.388	42.84
326.601	24.4
326.814	28.5
327.027	85.84
327.24	71.51
327.453	69.46
327.666	102.23
327.879	71.51
328.092	69.46
328.305	110.42
328.518	24.4
328.731	77.65
328.944	48.98
329.157	59.22
329.37	1.88
329.583	24.4
329.796	-18.6
330.009	36.69
330.222	34.64
330.435	38.74
330.648	22.36
330.861	83.8
331.073	38.74
331.286	73.56
331.499	77.65
331.712	-55.47
331.925	28.5
332.138	40.79
332.35	79.7
332.563	-41.13
332.776	75.6
332.989	40.79
333.202	55.12
333.414	40.79
333.627	32.6
333.84	116.56
334.053	71.51
334.265	36.69
334.478	51.03
334.691	65.36
334.903	118.61
335.116	73.56
335.329	44.88
335.541	48.98
335.754	61.27
335.966	67.41
336.179	28.5
336.392	67.41
336.604	48.98
336.817	5.97
337.029	57.17
337.242	16.21
337.454	79.7
337.667	98.13
337.88	69.46
338.092	69.46
338.305	55.12
338.517	-10.41
338.729	94.04
338.942	91.99
339.154	42.84
339.367	87.89
339.579	36.69
339.792	94.04
340.004	46.93
340.217	40.79
340.429	63.32
340.641	20.31
340.854	-59.56
341.066	-24.75
341.278	83.8
341.491	91.99
341.703	98.13
341.915	-30.89
342.128	57.17
342.34	59.22
342.552	126.8
342.764	102.23
342.977	-6.31
343.189	48.98
343.401	53.08
343.613	46.93
343.826	40.79
344.038	51.03
344.25	36.69
344.462	-6.31
344.674	55.12
344.886	-4.27
345.099	46.93
345.311	-4.27
345.523	16.21
345.735	22.36
345.947	-18.6
346.159	18.26
346.371	-53.42
346.583	79.7
346.795	106.32
347.007	8.02
347.219	73.56
347.431	87.89
347.643	89.94
347.855	30.55
348.067	36.69
348.279	75.6
348.491	59.22
348.703	42.84
348.915	32.6
349.127	3.93
349.339	81.75
349.551	-10.41
349.763	104.28
349.975	96.08
350.187	63.32
350.399	89.94
350.61	40.79
350.822	3.93
351.034	26.45
351.246	79.7
351.458	81.75
351.669	77.65
351.881	10.07
352.093	44.88
352.305	57.17
352.517	59.22
352.728	59.22
352.94	59.22
353.152	173.91
353.363	-43.18
353.575	118.61
353.787	63.32
353.999	5.97
354.21	96.08
354.422	63.32
354.633	71.51
354.845	51.03
355.057	-4.27
355.268	89.94
355.48	48.98
355.692	36.69
355.903	-20.65
356.115	42.84
356.326	-67.75
356.538	34.64
356.749	48.98
356.961	85.84
357.172	34.64
357.384	61.27
357.595	104.28
357.807	55.12
358.018	3.93
358.23	46.93
358.441	83.8
358.653	61.27
358.864	67.41
359.075	24.4
359.287	-12.46
359.498	77.65
359.709	-28.84
359.921	40.79
360.132	22.36
360.344	28.5
360.555	32.6
360.766	98.13
360.977	79.7
361.189	79.7
361.4	106.32
361.611	108.37
361.823	26.45
362.034	10.07
362.245	102.23
362.456	46.93
362.667	61.27
362.879	1.88
363.09	69.46
363.301	34.64
363.512	114.52
363.723	-16.55
363.935	79.7
364.146	63.32
364.357	18.26
364.568	87.89
364.779	57.17
364.99	61.27
365.201	69.46
365.412	10.07
365.623	-45.23
365.834	-30.89
366.045	91.99
366.256	63.32
366.467	3.93
366.678	63.32
366.889	20.31
367.1	106.32
367.311	40.79
367.522	116.56
367.733	40.79
367.944	34.64
368.155	26.45
368.366	87.89
368.577	91.99
368.788	120.66
368.999	32.6
369.209	55.12
369.42	104.28
369.631	130.9
369.842	63.32
370.053	67.41
370.264	51.03
370.474	73.56
370.685	83.8
370.896	73.56
371.107	120.66
371.317	42.84
371.528	116.56
371.739	85.84
371.95	20.31
372.16	61.27
372.371	44.88
372.582	57.17
372.792	77.65
373.003	91.99
373.214	55.12
373.424	63.32
373.635	5.97
373.846	51.03
374.056	57.17
374.267	67.41
374.477	98.13
374.688	104.28
374.898	75.6
375.109	81.75
375.319	79.7
375.53	110.42
375.74	-22.7
375.951	89.94
376.161	30.55
376.372	38.74
376.582	65.36
376.793	71.51
377.003	48.98
377.214	75.6
377.424	51.03
377.635	63.32
377.845	120.66
378.055	22.36
378.266	12.12
378.476	55.12
378.686	87.89
378.897	79.7
379.107	122.71
379.317	-2.22
379.528	69.46
379.738	81.75
379.948	14.17
380.158	40.79
380.369	14.17
380.579	-69.8
380.789	3.93
380.999	28.5
381.21	48.98
381.42	48.98
381.63	42.84
381.84	75.6
382.05	28.5
382.261	87.89
382.471	98.13
382.681	40.79
382.891	59.22
383.101	108.37
383.311	3.93
383.521	-4.27
383.731	14.17
383.941	30.55
384.151	100.18
384.361	36.69
384.571	32.6
384.781	3.93
384.991	55.12
385.201	116.56
385.411	-26.79
385.621	65.36
385.831	20.31
386.041	61.27
386.251	94.04
386.461	139.09
386.671	42.84
386.881	63.32
387.091	14.17
387.301	59.22
387.511	14.17
387.72	104.28
387.93	38.74
388.14	16.21
388.35	61.27
388.56	59.22
388.769	106.32
388.979	118.61
389.189	5.97
389.399	96.08
389.609	28.5
389.818	65.36
390.028	91.99
390.238	75.6
390.447	18.26
390.657	184.15
390.867	20.31
391.076	57.17
391.286	44.88
391.496	59.22
391.705	69.46
391.915	122.71
392.125	161.62
392.334	61.27
392.544	151.38
392.753	83.8
392.963	28.5
393.172	32.6
393.382	73.56
393.591	118.61
393.801	61.27
394.01	163.67
394.22	122.71
394.429	32.6
394.639	87.89
394.848	81.75
395.058	122.71
395.267	79.7
395.477	171.86
395.686	71.51
395.895	139.09
396.105	200.53
396.314	153.43
396.524	128.85
396.733	83.8
396.942	98.13
397.152	110.42
397.361	184.15
397.57	102.23
397.78	87.89
397.989	94.04
398.198	126.8
398.407	69.46
398.617	108.37
398.826	126.8
399.035	135
399.244	94.04
399.453	104.28
399.663	153.43
399.872	67.41
400.081	85.84
400.29	132.95
400.499	61.27
400.708	20.31
400.917	132.95
401.127	120.66
401.336	116.56
401.545	120.66
401.754	204.63
401.963	141.14
402.172	184.15
402.381	184.15
402.59	85.84
402.799	91.99
403.008	147.28
403.217	104.28
403.426	210.77
403.635	198.48
403.844	167.76
404.053	139.09
404.262	14.17
404.471	173.91
404.68	157.52
404.888	169.81
405.097	182.1
405.306	132.95
405.515	188.24
405.724	161.62
405.933	171.86
406.142	182.1
406.35	186.19
406.559	173.91
406.768	161.62
406.977	237.39
407.185	270.16
407.394	245.59
407.603	243.54
407.812	159.57
408.02	266.07
408.229	237.39
408.438	153.43
408.646	237.39
408.855	280.4
409.064	231.25
409.272	221.01
409.481	286.54
409.69	231.25
409.898	251.73
410.107	319.31
410.315	331.6
410.524	354.13
410.733	335.7
410.941	350.03
411.15	446.29
411.358	360.27
411.567	491.34
411.775	415.57
411.984	405.33
412.192	538.45
412.401	454.48
412.609	452.43
412.818	522.06
413.026	499.53
413.234	511.82
413.443	550.73
413.651	536.4
413.86	583.5
414.068	624.46
414.276	634.7
414.485	659.28
414.693	636.75
414.901	716.62
415.11	759.63
415.318	712.52
415.526	751.43
415.734	841.54
415.943	853.83
416.151	847.69
416.359	886.6
416.567	810.82
416.776	968.52
416.984	1060.68
417.192	1091.4
417.4	1021.77
417.608	1029.96
417.817	1185.6
418.025	1124.16
418.233	1261.38
418.441	1224.51
418.649	1341.25
418.857	1386.3
419.065	1431.36
419.273	1361.73
419.481	1365.82
419.689	1433.41
419.897	1695.55
420.105	1584.96
420.313	1566.53
420.521	1650.49
420.729	1599.29
420.937	1740.6
421.145	1865.53
421.353	1902.39
421.561	2031.41
421.769	2019.13
421.977	2121.52
422.185	2045.75
422.393	2217.78
422.601	2410.29
422.809	2457.39
423.017	2299.7
423.224	2467.63
423.432	2688.81
423.64	2623.28
423.848	2742.06
424.056	2873.13
424.263	2899.75
424.471	3012.39
424.679	3014.44
424.887	3204.9
425.094	3178.28
425.302	3426.08
425.51	3372.83
425.718	3538.72
425.925	3583.77
426.133	3655.45
426.341	3915.55
426.548	4136.73
426.756	3960.6
426.964	4245.27
427.171	4286.23
427.379	4556.56
427.586	4671.25
427.794	4765.45
428.001	4892.43
428.209	5285.64
428.417	5152.52
428.624	5506.82
428.832	5504.77
429.039	5392.13
429.247	5402.37
429.454	5949.18
429.662	6344.44
429.869	5859.07
430.076	6276.85
430.284	6010.62
430.491	6534.9
430.699	6788.85
430.906	6604.53
431.114	6866.67
431.321	7149.29
431.528	7251.69
431.736	7663.33
431.943	8042.2
432.15	7956.19
432.358	7972.57
432.565	8318.68
432.772	8337.11
432.979	8664.79
433.187	8861.39
433.394	8916.69
433.601	9559.75
433.808	9549.51
434.016	9465.54
434.223	9903.81
434.43	10481.33
434.637	10247.86
434.844	11013.81
435.052	11024.05
435.259	11013.81
435.466	11302.57
435.673	11110.06
435.88	11767.46
436.087	12336.79
436.294	12447.38
436.501	12218.01
436.708	12453.53
436.915	12883.6
437.122	13313.67
437.329	13319.82
437.537	13811.33
437.743	14003.84
437.95	13889.15
438.157	14458.49
438.364	14915.19
438.571	15199.85
438.778	15298.16
438.985	16563.8
439.192	15881.83
439.399	16399.96
439.606	16025.18
439.813	17071.7
440.02	17847.88
440.227	17671.75
440.433	17755.72
440.64	18204.22
440.847	18292.29
441.054	18402.88
441.261	19672.62
441.467	19414.57
441.674	19805.74
441.881	20604.44
442.088	20452.89
442.294	20395.55
442.501	20899.35
442.708	21452.3
442.914	22091.27
443.121	22937.08
443.328	22109.7
443.534	23928.3
443.741	23449.07
443.948	22982.13
444.154	24921.56
444.361	24487.39
444.568	24706.52
444.774	24620.51
444.981	25023.96
445.187	25845.19
445.394	26932.67
445.6	26443.2
445.807	29074.84
446.013	27645.36
446.22	28560.8
446.426	29382.04
446.633	29877.65
446.839	30856.57
447.046	29527.44
447.252	31253.88
447.459	31370.61
447.665	30983.55
447.871	32519.53
448.078	34149.71
448.284	32357.74
448.491	33019.23
448.697	34473.29
448.903	35116.35
449.11	35577.14
449.316	34225.48
449.522	35249.47
449.728	36164.91
449.935	36420.91
450.141	36836.64
450.347	37500.19
450.553	36089.13
450.76	36513.06
450.966	38036.75
451.172	37766.42
451.378	38702.34
451.584	38006.03
451.791	38681.86
451.997	38728.97
452.203	39081.22
452.409	39122.18
452.615	39120.13
452.821	37770.52
453.027	37459.23
453.233	39466.24
453.44	37469.47
453.646	38239.5
453.852	38520.07
454.058	39382.27
454.264	37614.87
454.47	38931.72
454.676	37885.2
454.882	39030.02
455.088	35556.66
455.294	36029.74
455.5	37086.5
455.705	37203.23
455.911	35886.39
456.117	35171.64
456.323	34413.9
456.529	32882.02
456.735	34264.39
456.941	33264.99
457.147	32869.73
457.352	31853.94
457.558	31540.6
457.764	31542.64
457.97	30868.86
458.176	30420.36
458.381	30565.76
458.587	28919.2
458.793	28816.8
458.999	27583.92
459.204	29328.79
459.41	28612
459.616	26658.24
459.821	26729.92
460.027	26715.58
460.233	25867.72
460.438	24849.88
460.644	25132.5
460.85	24088.04
461.055	23807.47
461.261	23457.26
461.466	21786.12
461.672	20921.88
461.878	22703.61
462.083	21282.32
462.289	20768.28
462.494	20588.06
462.7	19785.26
462.905	19041.84
463.111	19424.81
463.316	19846.69
463.522	19570.22
463.727	19377.71
463.932	19414.57
464.138	19013.17
464.343	19140.15
464.549	18673.21
464.754	19531.31
464.959	19099.19
465.165	19144.24
465.37	17862.21
465.575	17649.22
465.781	18175.55
465.986	18527.8
466.191	17956.42
466.397	17544.78
466.602	16594.52
466.807	17329.74
467.012	17372.75
467.218	17253.97
467.423	16842.32
467.628	17153.62
467.833	17733.19
468.038	17032.79
468.244	16784.98
468.449	17215.05
468.654	16905.81
468.859	16563.8
469.064	16633.43
469.269	15793.76
469.474	16072.29
469.679	16342.62
469.885	15949.41
470.09	16094.82
470.295	15947.36
470.5	15656.55
470.705	15558.25
470.91	15369.83
471.115	15203.95
471.32	15566.44
471.525	15216.24
471.73	15005.3
471.935	14993.01
472.139	14415.48
472.344	14466.68
472.549	14548.6
472.754	14403.19
472.959	14202.49
473.164	13543.05
473.369	13704.84
473.574	14085.76
473.778	13907.59
473.983	13870.72
474.188	13809.28
474.393	13098.64
474.598	13303.43
474.802	13149.84
475.007	12813.97
475.212	13164.17
475.417	12551.83
475.621	12324.51
475.826	12594.84
476.031	12218.01
476.235	12095.13
476.44	12478.1
476.645	11851.42
476.849	11906.72
477.054	11742.88
477.259	11798.18
477.463	11798.18
477.668	11318.95
477.872	11529.89
478.077	11277.99
478.282	11060.91
478.486	10923.69
478.691	11050.67
478.895	11046.57
479.1	10745.52
479.304	10915.5
479.509	10702.51
479.713	10628.79
479.918	10413.75
480.122	10430.13
480.326	10606.26
480.531	10462.9
480.735	10174.14
480.94	10301.11
481.144	10833.58
481.348	9998.01
481.553	10282.68
481.757	10049.21
481.961	10133.18
482.166	10311.35
482.37	10190.52
482.574	10026.68
482.778	9889.47
482.983	10104.51
483.187	10071.74
483.391	10073.79
483.595	10024.64
483.8	9799.36
484.004	10051.26
484.208	10129.08
484.412	10219.19
484.616	10006.2
484.821	9995.96
485.025	9871.04
485.229	10057.4
485.433	10038.97
485.637	9918.14
485.841	10012.35
486.045	10034.88
486.249	10184.38
486.453	10120.89
486.657	10088.12
486.861	10170.04
487.065	9780.93
487.269	9991.87
487.473	9680.58
487.677	10137.27
487.881	10114.75
488.085	10008.25
488.289	10100.41
488.493	9989.82
488.697	10061.5
488.901	10055.36
489.105	9873.09
489.309	10102.46
489.512	10143.42
489.716	9916.09
489.92	10079.93
490.124	10075.84
490.328	10313.4
490.531	10088.12
490.735	10403.51
490.939	10202.81
491.143	10020.54
491.346	10258.1
491.55	10477.24
491.754	10350.26
491.958	10280.63
492.161	10348.22
492.365	10516.15
492.569	10423.99
492.772	10491.57
492.976	10591.92
493.18	10739.38
493.383	10903.21
493.587	10909.36
493.79	10995.37
493.994	10772.14
494.197	11134.64
494.401	11120.3
494.605	10993.33
494.808	11081.39
495.012	11327.14
495.215	11359.91
495.419	11357.86
495.622	11253.42
495.825	11650.72
496.029	11603.62
496.232	11767.46
496.436	11550.37
496.639	12158.62
496.843	12134.04
497.046	12416.66
497.249	12234.39
497.453	12496.53
497.656	12695.19
497.859	12869.26
498.063	12754.58
498.266	12973.71
498.469	12668.56
498.673	13041.29
498.876	13375.11
499.079	13590.15
499.282	13516.42
499.485	13702.79
499.689	13944.45
499.892	14040.7
500.095	14114.43
500.298	14474.87
500.501	14222.97
500.705	14745.2
500.908	14968.43
501.111	14925.43
501.314	15236.72
501.517	15421.03
501.72	15545.96
501.923	15552.1
502.126	15799.91
502.329	16094.82
502.532	16037.47
502.735	16191.07
502.938	16533.08
503.141	16766.55
503.344	16846.42
503.547	17145.42
503.75	17327.69
503.953	17296.97
504.156	17757.77
504.359	17786.44
504.562	17892.93
504.765	18433.6
504.968	18554.43
505.17	18505.27
505.373	18996.79
505.576	19127.86
505.779	19228.21
505.982	19529.26
506.185	19887.65
506.387	19752.49
506.59	20002.34
506.793	20424.22
506.996	20524.57
507.198	21042.71
507.401	20780.57
507.604	21208.59
507.807	21458.45
508.009	21550.6
508.212	21868.04
508.415	22367.74
508.617	22320.64
508.82	22734.33
509.022	22562.3
509.225	23047.67
509.428	23180.79
509.63	23504.37
509.833	23813.61
510.035	24102.37
510.238	23836.14
510.44	24290.79
510.643	24665.56
510.845	25036.25
511.048	25181.65
511.25	25531.86
511.453	25621.97
511.655	26701.25
511.858	26090.95
512.06	26338.76
512.262	26748.35
512.465	26510.78
512.667	27348.4
512.87	27862.44
513.072	27467.19
513.274	28194.22
513.477	28679.58
513.679	28716.45
513.881	28970.4
514.084	29197.72
514.286	29447.57
514.488	29724.05
514.69	30223.75
514.893	30557.57
515.095	30596.48
515.297	31227.26
515.499	30891.39
515.701	31468.92
515.904	32007.53
516.106	32148.84
516.308	32466.28
516.51	32765.28
516.712	32822.62
516.914	33697.11
517.116	33854.8
517.318	33916.24
517.52	33760.59
517.722	33965.39
517.925	34600.26
518.127	35145.02
518.329	35431.74
518.531	35636.53
518.733	36173.1
518.935	36183.34
519.136	36754.72
519.338	37246.24
519.54	36980
519.742	37311.77
519.944	37631.26
520.146	38497.55
520.348	38776.07
520.55	38911.24
520.752	38812.93
520.954	39587.07
521.155	38960.39
521.357	40105.2
521.559	40248.56
521.761	40668.39
521.963	40465.64
522.164	40942.82
522.366	41055.46
522.568	41575.64
522.77	41678.04
522.971	42144.98
523.173	41790.68
523.375	42462.41
523.576	42439.89
523.778	42607.82
523.98	42861.77
524.181	43189.44
524.383	43424.96
524.584	43807.93
524.786	44225.71
524.988	44016.82
525.189	44332.21
525.391	44459.18
525.592	44485.81
525.794	44674.22
525.995	44549.29
526.197	44954.79
526.398	45352.1
526.6	45814.94
526.801	45651.1
527.003	46072.98
527.204	45692.06
527.406	46206.1
527.607	46283.92
527.808	46503.06
528.01	45716.64
528.211	46607.5
528.412	47682.69
528.614	46728.33
528.815	46851.21
529.016	47213.7
529.218	47494.27
529.419	47367.3
529.62	47307.91
529.822	47051.91
530.023	47453.31
530.224	47240.32
530.425	47279.24
530.626	47273.09
530.828	47623.29
531.029	48264.31
531.23	47393.92
531.431	47690.88
531.632	48039.03
531.833	47928.44
532.035	47627.39
532.236	47748.22
532.437	48436.34
532.638	47770.75
532.839	47705.21
533.04	48114.81
533.241	47121.54
533.442	48381.04
533.643	47893.63
533.844	47828.09
534.045	48145.53
534.246	47838.33
534.447	48186.49
534.648	47965.31
534.849	48118.9
535.05	47797.37
535.251	47762.56
535.451	47778.94
535.652	47752.32
535.853	47684.73
536.054	47989.88
536.255	47961.21
536.456	47334.53
536.657	48245.88
536.857	48153.72
537.058	47264.9
537.259	47838.33
537.46	47627.39
537.66	47690.88
537.861	48053.37
538.062	47531.14
538.263	48200.82
538.463	47635.58
538.664	47402.11
538.865	47838.33
539.065	48133.24
539.266	47533.18
539.466	47813.76
539.667	47299.72
539.868	47809.66
540.068	47559.81
540.269	47209.6
540.469	47780.99
540.67	47350.91
540.87	47299.72
541.071	47453.31
541.271	47234.18
541.472	47164.55
541.672	46963.85
541.873	47096.97
542.073	46326.93
542.274	47473.79
542.474	46679.18
542.675	46617.74
542.875	47252.61
543.075	47154.31
543.276	46574.73
543.476	47516.8
543.676	46761.1
543.877	46863.5
544.077	47135.88
544.277	46814.35
544.478	46824.59
544.678	47244.42
544.878	47025.29
545.078	46898.31
545.279	46695.56
545.479	46795.92
545.679	46926.99
545.879	46619.79
546.079	46480.53
546.28	46949.51
546.48	46478.48
546.68	46914.7
546.88	46939.27
547.08	46812.3
547.28	46818.44
547.48	46371.99
547.68	46589.07
547.88	46163.09
548.081	46978.18
548.281	46470.29
548.481	46408.85
548.681	46720.14
548.881	46408.85
549.081	46969.99
549.28	46425.23
549.48	46670.99
549.68	46460.05
549.88	47021.19
550.08	46228.63
550.28	46709.9
550.48	46587.02
550.68	46619.79
550.88	46304.4
551.08	46275.73
551.279	46978.18
551.479	46478.48
551.679	46945.42
551.879	46199.96
552.079	46759.05
552.278	46408.85
552.478	46310.55
552.678	46443.66
552.878	46068.89
553.077	46443.66
553.277	46474.38
553.477	46824.59
553.676	46498.96
553.876	46294.16
554.076	46386.32
554.275	46593.17
554.475	45894.81
554.674	46386.32
554.874	46460.05
555.074	45972.63
555.273	46208.15
555.473	46816.39
555.672	46355.6
555.872	46060.69
556.071	46265.49
556.271	46761.1
556.47	46214.29
556.67	45788.31
556.869	46486.67
557.068	45831.32
557.268	45892.76
557.467	46032.02
557.667	45993.11
557.866	46085.27
558.065	45634.72
558.265	45845.66
558.464	45819.03
558.663	46290.07
558.863	45558.94
559.062	45946.01
559.261	45597.85
559.461	45952.15
559.66	45206.69
559.859	45511.84
560.058	45632.67
560.258	45536.41
560.457	44995.75
560.656	45378.72
560.855	45151.4
561.054	45388.96
561.253	44737.71
561.453	45446.3
561.652	45405.34
561.851	45274.27
562.05	44858.54
562.249	44737.71
562.448	44917.93
562.647	45024.42
562.846	45049
563.045	44772.52
563.244	44123.32
563.443	45077.67
563.642	44006.58
563.841	44328.11
564.04	44094.64
564.239	44879.02
564.438	44387.5
564.637	44231.86
564.836	44278.96
565.035	43748.54
565.234	43648.19
565.432	43562.17
565.631	43543.74
565.83	43781.31
566.029	43773.11
566.228	43525.31
566.427	43369.66
566.625	43443.39
566.824	43070.66
567.023	43484.35
567.222	42347.73
567.42	43640
567.619	42499.28
567.818	42493.13
568.016	42845.38
568.215	42722.51
568.414	42525.9
568.612	42634.44
568.811	42394.83
569.01	42628.3
569.208	41307.36
569.407	42472.65
569.605	41915.61
569.804	42034.39
570.002	41309.41
570.201	41931.99
570.4	41600.22
570.598	41116.9
570.797	41020.64
570.995	41446.62
571.193	40916.2
571.392	41286.88
571.59	41278.69
571.789	40502.51
571.987	40803.56
572.186	40801.51
572.384	40545.51
572.582	41059.55
572.781	40516.84
572.979	40160.5
573.177	40312.05
573.376	40187.12
573.574	39859.45
573.772	39845.11
573.971	39922.93
574.169	39288.06
574.367	39257.34
574.565	39531.77
574.763	39331.07
574.962	39556.35
575.16	38503.69
575.358	39048.45
575.556	38720.77
575.754	39302.4
575.952	38515.98
576.151	38937.86
576.349	38657.29
576.547	38352.14
576.745	38655.24
576.943	38139.15
577.141	38425.87
577.339	38575.37
577.537	37956.88
577.735	37678.36
577.933	37586.2
578.131	37666.07
578.329	37549.34
578.527	37135.65
578.725	37414.17
578.923	37371.16
579.121	36705.57
579.319	37068.06
579.516	37500.19
579.714	36803.88
579.912	36920.61
580.11	36650.28
580.308	36640.04
580.506	36795.68
580.704	36162.86
580.901	36384.04
581.099	36586.79
581.297	36054.32
581.495	35763.51
581.692	36289.84
581.89	35566.9
582.088	35894.58
582.285	35638.58
582.483	35773.75
582.681	35532.09
582.878	35534.14
583.076	35247.42
583.274	35599.67
583.471	34921.79
583.669	34977.09
583.866	34702.66
584.064	34757.95
584.262	34516.29
584.459	34522.44
584.657	34493.77
584.854	34313.55
585.052	34004.3
585.249	34436.42
585.447	34084.17
585.644	34006.35
585.841	33979.73
586.039	34094.41
586.236	33426.78
586.434	33654.1
586.631	33291.61
586.828	33676.63
587.026	33351
587.223	33631.57
587.42	33205.59
587.618	33314.14
587.815	32628.07
588.012	33047.9
588.21	32529.76
588.407	33025.37
588.604	32900.45
588.801	32503.14
588.999	32816.48
589.196	32437.61
589.393	32028.01
589.59	32382.31
589.787	31903.09
589.984	31823.22
590.182	31860.08
590.379	32079.21
590.576	31905.13
590.773	31905.13
590.97	31569.27
591.167	31528.31
591.364	31659.38
591.561	31483.25
591.758	31225.21
591.955	30963.07
592.152	31825.26
592.349	31098.23
592.546	31155.58
592.743	31206.78
592.94	30410.12
593.137	30903.68
593.334	31143.29
593.531	30502.28
593.727	30551.43
593.924	30948.73
594.121	30348.68
594.318	30770.56
594.515	30336.39
594.712	30657.92
594.908	29951.37
595.105	30422.41
595.302	30045.58
595.499	29861.26
595.696	29973.9
595.892	29537.68
596.089	29914.51
596.286	29896.08
596.482	29715.86
596.679	29697.42
596.876	29435.28
597.072	29404.56
597.269	29689.23
597.466	29177.24
597.662	28982.68
597.859	29158.81
598.055	29156.76
598.252	28874.14
598.448	28886.43
598.645	28605.86
598.841	28722.59
599.038	28794.27
599.234	28532.13
599.431	28513.7
599.627	28194.22
599.824	28439.97
600.02	27825.58
600.217	28433.83
600.413	28054.95
600.609	27964.84
600.806	27735.47
601.002	27895.21
601.198	27915.69
601.395	27248.05
601.591	27583.92
601.787	27682.22
601.984	27188.66
602.18	27469.23
602.376	27360.69
602.572	27458.99
602.769	27157.94
602.965	26811.84
603.161	27051.45
603.357	26772.92
603.553	26783.16
603.75	26805.69
603.946	26736.06
604.142	27043.26
604.338	26207.69
604.534	26475.97
604.73	26287.56
604.926	26357.19
605.122	26396.1
605.318	26283.46
605.514	26138.05
605.71	26314.18
605.906	25851.34
606.102	25912.78
606.298	26068.42
606.494	25695.69
606.69	25994.7
606.886	25859.53
607.082	25593.29
607.278	25798.09
607.474	25419.22
607.67	25834.96
607.866	25292.24
608.062	25601.49
608.257	25157.08
608.453	25232.85
608.649	25163.22
608.845	25253.33
609.041	25230.8
609.236	25089.49
609.432	24853.98
609.628	25476.56
609.824	24700.38
610.019	24600.03
610.215	24479.2
610.411	24493.54
610.606	24471.01
610.802	24520.16
610.998	24419.81
611.193	24950.23
611.389	24255.97
611.584	24634.85
611.78	24421.86
611.976	24405.47
612.171	24278.5
612.367	24495.58
612.562	23977.45
612.758	23987.69
612.953	23893.48
613.149	24243.68
613.344	23530.99
613.539	24192.48
613.735	24028.65
613.93	24053.22
614.126	23434.74
614.321	23873
614.517	23870.95
614.712	23530.99
614.907	23178.74
615.103	23834.09
615.298	23561.71
615.493	23631.34
615.688	23195.12
615.884	23549.42
616.079	22865.4
616.274	23176.69
616.47	23379.44
616.665	23246.32
616.86	22926.84
617.055	22896.12
617.25	22773.24
617.445	22783.48
617.641	22672.89
617.836	22461.95
618.031	22283.78
618.226	22744.57
618.421	22353.41
618.616	22808.06
618.811	22134.28
619.006	22662.65
619.201	22091.27
619.396	22052.36
619.591	22220.29
619.786	21937.67
619.981	21689.87
620.176	22183.43
620.371	21378.58
620.566	21896.71
620.761	21560.84
620.956	21480.97
621.151	21315.09
621.346	21057.04
621.541	20997.65
621.735	21476.88
621.93	20708.89
622.125	21034.52
622.32	20772.38
622.515	20688.41
622.709	20442.65
622.904	20516.38
623.099	20405.79
623.294	20280.86
623.488	20125.22
623.683	20090.4
623.878	19570.22
624.072	19836.45
624.267	19740.2
624.462	19592.75
624.656	19631.66
624.851	19443.24
625.046	19369.52
625.24	19146.29
625.435	18853.43
625.629	18800.18
625.824	18626.11
626.018	18865.72
626.213	18415.16
626.407	18636.34
626.602	18284.09
626.796	18300.48
626.991	18273.85
627.185	18171.46
627.38	17989.19
627.574	18058.82
627.768	17907.27
627.963	17571.4
628.157	17649.22
628.352	17552.97
628.546	17401.42
628.74	17464.91
628.935	17313.36
629.129	17346.12
629.323	16793.17
629.517	16920.15
629.712	16918.1
629.906	16756.31
630.1	16834.13
630.294	16705.11
630.489	16502.36
630.683	16715.35
630.877	15973.99
631.071	16107.1
631.265	16410.2
631.459	15973.99
631.653	16055.9
631.848	16039.52
632.042	15830.63
632.236	15709.8
632.43	15556.2
632.624	15797.86
632.818	15634.02
633.012	15335.02
633.206	15230.57
633.4	15312.49
633.594	15275.63
633.788	15087.22
633.982	15113.84
634.176	14954.1
634.369	14927.47
634.563	14841.46
634.757	14675.57
634.951	14716.53
635.145	14720.63
635.339	14661.24
635.533	14321.27
635.726	14282.36
635.92	14227.07
636.114	14114.43
636.308	13831.81
636.501	14036.61
636.695	13852.29
636.889	14108.29
637.083	13727.36
637.276	13665.92
637.47	13899.39
637.664	13452.94
637.857	13655.68
638.051	13588.1
638.244	13366.92
638.438	13262.47
638.632	13174.41
638.825	12965.52
639.019	12830.35
639.212	12885.65
639.406	12715.67
639.599	12641.94
639.793	12990.1
639.986	12576.41
640.18	12330.65
640.373	12566.17
640.567	12181.15
640.76	12322.46
640.954	12099.23
641.147	12222.11
641.34	12035.74
641.534	11849.38
641.727	12019.36
641.92	11888.29
642.114	11742.88
642.307	11423.4
642.5	11853.47
642.694	11617.96
642.887	11435.69
643.08	11615.91
643.273	11286.19
643.467	11454.12
643.66	11263.66
643.853	11253.42
644.046	10741.43
644.239	11151.02
644.432	10804.91
644.626	10946.22
644.819	10735.28
645.012	10671.79
645.205	10745.52
645.398	10665.65
645.591	10598.07
645.784	10671.79
645.977	10213.05
646.17	10276.54
646.363	10008.25
646.556	10116.79
646.749	10065.6
646.942	10106.56
647.135	10135.23
647.328	9899.71
647.521	9926.33
647.714	9926.33
647.907	9670.34
648.099	9836.22
648.292	9713.35
648.485	9410.25
648.678	9467.59
648.871	9502.4
649.064	9492.16
649.256	9369.29
649.449	9359.05
649.642	9262.79
649.835	9088.71
650.027	9006.8
650.22	8922.83
650.413	8971.98
650.605	9309.9
650.798	8861.39
650.991	8697.55
651.183	8785.62
651.376	8683.22
651.568	8593.11
651.761	8560.34
651.954	8521.43
652.146	8728.27
652.339	8363.73
652.531	8404.69
652.724	8394.45
652.916	8318.68
653.109	8287.96
653.301	8482.52
653.494	8459.99
653.686	8017.63
653.879	8306.39
654.071	8150.74
654.263	8058.59
654.456	7933.66
654.648	7991
654.84	8017.63
655.033	7827.17
655.225	7757.53
655.417	7673.57
655.61	7673.57
655.802	7720.67
655.994	7614.18
656.186	7735.01
656.379	7626.46
656.571	7565.03
656.763	7524.07
656.955	7438.05
657.148	7427.81
657.34	7374.56
657.532	7405.28
657.724	7286.5
657.916	7257.83
658.108	7225.06
658.3	7104.23
658.492	7235.3
658.684	7214.82
658.876	7091.95
659.068	7014.12
659.26	6778.61
659.452	7147.24
659.644	6985.45
659.836	6784.75
660.028	7061.23
660.22	6706.93
660.412	6676.21
660.604	6723.31
660.796	6577.9
660.988	6881
661.18	6641.39
661.372	6520.56
661.563	6266.61
661.755	6491.89
661.947	6600.43
662.139	6364.92
662.331	6493.94
662.522	6270.71
662.714	6293.24
662.906	6239.99
663.097	6321.91
663.289	6199.03
663.481	6045.43
663.673	6108.92
663.864	6029.05
664.056	6153.98
664.247	5893.88
664.439	5943.03
664.631	5844.73
664.822	5932.79
665.014	6051.58
665.205	5844.73
665.397	5893.88
665.588	5701.37
665.78	5920.51
665.971	5619.46
666.163	5717.76
666.354	5728
666.546	5578.5
666.737	5504.77
666.929	5662.46
667.12	5721.85
667.311	5742.33
667.503	5547.78
667.694	5527.3
667.885	5459.71
668.077	5347.08
668.268	5371.65
668.459	5412.61
668.651	5308.16
668.842	5402.37
669.033	5349.12
669.224	5248.77
669.416	5238.53
669.607	5357.32
669.798	5267.2
669.989	5295.88
670.18	5129.99
670.371	5291.78
670.563	5097.22
670.754	5074.7
670.945	5097.22
671.136	4941.58
671.327	5199.62
671.518	5113.61
671.709	4970.25
671.9	5011.21
672.091	5068.55
672.282	5103.37
672.473	4820.75
672.664	4957.96
672.855	4914.95
673.046	4980.49
673.237	5005.06
673.428	4949.77
673.619	4941.58
673.809	4790.03
674	4861.71
674.191	4683.53
674.382	4869.9
674.573	4734.73
674.764	4783.88
674.954	4863.76
675.145	4712.21
675.336	4724.49
675.527	4796.17
675.717	4859.66
675.908	4699.92
676.099	4722.45
676.289	4777.74
676.48	4785.93
676.671	4738.83
676.861	4697.87
677.052	4683.53
677.243	4599.57
677.433	4781.84
677.624	4714.25
677.814	4615.95
678.005	4534.03
678.195	4683.53
678.386	4638.48
678.576	4542.22
678.767	4562.7
678.957	4538.13
679.148	4658.96
679.338	4652.81
679.529	4370.19
679.719	4536.08
679.909	4572.94
680.1	4431.63
680.29	4413.2
680.481	4538.13
680.671	4491.02
680.861	4437.78
681.052	4706.06
681.242	4437.78
681.432	4433.68
681.622	4353.81
681.813	4394.77
682.003	4519.7
682.193	4450.07
682.383	4505.36
682.573	4443.92
682.764	4433.68
682.954	4605.71
683.144	4364.05
683.334	4556.56
683.524	4427.54
683.714	4405.01
683.904	4333.33
684.094	4386.58
684.284	4337.43
684.474	4450.07
684.664	4466.45
684.854	4290.32
685.044	4456.21
685.234	4306.71
685.424	4341.52
685.614	4316.95
685.804	4288.28
685.994	4341.52
686.184	4362
686.374	4181.78
686.564	4405.01
686.753	4194.07
686.943	4259.6
687.133	4278.04
687.323	4204.31
687.513	4368.15
687.702	3968.79
687.892	4228.88
688.082	4175.64
688.272	4230.93
688.461	4048.66
688.651	4273.94
688.841	4310.8
689.03	4097.81
689.22	4187.93
689.41	4116.25
689.599	4282.13
689.789	4163.35
689.979	4007.7
690.168	4208.41
690.358	4144.92
690.547	4101.91
690.737	4128.53
690.926	4128.53
691.116	3917.59
691.305	4136.73
691.495	3981.08
691.684	4024.09
691.874	3991.32
692.063	4005.66
692.252	4001.56
692.442	4022.04
692.631	4015.9
692.82	3895.07
693.01	3925.79
693.199	3974.94
693.388	3913.5
693.578	3976.98
693.767	3938.07
693.956	3981.08
694.146	3886.87
694.335	3933.98
694.524	3915.55
694.713	3792.67
694.902	3929.88
695.092	3927.83
695.281	3925.79
695.47	3854.11
695.659	3833.63
695.848	3755.8
696.037	3893.02
696.226	3813.15
696.415	3839.77
696.604	3874.59
696.793	3718.94
696.982	3862.3
697.171	3753.76
697.36	3743.52
697.549	3823.39
697.738	3755.8
697.927	3790.62
698.116	3747.61
698.305	3792.67
698.494	3759.9
698.683	3643.17
698.872	3856.15
699.061	3782.43
699.25	3696.41
699.438	3663.65
699.627	3782.43
699.816	3704.6
700.005	3739.42
700.193	3845.91
700.382	3686.17
700.571	3731.23
700.76	3821.34
700.948	3850.01
701.137	3747.61
701.326	3655.45
701.514	3710.75
701.703	3753.76
701.892	3645.21
702.08	3782.43
702.269	3829.53
702.457	3663.65
702.646	3630.88
702.834	3618.59
703.023	3632.93
703.212	3417.89
703.4	3555.1
703.589	3524.38
703.777	3688.22
703.965	3553.06
704.154	3585.82
704.342	3499.81
704.531	3393.31
704.719	3548.96
704.907	3448.61
705.096	3370.79
705.284	3526.43
705.472	3428.13
705.661	3628.83
705.849	3405.6
706.037	3567.39
706.226	3508
706.414	3395.36
706.602	3450.66
706.79	3499.81
706.979	3528.48
707.167	3444.51
707.355	3389.22
707.543	3297.06
707.731	3362.59
707.919	3235.62
708.107	3346.21
708.296	3346.21
708.484	3374.88
708.672	3413.79
708.86	3295.01
709.048	3221.28
709.236	3292.96
709.424	3366.69
709.612	3270.44
709.8	3243.81
709.988	3168.04
710.176	3368.74
710.364	3299.11
710.551	3125.03
710.739	3120.93
710.927	3147.56
711.115	3155.75
711.303	3188.52
711.491	3182.37
711.679	3168.04
711.866	3147.56
712.054	3168.04
712.242	3092.26
712.43	3047.21
712.617	3233.57
712.805	3157.8
712.993	3073.83
713.181	3104.55
713.368	3071.78
713.556	3159.85
713.744	3077.93
713.931	3098.41
714.119	3157.8
714.306	3114.79
714.494	3039.01
714.682	2903.85
714.869	3102.5
715.057	2901.8
715.244	2973.48
715.432	2957.1
715.619	3057.45
715.807	2903.85
715.994	3000.1
716.182	2953
716.369	2869.03
716.556	2959.14
716.744	2879.27
716.931	2801.45
717.119	2916.14
717.306	2903.85
717.493	2975.53
717.681	2852.65
717.868	2963.24
718.055	2840.36
718.242	2795.31
718.43	2879.27
718.617	2926.38
718.804	2887.47
718.991	2985.77
719.179	2791.21
719.366	2871.08
719.553	2799.4
719.74	2758.44
719.927	2733.87
720.114	2737.96
720.301	2756.4
720.488	2707.24
720.676	2703.15
720.863	2723.63
721.05	2666.28
721.237	2713.39
721.424	2750.25
721.611	2662.19
721.798	2637.61
721.985	2639.66
722.172	2817.83
722.358	2631.47
722.545	2619.18
722.732	2537.26
722.919	2565.93
723.106	2467.63
723.293	2637.61
723.48	2545.45
723.667	2586.41
723.853	2469.68
724.04	2459.44
724.227	2574.13
724.414	2522.93
724.6	2518.83
724.787	2484.02
724.974	2563.89
725.161	2531.12
725.347	2416.43
725.534	2522.93
725.72	2477.87
725.907	2582.32
726.094	2455.34
726.28	2453.3
726.467	2363.19
726.653	2455.34
726.84	2438.96
727.027	2334.51
727.213	2295.6
727.4	2463.54
727.586	2332.47
727.773	2414.38
727.959	2316.08
728.145	2443.06
728.332	2314.03
728.518	2369.33
728.705	2271.03
728.891	2393.9
729.077	2326.32
729.264	2342.71
729.45	2434.86
729.636	2393.9
729.823	2189.11
730.009	2408.24
730.195	2336.56
730.382	2385.71
730.568	2367.28
730.754	2309.94
730.94	2299.7
731.126	2256.69
731.313	2268.98
731.499	2303.79
731.685	2342.71
731.871	2137.91
732.057	2297.65
732.243	2354.99
732.429	2211.64
732.615	2217.78
732.801	2201.4
732.987	2299.7
733.173	2154.29
733.359	2139.96
733.545	2137.91
733.731	2133.81
733.917	2117.43
734.103	2109.24
734.289	2332.47
734.475	2129.72
734.661	2228.02
734.847	2174.77
735.033	2101.05
735.219	2195.25
735.404	2174.77
735.59	2129.72
735.776	2092.85
735.962	2068.28
736.148	2090.81
736.333	2139.96
736.519	2021.17
736.705	2191.16
736.89	2121.52
737.076	1965.88
737.262	1982.26
737.447	2076.47
737.633	2094.9
737.819	1939.26
738.004	1974.07
738.19	1949.5
738.375	2023.22
738.561	2066.23
738.747	2076.47
738.932	1888.06
739.118	2064.18
739.303	1949.5
739.489	2064.18
739.674	1992.5
739.859	2053.94
740.045	1935.16
740.23	1959.74
740.416	2029.37
740.601	1914.68
740.786	1924.92
740.972	1902.39
741.157	1969.98
741.342	1832.76
741.528	1976.12
741.713	1857.34
741.898	1783.61
742.084	1869.62
742.269	1902.39
742.454	1951.54
742.639	1855.29
742.824	1789.75
743.01	1881.91
743.195	1873.72
743.38	1730.36
743.565	1808.19
743.75	1763.13
743.935	1787.71
744.12	1795.9
744.305	1703.74
744.49	1767.23
744.675	1783.61
744.86	1736.51
745.045	1685.31
745.23	1742.65
745.415	1734.46
745.6	1736.51
745.785	1701.69
745.97	1744.7
746.155	1584.96
746.34	1666.88
746.525	1580.86
746.71	1677.12
746.895	1544
747.079	1593.15
747.264	1609.53
747.449	1599.29
747.634	1615.68
747.819	1611.58
748.003	1531.71
748.188	1498.94
748.373	1589.05
748.557	1539.9
748.742	1562.43
748.927	1503.04
749.111	1476.41
749.296	1449.79
749.481	1384.26
749.665	1455.94
749.85	1417.02
750.034	1468.22
750.219	1484.61
750.404	1349.44
750.588	1374.02
750.773	1490.75
750.957	1374.02
751.141	1367.87
751.326	1494.85
751.51	1374.02
751.695	1351.49
751.879	1400.64
752.064	1412.93
752.248	1347.39
752.432	1439.55
752.617	1339.2
752.801	1355.58
752.985	1277.76
753.17	1466.17
753.354	1304.39
753.538	1277.76
753.722	1259.33
753.907	1210.18
754.091	1212.23
754.275	1288
754.459	1183.56
754.643	1208.13
754.828	1199.94
755.012	1150.79
755.196	1265.47
755.38	1204.03
755.564	1208.13
755.748	1189.7
755.932	1130.31
756.116	1079.11
756.3	1140.55
756.484	1156.93
756.668	1107.78
756.852	1161.03
757.036	1144.64
757.22	1060.68
757.404	1070.92
757.588	1066.82
757.772	1122.12
757.956	1175.36
758.14	1115.97
758.323	1052.49
758.507	1115.97
758.691	1124.16
758.875	1072.96
759.059	1103.68
759.242	999.24
759.426	982.85
759.61	1001.29
759.794	958.28
759.977	1111.88
760.161	1025.86
760.345	978.76
760.528	989
760.712	982.85
760.895	1023.81
761.079	862.02
761.263	900.94
761.446	952.13
761.63	857.93
761.813	913.22
761.997	896.84
762.18	950.09
762.364	960.33
762.547	902.98
762.731	964.42
762.914	898.89
763.098	812.87
763.281	909.13
763.464	843.59
763.648	925.51
763.831	968.52
764.015	866.12
764.198	864.07
764.381	816.97
764.564	792.39
764.748	819.02
764.931	802.63
765.114	874.31
765.297	841.54
765.481	814.92
765.664	825.16
765.847	884.55
766.03	907.08
766.213	913.22
766.397	802.63
766.58	829.26
766.763	821.06
766.946	769.87
767.129	796.49
767.312	778.06
767.495	952.13
767.678	733
767.861	812.87
768.044	839.5
768.227	827.21
768.41	753.48
768.593	749.39
768.776	782.15
768.959	751.43
769.142	821.06
769.324	751.43
769.507	778.06
769.69	706.38
769.873	667.47
770.056	771.91
770.239	769.87
770.421	784.2
770.604	757.58
770.787	773.96
770.97	763.72
771.152	733
771.335	819.02
771.518	763.72
771.7	765.77
771.883	720.71
772.066	714.57
772.248	702.28
772.431	689.99
772.613	755.53
772.796	696.14
772.978	714.57
773.161	673.61
773.343	765.77
773.526	640.84
773.708	579.4
773.891	616.27
774.073	665.42
774.256	579.4
774.438	659.28
774.621	685.9
774.803	667.47
774.985	610.12
775.168	677.71
775.35	620.36
775.532	593.74
775.715	567.12
775.897	665.42
776.079	630.6
776.261	587.6
776.444	610.12
776.626	595.79
776.808	601.93
776.99	544.59
777.173	593.74
777.355	544.59
777.537	589.64
777.719	599.88
777.901	536.4
778.083	556.88
778.265	526.16
778.447	548.68
778.629	485.2
778.811	593.74
778.993	526.16
779.175	485.2
779.357	505.68
779.539	579.4
779.721	563.02
779.903	485.2
780.085	501.58
780.267	550.73
780.449	474.96
780.631	526.16
780.812	501.58
780.994	501.58
781.176	495.44
781.358	507.73
781.54	497.49
781.721	503.63
781.903	393.04
782.085	483.15
782.267	552.78
782.448	407.38
782.63	436.05
782.812	501.58
782.993	434
783.175	462.67
783.357	517.97
783.538	423.76
783.72	481.1
783.901	436.05
784.083	411.47
784.264	368.46
784.446	419.66
784.627	431.95
784.809	468.81
784.99	364.37
785.172	419.66
785.353	393.04
785.535	425.81
785.716	458.57
785.897	358.22
786.079	419.66
786.26	368.46
786.441	374.61
786.623	403.28
786.804	339.79
786.985	288.59
787.167	345.94
787.348	347.98
787.529	407.38
787.71	393.04
787.891	380.75
788.073	386.9
788.254	352.08
788.435	288.59
788.616	413.52
788.797	270.16
788.978	354.13
789.159	288.59
789.34	374.61
789.522	374.61
789.703	319.31
789.884	315.22
790.065	356.18
790.246	298.83
790.427	372.56
790.607	431.95
790.788	311.12
790.969	225.11
791.15	311.12
791.331	317.26
791.512	284.5
791.693	335.7
791.874	280.4
792.054	358.22
792.235	345.94
792.416	221.01
792.597	218.96
792.778	255.83
792.958	268.11
793.139	309.07
793.32	272.21
793.5	286.54
793.681	288.59
793.862	343.89
794.042	235.35
794.223	259.92
794.404	268.11
794.584	241.49
794.765	276.31
794.945	223.06
795.126	302.93
795.306	257.87
795.487	208.72
795.667	268.11
795.848	288.59
796.028	257.87
796.209	237.39
796.389	302.93
796.57	257.87
796.75	198.48
796.93	221.01
797.111	286.54
797.291	194.39
797.471	253.78
797.652	225.11
797.832	225.11
798.012	294.74
798.192	218.96
798.373	225.11
798.553	280.4
798.733	247.63
798.913	182.1
799.093	245.59
799.274	280.4
799.454	243.54
799.634	216.91
799.814	161.62
799.994	184.15
800.174	225.11
800.354	214.87
800.534	178
800.714	264.02
800.894	212.82
801.074	137.04
801.254	186.19
801.434	190.29
801.614	241.49
801.794	155.47
801.974	612.17
802.154	241.49
802.334	245.59
802.514	188.24
802.693	225.11
802.873	233.3
803.053	173.91
803.233	175.95
803.413	210.77
803.592	194.39
803.772	173.91
803.952	161.62
804.131	194.39
804.311	182.1
804.491	180.05
804.67	163.67
804.85	163.67
805.03	204.63
805.209	216.91
805.389	182.1
805.568	126.8
805.748	178
805.928	206.67
806.107	200.53
806.287	216.91
806.466	159.57
806.646	196.43
806.825	180.05
807.004	145.24
807.184	108.37
807.363	225.11
807.543	112.47
807.722	155.47
807.901	192.34
808.081	143.19
808.26	165.71
808.439	130.9
808.619	89.94
808.798	188.24
808.977	251.73
809.156	135
809.336	186.19
809.515	175.95
809.694	141.14
809.873	218.96
810.052	192.34
810.231	143.19
810.411	165.71
810.59	161.62
810.769	171.86
810.948	120.66
811.127	89.94
811.306	79.7
811.485	118.61
811.664	139.09
811.843	159.57
812.022	98.13
812.201	182.1
812.38	151.38
812.559	89.94
812.737	32.6
812.916	116.56
813.095	122.71
813.274	153.43
813.453	141.14
813.632	116.56
813.811	104.28
813.989	135
814.168	112.47
814.347	120.66
814.526	61.27
814.704	157.52
814.883	147.28
815.062	145.24
815.24	147.28
815.419	89.94
815.598	126.8
815.776	155.47
815.955	161.62
816.133	87.89
816.312	139.09
816.49	65.36
816.669	102.23
816.847	128.85
817.026	137.04
817.204	147.28
817.383	102.23
817.561	116.56
817.74	122.71
817.918	190.29
818.097	116.56
818.275	110.42
818.453	151.38
818.632	73.56
818.81	118.61
818.988	135
819.167	163.67
819.345	120.66
819.523	110.42
819.701	91.99
819.879	98.13
820.058	167.76
820.236	114.52
820.414	87.89
820.592	65.36
820.77	104.28
820.948	102.23
821.127	36.69
821.305	128.85
821.483	100.18
821.661	130.9
821.839	124.76
822.017	53.08
822.195	81.75
822.373	145.24
822.551	71.51
822.729	96.08
822.907	118.61
823.085	94.04
823.262	149.33
823.44	61.27
823.618	100.18
823.796	98.13
823.974	34.64
824.152	96.08
824.329	83.8
824.507	83.8
824.685	40.79
824.863	159.57
825.04	-0.17
825.218	137.04
825.396	151.38
825.574	89.94
825.751	36.69
825.929	83.8
826.107	71.51
826.284	118.61
826.462	102.23
826.639	124.76
826.817	57.17
826.994	85.84
827.172	153.43
827.349	124.76
827.527	42.84
827.704	71.51
827.882	128.85
828.059	89.94
828.237	48.98
828.414	75.6
828.591	71.51
828.769	116.56
828.946	73.56
829.124	126.8
829.301	22.36
829.478	155.47
829.655	69.46
829.833	120.66
830.01	53.08
830.187	126.8
830.364	-0.17
830.542	42.84
830.719	120.66
830.896	137.04
831.073	59.22
831.25	40.79
831.427	89.94
831.604	65.36
831.782	30.55
831.959	132.95
832.136	161.62
832.313	59.22
832.49	73.56
832.667	114.52
832.844	59.22
833.021	57.17
833.198	67.41
833.374	75.6
833.551	110.42
833.728	24.4
833.905	46.93
834.082	53.08
834.259	1.88
834.436	79.7
834.612	38.74
834.789	48.98
834.966	147.28
835.143	81.75
835.319	102.23
835.496	12.12
835.673	69.46
835.85	55.12
836.026	122.71
836.203	73.56
836.38	77.65
836.556	65.36
836.733	1.88
836.909	116.56
837.086	77.65
837.262	24.4
837.439	61.27
837.616	30.55
837.792	55.12
837.968	122.71
838.145	-0.17
838.321	85.84
838.498	91.99
838.674	63.32
838.851	32.6
839.027	87.89
839.203	79.7
839.38	102.23
839.556	44.88
839.732	75.6
839.909	75.6
840.085	48.98
840.261	16.21
840.437	26.45
840.614	75.6
840.79	28.5
840.966	32.6
841.142	48.98
841.318	24.4
841.494	69.46
841.671	44.88
841.847	26.45
842.023	48.98
842.199	14.17
842.375	20.31
842.551	16.21
842.727	36.69
842.903	112.47
843.079	18.26
843.255	96.08
843.431	141.14
843.607	42.84
843.783	53.08
843.959	22.36
844.134	57.17
844.31	102.23
844.486	16.21
844.662	32.6
844.838	67.41
845.013	26.45
845.189	8.02
845.365	53.08
845.541	24.4
845.716	-18.6
845.892	38.74
846.068	61.27
846.244	16.21
846.419	34.64
846.595	10.07
846.77	61.27
846.946	-12.46
847.122	-10.41
847.297	67.41
847.473	120.66
847.648	55.12
847.824	61.27
847.999	5.97
848.175	32.6
848.35	5.97
848.526	32.6
848.701	67.41
848.876	57.17
849.052	24.4
849.227	30.55
849.403	-12.46
849.578	-39.08
849.753	48.98
849.929	-6.31
850.104	5.97
850.279	34.64
850.454	5.97
850.63	118.61
850.805	20.31
850.98	-41.13
851.155	38.74
851.33	71.51
851.505	-14.51
851.681	139.09
851.856	81.75
852.031	42.84
852.206	85.84
852.381	36.69
852.556	-10.41
852.731	20.31
852.906	42.84
853.081	-2.22
853.256	-14.51
853.431	22.36
853.606	44.88
853.781	20.31
853.956	12.12
854.131	75.6
854.305	102.23
854.48	75.6
854.655	-14.51
854.83	44.88
855.005	-4.27
855.18	71.51
855.354	12.12
855.529	106.32
855.704	30.55
855.879	77.65
856.053	57.17
856.228	69.46
856.403	63.32
856.577	36.69
856.752	8.02
856.926	18.26
857.101	42.84
857.276	104.28
857.45	55.12
857.625	110.42
857.799	3.93
857.974	24.4
858.148	38.74
858.323	32.6
858.497	5.97
858.672	71.51
858.846	5.97
859.02	-2.22
859.195	28.5
859.369	57.17
859.543	51.03
859.718	65.36
859.892	81.75
860.066	65.36
860.241	34.64
860.415	-0.17
860.589	-14.51
860.763	32.6
860.938	40.79
861.112	10.07
861.286	46.93
861.46	-22.7
861.634	12.12
861.808	61.27
861.982	20.31
862.157	61.27
862.331	-6.31
862.505	-6.31
862.679	-41.13
862.853	16.21
863.027	8.02
863.201	89.94
863.375	53.08
863.549	44.88
863.722	-8.36
863.896	-10.41
864.07	-0.17
864.244	-18.6
864.418	112.47
864.592	77.65
864.766	-24.75
864.939	53.08
865.113	-10.41
865.287	100.18
865.461	-39.08
865.634	77.65
865.808	-18.6
865.982	26.45
866.156	-14.51
866.329	-18.6
866.503	12.12
866.676	5.97
866.85	16.21
867.024	36.69
867.197	-12.46
867.371	44.88
867.544	24.4
867.718	34.64
867.891	22.36
868.065	-34.99
868.238	18.26
868.412	48.98
868.585	44.88
868.759	12.12
868.932	5.97
869.105	-65.71
869.279	71.51
869.452	-14.51
869.625	22.36
869.799	-22.7
869.972	-20.65
870.145	8.02
870.319	-16.55
870.492	-45.23
870.665	-43.18
870.838	79.7
871.011	-45.23
871.185	-8.36
871.358	30.55
871.531	-4.27
871.704	-2.22
871.877	-30.89
872.05	30.55
872.223	-108.71
872.396	-4.27
872.569	42.84
872.742	-4.27
872.915	-2.22
873.088	-69.8
873.261	26.45
873.434	30.55
873.607	-14.51
873.78	-24.75
873.953	-32.94
874.126	-20.65
874.299	38.74
874.471	48.98
874.644	-4.27
874.817	22.36
874.99	48.98
875.163	-0.17
875.335	-4.27
875.508	12.12
875.681	120.66
875.853	-12.46
876.026	51.03
876.199	-0.17
876.371	20.31
876.544	24.4
876.717	-2.22
876.889	-26.79
877.062	61.27
877.234	-14.51
877.407	5.97
877.579	5.97
877.752	5.97
877.924	44.88
878.097	53.08
878.269	40.79
878.442	81.75
878.614	65.36
878.786	-26.79
878.959	46.93
879.131	28.5
879.303	-32.94
879.476	12.12
879.648	69.46
879.82	48.98
879.993	-30.89
880.165	-47.27
880.337	-28.84
880.509	26.45
880.681	-12.46
880.854	-10.41
881.026	32.6
881.198	32.6
881.37	28.5
881.542	5.97
881.714	14.17
881.886	24.4
882.058	26.45
882.23	16.21
882.402	30.55
882.574	3.93
882.746	-61.61
882.918	71.51
883.09	12.12
883.262	87.89
883.434	-2.22
883.606	-49.32
883.778	-2.22
883.95	26.45
884.122	22.36
884.293	20.31
884.465	36.69
884.637	-26.79
884.809	5.97
884.98	26.45
885.152	22.36
885.324	-12.46
885.496	36.69
885.667	-12.46
885.839	-41.13
886.011	8.02
886.182	-18.6
886.354	67.41
886.525	24.4
886.697	69.46
886.869	96.08
887.04	26.45
887.212	-39.08
887.383	79.7
887.555	-30.89
887.726	-16.55
887.897	-32.94
888.069	1.88
888.24	-6.31
888.412	16.21
888.583	40.79
888.754	22.36
888.926	8.02
889.097	40.79
889.268	-6.31
889.44	32.6
889.611	51.03
889.782	5.97
889.953	-14.51
890.125	87.89
890.296	-20.65
890.467	-20.65
890.638	-8.36
890.809	24.4
890.98	-18.6
891.151	59.22
891.323	69.46
891.494	-14.51
891.665	51.03
891.836	30.55
892.007	-24.75
892.178	-12.46
892.349	-12.46
892.52	-32.94
892.691	-45.23
892.862	67.41
893.032	26.45
893.203	14.17
893.374	3.93
893.545	-2.22
893.716	-57.51
893.887	-22.7
894.057	20.31
894.228	5.97
894.399	-71.85
894.57	-8.36
894.74	102.23
894.911	55.12
895.082	-2.22
895.253	34.64
895.423	32.6
895.594	28.5
895.764	1.88
895.935	3.93
896.106	75.6
896.276	-47.27
896.447	32.6
896.617	26.45
896.788	28.5
896.958	59.22
897.129	-32.94
897.299	36.69
897.47	91.99
897.64	59.22
897.81	-6.31
897.981	-8.36
898.151	8.02
898.322	36.69
898.492	-0.17
898.662	-14.51
898.832	-26.79
899.003	3.93
899.173	83.8
899.343	71.51
899.513	-94.38
