Data from USB4F104151__30__12-35-31-222.txt Node

Date: Fri Mar 14 12:35:31 EDT 2025
User: louis
Spectrometer: USB4F10415
Trigger mode: 4
Integration Time (sec): 2.000000E-2
Scans to average: 1
Electric dark correction enabled: true
Nonlinearity correction enabled: false
Boxcar width: 0
XAxis mode: Wavelengths
Number of Pixels in Spectrum: 3648
>>>>>Begin Spectral Data<<<<<
178.204	-102.06
178.424	-102.06
178.644	-102.06
178.864	-132.78
179.084	-126.63
179.304	39.25
179.524	-40.62
179.744	-59.05
179.964	14.68
180.184	-26.28
180.404	-57
180.624	49.49
180.844	-7.85
181.064	24.92
181.283	24.92
181.503	0.34
181.723	37.2
181.943	-38.57
182.163	82.26
182.383	-5.8
182.602	0.34
182.822	-7.85
183.042	6.49
183.262	-9.9
183.482	-61.1
183.701	45.4
183.921	-34.47
184.141	-40.62
184.361	22.87
184.58	6.49
184.8	-20.14
185.02	-18.09
185.239	100.69
185.459	-30.38
185.679	24.92
185.898	-26.28
186.118	8.53
186.338	24.92
186.557	49.49
186.777	-38.57
186.997	41.3
187.216	33.11
187.436	10.58
187.655	20.82
187.875	4.44
188.095	-61.1
188.314	80.21
188.534	76.12
188.753	80.21
188.973	12.63
189.192	6.49
189.412	-18.09
189.631	45.4
189.851	16.73
190.07	43.35
190.29	-44.71
190.509	8.53
190.729	78.16
190.948	31.06
191.168	69.97
191.387	-11.95
191.607	59.73
191.826	18.77
192.045	59.73
192.265	6.49
192.484	-1.71
192.704	-3.75
192.923	-13.99
193.142	31.06
193.362	39.25
193.581	26.96
193.8	47.44
194.02	102.74
194.239	-30.38
194.458	-9.9
194.678	20.82
194.897	39.25
195.116	33.11
195.335	-46.76
195.555	31.06
195.774	59.73
195.993	26.96
196.212	-16.04
196.432	-26.28
196.651	-32.43
196.87	-61.1
197.089	96.6
197.308	24.92
197.528	-7.85
197.747	-44.71
197.966	-65.19
198.185	45.4
198.404	86.36
198.623	26.96
198.842	33.11
199.062	-5.8
199.281	57.68
199.5	6.49
199.719	-1.71
199.938	84.31
200.157	16.73
200.376	-28.33
200.595	69.97
200.814	-7.85
201.033	0.34
201.252	59.73
201.471	-42.67
201.69	78.16
201.909	24.92
202.128	29.01
202.347	-1.71
202.566	14.68
202.785	-22.19
203.004	63.83
203.223	102.74
203.442	33.11
203.661	33.11
203.879	-34.47
204.098	-52.91
204.317	-13.99
204.536	51.54
204.755	20.82
204.974	6.49
205.193	55.64
205.411	69.97
205.63	-11.95
205.849	-9.9
206.068	-32.43
206.287	39.25
206.505	39.25
206.724	86.36
206.943	-11.95
207.162	4.44
207.381	0.34
207.599	67.92
207.818	2.39
208.037	14.68
208.255	-28.33
208.474	-18.09
208.693	6.49
208.911	37.2
209.13	33.11
209.349	18.77
209.567	12.63
209.786	-30.38
210.005	29.01
210.223	24.92
210.442	-1.71
210.661	74.07
210.879	24.92
211.098	43.35
211.316	104.79
211.535	65.88
211.753	8.53
211.972	43.35
212.191	-5.8
212.409	-7.85
212.628	55.64
212.846	14.68
213.065	29.01
213.283	65.88
213.502	22.87
213.72	8.53
213.938	104.79
214.157	33.11
214.375	-7.85
214.594	0.34
214.812	51.54
215.031	-13.99
215.249	-48.81
215.467	14.68
215.686	-7.85
215.904	76.12
216.122	31.06
216.341	47.44
216.559	94.55
216.778	51.54
216.996	55.64
217.214	37.2
217.432	24.92
217.651	49.49
217.869	22.87
218.087	47.44
218.306	10.58
218.524	31.06
218.742	45.4
218.96	24.92
219.179	37.2
219.397	41.3
219.615	-1.71
219.833	-42.67
220.051	12.63
220.27	49.49
220.488	57.68
220.706	39.25
220.924	69.97
221.142	0.34
221.36	57.68
221.578	63.83
221.796	51.54
222.015	33.11
222.233	43.35
222.451	-38.57
222.669	35.16
222.887	29.01
223.105	8.53
223.323	4.44
223.541	43.35
223.759	-16.04
223.977	61.78
224.195	24.92
224.413	-65.19
224.631	16.73
224.849	53.59
225.067	53.59
225.285	-1.71
225.503	41.3
225.721	20.82
225.939	-30.38
226.157	-13.99
226.375	84.31
226.592	69.97
226.81	18.77
227.028	18.77
227.246	-38.57
227.464	59.73
227.682	12.63
227.9	106.84
228.117	78.16
228.335	24.92
228.553	12.63
228.771	47.44
228.989	35.16
229.206	33.11
229.424	31.06
229.642	10.58
229.86	0.34
230.077	-22.19
230.295	47.44
230.513	12.63
230.731	72.02
230.948	-16.04
231.166	39.25
231.384	10.58
231.601	35.16
231.819	12.63
232.037	-46.76
232.254	-46.76
232.472	57.68
232.689	31.06
232.907	69.97
233.125	16.73
233.342	-22.19
233.56	4.44
233.777	-18.09
233.995	33.11
234.213	0.34
234.43	-13.99
234.648	-3.75
234.865	14.68
235.083	102.74
235.3	-11.95
235.518	20.82
235.735	39.25
235.953	-32.43
236.17	-16.04
236.388	6.49
236.605	18.77
236.822	26.96
237.04	-34.47
237.257	47.44
237.475	18.77
237.692	-57
237.909	26.96
238.127	-26.28
238.344	47.44
238.562	26.96
238.779	-44.71
238.996	-52.91
239.214	-73.39
239.431	20.82
239.648	-48.81
239.865	-34.47
240.083	72.02
240.3	72.02
240.517	31.06
240.735	-22.19
240.952	90.45
241.169	-38.57
241.386	59.73
241.603	26.96
241.821	12.63
242.038	14.68
242.255	33.11
242.472	12.63
242.689	8.53
242.907	14.68
243.124	8.53
243.341	0.34
243.558	88.4
243.775	12.63
243.992	37.2
244.209	-18.09
244.426	96.6
244.643	18.77
244.86	16.73
245.078	12.63
245.295	-102.06
245.512	69.97
245.729	-46.76
245.946	45.4
246.163	39.25
246.38	-3.75
246.597	39.25
246.814	10.58
247.031	-26.28
247.248	-18.09
247.464	63.83
247.681	-18.09
247.898	76.12
248.115	10.58
248.332	2.39
248.549	137.56
248.766	94.55
248.983	84.31
249.2	57.68
249.417	22.87
249.633	20.82
249.85	59.73
250.067	84.31
250.284	53.59
250.501	2.39
250.717	82.26
250.934	55.64
251.151	45.4
251.368	31.06
251.585	53.59
251.801	14.68
252.018	20.82
252.235	20.82
252.451	49.49
252.668	14.68
252.885	6.49
253.102	96.6
253.318	-50.86
253.535	45.4
253.752	43.35
253.968	29.01
254.185	-9.9
254.401	53.59
254.618	-40.62
254.835	6.49
255.051	108.88
255.268	37.2
255.484	31.06
255.701	37.2
255.917	-1.71
256.134	16.73
256.351	10.58
256.567	29.01
256.784	29.01
257	76.12
257.217	59.73
257.433	-7.85
257.65	22.87
257.866	10.58
258.082	20.82
258.299	35.16
258.515	47.44
258.732	8.53
258.948	55.64
259.165	31.06
259.381	-22.19
259.597	39.25
259.814	0.34
260.03	-5.8
260.246	26.96
260.463	74.07
260.679	49.49
260.895	-28.33
261.112	65.88
261.328	39.25
261.544	0.34
261.761	31.06
261.977	-13.99
262.193	-7.85
262.409	4.44
262.626	90.45
262.842	108.88
263.058	53.59
263.274	6.49
263.49	65.88
263.707	33.11
263.923	-42.67
264.139	-9.9
264.355	37.2
264.571	24.92
264.787	82.26
265.004	61.78
265.22	22.87
265.436	-38.57
265.652	-24.23
265.868	24.92
266.084	-3.75
266.3	0.34
266.516	-20.14
266.732	31.06
266.948	72.02
267.164	35.16
267.38	39.25
267.596	31.06
267.812	37.2
268.028	2.39
268.244	29.01
268.46	51.54
268.676	26.96
268.892	43.35
269.108	-9.9
269.324	37.2
269.54	-24.23
269.756	39.25
269.972	18.77
270.188	-28.33
270.403	4.44
270.619	53.59
270.835	-18.09
271.051	80.21
271.267	-24.23
271.483	-5.8
271.698	96.6
271.914	-46.76
272.13	53.59
272.346	-1.71
272.562	-18.09
272.777	31.06
272.993	31.06
273.209	-28.33
273.425	117.08
273.64	6.49
273.856	22.87
274.072	10.58
274.287	12.63
274.503	4.44
274.719	10.58
274.934	31.06
275.15	-3.75
275.366	72.02
275.581	18.77
275.797	67.92
276.012	16.73
276.228	55.64
276.444	67.92
276.659	35.16
276.875	-3.75
277.09	51.54
277.306	24.92
277.521	20.82
277.737	14.68
277.952	72.02
278.168	-1.71
278.383	20.82
278.599	2.39
278.814	4.44
279.03	59.73
279.245	74.07
279.461	-11.95
279.676	110.93
279.892	76.12
280.107	14.68
280.322	20.82
280.538	45.4
280.753	20.82
280.969	-32.43
281.184	6.49
281.399	45.4
281.615	49.49
281.83	86.36
282.045	-20.14
282.26	72.02
282.476	-1.71
282.691	-3.75
282.906	-34.47
283.122	0.34
283.337	18.77
283.552	-18.09
283.767	-9.9
283.983	117.08
284.198	-7.85
284.413	59.73
284.628	18.77
284.843	100.69
285.058	29.01
285.274	51.54
285.489	-9.9
285.704	112.98
285.919	33.11
286.134	57.68
286.349	10.58
286.564	69.97
286.779	26.96
286.995	49.49
287.21	80.21
287.425	86.36
287.64	45.4
287.855	74.07
288.07	-5.8
288.285	59.73
288.5	20.82
288.715	22.87
288.93	65.88
289.145	-16.04
289.36	4.44
289.575	49.49
289.79	86.36
290.004	41.3
290.219	12.63
290.434	117.08
290.649	24.92
290.864	-20.14
291.079	47.44
291.294	41.3
291.509	22.87
291.724	22.87
291.938	43.35
292.153	26.96
292.368	53.59
292.583	45.4
292.798	22.87
293.012	78.16
293.227	57.68
293.442	57.68
293.657	92.5
293.871	-24.23
294.086	35.16
294.301	59.73
294.516	16.73
294.73	24.92
294.945	26.96
295.16	57.68
295.374	69.97
295.589	76.12
295.804	57.68
296.018	51.54
296.233	78.16
296.447	69.97
296.662	-79.53
296.877	51.54
297.091	69.97
297.306	72.02
297.52	10.58
297.735	63.83
297.949	72.02
298.164	51.54
298.378	24.92
298.593	18.77
298.807	-38.57
299.022	-7.85
299.236	45.4
299.451	-7.85
299.665	-46.76
299.88	129.36
300.094	14.68
300.309	-1.71
300.523	57.68
300.737	24.92
300.952	-3.75
301.166	8.53
301.381	-5.8
301.595	2.39
301.809	0.34
302.024	63.83
302.238	2.39
302.452	22.87
302.667	31.06
302.881	90.45
303.095	110.93
303.309	14.68
303.524	2.39
303.738	51.54
303.952	55.64
304.166	39.25
304.381	10.58
304.595	86.36
304.809	72.02
305.023	4.44
305.237	61.78
305.452	-24.23
305.666	12.63
305.88	102.74
306.094	-13.99
306.308	22.87
306.522	16.73
306.736	10.58
306.95	98.64
307.164	78.16
307.379	49.49
307.593	-7.85
307.807	12.63
308.021	39.25
308.235	72.02
308.449	2.39
308.663	18.77
308.877	69.97
309.091	18.77
309.305	43.35
309.519	2.39
309.733	100.69
309.947	-32.43
310.161	51.54
310.374	0.34
310.588	65.88
310.802	63.83
311.016	31.06
311.23	41.3
311.444	20.82
311.658	51.54
311.872	82.26
312.085	76.12
312.299	82.26
312.513	43.35
312.727	22.87
312.941	53.59
313.154	33.11
313.368	57.68
313.582	6.49
313.796	59.73
314.009	-9.9
314.223	63.83
314.437	67.92
314.651	112.98
314.864	-54.95
315.078	59.73
315.292	14.68
315.505	57.68
315.719	24.92
315.933	14.68
316.146	53.59
316.36	-44.71
316.573	69.97
316.787	84.31
317.001	-26.28
317.214	-34.47
317.428	53.59
317.641	41.3
317.855	41.3
318.068	35.16
318.282	115.03
318.495	88.4
318.709	63.83
318.922	39.25
319.136	41.3
319.349	57.68
319.563	10.58
319.776	41.3
319.99	18.77
320.203	16.73
320.417	20.82
320.63	-9.9
320.843	67.92
321.057	24.92
321.27	10.58
321.483	10.58
321.697	43.35
321.91	59.73
322.124	-3.75
322.337	90.45
322.55	-3.75
322.763	115.03
322.977	-5.8
323.19	4.44
323.403	61.78
323.617	35.16
323.83	10.58
324.043	72.02
324.256	57.68
324.469	96.6
324.683	49.49
324.896	65.88
325.109	0.34
325.322	26.96
325.535	41.3
325.748	59.73
325.962	20.82
326.175	14.68
326.388	-13.99
326.601	-38.57
326.814	-7.85
327.027	47.44
327.24	72.02
327.453	20.82
327.666	51.54
327.879	22.87
328.092	74.07
328.305	-11.95
328.518	18.77
328.731	-5.8
328.944	53.59
329.157	47.44
329.37	-20.14
329.583	12.63
329.796	33.11
330.009	29.01
330.222	-11.95
330.435	110.93
330.648	59.73
330.861	59.73
331.073	8.53
331.286	78.16
331.499	98.64
331.712	29.01
331.925	29.01
332.138	26.96
332.35	80.21
332.563	43.35
332.776	-16.04
332.989	51.54
333.202	16.73
333.414	4.44
333.627	22.87
333.84	26.96
334.053	59.73
334.265	67.92
334.478	47.44
334.691	33.11
334.903	22.87
335.116	39.25
335.329	31.06
335.541	51.54
335.754	106.84
335.966	-40.62
336.179	94.55
336.392	22.87
336.604	37.2
336.817	49.49
337.029	43.35
337.242	53.59
337.454	35.16
337.667	26.96
337.88	31.06
338.092	82.26
338.305	84.31
338.517	16.73
338.729	57.68
338.942	26.96
339.154	24.92
339.367	-30.38
339.579	43.35
339.792	22.87
340.004	-11.95
340.217	29.01
340.429	-11.95
340.641	-59.05
340.854	61.78
341.066	37.2
341.278	84.31
341.491	76.12
341.703	63.83
341.915	-28.33
342.128	43.35
342.34	-59.05
342.552	-32.43
342.764	47.44
342.977	59.73
343.189	65.88
343.401	-34.47
343.613	43.35
343.826	24.92
344.038	-32.43
344.25	47.44
344.462	41.3
344.674	98.64
344.886	65.88
345.099	-52.91
345.311	78.16
345.523	14.68
345.735	-7.85
345.947	100.69
346.159	43.35
346.371	35.16
346.583	20.82
346.795	88.4
347.007	61.78
347.219	51.54
347.431	-28.33
347.643	112.98
347.855	22.87
348.067	41.3
348.279	-38.57
348.491	20.82
348.703	24.92
348.915	49.49
349.127	20.82
349.339	84.31
349.551	41.3
349.763	61.78
349.975	10.58
350.187	51.54
350.399	74.07
350.61	8.53
350.822	-50.86
351.034	29.01
351.246	26.96
351.458	96.6
351.669	31.06
351.881	20.82
352.093	51.54
352.305	74.07
352.517	22.87
352.728	133.46
352.94	61.78
353.152	67.92
353.363	-9.9
353.575	88.4
353.787	18.77
353.999	82.26
354.21	61.78
354.422	22.87
354.633	-30.38
354.845	90.45
355.057	-9.9
355.268	-36.52
355.48	88.4
355.692	-1.71
355.903	92.5
356.115	10.58
356.326	-61.1
356.538	86.36
356.749	98.64
356.961	74.07
357.172	20.82
357.384	16.73
357.595	57.68
357.807	72.02
358.018	37.2
358.23	24.92
358.441	51.54
358.653	6.49
358.864	22.87
359.075	-26.28
359.287	67.92
359.498	65.88
359.709	63.83
359.921	94.55
360.132	78.16
360.344	96.6
360.555	100.69
360.766	26.96
360.977	51.54
361.189	94.55
361.4	82.26
361.611	119.12
361.823	90.45
362.034	-44.71
362.245	20.82
362.456	67.92
362.667	6.49
362.879	39.25
363.09	61.78
363.301	35.16
363.512	39.25
363.723	22.87
363.935	108.88
364.146	51.54
364.357	35.16
364.568	72.02
364.779	-9.9
364.99	0.34
365.201	-1.71
365.412	35.16
365.623	45.4
365.834	41.3
366.045	14.68
366.256	20.82
366.467	0.34
366.678	35.16
366.889	-9.9
367.1	-40.62
367.311	63.83
367.522	33.11
367.733	18.77
367.944	22.87
368.155	-22.19
368.366	96.6
368.577	76.12
368.788	76.12
368.999	78.16
369.209	14.68
369.42	106.84
369.631	94.55
369.842	106.84
370.053	84.31
370.264	16.73
370.474	24.92
370.685	57.68
370.896	69.97
371.107	92.5
371.317	24.92
371.528	33.11
371.739	74.07
371.95	35.16
372.16	49.49
372.371	-16.04
372.582	26.96
372.792	53.59
373.003	72.02
373.214	0.34
373.424	78.16
373.635	18.77
373.846	16.73
374.056	14.68
374.267	-83.63
374.477	43.35
374.688	76.12
374.898	63.83
375.109	22.87
375.319	131.41
375.53	55.64
375.74	33.11
375.951	47.44
376.161	4.44
376.372	90.45
376.582	14.68
376.793	14.68
377.003	80.21
377.214	14.68
377.424	16.73
377.635	76.12
377.845	47.44
378.055	22.87
378.266	74.07
378.476	29.01
378.686	123.22
378.897	47.44
379.107	22.87
379.317	41.3
379.528	-16.04
379.738	78.16
379.948	0.34
380.158	29.01
380.369	53.59
380.579	49.49
380.789	53.59
380.999	51.54
381.21	82.26
381.42	4.44
381.63	49.49
381.84	88.4
382.05	51.54
382.261	104.79
382.471	104.79
382.681	24.92
382.891	69.97
383.101	29.01
383.311	31.06
383.521	92.5
383.731	31.06
383.941	39.25
384.151	8.53
384.361	88.4
384.571	-36.52
384.781	61.78
384.991	43.35
385.201	78.16
385.411	-9.9
385.621	78.16
385.831	137.56
386.041	90.45
386.251	69.97
386.461	106.84
386.671	47.44
386.881	31.06
387.091	51.54
387.301	115.03
387.511	74.07
387.72	72.02
387.93	6.49
388.14	55.64
388.35	24.92
388.56	33.11
388.769	65.88
388.979	4.44
389.189	31.06
389.399	59.73
389.609	88.4
389.818	69.97
390.028	104.79
390.238	72.02
390.447	-13.99
390.657	117.08
390.867	78.16
391.076	55.64
391.286	53.59
391.496	74.07
391.705	106.84
391.915	24.92
392.125	53.59
392.334	88.4
392.544	102.74
392.753	102.74
392.963	53.59
393.172	90.45
393.382	29.01
393.591	92.5
393.801	55.64
394.01	33.11
394.22	84.31
394.429	67.92
394.639	45.4
394.848	170.32
395.058	94.55
395.267	22.87
395.477	133.46
395.686	18.77
395.895	133.46
396.105	172.37
396.314	90.45
396.524	47.44
396.733	67.92
396.942	147.8
397.152	125.27
397.361	131.41
397.57	170.32
397.78	143.7
397.989	49.49
398.198	90.45
398.407	86.36
398.617	108.88
398.826	121.17
399.035	145.75
399.244	143.7
399.453	65.88
399.663	119.12
399.872	162.13
400.081	92.5
400.29	141.65
400.499	90.45
400.708	194.9
400.917	51.54
401.127	141.65
401.336	121.17
401.545	117.08
401.754	129.36
401.963	55.64
402.172	121.17
402.381	59.73
402.59	92.5
402.799	147.8
403.008	158.03
403.217	76.12
403.426	180.56
403.635	201.04
403.844	90.45
404.053	67.92
404.262	106.84
404.471	203.09
404.68	194.9
404.888	203.09
405.097	221.52
405.306	178.51
405.515	205.14
405.724	115.03
405.933	129.36
406.142	178.51
406.35	135.51
406.559	219.47
406.768	237.91
406.977	203.09
407.185	192.85
407.394	260.43
407.603	207.19
407.812	262.48
408.02	221.52
408.229	155.99
408.438	211.28
408.646	254.29
408.855	252.24
409.064	287.06
409.272	280.91
409.481	379.22
409.69	244.05
409.898	352.59
410.107	368.98
410.315	293.2
410.524	342.35
410.733	328.02
410.941	321.87
411.15	375.12
411.358	442.7
411.567	440.65
411.775	454.99
411.984	477.52
412.192	485.71
412.401	444.75
412.609	606.54
412.818	586.06
413.026	450.89
413.234	553.29
413.443	516.43
413.651	555.34
413.86	575.82
414.068	672.08
414.276	670.03
414.485	649.55
414.693	649.55
414.901	733.51
415.11	735.56
415.318	694.6
415.526	768.33
415.734	790.86
415.943	872.78
416.151	794.95
416.359	821.58
416.567	885.06
416.776	923.98
416.984	1030.47
417.192	1042.76
417.4	1073.48
417.608	1106.24
417.817	1179.97
418.025	1216.83
418.233	1321.28
418.441	1198.4
418.649	1347.9
418.857	1343.81
419.065	1401.15
419.273	1347.9
419.481	1515.84
419.689	1481.02
419.897	1562.94
420.105	1612.09
420.313	1653.05
420.521	1769.79
420.729	1833.27
420.937	1786.17
421.145	1833.27
421.353	1915.19
421.561	1958.2
421.769	2079.03
421.977	2261.3
422.185	2124.08
422.393	2302.26
422.601	2464.05
422.809	2509.1
423.017	2457.9
423.224	2541.87
423.432	2697.52
423.64	2732.33
423.848	2844.97
424.056	2875.69
424.263	3082.53
424.471	3117.35
424.679	3150.12
424.887	3219.75
425.094	3408.16
425.302	3414.31
425.51	3453.22
425.718	3569.95
425.925	3623.2
426.133	3928.35
426.341	4155.67
426.548	4362.51
426.756	4223.25
426.964	4151.57
427.171	4460.82
427.379	4610.32
427.586	4673.81
427.794	4835.6
428.001	5079.3
428.209	5189.89
428.417	5034.25
428.624	5435.65
428.832	5581.06
429.039	5640.45
429.247	5816.57
429.454	6023.42
429.662	6353.14
429.869	6146.3
430.076	6531.31
430.284	6336.76
430.491	6732.01
430.699	6895.85
430.906	6836.46
431.114	7237.86
431.321	7352.55
431.528	7661.79
431.736	7981.28
431.943	8184.02
432.15	8194.26
432.358	8009.95
432.565	8675.54
432.772	8499.41
432.979	8890.57
433.187	9007.31
433.394	9199.82
433.601	9676.99
433.808	9932.99
434.016	9828.54
434.223	10272.95
434.43	10741.94
434.637	10569.91
434.844	11237.55
435.052	11321.51
435.259	11475.11
435.466	11663.52
435.673	11399.34
435.88	12056.73
436.087	12742.8
436.294	12785.81
436.501	12429.46
436.708	12601.49
436.915	12980.37
437.122	13918.34
437.329	13699.2
437.537	13987.97
437.743	14313.59
437.95	14114.94
438.157	14917.75
438.364	15423.59
438.571	15235.18
438.778	15716.45
438.985	16869.46
439.192	16197.73
439.399	16988.24
439.606	16568.41
439.813	17219.66
440.02	18174.02
440.227	17938.5
440.433	18032.71
440.64	18497.6
440.847	18257.98
441.054	19062.83
441.261	20189.22
441.467	19982.37
441.674	20361.25
441.881	21129.23
442.088	20594.72
442.294	20963.35
442.501	21430.29
442.708	21643.28
442.914	22484.99
443.121	23414.77
443.328	22874.1
443.534	24289.25
443.741	23730.16
443.948	23349.23
444.154	25104.34
444.361	25090.01
444.568	25335.76
444.774	24969.18
444.981	25382.87
445.187	26013.64
445.394	26998.71
445.6	27191.22
445.807	29433.75
446.013	28237.73
446.22	28995.48
446.426	29831.05
446.633	30068.62
446.839	31186.81
447.046	29925.26
447.252	31598.45
447.459	31807.34
447.665	31635.31
447.871	33056.6
448.078	34441.03
448.284	32401.25
448.491	33369.94
448.697	34846.53
448.903	35325.75
449.11	35714.87
449.316	34867.01
449.522	35340.09
449.728	36740.9
449.935	36835.11
450.141	36888.35
450.347	37949.2
450.553	36140.85
450.76	36970.27
450.966	38213.39
451.172	37515.03
451.378	38622.98
451.584	38133.52
451.791	38743.81
451.997	38954.75
452.203	39194.37
452.409	39403.26
452.615	39640.82
452.821	37961.49
453.027	37609.24
453.233	39407.36
453.44	37742.36
453.646	38092.56
453.852	38625.03
454.058	39085.82
454.264	38074.13
454.47	38868.74
454.676	37650.2
454.882	38952.71
455.088	35665.72
455.294	35903.28
455.5	36648.74
455.705	37095.2
455.911	35362.62
456.117	34914.11
456.323	34438.98
456.529	32712.55
456.735	34254.67
456.941	32999.26
457.147	32728.93
457.352	31586.16
457.558	31328.12
457.764	31281.02
457.97	30721.92
458.176	30218.12
458.381	30283.66
458.587	28653.47
458.793	28450.72
458.999	26951.61
459.204	29153.18
459.41	28303.27
459.616	26488.77
459.821	26625.98
460.027	26519.49
460.233	25923.53
460.438	24381.41
460.644	24780.76
460.85	23603.18
461.055	23693.29
461.261	23207.92
461.466	21473.29
461.672	20795.42
461.878	22249.47
462.083	20901.91
462.289	20330.53
462.494	20174.88
462.7	19433.52
462.905	18788.41
463.111	19800.1
463.316	19398.7
463.522	19177.52
463.727	19220.53
463.932	19015.73
464.138	18901.04
464.343	19159.09
464.549	18321.47
464.754	19028.02
464.959	18763.83
465.165	18915.38
465.37	17877.06
465.575	17330.25
465.781	18100.29
465.986	18161.73
466.191	17369.16
466.397	17301.58
466.602	16146.53
466.807	16894.04
467.012	17000.53
467.218	16928.85
467.423	16910.42
467.628	16934.99
467.833	17565.77
468.038	16777.3
468.244	16394.33
468.449	17100.88
468.654	16490.59
468.859	16529.5
469.064	16289.88
469.269	15747.17
469.474	15636.58
469.679	16048.22
469.885	15667.3
470.09	15812.71
470.295	15655.01
470.5	15472.75
470.705	15648.87
470.91	15052.91
471.115	15323.24
471.32	15376.49
471.525	15063.15
471.73	14796.92
471.935	14430.33
472.139	14329.98
472.344	14577.78
472.549	14090.37
472.754	14188.67
472.959	13813.89
473.164	13643.91
473.369	13412.49
473.574	13734.02
473.778	13809.79
473.983	13580.42
474.188	13492.36
474.393	12851.35
474.598	13031.57
474.802	12847.25
475.007	13006.99
475.212	12699.8
475.417	12263.58
475.621	12210.33
475.826	12392.6
476.031	12087.45
476.235	11710.63
476.44	12265.63
476.645	11751.59
476.849	11919.52
477.054	11747.49
477.259	11587.75
477.463	11540.65
477.668	11393.19
477.872	11456.68
478.077	11286.7
478.282	10862.77
478.486	11155.63
478.691	10862.77
478.895	10707.12
479.1	10551.48
479.304	10778.8
479.509	10293.43
479.713	10512.56
479.918	10250.42
480.122	10217.66
480.326	10467.51
480.531	10459.32
480.735	10045.63
480.94	10184.89
481.144	10309.82
481.348	9965.76
481.553	10035.39
481.757	9937.09
481.961	10162.36
482.166	10037.44
482.37	10102.97
482.574	9717.95
482.778	9920.7
482.983	10129.59
483.187	9822.4
483.391	10084.54
483.595	9826.5
483.8	9844.93
484.004	9887.93
484.208	9846.98
484.412	9861.31
484.616	10000.57
484.821	9842.88
485.025	9928.89
485.229	10068.16
485.433	9908.41
485.637	9994.43
485.841	9808.06
486.045	9785.54
486.249	9836.74
486.453	9912.51
486.657	10049.72
486.861	10012.86
487.065	9486.53
487.269	9881.79
487.473	9859.26
487.677	10035.39
487.881	9928.89
488.085	9984.19
488.289	9820.35
488.493	9732.29
488.697	9859.26
488.901	9750.72
489.105	10021.05
489.309	10137.79
489.512	10000.57
489.716	10078.4
489.92	10225.85
490.124	9961.66
490.328	10148.03
490.531	9955.52
490.735	10324.15
490.939	10217.66
491.143	10070.2
491.346	10231.99
491.55	10311.86
491.754	10340.54
491.958	10369.21
492.161	10528.95
492.365	10524.85
492.569	10328.25
492.772	10422.45
492.976	10598.58
493.18	10784.94
493.383	10690.74
493.587	11092.14
493.79	10739.89
493.994	10668.21
494.197	10852.53
494.401	10969.26
494.605	11206.83
494.808	11034.8
495.012	11356.33
495.215	11090.09
495.419	11350.18
495.622	11497.64
495.825	11587.75
496.029	11614.37
496.232	11851.94
496.436	11880.61
496.639	12134.56
496.843	12001.44
497.046	12339.35
497.249	12312.73
497.453	12601.49
497.656	12451.99
497.859	12632.21
498.063	12728.47
498.266	12808.34
498.469	13039.76
498.673	13045.9
498.876	13215.88
499.079	13351.05
499.282	13353.1
499.485	14028.93
499.689	13813.89
499.892	13928.58
500.095	14205.05
500.298	14389.37
500.501	14078.08
500.705	14817.4
500.908	14538.87
501.111	14979.18
501.314	15075.44
501.517	15179.89
501.72	15622.25
501.923	15306.86
502.126	15659.11
502.329	16298.08
502.532	16263.26
502.735	16461.91
502.938	16691.29
503.141	16558.17
503.344	17039.44
503.547	17164.37
503.75	17143.89
503.953	17606.73
504.156	17467.47
504.359	17776.71
504.562	17950.79
504.765	18196.54
504.968	18513.98
505.17	18800.69
505.373	18604.09
505.576	19265.58
505.779	19394.61
505.982	19232.82
506.185	19947.56
506.387	19628.07
506.59	20025.38
506.793	20461.6
506.996	20432.93
507.198	20979.73
507.401	21010.45
507.604	21266.45
507.807	21487.63
508.009	21555.21
508.212	22007.81
508.415	22241.28
508.617	22368.26
508.82	22564.86
509.022	22499.33
509.225	23095.28
509.428	23338.99
509.63	23408.62
509.833	23349.23
510.035	24068.07
510.238	23928.81
510.44	24373.22
510.643	24637.41
510.845	24860.63
511.048	24905.69
511.25	25552.85
511.453	25595.85
511.655	26572.74
511.858	25911.24
512.06	26355.65
512.262	26892.22
512.465	26859.45
512.667	27367.35
512.87	27328.44
513.072	27711.41
513.274	28026.79
513.477	28493.73
513.679	28614.56
513.881	29290.39
514.084	29255.57
514.286	29382.55
514.488	29755.28
514.69	30359.43
514.893	30601.09
515.095	30523.27
515.297	30900.09
515.499	30996.35
515.701	31379.32
515.904	31678.32
516.106	31760.24
516.308	32384.87
516.51	32649.06
516.712	32542.56
516.914	33220.44
517.116	33701.72
517.318	33562.45
517.52	34066.25
517.722	34277.19
517.925	34543.43
518.127	34922.3
518.329	35131.2
518.531	35374.91
518.733	35798.84
518.935	36427.56
519.136	36128.56
519.338	36812.58
519.54	36833.06
519.742	37326.62
519.944	37175.07
520.146	37945.11
520.348	38211.34
520.55	38397.71
520.752	38672.14
520.954	39108.35
521.155	38725.38
521.357	39194.37
521.559	39886.58
521.761	40060.66
521.963	40265.45
522.164	40376.05
522.366	40976.1
522.568	41086.69
522.77	41344.73
522.971	41793.24
523.173	41608.92
523.375	42104.53
523.576	42182.35
523.778	42223.31
523.98	42720.97
524.181	43071.17
524.383	42833.61
524.584	43914.94
524.786	43431.61
524.988	43040.45
525.189	44254.9
525.391	43861.69
525.592	44672.68
525.794	44635.82
525.995	44707.5
526.197	44940.97
526.398	44795.56
526.6	45121.19
526.801	45151.91
527.003	45764.25
527.204	45184.68
527.406	45668
527.607	45522.59
527.808	46694.03
528.01	45844.12
528.211	46130.84
528.412	46685.84
528.614	46534.29
528.815	46442.13
529.016	46808.72
529.218	46372.5
529.419	47044.23
529.62	46583.44
529.822	46704.27
530.023	47318.66
530.224	46950.02
530.425	46798.48
530.626	46726.8
530.828	46896.78
531.029	47894.14
531.23	47029.9
531.431	47138.44
531.632	47251.08
531.833	47605.37
532.035	47502.98
532.236	47394.43
532.437	47754.88
532.638	47326.85
532.839	47814.27
533.04	47718.01
533.241	47230.6
533.442	47847.04
533.643	47748.73
533.844	48152.18
534.045	47511.17
534.246	47371.91
534.447	47519.36
534.648	47707.77
534.849	47865.47
535.05	47261.32
535.251	47287.94
535.451	47019.66
535.652	47672.96
535.853	47103.62
536.054	47619.71
536.255	47416.96
536.456	47150.73
536.657	47916.67
536.857	47111.81
537.058	47095.43
537.259	47279.75
537.46	47382.15
537.66	46806.67
537.861	47242.88
538.062	46919.31
538.263	47173.25
538.463	46884.49
538.664	46755.47
538.865	47287.94
539.065	47351.43
539.266	46902.92
539.466	47158.92
539.667	46814.86
539.868	47558.27
540.068	46937.74
540.269	46898.83
540.469	46478.99
540.67	46630.54
540.87	46839.43
541.071	46384.79
541.271	47060.62
541.472	46775.95
541.672	46446.22
541.873	46329.49
542.073	45989.53
542.274	46872.2
542.474	46347.92
542.675	46251.67
542.875	46796.43
543.075	46304.91
543.276	45858.46
543.476	46671.5
543.676	45893.27
543.877	46392.98
544.077	46192.28
544.277	45926.04
544.478	46198.42
544.678	46708.36
544.878	46270.1
545.078	46618.25
545.279	45811.35
545.479	45930.14
545.679	46304.91
545.879	45831.83
546.079	45788.83
546.28	46116.5
546.48	45735.58
546.68	46061.21
546.88	45981.34
547.08	46237.33
547.28	46059.16
547.48	45465.25
547.68	45895.32
547.88	46116.5
548.081	45702.81
548.281	46024.34
548.481	45733.53
548.681	46036.63
548.881	45696.67
549.081	45690.52
549.28	45659.8
549.48	45921.94
549.68	45436.58
549.88	46104.21
550.08	45700.76
550.28	45559.45
550.48	45633.18
550.68	45921.94
550.88	45559.45
551.08	45756.06
551.279	45553.31
551.479	45317.79
551.679	45215.4
551.879	45426.34
552.079	45471.39
552.278	45444.77
552.478	45313.7
552.678	45772.44
552.878	45561.5
553.077	45504.16
553.277	45094.57
553.477	45713.05
553.676	45248.16
553.876	45479.58
554.076	45182.63
554.275	45219.49
554.475	44854.95
554.674	45139.62
554.874	45342.37
555.074	44773.03
555.273	45371.04
555.473	45022.89
555.672	44633.77
555.872	44988.07
556.071	44865.19
556.271	45160.1
556.47	45160.1
556.67	44773.03
556.869	44537.52
557.068	45561.5
557.268	44373.68
557.467	44785.32
557.667	44662.44
557.866	44531.37
558.065	44576.43
558.265	44201.65
558.464	44404.4
558.663	45201.06
558.863	43994.81
559.062	44988.07
559.261	44193.46
559.461	44435.12
559.66	43695.8
559.859	44238.51
560.058	43953.85
560.258	44082.87
560.457	43933.37
560.656	44269.23
560.855	44064.44
561.054	43968.18
561.253	43484.86
561.453	43613.88
561.652	44103.35
561.851	43521.73
562.05	43411.13
562.249	43644.6
562.448	43511.49
562.647	43355.84
562.846	43028.16
563.045	43267.78
563.244	42991.3
563.443	43390.66
563.642	42280.66
563.841	42938.05
564.04	42954.44
564.239	42733.26
564.438	42604.24
564.637	42923.72
564.836	42956.49
565.035	41903.83
565.234	42372.81
565.432	42352.34
565.631	42133.2
565.83	41934.55
566.029	41932.5
566.228	42114.77
566.427	42180.31
566.625	41502.43
566.824	41211.62
567.023	41658.07
567.222	41393.89
567.42	41719.51
567.619	41299.68
567.818	41248.48
568.016	41266.91
568.215	41518.81
568.414	40918.76
568.612	41344.73
568.811	40777.45
569.01	40793.83
569.208	40447.72
569.407	40756.97
569.605	40130.29
569.804	40922.85
570.002	40167.15
570.201	40441.58
570.4	39649.02
570.598	39642.87
570.797	39634.68
570.995	39909.11
571.193	39513.85
571.392	39687.93
571.59	39184.13
571.789	39409.4
571.987	39339.77
572.186	39116.54
572.384	39020.29
572.582	39104.26
572.781	38782.73
572.979	38182.67
573.177	38385.42
573.376	38954.75
573.574	38276.88
573.772	38532.87
573.971	37912.34
574.169	37787.41
574.367	37730.07
574.565	38242.06
574.763	37820.18
574.962	37635.86
575.16	37252.89
575.358	37586.71
575.556	37154.59
575.754	37707.54
575.952	37123.87
576.151	37234.46
576.349	36800.29
576.547	36706.09
576.745	36792.1
576.943	36745
577.141	36607.78
577.339	36267.82
577.537	36259.63
577.735	36321.07
577.933	35737.4
578.131	35870.51
578.329	35890.99
578.527	35678
578.725	35743.54
578.923	35706.68
579.121	35518.26
579.319	35577.65
579.516	35663.67
579.714	35665.72
579.912	35172.16
580.11	34672.45
580.308	35274.56
580.506	34907.97
580.704	34518.85
580.901	34613.06
581.099	35270.46
581.297	34379.59
581.495	34252.62
581.692	34328.39
581.89	34174.8
582.088	34490.18
582.285	34383.69
582.483	34207.56
582.681	33996.62
582.878	33748.82
583.076	33455.96
583.274	33888.08
583.471	33087.32
583.669	33310.55
583.866	33185.63
584.064	33378.14
584.262	32778.08
584.459	33101.66
584.657	32878.43
584.854	33005.41
585.052	32536.42
585.249	32806.75
585.447	32507.75
585.644	32323.43
585.841	32202.6
586.039	32589.67
586.236	31747.95
586.434	31915.89
586.631	31952.75
586.828	32266.09
587.026	31793.01
587.223	31580.02
587.42	31317.88
587.618	31571.83
587.815	31158.14
588.012	31328.12
588.21	31248.25
588.407	31471.48
588.604	30812.03
588.801	30748.54
588.999	30797.7
589.196	30668.67
589.393	30582.66
589.59	30662.53
589.787	30707.58
589.984	30527.36
590.182	29906.83
590.379	30363.53
590.576	30232.46
590.773	30242.7
590.97	30021.52
591.167	30187.4
591.364	29679.5
591.561	29732.75
591.758	29687.7
591.955	29398.93
592.152	29951.88
592.349	29806.48
592.546	29603.73
592.743	29341.59
592.94	29038.49
593.137	29243.29
593.334	29204.38
593.531	28932
593.727	29079.45
593.924	28780.45
594.121	28725.15
594.318	29052.83
594.515	28651.42
594.712	28733.34
594.908	28559.27
595.105	28676
595.302	28387.24
595.499	28559.27
595.696	28311.46
595.892	28164.01
596.089	28360.61
596.286	28266.41
596.482	27750.32
596.679	28000.17
596.876	27707.31
597.072	27557.81
597.269	27989.93
597.466	27453.36
597.662	27787.18
597.859	27232.18
598.055	27551.66
598.252	27475.89
598.448	27332.53
598.645	27404.21
598.841	26869.69
599.038	27088.82
599.234	27400.12
599.431	26724.29
599.627	26912.7
599.824	26912.7
600.02	26726.33
600.217	26795.96
600.413	26689.47
600.609	26519.49
600.806	26408.9
601.002	26513.34
601.198	25982.92
601.395	26148.81
601.591	26302.4
601.787	26130.37
601.984	25886.67
602.18	26396.61
602.376	25786.32
602.572	25839.56
602.769	25728.97
602.965	25378.77
603.161	25530.32
603.357	25055.19
603.553	25128.92
603.75	25464.78
603.946	25292.76
604.142	25438.16
604.338	25081.81
604.534	25178.07
604.73	24651.74
604.926	24805.34
605.122	24807.39
605.318	24870.87
605.514	24631.26
605.71	24506.34
605.906	24647.65
606.102	24592.35
606.298	24731.61
606.494	24193
606.69	24256.48
606.886	24582.11
607.082	24018.92
607.278	24446.94
607.474	24080.36
607.67	24113.13
607.866	23799.79
608.062	24285.15
608.257	23697.39
608.453	23900.14
608.649	24162.28
608.845	23932.9
609.041	23597.04
609.236	23707.63
609.432	23638
609.628	23750.63
609.824	23564.27
610.019	23293.94
610.215	23336.95
610.411	23402.48
610.606	23496.69
610.802	23373.81
610.998	23304.18
611.193	23441.39
611.389	23173.11
611.584	23216.12
611.78	22730.75
611.976	22728.7
612.171	23066.61
612.367	23205.88
612.562	22919.16
612.758	22439.93
612.953	22626.3
613.149	23080.95
613.344	22515.71
613.539	22876.15
613.735	22560.77
613.93	22564.86
614.126	22276.1
614.321	22730.75
614.517	22482.94
614.712	22169.6
614.907	22136.84
615.103	22411.26
615.298	22228.99
615.493	22016.01
615.688	21866.5
615.884	22288.39
616.079	22149.12
616.274	22372.35
616.47	21753.87
616.665	22099.97
616.86	21878.79
617.055	21944.33
617.25	21684.23
617.445	22110.21
617.641	21602.32
617.836	21614.6
618.031	21116.95
618.226	21688.33
618.421	21469.2
618.616	21815.3
618.811	20973.59
619.006	21430.29
619.201	20903.96
619.396	21211.15
619.591	20989.97
619.786	20727.83
619.981	20451.36
620.176	20944.92
620.371	20576.28
620.566	20596.76
620.761	20422.69
620.956	20486.17
621.151	20140.07
621.346	20437.02
621.541	20002.85
621.735	20322.34
621.93	19857.45
622.125	19927.08
622.32	19578.92
622.515	19843.11
622.709	19400.75
622.904	19433.52
623.099	19187.76
623.294	19410.99
623.488	19034.16
623.683	19232.82
623.878	18935.86
624.072	18761.78
624.267	18890.81
624.462	18688.06
624.656	18337.85
624.851	18358.33
625.046	18315.33
625.24	18286.65
625.435	18188.35
625.629	17813.57
625.824	18255.93
626.018	17768.52
626.213	17477.71
626.407	17844.29
626.602	17539.15
626.796	17600.58
626.991	17623.11
627.185	17516.62
627.38	17260.62
627.574	17389.64
627.768	17018.96
627.963	16844.88
628.157	16732.25
628.352	16781.4
628.546	16701.53
628.74	16898.13
628.935	16719.96
629.129	16545.88
629.323	16183.39
629.517	16148.57
629.712	16025.7
629.906	16042.08
630.1	15677.54
630.294	16009.31
630.489	15964.26
630.683	15847.52
630.877	15677.54
631.071	15710.31
631.265	15618.15
631.459	15505.51
631.653	15499.37
631.848	15394.92
632.042	15288.43
632.236	15208.56
632.43	15161.45
632.624	14940.27
632.818	15026.29
633.012	14846.07
633.206	14831.73
633.4	14809.2
633.594	14538.87
633.788	14600.31
633.982	14540.92
634.176	14436.47
634.369	14207.1
634.563	14397.56
634.757	14243.96
634.951	14121.09
635.145	14096.51
635.339	14162.05
635.533	13908.1
635.726	13830.27
635.92	13664.39
636.114	13809.79
636.308	13938.82
636.501	13523.08
636.695	13543.56
636.889	13398.15
637.083	13250.7
637.276	13273.23
637.47	12990.61
637.664	13117.58
637.857	12873.87
638.051	12796.05
638.244	12769.43
638.438	12726.42
638.632	12699.8
638.825	12648.6
639.019	12458.14
639.212	12384.41
639.406	12404.89
639.599	12560.53
639.793	12267.67
639.986	11997.34
640.18	11989.15
640.373	11933.86
640.567	11899.04
640.76	11991.2
640.954	11782.31
641.147	11718.82
641.34	11727.01
641.534	11622.56
641.727	11425.96
641.92	11567.27
642.114	11360.42
642.307	11229.35
642.5	11438.25
642.694	11210.92
642.887	11114.67
643.08	11348.14
643.273	11051.18
643.467	10944.69
643.66	10811.57
643.853	10764.47
644.046	10664.11
644.239	10639.54
644.432	10700.98
644.626	10770.61
644.819	10578.1
645.012	10498.23
645.205	10373.3
645.398	10373.3
645.591	10330.3
645.784	10162.36
645.977	10139.83
646.17	9951.42
646.363	9844.93
646.556	9783.49
646.749	10000.57
646.942	9750.72
647.135	9646.27
647.328	9756.86
647.521	9590.98
647.714	9603.27
647.907	9509.06
648.099	9494.72
648.292	9586.88
648.485	9398.47
648.678	9392.33
648.871	9046.22
649.064	9341.13
649.256	9298.12
649.449	9105.61
649.642	9154.76
649.835	9224.39
650.027	8845.52
650.22	8958.16
650.413	8976.59
650.605	8755.41
650.798	9103.56
650.991	8548.56
651.183	8667.35
651.376	8757.46
651.568	8622.29
651.761	8462.55
651.954	8675.54
652.146	8491.22
652.339	8577.23
652.531	8423.64
652.724	8442.07
652.916	8224.98
653.109	8202.46
653.301	8339.67
653.494	8116.44
653.686	8038.62
653.879	8028.38
654.071	8034.52
654.263	7856.35
654.456	7928.03
654.648	8016.09
654.84	7778.53
655.033	7733.47
655.225	7784.67
655.417	7708.9
655.61	7842.01
655.802	7684.32
655.994	7590.11
656.186	7583.97
656.379	7430.37
656.571	7461.09
656.763	7291.11
656.955	7381.22
657.148	7137.51
657.34	7325.93
657.532	7186.66
657.724	7219.43
657.916	7227.62
658.108	7168.23
658.3	7139.56
658.492	7043.31
658.684	6977.77
658.876	6988.01
659.068	6957.29
659.26	7090.41
659.452	6930.67
659.644	6863.08
659.836	6797.55
660.028	6652.14
660.22	6729.97
660.412	6719.73
660.604	6553.84
660.796	6602.99
660.988	6600.94
661.18	6451.44
661.372	6406.39
661.563	6553.84
661.755	6525.17
661.947	6512.88
662.139	6349.04
662.331	6400.24
662.522	6144.25
662.714	6295.8
662.906	6138.1
663.097	6217.97
663.289	6091
663.481	6181.11
663.673	6197.49
663.864	6250.74
664.056	6009.08
664.247	5935.35
664.439	5906.68
664.631	5933.31
664.822	5929.21
665.014	6031.61
665.205	5761.28
665.397	5732.61
665.588	5847.29
665.78	5841.15
665.971	5779.71
666.163	5871.87
666.354	5646.59
666.546	5708.03
666.737	5665.02
666.929	5611.78
667.12	5564.67
667.311	5566.72
667.503	5675.26
667.694	5413.12
667.885	5544.19
668.077	5474.56
668.268	5277.96
668.459	5216.52
668.651	5419.27
668.842	5325.06
669.033	5210.37
669.224	5249.29
669.416	5191.94
669.607	5341.44
669.798	5206.28
669.989	5144.84
670.18	5267.72
670.371	5257.48
670.563	5191.94
670.754	5124.36
670.945	5075.21
671.136	5284.1
671.327	4983.05
671.518	5079.3
671.709	4972.81
671.9	5218.57
672.091	5062.92
672.282	4997.39
672.473	5021.96
672.664	5007.62
672.855	5069.06
673.046	4974.86
673.237	4821.26
673.428	4978.95
673.619	4808.97
673.809	4823.31
674	4983.05
674.191	4903.18
674.382	4774.16
674.573	4858.12
674.764	4749.58
674.954	4811.02
675.145	4794.64
675.336	4800.78
675.527	4759.82
675.717	4725.01
675.908	4765.96
676.099	4651.28
676.289	4669.71
676.48	4845.84
676.671	4636.94
676.861	4792.59
677.052	4702.48
677.243	4716.81
677.433	4598.03
677.624	4808.97
677.814	4557.07
678.005	4595.98
678.195	4550.93
678.386	4706.57
678.576	4573.46
678.767	4569.36
678.957	4643.09
679.148	4536.59
679.338	4438.29
679.529	4608.27
679.719	4565.26
679.909	4641.04
680.1	4643.09
680.29	4641.04
680.481	4575.5
680.671	4442.39
680.861	4585.74
681.052	4604.18
681.242	4440.34
681.432	4405.52
681.622	4337.94
681.813	4444.43
682.003	4632.85
682.193	4387.09
682.383	4540.69
682.573	4518.16
682.764	4405.52
682.954	4630.8
683.144	4337.94
683.334	4321.56
683.524	4395.28
683.714	4276.5
683.904	4471.06
684.094	4440.34
684.284	4481.3
684.474	4395.28
684.664	4299.03
684.854	4296.98
685.044	4544.78
685.234	4174.1
685.424	4397.33
685.614	4327.7
685.804	4278.55
685.994	4346.13
686.184	4395.28
686.374	4426
686.564	4270.36
686.753	4315.41
686.943	4292.88
687.133	4356.37
687.323	4405.52
687.513	4186.39
687.702	4278.55
687.892	4118.81
688.082	4243.73
688.272	4202.77
688.461	4182.29
688.651	4253.97
688.841	4233.49
689.03	4116.76
689.22	4127
689.41	4061.46
689.599	4067.61
689.789	4114.71
689.979	4174.1
690.168	4038.94
690.358	4098.33
690.547	3969.3
690.737	4057.37
690.926	4088.09
691.116	3946.78
691.305	4034.84
691.495	4157.72
691.684	3881.24
691.874	3957.02
692.063	3963.16
692.252	3948.83
692.442	3965.21
692.631	3766.56
692.82	4047.13
693.01	3893.53
693.199	3680.54
693.388	3846.43
693.578	3948.83
693.767	3914.01
693.956	3963.16
694.146	3836.19
694.335	3840.28
694.524	3793.18
694.713	3809.56
694.902	3813.66
695.092	3688.73
695.281	3784.99
695.47	3756.32
695.659	3789.08
695.848	3787.04
696.037	3797.28
696.226	3834.14
696.415	3772.7
696.604	3832.09
696.793	3668.25
696.982	3830.04
697.171	3658.01
697.36	3746.08
697.549	3801.37
697.738	3600.67
697.927	3684.64
698.116	3715.36
698.305	3709.21
698.494	3672.35
698.683	3787.04
698.872	3768.6
699.061	3520.8
699.25	3776.8
699.438	3719.45
699.627	3592.48
699.816	3744.03
700.005	3660.06
700.193	3643.68
700.382	3606.81
700.571	3746.08
700.76	3698.97
700.948	3574.05
701.137	3717.4
701.326	3744.03
701.514	3694.88
701.703	3649.82
701.892	3574.05
702.08	3758.36
702.269	3479.84
702.457	3526.94
702.646	3512.61
702.834	3559.71
703.023	3555.62
703.212	3684.64
703.4	3637.53
703.589	3432.74
703.777	3668.25
703.965	3473.7
704.154	3549.47
704.342	3481.89
704.531	3492.13
704.719	3428.64
704.907	3512.61
705.096	3418.4
705.284	3451.17
705.472	3512.61
705.661	3408.16
705.849	3512.61
706.037	3432.74
706.226	3496.22
706.414	3410.21
706.602	3406.11
706.79	3514.66
706.979	3299.62
707.167	3479.84
707.355	3316
707.543	3381.54
707.731	3397.92
707.919	3373.35
708.107	3176.74
708.296	3432.74
708.484	3348.77
708.672	3127.59
708.86	3281.19
709.048	3258.66
709.236	3174.69
709.424	3266.85
709.612	3264.8
709.8	3133.73
709.988	3219.75
710.176	3291.43
710.364	3203.36
710.551	3346.72
710.739	3119.4
710.927	3068.2
711.115	3133.73
711.303	3094.82
711.491	3068.2
711.679	3199.27
711.866	3092.77
712.054	3178.79
712.242	3019.05
712.43	3082.53
712.617	3072.29
712.805	3033.38
712.993	3219.75
713.181	3006.76
713.368	3119.4
713.556	3072.29
713.744	2992.42
713.931	2939.18
714.119	2978.09
714.306	3008.81
714.494	3025.19
714.682	3041.57
714.869	2939.18
715.057	3064.1
715.244	3027.24
715.432	2924.84
715.619	2973.99
715.807	2887.98
715.994	2988.33
716.182	2910.5
716.369	3002.66
716.556	2877.74
716.744	2900.27
716.931	2939.18
717.119	2816.3
717.306	2867.5
717.493	2885.93
717.681	2859.31
717.868	2855.21
718.055	2822.44
718.242	2814.25
718.43	2853.16
718.617	2842.92
718.804	2685.23
718.991	2771.24
719.179	2799.91
719.366	2808.11
719.553	2758.96
719.74	2701.61
719.927	2705.71
720.114	2679.08
720.301	2693.42
720.488	2621.74
720.676	2687.28
720.863	2859.31
721.05	2703.66
721.237	2613.55
721.424	2785.58
721.611	2591.02
721.798	2578.73
721.985	2629.93
722.172	2752.81
722.358	2625.84
722.545	2603.31
722.732	2685.23
722.919	2531.63
723.106	2597.17
723.293	2554.16
723.48	2627.89
723.667	2572.59
723.853	2543.92
724.04	2519.34
724.227	2523.44
724.414	2552.11
724.6	2560.3
724.787	2484.53
724.974	2525.49
725.161	2550.06
725.347	2367.79
725.534	2486.58
725.72	2502.96
725.907	2427.18
726.094	2529.58
726.28	2275.63
726.467	2490.67
726.653	2378.03
726.84	2556.21
727.027	2441.52
727.213	2451.76
727.4	2402.61
727.586	2396.46
727.773	2388.27
727.959	2441.52
728.145	2382.13
728.332	2324.79
728.518	2435.38
728.705	2369.84
728.891	2298.16
729.077	2355.51
729.264	2273.59
729.45	2412.85
729.636	2355.51
729.823	2388.27
730.009	2320.69
730.195	2289.97
730.382	2312.5
730.568	2339.12
730.754	2292.02
730.94	2332.98
731.126	2433.33
731.313	2285.87
731.499	2330.93
731.685	2320.69
731.871	2273.59
732.057	2242.87
732.243	2249.01
732.429	2210.1
732.615	2279.73
732.801	2349.36
732.987	2378.03
733.173	2304.31
733.359	2312.5
733.545	2201.91
733.731	2187.57
733.917	2197.81
734.103	2187.57
734.289	2193.72
734.475	2234.68
734.661	2173.24
734.847	2220.34
735.033	2189.62
735.219	2277.68
735.404	2062.65
735.59	2152.76
735.776	2181.43
735.962	2203.96
736.148	2076.98
736.333	2113.85
736.519	2146.61
736.705	2091.32
736.89	2064.69
737.076	2113.85
737.262	2005.3
737.447	2054.45
737.633	2124.08
737.819	2056.5
738.004	2005.3
738.19	2052.41
738.375	2038.07
738.561	1982.78
738.747	1995.06
738.932	1954.1
739.118	2103.61
739.303	2036.02
739.489	1999.16
739.674	1974.58
739.859	1976.63
740.045	2007.35
740.23	1999.16
740.416	1923.38
740.601	1917.24
740.786	1849.66
740.972	1917.24
741.157	1902.9
741.342	1880.38
741.528	1911.1
741.713	1997.11
741.898	1841.47
742.084	1870.14
742.269	1812.79
742.454	1849.66
742.639	1872.18
742.824	1835.32
743.01	1825.08
743.195	1780.03
743.38	1829.18
743.565	1859.9
743.75	1757.5
743.935	1812.79
744.12	1823.03
744.305	1726.78
744.49	1790.27
744.675	1818.94
744.86	1769.79
745.045	1806.65
745.23	1790.27
745.415	1786.17
745.6	1706.3
745.785	1640.76
745.97	1765.69
746.155	1706.3
746.34	1712.44
746.525	1681.72
746.71	1597.76
746.895	1626.43
747.079	1704.25
747.264	1661.24
747.449	1653.05
747.634	1550.65
747.819	1661.24
748.003	1534.27
748.188	1579.33
748.373	1605.95
748.557	1599.8
748.742	1515.84
748.927	1538.37
749.111	1544.51
749.296	1532.22
749.481	1483.07
749.665	1415.49
749.85	1399.1
750.034	1567.04
750.219	1487.17
750.404	1358.14
750.588	1452.35
750.773	1411.39
750.957	1444.16
751.141	1433.92
751.326	1513.79
751.51	1407.3
751.695	1329.47
751.879	1370.43
752.064	1374.53
752.248	1390.91
752.432	1405.25
752.617	1339.71
752.801	1321.28
752.985	1352
753.17	1265.99
753.354	1243.46
753.538	1335.62
753.722	1343.81
753.907	1194.31
754.091	1198.4
754.275	1325.38
754.459	1282.37
754.643	1151.3
754.828	1177.92
755.012	1214.79
755.196	1089.86
755.38	1171.78
755.564	1169.73
755.748	1229.12
755.932	1218.88
756.116	1141.06
756.3	1167.68
756.484	1147.2
756.668	1218.88
756.852	1198.4
757.036	1171.78
757.22	1075.52
757.404	1128.77
757.588	1022.28
757.772	964.93
757.956	1061.19
758.14	1106.24
758.323	1120.58
758.507	1040.71
758.691	1098.05
758.875	1001.8
759.059	1126.72
759.242	1098.05
759.426	1050.95
759.61	1032.52
759.794	1116.48
759.977	1096
760.161	1071.43
760.345	966.98
760.528	977.22
760.712	999.75
760.895	991.56
761.079	971.08
761.263	866.63
761.446	889.16
761.63	948.55
761.813	956.74
761.997	934.22
762.18	999.75
762.364	932.17
762.547	844.1
762.731	923.98
762.914	870.73
763.098	940.36
763.281	903.5
763.464	915.78
763.648	893.26
763.831	864.58
764.015	899.4
764.198	913.74
764.381	874.82
764.564	893.26
764.748	891.21
764.931	837.96
765.114	889.16
765.297	868.68
765.481	803.15
765.664	801.1
765.847	823.62
766.03	819.53
766.213	819.53
766.397	885.06
766.58	749.9
766.763	823.62
766.946	778.57
767.129	782.67
767.312	835.91
767.495	942.41
767.678	825.67
767.861	799.05
768.044	768.33
768.227	797
768.41	753.99
768.593	870.73
768.776	747.85
768.959	770.38
769.142	850.25
769.324	715.08
769.507	719.18
769.69	817.48
769.873	790.86
770.056	794.95
770.239	674.12
770.421	704.84
770.604	756.04
770.787	725.32
770.97	690.51
771.152	704.84
771.335	764.23
771.518	797
771.7	670.03
771.883	633.16
772.066	635.21
772.248	686.41
772.431	725.32
772.613	737.61
772.796	729.42
772.978	735.56
773.161	692.55
773.343	713.03
773.526	588.11
773.708	729.42
773.891	633.16
774.073	600.4
774.256	627.02
774.438	653.64
774.621	762.19
774.803	602.44
774.985	600.4
775.168	643.4
775.35	557.39
775.532	602.44
775.715	610.64
775.897	657.74
776.079	598.35
776.261	629.07
776.444	686.41
776.626	614.73
776.808	553.29
776.99	498
777.173	553.29
777.355	567.63
777.537	522.57
777.719	602.44
777.901	526.67
778.083	577.87
778.265	477.52
778.447	622.92
778.629	541.01
778.811	534.86
778.993	549.2
779.175	602.44
779.357	536.91
779.539	444.75
779.721	465.23
779.903	536.91
780.085	430.41
780.267	553.29
780.449	547.15
780.631	512.33
780.812	538.96
780.994	536.91
781.176	600.4
781.358	426.32
781.54	418.13
781.721	502.09
781.903	495.95
782.085	473.42
782.267	479.57
782.448	360.78
782.63	444.75
782.812	387.41
782.993	414.03
783.175	463.18
783.357	377.17
783.538	495.95
783.72	383.31
783.901	387.41
784.083	383.31
784.264	473.42
784.446	364.88
784.627	399.7
784.809	491.85
784.99	405.84
785.172	399.7
785.353	454.99
785.535	395.6
785.716	381.26
785.897	350.54
786.079	387.41
786.26	358.74
786.441	420.17
786.623	350.54
786.804	340.3
786.985	352.59
787.167	358.74
787.348	375.12
787.529	356.69
787.71	346.45
787.891	336.21
788.073	381.26
788.254	285.01
788.435	409.94
788.616	364.88
788.797	282.96
788.978	282.96
789.159	303.44
789.34	299.34
789.522	313.68
789.703	317.78
789.884	354.64
790.065	246.1
790.246	332.11
790.427	352.59
790.607	389.46
790.788	332.11
790.969	291.15
791.15	303.44
791.331	285.01
791.512	356.69
791.693	301.39
791.874	301.39
792.054	301.39
792.235	285.01
792.416	198.99
792.597	268.63
792.778	213.33
792.958	278.87
793.139	330.06
793.32	295.25
793.5	340.3
793.681	293.2
793.862	278.87
794.042	244.05
794.223	264.53
794.404	213.33
794.584	248.15
794.765	209.23
794.945	201.04
795.126	342.35
795.306	313.68
795.487	198.99
795.667	217.43
795.848	256.34
796.028	258.39
796.209	285.01
796.389	278.87
796.57	172.37
796.75	235.86
796.93	223.57
797.111	196.95
797.291	235.86
797.471	217.43
797.652	168.27
797.832	237.91
798.012	225.62
798.192	274.77
798.373	217.43
798.553	233.81
798.733	260.43
798.913	164.18
799.093	198.99
799.274	248.15
799.454	227.67
799.634	278.87
799.814	213.33
799.994	282.96
800.174	170.32
800.354	231.76
800.534	172.37
800.714	176.47
800.894	239.95
801.074	270.67
801.254	237.91
801.434	213.33
801.614	219.47
801.794	194.9
801.974	684.36
802.154	219.47
802.334	201.04
802.514	143.7
802.693	149.84
802.873	192.85
803.053	211.28
803.233	162.13
803.413	194.9
803.592	209.23
803.772	143.7
803.952	139.6
804.131	115.03
804.311	112.98
804.491	248.15
804.67	139.6
804.85	201.04
805.03	198.99
805.209	178.51
805.389	155.99
805.568	166.23
805.748	160.08
805.928	176.47
806.107	209.23
806.287	188.75
806.466	139.6
806.646	129.36
806.825	106.84
807.004	78.16
807.184	86.36
807.363	201.04
807.543	135.51
807.722	168.27
807.901	98.64
808.081	219.47
808.26	119.12
808.439	172.37
808.619	198.99
808.798	131.41
808.977	153.94
809.156	178.51
809.336	174.42
809.515	131.41
809.694	110.93
809.873	137.56
810.052	174.42
810.231	133.46
810.411	133.46
810.59	160.08
810.769	176.47
810.948	168.27
811.127	53.59
811.306	162.13
811.485	139.6
811.664	219.47
811.843	155.99
812.022	180.56
812.201	166.23
812.38	104.79
812.559	78.16
812.737	151.89
812.916	43.35
813.095	160.08
813.274	139.6
813.453	131.41
813.632	151.89
813.811	125.27
813.989	74.07
814.168	168.27
814.347	76.12
814.526	123.22
814.704	88.4
814.883	108.88
815.062	160.08
815.24	143.7
815.419	127.32
815.598	82.26
815.776	78.16
815.955	133.46
816.133	72.02
816.312	147.8
816.49	147.8
816.669	145.75
816.847	31.06
817.026	106.84
817.204	100.69
817.383	121.17
817.561	119.12
817.74	115.03
817.918	155.99
818.097	131.41
818.275	123.22
818.453	90.45
818.632	164.18
818.81	110.93
818.988	127.32
819.167	78.16
819.345	65.88
819.523	84.31
819.701	176.47
819.879	145.75
820.058	102.74
820.236	127.32
820.414	59.73
820.592	137.56
820.77	117.08
820.948	67.92
821.127	182.61
821.305	164.18
821.483	88.4
821.661	172.37
821.839	131.41
822.017	67.92
822.195	94.55
822.373	61.78
822.551	164.18
822.729	110.93
822.907	121.17
823.085	92.5
823.262	33.11
823.44	20.82
823.618	61.78
823.796	149.84
823.974	84.31
824.152	49.49
824.329	102.74
824.507	57.68
824.685	92.5
824.863	69.97
825.04	112.98
825.218	104.79
825.396	18.77
825.574	121.17
825.751	96.6
825.929	78.16
826.107	69.97
826.284	84.31
826.462	112.98
826.639	98.64
826.817	143.7
826.994	47.44
827.172	-26.28
827.349	160.08
827.527	12.63
827.704	84.31
827.882	86.36
828.059	72.02
828.237	59.73
828.414	125.27
828.591	14.68
828.769	98.64
828.946	26.96
829.124	100.69
829.301	129.36
829.478	61.78
829.655	35.16
829.833	67.92
830.01	143.7
830.187	51.54
830.364	110.93
830.542	121.17
830.719	63.83
830.896	72.02
831.073	22.87
831.25	78.16
831.427	143.7
831.604	53.59
831.782	51.54
831.959	100.69
832.136	53.59
832.313	78.16
832.49	88.4
832.667	121.17
832.844	29.01
833.021	147.8
833.198	35.16
833.374	47.44
833.551	29.01
833.728	12.63
833.905	-59.05
834.082	24.92
834.259	84.31
834.436	92.5
834.612	80.21
834.789	74.07
834.966	39.25
835.143	-18.09
835.319	29.01
835.496	115.03
835.673	49.49
835.85	98.64
836.026	43.35
836.203	72.02
836.38	104.79
836.556	29.01
836.733	45.4
836.909	139.6
837.086	0.34
837.262	96.6
837.439	29.01
837.616	-26.28
837.792	39.25
837.968	43.35
838.145	51.54
838.321	94.55
838.498	88.4
838.674	67.92
838.851	94.55
839.027	72.02
839.203	8.53
839.38	39.25
839.556	94.55
839.732	45.4
839.909	31.06
840.085	57.68
840.261	-3.75
840.437	22.87
840.614	110.93
840.79	67.92
840.966	18.77
841.142	172.37
841.318	76.12
841.494	45.4
841.671	131.41
841.847	115.03
842.023	43.35
842.199	51.54
842.375	98.64
842.551	-7.85
842.727	47.44
842.903	12.63
843.079	57.68
843.255	117.08
843.431	0.34
843.607	51.54
843.783	18.77
843.959	41.3
844.134	67.92
844.31	112.98
844.486	12.63
844.662	57.68
844.838	51.54
845.013	24.92
845.189	69.97
845.365	8.53
845.541	41.3
845.716	88.4
845.892	20.82
846.068	-13.99
846.244	-3.75
846.419	63.83
846.595	45.4
846.77	104.79
846.946	45.4
847.122	12.63
847.297	84.31
847.473	-1.71
847.648	16.73
847.824	82.26
847.999	24.92
848.175	20.82
848.35	76.12
848.526	82.26
848.701	55.64
848.876	88.4
849.052	49.49
849.227	41.3
849.403	76.12
849.578	-36.52
849.753	80.21
849.929	33.11
850.104	12.63
850.279	104.79
850.454	4.44
850.63	10.58
850.805	-7.85
850.98	72.02
851.155	14.68
851.33	80.21
851.505	-28.33
851.681	90.45
851.856	63.83
852.031	-1.71
852.206	12.63
852.381	-3.75
852.556	-24.23
852.731	-36.52
852.906	8.53
853.081	2.39
853.256	51.54
853.431	90.45
853.606	-1.71
853.781	45.4
853.956	-63.15
854.131	0.34
854.305	39.25
854.48	14.68
854.655	20.82
854.83	35.16
855.005	-22.19
855.18	26.96
855.354	53.59
855.529	59.73
855.704	8.53
855.879	6.49
856.053	6.49
856.228	2.39
856.403	16.73
856.577	31.06
856.752	80.21
856.926	67.92
857.101	-81.58
857.276	18.77
857.45	20.82
857.625	43.35
857.799	-44.71
857.974	8.53
858.148	4.44
858.323	55.64
858.497	37.2
858.672	39.25
858.846	8.53
859.02	84.31
859.195	0.34
859.369	-44.71
859.543	39.25
859.718	0.34
859.892	4.44
860.066	47.44
860.241	-36.52
860.415	96.6
860.589	53.59
860.763	-42.67
860.938	22.87
861.112	14.68
861.286	-36.52
861.46	-3.75
861.634	-46.76
861.808	-13.99
861.982	20.82
862.157	12.63
862.331	-30.38
862.505	-7.85
862.679	-13.99
862.853	94.55
863.027	47.44
863.201	37.2
863.375	29.01
863.549	-52.91
863.722	59.73
863.896	51.54
864.07	-26.28
864.244	4.44
864.418	29.01
864.592	-46.76
864.766	10.58
864.939	49.49
865.113	-9.9
865.287	45.4
865.461	-22.19
865.634	33.11
865.808	-13.99
865.982	45.4
866.156	14.68
866.329	61.78
866.503	-75.43
866.676	-11.95
866.85	57.68
867.024	10.58
867.197	63.83
867.371	31.06
867.544	14.68
867.718	12.63
867.891	80.21
868.065	65.88
868.238	41.3
868.412	-18.09
868.585	-54.95
868.759	-3.75
868.932	-28.33
869.105	61.78
869.279	-63.15
869.452	41.3
869.625	6.49
869.799	-24.23
869.972	-3.75
870.145	69.97
870.319	0.34
870.492	-1.71
870.665	-57
870.838	67.92
871.011	-83.63
871.185	-32.43
871.358	-22.19
871.531	49.49
871.704	-11.95
871.877	55.64
872.05	72.02
872.223	-61.1
872.396	41.3
872.569	72.02
872.742	6.49
872.915	-9.9
873.088	26.96
873.261	18.77
873.434	29.01
873.607	8.53
873.78	47.44
873.953	-28.33
874.126	8.53
874.299	31.06
874.471	26.96
874.644	43.35
874.817	100.69
874.99	39.25
875.163	-71.34
875.335	4.44
875.508	-5.8
875.681	84.31
875.853	-13.99
876.026	14.68
876.199	0.34
876.371	4.44
876.544	-38.57
876.717	18.77
876.889	-34.47
877.062	43.35
877.234	-3.75
877.407	59.73
877.579	-44.71
877.752	-38.57
877.924	-30.38
878.097	8.53
878.269	63.83
878.442	41.3
878.614	-3.75
878.786	29.01
878.959	67.92
879.131	14.68
879.303	26.96
879.476	6.49
879.648	-50.86
879.82	-48.81
879.993	72.02
880.165	-36.52
880.337	8.53
880.509	53.59
880.681	-87.72
880.854	6.49
881.026	61.78
881.198	39.25
881.37	-69.29
881.542	41.3
881.714	-32.43
881.886	63.83
882.058	-22.19
882.23	-13.99
882.402	57.68
882.574	-1.71
882.746	-18.09
882.918	88.4
883.09	31.06
883.262	-1.71
883.434	-26.28
883.606	-30.38
883.778	-13.99
883.95	-13.99
884.122	-18.09
884.293	61.78
884.465	20.82
884.637	-16.04
884.809	0.34
884.98	16.73
885.152	0.34
885.324	59.73
885.496	24.92
885.667	-11.95
885.839	4.44
886.011	6.49
886.182	-18.09
886.354	-40.62
886.525	-9.9
886.697	-1.71
886.869	43.35
887.04	22.87
887.212	51.54
887.383	-38.57
887.555	6.49
887.726	4.44
887.897	8.53
888.069	-9.9
888.24	-18.09
888.412	61.78
888.583	-38.57
888.754	8.53
888.926	-38.57
889.097	-34.47
889.268	-1.71
889.44	2.39
889.611	-18.09
889.782	8.53
889.953	-32.43
890.125	-32.43
890.296	-46.76
890.467	45.4
890.638	-5.8
890.809	-28.33
890.98	18.77
891.151	24.92
891.323	-18.09
891.494	4.44
891.665	8.53
891.836	-5.8
892.007	76.12
892.178	-24.23
892.349	33.11
892.52	29.01
892.691	-38.57
892.862	-24.23
893.032	-9.9
893.203	-28.33
893.374	43.35
893.545	61.78
893.716	53.59
893.887	45.4
894.057	-59.05
894.228	72.02
894.399	-26.28
894.57	20.82
894.74	29.01
894.911	-1.71
895.082	-36.52
895.253	-1.71
895.423	0.34
895.594	0.34
895.764	6.49
895.935	-13.99
896.106	69.97
896.276	8.53
896.447	-11.95
896.617	45.4
896.788	-40.62
896.958	84.31
897.129	-18.09
897.299	-34.47
897.47	0.34
897.64	-24.23
897.81	-77.48
897.981	26.96
898.151	14.68
898.322	22.87
898.492	-24.23
898.662	-34.47
898.832	-26.28
899.003	45.4
899.173	-63.15
899.343	82.26
899.513	10.58
