Data from USB4F104151__6__12-34-58-505.txt Node

Date: Fri Mar 14 12:34:58 EDT 2025
User: louis
Spectrometer: USB4F10415
Trigger mode: 4
Integration Time (sec): 2.000000E-2
Scans to average: 1
Electric dark correction enabled: true
Nonlinearity correction enabled: false
Boxcar width: 0
XAxis mode: Wavelengths
Number of Pixels in Spectrum: 3648
>>>>>Begin Spectral Data<<<<<
178.204	-142.5
178.424	-142.5
178.644	-142.5
178.864	-109.74
179.084	-115.88
179.304	21.33
179.524	-5.29
179.744	25.43
179.964	11.09
180.184	-44.2
180.404	-17.58
180.624	4.95
180.844	50
181.064	-44.2
181.283	-5.29
181.503	-17.58
181.723	21.33
181.943	-9.39
182.163	41.81
182.383	-42.15
182.602	35.67
182.822	35.67
183.042	21.33
183.262	-44.2
183.482	31.57
183.701	-17.58
183.921	19.29
184.141	62.29
184.361	19.29
184.58	43.86
184.8	47.96
185.02	-21.67
185.239	-3.24
185.459	11.09
185.679	-7.34
185.898	-42.15
186.118	33.62
186.338	-5.29
186.557	-5.29
186.777	-17.58
186.997	-31.91
187.216	41.81
187.436	68.44
187.655	-9.39
187.875	41.81
188.095	-13.48
188.314	0.85
188.534	27.48
188.753	-29.87
188.973	52.05
189.192	21.33
189.412	-56.49
189.631	68.44
189.851	0.85
190.07	47.96
190.29	-44.2
190.509	52.05
190.729	-29.87
190.948	68.44
191.168	115.54
191.387	43.86
191.607	-46.25
191.826	-3.24
192.045	-68.78
192.265	13.14
192.484	35.67
192.704	-11.43
192.923	-44.2
193.142	64.34
193.362	-15.53
193.581	56.15
193.8	37.72
194.02	11.09
194.239	13.14
194.458	-33.96
194.678	11.09
194.897	41.81
195.116	-5.29
195.335	27.48
195.555	37.72
195.774	-56.49
195.993	-15.53
196.212	54.1
196.432	-25.77
196.651	21.33
196.87	27.48
197.089	56.15
197.308	25.43
197.528	80.72
197.747	-13.48
197.966	-19.63
198.185	64.34
198.404	-23.72
198.623	-83.11
198.842	35.67
199.062	-27.82
199.281	82.77
199.5	-7.34
199.719	-19.63
199.938	23.38
200.157	21.33
200.376	31.57
200.595	-25.77
200.814	2.9
201.033	-66.73
201.252	41.81
201.471	2.9
201.69	-1.19
201.909	7
202.128	-9.39
202.347	62.29
202.566	17.24
202.785	-68.78
203.004	39.76
203.223	103.25
203.442	0.85
203.661	0.85
203.879	-7.34
204.098	47.96
204.317	-44.2
204.536	21.33
204.755	15.19
204.974	9.05
205.193	0.85
205.411	31.57
205.63	-25.77
205.849	-21.67
206.068	66.39
206.287	-85.16
206.505	64.34
206.724	29.52
206.943	0.85
207.162	54.1
207.381	-58.54
207.599	-7.34
207.818	-27.82
208.037	41.81
208.255	-1.19
208.474	29.52
208.693	39.76
208.911	11.09
209.13	25.43
209.349	74.58
209.567	4.95
209.786	13.14
210.005	37.72
210.223	-38.06
210.442	-60.59
210.661	-19.63
210.879	-27.82
211.098	68.44
211.316	35.67
211.535	74.58
211.753	-3.24
211.972	35.67
212.191	-60.59
212.409	-5.29
212.628	-33.96
212.846	9.05
213.065	39.76
213.283	-11.43
213.502	-23.72
213.72	45.91
213.938	56.15
214.157	-31.91
214.375	7
214.594	-54.44
214.812	-50.35
215.031	0.85
215.249	4.95
215.467	-5.29
215.686	-11.43
215.904	11.09
216.122	19.29
216.341	19.29
216.559	62.29
216.778	33.62
216.996	-21.67
217.214	-64.68
217.432	-33.96
217.651	-62.63
217.869	-25.77
218.087	4.95
218.306	-9.39
218.524	17.24
218.742	-70.83
218.96	-27.82
219.179	56.15
219.397	-7.34
219.615	41.81
219.833	-19.63
220.051	52.05
220.27	70.48
220.488	-60.59
220.706	13.14
220.924	9.05
221.142	21.33
221.36	-48.3
221.578	-44.2
221.796	-31.91
222.015	-54.44
222.233	35.67
222.451	-58.54
222.669	-44.2
222.887	17.24
223.105	-48.3
223.323	-99.5
223.541	33.62
223.759	31.57
223.977	-7.34
224.195	58.2
224.413	-13.48
224.631	35.67
224.849	4.95
225.067	117.59
225.285	2.9
225.503	-29.87
225.721	-31.91
225.939	25.43
226.157	58.2
226.375	82.77
226.592	-1.19
226.81	-60.59
227.028	29.52
227.246	35.67
227.464	13.14
227.682	54.1
227.9	86.87
228.117	19.29
228.335	33.62
228.553	-46.25
228.771	-9.39
228.989	17.24
229.206	-15.53
229.424	23.38
229.642	2.9
229.86	-31.91
230.077	27.48
230.295	15.19
230.513	78.68
230.731	-1.19
230.948	25.43
231.166	56.15
231.384	-17.58
231.601	-11.43
231.819	29.52
232.037	-7.34
232.254	-70.83
232.472	-7.34
232.689	-25.77
232.907	-15.53
233.125	-29.87
233.342	-11.43
233.56	-23.72
233.777	-11.43
233.995	-19.63
234.213	97.11
234.43	39.76
234.648	9.05
234.865	-33.96
235.083	-33.96
235.3	111.44
235.518	15.19
235.735	33.62
235.953	95.06
236.17	45.91
236.388	-36.01
236.605	2.9
236.822	64.34
237.04	-7.34
237.257	-13.48
237.475	-5.29
237.692	54.1
237.909	2.9
238.127	-31.91
238.344	-13.48
238.562	39.76
238.779	-17.58
238.996	-40.11
239.214	41.81
239.431	13.14
239.648	-50.35
239.865	-27.82
240.083	-31.91
240.3	31.57
240.517	25.43
240.735	4.95
240.952	23.38
241.169	43.86
241.386	21.33
241.603	-72.87
241.821	17.24
242.038	21.33
242.255	99.16
242.472	-101.55
242.689	86.87
242.907	25.43
243.124	-27.82
243.341	-15.53
243.558	21.33
243.775	52.05
243.992	-58.54
244.209	-62.63
244.426	-3.24
244.643	50
244.86	35.67
245.078	-50.35
245.295	-46.25
245.512	17.24
245.729	-44.2
245.946	-9.39
246.163	-23.72
246.38	41.81
246.597	17.24
246.814	-64.68
247.031	33.62
247.248	11.09
247.464	-7.34
247.681	9.05
247.898	103.25
248.115	13.14
248.332	-15.53
248.549	-29.87
248.766	105.3
248.983	90.96
249.2	15.19
249.417	78.68
249.633	-89.26
249.85	39.76
250.067	27.48
250.284	19.29
250.501	17.24
250.717	-1.19
250.934	35.67
251.151	-17.58
251.368	19.29
251.585	-17.58
251.801	-9.39
252.018	0.85
252.235	68.44
252.451	-1.19
252.668	-1.19
252.885	2.9
253.102	-21.67
253.318	37.72
253.535	31.57
253.752	19.29
253.968	66.39
254.185	60.24
254.401	9.05
254.618	-15.53
254.835	-7.34
255.051	-11.43
255.268	13.14
255.484	-13.48
255.701	29.52
255.917	70.48
256.134	-5.29
256.351	11.09
256.567	-11.43
256.784	35.67
257	45.91
257.217	9.05
257.433	58.2
257.65	-27.82
257.866	17.24
258.082	37.72
258.299	35.67
258.515	23.38
258.732	58.2
258.948	4.95
259.165	23.38
259.381	-1.19
259.597	27.48
259.814	-36.01
260.03	27.48
260.246	21.33
260.463	11.09
260.679	19.29
260.895	66.39
261.112	9.05
261.328	17.24
261.544	11.09
261.761	39.76
261.977	-48.3
262.193	-27.82
262.409	-29.87
262.626	54.1
262.842	-27.82
263.058	-1.19
263.274	93.01
263.49	23.38
263.707	35.67
263.923	-68.78
264.139	-33.96
264.355	41.81
264.571	78.68
264.787	-9.39
265.004	-9.39
265.22	-5.29
265.436	58.2
265.652	-29.87
265.868	39.76
266.084	-33.96
266.3	41.81
266.516	-54.44
266.732	-15.53
266.948	-50.35
267.164	-1.19
267.38	4.95
267.596	52.05
267.812	21.33
268.028	39.76
268.244	-15.53
268.46	43.86
268.676	-25.77
268.892	-7.34
269.108	-72.87
269.324	47.96
269.54	41.81
269.756	90.96
269.972	2.9
270.188	-19.63
270.403	-42.15
270.619	37.72
270.835	90.96
271.051	-25.77
271.267	-3.24
271.483	-50.35
271.698	19.29
271.914	72.53
272.13	-27.82
272.346	19.29
272.562	-48.3
272.777	23.38
272.993	19.29
273.209	-5.29
273.425	-19.63
273.64	76.63
273.856	78.68
274.072	15.19
274.287	70.48
274.503	68.44
274.719	2.9
274.934	70.48
275.15	-76.97
275.366	2.9
275.581	23.38
275.797	60.24
276.012	25.43
276.228	-1.19
276.444	41.81
276.659	62.29
276.875	62.29
277.09	109.4
277.306	-19.63
277.521	45.91
277.737	62.29
277.952	35.67
278.168	-33.96
278.383	19.29
278.599	-36.01
278.814	117.59
279.03	15.19
279.245	58.2
279.461	21.33
279.676	-3.24
279.892	56.15
280.107	95.06
280.322	-68.78
280.538	-5.29
280.753	23.38
280.969	-25.77
281.184	-40.11
281.399	121.68
281.615	31.57
281.83	-74.92
282.045	-52.39
282.26	35.67
282.476	-17.58
282.691	-9.39
282.906	74.58
283.122	-27.82
283.337	-19.63
283.552	-15.53
283.767	-38.06
283.983	11.09
284.198	35.67
284.413	58.2
284.628	-29.87
284.843	-19.63
285.058	-7.34
285.274	58.2
285.489	-21.67
285.704	27.48
285.919	0.85
286.134	13.14
286.349	4.95
286.564	39.76
286.779	41.81
286.995	-29.87
287.21	-68.78
287.425	25.43
287.64	-38.06
287.855	11.09
288.07	-1.19
288.285	27.48
288.5	23.38
288.715	74.58
288.93	-31.91
289.145	35.67
289.36	-38.06
289.575	-48.3
289.79	0.85
290.004	-7.34
290.219	31.57
290.434	84.82
290.649	-9.39
290.864	23.38
291.079	-70.83
291.294	52.05
291.509	23.38
291.724	-48.3
291.938	-7.34
292.153	-60.59
292.368	-21.67
292.583	25.43
292.798	13.14
293.012	-27.82
293.227	-29.87
293.442	43.86
293.657	15.19
293.871	93.01
294.086	13.14
294.301	78.68
294.516	4.95
294.73	13.14
294.945	31.57
295.16	23.38
295.374	-23.72
295.589	109.4
295.804	-21.67
296.018	0.85
296.233	133.97
296.447	29.52
296.662	-3.24
296.877	9.05
297.091	39.76
297.306	17.24
297.52	21.33
297.735	-31.91
297.949	-11.43
298.164	-27.82
298.378	-21.67
298.593	35.67
298.807	-7.34
299.022	-13.48
299.236	82.77
299.451	45.91
299.665	2.9
299.88	29.52
300.094	25.43
300.309	9.05
300.523	33.62
300.737	-54.44
300.952	15.19
301.166	17.24
301.381	13.14
301.595	17.24
301.809	-13.48
302.024	-9.39
302.238	-17.58
302.452	-5.29
302.667	0.85
302.881	39.76
303.095	13.14
303.309	-1.19
303.524	-9.39
303.738	19.29
303.952	23.38
304.166	-11.43
304.381	-76.97
304.595	25.43
304.809	-11.43
305.023	45.91
305.237	50
305.452	29.52
305.666	62.29
305.88	54.1
306.094	45.91
306.308	7
306.522	-19.63
306.736	66.39
306.95	-25.77
307.164	-13.48
307.379	21.33
307.593	-72.87
307.807	29.52
308.021	19.29
308.235	7
308.449	-33.96
308.663	29.52
308.877	93.01
309.091	0.85
309.305	17.24
309.519	-56.49
309.733	43.86
309.947	-31.91
310.161	33.62
310.374	58.2
310.588	50
310.802	-15.53
311.016	45.91
311.23	-7.34
311.444	23.38
311.658	-44.2
311.872	15.19
312.085	45.91
312.299	25.43
312.513	41.81
312.727	-23.72
312.941	-40.11
313.154	21.33
313.368	-1.19
313.582	-7.34
313.796	-40.11
314.009	-3.24
314.223	35.67
314.437	80.72
314.651	4.95
314.864	21.33
315.078	-38.06
315.292	13.14
315.505	-29.87
315.719	35.67
315.933	66.39
316.146	56.15
316.36	23.38
316.573	72.53
316.787	11.09
317.001	47.96
317.214	-27.82
317.428	-36.01
317.641	-3.24
317.855	-31.91
318.068	-33.96
318.282	50
318.495	33.62
318.709	66.39
318.922	-19.63
319.136	103.25
319.349	-3.24
319.563	-7.34
319.776	41.81
319.99	-54.44
320.203	82.77
320.417	101.2
320.63	58.2
320.843	31.57
321.057	33.62
321.27	-23.72
321.483	39.76
321.697	127.83
321.91	29.52
322.124	21.33
322.337	43.86
322.55	45.91
322.763	17.24
322.977	-27.82
323.19	-25.77
323.403	27.48
323.617	41.81
323.83	72.53
324.043	-40.11
324.256	27.48
324.469	-23.72
324.683	109.4
324.896	-1.19
325.109	-19.63
325.322	-21.67
325.535	93.01
325.748	33.62
325.962	-31.91
326.175	15.19
326.388	7
326.601	70.48
326.814	113.49
327.027	25.43
327.24	13.14
327.453	-38.06
327.666	80.72
327.879	45.91
328.092	37.72
328.305	47.96
328.518	23.38
328.731	0.85
328.944	105.3
329.157	54.1
329.37	0.85
329.583	78.68
329.796	31.57
330.009	21.33
330.222	-1.19
330.435	19.29
330.648	111.44
330.861	13.14
331.073	-23.72
331.286	13.14
331.499	0.85
331.712	-99.5
331.925	84.82
332.138	9.05
332.35	13.14
332.563	66.39
332.776	86.87
332.989	-33.96
333.202	35.67
333.414	35.67
333.627	56.15
333.84	-23.72
334.053	78.68
334.265	-9.39
334.478	11.09
334.691	39.76
334.903	25.43
335.116	68.44
335.329	113.49
335.541	-19.63
335.754	21.33
335.966	33.62
336.179	-46.25
336.392	15.19
336.604	-72.87
336.817	13.14
337.029	-21.67
337.242	88.92
337.454	2.9
337.667	33.62
337.88	-54.44
338.092	35.67
338.305	52.05
338.517	56.15
338.729	-68.78
338.942	19.29
339.154	-44.2
339.367	-5.29
339.579	31.57
339.792	50
340.004	117.59
340.217	23.38
340.429	-25.77
340.641	-46.25
340.854	9.05
341.066	19.29
341.278	13.14
341.491	119.64
341.703	-9.39
341.915	0.85
342.128	84.82
342.34	27.48
342.552	27.48
342.764	68.44
342.977	19.29
343.189	23.38
343.401	125.78
343.613	11.09
343.826	41.81
344.038	-44.2
344.25	7
344.462	25.43
344.674	33.62
344.886	80.72
345.099	27.48
345.311	-9.39
345.523	-38.06
345.735	-3.24
345.947	17.24
346.159	11.09
346.371	4.95
346.583	76.63
346.795	9.05
347.007	-11.43
347.219	47.96
347.431	-33.96
347.643	-21.67
347.855	47.96
348.067	4.95
348.279	25.43
348.491	78.68
348.703	76.63
348.915	7
349.127	50
349.339	-19.63
349.551	41.81
349.763	50
349.975	-7.34
350.187	80.72
350.399	15.19
350.61	13.14
350.822	-5.29
351.034	33.62
351.246	19.29
351.458	11.09
351.669	-3.24
351.881	41.81
352.093	-36.01
352.305	13.14
352.517	19.29
352.728	-1.19
352.94	47.96
353.152	31.57
353.363	-11.43
353.575	105.3
353.787	-70.83
353.999	25.43
354.21	0.85
354.422	-13.48
354.633	54.1
354.845	-5.29
355.057	-3.24
355.268	-13.48
355.48	31.57
355.692	21.33
355.903	-9.39
356.115	-21.67
356.326	21.33
356.538	78.68
356.749	45.91
356.961	35.67
357.172	64.34
357.384	-31.91
357.595	66.39
357.807	35.67
358.018	47.96
358.23	-31.91
358.441	15.19
358.653	-60.59
358.864	35.67
359.075	9.05
359.287	58.2
359.498	-13.48
359.709	33.62
359.921	2.9
360.132	15.19
360.344	43.86
360.555	4.95
360.766	19.29
360.977	23.38
361.189	-33.96
361.4	-13.48
361.611	50
361.823	23.38
362.034	47.96
362.245	-46.25
362.456	35.67
362.667	7
362.879	13.14
363.09	50
363.301	47.96
363.512	11.09
363.723	-3.24
363.935	23.38
364.146	2.9
364.357	9.05
364.568	4.95
364.779	15.19
364.99	103.25
365.201	-7.34
365.412	62.29
365.623	21.33
365.834	7
366.045	62.29
366.256	86.87
366.467	-7.34
366.678	-58.54
366.889	31.57
367.1	86.87
367.311	7
367.522	62.29
367.733	54.1
367.944	-1.19
368.155	47.96
368.366	-44.2
368.577	31.57
368.788	4.95
368.999	7
369.209	7
369.42	84.82
369.631	107.35
369.842	-91.31
370.053	7
370.264	37.72
370.474	21.33
370.685	27.48
370.896	43.86
371.107	-15.53
371.317	39.76
371.528	-5.29
371.739	9.05
371.95	-48.3
372.16	23.38
372.371	-33.96
372.582	15.19
372.792	-23.72
373.003	43.86
373.214	41.81
373.424	115.54
373.635	-9.39
373.846	45.91
374.056	17.24
374.267	64.34
374.477	13.14
374.688	123.73
374.898	-9.39
375.109	9.05
375.319	60.24
375.53	68.44
375.74	23.38
375.951	56.15
376.161	0.85
376.372	72.53
376.582	29.52
376.793	-1.19
377.003	19.29
377.214	-11.43
377.424	23.38
377.635	74.58
377.845	-33.96
378.055	39.76
378.266	11.09
378.476	25.43
378.686	17.24
378.897	-46.25
379.107	72.53
379.317	23.38
379.528	-50.35
379.738	-11.43
379.948	39.76
380.158	54.1
380.369	-17.58
380.579	-7.34
380.789	74.58
380.999	15.19
381.21	13.14
381.42	72.53
381.63	-31.91
381.84	-44.2
382.05	-3.24
382.261	56.15
382.471	33.62
382.681	-5.29
382.891	27.48
383.101	25.43
383.311	54.1
383.521	33.62
383.731	-48.3
383.941	31.57
384.151	-40.11
384.361	66.39
384.571	37.72
384.781	31.57
384.991	58.2
385.201	52.05
385.411	47.96
385.621	-1.19
385.831	82.77
386.041	0.85
386.251	21.33
386.461	78.68
386.671	19.29
386.881	80.72
387.091	45.91
387.301	70.48
387.511	15.19
387.72	50
387.93	35.67
388.14	9.05
388.35	2.9
388.56	2.9
388.769	68.44
388.979	-9.39
389.189	7
389.399	19.29
389.609	-5.29
389.818	23.38
390.028	39.76
390.238	97.11
390.447	29.52
390.657	9.05
390.867	31.57
391.076	-21.67
391.286	90.96
391.496	31.57
391.705	29.52
391.915	99.16
392.125	13.14
392.334	-1.19
392.544	-50.35
392.753	50
392.963	56.15
393.172	109.4
393.382	15.19
393.591	164.69
393.801	-17.58
394.01	66.39
394.22	-5.29
394.429	27.48
394.639	-5.29
394.848	45.91
395.058	27.48
395.267	52.05
395.477	35.67
395.686	121.68
395.895	43.86
396.105	60.24
396.314	84.82
396.524	19.29
396.733	56.15
396.942	29.52
397.152	129.88
397.361	80.72
397.57	78.68
397.78	70.48
397.989	15.19
398.198	107.35
398.407	88.92
398.617	60.24
398.826	50
399.035	97.11
399.244	99.16
399.453	37.72
399.663	0.85
399.872	129.88
400.081	97.11
400.29	66.39
400.499	76.63
400.708	60.24
400.917	25.43
401.127	62.29
401.336	66.39
401.545	78.68
401.754	107.35
401.963	76.63
402.172	93.01
402.381	62.29
402.59	64.34
402.799	90.96
403.008	76.63
403.217	76.63
403.426	70.48
403.635	74.58
403.844	33.62
404.053	105.3
404.262	95.06
404.471	76.63
404.68	129.88
404.888	146.26
405.097	56.15
405.306	101.2
405.515	133.97
405.724	99.16
405.933	82.77
406.142	103.25
406.35	97.11
406.559	158.55
406.768	80.72
406.977	84.82
407.185	172.88
407.394	64.34
407.603	60.24
407.812	183.12
408.02	142.16
408.229	117.59
408.438	99.16
408.646	203.6
408.855	193.36
409.064	166.74
409.272	242.51
409.481	240.47
409.69	314.19
409.898	164.69
410.107	242.51
410.315	170.83
410.524	215.89
410.733	310.1
410.941	238.42
411.15	330.58
411.358	275.28
411.567	271.19
411.775	289.62
411.984	283.47
412.192	320.34
412.401	289.62
412.609	342.86
412.818	359.25
413.026	441.17
413.234	418.64
413.443	430.93
413.651	375.63
413.86	387.92
414.068	453.45
414.276	459.6
414.485	408.4
414.693	482.13
414.901	463.69
415.11	482.13
415.318	537.42
415.526	533.33
415.734	611.15
415.943	627.53
416.151	645.96
416.359	566.09
416.567	682.83
416.776	727.88
416.984	664.4
417.192	666.44
417.4	768.84
417.608	697.16
417.817	754.51
418.025	803.66
418.233	957.25
418.441	840.52
418.649	865.1
418.857	863.05
419.065	944.97
419.273	977.73
419.481	1006.41
419.689	1045.32
419.897	1151.81
420.105	1147.72
420.313	1147.72
420.521	1139.52
420.729	1278.79
420.937	1317.7
421.145	1252.16
421.353	1340.22
421.561	1444.67
421.769	1461.06
421.977	1585.98
422.185	1551.17
422.393	1428.29
422.601	1688.38
422.809	1760.06
423.017	1784.63
423.224	1848.12
423.432	1897.27
423.64	1835.83
423.848	1985.34
424.056	1985.34
424.263	2091.83
424.471	2075.45
424.679	2298.67
424.887	2360.11
425.094	2407.22
425.302	2460.46
425.51	2564.91
425.718	2659.12
425.925	2661.16
426.133	2612.01
426.341	2925.35
426.548	2964.26
426.756	3107.62
426.964	2972.46
427.171	3269.41
427.379	3183.4
427.586	3216.16
427.794	3304.23
428.001	3455.78
428.209	3650.33
428.417	3623.71
428.624	3851.03
428.832	3871.51
429.039	3851.03
429.247	3922.71
429.454	4219.67
429.662	4606.74
429.869	4274.96
430.076	4545.3
430.284	4352.79
430.491	4412.18
430.699	4807.44
430.906	4721.42
431.114	4942.6
431.321	5131.02
431.528	5286.66
431.736	5554.94
431.943	5677.82
432.15	5712.64
432.358	5655.3
432.565	5933.82
432.772	6066.94
432.979	6210.29
433.187	6384.37
433.394	6492.91
433.601	6744.81
433.808	6669.04
434.016	6802.16
434.223	6974.19
434.43	7604.96
434.637	7342.82
434.844	7867.1
435.052	8024.79
435.259	7889.63
435.466	8028.89
435.673	7848.67
435.88	8327.89
436.087	8645.33
436.294	8708.82
436.501	8520.4
436.708	8868.56
436.915	9110.22
437.122	9695.94
437.329	9380.55
437.537	9724.61
437.743	9886.4
437.95	9822.91
438.157	10109.63
438.364	10730.16
438.571	10797.74
438.778	10762.93
438.985	11829.92
439.192	11231.91
439.399	11596.45
439.606	11545.25
439.813	12290.71
440.02	12905.1
440.227	12593.81
440.433	12268.19
440.64	12872.34
440.847	12858
441.054	13245.07
441.261	13988.48
441.467	13828.74
441.674	14021.25
441.881	14580.34
442.088	14613.11
442.294	14596.73
442.501	15030.9
442.708	14987.89
442.914	15876.71
443.121	16253.53
443.328	15878.76
443.534	17062.48
443.741	16867.92
443.948	16274.01
444.154	17637.96
444.361	17439.31
444.568	17787.46
444.774	17668.68
444.981	17783.37
445.187	18545.21
445.394	19130.93
445.6	18926.13
445.807	20570.65
446.013	19831.33
446.22	20009.51
446.426	21142.03
446.633	21107.22
446.839	21772.81
447.046	20908.57
447.252	22213.12
447.459	22317.57
447.665	21916.17
447.871	22868.47
448.078	24158.69
448.284	22821.37
448.491	23511.53
448.697	24332.77
448.903	24930.78
449.11	24697.31
449.316	24429.02
449.522	24861.15
449.728	25975.24
449.935	25979.34
450.141	25872.84
450.347	26216.9
450.553	25891.27
450.76	25954.76
450.966	27011.51
451.172	26503.62
451.378	27187.64
451.584	26628.54
451.791	27460.02
451.997	27249.08
452.203	28107.18
452.409	27666.86
452.615	27711.92
452.821	26597.82
453.027	26276.29
453.233	27572.66
453.44	26556.86
453.646	27017.66
453.852	27339.19
454.058	27263.41
454.264	26655.17
454.47	27038.14
454.676	26706.37
454.882	27746.73
455.088	25014.74
455.294	25450.96
455.5	25825.74
455.705	26247.62
455.911	25047.51
456.117	24408.54
456.323	24535.52
456.529	23175.67
456.735	24154.6
456.941	23357.94
457.147	23339.51
457.352	22602.24
457.558	21989.89
457.764	21967.37
457.97	21637.64
458.176	21127.7
458.381	21117.46
458.587	20105.76
458.793	20183.59
458.999	19124.79
459.204	20820.5
459.41	20048.42
459.616	18549.31
459.821	18715.19
460.027	18430.52
460.233	18270.78
460.438	17449.55
460.644	17461.83
460.85	16542.3
461.055	16530.01
461.261	16417.37
461.466	15415.91
461.672	14715.51
461.878	15686.25
462.083	14647.93
462.289	14666.36
462.494	14320.25
462.7	13783.68
462.905	13206.16
463.111	13650.57
463.316	13867.65
463.522	13646.47
463.727	13582.98
463.932	13488.78
464.138	13400.71
464.343	13601.41
464.549	13224.59
464.754	13466.25
464.959	13290.12
465.165	13087.37
465.37	12685.97
465.575	12403.35
465.781	12944.02
465.986	12903.06
466.191	12569.24
466.397	12432.02
466.602	11735.71
466.807	12225.18
467.012	12092.06
467.218	11874.98
467.423	11973.28
467.628	12010.14
467.833	12255.9
468.038	12028.57
468.244	11864.74
468.449	12001.95
468.654	11690.66
468.859	11639.46
469.064	11430.57
469.269	11035.31
469.474	11193
469.679	11467.43
469.885	11217.58
470.09	11129.52
470.295	11156.14
470.5	10609.33
470.705	10977.97
470.91	10783.41
471.115	10820.27
471.32	10635.96
471.525	10740.4
471.73	10326.71
471.935	10488.5
472.139	9892.54
472.344	10334.9
472.549	10164.92
472.754	10080.96
472.959	9665.22
473.164	9306.82
473.369	9323.21
473.574	9749.18
473.778	9732.8
473.983	9472.71
474.188	9462.47
474.393	9079.5
474.598	9290.44
474.802	9097.93
475.007	9077.45
475.212	9042.64
475.417	8698.58
475.621	8532.69
475.826	8749.78
476.031	8383.19
476.235	8309.46
476.44	8553.17
476.645	8579.79
476.849	8440.53
477.054	8055.51
477.259	8047.32
477.463	8293.08
477.668	7944.92
477.872	8016.6
478.077	7733.98
478.282	7776.99
478.486	7740.13
478.691	7723.74
478.895	7500.51
479.1	7410.4
479.304	7432.93
479.509	7181.03
479.713	7373.54
479.918	7283.43
480.122	7029.48
480.326	7265
480.531	7289.57
480.735	7070.44
480.94	7291.62
481.144	7308.01
481.348	7037.67
481.553	7039.72
481.757	7011.05
481.961	7187.18
482.166	7201.51
482.37	7043.82
482.574	7039.72
482.778	6902.51
482.983	6984.43
483.187	6859.5
483.391	7027.43
483.595	6890.22
483.8	6740.72
484.004	6994.67
484.208	7062.25
484.412	6912.75
484.616	7029.48
484.821	6839.02
485.025	6769.39
485.229	6824.69
485.433	7031.53
485.637	6916.84
485.841	7041.77
486.045	6949.61
486.249	6943.47
486.453	6847.21
486.657	7000.81
486.861	6996.71
487.065	6783.73
487.269	6650.61
487.473	6773.49
487.677	6853.36
487.881	6910.7
488.085	6845.16
488.289	6966
488.493	6931.18
488.697	6902.51
488.901	6918.89
489.105	7031.53
489.309	6984.43
489.512	7064.3
489.716	7025.39
489.92	6931.18
490.124	6851.31
490.328	7029.48
490.531	6961.9
490.735	6982.38
490.939	7037.67
491.143	7002.86
491.346	6859.5
491.55	7332.58
491.754	7109.35
491.958	7178.98
492.161	7138.02
492.365	7334.63
492.569	7287.53
492.772	7346.92
492.976	7297.77
493.18	7322.34
493.383	7291.62
493.587	7402.21
493.79	7564
493.994	7488.23
494.197	7578.34
494.401	7566.05
494.605	7631.58
494.808	7791.33
495.012	7621.35
495.215	7987.93
495.419	7879.39
495.622	7764.7
495.825	8026.84
496.029	7961.31
496.232	8235.74
496.436	7946.97
496.639	8272.6
496.843	8278.74
497.046	8432.34
497.249	8557.27
497.453	8645.33
497.656	8561.36
497.859	8671.95
498.063	8833.74
498.266	9042.64
498.469	8934.09
498.673	8985.29
498.876	9167.56
499.079	9138.89
499.282	9202.38
499.485	9534.15
499.689	9579.2
499.892	9708.23
500.095	9485
500.298	9810.62
500.501	9622.21
500.705	10078.91
500.908	10222.27
501.111	10295.99
501.314	10451.64
501.517	10500.79
501.72	10570.42
501.923	10443.45
502.126	11004.59
502.329	11092.65
502.532	10920.62
502.735	11068.08
502.938	11221.67
503.141	11412.14
503.344	11475.62
503.547	11428.52
503.75	11592.36
503.953	11905.7
504.156	12128.92
504.359	11981.47
504.562	12081.82
504.765	12569.24
504.968	12509.85
505.17	12792.47
505.373	12718.74
505.576	13255.31
505.779	13064.85
505.982	13265.55
506.185	13267.59
506.387	13525.64
506.59	13687.43
506.793	13970.05
506.996	14002.82
507.198	14113.41
507.401	14285.44
507.604	14502.52
507.807	14787.19
508.009	14738.04
508.212	15030.9
508.415	15032.94
508.617	15151.73
508.82	15477.35
509.022	15012.46
509.225	15633
509.428	15854.18
509.63	16114.27
509.833	16040.54
510.035	16413.27
510.238	16446.04
510.44	16478.81
510.643	16904.79
510.845	17238.61
511.048	16857.68
511.25	17177.17
511.453	17562.19
511.655	18033.22
511.858	17783.37
512.06	18123.33
512.262	18391.61
512.465	18350.65
512.667	18195.01
512.87	18694.71
513.072	18571.83
513.274	19132.98
513.477	19309.1
513.679	19190.32
513.881	19718.7
514.084	19825.19
514.286	20267.55
514.488	20224.54
514.69	20709.91
514.893	20519.45
515.095	20726.3
515.297	20908.57
515.499	21047.83
515.701	21365.26
515.904	21729.8
516.106	21621.26
516.308	21967.37
516.51	22245.89
516.712	22092.29
516.914	22405.63
517.116	22909.43
517.318	22731.26
517.52	23128.56
517.722	23300.59
517.925	23738.86
518.127	23820.78
518.329	24070.63
518.531	23925.22
518.733	24521.18
518.935	24756.7
519.136	24838.62
519.338	25266.64
519.54	25160.15
519.742	25262.55
519.944	25573.84
520.146	25760.2
520.348	25917.9
520.55	26173.89
520.752	26165.7
520.954	26876.35
521.155	26765.76
521.357	27134.39
521.559	27460.02
521.761	27728.3
521.963	27511.22
522.164	27902.38
522.366	28180.9
522.568	28350.88
522.77	28600.74
522.971	28803.49
523.173	28594.59
523.375	28967.32
523.576	29303.19
523.778	28934.56
523.98	29563.28
524.181	29809.04
524.383	29583.76
524.584	30116.23
524.786	30273.93
524.988	30083.47
525.189	30341.51
525.391	30372.23
525.592	30624.13
525.794	31027.58
525.995	31056.25
526.197	30960
526.398	31240.57
526.6	31379.83
526.801	31551.86
527.003	31967.6
527.204	31725.94
527.406	32088.43
527.607	31641.97
527.808	32282.98
528.01	31484.28
528.211	32145.77
528.412	32721.25
528.614	32358.76
528.815	32659.81
529.016	33026.4
529.218	32348.52
529.419	32672.1
529.62	32680.29
529.822	32704.87
530.023	32696.67
530.224	33100.12
530.425	32876.9
530.626	32665.95
530.828	32926.05
531.029	33464.66
531.23	33098.08
531.431	33136.99
531.632	33141.08
531.833	33306.97
532.035	33392.98
532.236	33223
532.437	33806.67
532.638	33456.47
532.839	33079.64
533.04	33540.44
533.241	32938.33
533.442	33853.78
533.643	33382.74
533.844	33358.17
534.045	33587.54
534.246	33288.54
534.447	33368.41
534.648	33499.48
534.849	33816.91
535.05	33409.37
535.251	33827.15
535.451	33216.86
535.652	33841.49
535.853	33648.98
536.054	33417.56
536.255	33800.53
536.456	33440.09
536.657	33818.96
536.857	33446.23
537.058	33407.32
537.259	33374.55
537.46	33691.99
537.66	33460.57
537.861	33251.67
538.062	33739.09
538.263	33548.63
538.463	33380.7
538.664	33284.44
538.865	33464.66
539.065	33485.14
539.266	33470.81
539.466	33927.5
539.667	32928.09
539.868	33452.37
540.068	33202.52
540.269	33284.44
540.469	33679.7
540.67	33096.03
540.87	33397.08
541.071	33069.4
541.271	33505.62
541.472	33444.18
541.672	33139.04
541.873	32944.48
542.073	32801.12
542.274	33186.14
542.474	33050.97
542.675	33010.01
542.875	33184.09
543.075	33143.13
543.276	33014.11
543.476	33309.02
543.676	32960.86
543.877	33345.88
544.077	33229.15
544.277	32964.96
544.478	33159.52
544.678	33360.22
544.878	33032.54
545.078	33290.59
545.279	33030.49
545.479	32905.57
545.679	32645.48
545.879	33517.91
546.079	33257.82
546.28	32741.73
546.48	32756.07
546.68	32780.64
546.88	33319.26
547.08	32964.96
547.28	32985.44
547.48	33139.04
547.68	32952.67
547.88	32749.92
548.081	33157.47
548.281	32643.43
548.481	32706.91
548.681	32909.66
548.881	32924
549.081	33038.69
549.28	32696.67
549.48	33194.33
549.68	32823.65
549.88	33243.48
550.08	32987.49
550.28	33063.26
550.48	32625
550.68	33102.17
550.88	33057.12
551.08	32969.05
551.279	32842.08
551.479	32997.73
551.679	32567.65
551.879	32880.99
552.079	32774.5
552.278	32905.57
552.478	32778.59
552.678	32835.94
552.878	32975.2
553.077	33016.16
553.277	32698.72
553.477	33118.56
553.676	32412.01
553.876	32885.09
554.076	32565.6
554.275	32639.33
554.475	32405.86
554.674	32794.98
554.874	32825.7
555.074	32682.34
555.273	32840.03
555.473	32719.2
555.672	32631.14
555.872	32463.21
556.071	32682.34
556.271	32727.39
556.47	32469.35
556.67	32096.62
556.869	32668
557.068	32670.05
557.268	32110.96
557.467	32434.53
557.667	32022.89
557.866	32469.35
558.065	32479.59
558.265	32162.15
558.464	32295.27
558.663	32455.01
558.863	32033.13
559.062	32684.39
559.261	31824.24
559.461	32358.76
559.66	31705.46
559.859	31854.96
560.058	31693.17
560.258	31988.08
560.457	31748.46
560.656	32104.81
560.855	31826.29
561.054	31977.84
561.253	31547.76
561.453	31762.8
561.652	31797.62
561.851	31541.62
562.05	31549.81
562.249	31267.19
562.448	31752.56
562.647	31250.81
562.846	31388.02
563.045	31447.41
563.244	30908.8
563.443	31441.27
563.642	31082.88
563.841	31353.21
564.04	30740.86
564.239	31357.3
564.438	30697.86
564.637	31119.74
564.836	30929.28
565.035	30534.02
565.234	30951.81
565.432	30433.67
565.631	30462.34
565.83	30302.6
566.029	30546.31
566.228	30474.63
566.427	30206.34
566.625	30153.1
566.824	29927.82
567.023	30120.33
567.222	29616.53
567.42	30079.37
567.619	29864.33
567.818	29944.2
568.016	29813.13
568.215	29841.81
568.414	29696.4
568.612	29680.02
568.811	29444.5
569.01	29188.5
569.208	28998.04
569.407	29323.67
569.605	29127.06
569.804	29278.61
570.002	28912.03
570.201	29522.32
570.4	28750.24
570.598	28832.16
570.797	28805.53
570.995	28705.18
571.193	28385.7
571.392	28567.97
571.59	28199.34
571.789	28533.15
571.987	28416.42
572.186	28656.03
572.384	28137.9
572.582	28479.91
572.781	28246.44
572.979	27707.82
573.177	27666.86
573.376	28291.49
573.574	27812.27
573.772	27888.04
573.971	27623.86
574.169	27230.65
574.367	27208.12
574.565	27308.47
574.763	27404.72
574.962	27402.68
575.16	26841.53
575.358	27066.81
575.556	26765.76
575.754	27118.01
575.952	26567.1
576.151	27075
576.349	26558.91
576.547	26706.37
576.745	26552.77
576.943	26415.55
577.141	26249.67
577.339	26247.62
577.537	26339.78
577.735	26313.16
577.933	25864.65
578.131	25885.13
578.329	26241.48
578.527	25807.31
578.725	25735.63
578.923	25655.76
579.121	25881.03
579.319	25731.53
579.516	25629.13
579.714	25432.53
579.912	25381.33
580.11	25477.58
580.308	25266.64
580.506	25002.46
580.704	24738.27
580.901	25086.42
581.099	25131.48
581.297	24682.97
581.495	24961.5
581.692	24971.74
581.89	24551.9
582.088	24936.92
582.285	24533.47
582.483	24535.52
582.681	24627.68
582.878	24236.52
583.076	24099.3
583.274	24197.6
583.471	24005.1
583.669	23927.27
583.866	23949.8
584.064	24101.35
584.262	23880.17
584.459	24041.96
584.657	23622.12
584.854	23736.81
585.052	23478.77
585.249	23693.8
585.447	23370.22
585.644	23220.72
585.841	23120.37
586.039	23446
586.236	22960.63
586.434	22815.23
586.631	22979.06
586.828	22958.58
587.026	22794.75
587.223	22893.05
587.42	22718.97
587.618	22888.95
587.815	22508.03
588.012	22477.31
588.21	22354.43
588.407	22585.85
588.604	22458.88
588.801	22370.82
588.999	22204.93
589.196	22213.12
589.393	22247.94
589.59	21985.8
589.787	21824.01
589.984	21750.28
590.182	21416.46
590.379	21602.83
590.576	21647.88
590.773	21584.4
590.97	21510.67
591.167	21787.14
591.364	21506.57
591.561	21402.13
591.758	21420.56
591.955	21279.25
592.152	21344.78
592.349	20967.96
592.546	21092.88
592.743	21101.08
592.94	20894.23
593.137	21015.06
593.334	21027.35
593.531	20439.58
593.727	20914.71
593.924	20734.49
594.121	20480.54
594.318	20896.28
594.515	20572.7
594.712	20517.4
594.908	20367.9
595.105	20322.85
595.302	20236.83
595.499	20447.77
595.696	20556.32
595.892	19923.49
596.089	20388.38
596.286	20056.61
596.482	19567.15
596.679	20066.85
596.876	19931.69
597.072	19583.53
597.269	19556.91
597.466	19628.59
597.662	19464.75
597.859	19556.91
598.055	19540.52
598.252	19286.58
598.448	19399.21
598.645	19374.64
598.841	19130.93
599.038	19309.1
599.234	19378.73
599.431	18940.47
599.627	18614.84
599.824	18852.41
600.02	18926.13
600.217	19188.27
600.413	18829.88
600.609	18659.9
600.806	18475.58
601.002	18776.63
601.198	18227.78
601.395	18278.97
601.591	18555.45
601.787	18477.63
601.984	18209.34
602.18	18448.96
602.376	18254.4
602.572	18199.1
602.769	18074.18
602.965	17875.52
603.161	18111.04
603.357	17906.24
603.553	17871.43
603.75	17963.59
603.946	17773.13
604.142	17904.2
604.338	17605.19
604.534	17943.11
604.73	17599.05
604.926	17404.49
605.122	17463.88
605.318	17357.39
605.514	17218.13
605.71	17338.96
605.906	17244.75
606.102	17105.49
606.298	17271.37
606.494	16859.73
606.69	17234.51
606.886	16857.68
607.082	16603.74
607.278	17080.91
607.474	16865.88
607.67	16892.5
607.866	16687.7
608.062	16958.03
608.257	16829.01
608.453	16720.47
608.649	16831.06
608.845	16607.83
609.041	16534.11
609.236	16659.03
609.432	16386.65
609.628	16386.65
609.824	16261.73
610.019	16200.29
610.215	16525.91
610.411	16271.97
610.606	16048.74
610.802	16018.02
610.998	16403.04
611.193	16001.63
611.389	16005.73
611.584	15964.77
611.78	15903.33
611.976	16265.82
612.171	16147.04
612.367	15823.46
612.562	15968.87
612.758	15540.84
612.953	15680.1
613.149	15893.09
613.344	15544.94
613.539	15899.23
613.735	15786.6
613.93	15700.58
614.126	15260.27
614.321	15759.97
614.517	15366.76
614.712	15503.98
614.907	15377
615.103	15479.4
615.298	15346.28
615.493	15569.51
615.688	15075.95
615.884	15424.11
616.079	15334
616.274	15237.74
616.47	15121.01
616.665	15235.69
616.86	15075.95
617.055	15024.75
617.25	15051.38
617.445	15125.1
617.641	14856.82
617.836	15084.14
618.031	14561.91
618.226	14848.63
618.421	14520.95
618.616	14707.32
618.811	14684.79
619.006	14772.85
619.201	14420.6
619.396	14647.93
619.591	14312.06
619.786	14361.21
619.981	13924.99
620.176	14178.94
620.371	14054.01
620.566	14195.32
620.761	14013.06
620.956	14047.87
621.151	13861.51
621.346	13963.9
621.541	13603.46
621.735	13748.87
621.93	13605.51
622.125	13546.12
622.32	13406.86
622.515	13427.34
622.709	13218.44
622.904	13494.92
623.099	13015.69
623.294	13281.93
623.488	12978.83
623.683	12960.4
623.878	12960.4
624.072	12984.98
624.267	12917.39
624.462	12622.48
624.656	12876.43
624.851	12638.87
625.046	12407.45
625.24	12354.2
625.435	12380.82
625.629	12370.58
625.824	12085.92
626.018	12030.62
626.213	12014.24
626.407	12085.92
626.602	11979.42
626.796	11868.83
626.991	11813.54
627.185	11836.06
627.38	11465.38
627.574	11612.84
627.768	11463.33
627.963	11162.28
628.157	11471.53
628.352	11481.77
628.546	11229.87
628.74	11377.32
628.935	11178.67
629.129	11080.36
629.323	10977.97
629.517	11035.31
629.712	10928.81
629.906	10926.77
630.1	10785.46
630.294	10861.23
630.489	10498.74
630.683	10572.47
630.877	10367.67
631.071	10572.47
631.265	10558.13
631.459	10588.85
631.653	10504.89
631.848	10545.84
632.042	10408.63
632.236	10355.38
632.43	10181.31
632.624	10074.81
632.818	9941.69
633.012	9913.02
633.206	10031.8
633.4	9831.1
633.594	9933.5
633.788	9923.26
633.982	9904.83
634.176	9683.65
634.369	9720.51
634.563	9685.7
634.757	9462.47
634.951	9538.24
635.145	9501.38
635.339	9194.19
635.533	9329.35
635.726	9349.83
635.92	9253.58
636.114	9362.12
636.308	9208.52
636.501	9157.32
636.695	8915.66
636.889	8964.81
637.083	8932.05
637.276	8907.47
637.47	8786.64
637.664	8807.12
637.857	8823.5
638.051	8542.93
638.244	8637.14
638.438	8544.98
638.632	8614.61
638.825	8467.16
639.019	8526.55
639.212	8555.22
639.406	8194.78
639.599	8354.52
639.793	8370.9
639.986	8219.35
640.18	7914.2
640.373	8110.81
640.567	8008.41
640.76	8053.47
640.954	7938.78
641.147	7873.25
641.34	7807.71
641.534	7840.48
641.727	7842.53
641.92	7623.39
642.114	7594.72
642.307	7736.03
642.5	7676.64
642.694	7308.01
642.887	7207.66
643.08	7387.88
643.273	7351.01
643.467	7265
643.66	7142.12
643.853	7152.36
644.046	7105.26
644.239	7324.39
644.432	7166.7
644.626	7064.3
644.819	7052.01
645.012	7080.68
645.205	7076.59
645.398	6937.32
645.591	6941.42
645.784	6861.55
645.977	6726.38
646.17	6615.79
646.363	6705.9
646.556	6570.74
646.749	6628.08
646.942	6798.06
647.135	6673.14
647.328	6359.8
647.521	6578.93
647.714	6146.81
647.907	6474.48
648.099	6241.01
648.292	6372.08
648.485	6312.69
648.678	6206.2
648.871	6124.28
649.064	6130.42
649.256	6310.65
649.449	6161.14
649.642	6136.57
649.835	6077.18
650.027	6034.17
650.22	5982.97
650.413	5886.72
650.605	5931.77
650.798	5942.01
650.991	5907.2
651.183	5745.41
651.376	5786.37
651.568	5856
651.761	5626.62
651.954	5667.58
652.146	5706.49
652.339	5645.06
652.531	5614.34
652.724	5489.41
652.916	5507.84
653.109	5423.87
653.301	5604.1
653.494	5397.25
653.686	5251.85
653.879	5425.92
654.071	5384.96
654.263	5360.39
654.456	5214.98
654.648	5305.09
654.84	5180.17
655.033	5221.13
655.225	5182.21
655.417	5057.29
655.61	5100.3
655.802	5104.39
655.994	5124.87
656.186	5106.44
656.379	5249.8
656.571	5004.04
656.763	4883.21
656.955	4948.75
657.148	5090.06
657.34	4911.88
657.532	4877.07
657.724	4700.94
657.916	4915.98
658.108	4762.38
658.3	4821.77
658.492	4854.54
658.684	4506.38
658.876	4649.74
659.068	4621.07
659.26	4670.22
659.452	4670.22
659.644	4596.5
659.836	4586.26
660.028	4569.87
660.22	4389.65
660.412	4547.34
660.604	4477.71
660.796	4395.79
660.988	4244.24
661.18	4373.27
661.372	4313.88
661.563	4406.03
661.755	4291.35
661.947	4238.1
662.139	4328.21
662.331	4246.29
662.522	4313.88
662.714	4234
662.906	4111.13
663.097	4172.57
663.289	4287.25
663.481	4113.17
663.673	4172.57
663.864	3982.1
664.056	4121.37
664.247	4084.5
664.439	4010.78
664.631	3971.86
664.822	4145.94
665.014	4023.06
665.205	3830.55
665.397	3859.23
665.588	3885.85
665.78	3750.68
665.971	3971.86
666.163	3963.67
666.354	3848.99
666.546	3820.32
666.737	3816.22
666.929	3674.91
667.12	3808.03
667.311	3787.55
667.503	3711.77
667.694	3791.64
667.885	3599.13
668.077	3658.53
668.268	3709.72
668.459	3687.2
668.651	3691.29
668.842	3687.2
669.033	3627.81
669.224	3574.56
669.416	3697.44
669.607	3621.66
669.798	3590.94
669.989	3566.37
670.18	3480.35
670.371	3480.35
670.563	3498.78
670.754	3568.41
670.945	3349.28
671.136	3560.22
671.327	3490.59
671.518	3425.06
671.709	3535.65
671.9	3343.14
672.091	3404.58
672.282	3382.05
672.473	3355.43
672.664	3367.71
672.855	3343.14
673.046	3361.57
673.237	3320.61
673.428	3396.39
673.619	3347.23
673.809	3398.43
674	3377.95
674.191	3371.81
674.382	3242.79
674.573	3388.19
674.764	3175.2
674.954	3316.51
675.145	3248.93
675.336	3236.64
675.527	3156.77
675.717	3332.9
675.908	3187.49
676.099	3271.46
676.289	3216.16
676.48	3173.16
676.671	3214.12
676.861	3238.69
677.052	3171.11
677.243	3062.57
677.433	3207.97
677.624	3150.63
677.814	3111.72
678.005	3113.77
678.195	3132.2
678.386	3162.92
678.576	3142.44
678.767	3070.76
678.957	3093.29
679.148	3232.55
679.338	3119.91
679.529	3072.81
679.719	3242.79
679.909	3230.5
680.1	3140.39
680.29	3042.09
680.481	3124.01
680.671	3136.29
680.861	3091.24
681.052	3031.85
681.242	2960.17
681.432	3187.49
681.622	3111.72
681.813	3081
682.003	3173.16
682.193	3099.43
682.383	3121.96
682.573	3099.43
682.764	3099.43
682.954	3035.94
683.144	3144.49
683.334	3050.28
683.524	3062.57
683.714	3001.13
683.904	2974.5
684.094	3005.22
684.284	3009.32
684.474	2931.5
684.664	3115.81
684.854	2892.59
685.044	3021.61
685.234	2974.5
685.424	2999.08
685.614	3158.82
685.804	3007.27
685.994	2939.69
686.184	3150.63
686.374	2931.5
686.564	3074.85
686.753	2974.5
686.943	2929.45
687.133	2890.54
687.323	2929.45
687.513	2804.52
687.702	2908.97
687.892	2876.2
688.082	2962.22
688.272	2818.86
688.461	2898.73
688.651	2896.68
688.841	2992.94
689.03	2816.81
689.22	2769.71
689.41	2933.54
689.599	2708.27
689.789	2863.91
689.979	2763.56
690.168	2818.86
690.358	2861.87
690.547	2732.84
690.737	2833.19
690.926	2700.08
691.116	2755.37
691.305	2745.13
691.495	2853.67
691.684	2827.05
691.874	2714.41
692.063	2743.08
692.252	2761.52
692.442	2804.52
692.631	2673.45
692.82	2808.62
693.01	2569.01
693.199	2720.56
693.388	2577.2
693.578	2655.02
693.767	2714.41
693.956	2683.69
694.146	2599.73
694.335	2679.6
694.524	2726.7
694.713	2714.41
694.902	2726.7
695.092	2614.06
695.281	2566.96
695.47	2673.45
695.659	2599.73
695.848	2675.5
696.037	2683.69
696.226	2646.83
696.415	2726.7
696.604	2532.14
696.793	2683.69
696.982	2577.2
697.171	2655.02
697.36	2618.16
697.549	2636.59
697.738	2552.62
697.927	2569.01
698.116	2738.99
698.305	2591.53
698.494	2704.17
698.683	2536.24
698.872	2575.15
699.061	2491.18
699.25	2593.58
699.438	2468.66
699.627	2534.19
699.816	2583.34
700.005	2474.8
700.193	2573.1
700.382	2716.46
700.571	2562.86
700.76	2564.91
700.948	2526
701.137	2597.68
701.326	2624.3
701.514	2558.77
701.703	2571.05
701.892	2589.49
702.08	2657.07
702.269	2667.31
702.457	2521.9
702.646	2493.23
702.834	2564.91
703.023	2552.62
703.212	2542.38
703.4	2499.38
703.589	2509.62
703.777	2462.51
703.965	2415.41
704.154	2499.38
704.342	2523.95
704.531	2493.23
704.719	2495.28
704.907	2448.18
705.096	2540.33
705.284	2454.32
705.472	2499.38
705.661	2444.08
705.849	2566.96
706.037	2464.56
706.226	2583.34
706.414	2325.3
706.602	2452.27
706.79	2472.75
706.979	2499.38
707.167	2411.31
707.355	2460.46
707.543	2519.85
707.731	2431.79
707.919	2384.69
708.107	2304.82
708.296	2425.65
708.484	2392.88
708.672	2390.83
708.86	2396.98
709.048	2372.4
709.236	2214.71
709.424	2425.65
709.612	2272.05
709.8	2296.63
709.988	2333.49
710.176	2276.15
710.364	2349.87
710.551	2327.35
710.739	2265.91
710.927	2333.49
711.115	2302.77
711.303	2290.48
711.491	2335.54
711.679	2364.21
711.866	2296.63
712.054	2450.22
712.242	2241.33
712.43	2249.52
712.617	2263.86
712.805	2298.67
712.993	2214.71
713.181	2235.19
713.368	2239.28
713.556	2227
713.744	2304.82
713.931	2192.18
714.119	2362.16
714.306	2370.35
714.494	2235.19
714.682	2233.14
714.869	2259.76
715.057	2249.52
715.244	2220.85
715.432	2272.05
715.619	2315.06
715.807	2239.28
715.994	2276.15
716.182	2143.03
716.369	2186.04
716.556	2257.71
716.744	2231.09
716.931	2243.38
717.119	2175.8
717.306	2214.71
717.493	2171.7
717.681	2218.8
717.868	2218.8
718.055	2186.04
718.242	2048.82
718.43	2204.47
718.617	2100.02
718.804	2140.98
718.991	2038.58
719.179	2063.16
719.366	2181.94
719.553	2173.75
719.74	2040.63
719.927	2175.8
720.114	1934.14
720.301	2089.78
720.488	2122.55
720.676	2087.73
720.863	2116.41
721.05	2085.69
721.237	2102.07
721.424	1983.29
721.611	2108.21
721.798	2087.73
721.985	2044.73
722.172	2040.63
722.358	2038.58
722.545	2059.06
722.732	2052.92
722.919	2108.21
723.106	1932.09
723.293	2024.25
723.48	2018.1
723.667	1995.57
723.853	1973.05
724.04	2059.06
724.227	2091.83
724.414	1901.37
724.6	1977.14
724.787	2087.73
724.974	2016.05
725.161	2020.15
725.347	1901.37
725.534	2005.81
725.72	1897.27
725.907	1956.66
726.094	2020.15
726.28	1911.61
726.467	1923.9
726.653	1856.31
726.84	1952.57
727.027	1975.1
727.213	1903.42
727.4	1950.52
727.586	1977.14
727.773	1856.31
727.959	1833.79
728.145	1903.42
728.332	1856.31
728.518	1854.27
728.705	1952.57
728.891	1887.03
729.077	1913.66
729.264	1950.52
729.45	1958.71
729.636	1915.7
729.823	1839.93
730.009	1790.78
730.195	1844.03
730.382	1839.93
730.568	1801.02
730.754	1821.5
730.94	1803.07
731.126	1831.74
731.313	1815.35
731.499	1817.4
731.685	1905.46
731.871	1768.25
732.057	1901.37
732.243	1784.63
732.429	1819.45
732.615	1792.83
732.801	1870.65
732.987	1778.49
733.173	1737.53
733.359	1870.65
733.545	1628.99
733.731	1805.11
733.917	1741.63
734.103	1772.35
734.289	1721.15
734.475	1811.26
734.661	1809.21
734.847	1772.35
735.033	1815.35
735.219	1737.53
735.404	1739.58
735.59	1784.63
735.776	1723.2
735.962	1745.72
736.148	1649.47
736.333	1667.9
736.519	1612.6
736.705	1760.06
736.89	1798.97
737.076	1690.43
737.262	1655.61
737.447	1706.81
737.633	1602.36
737.819	1712.96
738.004	1585.98
738.19	1620.8
738.375	1739.58
738.561	1700.67
738.747	1518.4
738.932	1678.14
739.118	1643.32
739.303	1708.86
739.489	1680.19
739.674	1608.51
739.859	1723.2
740.045	1631.04
740.23	1631.04
740.416	1522.49
740.601	1571.65
740.786	1614.65
740.972	1608.51
741.157	1512.25
741.342	1602.36
741.528	1459.01
741.713	1465.15
741.898	1485.63
742.084	1534.78
742.269	1499.97
742.454	1553.21
742.639	1598.27
742.824	1516.35
743.01	1493.82
743.195	1514.3
743.38	1463.1
743.565	1426.24
743.75	1585.98
743.935	1520.45
744.12	1538.88
744.305	1590.08
744.49	1440.58
744.675	1477.44
744.86	1403.71
745.045	1479.49
745.23	1416
745.415	1405.76
745.6	1381.18
745.785	1409.86
745.97	1375.04
746.155	1368.9
746.34	1313.6
746.525	1372.99
746.71	1358.66
746.895	1446.72
747.079	1375.04
747.264	1342.27
747.449	1323.84
747.634	1215.3
747.819	1389.38
748.003	1346.37
748.188	1317.7
748.373	1311.55
748.557	1254.21
748.742	1217.35
748.927	1264.45
749.111	1237.83
749.296	1209.15
749.481	1215.3
749.665	1213.25
749.85	1143.62
750.034	1303.36
750.219	1162.05
750.404	1203.01
750.588	1223.49
750.773	1176.39
750.957	1164.1
751.141	1182.53
751.326	1125.19
751.51	1205.06
751.695	1235.78
751.879	1076.04
752.064	1114.95
752.248	1098.56
752.432	1168.2
752.617	1088.32
752.801	1090.37
752.985	1037.13
753.17	1065.8
753.354	1006.41
753.538	1071.94
753.722	975.69
753.907	981.83
754.091	1082.18
754.275	934.73
754.459	1041.22
754.643	1010.5
754.828	1073.99
755.012	928.58
755.196	1008.45
755.38	985.93
755.564	1069.89
755.748	893.77
755.932	916.3
756.116	901.96
756.3	910.15
756.484	887.62
756.668	846.66
756.852	904.01
757.036	944.97
757.22	947.01
757.404	828.23
757.588	914.25
757.772	916.3
757.956	881.48
758.14	955.21
758.323	783.18
758.507	893.77
758.691	899.91
758.875	729.93
759.059	869.19
759.242	861
759.426	752.46
759.61	779.08
759.794	797.51
759.977	879.43
760.161	826.18
760.345	842.57
760.528	820.04
760.712	805.71
760.895	854.86
761.079	725.83
761.263	799.56
761.446	768.84
761.63	729.93
761.813	760.65
761.997	885.58
762.18	797.51
762.364	697.16
762.547	688.97
762.731	787.27
762.914	723.79
763.098	721.74
763.281	705.35
763.464	750.41
763.648	693.07
763.831	744.27
764.015	721.74
764.198	703.31
764.381	772.94
764.564	691.02
764.748	639.82
764.931	672.59
765.114	750.41
765.297	723.79
765.481	713.55
765.664	580.43
765.847	652.11
766.03	639.82
766.213	637.77
766.397	699.21
766.58	717.64
766.763	703.31
766.946	711.5
767.129	664.4
767.312	750.41
767.495	723.79
767.678	654.16
767.861	596.81
768.044	699.21
768.227	717.64
768.41	627.53
768.593	625.48
768.776	578.38
768.959	615.24
769.142	623.44
769.324	635.72
769.507	650.06
769.69	572.24
769.873	602.96
770.056	615.24
770.239	639.82
770.421	609.1
770.604	674.64
770.787	648.01
770.97	521.04
771.152	588.62
771.335	602.96
771.518	533.33
771.7	611.15
771.883	637.77
772.066	586.57
772.248	598.86
772.431	623.44
772.613	611.15
772.796	541.52
772.978	641.87
773.161	572.24
773.343	533.33
773.526	574.28
773.708	547.66
773.891	539.47
774.073	564.04
774.256	580.43
774.438	543.57
774.621	523.09
774.803	549.71
774.985	498.51
775.168	496.46
775.35	480.08
775.532	607.05
775.715	496.46
775.897	445.26
776.079	480.08
776.261	516.94
776.444	473.93
776.626	449.36
776.808	586.57
776.99	465.74
777.173	467.79
777.355	449.36
777.537	449.36
777.719	432.97
777.901	441.17
778.083	435.02
778.265	435.02
778.447	471.89
778.629	439.12
778.811	424.78
778.993	482.13
779.175	435.02
779.357	498.51
779.539	426.83
779.721	480.08
779.903	428.88
780.085	410.45
780.267	426.83
780.449	439.12
780.631	418.64
780.812	486.22
780.994	396.11
781.176	312.14
781.358	369.49
781.54	344.91
781.721	445.26
781.903	389.97
782.085	410.45
782.267	412.5
782.448	342.86
782.63	392.02
782.812	349.01
782.993	418.64
783.175	316.24
783.357	334.67
783.538	324.43
783.72	293.71
783.901	291.66
784.083	332.62
784.264	338.77
784.446	273.23
784.627	248.66
784.809	396.11
784.99	314.19
785.172	320.34
785.353	328.53
785.535	355.15
785.716	324.43
785.897	306
786.079	258.9
786.26	295.76
786.441	324.43
786.623	289.62
786.804	314.19
786.985	377.68
787.167	267.09
787.348	332.62
787.529	346.96
787.71	267.09
787.891	336.72
788.073	191.31
788.254	269.14
788.435	285.52
788.616	242.51
788.797	297.81
788.978	271.19
789.159	318.29
789.34	299.86
789.522	217.94
789.703	219.99
789.884	273.23
790.065	199.51
790.246	213.84
790.427	195.41
790.607	262.99
790.788	234.32
790.969	162.64
791.15	219.99
791.331	224.08
791.512	238.42
791.693	267.09
791.874	219.99
792.054	262.99
792.235	240.47
792.416	193.36
792.597	179.03
792.778	222.03
792.958	242.51
793.139	254.8
793.32	242.51
793.5	164.69
793.681	234.32
793.862	215.89
794.042	168.79
794.223	203.6
794.404	150.36
794.584	203.6
794.765	150.36
794.945	222.03
795.126	217.94
795.306	144.21
795.487	185.17
795.667	219.99
795.848	246.61
796.028	164.69
796.209	211.79
796.389	211.79
796.57	219.99
796.75	152.4
796.93	179.03
797.111	168.79
797.291	232.27
797.471	154.45
797.652	107.35
797.832	185.17
798.012	131.92
798.192	86.87
798.373	150.36
798.553	138.07
798.733	131.92
798.913	109.4
799.093	125.78
799.274	109.4
799.454	162.64
799.634	228.18
799.814	207.7
799.994	203.6
800.174	133.97
800.354	172.88
800.534	154.45
800.714	176.98
800.894	119.64
801.074	86.87
801.254	80.72
801.434	170.83
801.614	191.31
801.794	140.12
801.974	535.37
802.154	142.16
802.334	144.21
802.514	150.36
802.693	191.31
802.873	88.92
803.053	285.52
803.233	129.88
803.413	142.16
803.592	84.82
803.772	99.16
803.952	152.4
804.131	129.88
804.311	119.64
804.491	158.55
804.67	181.07
804.85	131.92
805.03	111.44
805.209	144.21
805.389	93.01
805.568	162.64
805.748	90.96
805.928	166.74
806.107	39.76
806.287	129.88
806.466	181.07
806.646	45.91
806.825	86.87
807.004	129.88
807.184	158.55
807.363	140.12
807.543	103.25
807.722	105.3
807.901	131.92
808.081	103.25
808.26	121.68
808.439	158.55
808.619	125.78
808.798	140.12
808.977	160.59
809.156	203.6
809.336	41.81
809.515	127.83
809.694	93.01
809.873	62.29
810.052	93.01
810.231	99.16
810.411	115.54
810.59	115.54
810.769	119.64
810.948	97.11
811.127	142.16
811.306	86.87
811.485	125.78
811.664	103.25
811.843	144.21
812.022	123.73
812.201	72.53
812.38	107.35
812.559	125.78
812.737	74.58
812.916	170.83
813.095	144.21
813.274	99.16
813.453	21.33
813.632	131.92
813.811	105.3
813.989	131.92
814.168	119.64
814.347	129.88
814.526	78.68
814.704	80.72
814.883	70.48
815.062	119.64
815.24	72.53
815.419	58.2
815.598	152.4
815.776	56.15
815.955	82.77
816.133	25.43
816.312	150.36
816.49	37.72
816.669	93.01
816.847	68.44
817.026	62.29
817.204	99.16
817.383	33.62
817.561	45.91
817.74	56.15
817.918	97.11
818.097	74.58
818.275	29.52
818.453	117.59
818.632	82.77
818.81	121.68
818.988	54.1
819.167	25.43
819.345	93.01
819.523	41.81
819.701	93.01
819.879	50
820.058	19.29
820.236	86.87
820.414	64.34
820.592	39.76
820.77	82.77
820.948	95.06
821.127	-5.29
821.305	84.82
821.483	50
821.661	93.01
821.839	70.48
822.017	105.3
822.195	-42.15
822.373	64.34
822.551	19.29
822.729	54.1
822.907	70.48
823.085	86.87
823.262	107.35
823.44	54.1
823.618	74.58
823.796	64.34
823.974	54.1
824.152	74.58
824.329	4.95
824.507	72.53
824.685	56.15
824.863	29.52
825.04	99.16
825.218	43.86
825.396	25.43
825.574	119.64
825.751	86.87
825.929	109.4
826.107	15.19
826.284	9.05
826.462	121.68
826.639	82.77
826.817	-7.34
826.994	15.19
827.172	52.05
827.349	152.4
827.527	99.16
827.704	62.29
827.882	84.82
828.059	50
828.237	-31.91
828.414	107.35
828.591	-9.39
828.769	62.29
828.946	13.14
829.124	78.68
829.301	129.88
829.478	74.58
829.655	56.15
829.833	86.87
830.01	7
830.187	31.57
830.364	56.15
830.542	62.29
830.719	70.48
830.896	70.48
831.073	101.2
831.25	70.48
831.427	54.1
831.604	66.39
831.782	19.29
831.959	58.2
832.136	54.1
832.313	95.06
832.49	84.82
832.667	45.91
832.844	25.43
833.021	33.62
833.198	9.05
833.374	27.48
833.551	23.38
833.728	90.96
833.905	52.05
834.082	-38.06
834.259	45.91
834.436	68.44
834.612	27.48
834.789	52.05
834.966	4.95
835.143	29.52
835.319	17.24
835.496	35.67
835.673	52.05
835.85	33.62
836.026	43.86
836.203	74.58
836.38	-17.58
836.556	-13.48
836.733	15.19
836.909	80.72
837.086	19.29
837.262	-29.87
837.439	54.1
837.616	50
837.792	39.76
837.968	-1.19
838.145	-17.58
838.321	13.14
838.498	-1.19
838.674	74.58
838.851	-5.29
839.027	-44.2
839.203	-5.29
839.38	50
839.556	2.9
839.732	101.2
839.909	50
840.085	74.58
840.261	11.09
840.437	31.57
840.614	2.9
840.79	45.91
840.966	50
841.142	78.68
841.318	47.96
841.494	9.05
841.671	50
841.847	-7.34
842.023	-7.34
842.199	39.76
842.375	-40.11
842.551	7
842.727	2.9
842.903	97.11
843.079	-3.24
843.255	29.52
843.431	-15.53
843.607	25.43
843.783	-21.67
843.959	74.58
844.134	-13.48
844.31	62.29
844.486	-1.19
844.662	9.05
844.838	-33.96
845.013	45.91
845.189	93.01
845.365	29.52
845.541	41.81
845.716	0.85
845.892	86.87
846.068	62.29
846.244	72.53
846.419	109.4
846.595	-21.67
846.77	19.29
846.946	-15.53
847.122	17.24
847.297	-15.53
847.473	29.52
847.648	-21.67
847.824	-3.24
847.999	15.19
848.175	23.38
848.35	-36.01
848.526	41.81
848.701	47.96
848.876	62.29
849.052	60.24
849.227	25.43
849.403	41.81
849.578	15.19
849.753	43.86
849.929	-21.67
850.104	-33.96
850.279	21.33
850.454	21.33
850.63	-58.54
850.805	-9.39
850.98	33.62
851.155	-11.43
851.33	-5.29
851.505	-40.11
851.681	50
851.856	4.95
852.031	41.81
852.206	13.14
852.381	-38.06
852.556	-3.24
852.731	2.9
852.906	88.92
853.081	15.19
853.256	68.44
853.431	29.52
853.606	27.48
853.781	37.72
853.956	-33.96
854.131	47.96
854.305	-38.06
854.48	-48.3
854.655	27.48
854.83	35.67
855.005	54.1
855.18	-17.58
855.354	-58.54
855.529	64.34
855.704	13.14
855.879	41.81
856.053	-36.01
856.228	64.34
856.403	52.05
856.577	29.52
856.752	-25.77
856.926	33.62
857.101	2.9
857.276	-3.24
857.45	21.33
857.625	29.52
857.799	35.67
857.974	52.05
858.148	-27.82
858.323	45.91
858.497	11.09
858.672	39.76
858.846	-54.44
859.02	7
859.195	-23.72
859.369	-38.06
859.543	0.85
859.718	-13.48
859.892	-17.58
860.066	33.62
860.241	25.43
860.415	-29.87
860.589	0.85
860.763	88.92
860.938	-21.67
861.112	45.91
861.286	13.14
861.46	27.48
861.634	50
861.808	-13.48
861.982	-46.25
862.157	74.58
862.331	29.52
862.505	21.33
862.679	-5.29
862.853	80.72
863.027	-21.67
863.201	13.14
863.375	-42.15
863.549	-40.11
863.722	-42.15
863.896	45.91
864.07	-38.06
864.244	-7.34
864.418	-29.87
864.592	15.19
864.766	31.57
864.939	41.81
865.113	-83.11
865.287	39.76
865.461	-52.39
865.634	62.29
865.808	-33.96
865.982	-48.3
866.156	-33.96
866.329	9.05
866.503	-99.5
866.676	-3.24
866.85	-58.54
867.024	-19.63
867.197	-31.91
867.371	-3.24
867.544	-56.49
867.718	29.52
867.891	0.85
868.065	-23.72
868.238	-3.24
868.412	39.76
868.585	56.15
868.759	-5.29
868.932	15.19
869.105	27.48
869.279	-19.63
869.452	-7.34
869.625	-7.34
869.799	9.05
869.972	41.81
870.145	-27.82
870.319	-23.72
870.492	-25.77
870.665	-3.24
870.838	58.2
871.011	-74.92
871.185	33.62
871.358	-52.39
871.531	-40.11
871.704	-76.97
871.877	29.52
872.05	15.19
872.223	29.52
872.396	54.1
872.569	-15.53
872.742	39.76
872.915	-19.63
873.088	-31.91
873.261	29.52
873.434	-15.53
873.607	2.9
873.78	68.44
873.953	-25.77
874.126	-60.59
874.299	-13.48
874.471	-36.01
874.644	-23.72
874.817	52.05
874.99	50
875.163	-1.19
875.335	-54.44
875.508	27.48
875.681	15.19
875.853	7
876.026	17.24
876.199	-11.43
876.371	-7.34
876.544	39.76
876.717	23.38
876.889	-50.35
877.062	7
877.234	-7.34
877.407	2.9
877.579	13.14
877.752	-11.43
877.924	-38.06
878.097	2.9
878.269	-36.01
878.442	-15.53
878.614	50
878.786	-42.15
878.959	2.9
879.131	-52.39
879.303	-66.73
879.476	-58.54
879.648	31.57
879.82	-89.26
879.993	-21.67
880.165	13.14
880.337	-29.87
880.509	62.29
880.681	-58.54
880.854	13.14
881.026	-13.48
881.198	21.33
881.37	7
881.542	-68.78
881.714	37.72
881.886	-38.06
882.058	99.16
882.23	-62.63
882.402	76.63
882.574	-36.01
882.746	19.29
882.918	15.19
883.09	-29.87
883.262	47.96
883.434	-40.11
883.606	-36.01
883.778	47.96
883.95	-31.91
884.122	-36.01
884.293	-3.24
884.465	4.95
884.637	97.11
884.809	-60.59
884.98	80.72
885.152	-11.43
885.324	68.44
885.496	-23.72
885.667	-48.3
885.839	-68.78
886.011	43.86
886.182	33.62
886.354	7
886.525	-79.02
886.697	-76.97
886.869	-9.39
887.04	-5.29
887.212	56.15
887.383	7
887.555	-33.96
887.726	-17.58
887.897	17.24
888.069	-1.19
888.24	9.05
888.412	-48.3
888.583	17.24
888.754	-9.39
888.926	4.95
889.097	17.24
889.268	-38.06
889.44	82.77
889.611	-15.53
889.782	37.72
889.953	17.24
890.125	0.85
890.296	19.29
890.467	0.85
890.638	-7.34
890.809	-25.77
890.98	-91.31
891.151	-7.34
891.323	4.95
891.494	25.43
891.665	-33.96
891.836	19.29
892.007	-3.24
892.178	-11.43
892.349	-29.87
892.52	-11.43
892.691	-33.96
892.862	-19.63
893.032	-31.91
893.203	58.2
893.374	-58.54
893.545	7
893.716	64.34
893.887	-21.67
894.057	25.43
894.228	9.05
894.399	43.86
894.57	80.72
894.74	2.9
894.911	-7.34
895.082	68.44
895.253	19.29
895.423	-13.48
895.594	37.72
895.764	-23.72
895.935	-1.19
896.106	56.15
896.276	-5.29
896.447	-27.82
896.617	15.19
896.788	23.38
896.958	-50.35
897.129	-62.63
897.299	0.85
897.47	-27.82
897.64	37.72
897.81	-58.54
897.981	-27.82
898.151	-79.02
898.322	13.14
898.492	2.9
898.662	-81.07
898.832	-42.15
899.003	-38.06
899.173	4.95
899.343	-7.34
899.513	-74.92
