Data from USB4F104151__49__12-36-07-166.txt Node

Date: Fri Mar 14 12:36:07 EDT 2025
User: louis
Spectrometer: USB4F10415
Trigger mode: 4
Integration Time (sec): 2.000000E-2
Scans to average: 1
Electric dark correction enabled: true
Nonlinearity correction enabled: false
Boxcar width: 0
XAxis mode: Wavelengths
Number of Pixels in Spectrum: 3648
>>>>>Begin Spectral Data<<<<<
178.204	-42.84
178.424	-42.84
178.644	-42.84
178.864	-65.36
179.084	-79.7
179.304	24.75
179.524	30.89
179.744	-34.64
179.964	34.99
180.184	-24.4
180.404	-8.02
180.624	2.22
180.844	0.17
181.064	-61.27
181.283	32.94
181.503	-51.03
181.723	53.42
181.943	-20.31
182.163	18.6
182.383	30.89
182.602	34.99
182.822	41.13
183.042	102.57
183.262	-51.03
183.482	69.8
183.701	-12.12
183.921	22.7
184.141	12.46
184.361	41.13
184.58	-30.55
184.8	37.03
185.02	-8.02
185.239	49.32
185.459	114.86
185.679	41.13
185.898	-8.02
186.118	4.27
186.338	20.65
186.557	20.65
186.777	88.23
186.997	57.51
187.216	-8.02
187.436	84.14
187.655	43.18
187.875	69.8
188.095	57.51
188.314	26.79
188.534	49.32
188.753	67.75
188.973	53.42
189.192	59.56
189.412	0.17
189.631	43.18
189.851	-57.17
190.07	57.51
190.29	20.65
190.509	61.61
190.729	-16.21
190.948	127.14
191.168	178.34
191.387	75.95
191.607	61.61
191.826	14.51
192.045	55.47
192.265	18.6
192.484	57.51
192.704	43.18
192.923	59.56
193.142	28.84
193.362	37.03
193.581	30.89
193.8	114.86
194.02	10.41
194.239	34.99
194.458	34.99
194.678	90.28
194.897	-30.55
195.116	41.13
195.335	129.19
195.555	22.7
195.774	80.04
195.993	112.81
196.212	-1.88
196.432	-79.7
196.651	22.7
196.87	69.8
197.089	84.14
197.308	37.03
197.528	59.56
197.747	26.79
197.966	59.56
198.185	80.04
198.404	26.79
198.623	39.08
198.842	28.84
199.062	102.57
199.281	51.37
199.5	-1.88
199.719	24.75
199.938	12.46
200.157	18.6
200.376	16.55
200.595	28.84
200.814	59.56
201.033	41.13
201.252	92.33
201.471	49.32
201.69	100.52
201.909	26.79
202.128	-20.31
202.347	-30.55
202.566	-22.36
202.785	-10.07
203.004	4.27
203.223	-3.93
203.442	-55.12
203.661	26.79
203.879	-14.17
204.098	69.8
204.317	22.7
204.536	45.23
204.755	22.7
204.974	18.6
205.193	-40.79
205.411	49.32
205.63	32.94
205.849	14.51
206.068	55.47
206.287	-18.26
206.505	47.27
206.724	39.08
206.943	69.8
207.162	-32.6
207.381	30.89
207.599	34.99
207.818	22.7
208.037	53.42
208.255	18.6
208.474	-10.07
208.693	32.94
208.911	2.22
209.13	65.71
209.349	39.08
209.567	65.71
209.786	43.18
210.005	90.28
210.223	92.33
210.442	14.51
210.661	129.19
210.879	30.89
211.098	14.51
211.316	14.51
211.535	63.66
211.753	-10.07
211.972	61.61
212.191	28.84
212.409	37.03
212.628	26.79
212.846	-12.12
213.065	98.47
213.283	84.14
213.502	45.23
213.72	55.47
213.938	-48.98
214.157	-12.12
214.375	67.75
214.594	-51.03
214.812	22.7
215.031	-14.17
215.249	59.56
215.467	-34.64
215.686	73.9
215.904	12.46
216.122	114.86
216.341	67.75
216.559	-26.45
216.778	51.37
216.996	16.55
217.214	55.47
217.432	14.51
217.651	24.75
217.869	80.04
218.087	24.75
218.306	26.79
218.524	51.37
218.742	-38.74
218.96	28.84
219.179	-18.26
219.397	57.51
219.615	55.47
219.833	12.46
220.051	49.32
220.27	-5.97
220.488	26.79
220.706	127.14
220.924	-51.03
221.142	71.85
221.36	28.84
221.578	65.71
221.796	-30.55
222.015	28.84
222.233	-26.45
222.451	-5.97
222.669	65.71
222.887	20.65
223.105	39.08
223.323	-30.55
223.541	-38.74
223.759	73.9
223.977	-14.17
224.195	118.95
224.413	67.75
224.631	37.03
224.849	16.55
225.067	-10.07
225.285	-26.45
225.503	12.46
225.721	26.79
225.939	4.27
226.157	49.32
226.375	102.57
226.592	2.22
226.81	0.17
227.028	20.65
227.246	71.85
227.464	45.23
227.682	24.75
227.9	28.84
228.117	65.71
228.335	53.42
228.553	24.75
228.771	-30.55
228.989	53.42
229.206	6.31
229.424	37.03
229.642	16.55
229.86	104.62
230.077	32.94
230.295	37.03
230.513	-5.97
230.731	-1.88
230.948	106.67
231.166	-24.4
231.384	63.66
231.601	-20.31
231.819	57.51
232.037	32.94
232.254	-28.5
232.472	-3.93
232.689	16.55
232.907	30.89
233.125	53.42
233.342	14.51
233.56	-1.88
233.777	26.79
233.995	22.7
234.213	104.62
234.43	20.65
234.648	39.08
234.865	12.46
235.083	86.19
235.3	51.37
235.518	75.95
235.735	-20.31
235.953	32.94
236.17	20.65
236.388	10.41
236.605	88.23
236.822	32.94
237.04	28.84
237.257	28.84
237.475	53.42
237.692	-63.32
237.909	47.27
238.127	-30.55
238.344	96.43
238.562	-3.93
238.779	-24.4
238.996	69.8
239.214	92.33
239.431	108.71
239.648	-8.02
239.865	47.27
240.083	88.23
240.3	37.03
240.517	39.08
240.735	57.51
240.952	32.94
241.169	55.47
241.386	4.27
241.603	73.9
241.821	77.99
242.038	-46.93
242.255	123.05
242.472	-42.84
242.689	-1.88
242.907	45.23
243.124	-10.07
243.341	2.22
243.558	-5.97
243.775	53.42
243.992	8.36
244.209	71.85
244.426	-24.4
244.643	75.95
244.86	22.7
245.078	41.13
245.295	12.46
245.512	16.55
245.729	39.08
245.946	80.04
246.163	63.66
246.38	45.23
246.597	12.46
246.814	16.55
247.031	16.55
247.248	18.6
247.464	75.95
247.681	-38.74
247.898	39.08
248.115	71.85
248.332	-5.97
248.549	0.17
248.766	102.57
248.983	65.71
249.2	43.18
249.417	4.27
249.633	10.41
249.85	18.6
250.067	-20.31
250.284	16.55
250.501	18.6
250.717	94.38
250.934	73.9
251.151	80.04
251.368	49.32
251.585	59.56
251.801	6.31
252.018	-73.56
252.235	57.51
252.451	10.41
252.668	28.84
252.885	69.8
253.102	12.46
253.318	24.75
253.535	67.75
253.752	26.79
253.968	-5.97
254.185	18.6
254.401	82.09
254.618	2.22
254.835	6.31
255.051	6.31
255.268	8.36
255.484	34.99
255.701	4.27
255.917	69.8
256.134	-30.55
256.351	84.14
256.567	26.79
256.784	16.55
257	16.55
257.217	43.18
257.433	41.13
257.65	34.99
257.866	94.38
258.082	16.55
258.299	-16.21
258.515	47.27
258.732	47.27
258.948	-12.12
259.165	-30.55
259.381	32.94
259.597	67.75
259.814	43.18
260.03	37.03
260.246	-1.88
260.463	24.75
260.679	28.84
260.895	57.51
261.112	77.99
261.328	34.99
261.544	59.56
261.761	110.76
261.977	41.13
262.193	55.47
262.409	92.33
262.626	30.89
262.842	69.8
263.058	92.33
263.274	12.46
263.49	-32.6
263.707	51.37
263.923	34.99
264.139	90.28
264.355	-5.97
264.571	14.51
264.787	73.9
265.004	102.57
265.22	-22.36
265.436	84.14
265.652	32.94
265.868	24.75
266.084	0.17
266.3	-18.26
266.516	43.18
266.732	43.18
266.948	-22.36
267.164	102.57
267.38	65.71
267.596	102.57
267.812	37.03
268.028	55.47
268.244	8.36
268.46	-3.93
268.676	-3.93
268.892	34.99
269.108	39.08
269.324	-34.64
269.54	-8.02
269.756	53.42
269.972	43.18
270.188	14.51
270.403	-34.64
270.619	43.18
270.835	28.84
271.051	-12.12
271.267	24.75
271.483	75.95
271.698	57.51
271.914	90.28
272.13	28.84
272.346	-53.08
272.562	12.46
272.777	86.19
272.993	69.8
273.209	6.31
273.425	57.51
273.64	37.03
273.856	67.75
274.072	92.33
274.287	90.28
274.503	2.22
274.719	28.84
274.934	4.27
275.15	20.65
275.366	-1.88
275.581	10.41
275.797	-1.88
276.012	67.75
276.228	-3.93
276.444	41.13
276.659	65.71
276.875	-24.4
277.09	51.37
277.306	-55.12
277.521	75.95
277.737	14.51
277.952	75.95
278.168	-16.21
278.383	16.55
278.599	-24.4
278.814	75.95
279.03	-16.21
279.245	73.9
279.461	24.75
279.676	55.47
279.892	4.27
280.107	49.32
280.322	-12.12
280.538	59.56
280.753	73.9
280.969	34.99
281.184	12.46
281.399	84.14
281.615	-10.07
281.83	37.03
282.045	73.9
282.26	34.99
282.476	55.47
282.691	90.28
282.906	-16.21
283.122	75.95
283.337	14.51
283.552	59.56
283.767	47.27
283.983	71.85
284.198	32.94
284.413	43.18
284.628	-18.26
284.843	71.85
285.058	30.89
285.274	-8.02
285.489	16.55
285.704	86.19
285.919	55.47
286.134	51.37
286.349	34.99
286.564	43.18
286.779	65.71
286.995	-28.5
287.21	104.62
287.425	145.58
287.64	-8.02
287.855	69.8
288.07	6.31
288.285	90.28
288.5	-51.03
288.715	59.56
288.93	-34.64
289.145	20.65
289.36	-1.88
289.575	47.27
289.79	125.1
290.004	65.71
290.219	69.8
290.434	114.86
290.649	39.08
290.864	32.94
291.079	77.99
291.294	-5.97
291.509	32.94
291.724	69.8
291.938	16.55
292.153	57.51
292.368	-10.07
292.583	24.75
292.798	59.56
293.012	30.89
293.227	59.56
293.442	-98.13
293.657	20.65
293.871	43.18
294.086	55.47
294.301	53.42
294.516	65.71
294.73	53.42
294.945	53.42
295.16	4.27
295.374	37.03
295.589	59.56
295.804	43.18
296.018	45.23
296.233	108.71
296.447	108.71
296.662	59.56
296.877	41.13
297.091	84.14
297.306	-53.08
297.52	55.47
297.735	-16.21
297.949	24.75
298.164	-22.36
298.378	-1.88
298.593	73.9
298.807	51.37
299.022	49.32
299.236	98.47
299.451	57.51
299.665	-38.74
299.88	47.27
300.094	37.03
300.309	45.23
300.523	71.85
300.737	18.6
300.952	16.55
301.166	18.6
301.381	0.17
301.595	-5.97
301.809	73.9
302.024	80.04
302.238	108.71
302.452	22.7
302.667	41.13
302.881	75.95
303.095	45.23
303.309	110.76
303.524	86.19
303.738	63.66
303.952	45.23
304.166	65.71
304.381	32.94
304.595	90.28
304.809	32.94
305.023	14.51
305.237	8.36
305.452	26.79
305.666	10.41
305.88	104.62
306.094	53.42
306.308	20.65
306.522	49.32
306.736	43.18
306.95	16.55
307.164	-8.02
307.379	47.27
307.593	61.61
307.807	24.75
308.021	-26.45
308.235	30.89
308.449	-1.88
308.663	84.14
308.877	94.38
309.091	102.57
309.305	6.31
309.519	-73.56
309.733	112.81
309.947	61.61
310.161	-10.07
310.374	43.18
310.588	71.85
310.802	45.23
311.016	75.95
311.23	-16.21
311.444	18.6
311.658	0.17
311.872	63.66
312.085	84.14
312.299	63.66
312.513	69.8
312.727	43.18
312.941	12.46
313.154	-24.4
313.368	51.37
313.582	61.61
313.796	24.75
314.009	47.27
314.223	12.46
314.437	118.95
314.651	69.8
314.864	10.41
315.078	32.94
315.292	18.6
315.505	51.37
315.719	69.8
315.933	51.37
316.146	-5.97
316.36	106.67
316.573	49.32
316.787	28.84
317.001	-20.31
317.214	80.04
317.428	28.84
317.641	30.89
317.855	55.47
318.068	2.22
318.282	86.19
318.495	61.61
318.709	71.85
318.922	51.37
319.136	102.57
319.349	-8.02
319.563	34.99
319.776	20.65
319.99	-3.93
320.203	71.85
320.417	28.84
320.63	-8.02
320.843	121
321.057	34.99
321.27	77.99
321.483	61.61
321.697	96.43
321.91	102.57
322.124	80.04
322.337	77.99
322.55	-14.17
322.763	100.52
322.977	59.56
323.19	45.23
323.403	73.9
323.617	49.32
323.83	59.56
324.043	-18.26
324.256	26.79
324.469	49.32
324.683	32.94
324.896	22.7
325.109	69.8
325.322	20.65
325.535	92.33
325.748	108.71
325.962	57.51
326.175	90.28
326.388	55.47
326.601	129.19
326.814	47.27
327.027	45.23
327.24	110.76
327.453	65.71
327.666	71.85
327.879	71.85
328.092	63.66
328.305	55.47
328.518	43.18
328.731	84.14
328.944	32.94
329.157	-36.69
329.37	-46.93
329.583	75.95
329.796	90.28
330.009	30.89
330.222	24.75
330.435	41.13
330.648	57.51
330.861	84.14
331.073	16.55
331.286	6.31
331.499	41.13
331.712	20.65
331.925	26.79
332.138	37.03
332.35	57.51
332.563	88.23
332.776	104.62
332.989	18.6
333.202	86.19
333.414	55.47
333.627	30.89
333.84	41.13
334.053	67.75
334.265	51.37
334.478	12.46
334.691	12.46
334.903	63.66
335.116	59.56
335.329	-18.26
335.541	59.56
335.754	96.43
335.966	-16.21
336.179	-1.88
336.392	75.95
336.604	12.46
336.817	43.18
337.029	0.17
337.242	-1.88
337.454	-5.97
337.667	51.37
337.88	84.14
338.092	45.23
338.305	22.7
338.517	39.08
338.729	69.8
338.942	118.95
339.154	57.51
339.367	-26.45
339.579	-28.5
339.792	-20.31
340.004	114.86
340.217	69.8
340.429	82.09
340.641	-46.93
340.854	16.55
341.066	102.57
341.278	22.7
341.491	84.14
341.703	26.79
341.915	-5.97
342.128	53.42
342.34	82.09
342.552	69.8
342.764	14.51
342.977	57.51
343.189	73.9
343.401	96.43
343.613	10.41
343.826	41.13
344.038	8.36
344.25	63.66
344.462	37.03
344.674	63.66
344.886	4.27
345.099	65.71
345.311	61.61
345.523	28.84
345.735	34.99
345.947	49.32
346.159	12.46
346.371	26.79
346.583	12.46
346.795	108.71
347.007	30.89
347.219	2.22
347.431	26.79
347.643	102.57
347.855	63.66
348.067	86.19
348.279	100.52
348.491	77.99
348.703	92.33
348.915	94.38
349.127	51.37
349.339	84.14
349.551	-63.32
349.763	32.94
349.975	22.7
350.187	-20.31
350.399	53.42
350.61	43.18
350.822	69.8
351.034	34.99
351.246	26.79
351.458	108.71
351.669	55.47
351.881	67.75
352.093	104.62
352.305	-1.88
352.517	30.89
352.728	104.62
352.94	-8.02
353.152	116.9
353.363	32.94
353.575	47.27
353.787	133.29
353.999	67.75
354.21	90.28
354.422	84.14
354.633	73.9
354.845	77.99
355.057	61.61
355.268	131.24
355.48	73.9
355.692	-32.6
355.903	71.85
356.115	45.23
356.326	18.6
356.538	170.15
356.749	43.18
356.961	71.85
357.172	-20.31
357.384	-1.88
357.595	51.37
357.807	110.76
358.018	77.99
358.23	12.46
358.441	71.85
358.653	63.66
358.864	41.13
359.075	22.7
359.287	49.32
359.498	86.19
359.709	110.76
359.921	65.71
360.132	34.99
360.344	57.51
360.555	67.75
360.766	143.53
360.977	82.09
361.189	55.47
361.4	26.79
361.611	82.09
361.823	20.65
362.034	73.9
362.245	43.18
362.456	41.13
362.667	-5.97
362.879	30.89
363.09	24.75
363.301	32.94
363.512	16.55
363.723	37.03
363.935	-12.12
364.146	75.95
364.357	28.84
364.568	-28.5
364.779	32.94
364.99	26.79
365.201	63.66
365.412	131.24
365.623	14.51
365.834	26.79
366.045	80.04
366.256	90.28
366.467	57.51
366.678	43.18
366.889	51.37
367.1	94.38
367.311	71.85
367.522	14.51
367.733	41.13
367.944	12.46
368.155	96.43
368.366	43.18
368.577	73.9
368.788	10.41
368.999	37.03
369.209	63.66
369.42	20.65
369.631	129.19
369.842	34.99
370.053	45.23
370.264	51.37
370.474	53.42
370.685	108.71
370.896	39.08
371.107	88.23
371.317	133.29
371.528	22.7
371.739	43.18
371.95	71.85
372.16	30.89
372.371	-14.17
372.582	47.27
372.792	63.66
373.003	20.65
373.214	59.56
373.424	104.62
373.635	59.56
373.846	102.57
374.056	92.33
374.267	71.85
374.477	112.81
374.688	37.03
374.898	30.89
375.109	75.95
375.319	82.09
375.53	45.23
375.74	110.76
375.951	47.27
376.161	102.57
376.372	80.04
376.582	37.03
376.793	57.51
377.003	123.05
377.214	45.23
377.424	155.82
377.635	108.71
377.845	47.27
378.055	26.79
378.266	61.61
378.476	71.85
378.686	28.84
378.897	135.34
379.107	153.77
379.317	-10.07
379.528	-36.69
379.738	75.95
379.948	8.36
380.158	75.95
380.369	32.94
380.579	63.66
380.789	116.9
380.999	6.31
381.21	125.1
381.42	77.99
381.63	37.03
381.84	16.55
382.05	61.61
382.261	168.1
382.471	106.67
382.681	16.55
382.891	73.9
383.101	55.47
383.311	30.89
383.521	-12.12
383.731	63.66
383.941	73.9
384.151	37.03
384.361	98.47
384.571	34.99
384.781	82.09
384.991	28.84
385.201	116.9
385.411	84.14
385.621	61.61
385.831	2.22
386.041	84.14
386.251	28.84
386.461	116.9
386.671	45.23
386.881	106.67
387.091	55.47
387.301	24.75
387.511	147.62
387.72	118.95
387.93	100.52
388.14	94.38
388.35	49.32
388.56	157.86
388.769	69.8
388.979	45.23
389.189	141.48
389.399	121
389.609	100.52
389.818	92.33
390.028	153.77
390.238	0.17
390.447	63.66
390.657	49.32
390.867	67.75
391.076	34.99
391.286	43.18
391.496	92.33
391.705	0.17
391.915	63.66
392.125	77.99
392.334	127.14
392.544	65.71
392.753	86.19
392.963	59.56
393.172	98.47
393.382	80.04
393.591	110.76
393.801	96.43
394.01	63.66
394.22	118.95
394.429	41.13
394.639	157.86
394.848	112.81
395.058	43.18
395.267	102.57
395.477	116.9
395.686	39.08
395.895	200.87
396.105	135.34
396.314	98.47
396.524	108.71
396.733	127.14
396.942	69.8
397.152	47.27
397.361	49.32
397.57	82.09
397.78	133.29
397.989	92.33
398.198	170.15
398.407	157.86
398.617	149.67
398.826	55.47
399.035	184.49
399.244	137.38
399.453	80.04
399.663	96.43
399.872	121
400.081	172.2
400.29	147.62
400.499	147.62
400.708	184.49
400.917	114.86
401.127	172.2
401.336	98.47
401.545	178.34
401.754	161.96
401.963	192.68
402.172	135.34
402.381	149.67
402.59	168.1
402.799	55.47
403.008	166.06
403.217	143.53
403.426	39.08
403.635	141.48
403.844	200.87
404.053	161.96
404.262	176.3
404.471	168.1
404.68	137.38
404.888	112.81
405.097	151.72
405.306	157.86
405.515	131.24
405.724	125.1
405.933	207.02
406.142	204.97
406.35	174.25
406.559	170.15
406.768	192.68
406.977	303.27
407.185	188.58
407.394	209.06
407.603	196.78
407.812	243.88
408.02	227.5
408.229	223.4
408.438	256.17
408.646	227.5
408.855	254.12
409.064	346.28
409.272	305.32
409.481	329.89
409.69	303.27
409.898	362.66
410.107	348.33
410.315	323.75
410.524	266.41
410.733	333.99
410.941	333.99
411.15	460.96
411.358	413.86
411.567	407.72
411.775	438.44
411.984	436.39
412.192	530.59
412.401	463.01
412.609	536.74
412.818	573.6
413.026	565.41
413.234	569.51
413.443	522.4
413.651	589.99
413.86	624.8
414.068	649.38
414.276	682.14
414.485	712.86
414.693	845.98
414.901	745.63
415.11	706.72
415.318	731.3
415.526	823.45
415.734	794.78
415.943	864.41
416.151	936.09
416.359	878.75
416.567	927.9
416.776	940.19
416.984	1044.63
417.192	1071.26
417.4	1138.84
417.608	1087.64
417.817	1085.59
418.025	1134.75
418.233	1190.04
418.441	1159.32
418.649	1308.82
418.857	1370.26
419.065	1351.83
419.273	1392.79
419.481	1489.04
419.689	1538.2
419.897	1575.06
420.105	1585.3
420.313	1669.27
420.521	1722.51
420.729	1702.03
420.937	1843.34
421.145	1904.78
421.353	1962.12
421.561	2027.66
421.769	2029.71
421.977	2166.92
422.185	2009.23
422.393	2390.15
422.601	2402.44
422.809	2328.71
423.017	2427.01
423.224	2543.75
423.432	2640
423.64	2822.27
423.848	2943.1
424.056	2826.37
424.263	3012.73
424.471	3051.64
424.679	2967.68
424.887	3246.2
425.094	3342.46
425.302	3272.82
425.51	3469.43
425.718	3604.6
425.925	3620.98
426.133	3743.86
426.341	3948.65
426.548	4169.84
426.756	4157.55
426.964	4087.92
427.171	4530.28
427.379	4677.73
427.586	4509.8
427.794	4759.65
428.001	4962.4
428.209	5058.65
428.417	4874.34
428.624	5455.96
428.832	5312.6
429.039	5318.75
429.247	5451.86
429.454	6076.49
429.662	6455.37
429.869	6051.92
430.076	6297.67
430.284	6207.56
430.491	6350.92
430.699	6869.06
430.906	6858.82
431.114	6922.31
431.321	7145.53
431.528	7440.44
431.736	7591.99
431.943	7942.19
432.15	7854.13
432.358	7929.91
432.565	8392.75
432.772	8296.49
432.979	8681.51
433.187	8796.2
433.394	9060.38
433.601	9488.41
433.808	9619.48
434.016	9490.46
434.223	9904.15
434.43	10573.83
434.637	10168.34
434.844	11053.06
435.052	11280.38
435.259	11077.63
435.466	11202.56
435.673	11130.88
435.88	11837.43
436.087	12441.58
436.294	12369.9
436.501	12113.91
436.708	12675.05
436.915	12857.32
437.122	13320.16
437.329	13291.49
437.537	13787.1
437.743	14112.72
437.95	13739.99
438.157	14602.19
438.364	15230.91
438.571	15355.84
438.778	15165.38
438.985	16803.75
439.192	15947.7
439.399	16306.1
439.606	16142.26
439.813	17024.93
440.02	17870.75
440.227	17713.05
440.433	17381.28
440.64	18122.65
440.847	18108.31
441.054	18429.84
441.261	19814.27
441.467	19552.13
441.674	19705.73
441.881	20737.9
442.088	20399.99
442.294	20168.57
442.501	21057.39
442.708	21528.42
442.914	22181.72
443.121	22886.22
443.328	22277.97
443.534	24067.9
443.741	23246.66
443.948	23244.62
444.154	24688.43
444.361	24575.8
444.568	24860.46
444.774	24770.35
444.981	25018.16
445.187	26124.06
445.394	27150.09
445.6	26453.78
445.807	29239.02
446.013	27942.66
446.22	28208.89
446.426	29535.98
446.633	29843.17
446.839	30695.13
447.046	29429.48
447.252	31303.37
447.459	31352.52
447.665	31182.54
447.871	32644.79
448.078	33939.11
448.284	31903.43
448.491	33294
448.697	34614.94
448.903	35362.45
449.11	35219.09
449.316	34924.18
449.522	35464.85
449.728	36439.68
449.935	36767.35
450.141	36390.53
450.347	37521.01
450.553	36400.77
450.76	36710.01
450.966	37842.54
451.172	37400.18
451.378	38841.95
451.584	37623.4
451.791	38422.11
451.997	38733.4
452.203	39689.81
452.409	39552.59
452.615	39360.08
452.821	37713.52
453.027	37217.91
453.233	39499.34
453.44	38073.96
453.646	38342.24
453.852	38921.82
454.058	39542.35
454.264	37713.52
454.47	38778.46
454.676	37922.41
454.882	39257.68
455.088	35929.73
455.294	36351.62
455.5	36681.34
455.705	37316.21
455.911	35956.36
456.117	35151.51
456.323	34664.09
456.529	32997.04
456.735	34260.64
456.941	33517.23
457.147	33083.06
457.352	32229.05
457.558	31454.92
457.764	31624.9
457.97	30957.27
458.176	30635.74
458.381	30334.68
458.587	28909.3
458.793	29089.52
458.999	27352.84
459.204	29464.3
459.41	28802.8
459.616	26599.19
459.821	26566.42
460.027	27096.85
460.233	26009.37
460.438	24813.36
460.644	25265.96
460.85	23832.38
461.055	23629.63
461.261	23525.19
461.466	21876.57
461.672	20768.62
461.878	22464.34
462.083	21063.53
462.289	20737.9
462.494	20436.85
462.7	19607.42
462.905	18995.08
463.111	19799.93
463.316	19810.17
463.522	19343.24
463.727	19621.76
463.932	19361.67
464.138	18999.18
464.343	19306.37
464.549	18495.38
464.754	19255.17
464.959	19117.96
465.165	18864.01
465.37	18096.02
465.575	17786.78
465.781	18450.32
465.986	18476.94
466.191	18147.22
466.397	17489.82
466.602	16596.91
466.807	17338.27
467.012	17377.19
467.218	17426.34
467.423	17123.24
467.628	17215.4
467.833	17975.19
468.038	17156
468.244	16846.76
468.449	17231.78
468.654	16742.32
468.859	16725.93
469.064	16471.98
469.269	15753.15
469.474	16115.64
469.679	16648.11
469.885	15779.77
470.09	16050.1
470.295	15988.66
470.5	15626.17
470.705	15841.21
470.91	15402.94
471.115	15149
471.32	15687.61
471.525	15548.35
471.73	14893
471.935	14948.29
472.139	14438.35
472.344	14585.8
472.549	14510.03
472.754	14161.87
472.959	14249.94
473.164	13715.42
473.369	13694.94
473.574	14139.35
473.778	14008.28
473.983	13758.42
474.188	13787.1
474.393	13340.64
474.598	13242.34
474.802	12939.24
475.007	12924.9
475.212	12963.81
475.417	12523.5
475.621	12451.82
475.826	12750.82
476.031	12552.17
476.235	12103.67
476.44	12163.06
476.645	12074.99
476.849	11964.4
477.054	11859.96
477.259	11677.69
477.463	11704.31
477.668	11560.95
477.872	11665.4
478.077	11503.61
478.282	11145.22
478.486	10971.14
478.691	11143.17
478.895	11087.87
479.1	10700.81
479.304	11151.36
479.509	10496.01
479.713	10760.2
479.918	10412.04
480.122	10166.29
480.326	10594.31
480.531	10731.53
480.735	10276.88
480.94	10291.21
481.144	10450.96
481.348	9893.91
481.553	10262.54
481.757	9949.2
481.961	10149.9
482.166	10358.8
482.37	10252.3
482.574	9863.19
482.778	10033.17
482.983	10385.42
483.187	10012.69
483.391	10168.34
483.595	10149.9
483.8	9797.65
484.004	9969.68
484.208	10192.91
484.412	10051.6
484.616	9928.72
484.821	10061.84
485.025	9850.9
485.229	10047.51
485.433	9938.96
485.637	10049.55
485.841	9846.8
486.045	9883.67
486.249	10315.79
486.453	9781.27
486.657	10115.09
486.861	9773.08
487.065	9816.08
487.269	10133.52
487.473	9920.53
487.677	10217.49
487.881	10096.66
488.085	10049.55
488.289	10203.15
488.493	9639.96
488.697	10125.33
488.901	10070.03
489.105	10053.65
489.309	10203.15
489.512	10090.51
489.716	10123.28
489.92	10194.96
490.124	10156.05
490.328	10192.91
490.531	10346.51
490.735	10311.69
490.939	10313.74
491.143	10461.2
491.346	10448.91
491.55	10549.26
491.754	10532.87
491.958	10512.39
492.161	10475.53
492.365	10557.45
492.569	10602.5
492.772	10432.52
492.976	10528.78
493.18	10709
493.383	10948.61
493.587	10835.97
493.79	10921.99
493.994	10854.41
494.197	11065.35
494.401	11059.2
494.605	10950.66
494.808	11165.7
495.012	11335.68
495.215	11347.97
495.419	11528.19
495.622	11513.85
495.825	11735.03
496.029	11532.28
496.232	11978.74
496.436	11878.39
496.639	12150.77
496.843	12251.12
497.046	12398.57
497.249	12593.13
497.453	12552.17
497.656	12560.36
497.859	12658.67
498.063	12834.79
498.266	12955.62
498.469	13039.59
498.673	13058.02
498.876	13529.05
499.079	13510.62
499.282	13592.54
499.485	13862.87
499.689	13864.92
499.892	13809.62
500.095	14442.45
500.298	14555.08
500.501	14213.07
500.705	14784.46
500.908	14864.33
501.111	15017.93
501.314	15339.46
501.517	15284.16
501.72	15488.96
501.923	15546.3
502.126	16129.97
502.329	16039.86
502.532	16140.21
502.735	16242.61
502.938	16754.6
503.141	16598.96
503.344	17035.17
503.547	17041.32
503.75	16914.34
503.953	17383.33
504.156	17682.33
504.359	17768.35
504.562	17915.8
504.765	18395.03
504.968	18423.7
505.17	18419.6
505.373	18644.88
505.576	19191.69
505.779	19173.25
505.982	19392.39
506.185	19783.55
506.387	19951.48
506.59	20236.15
506.793	20524.91
506.996	20647.79
507.198	20977.51
507.401	21274.47
507.604	21348.2
507.807	21501.79
508.009	21833.57
508.212	21958.49
508.415	22327.13
508.617	22374.23
508.82	22495.06
509.022	22648.66
509.225	22994.76
509.428	23314.25
509.63	23342.92
509.833	23775.04
510.035	24092.48
510.238	24217.4
510.44	24354.62
510.643	24868.66
510.845	24928.05
511.048	25005.87
511.25	25571.11
511.453	25745.19
511.655	26662.68
511.858	26052.38
512.06	26472.21
512.262	26740.5
512.465	26885.9
512.667	27275.02
512.87	27619.08
513.072	27545.35
513.274	28161.79
513.477	28264.19
513.679	29228.78
513.881	28933.87
514.084	29570.79
514.286	29499.11
514.488	29613.8
514.69	30449.37
514.893	30555.86
515.095	30533.34
515.297	31053.52
515.499	31030.99
515.701	31893.19
515.904	31952.58
516.106	32335.55
516.308	32450.24
516.51	32671.42
516.712	33058.48
516.914	33371.82
517.116	33814.18
517.318	34100.9
517.52	34113.19
517.722	34137.76
517.925	35112.59
518.127	35407.5
518.329	35548.81
518.531	35636.87
518.733	36054.66
518.935	36593.28
519.136	36796.03
519.338	36892.28
519.54	37074.55
519.742	37854.83
519.944	37555.82
520.146	38606.43
520.348	38471.26
520.55	38641.25
520.752	38819.42
520.954	39609.93
521.155	39642.7
521.357	39765.58
521.559	40576.58
521.761	40511.04
521.963	40678.97
522.164	40887.87
522.366	41029.18
522.568	41315.89
522.77	41553.46
522.971	42419.75
523.173	41817.64
523.375	42360.36
523.576	42489.38
523.778	42706.46
523.98	43202.07
524.181	42862.11
524.383	43474.45
524.584	43931.15
524.786	44189.19
524.988	43781.65
525.189	44463.62
525.391	44897.79
525.592	45102.59
525.794	44897.79
525.995	45166.07
526.197	45702.64
526.398	45485.56
526.6	45542.9
526.801	45612.53
527.003	45780.46
527.204	46185.96
527.406	46433.77
527.607	46149.1
527.808	46747.11
528.01	46054.89
528.211	46597.6
528.412	47547.86
528.614	47183.32
528.815	46892.51
529.016	47932.88
529.218	46933.47
529.419	47201.75
529.62	47154.65
529.822	47105.5
530.023	47275.48
530.224	47500.76
530.425	47443.41
530.626	47312.34
530.828	47209.95
531.029	48055.76
531.23	47810
531.431	47511
531.632	47648.21
531.833	47637.97
532.035	47689.17
532.236	47932.88
532.437	48086.48
532.638	48109
532.839	47857.1
533.04	48178.64
533.241	47554.01
533.442	48752.07
533.643	48365
533.844	47543.77
534.045	48426.44
534.246	47558.1
534.447	48504.26
534.648	47826.38
534.849	48317.9
535.05	47754.71
535.251	47830.48
535.451	47963.6
535.652	48276.94
535.853	47756.75
536.054	48276.94
536.255	48141.77
536.456	47431.13
536.657	48231.88
536.857	47777.23
537.058	47689.17
537.259	48618.95
537.46	48063.95
537.66	47769.04
537.861	48154.06
538.062	47830.48
538.263	47881.68
538.463	47594.96
538.664	47513.05
538.865	47834.58
539.065	47574.48
539.266	47105.5
539.466	48004.56
539.667	47234.52
539.868	48063.95
540.068	47613.4
540.269	47347.16
540.469	47867.34
540.67	47422.94
540.87	47257.05
541.071	47244.76
541.271	47562.2
541.472	47123.93
541.672	46947.81
541.873	47132.12
542.073	46734.82
542.274	47746.51
542.474	47275.48
542.675	46843.36
542.875	47377.88
543.075	47048.16
543.276	46398.95
543.476	47404.5
543.676	46831.07
543.877	47101.4
544.077	47283.67
544.277	47060.44
544.478	46947.81
544.678	47388.12
544.878	46820.83
545.078	46728.67
545.279	46712.29
545.479	46611.94
545.679	46847.46
545.879	46589.41
546.079	46706.15
546.28	47054.3
546.48	46560.74
546.68	46908.89
546.88	46773.73
547.08	46327.27
547.28	46431.72
547.48	46271.98
547.68	46947.81
547.88	46704.1
548.081	46829.02
548.281	46394.85
548.481	46640.61
548.681	46540.26
548.881	46673.38
549.081	46659.04
549.28	46515.68
549.48	46921.18
549.68	46802.4
549.88	47365.59
550.08	46755.3
550.28	47099.36
550.48	46732.77
550.68	46554.6
550.88	46368.23
551.08	46466.53
551.279	46869.98
551.479	46058.99
551.679	46622.18
551.879	46179.82
552.079	47027.68
552.278	46808.54
552.478	46511.59
552.678	46040.56
552.878	47013.34
553.077	46163.43
553.277	46106.09
553.477	46931.42
553.676	46300.65
553.876	47023.58
554.076	46808.54
554.275	45946.35
554.475	45796.85
554.674	46550.5
554.874	46169.58
555.074	46237.16
555.273	46419.43
555.473	46777.82
555.672	46114.28
555.872	46357.99
556.071	46548.45
556.271	46263.78
556.47	46523.88
556.67	45622.77
556.869	46228.97
557.068	46095.85
557.268	45917.68
557.467	45880.81
557.667	46155.24
557.866	46052.84
558.065	46159.34
558.265	45493.75
558.464	45835.76
558.663	45940.21
558.863	45626.87
559.062	46298.6
559.261	45569.52
559.461	46241.26
559.66	45184.51
559.859	45614.58
560.058	45141.5
560.258	45438.45
560.457	44971.52
560.656	45880.81
560.855	45381.11
561.054	45319.67
561.253	45086.2
561.453	45313.53
561.652	44998.14
561.851	45360.63
562.05	45204.98
562.249	44797.44
562.448	45252.09
562.647	44901.89
562.846	44561.92
563.045	44363.27
563.244	44158.47
563.443	44981.76
563.642	44320.26
563.841	44611.07
564.04	44258.82
564.239	44856.83
564.438	43849.23
564.637	44029.45
564.836	44187.14
565.035	43726.35
565.234	44002.83
565.432	43808.27
565.631	43740.69
565.83	43820.56
566.029	43253.27
566.228	43795.98
566.427	43390.48
566.625	43030.04
566.824	43021.85
567.023	43873.81
567.222	42810.91
567.42	43460.12
567.619	42921.5
567.818	42747.42
568.016	42855.96
568.215	43054.62
568.414	42440.23
568.612	43167.26
568.811	42282.53
569.01	42016.3
569.208	41860.65
569.407	42245.67
569.605	41621.04
569.804	42395.17
570.002	41231.93
570.201	41682.48
570.4	41584.18
570.598	41547.31
570.797	41176.63
570.995	41199.16
571.193	41002.55
571.392	41297.46
571.59	41442.87
571.789	41307.7
571.987	40805.95
572.186	40842.81
572.384	40846.91
572.582	41029.18
572.781	40388.16
572.979	39816.78
573.177	40474.18
573.376	40240.71
573.574	39865.93
573.772	40240.71
573.971	39704.14
574.169	39628.37
574.367	39145.05
574.565	39904.84
574.763	39247.44
574.962	39380.56
575.16	39034.46
575.358	39405.14
575.556	38528.61
575.754	39226.96
575.952	38704.73
576.151	39138.9
576.349	38506.08
576.547	38653.53
576.745	38588
576.943	38141.54
577.141	38274.66
577.339	38168.16
577.537	38125.16
577.735	37725.8
577.933	37733.99
578.131	37944.94
578.329	37400.18
578.527	37420.66
578.725	37394.03
578.923	37277.3
579.121	37426.8
579.319	37013.11
579.516	37256.82
579.714	37217.91
579.912	37011.06
580.11	36648.57
580.308	36806.27
580.506	36656.76
580.704	36030.08
580.901	36177.54
581.099	36669.05
581.297	35980.93
581.495	36179.59
581.692	36226.69
581.89	35888.78
582.088	36144.77
582.285	35475.09
582.483	35749.51
582.681	35542.67
582.878	35161.75
583.076	35061.4
583.274	35483.28
583.471	34860.69
583.669	35184.27
583.866	34909.85
584.064	34875.03
584.262	34543.26
584.459	34647.71
584.657	34627.23
584.854	34780.82
585.052	34215.58
585.249	34494.11
585.447	34377.37
585.644	33994.4
585.841	34180.77
586.039	34363.04
586.236	33644.2
586.434	33683.11
586.631	33947.3
586.828	33396.4
587.026	33744.55
587.223	33412.78
587.42	33044.15
587.618	33318.57
587.815	32831.16
588.012	32874.17
588.21	32839.35
588.407	33171.12
588.604	32714.42
588.801	32237.25
588.999	32698.04
589.196	32808.63
589.393	32388.8
589.59	32341.69
589.787	32401.08
589.984	32204.48
590.182	31786.69
590.379	32321.21
590.576	31858.37
590.773	31786.69
590.97	31594.18
591.167	31459.02
591.364	31215.31
591.561	31956.68
591.758	31289.04
591.955	31334.09
592.152	31475.4
592.349	31174.35
592.546	31260.37
592.743	31313.61
592.94	30516.95
593.137	30787.28
593.334	30863.06
593.531	30596.82
593.727	31039.19
593.924	30412.51
594.121	30303.96
594.318	30564.06
594.515	29908.71
594.712	30656.21
594.908	30179.04
595.105	30334.68
595.302	30021.34
595.499	29746.92
595.696	29808.36
595.892	29740.77
596.089	29882.08
596.286	29900.51
596.482	29699.81
596.679	29482.73
596.876	29404.91
597.072	29165.29
597.269	29601.51
597.466	29099.76
597.662	28995.31
597.859	29605.61
598.055	28806.9
598.252	28770.04
598.448	28724.98
598.645	28929.78
598.841	28647.16
599.038	28577.53
599.234	28663.54
599.431	28514.04
599.627	28348.15
599.824	28606.2
600.02	28430.07
600.217	28192.51
600.413	27993.86
600.609	27870.98
600.806	27823.87
601.002	27936.51
601.198	27748.1
601.395	27569.93
601.591	27358.99
601.787	27832.07
601.984	27504.39
602.18	27651.84
602.376	27385.61
602.572	27201.29
602.769	27186.96
602.965	27029.26
603.161	27502.34
603.357	27035.41
603.553	27109.13
603.75	27055.89
603.946	26898.19
604.142	26916.62
604.338	26490.65
604.534	26582.81
604.73	26486.55
604.926	26302.23
605.122	26609.43
605.318	26205.98
605.514	26216.22
605.71	26558.23
605.906	26074.91
606.102	26099.48
606.298	25696.03
606.494	25958.17
606.69	26056.48
606.886	25667.36
607.082	25577.25
607.278	25710.37
607.474	25366.31
607.67	25509.67
607.866	25249.58
608.062	25802.53
608.257	25358.12
608.453	25442.09
608.649	25167.66
608.845	25122.6
609.041	25073.45
609.236	25014.06
609.432	25145.13
609.628	25081.64
609.824	25024.3
610.019	24887.09
610.215	24794.93
610.411	25100.08
610.606	24719.15
610.802	24684.34
610.998	24620.85
611.193	24737.59
611.389	24678.19
611.584	23981.88
611.78	24301.37
611.976	24256.31
612.171	24155.96
612.367	24309.56
612.562	24211.26
612.758	23783.23
612.953	24246.07
613.149	24444.73
613.344	23750.46
613.539	24160.06
613.735	23713.6
613.93	23816
614.126	23738.18
614.321	23760.7
614.517	23908.16
614.712	23480.13
614.907	23285.58
615.103	23580.48
615.298	23541.57
615.493	23457.6
615.688	23078.73
615.884	23691.07
616.079	23131.98
616.274	23531.33
616.47	22994.76
616.665	23291.72
616.86	23177.03
617.055	23310.15
617.25	22968.14
617.445	23002.96
617.641	22595.41
617.836	23336.77
618.031	22433.62
618.226	22802.25
618.421	22429.52
618.616	22507.35
618.811	22040.41
619.006	22519.64
619.201	22036.31
619.396	22191.96
619.591	21956.44
619.786	22103.9
619.981	21700.45
620.176	21854.05
620.371	21493.6
620.566	21761.89
620.761	21663.58
620.956	21454.69
621.151	21145.45
621.346	21370.72
621.541	21208.94
621.735	21253.99
621.93	21030.76
622.125	21014.38
622.32	20492.15
622.515	20606.83
622.709	20348.79
622.904	20412.28
623.099	20252.53
623.294	20461.43
623.488	20051.83
623.683	20029.31
623.878	19691.39
624.072	19986.3
624.267	19789.69
624.462	19550.08
624.656	19595.14
624.851	19380.1
625.046	19187.59
625.24	19234.69
625.435	19019.66
625.629	19009.42
625.824	18993.03
626.018	19066.76
626.213	18519.95
626.407	18370.45
626.602	18452.37
626.796	18489.23
626.991	18884.49
627.185	18225.04
627.38	18038.68
627.574	17915.8
627.768	17942.42
627.963	17874.84
628.157	17352.61
628.352	17799.07
628.546	17407.91
628.74	17547.17
628.935	17149.86
629.129	17272.74
629.323	16900.01
629.517	17061.8
629.712	17149.86
629.906	17065.89
630.1	16594.86
630.294	16703.4
630.489	16428.98
630.683	16641.96
630.877	16568.24
631.071	16523.18
631.265	16394.16
631.459	16338.87
631.653	16056.25
631.848	16050.1
632.042	15826.87
632.236	15966.14
632.43	15683.52
632.624	15753.15
632.818	15581.12
633.012	15349.7
633.206	15306.69
633.4	15314.88
633.594	15228.87
633.788	15497.15
633.982	15122.37
634.176	14952.39
634.369	15108.04
634.563	14929.86
634.757	14686.15
634.951	14802.89
635.145	14677.96
635.339	14692.3
635.533	14507.98
635.726	14430.16
635.92	14135.25
636.114	14077.91
636.308	14266.32
636.501	13989.85
636.695	14131.16
636.889	13731.8
637.083	13776.86
637.276	13600.73
637.47	13629.4
637.664	13629.4
637.857	13520.86
638.051	13543.39
638.244	13201.38
638.438	13123.55
638.632	13338.59
638.825	13148.13
639.019	12888.04
639.212	12879.85
639.406	13029.35
639.599	12777.45
639.793	12763.11
639.986	12638.19
640.18	12613.61
640.373	12662.76
640.567	12287.98
640.76	12199.92
640.954	12191.73
641.147	11927.54
641.34	12279.79
641.534	12089.33
641.727	11921.4
641.92	11995.12
642.114	12029.94
642.307	11606.01
642.5	11509.76
642.694	11313.15
642.887	11499.52
643.08	11362.3
643.273	11454.46
643.467	11345.92
643.66	11190.27
643.853	11091.97
644.046	10919.94
644.239	10962.95
644.432	10907.65
644.626	10887.17
644.819	10782.73
645.012	10786.82
645.205	10774.53
645.398	10663.94
645.591	10536.97
645.784	10637.32
645.977	10532.87
646.17	10387.47
646.363	10117.14
646.556	10082.32
646.749	10149.9
646.942	10264.59
647.135	9883.67
647.328	10065.94
647.521	9787.41
647.714	9793.56
647.907	9719.83
648.099	9658.39
648.292	9736.21
648.485	9705.49
648.678	9461.79
648.871	9312.28
649.064	9211.93
649.256	9377.82
649.449	9316.38
649.642	9205.79
649.835	9089.06
650.027	9023.52
650.22	9113.63
650.413	9027.62
650.605	9064.48
650.798	9144.35
650.991	8945.7
651.183	8892.45
651.376	8687.65
651.568	9062.43
651.761	8753.19
651.954	8679.46
652.146	8706.09
652.339	8523.82
652.531	8450.09
652.724	8489
652.916	8400.94
653.109	8339.5
653.301	8142.89
653.494	8259.63
653.686	8091.7
653.879	8161.33
654.071	8142.89
654.263	8118.32
654.456	8001.58
654.648	8071.22
654.84	7890.99
655.033	7829.56
655.225	7821.36
655.417	7985.2
655.61	7866.42
655.802	7780.4
655.994	7602.23
656.186	7704.63
656.379	7520.31
656.571	7645.24
656.763	7520.31
656.955	7393.34
657.148	7567.42
657.34	7381.05
657.532	7372.86
657.724	7295.04
657.916	7315.52
658.108	7235.64
658.3	7149.63
658.492	7057.47
658.684	7080
658.876	7090.24
659.068	7094.33
659.26	6856.77
659.452	6912.07
659.644	7008.32
659.836	6910.02
660.028	6793.28
660.22	6783.04
660.412	6830.15
660.604	6625.35
660.796	6705.22
660.988	6551.62
661.18	6473.8
661.372	6424.65
661.563	6617.16
661.755	6533.19
661.947	6647.88
662.139	6479.94
662.331	6449.22
662.522	6434.89
662.714	6250.57
662.906	6293.58
663.097	6074.45
663.289	6174.8
663.481	6031.44
663.673	6096.97
663.864	5974.1
664.056	6058.06
664.247	6053.97
664.439	6064.21
664.631	5986.38
664.822	5980.24
665.014	5707.86
665.205	5888.08
665.397	5793.87
665.588	5879.89
665.78	5746.77
665.971	5666.9
666.163	5836.88
666.354	5720.15
666.546	5664.85
666.737	5513.3
666.929	5584.98
667.12	5484.63
667.311	5607.51
667.503	5580.89
667.694	5427.29
667.885	5535.83
668.077	5509.21
668.268	5498.97
668.459	5478.49
668.651	5343.32
668.842	5455.96
669.033	5298.27
669.224	5331.03
669.416	5281.88
669.607	5257.31
669.798	5378.14
669.989	5408.86
670.18	5351.51
670.371	5234.78
670.563	4954.21
670.754	5218.4
670.945	4986.97
671.136	5156.96
671.327	4913.25
671.518	5099.61
671.709	4964.45
671.9	5156.96
672.091	5011.55
672.282	4943.97
672.473	5058.65
672.664	4970.59
672.855	4831.33
673.046	4890.72
673.237	4857.95
673.428	4984.93
673.619	4860
673.809	4907.1
674	4853.86
674.191	4870.24
674.382	4741.22
674.573	4786.27
674.764	4771.94
674.954	4759.65
675.145	4751.46
675.336	4841.57
675.527	4585.57
675.717	4784.23
675.908	4663.4
676.099	4692.07
676.289	4765.79
676.48	4753.51
676.671	4804.71
676.861	4714.59
677.052	4546.66
677.243	4507.75
677.433	4587.62
677.624	4595.81
677.814	4597.86
678.005	4595.81
678.195	4706.4
678.386	4663.4
678.576	4741.22
678.767	4554.85
678.957	4591.72
679.148	4591.72
679.338	4505.7
679.529	4499.56
679.719	4622.44
679.909	4382.82
680.1	4561
680.29	4638.82
680.481	4632.68
680.671	4395.11
680.861	4585.57
681.052	4421.74
681.242	4548.71
681.432	4456.55
681.622	4460.65
681.813	4507.75
682.003	4565.09
682.193	4403.3
682.383	4483.17
682.573	4544.61
682.764	4524.13
682.954	4468.84
683.144	4341.86
683.334	4442.21
683.524	4413.54
683.714	4421.74
683.904	4524.13
684.094	4309.1
684.284	4436.07
684.474	4528.23
684.664	4479.08
684.854	4421.74
685.044	4540.52
685.234	4290.67
685.424	4343.91
685.614	4370.54
685.804	4286.57
685.994	4472.93
686.184	4384.87
686.374	4350.06
686.564	4358.25
686.753	4202.6
686.943	4137.07
687.133	4405.35
687.323	4313.19
687.513	4305
687.702	4223.08
687.892	4208.75
688.082	4208.75
688.272	4139.12
688.461	4200.55
688.651	4257.9
688.841	4161.64
689.03	4106.35
689.22	4151.4
689.41	3987.57
689.599	4128.88
689.789	4178.03
689.979	4087.92
690.168	4085.87
690.358	4079.72
690.547	4022.38
690.737	4214.89
690.926	4124.78
691.116	3895.41
691.305	4010.09
691.495	3944.56
691.684	4012.14
691.874	4006
692.063	4008.05
692.252	3987.57
692.442	3989.61
692.631	3883.12
692.82	3989.61
693.01	3922.03
693.199	4100.2
693.388	3930.22
693.578	3844.21
693.767	4087.92
693.956	3874.93
694.146	3901.55
694.335	3860.59
694.524	3852.4
694.713	3911.79
694.902	3901.55
695.092	3899.5
695.281	3924.08
695.47	3793.01
695.659	3833.97
695.848	3807.34
696.037	3856.5
696.226	3950.7
696.415	3635.32
696.604	3795.06
696.793	3866.74
696.982	3903.6
697.171	3883.12
697.36	3725.43
697.549	3899.5
697.738	3672.18
697.927	3760.24
698.116	3860.59
698.305	3799.15
698.494	3836.02
698.683	3811.44
698.872	3645.56
699.061	3711.09
699.25	3727.47
699.438	3657.84
699.627	3911.79
699.816	3704.95
700.005	3719.28
700.193	3690.61
700.382	3706.99
700.571	3629.17
700.76	3780.72
700.948	3647.6
701.137	3760.24
701.326	3747.95
701.514	3647.6
701.703	3606.64
701.892	3635.32
702.08	3727.47
702.269	3549.3
702.457	3569.78
702.646	3623.03
702.834	3637.36
703.023	3588.21
703.212	3631.22
703.4	3739.76
703.589	3641.46
703.777	3684.47
703.965	3475.57
704.154	3461.24
704.342	3543.16
704.531	3537.01
704.719	3446.9
704.907	3596.4
705.096	3502.2
705.284	3594.36
705.472	3506.29
705.661	3399.8
705.849	3530.87
706.037	3401.85
706.226	3387.51
706.414	3436.66
706.602	3397.75
706.79	3477.62
706.979	3500.15
707.167	3410.04
707.355	3518.58
707.543	3459.19
707.731	3352.7
707.919	3321.98
708.107	3418.23
708.296	3330.17
708.484	3311.74
708.672	3324.02
708.86	3295.35
709.048	3362.94
709.236	3240.06
709.424	3342.46
709.612	3332.22
709.8	3293.3
709.988	3231.87
710.176	3338.36
710.364	3223.67
710.551	3219.58
710.739	3283.06
710.927	3149.95
711.115	3049.6
711.303	3182.71
711.491	3127.42
711.679	3068.03
711.866	3207.29
712.054	3231.87
712.242	3059.84
712.43	3168.38
712.617	3111.04
712.805	3074.17
712.993	3125.37
713.181	3076.22
713.368	3100.8
713.556	2918.53
713.744	3008.64
713.931	3184.76
714.119	3129.47
714.306	3074.17
714.494	3047.55
714.682	3029.12
714.869	3180.67
715.057	3076.22
715.244	2977.92
715.432	2965.63
715.619	2988.16
715.807	2994.3
715.994	2941.05
716.182	2869.37
716.369	2977.92
716.556	2945.15
716.744	2869.37
716.931	2951.29
717.119	2861.18
717.306	2791.55
717.493	2934.91
717.681	2879.61
717.868	2930.81
718.055	2760.83
718.242	2758.78
718.43	2807.94
718.617	2791.55
718.804	2818.18
718.991	2752.64
719.179	2822.27
719.366	2773.12
719.553	2791.55
719.74	2721.92
719.927	2775.17
720.114	2799.74
720.301	2775.17
720.488	2635.91
720.676	2713.73
720.863	2781.31
721.05	2625.67
721.237	2576.52
721.424	2748.54
721.611	2719.87
721.798	2689.15
721.985	2586.76
722.172	2717.83
722.358	2697.35
722.545	2566.28
722.732	2476.16
722.919	2625.67
723.106	2543.75
723.293	2637.95
723.48	2611.33
723.667	2605.19
723.853	2564.23
724.04	2506.88
724.227	2556.04
724.414	2619.52
724.6	2449.54
724.787	2416.77
724.974	2527.36
725.161	2504.84
725.347	2416.77
725.534	2586.76
725.72	2607.23
725.907	2463.88
726.094	2455.69
726.28	2420.87
726.467	2416.77
726.653	2463.88
726.84	2547.84
727.027	2490.5
727.213	2353.29
727.4	2480.26
727.586	2381.96
727.773	2289.8
727.959	2388.1
728.145	2422.92
728.332	2367.62
728.518	2330.76
728.705	2338.95
728.891	2338.95
729.077	2453.64
729.264	2341
729.45	2386.05
729.636	2269.32
729.823	2242.7
730.009	2349.19
730.195	2181.26
730.382	2361.48
730.568	2390.15
730.754	2306.18
730.94	2238.6
731.126	2289.8
731.313	2351.24
731.499	2293.9
731.685	2314.38
731.871	2257.03
732.057	2250.89
732.243	2234.5
732.429	2189.45
732.615	2304.14
732.801	2113.67
732.987	2183.31
733.173	2234.5
733.359	2166.92
733.545	2138.25
733.731	2089.1
733.917	2173.07
734.103	2205.83
734.289	2179.21
734.475	2148.49
734.661	2076.81
734.847	2185.35
735.033	2078.86
735.219	2230.41
735.404	2119.82
735.59	2103.43
735.776	2050.19
735.962	2066.57
736.148	2117.77
736.333	2076.81
736.519	2019.47
736.705	2056.33
736.89	1984.65
737.076	2085
737.262	1947.79
737.447	2039.95
737.633	2089.1
737.819	2099.34
738.004	1949.84
738.19	2021.52
738.375	1982.6
738.561	2068.62
738.747	1966.22
738.932	1894.54
739.118	2048.14
739.303	1882.25
739.489	1949.84
739.674	1890.45
739.859	1872.01
740.045	2113.67
740.23	1937.55
740.416	1843.34
740.601	1960.08
740.786	1931.41
740.972	1945.74
741.157	1876.11
741.342	1820.81
741.528	1806.48
741.713	1919.12
741.898	1777.81
742.084	1867.92
742.269	1783.95
742.454	1874.06
742.639	1908.88
742.824	1771.66
743.01	1884.3
743.195	1908.88
743.38	1845.39
743.565	1708.18
743.75	1769.62
743.935	1695.89
744.12	1781.9
744.305	1699.98
744.49	1726.61
744.675	1747.09
744.86	1728.66
745.045	1702.03
745.23	1740.94
745.415	1708.18
745.6	1757.33
745.785	1742.99
745.97	1681.55
746.155	1665.17
746.34	1652.88
746.525	1626.26
746.71	1593.49
746.895	1566.87
747.079	1652.88
747.264	1573.01
747.449	1591.44
747.634	1552.53
747.819	1515.67
748.003	1558.67
748.188	1542.29
748.373	1474.71
748.557	1489.04
748.742	1542.29
748.927	1530
749.111	1474.71
749.296	1472.66
749.481	1534.1
749.665	1431.7
749.85	1441.94
750.034	1540.24
750.219	1505.43
750.404	1312.92
750.588	1482.9
750.773	1431.7
750.957	1384.6
751.141	1439.89
751.326	1407.13
751.51	1302.68
751.695	1353.88
751.879	1370.26
752.064	1331.35
752.248	1327.25
752.432	1341.59
752.617	1304.73
752.801	1364.12
752.985	1345.69
753.17	1298.58
753.354	1261.72
753.538	1222.81
753.722	1319.06
753.907	1190.04
754.091	1253.53
754.275	1224.86
754.459	1249.43
754.643	1243.29
754.828	1192.09
755.012	1218.71
755.196	1171.61
755.38	1196.18
755.564	1228.95
755.748	1114.27
755.932	1206.42
756.116	1144.99
756.3	1120.41
756.484	1054.87
756.668	1196.18
756.852	1124.51
757.036	1130.65
757.22	1118.36
757.404	1161.37
757.588	1015.96
757.772	1065.11
757.956	979.1
758.14	1071.26
758.323	1028.25
758.507	1038.49
758.691	1015.96
758.875	975
759.059	1052.83
759.242	1011.87
759.426	975
759.61	1073.31
759.794	979.1
759.977	995.48
760.161	989.34
760.345	1028.25
760.528	927.9
760.712	966.81
760.895	960.67
761.079	946.33
761.263	1013.92
761.446	929.95
761.63	946.33
761.813	991.39
761.997	927.9
762.18	944.28
762.364	917.66
762.547	946.33
762.731	975
762.914	888.99
763.098	868.51
763.281	872.61
763.464	796.83
763.648	927.9
763.831	915.61
764.015	895.13
764.198	911.52
764.381	805.02
764.564	952.48
764.748	845.98
764.931	813.21
765.114	845.98
765.297	831.65
765.481	817.31
765.664	897.18
765.847	852.13
766.03	856.22
766.213	899.23
766.397	837.79
766.58	792.73
766.763	831.65
766.946	802.97
767.129	757.92
767.312	790.69
767.495	778.4
767.678	811.17
767.861	825.5
768.044	819.36
768.227	788.64
768.41	809.12
768.593	798.88
768.776	735.39
768.959	823.45
769.142	800.93
769.324	788.64
769.507	807.07
769.69	819.36
769.873	743.58
770.056	768.16
770.239	815.26
770.421	712.86
770.604	731.3
770.787	630.95
770.97	733.34
771.152	686.24
771.335	774.3
771.518	749.73
771.7	729.25
771.883	680.1
772.066	716.96
772.248	721.06
772.431	716.96
772.613	698.53
772.796	669.86
772.978	643.23
773.161	737.44
773.343	671.9
773.526	663.71
773.708	649.38
773.891	649.38
774.073	655.52
774.256	676
774.438	665.76
774.621	587.94
774.803	653.47
774.985	645.28
775.168	592.03
775.35	643.23
775.532	612.51
775.715	641.18
775.897	563.36
776.079	553.12
776.261	575.65
776.444	571.55
776.626	661.66
776.808	551.07
776.99	635.04
777.173	612.51
777.355	657.57
777.537	589.99
777.719	561.31
777.901	585.89
778.083	579.75
778.265	524.45
778.447	571.55
778.629	592.03
778.811	555.17
778.993	626.85
779.175	544.93
779.357	495.78
779.539	467.11
779.721	528.55
779.903	522.4
780.085	430.24
780.267	559.27
780.449	551.07
780.631	553.12
780.812	542.88
780.994	534.69
781.176	483.49
781.358	473.25
781.54	493.73
781.721	526.5
781.903	501.92
782.085	481.44
782.267	485.54
782.448	506.02
782.63	436.39
782.812	532.64
782.993	391.33
783.175	452.77
783.357	444.58
783.538	428.2
783.72	391.33
783.901	354.47
784.083	444.58
784.264	460.96
784.446	417.96
784.627	438.44
784.809	434.34
784.99	434.34
785.172	444.58
785.353	438.44
785.535	438.44
785.716	440.48
785.897	395.43
786.079	364.71
786.26	366.76
786.441	401.57
786.623	307.37
786.804	344.23
786.985	403.62
787.167	381.09
787.348	374.95
787.529	356.52
787.71	391.33
787.891	385.19
788.073	327.85
788.254	315.56
788.435	317.61
788.616	299.17
788.797	329.89
788.978	313.51
789.159	297.13
789.34	356.52
789.522	295.08
789.703	385.19
789.884	231.59
790.065	290.98
790.246	307.37
790.427	284.84
790.607	368.81
790.788	374.95
790.969	325.8
791.15	450.72
791.331	297.13
791.512	319.65
791.693	258.21
791.874	278.69
792.054	297.13
792.235	323.75
792.416	329.89
792.597	329.89
792.778	264.36
792.958	354.47
793.139	274.6
793.32	305.32
793.5	307.37
793.681	282.79
793.862	342.18
794.042	297.13
794.223	307.37
794.404	325.8
794.584	215.21
794.765	323.75
794.945	260.26
795.126	254.12
795.306	254.12
795.487	327.85
795.667	313.51
795.848	270.5
796.028	260.26
796.209	243.88
796.389	243.88
796.57	227.5
796.75	286.89
796.93	198.82
797.111	266.41
797.291	239.78
797.471	243.88
797.652	250.02
797.832	258.21
798.012	241.83
798.192	209.06
798.373	227.5
798.553	219.3
798.733	207.02
798.913	245.93
799.093	184.49
799.274	258.21
799.454	239.78
799.634	180.39
799.814	321.7
799.994	262.31
800.174	239.78
800.354	299.17
800.534	102.57
800.714	190.63
800.894	247.97
801.074	219.3
801.254	196.78
801.434	229.54
801.614	233.64
801.794	147.62
801.974	639.14
802.154	180.39
802.334	180.39
802.514	229.54
802.693	178.34
802.873	133.29
803.053	223.4
803.233	241.83
803.413	243.88
803.592	229.54
803.772	182.44
803.952	180.39
804.131	180.39
804.311	225.45
804.491	217.26
804.67	139.43
804.85	188.58
805.03	198.82
805.209	215.21
805.389	149.67
805.568	200.87
805.748	153.77
805.928	172.2
806.107	155.82
806.287	227.5
806.466	223.4
806.646	145.58
806.825	190.63
807.004	133.29
807.184	121
807.363	174.25
807.543	168.1
807.722	227.5
807.901	153.77
808.081	233.64
808.26	141.48
808.439	184.49
808.619	131.24
808.798	114.86
808.977	116.9
809.156	211.11
809.336	149.67
809.515	254.12
809.694	135.34
809.873	209.06
810.052	190.63
810.231	147.62
810.411	227.5
810.59	196.78
810.769	39.08
810.948	161.96
811.127	121
811.306	104.62
811.485	168.1
811.664	215.21
811.843	43.18
812.022	157.86
812.201	121
812.38	121
812.559	116.9
812.737	139.43
812.916	149.67
813.095	145.58
813.274	121
813.453	143.53
813.632	182.44
813.811	170.15
813.989	123.05
814.168	110.76
814.347	92.33
814.526	88.23
814.704	190.63
814.883	149.67
815.062	57.51
815.24	135.34
815.419	141.48
815.598	159.91
815.776	47.27
815.955	211.11
816.133	8.36
816.312	186.54
816.49	110.76
816.669	143.53
816.847	92.33
817.026	73.9
817.204	116.9
817.383	80.04
817.561	43.18
817.74	69.8
817.918	121
818.097	63.66
818.275	180.39
818.453	182.44
818.632	149.67
818.81	121
818.988	141.48
819.167	53.42
819.345	114.86
819.523	174.25
819.701	157.86
819.879	127.14
820.058	121
820.236	147.62
820.414	51.37
820.592	135.34
820.77	164.01
820.948	61.61
821.127	94.38
821.305	186.54
821.483	59.56
821.661	170.15
821.839	47.27
822.017	174.25
822.195	82.09
822.373	112.81
822.551	104.62
822.729	114.86
822.907	47.27
823.085	28.84
823.262	26.79
823.44	82.09
823.618	131.24
823.796	63.66
823.974	116.9
824.152	188.58
824.329	104.62
824.507	98.47
824.685	106.67
824.863	55.47
825.04	102.57
825.218	131.24
825.396	55.47
825.574	114.86
825.751	75.95
825.929	75.95
826.107	84.14
826.284	125.1
826.462	77.99
826.639	51.37
826.817	131.24
826.994	53.42
827.172	47.27
827.349	180.39
827.527	82.09
827.704	125.1
827.882	18.6
828.059	92.33
828.237	186.54
828.414	80.04
828.591	-12.12
828.769	141.48
828.946	53.42
829.124	123.05
829.301	57.51
829.478	80.04
829.655	131.24
829.833	94.38
830.01	104.62
830.187	155.82
830.364	37.03
830.542	100.52
830.719	98.47
830.896	20.65
831.073	84.14
831.25	69.8
831.427	77.99
831.604	190.63
831.782	47.27
831.959	116.9
832.136	0.17
832.313	94.38
832.49	84.14
832.667	129.19
832.844	41.13
833.021	51.37
833.198	63.66
833.374	123.05
833.551	49.32
833.728	135.34
833.905	121
834.082	71.85
834.259	133.29
834.436	137.38
834.612	45.23
834.789	118.95
834.966	41.13
835.143	75.95
835.319	59.56
835.496	114.86
835.673	28.84
835.85	4.27
836.026	77.99
836.203	57.51
836.38	59.56
836.556	84.14
836.733	69.8
836.909	141.48
837.086	108.71
837.262	63.66
837.439	30.89
837.616	90.28
837.792	53.42
837.968	100.52
838.145	77.99
838.321	125.1
838.498	47.27
838.674	51.37
838.851	100.52
839.027	24.75
839.203	37.03
839.38	106.67
839.556	30.89
839.732	49.32
839.909	59.56
840.085	80.04
840.261	28.84
840.437	65.71
840.614	143.53
840.79	94.38
840.966	63.66
841.142	118.95
841.318	67.75
841.494	43.18
841.671	57.51
841.847	88.23
842.023	-8.02
842.199	102.57
842.375	73.9
842.551	67.75
842.727	16.55
842.903	28.84
843.079	22.7
843.255	96.43
843.431	57.51
843.607	145.58
843.783	37.03
843.959	92.33
844.134	10.41
844.31	129.19
844.486	-36.69
844.662	84.14
844.838	63.66
845.013	39.08
845.189	69.8
845.365	53.42
845.541	53.42
845.716	43.18
845.892	147.62
846.068	51.37
846.244	10.41
846.419	61.61
846.595	32.94
846.77	14.51
846.946	98.47
847.122	37.03
847.297	8.36
847.473	12.46
847.648	-10.07
847.824	116.9
847.999	-26.45
848.175	82.09
848.35	114.86
848.526	71.85
848.701	100.52
848.876	-24.4
849.052	157.86
849.227	51.37
849.403	92.33
849.578	34.99
849.753	86.19
849.929	61.61
850.104	-42.84
850.279	168.1
850.454	86.19
850.63	61.61
850.805	77.99
850.98	30.89
851.155	55.47
851.33	94.38
851.505	77.99
851.681	59.56
851.856	10.41
852.031	108.71
852.206	98.47
852.381	6.31
852.556	32.94
852.731	22.7
852.906	47.27
853.081	51.37
853.256	73.9
853.431	84.14
853.606	34.99
853.781	41.13
853.956	-46.93
854.131	63.66
854.305	-1.88
854.48	26.79
854.655	-3.93
854.83	41.13
855.005	20.65
855.18	14.51
855.354	71.85
855.529	47.27
855.704	20.65
855.879	28.84
856.053	57.51
856.228	100.52
856.403	-46.93
856.577	69.8
856.752	53.42
856.926	67.75
857.101	67.75
857.276	43.18
857.45	26.79
857.625	67.75
857.799	59.56
857.974	26.79
858.148	-24.4
858.323	94.38
858.497	10.41
858.672	102.57
858.846	-16.21
859.02	57.51
859.195	-1.88
859.369	10.41
859.543	26.79
859.718	59.56
859.892	28.84
860.066	65.71
860.241	14.51
860.415	96.43
860.589	63.66
860.763	82.09
860.938	-22.36
861.112	75.95
861.286	45.23
861.46	4.27
861.634	34.99
861.808	75.95
861.982	4.27
862.157	80.04
862.331	63.66
862.505	14.51
862.679	12.46
862.853	12.46
863.027	2.22
863.201	65.71
863.375	4.27
863.549	30.89
863.722	51.37
863.896	59.56
864.07	-55.12
864.244	-10.07
864.418	55.47
864.592	49.32
864.766	-14.17
864.939	94.38
865.113	-20.31
865.287	65.71
865.461	-20.31
865.634	14.51
865.808	24.75
865.982	-1.88
866.156	53.42
866.329	-22.36
866.503	92.33
866.676	51.37
866.85	39.08
867.024	32.94
867.197	39.08
867.371	16.55
867.544	0.17
867.718	-22.36
867.891	39.08
868.065	90.28
868.238	84.14
868.412	63.66
868.585	-30.55
868.759	-34.64
868.932	10.41
869.105	43.18
869.279	6.31
869.452	39.08
869.625	20.65
869.799	20.65
869.972	12.46
870.145	114.86
870.319	26.79
870.492	6.31
870.665	69.8
870.838	39.08
871.011	14.51
871.185	47.27
871.358	-14.17
871.531	49.32
871.704	-26.45
871.877	20.65
872.05	34.99
872.223	49.32
872.396	65.71
872.569	2.22
872.742	49.32
872.915	6.31
873.088	-34.64
873.261	-44.88
873.434	-3.93
873.607	41.13
873.78	-53.08
873.953	-51.03
874.126	28.84
874.299	-20.31
874.471	75.95
874.644	43.18
874.817	30.89
874.99	51.37
875.163	-5.97
875.335	-22.36
875.508	18.6
875.681	69.8
875.853	-24.4
876.026	159.91
876.199	32.94
876.371	34.99
876.544	-44.88
876.717	-69.46
876.889	-34.64
877.062	8.36
877.234	-30.55
877.407	-14.17
877.579	53.42
877.752	90.28
877.924	63.66
878.097	45.23
878.269	32.94
878.442	67.75
878.614	0.17
878.786	45.23
878.959	-26.45
879.131	67.75
879.303	-71.51
879.476	55.47
879.648	77.99
879.82	10.41
879.993	45.23
880.165	59.56
880.337	-132.95
880.509	121
880.681	41.13
880.854	43.18
881.026	86.19
881.198	-18.26
881.37	6.31
881.542	-14.17
881.714	28.84
881.886	63.66
882.058	-20.31
882.23	116.9
882.402	-22.36
882.574	90.28
882.746	0.17
882.918	-30.55
883.09	41.13
883.262	34.99
883.434	-3.93
883.606	-30.55
883.778	59.56
883.95	39.08
884.122	0.17
884.293	84.14
884.465	57.51
884.637	61.61
884.809	-30.55
884.98	-30.55
885.152	55.47
885.324	30.89
885.496	63.66
885.667	20.65
885.839	-22.36
886.011	71.85
886.182	57.51
886.354	57.51
886.525	53.42
886.697	18.6
886.869	-32.6
887.04	84.14
887.212	133.29
887.383	-1.88
887.555	43.18
887.726	26.79
887.897	41.13
888.069	-10.07
888.24	-14.17
888.412	-8.02
888.583	-26.45
888.754	55.47
888.926	-38.74
889.097	-36.69
889.268	-65.36
889.44	39.08
889.611	10.41
889.782	-32.6
889.953	-10.07
890.125	26.79
890.296	-12.12
890.467	-14.17
890.638	71.85
890.809	18.6
890.98	-20.31
891.151	45.23
891.323	2.22
891.494	8.36
891.665	14.51
891.836	-32.6
892.007	39.08
892.178	10.41
892.349	32.94
892.52	34.99
892.691	32.94
892.862	28.84
893.032	-81.75
893.203	73.9
893.374	-34.64
893.545	4.27
893.716	-14.17
893.887	43.18
894.057	24.75
894.228	16.55
894.399	45.23
894.57	55.47
894.74	-38.74
894.911	28.84
895.082	65.71
895.253	24.75
895.423	12.46
895.594	41.13
895.764	16.55
895.935	51.37
896.106	53.42
896.276	2.22
896.447	57.51
896.617	-57.17
896.788	-67.41
896.958	6.31
897.129	-5.97
897.299	-61.27
897.47	63.66
897.64	30.89
897.81	32.94
897.981	8.36
898.151	-1.88
898.322	30.89
898.492	-51.03
898.662	28.84
898.832	-12.12
899.003	16.55
899.173	0.17
899.343	-34.64
899.513	-1.88
