Data from USB4F104151__73__12-36-45-474.txt Node

Date: Fri Mar 14 12:36:45 EDT 2025
User: louis
Spectrometer: USB4F10415
Trigger mode: 4
Integration Time (sec): 2.000000E-2
Scans to average: 1
Electric dark correction enabled: true
Nonlinearity correction enabled: false
Boxcar width: 0
XAxis mode: Wavelengths
Number of Pixels in Spectrum: 3648
>>>>>Begin Spectral Data<<<<<
178.204	-84.82
178.424	-84.82
178.644	-84.82
178.864	-127.83
179.084	-37.72
179.304	-43.86
179.524	42.15
179.744	-45.91
179.964	91.31
180.184	-17.24
180.404	-13.14
180.624	-27.48
180.844	19.63
181.064	-27.48
181.283	64.68
181.503	-68.44
181.723	25.77
181.943	19.63
182.163	33.96
182.383	-39.76
182.602	111.78
182.822	58.54
183.042	60.59
183.262	-78.68
183.482	1.19
183.701	-29.52
183.921	36.01
184.141	56.49
184.361	93.35
184.58	-13.14
184.8	64.68
185.02	-103.25
185.239	19.63
185.459	40.11
185.679	17.58
185.898	-39.76
186.118	62.63
186.338	36.01
186.557	31.91
186.777	-50
186.997	-4.95
187.216	1.19
187.436	40.11
187.655	33.96
187.875	74.92
188.095	19.63
188.314	93.35
188.534	19.63
188.753	68.78
188.973	33.96
189.192	52.39
189.412	-29.52
189.631	101.55
189.851	-7
190.07	91.31
190.29	105.64
190.509	52.39
190.729	3.24
190.948	52.39
191.168	136.36
191.387	38.06
191.607	36.01
191.826	-9.05
192.045	76.97
192.265	25.77
192.484	40.11
192.704	-27.48
192.923	-64.34
193.142	36.01
193.362	95.4
193.581	27.82
193.8	60.59
194.02	70.83
194.239	-11.09
194.458	-9.05
194.678	-21.33
194.897	-9.05
195.116	19.63
195.335	-74.58
195.555	21.67
195.774	42.15
195.993	99.5
196.212	52.39
196.432	-9.05
196.651	9.39
196.87	7.34
197.089	50.35
197.308	-4.95
197.528	38.06
197.747	15.53
197.966	-25.43
198.185	85.16
198.404	52.39
198.623	17.58
198.842	87.21
199.062	50.35
199.281	-2.9
199.5	-7
199.719	7.34
199.938	-9.05
200.157	70.83
200.376	23.72
200.595	85.16
200.814	-15.19
201.033	44.2
201.252	99.5
201.471	17.58
201.69	38.06
201.909	1.19
202.128	48.3
202.347	50.35
202.566	-2.9
202.785	1.19
203.004	13.48
203.223	81.07
203.442	44.2
203.661	-13.14
203.879	25.77
204.098	-17.24
204.317	1.19
204.536	48.3
204.755	62.63
204.974	25.77
205.193	52.39
205.411	21.67
205.63	38.06
205.849	136.36
206.068	31.91
206.287	72.87
206.505	21.67
206.724	-4.95
206.943	-7
207.162	7.34
207.381	23.72
207.599	15.53
207.818	31.91
208.037	36.01
208.255	-56.15
208.474	-56.15
208.693	50.35
208.911	1.19
209.13	48.3
209.349	89.26
209.567	33.96
209.786	29.87
210.005	89.26
210.223	128.17
210.442	21.67
210.661	60.59
210.879	-33.62
211.098	-23.38
211.316	48.3
211.535	54.44
211.753	54.44
211.972	-11.09
212.191	79.02
212.409	-29.52
212.628	36.01
212.846	13.48
213.065	-4.95
213.283	107.69
213.502	-39.76
213.72	38.06
213.938	56.49
214.157	83.11
214.375	-72.53
214.594	-9.05
214.812	70.83
215.031	7.34
215.249	48.3
215.467	17.58
215.686	79.02
215.904	-39.76
216.122	27.82
216.341	-2.9
216.559	70.83
216.778	11.43
216.996	99.5
217.214	42.15
217.432	-7
217.651	62.63
217.869	27.82
218.087	11.43
218.306	54.44
218.524	29.87
218.742	15.53
218.96	122.02
219.179	19.63
219.397	46.25
219.615	38.06
219.833	50.35
220.051	23.72
220.27	31.91
220.488	-2.9
220.706	19.63
220.924	-13.14
221.142	68.78
221.36	13.48
221.578	79.02
221.796	36.01
222.015	46.25
222.233	40.11
222.451	122.02
222.669	50.35
222.887	1.19
223.105	-0.85
223.323	52.39
223.541	13.48
223.759	-21.33
223.977	42.15
224.195	81.07
224.413	-23.38
224.631	50.35
224.849	-15.19
225.067	62.63
225.285	-86.87
225.503	68.78
225.721	13.48
225.939	62.63
226.157	-13.14
226.375	-13.14
226.592	-60.24
226.81	109.74
227.028	-0.85
227.246	11.43
227.464	101.55
227.682	29.87
227.9	-19.29
228.117	11.43
228.335	-7
228.553	83.11
228.771	23.72
228.989	42.15
229.206	13.48
229.424	-43.86
229.642	15.53
229.86	36.01
230.077	50.35
230.295	27.82
230.513	72.87
230.731	68.78
230.948	83.11
231.166	-4.95
231.384	9.39
231.601	58.54
231.819	31.91
232.037	-31.57
232.254	42.15
232.472	40.11
232.689	-27.48
232.907	21.67
233.125	33.96
233.342	15.53
233.56	33.96
233.777	19.63
233.995	5.29
234.213	-23.38
234.43	-39.76
234.648	44.2
234.865	-15.19
235.083	64.68
235.3	-66.39
235.518	44.2
235.735	76.97
235.953	27.82
236.17	-43.86
236.388	1.19
236.605	42.15
236.822	40.11
237.04	-2.9
237.257	-2.9
237.475	17.58
237.692	122.02
237.909	54.44
238.127	27.82
238.344	11.43
238.562	79.02
238.779	15.53
238.996	21.67
239.214	-4.95
239.431	40.11
239.648	15.53
239.865	11.43
240.083	7.34
240.3	54.44
240.517	33.96
240.735	13.48
240.952	-2.9
241.169	89.26
241.386	21.67
241.603	-2.9
241.821	-33.62
242.038	70.83
242.255	83.11
242.472	56.49
242.689	68.78
242.907	1.19
243.124	44.2
243.341	3.24
243.558	-33.62
243.775	54.44
243.992	40.11
244.209	46.25
244.426	113.83
244.643	21.67
244.86	-13.14
245.078	36.01
245.295	-0.85
245.512	40.11
245.729	29.87
245.946	38.06
246.163	54.44
246.38	52.39
246.597	11.43
246.814	62.63
247.031	7.34
247.248	13.48
247.464	-2.9
247.681	31.91
247.898	33.96
248.115	117.93
248.332	85.16
248.549	40.11
248.766	66.73
248.983	46.25
249.2	31.91
249.417	19.63
249.633	-21.33
249.85	50.35
250.067	29.87
250.284	-2.9
250.501	85.16
250.717	97.45
250.934	7.34
251.151	70.83
251.368	21.67
251.585	-0.85
251.801	-25.43
252.018	38.06
252.235	46.25
252.451	-13.14
252.668	-25.43
252.885	5.29
253.102	29.87
253.318	38.06
253.535	44.2
253.752	50.35
253.968	38.06
254.185	5.29
254.401	33.96
254.618	11.43
254.835	25.77
255.051	52.39
255.268	105.64
255.484	44.2
255.701	44.2
255.917	136.36
256.134	-23.38
256.351	3.24
256.567	1.19
256.784	42.15
257	-13.14
257.217	56.49
257.433	58.54
257.65	21.67
257.866	-0.85
258.082	68.78
258.299	-11.09
258.515	23.72
258.732	50.35
258.948	1.19
259.165	11.43
259.381	56.49
259.597	-0.85
259.814	-93.01
260.03	-47.96
260.246	54.44
260.463	48.3
260.679	-9.05
260.895	68.78
261.112	74.92
261.328	-41.81
261.544	13.48
261.761	115.88
261.977	23.72
262.193	-17.24
262.409	17.58
262.626	54.44
262.842	146.6
263.058	-27.48
263.274	50.35
263.49	-60.24
263.707	72.87
263.923	29.87
264.139	-27.48
264.355	-45.91
264.571	40.11
264.787	76.97
265.004	62.63
265.22	1.19
265.436	-58.2
265.652	-4.95
265.868	1.19
266.084	-4.95
266.3	40.11
266.516	17.58
266.732	21.67
266.948	44.2
267.164	38.06
267.38	33.96
267.596	36.01
267.812	-4.95
268.028	101.55
268.244	3.24
268.46	85.16
268.676	-25.43
268.892	58.54
269.108	1.19
269.324	64.68
269.54	-7
269.756	23.72
269.972	25.77
270.188	17.58
270.403	17.58
270.619	-47.96
270.835	19.63
271.051	64.68
271.267	3.24
271.483	66.73
271.698	5.29
271.914	52.39
272.13	17.58
272.346	-11.09
272.562	99.5
272.777	101.55
272.993	70.83
273.209	44.2
273.425	15.53
273.64	-4.95
273.856	15.53
274.072	58.54
274.287	36.01
274.503	85.16
274.719	-23.38
274.934	31.91
275.15	36.01
275.366	36.01
275.581	-17.24
275.797	11.43
276.012	15.53
276.228	-23.38
276.444	68.78
276.659	54.44
276.875	60.59
277.09	93.35
277.306	33.96
277.521	-15.19
277.737	17.58
277.952	-27.48
278.168	56.49
278.383	-56.15
278.599	13.48
278.814	105.64
279.03	-0.85
279.245	91.31
279.461	42.15
279.676	36.01
279.892	-35.67
280.107	15.53
280.322	-15.19
280.538	40.11
280.753	76.97
280.969	60.59
281.184	3.24
281.399	21.67
281.615	72.87
281.83	50.35
282.045	23.72
282.26	-58.2
282.476	48.3
282.691	-9.05
282.906	-17.24
283.122	40.11
283.337	-33.62
283.552	70.83
283.767	19.63
283.983	40.11
284.198	52.39
284.413	31.91
284.628	40.11
284.843	109.74
285.058	-2.9
285.274	-21.33
285.489	23.72
285.704	81.07
285.919	-64.34
286.134	17.58
286.349	93.35
286.564	-13.14
286.779	42.15
286.995	46.25
287.21	-21.33
287.425	68.78
287.64	33.96
287.855	27.82
288.07	68.78
288.285	-19.29
288.5	38.06
288.715	-7
288.93	17.58
289.145	46.25
289.36	-9.05
289.575	60.59
289.79	103.59
290.004	72.87
290.219	-11.09
290.434	60.59
290.649	46.25
290.864	38.06
291.079	44.2
291.294	79.02
291.509	17.58
291.724	21.67
291.938	60.59
292.153	23.72
292.368	31.91
292.583	48.3
292.798	79.02
293.012	-9.05
293.227	15.53
293.442	25.77
293.657	-9.05
293.871	36.01
294.086	-4.95
294.301	109.74
294.516	95.4
294.73	-11.09
294.945	62.63
295.16	31.91
295.374	68.78
295.589	-4.95
295.804	48.3
296.018	29.87
296.233	29.87
296.447	5.29
296.662	27.82
296.877	13.48
297.091	36.01
297.306	64.68
297.52	70.83
297.735	-11.09
297.949	-2.9
298.164	99.5
298.378	17.58
298.593	85.16
298.807	-15.19
299.022	17.58
299.236	19.63
299.451	5.29
299.665	36.01
299.88	68.78
300.094	-21.33
300.309	54.44
300.523	27.82
300.737	11.43
300.952	44.2
301.166	72.87
301.381	19.63
301.595	103.59
301.809	46.25
302.024	68.78
302.238	9.39
302.452	31.91
302.667	-15.19
302.881	126.12
303.095	13.48
303.309	87.21
303.524	42.15
303.738	56.49
303.952	83.11
304.166	46.25
304.381	7.34
304.595	91.31
304.809	19.63
305.023	11.43
305.237	-47.96
305.452	70.83
305.666	36.01
305.88	38.06
306.094	-11.09
306.308	5.29
306.522	-17.24
306.736	60.59
306.95	93.35
307.164	70.83
307.379	72.87
307.593	113.83
307.807	13.48
308.021	5.29
308.235	56.49
308.449	44.2
308.663	1.19
308.877	60.59
309.091	-19.29
309.305	21.67
309.519	-9.05
309.733	-52.05
309.947	19.63
310.161	109.74
310.374	-7
310.588	79.02
310.802	15.53
311.016	70.83
311.23	1.19
311.444	44.2
311.658	21.67
311.872	105.64
312.085	117.93
312.299	17.58
312.513	-13.14
312.727	70.83
312.941	-54.1
313.154	5.29
313.368	25.77
313.582	-7
313.796	31.91
314.009	25.77
314.223	-2.9
314.437	-21.33
314.651	31.91
314.864	25.77
315.078	17.58
315.292	44.2
315.505	83.11
315.719	70.83
315.933	62.63
316.146	68.78
316.36	-0.85
316.573	46.25
316.787	3.24
317.001	36.01
317.214	23.72
317.428	79.02
317.641	-50
317.855	76.97
318.068	17.58
318.282	25.77
318.495	70.83
318.709	99.5
318.922	40.11
319.136	31.91
319.349	9.39
319.563	-29.52
319.776	89.26
319.99	101.55
320.203	62.63
320.417	38.06
320.63	5.29
320.843	60.59
321.057	68.78
321.27	23.72
321.483	-13.14
321.697	46.25
321.91	54.44
322.124	83.11
322.337	62.63
322.55	-60.24
322.763	44.2
322.977	64.68
323.19	-23.38
323.403	68.78
323.617	70.83
323.83	19.63
324.043	54.44
324.256	81.07
324.469	-29.52
324.683	74.92
324.896	68.78
325.109	33.96
325.322	-56.15
325.535	42.15
325.748	95.4
325.962	44.2
326.175	29.87
326.388	58.54
326.601	107.69
326.814	21.67
327.027	23.72
327.24	54.44
327.453	46.25
327.666	113.83
327.879	11.43
328.092	76.97
328.305	72.87
328.518	36.01
328.731	-35.67
328.944	7.34
329.157	46.25
329.37	76.97
329.583	103.59
329.796	103.59
330.009	46.25
330.222	66.73
330.435	29.87
330.648	62.63
330.861	23.72
331.073	97.45
331.286	40.11
331.499	68.78
331.712	56.49
331.925	3.24
332.138	89.26
332.35	91.31
332.563	-23.38
332.776	52.39
332.989	25.77
333.202	83.11
333.414	19.63
333.627	109.74
333.84	-19.29
334.053	85.16
334.265	52.39
334.478	9.39
334.691	50.35
334.903	56.49
335.116	58.54
335.329	23.72
335.541	36.01
335.754	31.91
335.966	25.77
336.179	50.35
336.392	-0.85
336.604	64.68
336.817	58.54
337.029	64.68
337.242	-4.95
337.454	46.25
337.667	23.72
337.88	19.63
338.092	83.11
338.305	81.07
338.517	-7
338.729	-25.43
338.942	-0.85
339.154	40.11
339.367	-41.81
339.579	21.67
339.792	105.64
340.004	83.11
340.217	11.43
340.429	107.69
340.641	95.4
340.854	74.92
341.066	11.43
341.278	29.87
341.491	76.97
341.703	-0.85
341.915	66.73
342.128	42.15
342.34	70.83
342.552	-0.85
342.764	31.91
342.977	31.91
343.189	17.58
343.401	91.31
343.613	5.29
343.826	99.5
344.038	70.83
344.25	52.39
344.462	52.39
344.674	70.83
344.886	52.39
345.099	36.01
345.311	142.5
345.523	-33.62
345.735	3.24
345.947	56.49
346.159	-0.85
346.371	21.67
346.583	-19.29
346.795	62.63
347.007	62.63
347.219	33.96
347.431	50.35
347.643	23.72
347.855	56.49
348.067	52.39
348.279	-0.85
348.491	21.67
348.703	76.97
348.915	93.35
349.127	21.67
349.339	46.25
349.551	119.98
349.763	54.44
349.975	-50
350.187	3.24
350.399	56.49
350.61	148.65
350.822	-21.33
351.034	48.3
351.246	11.43
351.458	83.11
351.669	70.83
351.881	36.01
352.093	-17.24
352.305	119.98
352.517	11.43
352.728	50.35
352.94	40.11
353.152	70.83
353.363	-39.76
353.575	124.07
353.787	54.44
353.999	52.39
354.21	101.55
354.422	36.01
354.633	-11.09
354.845	19.63
355.057	58.54
355.268	66.73
355.48	62.63
355.692	19.63
355.903	25.77
356.115	74.92
356.326	38.06
356.538	52.39
356.749	46.25
356.961	27.82
357.172	54.44
357.384	21.67
357.595	134.31
357.807	31.91
358.018	74.92
358.23	27.82
358.441	124.07
358.653	29.87
358.864	44.2
359.075	-19.29
359.287	33.96
359.498	111.78
359.709	44.2
359.921	-11.09
360.132	50.35
360.344	-2.9
360.555	36.01
360.766	119.98
360.977	-2.9
361.189	60.59
361.4	50.35
361.611	27.82
361.823	40.11
362.034	72.87
362.245	50.35
362.456	97.45
362.667	38.06
362.879	21.67
363.09	50.35
363.301	15.53
363.512	70.83
363.723	42.15
363.935	48.3
364.146	38.06
364.357	48.3
364.568	79.02
364.779	33.96
364.99	109.74
365.201	29.87
365.412	93.35
365.623	-17.24
365.834	101.55
366.045	5.29
366.256	64.68
366.467	-17.24
366.678	60.59
366.889	70.83
367.1	93.35
367.311	101.55
367.522	79.02
367.733	58.54
367.944	103.59
368.155	85.16
368.366	48.3
368.577	87.21
368.788	85.16
368.999	17.58
369.209	79.02
369.42	-2.9
369.631	64.68
369.842	91.31
370.053	46.25
370.264	44.2
370.474	7.34
370.685	-13.14
370.896	38.06
371.107	76.97
371.317	-2.9
371.528	52.39
371.739	138.41
371.95	107.69
372.16	70.83
372.371	-52.05
372.582	95.4
372.792	46.25
373.003	48.3
373.214	107.69
373.424	76.97
373.635	56.49
373.846	85.16
374.056	3.24
374.267	76.97
374.477	99.5
374.688	74.92
374.898	-11.09
375.109	-4.95
375.319	50.35
375.53	60.59
375.74	117.93
375.951	130.22
376.161	111.78
376.372	19.63
376.582	124.07
376.793	36.01
377.003	54.44
377.214	66.73
377.424	-21.33
377.635	3.24
377.845	46.25
378.055	122.02
378.266	48.3
378.476	79.02
378.686	60.59
378.897	152.74
379.107	79.02
379.317	50.35
379.528	107.69
379.738	27.82
379.948	-33.62
380.158	42.15
380.369	146.6
380.579	91.31
380.789	74.92
380.999	31.91
381.21	70.83
381.42	54.44
381.63	-7
381.84	38.06
382.05	54.44
382.261	44.2
382.471	144.55
382.681	62.63
382.891	60.59
383.101	115.88
383.311	11.43
383.521	76.97
383.731	21.67
383.941	85.16
384.151	54.44
384.361	72.87
384.571	52.39
384.781	56.49
384.991	91.31
385.201	36.01
385.411	48.3
385.621	109.74
385.831	68.78
386.041	113.83
386.251	93.35
386.461	89.26
386.671	25.77
386.881	113.83
387.091	52.39
387.301	93.35
387.511	60.59
387.72	87.21
387.93	85.16
388.14	124.07
388.35	132.26
388.56	105.64
388.769	89.26
388.979	54.44
389.189	-35.67
389.399	44.2
389.609	52.39
389.818	122.02
390.028	29.87
390.238	111.78
390.447	54.44
390.657	93.35
390.867	52.39
391.076	40.11
391.286	42.15
391.496	111.78
391.705	62.63
391.915	171.18
392.125	152.74
392.334	27.82
392.544	124.07
392.753	128.17
392.963	58.54
393.172	64.68
393.382	44.2
393.591	193.7
393.801	130.22
394.01	124.07
394.22	111.78
394.429	181.42
394.639	40.11
394.848	95.4
395.058	93.35
395.267	64.68
395.477	87.21
395.686	95.4
395.895	122.02
396.105	158.89
396.314	79.02
396.524	115.88
396.733	93.35
396.942	138.41
397.152	128.17
397.361	46.25
397.57	144.55
397.78	160.94
397.989	201.9
398.198	115.88
398.407	105.64
398.617	134.31
398.826	103.59
399.035	134.31
399.244	113.83
399.453	81.07
399.663	144.55
399.872	130.22
400.081	91.31
400.29	146.6
400.499	72.87
400.708	175.27
400.917	101.55
401.127	119.98
401.336	218.28
401.545	87.21
401.754	44.2
401.963	218.28
402.172	208.04
402.381	60.59
402.59	132.26
402.799	167.08
403.008	140.46
403.217	201.9
403.426	251.05
403.635	158.89
403.844	183.46
404.053	203.94
404.262	144.55
404.471	238.76
404.68	173.22
404.888	273.57
405.097	197.8
405.306	214.18
405.515	265.38
405.724	275.62
405.933	218.28
406.142	214.18
406.35	171.18
406.559	255.14
406.768	277.67
406.977	259.24
407.185	199.85
407.394	326.82
407.603	236.71
407.812	306.34
408.02	271.53
408.229	373.92
408.438	337.06
408.646	259.24
408.855	285.86
409.064	281.77
409.272	332.97
409.481	382.12
409.69	441.51
409.898	347.3
410.107	459.94
410.315	398.5
410.524	451.75
410.733	373.92
410.941	461.99
411.15	541.86
411.358	515.23
411.567	611.49
411.775	595.11
411.984	513.19
412.192	490.66
412.401	615.59
412.609	687.26
412.818	666.78
413.026	674.98
413.234	693.41
413.443	740.51
413.651	711.84
413.86	738.46
414.068	847.01
414.276	834.72
414.485	816.29
414.693	844.96
414.901	965.79
415.11	965.79
415.318	965.79
415.526	910.49
415.734	1100.95
415.943	1088.67
416.151	1127.58
416.359	1111.19
416.567	1193.11
416.776	1275.03
416.984	1275.03
417.192	1334.42
417.4	1303.7
417.608	1318.04
417.817	1416.34
418.025	1508.5
418.233	1561.75
418.441	1576.08
418.649	1684.62
418.857	1780.88
419.065	1674.39
419.273	1782.93
419.481	1729.68
419.689	2045.07
419.897	2075.79
420.105	2090.12
420.313	2100.36
420.521	2266.25
420.729	2239.62
420.937	2385.03
421.145	2356.36
421.353	2503.81
421.561	2550.92
421.769	2694.27
421.977	2821.25
422.185	2679.94
422.393	2995.32
422.601	3191.93
422.809	3114.11
423.017	3282.04
423.224	3232.89
423.432	3503.22
423.64	3490.93
423.848	3822.7
424.056	3511.41
424.263	3839.09
424.471	3845.23
424.679	3953.77
424.887	4289.64
425.094	4297.83
425.302	4394.09
425.51	4523.11
425.718	4615.27
425.925	4707.43
426.133	4944.99
426.341	5135.45
426.548	5364.82
426.756	5469.27
426.964	5524.57
427.171	5729.36
427.379	5940.3
427.586	5868.63
427.794	6081.61
428.001	6372.43
428.209	6880.32
428.417	6755.4
428.624	7162.94
428.832	7341.11
429.039	7089.21
429.247	7087.17
429.454	7879.73
429.662	8494.12
429.869	7670.84
430.076	8365.1
430.284	8016.94
430.491	8363.05
430.699	8969.25
430.906	9012.26
431.114	9067.55
431.321	9399.32
431.528	9710.61
431.736	10183.7
431.943	10783.75
432.15	10331.15
432.358	10421.26
432.565	11068.42
432.772	10998.79
432.979	11541.5
433.187	11764.73
433.394	11734.01
433.601	12801
433.808	12592.11
434.016	12663.79
434.223	13122.53
434.43	13779.93
434.637	13517.79
434.844	14564.3
435.052	14699.47
435.259	14744.52
435.466	14834.63
435.673	14734.28
435.88	15471.55
436.087	16329.65
436.294	16706.48
436.501	16221.11
436.708	16565.17
436.915	17093.54
437.122	17691.55
437.329	17505.18
437.537	18559.89
437.743	18725.77
437.95	18422.67
438.157	19192.71
438.364	20253.56
438.571	20104.06
438.778	20331.38
438.985	22133.59
439.192	21326.69
439.399	22137.69
439.606	21457.76
439.813	22610.77
440.02	24111.93
440.227	23769.92
440.433	23350.09
440.64	23991.1
440.847	24011.58
441.054	24564.53
441.261	26028.83
441.467	26016.54
441.674	26329.88
441.881	27394.82
442.088	27249.42
442.294	26970.9
442.501	27917.06
442.708	28533.5
442.914	29432.55
443.121	30722.77
443.328	29815.52
443.534	31980.23
443.741	30960.34
443.948	30614.23
444.154	33114.8
444.361	32707.26
444.568	32832.18
444.774	32791.22
444.981	33514.16
445.187	34212.51
445.394	35691.15
445.6	35367.57
445.807	38632.03
446.013	37001.85
446.22	37751.4
446.426	39015
446.633	39295.57
446.839	40563.26
447.046	39170.64
447.252	41462.32
447.459	41513.52
447.665	41337.4
447.871	43307.54
448.078	44706.3
448.284	42891.8
448.491	43801.1
448.697	45572.6
448.903	46494.18
449.11	46551.52
449.316	45896.17
449.522	46696.93
449.728	47880.66
449.935	48064.97
450.141	48081.36
450.347	48601.54
450.553	47737.3
450.76	48036.3
450.966	49922.48
451.172	49408.44
451.378	50631.08
451.584	49576.37
451.791	51071.39
451.997	50579.88
452.203	51980.69
452.409	51583.38
452.615	51362.2
452.821	49277.37
453.027	48957.89
453.233	51276.19
453.44	49744.31
453.646	50145.71
453.852	50389.42
454.058	51413.4
454.264	49236.41
454.47	50178.48
454.676	49590.71
454.882	51411.35
455.088	46811.62
455.294	47352.28
455.5	48112.08
455.705	48550.34
455.911	46461.41
456.117	45930.99
456.323	45255.16
456.529	43188.76
456.735	44839.42
456.941	43411.99
457.147	43086.36
457.352	41570.86
457.558	41136.69
457.764	41452.08
457.97	40364.61
458.176	39490.13
458.381	39682.64
458.587	37317.23
458.793	38261.35
458.999	35711.63
459.204	38482.53
459.41	37309.04
459.616	34740.89
459.821	34804.38
460.027	34546.33
460.233	34085.54
460.438	32438.97
460.644	32584.38
460.85	31193.81
461.055	30866.13
461.261	30704.34
461.466	28322.55
461.672	27624.2
461.878	29395.69
462.083	27536.13
462.289	27030.29
462.494	26618.64
462.7	25660.2
462.905	25174.83
463.111	25951.01
463.316	25996.06
463.522	25201.45
463.727	25258.79
463.932	25350.95
464.138	25111.34
464.343	25303.85
464.549	24165.18
464.754	25103.15
464.959	25230.12
465.165	25002.8
465.37	23722.82
465.575	23147.34
465.781	24099.64
465.986	24298.3
466.191	23393.09
466.397	22926.16
466.602	21699.42
466.807	22606.67
467.012	22786.89
467.218	22534.99
467.423	22172.5
467.628	22139.74
467.833	23083.85
468.038	22365.01
468.244	21590.88
468.449	22682.45
468.654	21820.25
468.859	21914.46
469.064	21654.37
469.269	20767.6
469.474	20929.39
469.679	21121.9
469.885	20853.61
470.09	20949.87
470.295	20949.87
470.5	20482.93
470.705	20429.68
470.91	19786.62
471.115	19848.06
471.32	20028.28
471.525	20306.8
471.73	19712.89
471.935	19487.62
472.139	18736.01
472.344	18989.96
472.549	18957.19
472.754	18647.95
472.959	18373.52
473.164	17705.88
473.369	17681.31
473.574	18449.3
473.778	18199.44
473.983	17871.77
474.188	17687.45
474.393	17255.33
474.598	17138.6
474.802	16960.42
475.007	17124.26
475.212	16808.87
475.417	16505.77
475.621	16364.46
475.826	16407.47
476.031	16165.81
476.235	15592.38
476.44	16053.17
476.645	15414.21
476.849	15702.97
477.054	15344.58
477.259	15477.69
477.463	15041.48
477.668	14924.74
477.872	14945.22
478.077	14738.38
478.282	14414.8
478.486	14539.72
478.691	14181.33
478.895	14322.64
479.1	14136.27
479.304	13941.72
479.509	13837.27
479.713	14035.92
479.918	13491.16
480.122	13446.11
480.326	13618.14
480.531	13450.21
480.735	13587.42
480.94	13409.25
481.144	13726.68
481.348	13097.95
481.553	13427.68
481.757	13087.71
481.961	13196.26
482.166	13528.03
482.37	13265.89
482.574	12825.57
482.778	13147.11
482.983	13138.91
483.187	13220.83
483.391	13032.42
483.595	12954.6
483.8	13052.9
484.004	13181.92
484.208	12987.36
484.412	12889.06
484.616	13077.48
484.821	13265.89
485.025	13022.18
485.229	12966.88
485.433	13028.32
485.637	13011.94
485.841	13093.86
486.045	12923.88
486.249	13069.28
486.453	12956.64
486.657	13061.09
486.861	13319.14
487.065	12745.7
487.269	13042.66
487.473	12680.17
487.677	13192.16
487.881	13161.44
488.085	12964.84
488.289	13009.89
488.493	12819.43
488.697	13120.48
488.901	13079.52
489.105	13059.04
489.309	13097.95
489.512	13169.63
489.716	13339.62
489.92	12891.11
490.124	13229.02
490.328	13353.95
490.531	13255.65
490.735	13386.72
490.939	13298.66
491.143	13226.98
491.346	13419.49
491.55	13540.32
491.754	13564.89
491.958	13616.09
492.161	13595.61
492.365	13550.56
492.569	13616.09
492.772	13849.56
492.976	13818.84
493.18	13747.16
493.383	14040.02
493.587	13867.99
493.79	14406.61
493.994	14089.17
494.197	14164.95
494.401	14126.04
494.605	14420.94
494.808	14529.48
495.012	14611.4
495.215	14808.01
495.419	14945.22
495.622	14603.21
495.825	14877.64
496.029	15066.05
496.232	15309.76
496.436	15176.64
496.639	15852.47
496.843	15600.57
497.046	15655.87
497.249	15875
497.453	16038.84
497.656	16430
497.859	16550.83
498.063	16573.36
498.266	16761.77
498.469	16853.93
498.673	16790.44
498.876	17025.96
499.079	17243.04
499.282	17570.72
499.485	17666.97
499.689	17738.65
499.892	18039.7
500.095	18029.46
500.298	18584.46
500.501	18133.91
500.705	18957.19
500.908	19073.93
501.111	19299.2
501.314	19405.7
501.517	19483.52
501.72	19800.96
501.923	19686.27
502.126	20341.62
502.329	20538.23
502.532	20824.94
502.735	21007.21
502.938	21285.73
503.141	21468
503.344	21859.17
503.547	21623.65
503.75	22135.64
503.953	22322.01
504.156	22526.8
504.359	22608.72
504.562	22967.12
504.765	23268.17
504.968	23255.88
505.17	23966.52
505.373	23710.53
505.576	24318.78
505.779	24443.7
505.982	24677.17
506.185	24972.08
506.387	25309.99
506.59	25172.78
506.793	26028.83
506.996	25447.21
507.198	26565.4
507.401	26313.5
507.604	26710.8
507.807	26927.89
508.009	27345.67
508.212	27470.6
508.415	27675.4
508.617	28244.73
508.82	28474.1
509.022	28168.96
509.225	29061.87
509.428	29297.39
509.63	29666.02
509.833	29580.01
510.035	30169.82
510.238	29739.75
510.44	30382.81
510.643	30847.7
510.845	31034.07
511.048	31093.46
511.25	31429.32
511.453	31920.84
511.655	33071.79
511.858	32377.53
512.06	32801.46
512.262	33067.7
512.465	33172.14
512.667	33313.45
512.87	33952.42
513.072	34196.13
513.274	34628.25
513.477	34876.05
513.679	35111.57
513.881	35568.27
514.084	35926.66
514.286	36014.73
514.488	36442.75
514.69	37444.21
514.893	36838.01
515.095	37567.09
515.297	37792.36
515.499	37915.24
515.701	38431.33
515.904	38679.13
516.106	39090.77
516.308	39258.71
516.51	39713.36
516.712	39506.51
516.914	40305.22
517.116	40776.25
517.318	40970.81
517.52	41112.12
517.722	41488.95
517.925	41828.91
518.127	42248.74
518.329	42723.87
518.531	42375.72
518.733	43080.22
518.935	43524.63
519.136	43346.45
519.338	44448.26
519.54	44255.75
519.742	44761.6
519.944	44796.42
520.146	45400.57
520.348	45654.51
520.55	45695.47
520.752	46129.64
520.954	46608.87
521.155	46522.85
521.357	46928.35
521.559	47737.3
521.761	48126.41
521.963	47901.14
522.164	48200.14
522.366	48624.07
522.568	48933.31
522.77	48937.41
522.971	50043.31
523.173	49564.09
523.375	50039.22
523.576	50330.03
523.778	50213.29
523.98	50457
524.181	50833.83
524.383	50891.17
524.584	51669.4
524.786	51540.38
524.988	51689.88
525.189	51933.59
525.391	52558.22
525.592	52339.08
525.794	52896.13
525.995	52615.56
526.197	52861.32
526.398	53105.02
526.6	53760.37
526.801	53823.86
527.003	53877.11
527.204	53844.34
527.406	54593.9
527.607	54612.33
527.808	54630.76
528.01	53754.23
528.211	54864.23
528.412	55638.36
528.614	55069.03
528.815	54735.21
529.016	55601.5
529.218	55140.71
529.419	55249.25
529.62	55228.77
529.822	55781.72
530.023	55433.56
530.224	55644.51
530.425	55509.34
530.626	55761.24
530.828	55261.54
531.029	56596.81
531.23	56050
531.431	55775.58
531.632	56109.39
531.833	56142.16
532.035	56127.83
532.236	56467.79
532.437	56541.52
532.638	56060.24
532.839	56412.49
533.04	56330.58
533.241	56150.35
533.442	57010.5
533.643	56994.12
533.844	56641.87
534.045	56844.62
534.246	55859.54
534.447	56938.82
534.648	56576.33
534.849	56834.38
535.05	56523.08
535.251	56914.25
535.451	56478.03
535.652	57135.43
535.853	56924.49
536.054	56740.17
536.255	56936.77
536.456	56676.68
536.657	57020.74
536.857	57035.08
537.058	56555.85
537.259	56705.35
537.46	57379.14
537.66	56791.37
537.861	56949.06
538.062	56592.72
538.263	56910.15
538.463	56099.15
538.664	56160.59
538.865	57268.54
539.065	57432.38
539.266	56076.63
539.466	57243.97
539.667	55925.08
539.868	56846.66
540.068	56686.92
540.269	56490.32
540.469	56787.27
540.67	56389.97
540.87	56541.52
541.071	56246.61
541.271	56514.89
541.472	56197.46
541.672	56633.67
541.873	55949.65
542.073	55789.91
542.274	56635.72
542.474	56381.77
542.675	56260.94
542.875	56813.9
543.075	56056.15
543.276	55931.22
543.476	56828.23
543.676	55984.47
543.877	56578.38
544.077	56189.27
544.277	56117.59
544.478	55908.69
544.678	56441.17
544.878	56527.18
545.078	56023.38
545.279	55810.39
545.479	55771.48
545.679	55748.95
545.879	56191.31
546.079	56222.03
546.28	55966.04
546.48	55877.97
546.68	56066.39
546.88	56009.04
547.08	56029.52
547.28	56088.91
547.48	55730.52
547.68	56189.27
547.88	55609.69
548.081	56058.2
548.281	55515.48
548.481	55773.53
548.681	56162.64
548.881	55673.18
549.081	56090.96
549.28	55445.85
549.48	55953.75
549.68	55798.1
549.88	56160.59
550.08	55763.29
550.28	56047.96
550.48	55261.54
550.68	56371.53
550.88	55527.77
551.08	55804.25
551.279	56078.67
551.479	55355.74
551.679	55990.61
551.879	55380.32
552.079	55519.58
552.278	55597.4
552.478	55554.39
552.678	54999.4
552.878	55327.07
553.077	55134.56
553.277	55011.68
553.477	55636.31
553.676	55306.59
553.876	55421.28
554.076	55288.16
554.275	55544.16
554.475	54511.98
554.674	55439.71
554.874	55196
555.074	55284.06
555.273	55152.99
555.473	54991.2
555.672	54999.4
555.872	54847.85
556.071	55005.54
556.271	55163.23
556.47	55071.07
556.67	54307.18
556.869	54579.56
557.068	54770.02
557.268	54466.92
557.467	54190.45
557.667	54819.17
557.866	54292.85
558.065	54335.85
558.265	54237.55
558.464	54071.67
558.663	54810.98
558.863	54174.06
559.062	54579.56
559.261	53885.3
559.461	54528.36
559.66	53784.95
559.859	53684.6
560.058	53729.65
560.258	54061.43
560.457	53520.76
560.656	54272.37
560.855	53219.71
561.054	53617.02
561.253	53182.85
561.453	53533.05
561.652	53594.49
561.851	53643.64
562.05	53330.3
562.249	52865.41
562.448	53664.12
562.647	53041.54
562.846	52783.49
563.045	53215.61
563.244	52502.92
563.443	52896.13
563.642	52134.29
563.841	52623.75
564.04	52394.38
564.239	53256.57
564.438	52306.32
564.637	52392.33
564.836	52496.78
565.035	51620.25
565.234	52165.01
565.432	51880.34
565.631	51933.59
565.83	52140.43
566.029	51749.27
566.228	51313.05
566.427	51229.08
566.625	51134.88
566.824	50878.88
567.023	51276.19
567.222	50477.48
567.42	51036.58
567.619	51163.55
567.818	51143.07
568.016	50856.35
568.215	51276.19
568.414	50848.16
568.612	51177.89
568.811	50487.72
569.01	50645.41
569.208	50172.33
569.407	51034.53
569.605	49893.81
569.804	50534.82
570.002	49770.93
570.201	50119.09
570.4	49437.11
570.598	49863.09
570.797	48974.27
570.995	49557.94
571.193	49072.57
571.392	49643.96
571.59	48695.75
571.789	49609.14
571.987	48890.3
572.186	49080.77
572.384	48832.96
572.582	49134.01
572.781	48998.85
572.979	48024.01
573.177	48425.42
573.376	48581.06
573.574	48406.98
573.772	48249.29
573.971	47880.66
574.169	47892.94
574.367	47544.79
574.565	47749.59
574.763	47434.2
574.962	47450.58
575.16	47249.88
575.358	47538.65
575.556	47114.72
575.754	47155.68
575.952	46782.94
576.151	47112.67
576.349	46406.12
576.547	46717.41
576.745	46531.04
576.943	46674.4
577.141	46301.67
577.339	46555.62
577.537	46459.37
577.735	46492.13
577.933	45699.57
578.131	46068.2
578.329	45672.95
578.527	45634.03
578.725	45558.26
578.923	45523.44
579.121	45419
579.319	45177.34
579.516	45431.29
579.714	45177.34
579.912	44765.7
580.11	44866.05
580.308	44653.06
580.506	44755.46
580.704	43891.21
580.901	44644.87
581.099	44864
581.297	43971.08
581.495	44153.35
581.692	44333.57
581.89	43305.49
582.088	44173.83
582.285	43649.55
582.483	43956.75
582.681	43567.63
582.878	43221.53
583.076	42990.11
583.274	43737.62
583.471	42701.34
583.669	43000.35
583.866	42846.75
584.064	43305.49
584.262	42594.85
584.459	43088.41
584.657	42658.34
584.854	43285.01
585.052	41945.64
585.249	42379.81
585.447	42512.93
585.644	41620.02
585.841	42148.39
586.039	42218.02
586.236	41380.4
586.434	41626.16
586.631	41216.57
586.828	41560.62
587.026	41372.21
587.223	41230.9
587.42	41001.53
587.618	41255.48
587.815	40575.55
588.012	40766.01
588.21	40446.53
588.407	40686.14
588.604	40208.97
588.801	40112.71
588.999	40159.81
589.196	39944.78
589.393	40045.13
589.59	39426.64
589.787	39701.07
589.984	39643.73
590.182	39213.65
590.379	39588.43
590.576	39180.88
590.773	39397.97
590.97	39172.69
591.167	39201.36
591.364	38351.46
591.561	38963.8
591.758	38613.6
591.955	38625.89
592.152	39101.01
592.349	38703.71
592.546	38269.54
592.743	38556.25
592.94	37720.68
593.137	37847.66
593.334	38451.81
593.531	37128.82
593.727	38052.45
593.924	37722.73
594.121	37204.59
594.318	37753.45
594.515	37167.73
594.712	37608.04
594.908	37096.05
595.105	37173.88
595.302	36776.57
595.499	36921.98
595.696	36622.97
595.892	36248.19
596.089	36440.7
596.286	36389.5
596.482	35998.34
596.679	35981.96
596.876	36010.63
597.072	35621.52
597.269	35685
597.466	35494.54
597.662	35785.35
597.859	35412.62
598.055	35543.69
598.252	35166.87
598.448	34765.46
598.645	35334.8
598.841	34744.98
599.038	34949.78
599.234	34949.78
599.431	34978.45
599.627	34591.39
599.824	34009.76
600.02	33997.48
600.217	34153.12
600.413	34378.4
600.609	33768.1
600.806	33712.81
601.002	34040.48
601.198	33964.71
601.395	33573.55
601.591	33792.68
601.787	33385.13
601.984	33325.74
602.18	33297.07
602.376	33002.16
602.572	32791.22
602.769	33278.64
602.965	32690.87
603.161	32676.54
603.357	32340.67
603.553	32514.75
603.75	32625.34
603.946	32529.08
604.142	32553.66
604.338	31941.32
604.534	32531.13
604.73	31529.67
604.926	31623.88
605.122	31742.66
605.318	31701.7
605.514	32025.28
605.71	31537.87
605.906	31509.19
606.102	31431.37
606.298	31331.02
606.494	31288.01
606.69	31238.86
606.886	31040.21
607.082	30771.93
607.278	31304.4
607.474	30423.77
607.67	31058.64
607.866	30651.09
608.062	31285.97
608.257	30524.12
608.453	30542.55
608.649	30700.25
608.845	30178.01
609.041	30112.48
609.236	30196.45
609.432	29942.5
609.628	30071.52
609.824	30190.3
610.019	30194.4
610.215	29770.47
610.411	29995.74
610.606	29346.54
610.802	29815.52
610.998	29965.03
611.193	29782.76
611.389	29410.03
611.584	29608.68
611.78	29139.69
611.976	29395.69
612.171	29510.38
612.367	29166.32
612.562	29281
612.758	28584.69
612.953	28433.14
613.149	29162.22
613.344	28871.41
613.539	29088.49
613.735	29037.3
613.93	28726
614.126	28594.93
614.321	28707.57
614.517	28711.67
614.712	28830.45
614.907	28459.77
615.103	28541.69
615.298	28322.55
615.493	28859.12
615.688	28357.37
615.884	28558.07
616.079	28234.49
616.274	28250.88
616.47	28103.42
616.665	28185.34
616.86	27675.4
617.055	27718.4
617.25	27767.55
617.445	27683.59
617.641	27624.2
617.836	27710.21
618.031	26848.02
618.226	27775.75
618.421	27650.82
618.616	27517.7
618.811	27265.8
619.006	27405.06
619.201	26712.85
619.396	27048.72
619.591	26735.38
619.786	27005.71
619.981	26495.77
620.176	26659.6
620.371	26194.71
620.566	26233.63
620.761	26233.63
620.956	26604.31
621.151	26000.16
621.346	25951.01
621.541	25654.05
621.735	25869.09
621.93	25430.82
622.125	25793.31
622.32	24963.89
622.515	25334.57
622.709	24689.46
622.904	24742.71
623.099	24613.68
623.294	24959.79
623.488	24169.27
623.683	24527.67
623.878	24435.51
624.072	24197.95
624.267	24349.5
624.462	23880.51
624.656	23857.98
624.851	23544.64
625.046	23599.94
625.24	23718.72
625.435	23053.13
625.629	23329.61
625.824	23276.36
626.018	23055.18
626.213	22379.35
626.407	22709.07
626.602	22338.39
626.796	22694.74
626.991	22502.23
627.185	22199.13
627.38	22182.74
627.574	22098.78
627.768	21754.72
627.963	21590.88
628.157	21422.95
628.352	21826.4
628.546	20986.73
628.74	21556.07
628.935	21490.53
629.129	21140.33
629.323	20566.9
629.517	20716.4
629.712	20706.16
629.906	20624.24
630.1	20222.84
630.294	20437.87
630.489	20206.45
630.683	20310.9
630.877	20085.62
631.071	19995.51
631.265	19989.37
631.459	19850.11
631.653	19794.81
631.848	19612.54
632.042	19442.56
632.236	19424.13
632.43	19342.21
632.624	19198.85
632.818	19026.82
633.012	18848.65
633.206	18797.45
633.4	18606.99
633.594	18725.77
633.788	18590.61
633.982	18736.01
634.176	18430.87
634.369	18330.51
634.563	18230.16
634.757	18246.55
634.951	18234.26
635.145	17892.25
635.339	18037.66
635.533	17773.47
635.726	17961.88
635.92	17583.01
636.114	17419.17
636.308	17478.56
636.501	17576.86
636.695	17410.98
636.889	17281.95
637.083	16911.27
637.276	17148.84
637.47	16821.16
637.664	16573.36
637.857	16583.6
638.051	16915.37
638.244	16434.1
638.438	16204.72
638.632	16520.11
638.825	16245.68
639.019	16122.8
639.212	15956.92
639.406	15780.79
639.599	15928.25
639.793	16163.76
639.986	15788.99
640.18	15741.88
640.373	15436.74
640.567	15621.05
640.76	15397.82
640.954	15272.9
641.147	15197.12
641.34	15086.53
641.534	15240.13
641.727	15055.81
641.92	15154.12
642.114	14836.68
642.307	14980.04
642.5	14756.81
642.694	14539.72
642.887	14668.75
643.08	14930.89
643.273	14402.51
643.467	14439.37
643.66	14001.11
643.853	14250.96
644.046	13902.81
644.239	14224.34
644.432	13753.3
644.626	13859.8
644.819	13972.44
645.012	13890.52
645.205	13917.14
645.398	13761.5
645.591	13415.39
645.784	13593.56
645.977	13390.81
646.17	13382.62
646.363	13501.4
646.556	13085.67
646.749	13312.99
646.942	13036.52
647.135	12676.07
647.328	13073.38
647.521	13183.97
647.714	12618.73
647.907	12596.2
648.099	12770.28
648.292	12620.78
648.485	12223.47
648.678	12487.66
648.871	12573.67
649.064	12225.52
649.256	12385.26
649.449	12293.1
649.642	12327.92
649.835	11932.66
650.027	11973.62
650.22	11987.96
650.413	11879.41
650.605	11959.28
650.798	11717.62
650.991	11537.4
651.183	11703.29
651.376	11371.52
651.568	11795.45
651.761	11508.73
651.954	11574.27
652.146	11250.69
652.339	11312.13
652.531	11324.41
652.724	11160.58
652.916	11017.22
653.109	11125.76
653.301	11136
653.494	11072.51
653.686	10822.66
653.879	11127.81
654.071	10800.13
654.263	10746.89
654.456	10705.93
654.648	10712.07
654.84	10494.99
655.033	10365.96
655.225	10398.73
655.417	10421.26
655.61	10507.27
655.802	10302.48
655.994	10406.92
656.186	10161.17
656.379	9987.09
656.571	10259.47
656.763	9999.38
656.955	9837.59
657.148	9972.75
657.34	9952.27
657.532	9763.86
657.724	9557.02
657.916	9866.26
658.108	9460.76
658.3	9546.78
658.492	9645.08
658.684	9501.72
658.876	9446.43
659.068	9747.48
659.26	9215.01
659.452	9407.52
659.644	9464.86
659.836	9245.73
660.028	9389.08
660.22	9067.55
660.412	9223.2
660.604	8948.77
660.796	9174.05
660.988	8938.53
661.18	8940.58
661.372	8791.08
661.563	8799.27
661.755	8840.23
661.947	8786.98
662.139	8844.32
662.331	8627.24
662.522	8520.74
662.714	8606.76
662.906	8447.02
663.097	8373.29
663.289	8461.35
663.481	8260.65
663.673	8291.37
663.864	8223.79
664.056	8223.79
664.247	8463.4
664.439	8006.7
664.631	8053.81
664.822	8102.96
665.014	8084.53
665.205	8010.8
665.397	7818.29
665.588	7820.34
665.78	7902.26
665.971	7846.96
666.163	7879.73
666.354	7838.77
666.546	7709.75
666.737	7621.69
666.929	7607.35
667.12	7679.03
667.311	7566.39
667.503	7623.73
667.694	7529.53
667.885	7363.64
668.077	7523.38
668.268	7287.87
668.459	7312.44
668.651	7347.26
668.842	7189.56
669.033	7251
669.224	7091.26
669.416	7396.41
669.607	7101.5
669.798	7083.07
669.989	7203.9
670.18	7068.73
670.371	6886.47
670.563	7255.1
670.754	7052.35
670.945	6839.36
671.136	6906.95
671.327	6939.71
671.518	6693.96
671.709	6777.92
671.9	6794.31
672.091	6710.34
672.282	6581.32
672.473	6722.63
672.664	6714.44
672.855	6544.45
673.046	6603.85
673.237	6493.26
673.428	6648.9
673.619	6550.6
673.809	6542.41
674	6573.13
674.191	6489.16
674.382	6253.64
674.573	6433.86
674.764	6280.27
674.954	6337.61
675.145	6390.86
675.336	6286.41
675.527	6278.22
675.717	6231.12
675.908	6190.16
676.099	6206.54
676.289	6353.99
676.48	6003.79
676.671	6194.25
676.861	6087.76
677.052	6028.37
677.243	6163.53
677.433	6120.53
677.624	5964.88
677.814	6016.08
678.005	6024.27
678.195	5936.21
678.386	5995.6
678.576	5962.83
678.767	5766.23
678.957	5817.43
679.148	5774.42
679.338	5901.39
679.529	5921.87
679.719	5903.44
679.909	5913.68
680.1	5893.2
680.29	5862.48
680.481	5532.76
680.671	5786.71
680.861	5626.96
681.052	5686.36
681.242	5690.45
681.432	5801.04
681.622	5637.2
681.813	5633.11
682.003	5495.89
682.193	5626.96
682.383	5608.53
682.573	5504.09
682.764	5381.21
682.954	5532.76
683.144	5616.72
683.334	5442.65
683.524	5555.29
683.714	5456.98
683.904	5381.21
684.094	5456.98
684.284	5395.54
684.474	5366.87
684.664	5276.76
684.854	5342.3
685.044	5420.12
685.234	5223.51
685.424	5166.17
685.614	5200.99
685.804	5278.81
685.994	5233.75
686.184	5426.26
686.374	5215.32
686.564	5110.88
686.753	5168.22
686.943	4957.28
687.133	5133.4
687.323	5172.32
687.513	4924.51
687.702	5069.92
687.892	5018.72
688.082	4965.47
688.272	4842.59
688.461	4889.7
688.651	4949.09
688.841	4674.66
689.03	4942.94
689.22	4787.3
689.41	4813.92
689.599	4809.83
689.789	4723.81
689.979	4772.96
690.168	4834.4
690.358	4629.6
690.547	4748.39
690.737	4568.16
690.926	4676.71
691.116	4365.42
691.305	4535.4
691.495	4539.49
691.684	4551.78
691.874	4674.66
692.063	4478.05
692.252	4469.86
692.442	4443.24
692.631	4463.72
692.82	4324.46
693.01	4357.22
693.199	4457.57
693.388	4418.66
693.578	4228.2
693.767	4398.18
693.956	4306.02
694.146	4340.84
694.335	4406.38
694.524	4246.63
694.713	4136.04
694.902	3996.78
695.092	4160.62
695.281	4246.63
695.47	4256.87
695.659	4121.71
695.848	4142.19
696.037	4240.49
696.226	4211.82
696.415	3976.3
696.604	4117.61
696.793	4078.7
696.982	4086.89
697.171	4158.57
697.36	4045.93
697.549	3972.21
697.738	4101.23
697.927	4041.84
698.116	3826.8
698.305	4058.22
698.494	3918.96
698.683	3933.29
698.872	3984.49
699.061	3968.11
699.25	4058.22
699.438	3785.84
699.627	3980.4
699.816	3882.1
700.005	3890.29
700.193	3902.58
700.382	3900.53
700.571	3843.18
700.76	3964.01
700.948	3937.39
701.137	3908.72
701.326	3947.63
701.514	3722.35
701.703	3867.76
701.892	3839.09
702.08	3787.89
702.269	3744.88
702.457	3611.76
702.646	3757.17
702.834	3691.63
703.023	3783.79
703.212	3683.44
703.4	3599.48
703.589	3802.22
703.777	3607.67
703.965	3720.31
704.154	3826.8
704.342	3667.06
704.531	3634.29
704.719	3734.64
704.907	3691.63
705.096	3681.39
705.284	3585.14
705.472	3599.48
705.661	3521.65
705.849	3583.09
706.037	3722.35
706.226	3646.58
706.414	3644.53
706.602	3572.85
706.79	3748.98
706.979	3562.61
707.167	3619.96
707.355	3529.84
707.543	3447.93
707.731	3392.63
707.919	3576.95
708.107	3419.25
708.296	3503.22
708.484	3544.18
708.672	3503.22
708.86	3447.93
709.048	3361.91
709.236	3452.02
709.424	3535.99
709.612	3427.45
709.8	3349.62
709.988	3349.62
710.176	3435.64
710.364	3435.64
710.551	3286.14
710.739	3320.95
710.927	3390.58
711.115	3449.97
711.303	3349.62
711.491	3398.77
711.679	3308.66
711.866	3320.95
712.054	3114.11
712.242	3368.06
712.43	3388.53
712.617	3247.23
712.805	3196.03
712.993	3249.27
713.181	3189.88
713.368	3282.04
713.556	3310.71
713.744	3374.2
713.931	3261.56
714.119	3218.55
714.306	3218.55
714.494	3271.8
714.682	3103.87
714.869	3048.57
715.057	3091.58
715.244	3212.41
715.432	3155.07
715.619	3249.27
715.807	3232.89
715.994	3296.38
716.182	3134.59
716.369	3179.64
716.556	3318.9
716.744	3183.74
716.931	3085.44
717.119	3155.07
717.306	3277.94
717.493	3021.95
717.681	3093.63
717.868	2980.99
718.055	3146.87
718.242	3011.71
718.43	3110.01
718.617	3101.82
718.804	3003.52
718.991	3052.67
719.179	3038.33
719.366	2868.35
719.553	2964.61
719.74	3046.52
719.927	3036.28
720.114	3026.04
720.301	2999.42
720.488	2995.32
720.676	3026.04
720.863	2974.85
721.05	2919.55
721.237	2933.89
721.424	2954.37
721.611	2942.08
721.798	2874.49
721.985	2866.3
722.172	2839.68
722.358	2913.41
722.545	2921.6
722.732	2796.67
722.919	3011.71
723.106	2976.89
723.293	2937.98
723.48	2872.45
723.667	2897.02
723.853	2847.87
724.04	2815.1
724.227	2872.45
724.414	2745.47
724.6	2774.14
724.787	2802.82
724.974	2919.55
725.161	2937.98
725.347	2798.72
725.534	2862.21
725.72	2804.86
725.907	2821.25
726.094	2831.49
726.28	2731.14
726.467	2782.34
726.653	2610.31
726.84	2747.52
727.027	2800.77
727.213	2749.57
727.4	2739.33
727.586	2765.95
727.773	2741.38
727.959	2641.03
728.145	2837.63
728.332	2722.95
728.518	2624.64
728.705	2675.84
728.891	2614.4
729.077	2774.14
729.264	2688.13
729.45	2727.04
729.636	2720.9
729.823	2778.24
730.009	2665.6
730.195	2583.68
730.382	2608.26
730.568	2651.27
730.754	2618.5
730.94	2616.45
731.126	2628.74
731.313	2526.34
731.499	2727.04
731.685	2724.99
731.871	2606.21
732.057	2567.3
732.243	2645.12
732.429	2706.56
732.615	2698.37
732.801	2677.89
732.987	2591.88
733.173	2581.64
733.359	2673.79
733.545	2593.92
733.731	2583.68
733.917	2614.4
734.103	2618.5
734.289	2620.55
734.475	2514.05
734.661	2665.6
734.847	2626.69
735.033	2544.77
735.219	2540.68
735.404	2581.64
735.59	2602.11
735.776	2485.38
735.962	2405.51
736.148	2577.54
736.333	2479.24
736.519	2512
736.705	2466.95
736.89	2462.85
737.076	2565.25
737.262	2450.57
737.447	2532.48
737.633	2512
737.819	2464.9
738.004	2350.21
738.19	2430.09
738.375	2372.74
738.561	2452.61
738.747	2438.28
738.932	2268.3
739.118	2536.58
739.303	2485.38
739.489	2305.16
739.674	2331.78
739.859	2391.17
740.045	2434.18
740.23	2438.28
740.416	2235.53
740.601	2288.78
740.786	2299.02
740.972	2174.09
741.157	2368.65
741.342	2286.73
741.528	2317.45
741.713	2276.49
741.898	2200.71
742.084	2210.95
742.269	2229.38
742.454	2182.28
742.639	2141.32
742.824	2102.41
743.01	2303.11
743.195	2161.8
743.38	2102.41
743.565	2184.33
743.75	2147.47
743.935	2131.08
744.12	2163.85
744.305	2174.09
744.49	2047.12
744.675	2194.57
744.86	2075.79
745.045	2174.09
745.23	2000.01
745.415	2069.64
745.6	2063.5
745.785	2139.27
745.97	2081.93
746.155	2028.68
746.34	1991.82
746.525	2004.11
746.71	2061.45
746.895	2034.83
747.079	2063.5
747.264	2008.2
747.449	1897.61
747.634	1899.66
747.819	1926.29
748.003	1983.63
748.188	1877.13
748.373	1971.34
748.557	1789.07
748.742	1957
748.927	1821.84
749.111	1860.75
749.296	1776.78
749.481	1787.02
749.665	1770.64
749.85	1676.43
750.034	1836.17
750.219	1739.92
750.404	1635.47
750.588	1803.41
750.773	1678.48
750.957	1711.25
751.141	1678.48
751.326	1676.43
751.51	1739.92
751.695	1762.45
751.879	1647.76
752.064	1662.1
752.248	1655.95
752.432	1703.06
752.617	1567.89
752.801	1662.1
752.985	1584.27
753.17	1516.69
753.354	1590.42
753.538	1633.43
753.722	1576.08
753.907	1592.47
754.091	1563.79
754.275	1512.6
754.459	1528.98
754.643	1447.06
754.828	1490.07
755.012	1508.5
755.196	1479.83
755.38	1485.97
755.564	1459.35
755.748	1467.54
755.932	1453.2
756.116	1379.48
756.3	1393.81
756.484	1352.85
756.668	1432.72
756.852	1283.22
757.036	1244.31
757.22	1311.89
757.404	1285.27
757.588	1330.33
757.772	1408.15
757.956	1252.5
758.14	1318.04
758.323	1270.94
758.507	1295.51
758.691	1184.92
758.875	1203.35
759.059	1277.08
759.242	1223.83
759.426	1221.78
759.61	1227.93
759.794	1215.64
759.977	1328.28
760.161	1213.59
760.345	1254.55
760.528	1291.41
760.712	1201.3
760.895	1117.34
761.079	1244.31
761.263	1160.34
761.446	1125.53
761.63	1117.34
761.813	1184.92
761.997	1096.86
762.18	1166.49
762.364	1109.15
762.547	1062.04
762.731	1129.63
762.914	1152.15
763.098	1100.95
763.281	1119.39
763.464	1127.58
763.648	1141.91
763.831	1000.6
764.015	1125.53
764.198	1059.99
764.381	1057.95
764.564	1117.34
764.748	1064.09
764.931	1016.99
765.114	1006.75
765.297	1064.09
765.481	1033.37
765.664	969.88
765.847	984.22
766.03	1109.15
766.213	976.03
766.397	1049.75
766.58	926.88
766.763	998.56
766.946	1047.71
767.129	1033.37
767.312	965.79
767.495	971.93
767.678	1016.99
767.861	957.6
768.044	1031.32
768.227	1031.32
768.41	994.46
768.593	885.92
768.776	957.6
768.959	930.97
769.142	924.83
769.324	896.16
769.507	982.17
769.69	920.73
769.873	924.83
770.056	836.77
770.239	969.88
770.421	916.64
770.604	1019.04
770.787	902.3
770.97	984.22
771.152	955.55
771.335	971.93
771.518	914.59
771.7	875.68
771.883	840.86
772.066	871.58
772.248	883.87
772.431	918.68
772.613	933.02
772.796	885.92
772.978	933.02
773.161	881.82
773.343	795.81
773.526	750.75
773.708	855.2
773.891	847.01
774.073	855.2
774.256	904.35
774.438	726.18
774.621	748.7
774.803	783.52
774.985	775.33
775.168	816.29
775.35	744.61
775.532	756.9
775.715	767.13
775.897	795.81
776.079	773.28
776.261	818.33
776.444	701.6
776.626	777.37
776.808	707.74
776.99	750.75
777.173	666.78
777.355	703.65
777.537	658.59
777.719	726.18
777.901	695.46
778.083	658.59
778.265	664.74
778.447	697.5
778.629	656.54
778.811	674.98
778.993	683.17
779.175	711.84
779.357	646.3
779.539	646.3
779.721	644.26
779.903	650.4
780.085	722.08
780.267	638.11
780.449	588.96
780.631	672.93
780.812	548
780.994	578.72
781.176	666.78
781.358	625.83
781.54	652.45
781.721	500.9
781.903	656.54
782.085	566.43
782.267	574.63
782.448	599.2
782.63	578.72
782.812	580.77
782.993	580.77
783.175	552.1
783.357	511.14
783.538	474.28
783.72	488.61
783.901	554.15
784.083	521.38
784.264	504.99
784.446	441.51
784.627	451.75
784.809	611.49
784.99	476.32
785.172	560.29
785.353	457.89
785.535	457.89
785.716	435.36
785.897	504.99
786.079	492.71
786.26	470.18
786.441	429.22
786.623	486.56
786.804	502.95
786.985	507.04
787.167	466.08
787.348	459.94
787.529	380.07
787.71	457.89
787.891	416.93
788.073	541.86
788.254	429.22
788.435	431.27
788.616	486.56
788.797	455.84
788.978	443.56
789.159	488.61
789.34	406.69
789.522	400.55
789.703	466.08
789.884	382.12
790.065	363.69
790.246	394.4
790.427	396.45
790.607	392.36
790.788	404.64
790.969	322.73
791.15	367.78
791.331	394.4
791.512	441.51
791.693	371.88
791.874	365.73
792.054	408.74
792.235	357.54
792.416	294.05
792.597	369.83
792.778	410.79
792.958	351.4
793.139	365.73
793.32	359.59
793.5	279.72
793.681	392.36
793.862	361.64
794.042	314.53
794.223	349.35
794.404	287.91
794.584	251.05
794.765	322.73
794.945	304.29
795.126	310.44
795.306	283.81
795.487	343.21
795.667	341.16
795.848	277.67
796.028	320.68
796.209	339.11
796.389	335.01
796.57	359.59
796.75	294.05
796.93	273.57
797.111	277.67
797.291	242.85
797.471	306.34
797.652	339.11
797.832	289.96
798.012	289.96
798.192	294.05
798.373	220.33
798.553	273.57
798.733	277.67
798.913	199.85
799.093	238.76
799.274	326.82
799.454	187.56
799.634	261.29
799.814	279.72
799.994	240.81
800.174	337.06
800.354	199.85
800.534	300.2
800.714	300.2
800.894	220.33
801.074	201.9
801.254	210.09
801.434	244.9
801.614	306.34
801.794	240.81
801.974	634.02
802.154	214.18
802.334	267.43
802.514	201.9
802.693	173.22
802.873	230.57
803.053	326.82
803.233	283.81
803.413	181.42
803.592	287.91
803.772	171.18
803.952	224.42
804.131	267.43
804.311	240.81
804.491	236.71
804.67	214.18
804.85	261.29
805.03	224.42
805.209	263.33
805.389	212.14
805.568	175.27
805.748	132.26
805.928	277.67
806.107	244.9
806.287	263.33
806.466	193.7
806.646	189.61
806.825	210.09
807.004	177.32
807.184	273.57
807.363	236.71
807.543	205.99
807.722	216.23
807.901	218.28
808.081	228.52
808.26	152.74
808.439	230.57
808.619	169.13
808.798	189.61
808.977	203.94
809.156	222.38
809.336	183.46
809.515	189.61
809.694	150.7
809.873	175.27
810.052	201.9
810.231	181.42
810.411	169.13
810.59	205.99
810.769	181.42
810.948	179.37
811.127	165.03
811.306	179.37
811.485	158.89
811.664	230.57
811.843	91.31
812.022	167.08
812.201	115.88
812.38	189.61
812.559	179.37
812.737	263.33
812.916	97.45
813.095	185.51
813.274	132.26
813.453	181.42
813.632	138.41
813.811	238.76
813.989	117.93
814.168	205.99
814.347	29.87
814.526	140.46
814.704	171.18
814.883	167.08
815.062	91.31
815.24	205.99
815.419	136.36
815.598	136.36
815.776	103.59
815.955	138.41
816.133	87.21
816.312	175.27
816.49	111.78
816.669	89.26
816.847	117.93
817.026	138.41
817.204	148.65
817.383	103.59
817.561	113.83
817.74	54.44
817.918	107.69
818.097	169.13
818.275	124.07
818.453	126.12
818.632	134.31
818.81	181.42
818.988	97.45
819.167	87.21
819.345	160.94
819.523	70.83
819.701	150.7
819.879	165.03
820.058	222.38
820.236	87.21
820.414	76.97
820.592	115.88
820.77	76.97
820.948	109.74
821.127	76.97
821.305	95.4
821.483	99.5
821.661	179.37
821.839	128.17
822.017	142.5
822.195	136.36
822.373	128.17
822.551	58.54
822.729	160.94
822.907	81.07
823.085	111.78
823.262	83.11
823.44	152.74
823.618	70.83
823.796	165.03
823.974	40.11
824.152	105.64
824.329	40.11
824.507	126.12
824.685	160.94
824.863	7.34
825.04	60.59
825.218	119.98
825.396	87.21
825.574	111.78
825.751	140.46
825.929	165.03
826.107	44.2
826.284	68.78
826.462	126.12
826.639	83.11
826.817	54.44
826.994	132.26
827.172	87.21
827.349	175.27
827.527	113.83
827.704	95.4
827.882	72.87
828.059	54.44
828.237	103.59
828.414	60.59
828.591	64.68
828.769	140.46
828.946	144.55
829.124	74.92
829.301	203.94
829.478	97.45
829.655	31.91
829.833	148.65
830.01	17.58
830.187	93.35
830.364	103.59
830.542	17.58
830.719	160.94
830.896	72.87
831.073	130.22
831.25	81.07
831.427	97.45
831.604	99.5
831.782	46.25
831.959	56.49
832.136	68.78
832.313	187.56
832.49	19.63
832.667	40.11
832.844	66.73
833.021	68.78
833.198	56.49
833.374	124.07
833.551	11.43
833.728	68.78
833.905	56.49
834.082	25.77
834.259	105.64
834.436	134.31
834.612	52.39
834.789	99.5
834.966	40.11
835.143	91.31
835.319	70.83
835.496	21.67
835.673	93.35
835.85	136.36
836.026	140.46
836.203	117.93
836.38	132.26
836.556	36.01
836.733	19.63
836.909	79.02
837.086	76.97
837.262	109.74
837.439	113.83
837.616	91.31
837.792	50.35
837.968	72.87
838.145	93.35
838.321	105.64
838.498	23.72
838.674	79.02
838.851	23.72
839.027	50.35
839.203	15.53
839.38	76.97
839.556	50.35
839.732	52.39
839.909	64.68
840.085	97.45
840.261	109.74
840.437	130.22
840.614	-2.9
840.79	83.11
840.966	46.25
841.142	85.16
841.318	48.3
841.494	64.68
841.671	64.68
841.847	40.11
842.023	46.25
842.199	13.48
842.375	68.78
842.551	17.58
842.727	42.15
842.903	111.78
843.079	46.25
843.255	21.67
843.431	97.45
843.607	-11.09
843.783	25.77
843.959	87.21
844.134	74.92
844.31	17.58
844.486	52.39
844.662	-21.33
844.838	109.74
845.013	79.02
845.189	52.39
845.365	56.49
845.541	7.34
845.716	36.01
845.892	72.87
846.068	40.11
846.244	72.87
846.419	68.78
846.595	60.59
846.77	-41.81
846.946	72.87
847.122	44.2
847.297	38.06
847.473	111.78
847.648	38.06
847.824	64.68
847.999	38.06
848.175	58.54
848.35	42.15
848.526	40.11
848.701	70.83
848.876	95.4
849.052	99.5
849.227	9.39
849.403	13.48
849.578	-0.85
849.753	40.11
849.929	58.54
850.104	19.63
850.279	-11.09
850.454	38.06
850.63	68.78
850.805	50.35
850.98	46.25
851.155	17.58
851.33	93.35
851.505	-29.52
851.681	3.24
851.856	56.49
852.031	87.21
852.206	87.21
852.381	56.49
852.556	-19.29
852.731	93.35
852.906	-19.29
853.081	58.54
853.256	-4.95
853.431	21.67
853.606	46.25
853.781	-54.1
853.956	50.35
854.131	60.59
854.305	-11.09
854.48	76.97
854.655	-0.85
854.83	23.72
855.005	74.92
855.18	11.43
855.354	9.39
855.529	-0.85
855.704	19.63
855.879	15.53
856.053	-17.24
856.228	79.02
856.403	31.91
856.577	-2.9
856.752	15.53
856.926	11.43
857.101	111.78
857.276	-2.9
857.45	1.19
857.625	56.49
857.799	50.35
857.974	68.78
858.148	-64.34
858.323	68.78
858.497	44.2
858.672	-7
858.846	9.39
859.02	62.63
859.195	42.15
859.369	13.48
859.543	27.82
859.718	5.29
859.892	5.29
860.066	38.06
860.241	-45.91
860.415	-4.95
860.589	95.4
860.763	97.45
860.938	-21.33
861.112	62.63
861.286	7.34
861.46	103.59
861.634	31.91
861.808	66.73
861.982	11.43
862.157	76.97
862.331	-41.81
862.505	1.19
862.679	-37.72
862.853	66.73
863.027	74.92
863.201	52.39
863.375	3.24
863.549	52.39
863.722	79.02
863.896	50.35
864.07	44.2
864.244	87.21
864.418	40.11
864.592	11.43
864.766	31.91
864.939	31.91
865.113	-23.38
865.287	52.39
865.461	1.19
865.634	-29.52
865.808	13.48
865.982	-21.33
866.156	-25.43
866.329	33.96
866.503	-21.33
866.676	38.06
866.85	33.96
867.024	56.49
867.197	23.72
867.371	50.35
867.544	19.63
867.718	7.34
867.891	62.63
868.065	-41.81
868.238	44.2
868.412	48.3
868.585	27.82
868.759	13.48
868.932	9.39
869.105	-19.29
869.279	-2.9
869.452	7.34
869.625	-21.33
869.799	52.39
869.972	-2.9
870.145	-2.9
870.319	74.92
870.492	-11.09
870.665	17.58
870.838	-41.81
871.011	-90.96
871.185	-19.29
871.358	40.11
871.531	91.31
871.704	52.39
871.877	23.72
872.05	48.3
872.223	64.68
872.396	-11.09
872.569	21.67
872.742	27.82
872.915	-0.85
873.088	3.24
873.261	-27.48
873.434	-41.81
873.607	42.15
873.78	99.5
873.953	-29.52
874.126	79.02
874.299	60.59
874.471	-0.85
874.644	33.96
874.817	50.35
874.99	66.73
875.163	-11.09
875.335	27.82
875.508	-15.19
875.681	87.21
875.853	48.3
876.026	25.77
876.199	29.87
876.371	-13.14
876.544	-21.33
876.717	-11.09
876.889	36.01
877.062	1.19
877.234	64.68
877.407	11.43
877.579	-0.85
877.752	-7
877.924	-50
878.097	-50
878.269	-23.38
878.442	13.48
878.614	5.29
878.786	-7
878.959	11.43
879.131	-45.91
879.303	-17.24
879.476	52.39
879.648	79.02
879.82	23.72
879.993	-33.62
880.165	56.49
880.337	-84.82
880.509	11.43
880.681	-7
880.854	38.06
881.026	101.55
881.198	9.39
881.37	-58.2
881.542	85.16
881.714	-66.39
881.886	19.63
882.058	-37.72
882.23	-7
882.402	52.39
882.574	-7
882.746	-25.43
882.918	70.83
883.09	31.91
883.262	-41.81
883.434	-0.85
883.606	-37.72
883.778	-39.76
883.95	50.35
884.122	72.87
884.293	29.87
884.465	-11.09
884.637	27.82
884.809	9.39
884.98	44.2
885.152	9.39
885.324	21.67
885.496	-60.24
885.667	-4.95
885.839	-50
886.011	29.87
886.182	7.34
886.354	-45.91
886.525	7.34
886.697	19.63
886.869	36.01
887.04	-25.43
887.212	44.2
887.383	105.64
887.555	-27.48
887.726	68.78
887.897	-54.1
888.069	44.2
888.24	25.77
888.412	44.2
888.583	17.58
888.754	50.35
888.926	-21.33
889.097	-0.85
889.268	11.43
889.44	-9.05
889.611	-35.67
889.782	38.06
889.953	23.72
890.125	33.96
890.296	-52.05
890.467	-58.2
890.638	-45.91
890.809	17.58
890.98	-52.05
891.151	-13.14
891.323	48.3
891.494	38.06
891.665	99.5
891.836	-11.09
892.007	-0.85
892.178	17.58
892.349	54.44
892.52	-29.52
892.691	23.72
892.862	-0.85
893.032	-35.67
893.203	-25.43
893.374	-31.57
893.545	7.34
893.716	11.43
893.887	87.21
894.057	-2.9
894.228	79.02
894.399	1.19
894.57	-23.38
894.74	-9.05
894.911	46.25
895.082	62.63
895.253	-29.52
895.423	48.3
895.594	29.87
895.764	-9.05
895.935	-4.95
896.106	-72.53
896.276	-82.77
896.447	33.96
896.617	-41.81
896.788	-35.67
896.958	3.24
897.129	-47.96
897.299	-52.05
897.47	-68.44
897.64	-0.85
897.81	-9.05
897.981	11.43
898.151	-2.9
898.322	7.34
898.492	-19.29
898.662	42.15
898.832	-11.09
899.003	-33.62
899.173	-35.67
899.343	-52.05
899.513	-60.24
