Data from USB4F104151__45__12-35-56-539.txt Node

Date: Fri Mar 14 12:35:56 EDT 2025
User: louis
Spectrometer: USB4F10415
Trigger mode: 4
Integration Time (sec): 2.000000E-2
Scans to average: 1
Electric dark correction enabled: true
Nonlinearity correction enabled: false
Boxcar width: 0
XAxis mode: Wavelengths
Number of Pixels in Spectrum: 3648
>>>>>Begin Spectral Data<<<<<
178.204	-48.3
178.424	-48.3
178.644	-48.3
178.864	-81.07
179.084	-17.58
179.304	29.52
179.524	-5.29
179.744	-54.44
179.964	33.62
180.184	70.48
180.404	-13.48
180.624	-1.19
180.844	-56.49
181.064	-74.92
181.283	-25.77
181.503	45.91
181.723	52.05
181.943	-17.58
182.163	-11.43
182.383	17.24
182.602	7
182.822	15.19
183.042	72.53
183.262	-5.29
183.482	43.86
183.701	23.38
183.921	50
184.141	0.85
184.361	80.72
184.58	35.67
184.8	11.09
185.02	47.96
185.239	-66.73
185.459	-23.72
185.679	0.85
185.898	9.05
186.118	72.53
186.338	-11.43
186.557	74.58
186.777	2.9
186.997	50
187.216	125.78
187.436	45.91
187.655	88.92
187.875	64.34
188.095	33.62
188.314	33.62
188.534	62.29
188.753	-1.19
188.973	11.09
189.192	33.62
189.412	25.43
189.631	95.06
189.851	37.72
190.07	93.01
190.29	-19.63
190.509	54.1
190.729	-17.58
190.948	25.43
191.168	101.2
191.387	90.96
191.607	52.05
191.826	62.29
192.045	58.2
192.265	27.48
192.484	-5.29
192.704	7
192.923	64.34
193.142	80.72
193.362	-25.77
193.581	31.57
193.8	56.15
194.02	90.96
194.239	13.14
194.458	-1.19
194.678	123.73
194.897	58.2
195.116	-44.2
195.335	17.24
195.555	-23.72
195.774	101.2
195.993	47.96
196.212	78.68
196.432	17.24
196.651	33.62
196.87	52.05
197.089	68.44
197.308	45.91
197.528	43.86
197.747	2.9
197.966	66.39
198.185	86.87
198.404	76.63
198.623	25.43
198.842	97.11
199.062	43.86
199.281	13.14
199.5	41.81
199.719	11.09
199.938	68.44
200.157	56.15
200.376	4.95
200.595	76.63
200.814	-60.59
201.033	-13.48
201.252	50
201.471	-15.53
201.69	54.1
201.909	-17.58
202.128	35.67
202.347	56.15
202.566	27.48
202.785	0.85
203.004	21.33
203.223	117.59
203.442	19.29
203.661	99.16
203.879	-3.24
204.098	74.58
204.317	-19.63
204.536	27.48
204.755	-40.11
204.974	33.62
205.193	-29.87
205.411	144.21
205.63	97.11
205.849	-21.67
206.068	0.85
206.287	39.76
206.505	62.29
206.724	43.86
206.943	39.76
207.162	80.72
207.381	68.44
207.599	25.43
207.818	23.38
208.037	11.09
208.255	27.48
208.474	88.92
208.693	58.2
208.911	76.63
209.13	43.86
209.349	37.72
209.567	-15.53
209.786	52.05
210.005	27.48
210.223	31.57
210.442	-13.48
210.661	-27.82
210.879	-5.29
211.098	78.68
211.316	17.24
211.535	-42.15
211.753	-19.63
211.972	56.15
212.191	41.81
212.409	13.14
212.628	74.58
212.846	-7.34
213.065	11.09
213.283	117.59
213.502	86.87
213.72	31.57
213.938	27.48
214.157	17.24
214.375	103.25
214.594	9.05
214.812	-33.96
215.031	-1.19
215.249	27.48
215.467	37.72
215.686	35.67
215.904	78.68
216.122	45.91
216.341	78.68
216.559	41.81
216.778	58.2
216.996	62.29
217.214	39.76
217.432	-5.29
217.651	7
217.869	-1.19
218.087	13.14
218.306	123.73
218.524	-25.77
218.742	82.77
218.96	7
219.179	64.34
219.397	52.05
219.615	70.48
219.833	-9.39
220.051	37.72
220.27	29.52
220.488	60.24
220.706	121.68
220.924	70.48
221.142	97.11
221.36	45.91
221.578	66.39
221.796	11.09
222.015	54.1
222.233	113.49
222.451	131.92
222.669	-13.48
222.887	47.96
223.105	-27.82
223.323	29.52
223.541	15.19
223.759	-21.67
223.977	25.43
224.195	88.92
224.413	37.72
224.631	88.92
224.849	21.33
225.067	54.1
225.285	47.96
225.503	50
225.721	-7.34
225.939	33.62
226.157	25.43
226.375	66.39
226.592	-15.53
226.81	66.39
227.028	56.15
227.246	37.72
227.464	-56.49
227.682	27.48
227.9	13.14
228.117	56.15
228.335	41.81
228.553	21.33
228.771	-33.96
228.989	56.15
229.206	93.01
229.424	13.14
229.642	31.57
229.86	-85.16
230.077	29.52
230.295	17.24
230.513	-1.19
230.731	60.24
230.948	90.96
231.166	17.24
231.384	-13.48
231.601	60.24
231.819	45.91
232.037	-21.67
232.254	-19.63
232.472	82.77
232.689	-13.48
232.907	95.06
233.125	31.57
233.342	-19.63
233.56	31.57
233.777	70.48
233.995	35.67
234.213	105.3
234.43	62.29
234.648	41.81
234.865	-5.29
235.083	109.4
235.3	11.09
235.518	80.72
235.735	37.72
235.953	-11.43
236.17	52.05
236.388	60.24
236.605	21.33
236.822	37.72
237.04	31.57
237.257	33.62
237.475	-17.58
237.692	43.86
237.909	-17.58
238.127	29.52
238.344	47.96
238.562	-13.48
238.779	-36.01
238.996	11.09
239.214	2.9
239.431	82.77
239.648	39.76
239.865	45.91
240.083	47.96
240.3	-36.01
240.517	9.05
240.735	-1.19
240.952	72.53
241.169	78.68
241.386	-13.48
241.603	39.76
241.821	43.86
242.038	39.76
242.255	72.53
242.472	15.19
242.689	45.91
242.907	25.43
243.124	45.91
243.341	11.09
243.558	15.19
243.775	21.33
243.992	56.15
244.209	88.92
244.426	56.15
244.643	76.63
244.86	4.95
245.078	-23.72
245.295	2.9
245.512	21.33
245.729	-5.29
245.946	86.87
246.163	37.72
246.38	7
246.597	54.1
246.814	17.24
247.031	86.87
247.248	33.62
247.464	43.86
247.681	68.44
247.898	25.43
248.115	19.29
248.332	35.67
248.549	54.1
248.766	58.2
248.983	62.29
249.2	11.09
249.417	121.68
249.633	43.86
249.85	90.96
250.067	-17.58
250.284	31.57
250.501	11.09
250.717	31.57
250.934	45.91
251.151	31.57
251.368	45.91
251.585	50
251.801	62.29
252.018	35.67
252.235	115.54
252.451	13.14
252.668	60.24
252.885	58.2
253.102	78.68
253.318	41.81
253.535	74.58
253.752	90.96
253.968	56.15
254.185	-33.96
254.401	68.44
254.618	9.05
254.835	-21.67
255.051	25.43
255.268	64.34
255.484	15.19
255.701	33.62
255.917	95.06
256.134	-31.91
256.351	88.92
256.567	0.85
256.784	47.96
257	35.67
257.217	43.86
257.433	86.87
257.65	66.39
257.866	54.1
258.082	29.52
258.299	0.85
258.515	64.34
258.732	-7.34
258.948	105.3
259.165	-38.06
259.381	64.34
259.597	0.85
259.814	19.29
260.03	43.86
260.246	45.91
260.463	-5.29
260.679	15.19
260.895	11.09
261.112	45.91
261.328	15.19
261.544	23.38
261.761	103.25
261.977	27.48
262.193	2.9
262.409	58.2
262.626	33.62
262.842	37.72
263.058	72.53
263.274	111.44
263.49	52.05
263.707	95.06
263.923	-3.24
264.139	2.9
264.355	29.52
264.571	72.53
264.787	56.15
265.004	123.73
265.22	-36.01
265.436	-19.63
265.652	60.24
265.868	19.29
266.084	31.57
266.3	9.05
266.516	31.57
266.732	43.86
266.948	17.24
267.164	33.62
267.38	78.68
267.596	72.53
267.812	50
268.028	105.3
268.244	19.29
268.46	68.44
268.676	31.57
268.892	31.57
269.108	62.29
269.324	37.72
269.54	72.53
269.756	50
269.972	60.24
270.188	105.3
270.403	-27.82
270.619	11.09
270.835	45.91
271.051	41.81
271.267	60.24
271.483	23.38
271.698	33.62
271.914	68.44
272.13	-3.24
272.346	56.15
272.562	50
272.777	105.3
272.993	4.95
273.209	21.33
273.425	13.14
273.64	52.05
273.856	-56.49
274.072	66.39
274.287	35.67
274.503	131.92
274.719	-11.43
274.934	0.85
275.15	-31.91
275.366	-3.24
275.581	-3.24
275.797	105.3
276.012	52.05
276.228	62.29
276.444	-31.91
276.659	138.07
276.875	19.29
277.09	58.2
277.306	47.96
277.521	39.76
277.737	60.24
277.952	119.64
278.168	21.33
278.383	74.58
278.599	25.43
278.814	50
279.03	4.95
279.245	76.63
279.461	2.9
279.676	35.67
279.892	-31.91
280.107	54.1
280.322	70.48
280.538	82.77
280.753	86.87
280.969	90.96
281.184	-19.63
281.399	68.44
281.615	33.62
281.83	66.39
282.045	39.76
282.26	31.57
282.476	27.48
282.691	-29.87
282.906	80.72
283.122	95.06
283.337	-40.11
283.552	-33.96
283.767	-23.72
283.983	33.62
284.198	60.24
284.413	0.85
284.628	58.2
284.843	86.87
285.058	21.33
285.274	111.44
285.489	-17.58
285.704	11.09
285.919	31.57
286.134	23.38
286.349	25.43
286.564	43.86
286.779	70.48
286.995	-25.77
287.21	-1.19
287.425	31.57
287.64	31.57
287.855	72.53
288.07	70.48
288.285	60.24
288.5	15.19
288.715	52.05
288.93	-48.3
289.145	13.14
289.36	15.19
289.575	31.57
289.79	-27.82
290.004	66.39
290.219	115.54
290.434	115.54
290.649	33.62
290.864	9.05
291.079	15.19
291.294	43.86
291.509	41.81
291.724	25.43
291.938	17.24
292.153	72.53
292.368	25.43
292.583	70.48
292.798	23.38
293.012	43.86
293.227	35.67
293.442	19.29
293.657	50
293.871	95.06
294.086	39.76
294.301	54.1
294.516	72.53
294.73	29.52
294.945	21.33
295.16	0.85
295.374	76.63
295.589	29.52
295.804	56.15
296.018	45.91
296.233	121.68
296.447	-42.15
296.662	-60.59
296.877	60.24
297.091	47.96
297.306	105.3
297.52	62.29
297.735	29.52
297.949	45.91
298.164	82.77
298.378	45.91
298.593	4.95
298.807	-40.11
299.022	78.68
299.236	43.86
299.451	39.76
299.665	58.2
299.88	74.58
300.094	62.29
300.309	47.96
300.523	-15.53
300.737	58.2
300.952	19.29
301.166	37.72
301.381	74.58
301.595	17.24
301.809	39.76
302.024	47.96
302.238	-17.58
302.452	101.2
302.667	105.3
302.881	62.29
303.095	-25.77
303.309	54.1
303.524	-5.29
303.738	99.16
303.952	-33.96
304.166	11.09
304.381	50
304.595	60.24
304.809	45.91
305.023	41.81
305.237	21.33
305.452	56.15
305.666	31.57
305.88	43.86
306.094	84.82
306.308	31.57
306.522	-11.43
306.736	97.11
306.95	47.96
307.164	9.05
307.379	-58.54
307.593	9.05
307.807	7
308.021	64.34
308.235	47.96
308.449	74.58
308.663	4.95
308.877	0.85
309.091	23.38
309.305	93.01
309.519	-1.19
309.733	-1.19
309.947	-25.77
310.161	41.81
310.374	88.92
310.588	64.34
310.802	27.48
311.016	41.81
311.23	-15.53
311.444	45.91
311.658	13.14
311.872	86.87
312.085	97.11
312.299	50
312.513	-1.19
312.727	115.54
312.941	-15.53
313.154	45.91
313.368	140.12
313.582	52.05
313.796	4.95
314.009	13.14
314.223	68.44
314.437	97.11
314.651	72.53
314.864	-11.43
315.078	62.29
315.292	19.29
315.505	45.91
315.719	107.35
315.933	7
316.146	117.59
316.36	-1.19
316.573	33.62
316.787	17.24
317.001	52.05
317.214	62.29
317.428	58.2
317.641	50
317.855	47.96
318.068	95.06
318.282	156.5
318.495	29.52
318.709	47.96
318.922	62.29
319.136	68.44
319.349	68.44
319.563	43.86
319.776	-15.53
319.99	27.48
320.203	64.34
320.417	45.91
320.63	64.34
320.843	103.25
321.057	23.38
321.27	37.72
321.483	17.24
321.697	131.92
321.91	60.24
322.124	109.4
322.337	76.63
322.55	74.58
322.763	74.58
322.977	37.72
323.19	113.49
323.403	86.87
323.617	70.48
323.83	80.72
324.043	70.48
324.256	13.14
324.469	19.29
324.683	54.1
324.896	9.05
325.109	66.39
325.322	-3.24
325.535	54.1
325.748	56.15
325.962	33.62
326.175	39.76
326.388	33.62
326.601	13.14
326.814	25.43
327.027	68.44
327.24	82.77
327.453	39.76
327.666	25.43
327.879	82.77
328.092	68.44
328.305	54.1
328.518	60.24
328.731	45.91
328.944	2.9
329.157	84.82
329.37	29.52
329.583	74.58
329.796	76.63
330.009	52.05
330.222	119.64
330.435	37.72
330.648	9.05
330.861	33.62
331.073	19.29
331.286	56.15
331.499	84.82
331.712	-5.29
331.925	111.44
332.138	25.43
332.35	109.4
332.563	41.81
332.776	93.01
332.989	2.9
333.202	78.68
333.414	19.29
333.627	4.95
333.84	15.19
334.053	88.92
334.265	45.91
334.478	-9.39
334.691	62.29
334.903	82.77
335.116	80.72
335.329	111.44
335.541	25.43
335.754	45.91
335.966	7
336.179	11.09
336.392	41.81
336.604	80.72
336.817	76.63
337.029	45.91
337.242	82.77
337.454	76.63
337.667	111.44
337.88	115.54
338.092	37.72
338.305	9.05
338.517	15.19
338.729	84.82
338.942	11.09
339.154	76.63
339.367	45.91
339.579	107.35
339.792	50
340.004	107.35
340.217	66.39
340.429	66.39
340.641	97.11
340.854	21.33
341.066	133.97
341.278	45.91
341.491	33.62
341.703	103.25
341.915	-29.87
342.128	68.44
342.34	72.53
342.552	45.91
342.764	11.09
342.977	123.73
343.189	78.68
343.401	93.01
343.613	7
343.826	17.24
344.038	52.05
344.25	123.73
344.462	4.95
344.674	56.15
344.886	39.76
345.099	13.14
345.311	84.82
345.523	80.72
345.735	-17.58
345.947	23.38
346.159	33.62
346.371	29.52
346.583	-3.24
346.795	119.64
347.007	58.2
347.219	23.38
347.431	39.76
347.643	146.26
347.855	41.81
348.067	109.4
348.279	97.11
348.491	60.24
348.703	-5.29
348.915	13.14
349.127	60.24
349.339	43.86
349.551	31.57
349.763	113.49
349.975	39.76
350.187	37.72
350.399	47.96
350.61	29.52
350.822	95.06
351.034	58.2
351.246	56.15
351.458	39.76
351.669	62.29
351.881	78.68
352.093	50
352.305	95.06
352.517	37.72
352.728	107.35
352.94	68.44
353.152	90.96
353.363	27.48
353.575	58.2
353.787	17.24
353.999	47.96
354.21	146.26
354.422	19.29
354.633	27.48
354.845	35.67
355.057	70.48
355.268	39.76
355.48	105.3
355.692	2.9
355.903	86.87
356.115	25.43
356.326	-3.24
356.538	109.4
356.749	31.57
356.961	2.9
357.172	37.72
357.384	62.29
357.595	90.96
357.807	-33.96
358.018	64.34
358.23	80.72
358.441	105.3
358.653	74.58
358.864	103.25
359.075	66.39
359.287	136.02
359.498	54.1
359.709	86.87
359.921	54.1
360.132	111.44
360.344	148.31
360.555	9.05
360.766	72.53
360.977	50
361.189	56.15
361.4	50
361.611	-7.34
361.823	25.43
362.034	31.57
362.245	-5.29
362.456	86.87
362.667	105.3
362.879	45.91
363.09	103.25
363.301	95.06
363.512	80.72
363.723	19.29
363.935	117.59
364.146	127.83
364.357	35.67
364.568	121.68
364.779	64.34
364.99	129.88
365.201	9.05
365.412	101.2
365.623	19.29
365.834	121.68
366.045	64.34
366.256	111.44
366.467	-15.53
366.678	101.2
366.889	99.16
367.1	66.39
367.311	37.72
367.522	52.05
367.733	70.48
367.944	70.48
368.155	66.39
368.366	56.15
368.577	19.29
368.788	148.31
368.999	93.01
369.209	80.72
369.42	162.64
369.631	154.45
369.842	13.14
370.053	31.57
370.264	25.43
370.474	66.39
370.685	66.39
370.896	82.77
371.107	64.34
371.317	119.64
371.528	95.06
371.739	136.02
371.95	123.73
372.16	131.92
372.371	84.82
372.582	138.07
372.792	23.38
373.003	-25.77
373.214	93.01
373.424	21.33
373.635	82.77
373.846	45.91
374.056	68.44
374.267	43.86
374.477	115.54
374.688	109.4
374.898	107.35
375.109	109.4
375.319	105.3
375.53	54.1
375.74	115.54
375.951	35.67
376.161	76.63
376.372	88.92
376.582	31.57
376.793	133.97
377.003	29.52
377.214	78.68
377.424	9.05
377.635	115.54
377.845	37.72
378.055	47.96
378.266	90.96
378.476	76.63
378.686	123.73
378.897	74.58
379.107	123.73
379.317	117.59
379.528	76.63
379.738	136.02
379.948	41.81
380.158	84.82
380.369	80.72
380.579	43.86
380.789	56.15
380.999	88.92
381.21	101.2
381.42	127.83
381.63	21.33
381.84	127.83
382.05	111.44
382.261	45.91
382.471	117.59
382.681	78.68
382.891	99.16
383.101	39.76
383.311	60.24
383.521	27.48
383.731	107.35
383.941	31.57
384.151	113.49
384.361	109.4
384.571	80.72
384.781	74.58
384.991	78.68
385.201	86.87
385.411	107.35
385.621	103.25
385.831	39.76
386.041	23.38
386.251	37.72
386.461	-1.19
386.671	-23.72
386.881	78.68
387.091	90.96
387.301	109.4
387.511	84.82
387.72	52.05
387.93	58.2
388.14	72.53
388.35	-9.39
388.56	84.82
388.769	84.82
388.979	109.4
389.189	60.24
389.399	95.06
389.609	158.55
389.818	68.44
390.028	113.49
390.238	70.48
390.447	43.86
390.657	72.53
390.867	93.01
391.076	62.29
391.286	41.81
391.496	90.96
391.705	2.9
391.915	121.68
392.125	131.92
392.334	101.2
392.544	86.87
392.753	140.12
392.963	127.83
393.172	156.5
393.382	15.19
393.591	95.06
393.801	78.68
394.01	166.74
394.22	90.96
394.429	140.12
394.639	105.3
394.848	215.89
395.058	142.16
395.267	74.58
395.477	107.35
395.686	131.92
395.895	158.55
396.105	174.93
396.314	41.81
396.524	150.36
396.733	78.68
396.942	131.92
397.152	211.79
397.361	129.88
397.57	129.88
397.78	154.45
397.989	148.31
398.198	127.83
398.407	117.59
398.617	90.96
398.826	111.44
399.035	101.2
399.244	174.93
399.453	121.68
399.663	101.2
399.872	201.55
400.081	117.59
400.29	119.64
400.499	35.67
400.708	191.31
400.917	105.3
401.127	72.53
401.336	80.72
401.545	140.12
401.754	109.4
401.963	181.07
402.172	189.27
402.381	123.73
402.59	215.89
402.799	80.72
403.008	236.37
403.217	162.64
403.426	150.36
403.635	90.96
403.844	103.25
404.053	172.88
404.262	213.84
404.471	179.03
404.68	244.56
404.888	185.17
405.097	224.08
405.306	277.33
405.515	213.84
405.724	246.61
405.933	248.66
406.142	252.75
406.35	242.51
406.559	240.47
406.768	222.03
406.977	365.39
407.185	303.95
407.394	330.58
407.603	250.71
407.812	242.51
408.02	332.62
408.229	236.37
408.438	340.82
408.646	285.52
408.855	346.96
409.064	383.82
409.272	312.14
409.481	363.34
409.69	344.91
409.898	373.58
410.107	488.27
410.315	459.6
410.524	463.69
410.733	432.97
410.941	488.27
411.15	473.93
411.358	490.32
411.567	533.33
411.775	486.22
411.984	506.7
412.192	654.16
412.401	590.67
412.609	629.58
412.818	629.58
413.026	699.21
413.234	695.11
413.443	672.59
413.651	676.68
413.86	799.56
414.068	815.94
414.276	803.66
414.485	803.66
414.693	863.05
414.901	871.24
415.11	910.15
415.318	965.45
415.526	1014.6
415.734	1114.95
415.943	1055.56
416.151	1172.29
416.359	1137.48
416.567	1129.28
416.776	1223.49
416.984	1303.36
417.192	1227.59
417.4	1270.59
417.608	1442.62
417.817	1463.1
418.025	1454.91
418.233	1514.3
418.441	1563.45
418.649	1669.95
418.857	1723.2
419.065	1774.39
419.273	1839.93
419.481	1874.74
419.689	2003.77
419.897	2083.64
420.105	2161.46
420.313	2122.55
420.521	2100.02
420.729	2138.93
420.937	2315.06
421.145	2308.91
421.353	2429.74
421.561	2636.59
421.769	2679.6
421.977	2753.32
422.185	2585.39
422.393	2923.3
422.601	3085.09
422.809	3140.39
423.017	3146.53
423.224	3326.75
423.432	3349.28
423.64	3392.29
423.848	3742.49
424.056	3568.41
424.263	3867.42
424.471	3949.34
424.679	3978.01
424.887	4215.57
425.094	4266.77
425.302	4104.98
425.51	4424.47
425.718	4614.93
425.925	4533.01
426.133	4721.42
426.341	4979.47
426.548	5280.52
426.756	5477.12
426.964	5505.79
427.171	5681.92
427.379	6005.5
427.586	5864.19
427.794	6177.53
428.001	6234.87
428.209	6605.55
428.417	6542.07
428.624	7023.34
428.832	6968.04
429.039	6810.35
429.247	7041.77
429.454	7635.68
429.662	7938.78
429.869	7645.92
430.076	8190.68
430.284	7877.34
430.491	8303.32
430.699	8587.99
430.906	8698.58
431.114	8729.3
431.321	9147.08
431.528	9317.06
431.736	9843.39
431.943	10384.05
432.15	10113.72
432.358	10232.51
432.565	10793.65
432.772	10807.98
432.979	11397.8
433.187	11397.8
433.394	11557.54
433.601	12292.76
433.808	12276.38
434.016	12133.02
434.223	12733.08
434.43	13712
434.637	13275.79
434.844	13968
435.052	14346.87
435.259	14414.46
435.466	14416.51
435.673	14301.82
435.88	15067.76
436.087	15823.46
436.294	16056.93
436.501	15452.78
436.708	15821.41
436.915	16591.45
437.122	17033.81
437.329	17103.44
437.537	17865.28
437.743	18025.03
437.95	18035.27
438.157	18891.32
438.364	19358.25
438.571	19384.88
438.778	19642.92
438.985	21363.22
439.192	20345.37
439.399	21299.73
439.606	20750.87
439.813	21887.5
440.02	23147
440.227	22993.4
440.433	22479.36
440.64	23108.08
440.847	23065.08
441.054	23486.96
441.261	25387.47
441.467	24670.68
441.674	25258.45
441.881	26190.28
442.088	26352.07
442.294	26223.05
442.501	26458.56
442.708	27179.45
442.914	28101.03
443.121	29489.56
443.328	28742.05
443.534	30531.97
443.741	29534.61
443.948	29469.08
444.154	31336.82
444.361	31211.9
444.568	31510.9
444.774	31701.36
444.981	31965.55
445.187	32754.02
445.394	33898.83
445.6	34036.05
445.807	36976.93
446.013	35375.42
446.22	36286.76
446.426	37781.78
446.633	37902.61
446.839	39239.93
447.046	37519.64
447.252	39760.12
447.459	39459.07
447.665	39508.22
447.871	41081.06
448.078	42612.94
448.284	40784.1
448.491	42123.47
448.697	43886.78
448.903	44169.4
449.11	44724.39
449.316	43901.11
449.522	44673.2
449.728	45668.51
449.935	46264.47
450.141	46168.21
450.347	47392.9
450.553	45762.72
450.76	46758.03
450.966	47929.47
451.172	47179.91
451.378	48650.35
451.584	47636.61
451.791	48752.75
451.997	48429.17
452.203	49379.43
452.409	49344.61
452.615	48957.55
452.821	47112.33
453.027	46665.87
453.233	49641.57
453.44	47370.37
453.646	47886.46
453.852	48248.95
454.058	48937.07
454.264	47659.13
454.47	48453.75
454.676	47327.36
454.882	48879.72
455.088	45037.73
455.294	45592.73
455.5	45897.88
455.705	46604.43
455.911	44701.87
456.117	44114.1
456.323	43755.71
456.529	41236.7
456.735	43092.16
456.941	41722.07
457.147	41138.4
457.352	39962.87
457.558	39287.04
457.764	39723.26
457.97	38836.48
458.176	37812.5
458.381	38408.46
458.587	36372.78
458.793	36337.96
458.999	34261.32
459.204	36956.45
459.41	35748.15
459.616	33569.11
459.821	33575.25
460.027	33272.15
460.233	32749.92
460.438	31236.47
460.644	31125.88
460.85	29858.19
461.055	29301.14
461.261	29503.89
461.466	27115.96
461.672	26583.49
461.878	28492.19
462.083	26485.19
462.289	25825.74
462.494	25819.6
462.7	24390.11
462.905	24109.54
463.111	24578.53
463.316	24635.87
463.522	24300
463.727	24115.69
463.932	24203.75
464.138	23962.09
464.343	23773.67
464.549	23495.15
464.754	24009.19
464.959	23947.75
465.165	23871.98
465.37	22698.49
465.575	22155.78
465.781	23052.79
465.986	23112.18
466.191	22657.53
466.397	21676.55
466.602	20742.68
466.807	21584.4
467.012	21535.24
467.218	21787.14
467.423	21428.75
467.628	21451.28
467.833	22419.97
468.038	21428.75
468.244	20845.08
468.449	21699.08
468.654	20869.65
468.859	20865.56
469.064	20754.97
469.269	19831.33
469.474	20111.91
469.679	20517.4
469.885	19579.43
470.09	20210.21
470.295	20242.98
470.5	19737.13
470.705	19589.67
470.91	19128.88
471.115	19092.02
471.32	19438.12
471.525	19137.07
471.73	18809.4
471.935	18766.39
472.139	18090.56
472.344	18180.67
472.549	17963.59
472.754	17812.04
472.959	17488.46
473.164	17066.58
473.369	16919.12
473.574	17533.51
473.778	17142.35
473.983	17289.81
474.188	17474.12
474.393	16462.43
474.598	16536.15
474.802	16276.06
475.007	16204.38
475.212	16345.69
475.417	15596.14
475.621	15577.7
475.826	15661.67
476.031	15450.73
476.235	15204.97
476.44	15411.82
476.645	14973.55
476.849	15010.42
477.054	14983.79
477.259	14676.6
477.463	14566.01
477.668	14015.1
477.872	14221.95
478.077	14172.8
478.282	13806.21
478.486	13714.05
478.691	13482.63
478.895	13664.9
479.1	13535.88
479.304	13546.12
479.509	13099.66
479.713	13513.35
479.918	13230.73
480.122	12694.16
480.326	13140.62
480.531	13232.78
480.735	12872.34
480.94	12866.19
481.144	13157
481.348	12507.8
481.553	12604.05
481.757	12413.59
481.961	12704.4
482.166	12855.95
482.37	12763.79
482.574	12429.98
482.778	12550.81
482.983	12690.07
483.187	12479.13
483.391	12802.71
483.595	12315.29
483.8	12165.79
484.004	12303
484.208	12550.81
484.412	12483.22
484.616	12284.57
484.821	12616.34
485.025	12180.12
485.229	12534.42
485.433	12139.16
485.637	12559
485.841	12389.02
486.045	12362.39
486.249	12419.74
486.453	12401.3
486.657	12130.97
486.861	12479.13
487.065	11950.75
487.269	12462.74
487.473	12354.2
487.677	12487.32
487.881	12421.78
488.085	12276.38
488.289	12610.2
488.493	12546.71
488.697	12495.51
488.901	12679.83
489.105	12546.71
489.309	12714.64
489.512	12452.5
489.716	12587.67
489.92	12524.18
490.124	12407.45
490.328	12786.32
490.531	12735.12
490.735	12917.39
490.939	12798.61
491.143	12571.29
491.346	12661.4
491.55	12835.47
491.754	13054.61
491.958	13238.92
492.161	13070.99
492.365	13079.18
492.569	13240.97
492.772	13064.85
492.976	13148.81
493.18	13355.66
493.383	13435.53
493.587	13425.29
493.79	13574.79
493.994	13488.78
494.197	13501.06
494.401	13746.82
494.605	13386.38
494.808	13994.62
495.012	13900.42
495.215	13957.76
495.419	14117.5
495.622	14226.04
495.825	14242.43
496.029	14232.19
496.232	14938.74
496.436	14584.44
496.639	15110.77
496.843	14785.14
497.046	15311.47
497.249	15493.74
497.453	15477.35
497.656	15559.27
497.859	15598.18
498.063	15790.69
498.266	16233.05
498.469	16116.32
498.673	16321.12
498.876	16415.32
499.079	16894.55
499.282	16618.07
499.485	17171.02
499.689	17037.91
499.892	17326.67
500.095	17211.98
500.298	17863.24
500.501	17556.04
500.705	18016.83
500.908	18221.63
501.111	18627.13
501.314	18520.63
501.517	18856.5
501.72	19059.25
501.923	18954.8
502.126	19417.65
502.329	19841.57
502.532	19958.31
502.735	19941.93
502.938	20292.13
503.141	20496.92
503.344	20832.79
503.547	20695.58
503.75	21131.79
503.953	21389.84
504.156	21570.06
504.359	21604.88
504.562	21758.47
504.765	22606.33
504.968	22587.9
505.17	23085.56
505.373	22725.11
505.576	23222.77
505.779	23816.68
505.982	23730.67
506.185	24097.25
506.387	24201.7
506.59	24353.25
506.793	25039.32
506.996	24934.87
507.198	25809.36
507.401	25627.09
507.604	25803.21
507.807	26151.37
508.009	26450.37
508.212	26632.64
508.415	26978.75
508.617	27435.44
508.82	27126.2
509.022	27417.01
509.225	28051.88
509.428	28291.49
509.63	28826.01
509.833	28588.45
510.035	29069.72
510.238	29317.53
510.44	29731.22
510.643	30163.34
510.845	30136.71
511.048	30349.7
511.25	30620.03
511.453	30861.69
511.655	32213.35
511.858	31234.42
512.06	32020.84
512.262	32622.95
512.465	32348.52
512.667	32895.33
512.87	33259.87
513.072	33569.11
513.274	34077.01
513.477	34570.57
513.679	34625.86
513.881	35060.03
514.084	35440.95
514.286	35084.61
514.488	35733.81
514.69	36174.13
514.893	36526.38
515.095	36714.79
515.297	37384.47
515.499	37263.64
515.701	37984.53
515.904	38433.03
516.106	38330.64
516.308	38701.32
516.51	39354.62
516.712	39096.58
516.914	39923.96
517.116	40378.61
517.318	40438
517.52	40704.23
517.722	41234.66
517.925	41294.05
518.127	41816.28
518.329	42244.3
518.531	42014.93
518.733	42819.78
518.935	42862.79
519.136	42959.05
519.338	43690.17
519.54	43854.01
519.742	44523.69
519.944	44746.92
520.146	45090.98
520.348	45328.55
520.55	45828.25
520.752	45867.16
520.954	46719.12
521.155	46428.3
521.357	47083.65
521.559	47030.41
521.761	48078.97
521.963	47990.91
522.164	48289.91
522.366	48261.24
522.568	48521.33
522.77	48842.86
522.971	49422.44
523.173	49444.96
523.375	49893.47
523.576	49868.89
523.778	50165.85
523.98	50976.84
524.181	51015.75
524.383	51091.53
524.584	51658.82
524.786	51638.34
524.988	51789.89
525.189	52213.82
525.391	52185.15
525.592	52723.76
525.794	52901.93
525.995	52693.04
526.197	52848.69
526.398	52998.19
526.6	53219.37
526.801	53583.91
527.003	54007.84
527.204	53741.6
527.406	54231.07
527.607	54259.74
527.808	54632.47
528.01	53610.53
528.211	54523.93
528.412	55048.21
528.614	54796.31
528.815	54833.17
529.016	55699.46
529.218	55273.48
529.419	55091.21
529.62	55187.47
529.822	55302.15
530.023	55834.63
530.224	55810.05
530.425	55279.63
530.626	55365.64
530.828	55447.56
531.029	56477.69
531.23	55392.26
531.431	55734.27
531.632	55894.02
531.833	56076.29
532.035	56084.48
532.236	56016.89
532.437	56383.48
532.638	55793.67
532.839	56199.16
533.04	56545.27
533.241	55521.29
533.442	57239.53
533.643	56434.68
533.844	56428.54
534.045	56690.68
534.246	56051.71
534.447	56827.89
534.648	55984.13
534.849	56633.33
535.05	56092.67
535.251	56588.28
535.451	56479.74
535.652	56733.68
535.853	56610.81
536.054	56532.98
536.255	56854.51
536.456	55523.33
536.657	56752.12
536.857	56438.78
537.058	55881.73
537.259	56354.81
537.46	56160.25
537.66	56072.19
537.861	56846.32
538.062	55900.16
538.263	56414.2
538.463	56262.65
538.664	56078.33
538.865	56014.85
539.065	56330.23
539.266	55916.54
539.466	56485.88
539.667	55132.17
539.868	56240.12
540.068	56156.16
540.269	55975.94
540.469	56174.59
540.67	55193.61
540.87	55660.55
541.071	55457.8
541.271	55781.38
541.472	55463.94
541.672	55691.27
541.873	55443.46
542.073	55449.61
542.274	56287.23
542.474	55648.26
542.675	55171.08
542.875	56041.47
543.075	55504.9
543.276	55089.16
543.476	56010.75
543.676	55343.11
543.877	55283.72
544.077	55597.06
544.277	55605.25
544.478	55611.4
544.678	55273.48
544.878	55375.88
545.078	55253
545.279	55275.53
545.479	54708.24
545.679	55363.59
545.879	55027.73
546.079	55248.91
546.28	55336.97
546.48	54870.03
546.68	55209.99
546.88	55132.17
547.08	55046.16
547.28	54837.26
547.48	54990.86
547.68	55347.21
547.88	54558.74
548.081	55228.43
548.281	54759.44
548.481	54573.08
548.681	55470.09
548.881	54687.76
549.081	54851.6
549.28	54812.69
549.48	55291.91
549.68	54749.2
549.88	55670.79
550.08	54671.38
550.28	55289.87
550.48	54867.98
550.68	55162.89
550.88	54335.51
551.08	55099.4
551.279	55029.77
551.479	54628.37
551.679	54773.78
551.879	54743.06
552.079	54870.03
552.278	54618.13
552.478	54292.5
552.678	54716.43
552.878	54976.53
553.077	54669.33
553.277	54087.71
553.477	55136.27
553.676	54511.64
553.876	54818.83
554.076	54323.22
554.275	54585.36
554.475	53850.14
554.674	54032.41
554.874	54622.23
555.074	54052.89
555.273	54437.91
555.473	54624.28
555.672	54104.09
555.872	53960.73
556.071	54192.15
556.271	54220.83
556.47	53936.16
556.67	53755.94
556.869	54056.99
557.068	54145.05
557.268	53817.38
557.467	53784.61
557.667	54046.75
557.866	53889.06
558.065	53422.12
558.265	53438.5
558.464	53844
558.663	54056.99
558.863	52543.54
559.062	54159.39
559.261	52789.3
559.461	54003.74
559.66	53098.54
559.859	53499.94
560.058	53018.67
560.258	53059.63
560.457	52584.5
560.656	53332.01
560.855	52908.08
561.054	52867.12
561.253	52297.78
561.453	52914.22
561.652	52647.99
561.851	52678.71
562.05	52697.14
562.249	52213.82
562.448	52539.44
562.647	52185.15
562.846	51945.53
563.045	52179
563.244	51914.81
563.443	52308.02
563.642	51638.34
563.841	51818.56
564.04	51363.91
564.239	51918.91
564.438	50958.41
564.637	51724.35
564.836	52092.99
565.035	51118.15
565.234	51462.21
565.432	51279.94
565.631	51124.3
565.83	51150.92
566.029	50655.31
566.228	50710.61
566.427	50602.07
566.625	50532.43
566.824	49809.5
567.023	50382.93
567.222	49678.43
567.42	50782.29
567.619	49944.67
567.818	49827.93
568.016	50042.97
568.215	50061.4
568.414	49879.13
568.612	50309.21
568.811	49336.42
569.01	49666.14
569.208	49109.1
569.407	49719.39
569.605	48924.78
569.804	49412.2
570.002	48971.88
570.201	48930.92
570.4	48523.38
570.598	48398.45
570.797	48167.03
570.995	48330.87
571.193	47683.71
571.392	48580.72
571.59	47597.7
571.789	48230.52
571.987	47857.79
572.186	47696
572.384	47413.38
572.582	47435.91
572.781	47437.95
572.979	46794.89
573.177	47390.85
573.376	47188.1
573.574	46710.92
573.772	46794.89
573.971	46661.77
574.169	46039.19
574.367	46266.52
574.565	46385.3
574.763	46346.39
574.962	46493.84
575.16	45502.62
575.358	46139.54
575.556	45248.67
575.754	45732
575.952	45267.11
576.151	45742.24
576.349	44880.04
576.547	44984.49
576.745	44724.39
576.943	45471.9
577.141	44583.09
577.339	45080.74
577.537	44466.35
577.735	44613.8
577.933	44355.76
578.131	44546.22
578.329	44210.35
578.527	43825.34
578.725	44181.68
578.923	43997.37
579.121	43415.74
579.319	43503.81
579.516	43641.02
579.714	43505.85
579.912	43530.43
580.11	43079.88
580.308	43096.26
580.506	42692.81
580.704	42281.17
580.901	42913.99
581.099	42768.58
581.297	42074.32
581.495	42033.36
581.692	42406.09
581.89	42096.85
582.088	42524.88
582.285	41687.26
582.483	41955.54
582.681	41877.72
582.878	41568.48
583.076	41023.72
583.274	41554.14
583.471	40933.6
583.669	41191.65
583.866	40794.34
584.064	40962.28
584.262	40339.69
584.459	40673.51
584.657	40741.1
584.854	40839.4
585.052	39969.01
585.249	40304.88
585.447	40118.51
585.644	40388.85
585.841	39805.17
586.039	40159.47
586.236	39393.53
586.434	39563.51
586.631	39391.48
586.828	39512.31
587.026	39305.47
587.223	39385.34
587.42	39090.43
587.618	39106.82
587.815	38332.68
588.012	38631.69
588.21	38631.69
588.407	38582.54
588.604	38525.19
588.801	38232.33
588.999	37962
589.196	38070.54
589.393	38359.31
589.59	37931.28
589.787	38052.11
589.984	37531.93
590.182	37591.32
590.379	37744.92
590.576	37114.14
590.773	37048.61
590.97	36890.91
591.167	37077.28
591.364	36780.32
591.561	36956.45
591.758	36477.22
591.955	36159.79
592.152	36358.44
592.349	36430.12
592.546	36112.69
592.743	36401.45
592.94	35885.36
593.137	36206.89
593.334	36342.06
593.531	35375.42
593.727	35868.98
593.924	35508.54
594.121	35322.17
594.318	35844.4
594.515	34797.89
594.712	35655.99
594.908	35076.41
595.105	35463.48
595.302	34511.17
595.499	34961.73
595.696	34414.92
595.892	34822.47
596.089	34462.02
596.286	34597.19
596.482	34398.54
596.679	34099.53
596.876	34165.07
597.072	33993.04
597.269	34019.66
597.466	33505.62
597.662	33446.23
597.859	33522.01
598.055	33706.32
598.252	33169.76
598.448	33495.38
598.645	33204.57
598.841	32754.02
599.038	33317.21
599.234	32805.22
599.431	32721.25
599.627	32534.88
599.824	32741.73
600.02	32352.62
600.217	32618.85
600.413	32545.12
600.609	32274.79
600.806	31717.75
601.002	32416.1
601.198	31734.13
601.395	31674.74
601.591	31691.12
601.787	31508.85
601.984	31545.72
602.18	31996.27
602.376	31240.57
602.572	31334.78
602.769	31183.23
602.965	31111.55
603.161	30923.13
603.357	30867.84
603.553	30712.19
603.75	30800.26
603.946	30839.17
604.142	30585.22
604.338	30232.97
604.534	30321.03
604.73	29856.14
604.926	29919.63
605.122	30378.37
605.318	30013.84
605.514	29913.48
605.71	29712.78
605.906	29632.91
606.102	29753.74
606.298	29653.39
606.494	29737.36
606.69	29632.91
606.886	29514.13
607.082	28973.47
607.278	29378.97
607.474	28656.03
607.67	29122.97
607.866	28561.83
608.062	29135.26
608.257	29131.16
608.453	29094.3
608.649	28838.3
608.845	28737.95
609.041	28838.3
609.236	28801.44
609.432	28486.05
609.628	28283.3
609.824	28293.54
610.019	28080.55
610.215	28447.14
610.411	27990.44
610.606	28182.95
610.802	28197.29
610.998	28170.66
611.193	28058.03
611.389	27722.16
611.584	27763.12
611.78	27836.84
611.976	27937.2
612.171	27814.32
612.367	27462.07
612.562	27527.6
612.758	27171.25
612.953	26943.93
613.149	27806.13
613.344	27304.37
613.539	27566.51
613.735	26771.9
613.93	27355.57
614.126	27173.3
614.321	27236.79
614.517	26976.7
614.712	26786.24
614.907	26749.37
615.103	27154.87
615.298	26644.93
615.493	26773.95
615.688	26452.42
615.884	27054.52
616.079	26304.96
616.274	26732.99
616.47	26552.77
616.665	25983.43
616.86	26257.86
617.055	26161.61
617.25	26188.23
617.445	26096.07
617.641	25786.83
617.836	25819.6
618.031	25778.64
618.226	25784.78
618.421	25483.73
618.616	25614.8
618.811	25233.88
619.006	25590.22
619.201	25199.06
619.396	25385.43
619.591	24809.95
619.786	25530.83
619.981	24750.56
620.176	24981.98
620.371	24642.01
620.566	24478.18
620.761	24312.29
620.956	24635.87
621.151	24144.36
621.346	24422.88
621.541	23728.62
621.735	24269.28
621.93	23529.97
622.125	23751.15
622.32	23120.37
622.515	23396.85
622.709	23376.37
622.904	23359.98
623.099	22936.06
623.294	23081.46
623.488	22628.86
623.683	22913.53
623.878	22489.6
624.072	22639.1
624.267	22364.67
624.462	22348.29
624.656	22004.23
624.851	22104.58
625.046	21920.26
625.24	21979.65
625.435	21752.33
625.629	21568.01
625.824	21369.36
626.018	21223.95
626.213	20931.09
626.407	21209.62
626.602	20941.33
626.796	21125.65
626.991	20832.79
627.185	20746.78
627.38	20644.38
627.574	20427.29
627.768	20355.61
627.963	20322.85
628.157	19694.12
628.352	20048.42
628.546	19667.5
628.74	19905.06
628.935	19694.12
629.129	19397.17
629.323	19399.21
629.517	19563.05
629.712	19345.97
629.906	19241.52
630.1	19069.49
630.294	18860.6
630.489	18778.68
630.683	19018.29
630.877	18833.97
631.071	18332.22
631.265	18754.1
631.459	18330.17
631.653	18215.49
631.848	18000.45
632.042	18020.93
632.236	18006.59
632.43	17941.06
632.624	17826.37
632.818	17672.78
633.012	17498.7
633.206	17363.53
633.4	17427.02
633.594	17029.71
633.788	17304.14
633.982	17191.5
634.176	16953.94
634.369	16691.8
634.563	16829.01
634.757	16835.16
634.951	16867.92
635.145	16816.72
635.339	16773.72
635.533	16439.9
635.726	16437.85
635.92	16007.78
636.114	16220.77
636.308	16032.35
636.501	15979.11
636.695	16005.73
636.889	15774.31
637.083	15671.91
637.276	15856.23
637.47	15622.76
637.664	15526.5
637.857	15366.76
638.051	15342.19
638.244	15133.29
638.438	15135.34
638.632	15082.1
638.825	14826.1
639.019	14869.11
639.212	14731.89
639.406	14594.68
639.599	14600.82
639.793	14858.87
639.986	14484.09
640.18	14328.44
640.373	14453.37
640.567	14301.82
640.76	14183.04
640.954	13896.32
641.147	14101.12
641.34	13814.4
641.534	13953.66
641.727	13744.77
641.92	13664.9
642.114	13709.96
642.307	13494.92
642.5	13562.5
642.694	13210.25
642.887	13046.41
643.08	13257.36
643.273	13333.13
643.467	13027.98
643.66	12829.33
643.853	13056.65
644.046	12739.22
644.239	12704.4
644.432	12454.55
644.626	12462.74
644.819	12554.9
645.012	12397.21
645.205	12358.3
645.398	12307.1
645.591	12163.74
645.784	12368.54
645.977	12059.29
646.17	12098.2
646.363	11799.2
646.556	11907.74
646.749	11758.24
646.942	11860.64
647.135	11625.12
647.328	11553.45
647.521	11354.79
647.714	11489.96
647.907	11498.15
648.099	11330.22
648.292	11338.41
648.485	11410.09
648.678	11063.98
648.871	11154.09
649.064	11281.07
649.256	11004.59
649.449	10912.43
649.642	10953.39
649.835	10767.03
650.027	10642.1
650.22	10887.86
650.413	10595
650.605	10644.15
650.798	10402.49
650.991	10455.73
651.183	10556.08
651.376	10441.4
651.568	10232.51
651.761	10406.58
651.954	10013.37
652.146	10109.63
652.339	9988.8
652.531	10261.18
652.724	10089.15
652.916	9917.12
653.109	9925.31
653.301	9765.57
653.494	9976.51
653.686	9571.01
653.879	9759.42
654.071	9421.51
654.263	9564.87
654.456	9593.54
654.648	9464.52
654.84	9298.63
655.033	9235.14
655.225	9423.56
655.417	9245.38
655.61	9267.91
655.802	9208.52
655.994	8942.28
656.186	9085.64
656.379	9169.61
656.571	8907.47
656.763	8749.78
656.955	8717.01
657.148	8727.25
657.34	8860.37
657.532	8725.2
657.724	8657.62
657.916	8688.34
658.108	8540.88
658.3	8442.58
658.492	8501.97
658.684	8356.57
658.876	8436.44
659.068	8248.02
659.26	8274.65
659.452	8352.47
659.644	8266.46
659.836	8092.38
660.028	7996.12
660.22	8016.6
660.412	8024.79
660.604	7850.72
660.796	7957.21
660.988	7971.55
661.18	7772.89
661.372	7774.94
661.563	7969.5
661.755	7664.35
661.947	7951.07
662.139	7688.93
662.331	7488.23
662.522	7611.11
662.714	7602.91
662.906	7615.2
663.097	7369.44
663.289	7418.6
663.481	7570.15
663.673	7416.55
663.864	7244.52
664.056	7224.04
664.247	7201.51
664.439	7267.05
664.631	7029.48
664.822	7109.35
665.014	7072.49
665.205	7215.85
665.397	6959.85
665.588	7058.15
665.78	6966
665.971	6949.61
666.163	6712.05
666.354	6879.98
666.546	6871.79
666.737	6654.7
666.929	6697.71
667.12	6693.62
667.311	6644.46
667.503	6728.43
667.694	6550.26
667.885	6613.74
668.077	6648.56
668.268	6513.39
668.459	6441.72
668.651	6603.5
668.842	6476.53
669.033	6431.48
669.224	6357.75
669.416	6357.75
669.607	6322.93
669.798	6279.93
669.989	6320.88
670.18	6132.47
670.371	6255.35
670.563	6208.25
670.754	6103.8
670.945	6167.29
671.136	6337.27
671.327	6050.55
671.518	5935.87
671.709	6066.94
671.9	6046.46
672.091	5960.44
672.282	5892.86
672.473	5985.02
672.664	5831.42
672.855	5970.68
673.046	5845.76
673.237	5749.5
673.428	6003.45
673.619	5931.77
673.809	5671.68
674	5763.84
674.191	5683.97
674.382	5735.17
674.573	5661.44
674.764	5792.51
674.954	5466.88
675.145	5520.13
675.336	5741.31
675.527	5640.96
675.717	5559.04
675.908	5636.86
676.099	5618.43
676.289	5614.34
676.48	5524.23
676.671	5419.78
676.861	5567.23
677.052	5532.42
677.243	5432.07
677.433	5464.83
677.624	5460.74
677.814	5434.11
678.005	5468.93
678.195	5532.42
678.386	5452.55
678.576	5438.21
678.767	5356.29
678.957	5411.59
679.148	5380.87
679.338	5192.45
679.529	5360.39
679.719	5206.79
679.909	5163.78
680.1	5284.61
680.29	5063.43
680.481	5333.76
680.671	5196.55
680.861	5274.37
681.052	5282.56
681.242	5210.89
681.432	5266.18
681.622	5153.54
681.813	5108.49
682.003	5104.39
682.193	5049.1
682.383	5051.14
682.573	5034.76
682.764	5190.41
682.954	5239.56
683.144	5145.35
683.334	4975.37
683.524	5057.29
683.714	5067.53
683.904	4989.71
684.094	5065.48
684.284	4930.31
684.474	5067.53
684.664	4952.84
684.854	5018.38
685.044	4946.7
685.234	4899.59
685.424	4819.72
685.614	5008.14
685.804	4879.11
685.994	4801.29
686.184	4774.67
686.374	4940.55
686.564	4627.21
686.753	4870.92
686.943	4760.33
687.133	4756.24
687.323	4905.74
687.513	4840.2
687.702	4797.2
687.892	4741.9
688.082	4662.03
688.272	4711.18
688.461	4621.07
688.651	4887.31
688.841	4551.44
689.03	4600.59
689.22	4643.6
689.41	4565.78
689.599	4655.89
689.789	4584.21
689.979	4576.02
690.168	4612.88
690.358	4492.05
690.547	4475.67
690.737	4434.71
690.926	4344.6
691.116	4512.53
691.305	4539.15
691.495	4451.09
691.684	4412.18
691.874	4492.05
692.063	4446.99
692.252	4578.06
692.442	4487.95
692.631	4295.44
692.82	4195.09
693.01	4307.73
693.199	4231.96
693.388	4336.4
693.578	4293.4
693.767	4383.51
693.956	4272.92
694.146	4197.14
694.335	4207.38
694.524	4205.33
694.713	4223.76
694.902	4127.51
695.092	4299.54
695.281	4150.04
695.47	4254.48
695.659	4315.92
695.848	4082.46
696.037	4127.51
696.226	4143.89
696.415	4195.09
696.604	4102.93
696.793	4219.67
696.982	4129.56
697.171	4145.94
697.36	4156.18
697.549	4150.04
697.738	4119.32
697.927	4057.88
698.116	4084.5
698.305	4109.08
698.494	4082.46
698.683	3998.49
698.872	4021.02
699.061	4045.59
699.25	4104.98
699.438	3971.86
699.627	4053.78
699.816	4033.3
700.005	4092.69
700.193	3982.1
700.382	3980.06
700.571	3844.89
700.76	4145.94
700.948	4029.21
701.137	3820.32
701.326	3998.49
701.514	3955.48
701.703	3904.28
701.892	3902.23
702.08	4082.46
702.269	3916.57
702.457	3816.22
702.646	3883.8
702.834	3742.49
703.023	3754.78
703.212	3898.14
703.4	3863.32
703.589	3846.94
703.777	4004.63
703.965	3728.16
704.154	3812.12
704.342	3961.62
704.531	3709.72
704.719	3881.75
704.907	3748.64
705.096	3816.22
705.284	3803.93
705.472	3695.39
705.661	3709.72
705.849	3717.92
706.037	3654.43
706.226	3767.07
706.414	3769.12
706.602	3670.81
706.79	3613.47
706.979	3724.06
707.167	3640.09
707.355	3554.08
707.543	3650.33
707.731	3609.37
707.919	3521.31
708.107	3595.04
708.296	3539.74
708.484	3519.26
708.672	3674.91
708.86	3525.41
709.048	3517.22
709.236	3531.55
709.424	3625.76
709.612	3521.31
709.8	3554.08
709.988	3554.08
710.176	3529.5
710.364	3519.26
710.551	3525.41
710.739	3486.5
710.927	3443.49
711.115	3455.78
711.303	3474.21
711.491	3357.47
711.679	3463.97
711.866	3416.87
712.054	3316.51
712.242	3402.53
712.43	3298.08
712.617	3351.33
712.805	3296.04
712.993	3314.47
713.181	3396.39
713.368	3255.08
713.556	3271.46
713.744	3265.32
713.931	3314.47
714.119	3365.67
714.306	3320.61
714.494	3207.97
714.682	3146.53
714.869	3240.74
715.057	3224.36
715.244	3234.6
715.432	3222.31
715.619	3167.01
715.807	3255.08
715.994	3121.96
716.182	3115.81
716.369	3117.86
716.556	3119.91
716.744	3199.78
716.931	3171.11
717.119	3220.26
717.306	3093.29
717.493	3074.85
717.681	3081
717.868	3193.64
718.055	3060.52
718.242	3046.18
718.43	3173.16
718.617	3132.2
718.804	3105.57
718.991	2954.02
719.179	3056.42
719.366	3029.8
719.553	3003.18
719.74	2966.31
719.927	3011.37
720.114	2941.74
720.301	2872.11
720.488	2874.15
720.676	2874.15
720.863	3019.56
721.05	2853.67
721.237	2863.91
721.424	2908.97
721.611	2870.06
721.798	2915.11
721.985	2937.64
722.172	2886.44
722.358	2800.43
722.545	2927.4
722.732	2796.33
722.919	2755.37
723.106	2738.99
723.293	2820.91
723.48	2884.39
723.667	2767.66
723.853	2743.08
724.04	2814.76
724.227	2738.99
724.414	2732.84
724.6	2720.56
724.787	2698.03
724.974	2710.32
725.161	2687.79
725.347	2628.4
725.534	2818.86
725.72	2765.61
725.907	2671.4
726.094	2683.69
726.28	2585.39
726.467	2620.21
726.653	2663.21
726.84	2659.12
727.027	2695.98
727.213	2646.83
727.4	2642.73
727.586	2614.06
727.773	2534.19
727.959	2562.86
728.145	2632.49
728.332	2560.81
728.518	2472.75
728.705	2546.48
728.891	2517.81
729.077	2616.11
729.264	2444.08
729.45	2652.97
729.636	2450.22
729.823	2415.41
730.009	2573.1
730.195	2405.17
730.382	2458.42
730.568	2591.53
730.754	2505.52
730.94	2401.07
731.126	2476.85
731.313	2450.22
731.499	2431.79
731.685	2460.46
731.871	2401.07
732.057	2401.07
732.243	2356.02
732.429	2302.77
732.615	2450.22
732.801	2446.13
732.987	2452.27
733.173	2425.65
733.359	2405.17
733.545	2319.15
733.731	2362.16
733.917	2444.08
734.103	2358.07
734.289	2323.25
734.475	2263.86
734.661	2245.43
734.847	2335.54
735.033	2292.53
735.219	2392.88
735.404	2253.62
735.59	2220.85
735.776	2231.09
735.962	2270
736.148	2313.01
736.333	2356.02
736.519	2227
736.705	2237.24
736.89	2183.99
737.076	2087.73
737.262	2243.38
737.447	2097.97
737.633	2165.56
737.819	2210.61
738.004	2210.61
738.19	2134.84
738.375	2190.13
738.561	2208.56
738.747	2218.8
738.932	2169.65
739.118	2165.56
739.303	2181.94
739.489	2132.79
739.674	2054.97
739.859	2016.05
740.045	2011.96
740.23	2149.17
740.416	2005.81
740.601	2024.25
740.786	2014.01
740.972	2075.45
741.157	1989.43
741.342	2014.01
741.528	1975.1
741.713	1971
741.898	1823.55
742.084	1891.13
742.269	1991.48
742.454	1952.57
742.639	1971
742.824	1960.76
743.01	1934.14
743.195	1964.86
743.38	1915.7
743.565	1854.27
743.75	1792.83
743.935	1846.07
744.12	1960.76
744.305	1874.74
744.49	1895.22
744.675	1821.5
744.86	1809.21
745.045	1833.79
745.23	1846.07
745.415	1946.42
745.6	1764.15
745.785	1856.31
745.97	1848.12
746.155	1829.69
746.34	1717.05
746.525	1758.01
746.71	1739.58
746.895	1743.67
747.079	1672
747.264	1792.83
747.449	1760.06
747.634	1647.42
747.819	1694.52
748.003	1702.72
748.188	1669.95
748.373	1657.66
748.557	1600.32
748.742	1590.08
748.927	1669.95
749.111	1655.61
749.296	1555.26
749.481	1575.74
749.665	1518.4
749.85	1571.65
750.034	1614.65
750.219	1559.36
750.404	1536.83
750.588	1502.01
750.773	1432.38
750.957	1528.64
751.141	1387.33
751.326	1481.53
751.51	1465.15
751.695	1545.02
751.879	1407.81
752.064	1432.38
752.248	1407.81
752.432	1440.58
752.617	1450.82
752.801	1420.1
752.985	1332.03
753.17	1446.72
753.354	1407.81
753.538	1399.62
753.722	1397.57
753.907	1327.94
754.091	1399.62
754.275	1293.12
754.459	1246.02
754.643	1250.11
754.828	1325.89
755.012	1291.07
755.196	1278.79
755.38	1260.35
755.564	1209.15
755.748	1213.25
755.932	1258.31
756.116	1243.97
756.3	1225.54
756.484	1184.58
756.668	1243.97
756.852	1098.56
757.036	1229.63
757.22	1119.04
757.404	1045.32
757.588	1170.24
757.772	1219.39
757.956	1155.91
758.14	1186.63
758.323	1168.2
758.507	1061.7
758.691	1131.33
758.875	1063.75
759.059	1182.53
759.242	1078.08
759.426	1100.61
759.61	1041.22
759.794	996.17
759.977	1076.04
760.161	1172.29
760.345	1041.22
760.528	1035.08
760.712	1047.37
760.895	1028.93
761.079	963.4
761.263	1061.7
761.446	1030.98
761.63	1061.7
761.813	1092.42
761.997	1014.6
762.18	887.62
762.364	957.25
762.547	998.21
762.731	1010.5
762.914	940.87
763.098	1020.74
763.281	965.45
763.464	975.69
763.648	955.21
763.831	940.87
764.015	891.72
764.198	969.54
764.381	891.72
764.564	928.58
764.748	926.54
764.931	879.43
765.114	959.3
765.297	949.06
765.481	885.58
765.664	891.72
765.847	930.63
766.03	934.73
766.213	895.82
766.397	891.72
766.58	861
766.763	826.18
766.946	799.56
767.129	934.73
767.312	842.57
767.495	787.27
767.678	738.12
767.861	858.95
768.044	760.65
768.227	838.47
768.41	852.81
768.593	842.57
768.776	897.86
768.959	813.9
769.142	777.03
769.324	809.8
769.507	791.37
769.69	813.9
769.873	830.28
770.056	920.39
770.239	779.08
770.421	861
770.604	793.42
770.787	889.67
770.97	826.18
771.152	725.83
771.335	846.66
771.518	686.92
771.7	752.46
771.883	830.28
772.066	865.1
772.248	842.57
772.431	697.16
772.613	783.18
772.796	725.83
772.978	742.22
773.161	797.51
773.343	713.55
773.526	703.31
773.708	731.98
773.891	719.69
774.073	699.21
774.256	711.5
774.438	680.78
774.621	682.83
774.803	670.54
774.985	719.69
775.168	705.35
775.35	736.07
775.532	721.74
775.715	576.33
775.897	643.92
776.079	611.15
776.261	641.87
776.444	707.4
776.626	734.03
776.808	629.58
776.99	627.53
777.173	625.48
777.355	621.39
777.537	600.91
777.719	607.05
777.901	633.68
778.083	629.58
778.265	555.85
778.447	623.44
778.629	625.48
778.811	623.44
778.993	594.76
779.175	545.61
779.357	518.99
779.539	553.8
779.721	545.61
779.903	559.95
780.085	531.28
780.267	566.09
780.449	496.46
780.631	496.46
780.812	562
780.994	586.57
781.176	541.52
781.358	471.89
781.54	541.52
781.721	508.75
781.903	537.42
782.085	500.56
782.267	547.66
782.448	504.65
782.63	518.99
782.812	473.93
782.993	500.56
783.175	494.41
783.357	510.8
783.538	475.98
783.72	449.36
783.901	490.32
784.083	424.78
784.264	420.69
784.446	430.93
784.627	461.65
784.809	498.51
784.99	406.35
785.172	453.45
785.353	486.22
785.535	394.06
785.716	426.83
785.897	418.64
786.079	439.12
786.26	467.79
786.441	465.74
786.623	432.97
786.804	418.64
786.985	369.49
787.167	359.25
787.348	418.64
787.529	357.2
787.71	387.92
787.891	408.4
788.073	297.81
788.254	400.21
788.435	394.06
788.616	377.68
788.797	410.45
788.978	404.3
789.159	361.3
789.34	387.92
789.522	361.3
789.703	289.62
789.884	398.16
790.065	400.21
790.246	310.1
790.427	289.62
790.607	404.3
790.788	430.93
790.969	314.19
791.15	387.92
791.331	312.14
791.512	260.95
791.693	308.05
791.874	340.82
792.054	332.62
792.235	349.01
792.416	295.76
792.597	328.53
792.778	340.82
792.958	324.43
793.139	359.25
793.32	314.19
793.5	265.04
793.681	410.45
793.862	377.68
794.042	299.86
794.223	295.76
794.404	306
794.584	267.09
794.765	297.81
794.945	271.19
795.126	332.62
795.306	297.81
795.487	291.66
795.667	234.32
795.848	246.61
796.028	248.66
796.209	236.37
796.389	252.75
796.57	277.33
796.75	273.23
796.93	306
797.111	271.19
797.291	246.61
797.471	265.04
797.652	248.66
797.832	273.23
798.012	297.81
798.192	228.18
798.373	217.94
798.553	320.34
798.733	232.27
798.913	211.79
799.093	306
799.274	174.93
799.454	299.86
799.634	254.8
799.814	201.55
799.994	230.23
800.174	238.42
800.354	242.51
800.534	271.19
800.714	209.75
800.894	303.95
801.074	168.79
801.254	185.17
801.434	185.17
801.614	258.9
801.794	162.64
801.974	682.83
802.154	207.7
802.334	205.65
802.514	226.13
802.693	189.27
802.873	256.85
803.053	234.32
803.233	222.03
803.413	267.09
803.592	207.7
803.772	172.88
803.952	197.46
804.131	238.42
804.311	248.66
804.491	181.07
804.67	164.69
804.85	174.93
805.03	279.38
805.209	201.55
805.389	191.31
805.568	156.5
805.748	127.83
805.928	76.63
806.107	217.94
806.287	248.66
806.466	113.49
806.646	150.36
806.825	187.22
807.004	215.89
807.184	113.49
807.363	224.08
807.543	136.02
807.722	150.36
807.901	219.99
808.081	205.65
808.26	183.12
808.439	187.22
808.619	152.4
808.798	197.46
808.977	119.64
809.156	183.12
809.336	115.54
809.515	164.69
809.694	129.88
809.873	181.07
810.052	172.88
810.231	197.46
810.411	131.92
810.59	213.84
810.769	183.12
810.948	150.36
811.127	158.55
811.306	168.79
811.485	185.17
811.664	217.94
811.843	209.75
812.022	140.12
812.201	95.06
812.38	103.25
812.559	154.45
812.737	195.41
812.916	103.25
813.095	154.45
813.274	84.82
813.453	123.73
813.632	150.36
813.811	140.12
813.989	133.97
814.168	74.58
814.347	103.25
814.526	95.06
814.704	88.92
814.883	160.59
815.062	164.69
815.24	181.07
815.419	127.83
815.598	125.78
815.776	93.01
815.955	111.44
816.133	95.06
816.312	74.58
816.49	160.59
816.669	62.29
816.847	189.27
817.026	156.5
817.204	125.78
817.383	142.16
817.561	131.92
817.74	64.34
817.918	121.68
818.097	121.68
818.275	162.64
818.453	154.45
818.632	97.11
818.81	129.88
818.988	176.98
819.167	121.68
819.345	90.96
819.523	60.24
819.701	127.83
819.879	70.48
820.058	123.73
820.236	129.88
820.414	197.46
820.592	111.44
820.77	4.95
820.948	123.73
821.127	136.02
821.305	88.92
821.483	142.16
821.661	215.89
821.839	154.45
822.017	68.44
822.195	138.07
822.373	148.31
822.551	13.14
822.729	74.58
822.907	25.43
823.085	95.06
823.262	64.34
823.44	60.24
823.618	125.78
823.796	140.12
823.974	76.63
824.152	90.96
824.329	140.12
824.507	99.16
824.685	90.96
824.863	50
825.04	111.44
825.218	129.88
825.396	111.44
825.574	125.78
825.751	111.44
825.929	70.48
826.107	115.54
826.284	97.11
826.462	13.14
826.639	52.05
826.817	99.16
826.994	144.21
827.172	64.34
827.349	133.97
827.527	123.73
827.704	52.05
827.882	127.83
828.059	103.25
828.237	88.92
828.414	47.96
828.591	99.16
828.769	-5.29
828.946	99.16
829.124	142.16
829.301	62.29
829.478	76.63
829.655	70.48
829.833	66.39
830.01	43.86
830.187	119.64
830.364	72.53
830.542	66.39
830.719	156.5
830.896	76.63
831.073	60.24
831.25	41.81
831.427	78.68
831.604	45.91
831.782	117.59
831.959	90.96
832.136	76.63
832.313	113.49
832.49	80.72
832.667	29.52
832.844	68.44
833.021	86.87
833.198	86.87
833.374	70.48
833.551	88.92
833.728	88.92
833.905	82.77
834.082	123.73
834.259	31.57
834.436	76.63
834.612	23.38
834.789	82.77
834.966	97.11
835.143	45.91
835.319	97.11
835.496	21.33
835.673	33.62
835.85	97.11
836.026	125.78
836.203	86.87
836.38	56.15
836.556	68.44
836.733	37.72
836.909	68.44
837.086	39.76
837.262	54.1
837.439	66.39
837.616	29.52
837.792	66.39
837.968	62.29
838.145	82.77
838.321	27.48
838.498	37.72
838.674	101.2
838.851	80.72
839.027	56.15
839.203	72.53
839.38	43.86
839.556	103.25
839.732	70.48
839.909	-25.77
840.085	25.43
840.261	13.14
840.437	58.2
840.614	64.34
840.79	93.01
840.966	82.77
841.142	88.92
841.318	4.95
841.494	107.35
841.671	115.54
841.847	-13.48
842.023	56.15
842.199	72.53
842.375	119.64
842.551	33.62
842.727	23.38
842.903	101.2
843.079	78.68
843.255	72.53
843.431	33.62
843.607	115.54
843.783	68.44
843.959	121.68
844.134	29.52
844.31	39.76
844.486	97.11
844.662	0.85
844.838	15.19
845.013	66.39
845.189	115.54
845.365	39.76
845.541	-15.53
845.716	62.29
845.892	60.24
846.068	45.91
846.244	56.15
846.419	123.73
846.595	66.39
846.77	9.05
846.946	138.07
847.122	19.29
847.297	2.9
847.473	7
847.648	56.15
847.824	25.43
847.999	70.48
848.175	52.05
848.35	50
848.526	66.39
848.701	25.43
848.876	39.76
849.052	4.95
849.227	90.96
849.403	70.48
849.578	-9.39
849.753	23.38
849.929	86.87
850.104	93.01
850.279	76.63
850.454	-1.19
850.63	27.48
850.805	7
850.98	15.19
851.155	33.62
851.33	-7.34
851.505	0.85
851.681	2.9
851.856	13.14
852.031	78.68
852.206	47.96
852.381	72.53
852.556	56.15
852.731	0.85
852.906	62.29
853.081	35.67
853.256	52.05
853.431	33.62
853.606	54.1
853.781	-38.06
853.956	4.95
854.131	0.85
854.305	23.38
854.48	39.76
854.655	9.05
854.83	64.34
855.005	27.48
855.18	82.77
855.354	41.81
855.529	15.19
855.704	13.14
855.879	72.53
856.053	43.86
856.228	64.34
856.403	95.06
856.577	90.96
856.752	43.86
856.926	103.25
857.101	17.24
857.276	54.1
857.45	84.82
857.625	88.92
857.799	-29.87
857.974	27.48
858.148	35.67
858.323	25.43
858.497	-9.39
858.672	82.77
858.846	45.91
859.02	45.91
859.195	-3.24
859.369	-15.53
859.543	-23.72
859.718	0.85
859.892	27.48
860.066	60.24
860.241	0.85
860.415	33.62
860.589	-25.77
860.763	54.1
860.938	41.81
861.112	29.52
861.286	31.57
861.46	39.76
861.634	-33.96
861.808	50
861.982	23.38
862.157	25.43
862.331	25.43
862.505	62.29
862.679	37.72
862.853	103.25
863.027	56.15
863.201	97.11
863.375	9.05
863.549	56.15
863.722	50
863.896	47.96
864.07	23.38
864.244	15.19
864.418	-5.29
864.592	66.39
864.766	21.33
864.939	19.29
865.113	-29.87
865.287	41.81
865.461	-79.02
865.634	21.33
865.808	39.76
865.982	56.15
866.156	11.09
866.329	19.29
866.503	50
866.676	-13.48
866.85	-15.53
867.024	47.96
867.197	-3.24
867.371	80.72
867.544	23.38
867.718	50
867.891	74.58
868.065	50
868.238	35.67
868.412	-1.19
868.585	-7.34
868.759	39.76
868.932	-13.48
869.105	88.92
869.279	4.95
869.452	9.05
869.625	-50.35
869.799	-9.39
869.972	-1.19
870.145	4.95
870.319	84.82
870.492	-9.39
870.665	45.91
870.838	90.96
871.011	-36.01
871.185	9.05
871.358	-31.91
871.531	37.72
871.704	76.63
871.877	29.52
872.05	54.1
872.223	-1.19
872.396	45.91
872.569	-17.58
872.742	-42.15
872.915	7
873.088	11.09
873.261	47.96
873.434	-5.29
873.607	-56.49
873.78	11.09
873.953	-44.2
874.126	66.39
874.299	35.67
874.471	-15.53
874.644	56.15
874.817	-27.82
874.99	27.48
875.163	33.62
875.335	88.92
875.508	47.96
875.681	47.96
875.853	-52.39
876.026	76.63
876.199	60.24
876.371	66.39
876.544	-29.87
876.717	2.9
876.889	-15.53
877.062	41.81
877.234	52.05
877.407	-46.25
877.579	7
877.752	7
877.924	-1.19
878.097	-25.77
878.269	-1.19
878.442	-21.67
878.614	58.2
878.786	29.52
878.959	-56.49
879.131	21.33
879.303	31.57
879.476	17.24
879.648	35.67
879.82	-48.3
879.993	29.52
880.165	-17.58
880.337	-27.82
880.509	25.43
880.681	-13.48
880.854	50
881.026	-17.58
881.198	95.06
881.37	-1.19
881.542	58.2
881.714	-19.63
881.886	25.43
882.058	43.86
882.23	-31.91
882.402	-38.06
882.574	31.57
882.746	13.14
882.918	72.53
883.09	21.33
883.262	41.81
883.434	13.14
883.606	-7.34
883.778	-23.72
883.95	113.49
884.122	-54.44
884.293	-25.77
884.465	-21.67
884.637	50
884.809	76.63
884.98	50
885.152	50
885.324	56.15
885.496	23.38
885.667	-13.48
885.839	2.9
886.011	39.76
886.182	-17.58
886.354	-5.29
886.525	-87.21
886.697	111.44
886.869	-33.96
887.04	60.24
887.212	29.52
887.383	-7.34
887.555	97.11
887.726	-21.67
887.897	-9.39
888.069	80.72
888.24	23.38
888.412	-11.43
888.583	41.81
888.754	-15.53
888.926	27.48
889.097	97.11
889.268	-29.87
889.44	-15.53
889.611	-56.49
889.782	4.95
889.953	17.24
890.125	88.92
890.296	33.62
890.467	-25.77
890.638	-27.82
890.809	80.72
890.98	33.62
891.151	31.57
891.323	58.2
891.494	7
891.665	-31.91
891.836	-66.73
892.007	33.62
892.178	62.29
892.349	-11.43
892.52	-9.39
892.691	66.39
892.862	66.39
893.032	25.43
893.203	-33.96
893.374	-11.43
893.545	13.14
893.716	-40.11
893.887	25.43
894.057	37.72
894.228	47.96
894.399	27.48
894.57	33.62
894.74	-29.87
894.911	-29.87
895.082	-76.97
895.253	11.09
895.423	29.52
895.594	19.29
895.764	103.25
895.935	-56.49
896.106	-27.82
896.276	-19.63
896.447	0.85
896.617	-3.24
896.788	29.52
896.958	-1.19
897.129	72.53
897.299	0.85
897.47	11.09
897.64	50
897.81	52.05
897.981	58.2
898.151	9.05
898.322	-3.24
898.492	41.81
898.662	82.77
898.832	13.14
899.003	-1.19
899.173	103.25
899.343	-25.77
899.513	-52.39
