Data from USB4F104151__87__12-36-58-552.txt Node

Date: Fri Mar 14 12:36:58 EDT 2025
User: louis
Spectrometer: USB4F10415
Trigger mode: 4
Integration Time (sec): 2.000000E-2
Scans to average: 1
Electric dark correction enabled: true
Nonlinearity correction enabled: false
Boxcar width: 0
XAxis mode: Wavelengths
Number of Pixels in Spectrum: 3648
>>>>>Begin Spectral Data<<<<<
178.204	-123.39
178.424	-123.39
178.644	-123.39
178.864	-86.53
179.084	-80.38
179.304	32.26
179.524	-31.23
179.744	30.21
179.964	13.82
180.184	44.54
180.404	24.06
180.624	-8.7
180.844	-35.33
181.064	1.54
181.283	28.16
181.503	-72.19
181.723	-27.14
181.943	-33.28
182.163	15.87
182.383	-4.61
182.602	-2.56
182.822	24.06
183.042	65.02
183.262	-25.09
183.482	62.98
183.701	-27.14
183.921	-0.51
184.141	-14.85
184.361	52.74
184.58	-4.61
184.8	60.93
185.02	32.26
185.239	-23.04
185.459	5.63
185.679	15.87
185.898	15.87
186.118	-27.14
186.338	-47.62
186.557	34.3
186.777	5.63
186.997	22.02
187.216	7.68
187.436	69.12
187.655	28.16
187.875	24.06
188.095	44.54
188.314	-14.85
188.534	7.68
188.753	46.59
188.973	42.5
189.192	60.93
189.412	15.87
189.631	48.64
189.851	54.78
190.07	9.73
190.29	-68.09
190.509	62.98
190.729	69.12
190.948	77.31
191.168	136.7
191.387	77.31
191.607	-18.94
191.826	77.31
192.045	-20.99
192.265	-4.61
192.484	13.82
192.704	54.78
192.923	3.58
193.142	13.82
193.362	11.78
193.581	46.59
193.8	17.92
194.02	71.17
194.239	60.93
194.458	22.02
194.678	69.12
194.897	7.68
195.116	30.21
195.335	89.6
195.555	-53.76
195.774	32.26
195.993	-43.52
196.212	19.97
196.432	3.58
196.651	-43.52
196.87	58.88
197.089	13.82
197.308	67.07
197.528	54.78
197.747	-6.66
197.966	-25.09
198.185	40.45
198.404	-18.94
198.623	13.82
198.842	46.59
199.062	60.93
199.281	34.3
199.5	52.74
199.719	56.83
199.938	-41.47
200.157	-23.04
200.376	24.06
200.595	13.82
200.814	62.98
201.033	73.21
201.252	50.69
201.471	46.59
201.69	-61.95
201.909	46.59
202.128	32.26
202.347	54.78
202.566	26.11
202.785	-41.47
203.004	26.11
203.223	130.56
203.442	32.26
203.661	85.5
203.879	9.73
204.098	-51.71
204.317	24.06
204.536	42.5
204.755	58.88
204.974	-10.75
205.193	142.85
205.411	62.98
205.63	24.06
205.849	62.98
206.068	44.54
206.287	-2.56
206.505	65.02
206.724	-27.14
206.943	71.17
207.162	50.69
207.381	24.06
207.599	-27.14
207.818	9.73
208.037	-8.7
208.255	30.21
208.474	-49.66
208.693	24.06
208.911	19.97
209.13	13.82
209.349	67.07
209.567	13.82
209.786	99.84
210.005	110.08
210.223	101.89
210.442	-88.57
210.661	5.63
210.879	-45.57
211.098	-23.04
211.316	1.54
211.535	15.87
211.753	-35.33
211.972	-4.61
212.191	-12.8
212.409	-12.8
212.628	1.54
212.846	15.87
213.065	62.98
213.283	65.02
213.502	-18.94
213.72	22.02
213.938	-37.38
214.157	30.21
214.375	1.54
214.594	-2.56
214.812	58.88
215.031	42.5
215.249	-66.05
215.467	26.11
215.686	-35.33
215.904	79.36
216.122	-14.85
216.341	87.55
216.559	-27.14
216.778	34.3
216.996	97.79
217.214	105.98
217.432	105.98
217.651	42.5
217.869	85.5
218.087	-14.85
218.306	30.21
218.524	34.3
218.742	-25.09
218.96	17.92
219.179	56.83
219.397	15.87
219.615	65.02
219.833	-10.75
220.051	-20.99
220.27	-10.75
220.488	46.59
220.706	24.06
220.924	28.16
221.142	-43.52
221.36	22.02
221.578	-51.71
221.796	15.87
222.015	40.45
222.233	-16.9
222.451	67.07
222.669	-18.94
222.887	32.26
223.105	-27.14
223.323	36.35
223.541	1.54
223.759	-20.99
223.977	1.54
224.195	56.83
224.413	17.92
224.631	-0.51
224.849	3.58
225.067	62.98
225.285	17.92
225.503	-2.56
225.721	-6.66
225.939	7.68
226.157	48.64
226.375	50.69
226.592	28.16
226.81	91.65
227.028	58.88
227.246	87.55
227.464	50.69
227.682	38.4
227.9	48.64
228.117	32.26
228.335	71.17
228.553	-16.9
228.771	81.41
228.989	77.31
229.206	71.17
229.424	24.06
229.642	67.07
229.86	7.68
230.077	89.6
230.295	3.58
230.513	36.35
230.731	40.45
230.948	81.41
231.166	50.69
231.384	52.74
231.601	-27.14
231.819	15.87
232.037	87.55
232.254	71.17
232.472	30.21
232.689	-47.62
232.907	56.83
233.125	22.02
233.342	-59.9
233.56	11.78
233.777	73.21
233.995	42.5
234.213	36.35
234.43	28.16
234.648	26.11
234.865	-6.66
235.083	77.31
235.3	-20.99
235.518	48.64
235.735	99.84
235.953	38.4
236.17	-10.75
236.388	24.06
236.605	46.59
236.822	75.26
237.04	-31.23
237.257	44.54
237.475	65.02
237.692	-49.66
237.909	-8.7
238.127	-100.86
238.344	36.35
238.562	54.78
238.779	-23.04
238.996	7.68
239.214	54.78
239.431	24.06
239.648	-2.56
239.865	38.4
240.083	38.4
240.3	75.26
240.517	73.21
240.735	38.4
240.952	56.83
241.169	60.93
241.386	28.16
241.603	62.98
241.821	17.92
242.038	5.63
242.255	-18.94
242.472	11.78
242.689	26.11
242.907	13.82
243.124	87.55
243.341	5.63
243.558	-41.47
243.775	89.6
243.992	-51.71
244.209	73.21
244.426	52.74
244.643	40.45
244.86	11.78
245.078	89.6
245.295	56.83
245.512	48.64
245.729	-20.99
245.946	101.89
246.163	15.87
246.38	50.69
246.597	-4.61
246.814	11.78
247.031	48.64
247.248	-16.9
247.464	32.26
247.681	65.02
247.898	97.79
248.115	112.13
248.332	19.97
248.549	48.64
248.766	-8.7
248.983	34.3
249.2	17.92
249.417	44.54
249.633	-70.14
249.85	75.26
250.067	-37.38
250.284	-14.85
250.501	11.78
250.717	5.63
250.934	1.54
251.151	58.88
251.368	95.74
251.585	73.21
251.801	-18.94
252.018	69.12
252.235	5.63
252.451	-43.52
252.668	5.63
252.885	79.36
253.102	38.4
253.318	-33.28
253.535	60.93
253.752	19.97
253.968	22.02
254.185	32.26
254.401	36.35
254.618	13.82
254.835	77.31
255.051	116.22
255.268	7.68
255.484	40.45
255.701	71.17
255.917	58.88
256.134	1.54
256.351	50.69
256.567	15.87
256.784	30.21
257	-25.09
257.217	36.35
257.433	24.06
257.65	-16.9
257.866	-4.61
258.082	7.68
258.299	-25.09
258.515	-18.94
258.732	22.02
258.948	34.3
259.165	67.07
259.381	1.54
259.597	-10.75
259.814	50.69
260.03	-18.94
260.246	3.58
260.463	-6.66
260.679	42.5
260.895	11.78
261.112	58.88
261.328	9.73
261.544	85.5
261.761	-12.8
261.977	56.83
262.193	17.92
262.409	-39.42
262.626	11.78
262.842	17.92
263.058	-66.05
263.274	77.31
263.49	22.02
263.707	1.54
263.923	5.63
264.139	28.16
264.355	7.68
264.571	69.12
264.787	36.35
265.004	32.26
265.22	75.26
265.436	38.4
265.652	38.4
265.868	15.87
266.084	28.16
266.3	48.64
266.516	-8.7
266.732	22.02
266.948	87.55
267.164	5.63
267.38	19.97
267.596	22.02
267.812	77.31
268.028	-31.23
268.244	-6.66
268.46	38.4
268.676	46.59
268.892	46.59
269.108	1.54
269.324	79.36
269.54	32.26
269.756	87.55
269.972	28.16
270.188	-45.57
270.403	26.11
270.619	26.11
270.835	62.98
271.051	15.87
271.267	11.78
271.483	62.98
271.698	-20.99
271.914	5.63
272.13	52.74
272.346	42.5
272.562	-0.51
272.777	24.06
272.993	30.21
273.209	58.88
273.425	-51.71
273.64	-14.85
273.856	7.68
274.072	46.59
274.287	1.54
274.503	128.51
274.719	85.5
274.934	42.5
275.15	3.58
275.366	34.3
275.581	-6.66
275.797	50.69
276.012	52.74
276.228	81.41
276.444	40.45
276.659	17.92
276.875	56.83
277.09	-27.14
277.306	58.88
277.521	1.54
277.737	54.78
277.952	-4.61
278.168	79.36
278.383	85.5
278.599	30.21
278.814	3.58
279.03	-12.8
279.245	1.54
279.461	11.78
279.676	89.6
279.892	13.82
280.107	50.69
280.322	-51.71
280.538	-16.9
280.753	44.54
280.969	-10.75
281.184	36.35
281.399	71.17
281.615	3.58
281.83	11.78
282.045	40.45
282.26	11.78
282.476	-4.61
282.691	24.06
282.906	3.58
283.122	11.78
283.337	-31.23
283.552	30.21
283.767	38.4
283.983	19.97
284.198	19.97
284.413	77.31
284.628	-8.7
284.843	-8.7
285.058	-2.56
285.274	46.59
285.489	52.74
285.704	44.54
285.919	48.64
286.134	-10.75
286.349	40.45
286.564	67.07
286.779	40.45
286.995	26.11
287.21	9.73
287.425	32.26
287.64	22.02
287.855	28.16
288.07	-12.8
288.285	99.84
288.5	40.45
288.715	22.02
288.93	-33.28
289.145	46.59
289.36	159.23
289.575	-33.28
289.79	69.12
290.004	-20.99
290.219	89.6
290.434	71.17
290.649	-20.99
290.864	1.54
291.079	22.02
291.294	36.35
291.509	42.5
291.724	40.45
291.938	-2.56
292.153	75.26
292.368	50.69
292.583	30.21
292.798	40.45
293.012	52.74
293.227	-6.66
293.442	7.68
293.657	69.12
293.871	67.07
294.086	-18.94
294.301	26.11
294.516	26.11
294.73	73.21
294.945	-47.62
295.16	-6.66
295.374	81.41
295.589	114.17
295.804	-2.56
296.018	7.68
296.233	-35.33
296.447	15.87
296.662	65.02
296.877	62.98
297.091	40.45
297.306	79.36
297.52	7.68
297.735	75.26
297.949	50.69
298.164	40.45
298.378	-2.56
298.593	-12.8
298.807	7.68
299.022	38.4
299.236	48.64
299.451	69.12
299.665	-0.51
299.88	1.54
300.094	38.4
300.309	73.21
300.523	112.13
300.737	36.35
300.952	-16.9
301.166	71.17
301.381	-6.66
301.595	65.02
301.809	17.92
302.024	9.73
302.238	50.69
302.452	108.03
302.667	26.11
302.881	65.02
303.095	-57.86
303.309	89.6
303.524	81.41
303.738	32.26
303.952	-25.09
304.166	7.68
304.381	-20.99
304.595	77.31
304.809	56.83
305.023	81.41
305.237	-14.85
305.452	38.4
305.666	56.83
305.88	13.82
306.094	38.4
306.308	-0.51
306.522	83.45
306.736	-25.09
306.95	60.93
307.164	-31.23
307.379	40.45
307.593	85.5
307.807	77.31
308.021	67.07
308.235	28.16
308.449	71.17
308.663	7.68
308.877	-14.85
309.091	36.35
309.305	58.88
309.519	-33.28
309.733	56.83
309.947	77.31
310.161	60.93
310.374	26.11
310.588	56.83
310.802	34.3
311.016	83.45
311.23	-29.18
311.444	24.06
311.658	-18.94
311.872	30.21
312.085	52.74
312.299	38.4
312.513	5.63
312.727	24.06
312.941	15.87
313.154	108.03
313.368	44.54
313.582	93.69
313.796	56.83
314.009	46.59
314.223	89.6
314.437	110.08
314.651	-14.85
314.864	73.21
315.078	-8.7
315.292	44.54
315.505	19.97
315.719	71.17
315.933	19.97
316.146	79.36
316.36	7.68
316.573	5.63
316.787	95.74
317.001	22.02
317.214	-27.14
317.428	-6.66
317.641	-10.75
317.855	42.5
318.068	-33.28
318.282	95.74
318.495	-18.94
318.709	-16.9
318.922	-33.28
319.136	56.83
319.349	15.87
319.563	95.74
319.776	83.45
319.99	15.87
320.203	75.26
320.417	-0.51
320.63	-2.56
320.843	54.78
321.057	71.17
321.27	97.79
321.483	28.16
321.697	132.61
321.91	50.69
322.124	28.16
322.337	89.6
322.55	-23.04
322.763	7.68
322.977	44.54
323.19	-6.66
323.403	26.11
323.617	5.63
323.83	62.98
324.043	71.17
324.256	69.12
324.469	-0.51
324.683	-47.62
324.896	38.4
325.109	67.07
325.322	95.74
325.535	89.6
325.748	79.36
325.962	103.93
326.175	38.4
326.388	79.36
326.601	48.64
326.814	138.75
327.027	54.78
327.24	95.74
327.453	-59.9
327.666	30.21
327.879	126.46
328.092	93.69
328.305	71.17
328.518	13.82
328.731	24.06
328.944	28.16
329.157	34.3
329.37	-33.28
329.583	24.06
329.796	32.26
330.009	-41.47
330.222	60.93
330.435	73.21
330.648	56.83
330.861	60.93
331.073	30.21
331.286	-8.7
331.499	30.21
331.712	56.83
331.925	-6.66
332.138	97.79
332.35	108.03
332.563	-70.14
332.776	112.13
332.989	-55.81
333.202	103.93
333.414	11.78
333.627	95.74
333.84	-27.14
334.053	34.3
334.265	-14.85
334.478	32.26
334.691	22.02
334.903	-12.8
335.116	22.02
335.329	5.63
335.541	15.87
335.754	62.98
335.966	81.41
336.179	-8.7
336.392	-33.28
336.604	50.69
336.817	60.93
337.029	15.87
337.242	50.69
337.454	69.12
337.667	73.21
337.88	28.16
338.092	22.02
338.305	-6.66
338.517	67.07
338.729	54.78
338.942	87.55
339.154	-2.56
339.367	-29.18
339.579	38.4
339.792	-33.28
340.004	54.78
340.217	-2.56
340.429	19.97
340.641	-37.38
340.854	-57.86
341.066	44.54
341.278	97.79
341.491	79.36
341.703	-10.75
341.915	9.73
342.128	85.5
342.34	52.74
342.552	95.74
342.764	56.83
342.977	5.63
343.189	69.12
343.401	87.55
343.613	75.26
343.826	19.97
344.038	-64
344.25	32.26
344.462	7.68
344.674	26.11
344.886	15.87
345.099	24.06
345.311	26.11
345.523	71.17
345.735	11.78
345.947	15.87
346.159	15.87
346.371	58.88
346.583	11.78
346.795	97.79
347.007	48.64
347.219	15.87
347.431	54.78
347.643	73.21
347.855	-2.56
348.067	97.79
348.279	30.21
348.491	7.68
348.703	36.35
348.915	32.26
349.127	38.4
349.339	69.12
349.551	65.02
349.763	52.74
349.975	48.64
350.187	42.5
350.399	24.06
350.61	-12.8
350.822	28.16
351.034	36.35
351.246	42.5
351.458	19.97
351.669	-8.7
351.881	93.69
352.093	28.16
352.305	93.69
352.517	48.64
352.728	42.5
352.94	44.54
353.152	73.21
353.363	28.16
353.575	67.07
353.787	75.26
353.999	97.79
354.21	95.74
354.422	71.17
354.633	-37.38
354.845	-10.75
355.057	44.54
355.268	62.98
355.48	67.07
355.692	1.54
355.903	38.4
356.115	28.16
356.326	17.92
356.538	54.78
356.749	30.21
356.961	101.89
357.172	-16.9
357.384	30.21
357.595	65.02
357.807	36.35
358.018	42.5
358.23	-16.9
358.441	103.93
358.653	91.65
358.864	77.31
359.075	-18.94
359.287	69.12
359.498	67.07
359.709	126.46
359.921	-0.51
360.132	1.54
360.344	38.4
360.555	11.78
360.766	36.35
360.977	93.69
361.189	50.69
361.4	9.73
361.611	60.93
361.823	46.59
362.034	52.74
362.245	-33.28
362.456	60.93
362.667	108.03
362.879	19.97
363.09	56.83
363.301	58.88
363.512	124.41
363.723	60.93
363.935	77.31
364.146	148.99
364.357	-16.9
364.568	62.98
364.779	54.78
364.99	73.21
365.201	101.89
365.412	67.07
365.623	91.65
365.834	67.07
366.045	-16.9
366.256	89.6
366.467	50.69
366.678	50.69
366.889	93.69
367.1	91.65
367.311	60.93
367.522	62.98
367.733	79.36
367.944	71.17
368.155	-29.18
368.366	118.27
368.577	108.03
368.788	110.08
368.999	79.36
369.209	30.21
369.42	56.83
369.631	77.31
369.842	101.89
370.053	22.02
370.264	95.74
370.474	60.93
370.685	-4.61
370.896	97.79
371.107	87.55
371.317	85.5
371.528	7.68
371.739	79.36
371.95	67.07
372.16	56.83
372.371	-18.94
372.582	17.92
372.792	97.79
373.003	48.64
373.214	-4.61
373.424	132.61
373.635	50.69
373.846	122.37
374.056	42.5
374.267	69.12
374.477	73.21
374.688	-29.18
374.898	69.12
375.109	67.07
375.319	69.12
375.53	110.08
375.74	9.73
375.951	73.21
376.161	75.26
376.372	58.88
376.582	81.41
376.793	95.74
377.003	73.21
377.214	17.92
377.424	93.69
377.635	91.65
377.845	-18.94
378.055	95.74
378.266	26.11
378.476	50.69
378.686	69.12
378.897	22.02
379.107	118.27
379.317	122.37
379.528	50.69
379.738	40.45
379.948	-0.51
380.158	60.93
380.369	48.64
380.579	110.08
380.789	87.55
380.999	93.69
381.21	97.79
381.42	42.5
381.63	87.55
381.84	85.5
382.05	85.5
382.261	116.22
382.471	101.89
382.681	17.92
382.891	58.88
383.101	83.45
383.311	11.78
383.521	52.74
383.731	91.65
383.941	62.98
384.151	75.26
384.361	30.21
384.571	58.88
384.781	65.02
384.991	-2.56
385.201	151.04
385.411	118.27
385.621	67.07
385.831	60.93
386.041	-10.75
386.251	30.21
386.461	169.47
386.671	26.11
386.881	110.08
387.091	24.06
387.301	17.92
387.511	48.64
387.72	124.41
387.93	77.31
388.14	48.64
388.35	99.84
388.56	110.08
388.769	89.6
388.979	120.32
389.189	79.36
389.399	73.21
389.609	60.93
389.818	-10.75
390.028	93.69
390.238	22.02
390.447	54.78
390.657	52.74
390.867	60.93
391.076	36.35
391.286	30.21
391.496	54.78
391.705	77.31
391.915	163.33
392.125	110.08
392.334	36.35
392.544	134.65
392.753	89.6
392.963	60.93
393.172	132.61
393.382	52.74
393.591	56.83
393.801	56.83
394.01	132.61
394.22	17.92
394.429	56.83
394.639	71.17
394.848	132.61
395.058	71.17
395.267	126.46
395.477	120.32
395.686	42.5
395.895	165.37
396.105	140.8
396.314	48.64
396.524	81.41
396.733	62.98
396.942	99.84
397.152	105.98
397.361	144.89
397.57	167.42
397.78	114.17
397.989	105.98
398.198	163.33
398.407	105.98
398.617	171.52
398.826	56.83
399.035	202.24
399.244	91.65
399.453	40.45
399.663	56.83
399.872	122.37
400.081	142.85
400.29	146.94
400.499	11.78
400.708	148.99
400.917	142.85
401.127	138.75
401.336	99.84
401.545	91.65
401.754	128.51
401.963	144.89
402.172	146.94
402.381	85.5
402.59	85.5
402.799	153.09
403.008	124.41
403.217	189.95
403.426	204.28
403.635	175.61
403.844	128.51
404.053	163.33
404.262	99.84
404.471	157.18
404.68	103.93
404.888	120.32
405.097	159.23
405.306	204.28
405.515	171.52
405.724	226.81
405.933	210.43
406.142	239.1
406.35	124.41
406.559	208.38
406.768	263.68
406.977	218.62
407.185	255.48
407.394	171.52
407.603	216.57
407.812	290.3
408.02	280.06
408.229	189.95
408.438	275.96
408.646	243.2
408.855	318.97
409.064	230.91
409.272	353.79
409.481	376.31
409.69	343.55
409.898	318.97
410.107	415.23
410.315	388.6
410.524	388.6
410.733	441.85
410.941	345.59
411.15	318.97
411.358	462.33
411.567	505.34
411.775	431.61
411.984	464.38
412.192	499.19
412.401	534.01
412.609	577.02
412.818	581.11
413.026	572.92
413.234	663.03
413.443	636.41
413.651	644.6
413.86	656.89
414.068	656.89
414.276	738.8
414.485	759.28
414.693	742.9
414.901	824.82
415.11	835.06
415.318	859.63
415.526	867.83
415.734	876.02
415.943	925.17
416.151	896.5
416.359	912.88
416.567	994.8
416.776	1086.96
416.984	1095.15
417.192	1138.16
417.4	1207.79
417.608	1187.31
417.817	1236.46
418.025	1234.41
418.233	1320.43
418.441	1330.67
418.649	1390.06
418.857	1514.98
419.065	1527.27
419.273	1467.88
419.481	1611.24
419.689	1695.21
419.897	1793.51
420.105	1785.32
420.313	1895.91
420.521	1844.71
420.729	2041.31
420.937	1990.11
421.145	2151.9
421.353	2149.86
421.561	2346.46
421.769	2295.26
421.977	2430.43
422.185	2319.84
422.393	2459.1
422.601	2641.37
422.809	2801.11
423.017	2735.57
423.224	2829.78
423.432	2842.07
423.64	2973.14
423.848	3200.46
424.056	3122.64
424.263	3468.75
424.471	3378.64
424.679	3429.84
424.887	3585.48
425.094	3653.06
425.302	3808.71
425.51	3880.39
425.718	4064.71
425.925	3982.79
426.133	4353.47
426.341	4433.34
426.548	4554.17
426.756	4595.13
426.964	4621.75
427.171	4928.95
427.379	5023.16
427.586	5191.09
427.794	5178.8
428.001	5684.65
428.209	5983.65
428.417	5760.42
428.624	6049.19
428.832	6313.38
429.039	6110.63
429.247	6090.15
429.454	6575.52
429.662	7105.94
429.869	6819.22
430.076	7337.36
430.284	6718.87
430.491	7392.66
430.699	7871.88
430.906	7697.8
431.114	7800.2
431.321	8215.94
431.528	8250.75
431.736	8721.79
431.943	9151.86
432.15	8961.4
432.358	9059.7
432.565	9563.5
432.772	9729.39
432.979	10200.42
433.187	10376.55
433.394	10313.06
433.601	10906.97
433.808	11124.05
434.016	10958.17
434.223	11345.23
434.43	12078.41
434.637	11701.58
434.844	12621.12
435.052	12694.85
435.259	12623.17
435.466	12981.56
435.673	12645.7
435.88	13704.49
436.087	14284.07
436.294	14261.54
436.501	13911.34
436.708	14394.66
436.915	15019.29
437.122	15510.8
437.329	15353.11
437.537	15904.01
437.743	16198.92
437.95	15977.74
438.157	16950.53
438.364	17190.14
438.571	17229.05
438.778	17599.73
438.985	19184.86
439.192	18218.22
439.399	18791.65
439.606	18513.13
439.813	19811.54
440.02	20884.67
440.227	20321.48
440.433	20133.07
440.64	20923.58
440.847	20737.22
441.054	21136.57
441.261	22770.85
441.467	22254.76
441.674	22670.5
441.881	23686.29
442.088	23735.45
442.294	23450.78
442.501	24114.32
442.708	25101.44
442.914	25382.01
443.121	26676.33
443.328	25906.29
443.534	27575.39
443.741	27176.03
443.948	26442.86
444.154	28277.84
444.361	28302.42
444.568	28593.23
444.774	28597.32
444.981	28777.54
445.187	29578.3
445.394	31423.52
445.6	30604.33
445.807	33704.96
446.013	32345.11
446.22	32734.22
446.426	33573.89
446.633	33993.72
446.839	35240.93
447.046	33901.56
447.252	35699.68
447.459	35861.47
447.665	35722.21
447.871	37221.32
448.078	39056.3
448.284	37141.45
448.491	37938.11
448.697	39560.1
448.903	40043.42
449.11	40258.46
449.316	39756.71
449.522	40618.9
449.728	41730.95
449.935	41538.44
450.141	41956.22
450.347	42777.46
450.553	41001.87
450.76	42255.23
450.966	43193.2
451.172	42982.26
451.378	43955.04
451.584	43268.97
451.791	44264.28
451.997	43713.38
452.203	44956.5
452.409	44727.13
452.615	44356.44
452.821	42906.48
453.027	42531.7
453.233	44749.65
453.44	42863.47
453.646	43572.07
453.852	43901.79
454.058	44446.55
454.264	42883.95
454.47	43875.17
454.676	42779.51
454.882	44340.06
455.088	40618.9
455.294	41243.53
455.5	41997.18
455.705	42091.39
455.911	40397.72
456.117	39599.01
456.323	39183.27
456.529	37368.77
456.735	38812.59
456.941	37379.01
457.147	36979.66
457.352	35681.25
457.558	35836.89
457.764	35570.66
457.97	34788.33
458.176	34479.09
458.381	34341.88
458.587	32427.03
458.793	32656.4
458.999	31020.07
459.204	33432.58
459.41	32121.88
459.616	30080.05
459.821	29989.94
460.027	29791.29
460.233	29484.09
460.438	28003.41
460.644	28388.43
460.85	26780.78
461.055	26545.26
461.261	26256.5
461.466	24767.62
461.672	23708.82
461.878	25373.82
462.083	23557.27
462.289	23295.13
462.494	23250.08
462.7	22056.11
462.905	21517.5
463.111	22224.04
463.316	22400.17
463.522	22015.15
463.727	21753.01
463.932	21697.72
464.138	21623.99
464.343	21546.17
464.549	21021.89
464.754	21603.51
464.959	21484.73
465.165	21603.51
465.37	20376.78
465.575	19887.31
465.781	20720.84
465.986	21177.53
466.191	20376.78
466.397	19651.8
466.602	18722.02
466.807	19514.58
467.012	19614.93
467.218	19064.03
467.423	19061.98
467.628	19281.11
467.833	20038.86
468.038	19317.98
468.244	18574.56
468.449	19401.94
468.654	18822.37
468.859	18810.08
469.064	18717.92
469.269	17986.8
469.474	18095.34
469.679	18322.66
469.885	17741.04
470.09	18038
470.295	17923.31
470.5	17605.88
470.705	17556.72
470.91	17206.52
471.115	17427.7
471.32	17261.82
471.525	17227
471.73	16827.65
471.935	16764.16
472.139	16127.24
472.344	16569.6
472.549	16135.43
472.754	16037.13
472.959	15863.05
473.164	15539.47
473.369	15109.4
473.574	16098.57
473.778	15629.59
473.983	15310.1
474.188	15543.57
474.393	14705.95
474.598	14859.55
474.802	14669.09
475.007	14726.43
475.212	14578.98
475.417	14116.14
475.621	13997.35
475.826	14161.19
476.031	13788.46
476.235	13511.99
476.44	13919.53
476.645	13632.82
476.849	13471.03
477.054	13135.16
477.259	13294.9
477.463	13235.51
477.668	12983.61
477.872	13139.26
478.077	12594.5
478.282	12569.92
478.486	12426.56
478.691	12178.76
478.895	12387.65
479.1	12326.21
479.304	12197.19
479.509	11846.99
479.713	12143.94
479.918	11992.39
480.122	11756.88
480.326	11691.34
480.531	11865.42
480.735	11625.81
480.94	11414.87
481.144	11920.71
481.348	11418.96
481.553	11464.02
481.757	11240.79
481.961	11435.35
482.166	11455.83
482.37	11423.06
482.574	11113.81
482.778	11314.52
482.983	11529.55
483.187	11322.71
483.391	11357.52
483.595	11251.03
483.8	11171.16
484.004	11122.01
484.208	11509.07
484.412	11228.5
484.616	11437.39
484.821	11324.76
485.025	11038.04
485.229	11384.15
485.433	11455.83
485.637	11304.28
485.841	11255.12
486.045	11326.8
486.249	11165.01
486.453	10986.84
486.657	11072.86
486.861	11414.87
487.065	10823
487.269	11056.47
487.473	11162.97
487.677	11179.35
487.881	11490.64
488.085	11421.01
488.289	11402.58
488.493	11144.53
488.697	11371.86
488.901	11388.24
489.105	11220.31
489.309	11365.71
489.512	11310.42
489.716	11580.75
489.92	11271.51
490.124	11599.18
490.328	11650.38
490.531	11447.63
490.735	11623.76
490.939	11679.05
491.143	11636.05
491.346	11476.3
491.55	11658.57
491.754	11865.42
491.958	11836.75
492.161	11896.14
492.365	11834.7
492.569	11982.15
492.772	11881.8
492.976	12080.46
493.18	12201.29
493.383	12371.27
493.587	12318.02
493.79	12342.6
493.994	12166.47
494.197	12496.19
494.401	12553.54
494.605	12629.31
494.808	12895.55
495.012	12637.5
495.215	12784.96
495.419	12987.71
495.622	13016.38
495.825	13067.58
496.029	13280.57
496.232	13346.1
496.436	13436.21
496.639	13673.78
496.843	13612.34
497.046	14005.55
497.249	14056.75
497.453	14255.4
497.656	14603.55
497.859	14433.57
498.063	14392.61
498.266	14660.9
498.469	14546.21
498.673	14771.49
498.876	15228.18
499.079	15140.12
499.282	15559.95
499.485	15723.79
499.689	15750.42
499.892	15785.23
500.095	15801.61
500.298	16399.62
500.501	16037.13
500.705	16610.56
500.908	16751.87
501.111	17057.02
501.314	17054.97
501.517	17284.34
501.72	17695.99
501.923	17466.61
502.126	18111.72
502.329	18160.87
502.532	18318.57
502.735	18382.06
502.938	18769.12
503.141	18642.15
503.344	19184.86
503.547	19336.41
503.75	19143.9
503.953	19733.71
504.156	19958.99
504.359	20079.82
504.562	19948.75
504.765	20604.1
504.968	20487.37
505.17	21081.28
505.373	21068.99
505.576	21650.61
505.779	21748.92
505.982	21769.4
506.185	22009.01
506.387	22248.62
506.59	22338.73
506.793	22541.48
506.996	22867.11
507.198	23592.09
507.401	23151.77
507.604	23803.03
507.807	24061.07
508.009	24183.95
508.212	24337.55
508.415	24855.68
508.617	24861.83
508.82	25238.65
509.022	25105.54
509.225	25429.12
509.428	25805.94
509.63	26035.31
509.833	26066.03
510.035	26946.66
510.238	26440.81
510.44	26737.77
510.643	27321.44
510.845	27272.29
511.048	27380.83
511.25	28177.49
511.453	28197.97
511.655	29451.33
511.858	28675.15
512.06	29097.03
512.262	29379.65
512.465	29451.33
512.667	29963.32
512.87	30290.99
513.072	30379.06
513.274	30911.53
513.477	30788.65
513.679	31581.21
513.881	31509.54
514.084	31986.71
514.286	32166.93
514.488	32400.4
514.69	33162.25
514.893	33416.19
515.095	33197.06
515.297	33614.85
515.499	33764.35
515.701	34188.28
515.904	34741.23
516.106	34681.84
516.308	35066.86
516.51	35267.56
516.712	35720.16
516.914	36199.38
517.116	36891.6
517.318	36660.18
517.52	36869.07
517.722	36983.76
517.925	37409.73
518.127	37977.02
518.329	37833.66
518.531	37741.5
518.733	38658.99
518.935	38876.08
519.136	39072.68
519.338	39605.16
519.54	39746.47
519.742	40033.18
519.944	40113.05
520.146	40866.7
520.348	40809.36
520.55	41079.69
520.752	41474.95
520.954	41984.9
521.155	41814.91
521.357	42367.87
521.559	42824.56
521.761	43557.74
521.963	43176.81
522.164	43535.21
522.366	43887.46
522.568	43879.27
522.77	44594.01
522.971	44843.86
523.173	44856.15
523.375	45065.04
523.576	45402.96
523.778	45261.65
523.98	45568.84
524.181	46099.26
524.383	46084.93
524.584	46697.27
524.786	46830.39
524.988	46363.45
525.189	47145.78
525.391	46883.64
525.592	47598.38
525.794	47338.29
525.995	47532.84
526.197	47784.74
526.398	48010.02
526.6	48136.99
526.801	48800.54
527.003	48710.42
527.204	48687.9
527.406	48890.65
527.607	49017.62
527.808	49787.66
528.01	48605.98
528.211	48788.25
528.412	49787.66
528.614	49812.23
528.815	49685.26
529.016	50350.85
529.218	49484.56
529.419	50291.46
529.62	50328.32
529.822	50053.89
530.023	50459.39
530.224	50260.74
530.425	50596.6
530.626	50230.02
530.828	50258.69
531.029	51288.82
531.23	50273.02
531.431	50551.55
531.632	51106.55
531.833	50883.32
532.035	51006.2
532.236	51127.03
532.437	51364.59
532.638	50750.2
532.839	51020.53
533.04	51348.21
533.241	51004.15
533.442	51774.19
533.643	51327.73
533.844	51626.73
534.045	51270.39
534.246	50492.16
534.447	51839.72
534.648	51096.31
534.849	51634.92
535.05	50967.29
535.251	51346.16
535.451	51282.67
535.652	51620.59
535.853	50993.91
536.054	51546.86
536.255	51593.96
536.456	51030.77
536.657	51376.88
536.857	51389.17
537.058	51143.41
537.259	51694.32
537.46	51485.42
537.66	51176.18
537.861	51716.84
538.062	51534.57
538.263	51579.63
538.463	50658.04
538.664	50979.57
538.865	50979.57
539.065	51462.89
539.266	51270.39
539.466	51596.01
539.667	50778.87
539.868	51151.6
540.068	51092.21
540.269	51024.63
540.469	51546.86
540.67	51014.39
540.87	50840.31
541.071	51198.71
541.271	51139.32
541.472	51202.8
541.672	50864.89
541.873	50619.13
542.073	50514.69
542.274	51417.84
542.474	50684.67
542.675	50541.31
542.875	51198.71
543.075	50901.75
543.276	50463.49
543.476	50897.66
543.676	50406.14
543.877	50991.86
544.077	51092.21
544.277	50762.49
544.478	50467.58
544.678	50991.86
544.878	51333.87
545.078	50854.65
545.279	50733.82
545.479	50569.98
545.679	50778.87
545.879	50526.97
546.079	50744.06
546.28	50324.22
546.48	50150.15
546.68	50891.51
546.88	50688.76
547.08	50545.4
547.28	50582.27
547.48	50295.55
547.68	50666.23
547.88	49922.82
548.081	50508.54
548.281	50133.76
548.481	50686.71
548.681	50565.88
548.881	50459.39
549.081	50215.68
549.28	50486.01
549.48	50674.43
549.68	50299.65
549.88	50905.85
550.08	49986.31
550.28	50287.36
550.48	50127.62
550.68	50379.52
550.88	50066.18
551.08	50275.07
551.279	49910.53
551.479	49783.56
551.679	50373.38
551.879	49767.18
552.079	50426.62
552.278	49916.68
552.478	50326.27
552.678	50189.06
552.878	50293.5
553.077	49781.51
553.277	49718.03
553.477	50455.29
553.676	49691.4
553.876	50004.74
554.076	49974.02
554.275	49801.99
554.475	49382.16
554.674	49826.57
554.874	49914.63
555.074	49449.74
555.273	49758.98
555.473	50057.99
555.672	49259.28
555.872	49423.12
556.071	49623.82
556.271	49947.4
556.47	49763.08
556.67	49339.15
556.869	49355.53
557.068	49496.84
557.268	49087.25
557.467	49349.39
557.667	49183.51
557.866	49517.32
558.065	49357.58
558.265	48780.06
558.464	49050.39
558.663	49566.48
558.863	48565.02
559.062	49232.66
559.261	48683.8
559.461	48925.46
559.66	48616.22
559.859	49052.44
560.058	48675.61
560.258	48440.09
560.457	48444.19
560.656	48857.88
560.855	48053.03
561.054	48278.3
561.253	47805.22
561.453	48417.57
561.652	48491.29
561.851	48401.18
562.05	47944.48
562.249	47635.24
562.448	48036.64
562.647	47668.01
562.846	47903.53
563.045	47553.32
563.244	47438.64
563.443	47993.64
563.642	46850.87
563.841	47698.73
564.04	46906.16
564.239	47602.47
564.438	46596.92
564.637	47262.51
564.836	46928.69
565.035	46613.3
565.234	47414.06
565.432	46742.33
565.631	46748.47
565.83	46979.89
566.029	46431.04
566.228	46523.19
566.427	46549.82
566.625	46644.02
566.824	45804.36
567.023	46463.8
567.222	45527.88
567.42	46187.33
567.619	46140.22
567.818	46080.83
568.016	45536.07
568.215	45955.91
568.414	45701.96
568.612	46033.73
568.811	45212.49
569.01	45460.3
569.208	45222.73
569.407	45527.88
569.605	44688.21
569.804	45052.75
570.002	44663.64
570.201	45001.55
570.4	44565.34
570.598	44487.51
570.797	44417.88
570.995	44657.49
571.193	43762.53
571.392	44708.69
571.59	44260.19
571.789	43998.05
571.987	44518.23
572.186	44108.64
572.384	43873.12
572.582	44385.11
572.781	43688.81
572.979	43090.8
573.177	43481.96
573.376	43318.12
573.574	43262.83
573.772	43281.26
573.971	42814.32
574.169	42791.8
574.367	42290.04
574.565	42963.82
574.763	42648.44
574.962	42525.56
575.16	41976.7
575.358	42406.78
575.556	41624.45
575.754	42652.53
575.952	41782.15
576.151	42380.15
576.349	41503.62
576.547	41972.61
576.745	42115.97
576.943	41759.62
577.141	41579.4
577.339	41593.73
577.537	41560.97
577.735	41616.26
577.933	41083.79
578.131	41436.04
578.329	41087.89
578.527	40805.27
578.725	40614.8
578.923	41079.69
579.121	40547.22
579.319	40326.04
579.516	40217.5
579.714	40266.65
579.912	40285.08
580.11	40246.17
580.308	40690.58
580.506	40137.63
580.704	39220.14
580.901	40078.24
581.099	40287.13
581.297	39820.19
581.495	39474.09
581.692	39752.61
581.89	39035.82
582.088	39584.68
582.285	38976.43
582.483	39183.27
582.681	38828.98
582.878	38722.48
583.076	38966.19
583.274	38910.89
583.471	38257.59
583.669	38622.13
583.866	38153.15
584.064	38572.98
584.262	37903.29
584.459	38405.05
584.657	37850.05
584.854	38208.44
585.052	37690.3
585.249	37923.77
585.447	37702.59
585.644	37491.65
585.841	37659.59
586.039	38005.69
586.236	37340.1
586.434	37000.14
586.631	37401.54
586.828	37041.1
587.026	36666.32
587.223	36922.32
587.42	36701.14
587.618	36723.66
587.815	36514.77
588.012	36082.65
588.21	36348.89
588.407	36133.85
588.604	35843.04
588.801	35845.09
588.999	36037.59
589.196	35976.16
589.393	35904.48
589.59	35652.58
589.787	35560.42
589.984	35556.32
590.182	35302.37
590.379	35298.28
590.576	35191.78
590.773	35398.63
590.97	34843.63
591.167	35353.57
591.364	34513.91
591.561	34804.72
591.758	34575.34
591.955	34614.26
592.152	34628.59
592.349	34180.09
592.546	34647.02
592.743	34288.63
592.94	33629.18
593.137	34141.18
593.334	34098.17
593.531	33256.45
593.727	33842.17
593.924	33743.87
594.121	33616.9
594.318	33565.7
594.515	33125.38
594.712	33201.16
594.908	33135.62
595.105	33221.64
595.302	32932.87
595.499	32732.17
595.696	32812.04
595.892	32709.64
596.089	33025.03
596.286	32570.38
596.482	32527.38
596.679	32281.62
596.876	32556.05
597.072	32070.68
597.269	32244.76
597.466	31755.29
597.662	31851.55
597.859	31630.37
598.055	31855.64
598.252	31724.57
598.448	31613.98
598.645	31503.39
598.841	31153.19
599.038	31282.21
599.234	31237.16
599.431	30905.38
599.627	30766.12
599.824	30979.11
600.02	30995.5
600.217	30938.15
600.413	30794.79
600.609	30366.77
600.806	30221.36
601.002	30356.53
601.198	30374.96
601.395	30213.17
601.591	30190.64
601.787	30116.92
601.984	30106.68
602.18	29961.27
602.376	29887.54
602.572	29654.08
602.769	29758.52
602.965	29250.63
603.161	29465.66
603.357	29404.22
603.553	29101.12
603.75	29295.68
603.946	29017.16
604.142	29025.35
604.338	28724.3
604.534	29166.66
604.73	28785.74
604.926	28413.01
605.122	28279.89
605.318	28304.46
605.514	28335.18
605.71	28019.8
605.906	28195.92
606.102	28206.16
606.298	28107.86
606.494	28077.14
606.69	28337.23
606.886	27919.45
607.082	27460.7
607.278	28114
607.474	27071.59
607.67	27577.44
607.866	27630.68
608.062	27780.18
608.257	27620.44
608.453	27563.1
608.649	27341.92
608.845	27227.23
609.041	27247.71
609.236	27343.97
609.432	27049.06
609.628	26932.33
609.824	26993.76
610.019	26899.56
610.215	26891.37
610.411	26946.66
610.606	26414.19
610.802	26954.85
610.998	26872.93
611.193	26481.77
611.389	26322.03
611.584	26598.51
611.78	26201.2
611.976	26592.36
612.171	26348.65
612.367	26102.9
612.562	25986.16
612.758	26063.99
612.953	25902.2
613.149	25955.44
613.344	25844.85
613.539	26360.94
613.735	25943.16
613.93	26010.74
614.126	25592.95
614.321	26037.36
614.517	25685.11
614.712	25484.41
614.907	25652.34
615.103	25746.55
615.298	25435.26
615.493	25793.65
615.688	25078.91
615.884	25695.35
616.079	25064.58
616.274	25418.88
616.47	25132.16
616.665	25171.07
616.86	25173.12
617.055	25040
617.25	25121.92
617.445	25207.94
617.641	24865.92
617.836	24996.99
618.031	24446.09
618.226	24710.28
618.421	24609.93
618.616	24829.06
618.811	24272.01
619.006	24630.41
619.201	23872.66
619.396	24188.05
619.591	23829.65
619.786	24067.22
619.981	23819.41
620.176	24052.88
620.371	23456.92
620.566	23800.98
620.761	23352.48
620.956	23905.43
621.151	22992.03
621.346	23295.13
621.541	23151.77
621.735	22924.45
621.93	22365.35
622.125	22846.63
622.32	22430.89
622.515	22504.62
622.709	22140.08
622.904	22375.59
623.099	22187.18
623.294	22201.52
623.488	22058.16
623.683	21763.25
623.878	21726.39
624.072	21517.5
624.267	21824.69
624.462	21484.73
624.656	21261.5
624.851	21441.72
625.046	21279.93
625.24	20985.02
625.435	20696.26
625.629	20626.63
625.824	20616.39
626.018	20604.1
626.213	20180.17
626.407	20372.68
626.602	19829.97
626.796	20237.52
626.991	20100.3
627.185	19862.74
627.38	19909.84
627.574	19772.63
627.768	19576.02
627.963	19463.38
628.157	19033.31
628.352	19410.14
628.546	19109.08
628.74	19055.84
628.935	18789.6
629.129	18877.66
629.323	18584.8
629.517	18683.11
629.712	18527.46
629.906	18451.69
630.1	18191.59
630.294	18504.93
630.489	18279.66
630.683	18115.82
630.877	17464.57
631.071	17792.24
631.265	18072.81
631.459	17853.68
631.653	17509.62
631.848	17460.47
632.042	17652.98
632.236	17364.22
632.43	17263.86
632.624	17079.55
632.818	17161.47
633.012	17093.88
633.206	16674.05
633.4	16997.63
633.594	16651.52
633.788	16801.02
633.982	16624.9
634.176	16506.12
634.369	16399.62
634.563	16409.86
634.757	16235.78
634.951	16203.02
635.145	16221.45
635.339	16084.23
635.533	15926.54
635.726	15947.02
635.92	15934.73
636.114	15578.39
636.308	15338.77
636.501	15451.41
636.695	15449.36
636.889	15301.91
637.083	15234.33
637.276	15246.62
637.47	15154.46
637.664	14814.49
637.857	15074.59
638.051	14968.09
638.244	14621.98
638.438	14669.09
638.632	14726.43
638.825	14667.04
639.019	14288.17
639.212	14503.2
639.406	14290.21
639.599	14316.84
639.793	14066.99
639.986	14103.85
640.18	13995.31
640.373	14101.8
640.567	13921.58
640.76	14073.13
640.954	13821.23
641.147	13483.31
641.34	13524.27
641.534	13571.38
641.727	13444.4
641.92	13581.62
642.114	13333.81
642.307	13122.87
642.5	13204.79
642.694	12961.08
642.887	12887.36
643.08	13075.77
643.273	12985.66
643.467	12778.81
643.66	12805.44
643.853	12553.54
644.046	12418.37
644.239	12619.07
644.432	12453.19
644.626	12371.27
644.819	12430.66
645.012	12150.09
645.205	12369.22
645.398	12279.11
645.591	11951.43
645.784	12041.54
645.977	11971.91
646.17	11889.99
646.363	11814.22
646.556	11902.28
646.749	11787.6
646.942	11664.72
647.135	11482.45
647.328	11545.94
647.521	11638.09
647.714	11267.41
647.907	11222.36
648.099	11224.4
648.292	11386.19
648.485	11119.96
648.678	11208.02
648.871	10939.74
649.064	10929.5
649.256	11179.35
649.449	10995.03
649.642	11113.81
649.835	10775.9
650.027	10769.76
650.22	10554.72
650.413	10720.6
650.605	10470.75
650.798	10534.24
650.991	10399.07
651.183	10268
651.376	10233.19
651.568	10306.91
651.761	10024.3
651.954	10239.33
652.146	9903.46
652.339	10028.39
652.531	9846.12
652.724	9805.16
652.916	9766.25
653.109	9661.8
653.301	9688.43
653.494	9796.97
653.686	9534.83
653.879	9766.25
654.071	9571.69
654.263	9393.52
654.456	9659.76
654.648	9430.38
654.84	9287.03
655.033	9370.99
655.225	9344.37
655.417	9295.22
655.61	9121.14
655.802	9383.28
655.994	9037.17
656.186	8904.06
656.379	9078.13
656.571	8963.45
656.763	8863.1
656.955	8854.9
657.148	8703.36
657.34	8748.41
657.532	8772.99
657.724	8557.95
657.916	8695.16
658.108	8631.68
658.3	8512.89
658.492	8689.02
658.684	8234.37
658.876	8410.5
659.068	8377.73
659.26	8373.63
659.452	8516.99
659.644	8260.99
659.836	8256.9
660.028	8070.53
660.22	8045.96
660.412	7873.93
660.604	8074.63
660.796	7951.75
660.988	7986.57
661.18	7802.25
661.372	7607.69
661.563	7798.15
661.755	7753.1
661.947	7759.24
662.139	7740.81
662.331	7675.27
662.522	7554.44
662.714	7464.33
662.906	7583.12
663.097	7591.31
663.289	7550.35
663.481	7460.24
663.673	7257.49
663.864	7353.74
664.056	7294.35
664.247	7347.6
664.439	7191.95
664.631	7318.93
664.822	7280.02
665.014	7157.14
665.205	7054.74
665.397	7091.6
665.588	7177.62
665.78	7243.15
665.971	7062.93
666.163	7003.54
666.354	6811.03
666.546	6940.05
666.737	6946.2
666.929	6794.65
667.12	6897.05
667.311	6712.73
667.503	6536.6
667.694	6536.6
667.885	6581.66
668.077	6610.33
668.268	6544.8
668.459	6679.96
668.651	6495.64
668.842	6512.03
669.033	6487.45
669.224	6436.25
669.416	6612.38
669.607	6372.77
669.798	6251.94
669.989	6317.47
670.18	6299.04
670.371	6284.7
670.563	6401.44
670.754	6122.91
670.945	6104.48
671.136	6188.45
671.327	6088.1
671.518	6327.71
671.709	6026.66
671.9	6077.86
672.091	6063.52
672.282	5963.17
672.473	5768.62
672.664	5932.45
672.855	5918.12
673.046	5821.86
673.237	5922.21
673.428	5772.71
673.619	5997.99
673.809	5785
674	5746.09
674.191	5707.18
674.382	5825.96
674.573	5758.38
674.764	5754.28
674.954	5584.3
675.145	5739.94
675.336	5647.79
675.527	5567.92
675.717	5741.99
675.908	5524.91
676.099	5547.44
676.289	5522.86
676.48	5584.3
676.671	5416.37
676.861	5516.72
677.052	5621.16
677.243	5406.13
677.433	5328.3
677.624	5379.5
677.814	5461.42
678.005	5490.09
678.195	5514.67
678.386	5414.32
678.576	5313.97
678.767	5277.1
678.957	5287.34
679.148	5391.79
679.338	5359.02
679.529	5203.38
679.719	5238.19
679.909	5223.86
680.1	5205.42
680.29	5137.84
680.481	5137.84
680.671	5141.94
680.861	5154.23
681.052	5223.86
681.242	5125.55
681.432	5057.97
681.622	5174.71
681.813	5041.59
682.003	5260.72
682.193	4988.34
682.383	5223.86
682.573	4984.24
682.764	5072.31
682.954	4945.33
683.144	4996.53
683.334	4945.33
683.524	4912.57
683.714	5098.93
683.904	4955.57
684.094	4920.76
684.284	4877.75
684.474	4953.52
684.664	4826.55
684.854	4857.27
685.044	4675
685.234	4672.95
685.424	4799.93
685.614	4736.44
685.804	4718.01
685.994	4801.97
686.184	4904.37
686.374	4730.3
686.564	4728.25
686.753	4609.47
686.943	4570.55
687.133	4601.27
687.323	4638.14
687.513	4654.52
687.702	4636.09
687.892	4566.46
688.082	4412.86
688.272	4462.01
688.461	4556.22
688.651	4490.68
688.841	4359.61
689.03	4394.43
689.22	4351.42
689.41	4328.89
689.599	4335.04
689.789	4371.9
689.979	4308.41
690.168	4267.45
690.358	4265.41
690.547	4244.93
690.737	4347.33
690.926	4195.78
691.116	4097.47
691.305	4298.17
691.495	4246.98
691.684	4201.92
691.874	4064.71
692.063	4111.81
692.252	4038.08
692.442	4036.03
692.631	4152.77
692.82	4038.08
693.01	3921.35
693.199	4136.38
693.388	3872.2
693.578	4050.37
693.767	3939.78
693.956	3915.2
694.146	3876.29
694.335	3997.12
694.524	3810.76
694.713	3913.16
694.902	3878.34
695.092	3884.48
695.281	3814.85
695.47	3808.71
695.659	3814.85
695.848	3765.7
696.037	3773.89
696.226	3814.85
696.415	3796.42
696.604	3870.15
696.793	3700.17
696.982	3726.79
697.171	3796.42
697.36	3763.65
697.549	3624.39
697.738	3671.5
697.927	3757.51
698.116	3743.17
698.305	3737.03
698.494	3667.4
698.683	3651.02
698.872	3814.85
699.061	3640.78
699.25	3640.78
699.438	3673.54
699.627	3628.49
699.816	3589.58
700.005	3642.82
700.193	3632.58
700.382	3497.42
700.571	3675.59
700.76	3560.91
700.948	3648.97
701.137	3624.39
701.326	3532.23
701.514	3587.53
701.703	3546.57
701.892	3562.95
702.08	3585.48
702.269	3519.95
702.457	3431.88
702.646	3390.92
702.834	3358.16
703.023	3403.21
703.212	3474.89
703.4	3501.51
703.589	3384.78
703.777	3485.13
703.965	3372.49
704.154	3366.35
704.342	3347.92
704.531	3352.01
704.719	3325.39
704.907	3360.2
705.096	3397.07
705.284	3225.04
705.472	3345.87
705.661	3368.4
705.849	3505.61
706.037	3311.05
706.226	3266
706.414	3280.33
706.602	3341.77
706.79	3382.73
706.979	3194.32
707.167	3309.01
707.355	3356.11
707.543	3266
707.731	3204.56
707.919	3241.42
708.107	3132.88
708.296	3169.74
708.484	3276.24
708.672	3370.44
708.86	3130.83
709.048	3104.21
709.236	3216.85
709.424	3200.46
709.612	3188.18
709.8	3333.58
709.988	3216.85
710.176	3057.11
710.364	3231.18
710.551	3249.61
710.739	3173.84
710.927	3173.84
711.115	3110.35
711.303	2993.62
711.491	3093.97
711.679	3081.68
711.866	2985.43
712.054	3106.26
712.242	3106.26
712.43	3233.23
712.617	3132.88
712.805	3093.97
712.993	3022.29
713.181	3087.82
713.368	3018.19
713.556	3118.54
713.744	3007.95
713.931	2956.75
714.119	2872.79
714.306	2973.14
714.494	2979.28
714.682	3069.39
714.869	2966.99
715.057	3030.48
715.244	3016.15
715.432	2950.61
715.619	3005.91
715.807	3032.53
715.994	2938.32
716.182	2997.71
716.369	2805.21
716.556	3026.39
716.744	2956.75
716.931	2921.94
717.119	2835.92
717.306	3053.01
717.493	2928.08
717.681	2901.46
717.868	2858.45
718.055	2950.61
718.242	2733.53
718.43	2872.79
718.617	2852.31
718.804	2772.44
718.991	2895.32
719.179	2919.89
719.366	2868.69
719.553	2729.43
719.74	2919.89
719.927	2850.26
720.114	2907.6
720.301	2870.74
720.488	2743.77
720.676	2794.97
720.863	2860.5
721.05	2819.54
721.237	2784.73
721.424	2678.23
721.611	2743.77
721.798	2612.7
721.985	2735.57
722.172	2629.08
722.358	2754.01
722.545	2667.99
722.732	2702.81
722.919	2684.38
723.106	2727.38
723.293	2739.67
723.48	2758.1
723.667	2592.22
723.853	2760.15
724.04	2729.43
724.227	2715.09
724.414	2692.57
724.6	2629.08
724.787	2532.83
724.974	2700.76
725.161	2614.74
725.347	2592.22
725.534	2612.7
725.72	2717.14
725.907	2651.61
726.094	2665.94
726.28	2534.87
726.467	2704.85
726.653	2581.98
726.84	2694.61
727.027	2594.26
727.213	2645.46
727.4	2588.12
727.586	2534.87
727.773	2645.46
727.959	2588.12
728.145	2616.79
728.332	2547.16
728.518	2604.5
728.705	2502.11
728.891	2545.11
729.077	2596.31
729.264	2452.95
729.45	2467.29
729.636	2520.54
729.823	2518.49
730.009	2450.91
730.195	2528.73
730.382	2624.98
730.568	2471.39
730.754	2455
730.94	2506.2
731.126	2467.29
731.313	2471.39
731.499	2383.32
731.685	2430.43
731.871	2463.19
732.057	2455
732.243	2489.82
732.429	2426.33
732.615	2471.39
732.801	2520.54
732.987	2338.27
733.173	2373.08
733.359	2348.51
733.545	2428.38
733.731	2360.8
733.917	2524.63
734.103	2362.84
734.289	2387.42
734.475	2323.93
734.661	2375.13
734.847	2325.98
735.033	2434.52
735.219	2401.76
735.404	2323.93
735.59	2340.32
735.776	2348.51
735.962	2278.88
736.148	2344.41
736.333	2301.4
736.519	2235.87
736.705	2328.03
736.89	2270.69
737.076	2295.26
737.262	2258.4
737.447	2254.3
737.633	2231.77
737.819	2336.22
738.004	2170.33
738.19	2225.63
738.375	2309.6
738.561	2317.79
738.747	2182.62
738.932	2332.12
739.118	2299.36
739.303	2207.2
739.489	2307.55
739.674	2276.83
739.859	2129.38
740.045	2149.86
740.23	2192.86
740.416	2196.96
740.601	2174.43
740.786	2182.62
740.972	2119.14
741.157	2117.09
741.342	2123.23
741.528	1977.83
741.713	2065.89
741.898	2074.08
742.084	2049.5
742.269	2160.1
742.454	2115.04
742.639	2227.68
742.824	2004.45
743.01	2043.36
743.195	2088.42
743.38	2020.83
743.565	2014.69
743.75	2039.26
743.935	1981.92
744.12	2010.59
744.305	2006.5
744.49	1953.25
744.675	1863.14
744.86	1990.11
745.045	2053.6
745.23	1953.25
745.415	1936.87
745.6	2029.03
745.785	1910.24
745.97	1920.48
746.155	1879.52
746.34	1908.19
746.525	2010.59
746.71	1936.87
746.895	1781.22
747.079	1793.51
747.264	1891.81
747.449	1938.91
747.634	1822.18
747.819	1713.64
748.003	1752.55
748.188	1848.8
748.373	1764.84
748.557	1799.65
748.742	1777.12
748.927	1805.8
749.111	1652.2
749.296	1623.53
749.481	1693.16
749.665	1588.71
749.85	1656.29
750.034	1590.76
750.219	1609.19
750.404	1641.96
750.588	1631.72
750.773	1545.7
750.957	1627.62
751.141	1564.14
751.326	1668.58
751.51	1543.66
751.695	1637.86
751.879	1560.04
752.064	1545.7
752.248	1418.73
752.432	1447.4
752.617	1510.89
752.801	1531.37
752.985	1480.17
753.17	1570.28
753.354	1580.52
753.538	1394.15
753.722	1373.68
753.907	1431.02
754.091	1408.49
754.275	1406.44
754.459	1381.87
754.643	1455.59
754.828	1361.39
755.012	1428.97
755.196	1369.58
755.38	1390.06
755.564	1302
755.748	1279.47
755.932	1367.53
756.116	1316.33
756.3	1295.85
756.484	1232.37
756.668	1220.08
756.852	1310.19
757.036	1152.49
757.22	1308.14
757.404	1213.93
757.588	1287.66
757.772	1258.99
757.956	1232.37
758.14	1312.24
758.323	1222.13
758.507	1207.79
758.691	1234.41
758.875	1166.83
759.059	1244.65
759.242	1199.6
759.426	1074.67
759.61	1154.54
759.794	1127.92
759.977	1154.54
760.161	1263.08
760.345	1213.93
760.528	1093.1
760.712	1121.77
760.895	1050.1
761.079	1132.01
761.263	1136.11
761.446	1084.91
761.63	1050.1
761.813	1084.91
761.997	1091.06
762.18	1037.81
762.364	1054.19
762.547	1023.47
762.731	976.37
762.914	978.42
763.098	976.37
763.281	1009.14
763.464	1056.24
763.648	970.23
763.831	1029.62
764.015	1048.05
764.198	1048.05
764.381	1013.23
764.564	968.18
764.748	1031.66
764.931	998.9
765.114	988.66
765.297	1037.81
765.481	1039.86
765.664	972.27
765.847	923.12
766.03	970.23
766.213	957.94
766.397	996.85
766.58	839.16
766.763	906.74
766.946	982.51
767.129	880.11
767.312	884.21
767.495	869.87
767.678	880.11
767.861	937.46
768.044	904.69
768.227	939.51
768.41	882.16
768.593	884.21
768.776	927.22
768.959	994.8
769.142	888.31
769.324	884.21
769.507	878.07
769.69	882.16
769.873	884.21
770.056	935.41
770.239	878.07
770.421	835.06
770.604	878.07
770.787	749.04
770.97	835.06
771.152	869.87
771.335	753.14
771.518	843.25
771.7	792.05
771.883	828.92
772.066	841.2
772.248	771.57
772.431	794.1
772.613	738.8
772.796	765.43
772.978	810.48
773.161	728.56
773.343	755.19
773.526	710.13
773.708	792.05
773.891	665.08
774.073	761.33
774.256	734.71
774.438	747
774.621	800.24
774.803	781.81
774.985	835.06
775.168	771.57
775.35	706.04
775.532	751.09
775.715	663.03
775.897	611.83
776.079	747
776.261	716.28
776.444	706.04
776.626	716.28
776.808	650.74
776.99	587.26
777.173	689.65
777.355	656.89
777.537	634.36
777.719	589.3
777.901	564.73
778.083	654.84
778.265	658.93
778.447	658.93
778.629	523.77
778.811	587.26
778.993	558.58
779.175	650.74
779.357	548.34
779.539	564.73
779.721	536.06
779.903	646.65
780.085	564.73
780.267	574.97
780.449	585.21
780.631	540.15
780.812	593.4
780.994	568.82
781.176	527.86
781.358	536.06
781.54	556.54
781.721	568.82
781.903	538.1
782.085	497.14
782.267	523.77
782.448	558.58
782.63	460.28
782.812	554.49
782.993	554.49
783.175	542.2
783.357	484.86
783.538	581.11
783.72	491
783.901	476.66
784.083	458.23
784.264	482.81
784.446	464.38
784.627	503.29
784.809	411.13
784.99	509.43
785.172	474.62
785.353	443.9
785.535	427.51
785.716	454.14
785.897	396.79
786.079	437.75
786.26	452.09
786.441	439.8
786.623	382.46
786.804	429.56
786.985	394.75
787.167	546.3
787.348	458.23
787.529	345.59
787.71	431.61
787.891	372.22
788.073	433.66
788.254	341.5
788.435	378.36
788.616	458.23
788.797	347.64
788.978	464.38
789.159	314.88
789.34	333.31
789.522	378.36
789.703	376.31
789.884	304.64
790.065	392.7
790.246	411.13
790.427	321.02
790.607	421.37
790.788	333.31
790.969	316.92
791.15	294.4
791.331	337.4
791.512	341.5
791.693	312.83
791.874	310.78
792.054	265.72
792.235	316.92
792.416	384.51
792.597	241.15
792.778	390.65
792.958	331.26
793.139	339.45
793.32	259.58
793.5	296.44
793.681	359.93
793.862	269.82
794.042	329.21
794.223	327.16
794.404	337.4
794.584	226.81
794.765	278.01
794.945	278.01
795.126	364.03
795.306	308.73
795.487	366.07
795.667	230.91
795.848	257.53
796.028	267.77
796.209	282.11
796.389	316.92
796.57	245.24
796.75	253.44
796.93	269.82
797.111	249.34
797.291	241.15
797.471	271.87
797.652	243.2
797.832	361.98
798.012	292.35
798.192	259.58
798.373	218.62
798.553	288.25
798.733	253.44
798.913	263.68
799.093	224.76
799.274	237.05
799.454	300.54
799.634	282.11
799.814	206.33
799.994	243.2
800.174	280.06
800.354	179.71
800.534	232.96
800.714	243.2
800.894	202.24
801.074	226.81
801.254	200.19
801.434	269.82
801.614	171.52
801.794	259.58
801.974	654.84
802.154	183.81
802.334	222.72
802.514	157.18
802.693	249.34
802.873	226.81
803.053	198.14
803.233	249.34
803.413	222.72
803.592	224.76
803.772	185.85
803.952	146.94
804.131	171.52
804.311	187.9
804.491	148.99
804.67	230.91
804.85	187.9
805.03	187.9
805.209	200.19
805.389	241.15
805.568	220.67
805.748	130.56
805.928	212.48
806.107	148.99
806.287	196.09
806.466	157.18
806.646	169.47
806.825	167.42
807.004	282.11
807.184	204.28
807.363	151.04
807.543	196.09
807.722	167.42
807.901	194.05
808.081	148.99
808.26	136.7
808.439	95.74
808.619	161.28
808.798	200.19
808.977	142.85
809.156	187.9
809.336	126.46
809.515	148.99
809.694	196.09
809.873	126.46
810.052	144.89
810.231	202.24
810.411	196.09
810.59	206.33
810.769	181.76
810.948	148.99
811.127	130.56
811.306	132.61
811.485	183.81
811.664	204.28
811.843	138.75
812.022	146.94
812.201	169.47
812.38	177.66
812.559	163.33
812.737	130.56
812.916	83.45
813.095	138.75
813.274	200.19
813.453	181.76
813.632	142.85
813.811	163.33
813.989	126.46
814.168	161.28
814.347	146.94
814.526	112.13
814.704	255.48
814.883	171.52
815.062	148.99
815.24	153.09
815.419	95.74
815.598	235
815.776	71.17
815.955	163.33
816.133	128.51
816.312	60.93
816.49	136.7
816.669	181.76
816.847	87.55
817.026	108.03
817.204	196.09
817.383	91.65
817.561	105.98
817.74	146.94
817.918	144.89
818.097	132.61
818.275	142.85
818.453	116.22
818.632	157.18
818.81	103.93
818.988	167.42
819.167	112.13
819.345	132.61
819.523	112.13
819.701	81.41
819.879	65.02
820.058	140.8
820.236	204.28
820.414	112.13
820.592	79.36
820.77	120.32
820.948	58.88
821.127	112.13
821.305	93.69
821.483	87.55
821.661	185.85
821.839	189.95
822.017	118.27
822.195	60.93
822.373	128.51
822.551	93.69
822.729	44.54
822.907	13.82
823.085	177.66
823.262	83.45
823.44	124.41
823.618	62.98
823.796	22.02
823.974	148.99
824.152	73.21
824.329	132.61
824.507	85.5
824.685	110.08
824.863	95.74
825.04	134.65
825.218	132.61
825.396	134.65
825.574	89.6
825.751	44.54
825.929	93.69
826.107	79.36
826.284	65.02
826.462	60.93
826.639	144.89
826.817	24.06
826.994	67.07
827.172	165.37
827.349	110.08
827.527	71.17
827.704	136.7
827.882	116.22
828.059	132.61
828.237	99.84
828.414	187.9
828.591	38.4
828.769	171.52
828.946	69.12
829.124	99.84
829.301	67.07
829.478	67.07
829.655	83.45
829.833	118.27
830.01	9.73
830.187	91.65
830.364	46.59
830.542	46.59
830.719	77.31
830.896	110.08
831.073	91.65
831.25	79.36
831.427	155.13
831.604	15.87
831.782	65.02
831.959	105.98
832.136	52.74
832.313	140.8
832.49	97.79
832.667	85.5
832.844	87.55
833.021	60.93
833.198	48.64
833.374	95.74
833.551	87.55
833.728	62.98
833.905	32.26
834.082	19.97
834.259	62.98
834.436	91.65
834.612	44.54
834.789	114.17
834.966	58.88
835.143	60.93
835.319	34.3
835.496	50.69
835.673	48.64
835.85	89.6
836.026	24.06
836.203	136.7
836.38	56.83
836.556	65.02
836.733	15.87
836.909	85.5
837.086	91.65
837.262	101.89
837.439	85.5
837.616	36.35
837.792	24.06
837.968	50.69
838.145	-31.23
838.321	46.59
838.498	97.79
838.674	93.69
838.851	-8.7
839.027	105.98
839.203	79.36
839.38	71.17
839.556	79.36
839.732	-10.75
839.909	19.97
840.085	48.64
840.261	-8.7
840.437	130.56
840.614	7.68
840.79	87.55
840.966	71.17
841.142	65.02
841.318	-27.14
841.494	89.6
841.671	187.9
841.847	15.87
842.023	-12.8
842.199	85.5
842.375	81.41
842.551	60.93
842.727	58.88
842.903	114.17
843.079	-8.7
843.255	24.06
843.431	26.11
843.607	87.55
843.783	19.97
843.959	79.36
844.134	65.02
844.31	114.17
844.486	73.21
844.662	48.64
844.838	38.4
845.013	50.69
845.189	-27.14
845.365	77.31
845.541	108.03
845.716	108.03
845.892	62.98
846.068	30.21
846.244	7.68
846.419	79.36
846.595	17.92
846.77	13.82
846.946	-8.7
847.122	79.36
847.297	-18.94
847.473	60.93
847.648	30.21
847.824	30.21
847.999	13.82
848.175	-4.61
848.35	85.5
848.526	52.74
848.701	26.11
848.876	19.97
849.052	93.69
849.227	17.92
849.403	52.74
849.578	81.41
849.753	38.4
849.929	54.78
850.104	-27.14
850.279	-33.28
850.454	54.78
850.63	44.54
850.805	65.02
850.98	38.4
851.155	13.82
851.33	-10.75
851.505	15.87
851.681	-0.51
851.856	7.68
852.031	38.4
852.206	79.36
852.381	1.54
852.556	15.87
852.731	9.73
852.906	93.69
853.081	30.21
853.256	50.69
853.431	13.82
853.606	34.3
853.781	11.78
853.956	32.26
854.131	3.58
854.305	54.78
854.48	54.78
854.655	81.41
854.83	62.98
855.005	-35.33
855.18	65.02
855.354	7.68
855.529	-20.99
855.704	17.92
855.879	65.02
856.053	-41.47
856.228	-10.75
856.403	34.3
856.577	-14.85
856.752	42.5
856.926	26.11
857.101	42.5
857.276	22.02
857.45	26.11
857.625	34.3
857.799	38.4
857.974	67.07
858.148	-55.81
858.323	52.74
858.497	13.82
858.672	5.63
858.846	26.11
859.02	60.93
859.195	15.87
859.369	7.68
859.543	1.54
859.718	-43.52
859.892	34.3
860.066	5.63
860.241	28.16
860.415	-23.04
860.589	-80.38
860.763	-41.47
860.938	50.69
861.112	19.97
861.286	11.78
861.46	15.87
861.634	67.07
861.808	44.54
861.982	89.6
862.157	15.87
862.331	-0.51
862.505	-14.85
862.679	-20.99
862.853	-6.66
863.027	-6.66
863.201	65.02
863.375	-23.04
863.549	48.64
863.722	19.97
863.896	-14.85
864.07	-16.9
864.244	42.5
864.418	60.93
864.592	50.69
864.766	-33.28
864.939	13.82
865.113	-39.42
865.287	118.27
865.461	-37.38
865.634	13.82
865.808	-35.33
865.982	5.63
866.156	-25.09
866.329	17.92
866.503	54.78
866.676	22.02
866.85	40.45
867.024	13.82
867.197	5.63
867.371	77.31
867.544	-2.56
867.718	-8.7
867.891	34.3
868.065	26.11
868.238	40.45
868.412	56.83
868.585	-6.66
868.759	-23.04
868.932	36.35
869.105	-18.94
869.279	48.64
869.452	13.82
869.625	-33.28
869.799	32.26
869.972	-27.14
870.145	22.02
870.319	40.45
870.492	-25.09
870.665	-25.09
870.838	24.06
871.011	-37.38
871.185	-4.61
871.358	1.54
871.531	62.98
871.704	7.68
871.877	-0.51
872.05	-27.14
872.223	24.06
872.396	11.78
872.569	73.21
872.742	-2.56
872.915	26.11
873.088	-25.09
873.261	-39.42
873.434	54.78
873.607	56.83
873.78	22.02
873.953	-37.38
874.126	22.02
874.299	81.41
874.471	17.92
874.644	52.74
874.817	1.54
874.99	69.12
875.163	38.4
875.335	54.78
875.508	17.92
875.681	46.59
875.853	-47.62
876.026	42.5
876.199	-4.61
876.371	-41.47
876.544	-18.94
876.717	38.4
876.889	-0.51
877.062	58.88
877.234	-2.56
877.407	-20.99
877.579	17.92
877.752	56.83
877.924	-57.86
878.097	5.63
878.269	-2.56
878.442	26.11
878.614	24.06
878.786	67.07
878.959	-33.28
879.131	50.69
879.303	-16.9
879.476	26.11
879.648	3.58
879.82	34.3
879.993	-53.76
880.165	-31.23
880.337	-33.28
880.509	7.68
880.681	-0.51
880.854	-51.71
881.026	-23.04
881.198	67.07
881.37	50.69
881.542	-23.04
881.714	52.74
881.886	-2.56
882.058	44.54
882.23	32.26
882.402	-41.47
882.574	-0.51
882.746	67.07
882.918	30.21
883.09	9.73
883.262	52.74
883.434	97.79
883.606	-82.43
883.778	-57.86
883.95	9.73
884.122	34.3
884.293	54.78
884.465	-57.86
884.637	89.6
884.809	17.92
884.98	56.83
885.152	77.31
885.324	9.73
885.496	-68.09
885.667	-27.14
885.839	13.82
886.011	26.11
886.182	5.63
886.354	9.73
886.525	60.93
886.697	56.83
886.869	42.5
887.04	-31.23
887.212	32.26
887.383	83.45
887.555	-31.23
887.726	-35.33
887.897	17.92
888.069	26.11
888.24	26.11
888.412	52.74
888.583	46.59
888.754	-18.94
888.926	5.63
889.097	40.45
889.268	11.78
889.44	44.54
889.611	-27.14
889.782	9.73
889.953	-27.14
890.125	-0.51
890.296	-8.7
890.467	9.73
890.638	-2.56
890.809	28.16
890.98	-14.85
891.151	91.65
891.323	75.26
891.494	15.87
891.665	19.97
891.836	42.5
892.007	-0.51
892.178	-12.8
892.349	36.35
892.52	-10.75
892.691	19.97
892.862	44.54
893.032	-29.18
893.203	54.78
893.374	71.17
893.545	-29.18
893.716	-59.9
893.887	-18.94
894.057	-25.09
894.228	34.3
894.399	26.11
894.57	5.63
894.74	91.65
894.911	77.31
895.082	-39.42
895.253	-10.75
895.423	44.54
895.594	38.4
895.764	24.06
895.935	-10.75
896.106	-10.75
896.276	89.6
896.447	75.26
896.617	-59.9
896.788	22.02
896.958	19.97
897.129	-10.75
897.299	-14.85
897.47	56.83
897.64	-14.85
897.81	79.36
897.981	-16.9
898.151	15.87
898.322	73.21
898.492	19.97
898.662	-27.14
898.832	-20.99
899.003	-20.99
899.173	-49.66
899.343	19.97
899.513	-12.8
