Data from USB4F104151__40__12-35-47-160.txt Node

Date: Fri Mar 14 12:35:47 EDT 2025
User: louis
Spectrometer: USB4F10415
Trigger mode: 4
Integration Time (sec): 2.000000E-2
Scans to average: 1
Electric dark correction enabled: true
Nonlinearity correction enabled: false
Boxcar width: 0
XAxis mode: Wavelengths
Number of Pixels in Spectrum: 3648
>>>>>Begin Spectral Data<<<<<
178.204	-58.71
178.424	-58.71
178.644	-58.71
178.864	-120.15
179.084	-17.75
179.304	-9.56
179.524	-27.99
179.744	6.83
179.964	12.97
180.184	37.55
180.404	-44.37
180.624	2.73
180.844	-11.61
181.064	-34.13
181.283	51.88
181.503	-25.94
181.723	41.64
181.943	-5.46
182.163	-9.56
182.383	31.4
182.602	82.6
182.822	101.03
183.042	49.83
183.262	-11.61
183.482	-19.8
183.701	25.26
183.921	64.17
184.141	0.68
184.361	72.36
184.58	41.64
184.8	76.46
185.02	-23.89
185.239	58.03
185.459	62.12
185.679	74.41
185.898	-87.38
186.118	84.65
186.338	31.4
186.557	-9.56
186.777	41.64
186.997	66.22
187.216	43.69
187.436	33.45
187.655	74.41
187.875	29.35
188.095	25.26
188.314	68.27
188.534	80.55
188.753	21.16
188.973	41.64
189.192	72.36
189.412	33.45
189.631	33.45
189.851	23.21
190.07	74.41
190.29	-56.66
190.509	-21.85
190.729	-9.56
190.948	29.35
191.168	86.7
191.387	58.03
191.607	84.65
191.826	70.31
192.045	84.65
192.265	92.84
192.484	-83.28
192.704	47.79
192.923	33.45
193.142	29.35
193.362	78.51
193.581	47.79
193.8	31.4
194.02	41.64
194.239	25.26
194.458	17.07
194.678	49.83
194.897	66.22
195.116	0.68
195.335	-23.89
195.555	43.69
195.774	8.87
195.993	-1.37
196.212	29.35
196.432	8.87
196.651	49.83
196.87	12.97
197.089	68.27
197.308	113.32
197.528	49.83
197.747	90.79
197.966	64.17
198.185	103.08
198.404	-9.56
198.623	6.83
198.842	60.07
199.062	76.46
199.281	39.59
199.5	-21.85
199.719	86.7
199.938	17.07
200.157	90.79
200.376	150.18
200.595	78.51
200.814	31.4
201.033	41.64
201.252	80.55
201.471	58.03
201.69	144.04
201.909	33.45
202.128	27.31
202.347	53.93
202.566	-38.23
202.785	-40.28
203.004	31.4
203.223	141.99
203.442	58.03
203.661	90.79
203.879	66.22
204.098	53.93
204.317	-36.18
204.536	94.89
204.755	62.12
204.974	-21.85
205.193	6.83
205.411	15.02
205.63	55.98
205.849	101.03
206.068	23.21
206.287	-25.94
206.505	113.32
206.724	-48.47
206.943	60.07
207.162	-3.41
207.381	15.02
207.599	68.27
207.818	29.35
208.037	8.87
208.255	27.31
208.474	76.46
208.693	-3.41
208.911	60.07
209.13	60.07
209.349	60.07
209.567	51.88
209.786	64.17
210.005	78.51
210.223	58.03
210.442	41.64
210.661	74.41
210.879	19.11
211.098	74.41
211.316	64.17
211.535	92.84
211.753	-50.52
211.972	0.68
212.191	41.64
212.409	43.69
212.628	8.87
212.846	-17.75
213.065	78.51
213.283	66.22
213.502	84.65
213.72	53.93
213.938	29.35
214.157	2.73
214.375	47.79
214.594	25.26
214.812	23.21
215.031	92.84
215.249	105.13
215.467	49.83
215.686	45.74
215.904	19.11
216.122	60.07
216.341	17.07
216.559	62.12
216.778	15.02
216.996	78.51
217.214	86.7
217.432	10.92
217.651	49.83
217.869	78.51
218.087	12.97
218.306	-5.46
218.524	-17.75
218.742	-17.75
218.96	92.84
219.179	80.55
219.397	82.6
219.615	88.75
219.833	96.94
220.051	-9.56
220.27	49.83
220.488	29.35
220.706	39.59
220.924	55.98
221.142	2.73
221.36	84.65
221.578	45.74
221.796	66.22
222.015	70.31
222.233	62.12
222.451	37.55
222.669	37.55
222.887	33.45
223.105	-13.65
223.323	-9.56
223.541	29.35
223.759	62.12
223.977	45.74
224.195	47.79
224.413	84.65
224.631	-19.8
224.849	98.99
225.067	72.36
225.285	-40.28
225.503	6.83
225.721	10.92
225.939	35.5
226.157	64.17
226.375	121.51
226.592	-21.85
226.81	12.97
227.028	94.89
227.246	45.74
227.464	123.56
227.682	103.08
227.9	43.69
228.117	17.07
228.335	43.69
228.553	74.41
228.771	98.99
228.989	27.31
229.206	29.35
229.424	-3.41
229.642	72.36
229.86	74.41
230.077	19.11
230.295	33.45
230.513	33.45
230.731	72.36
230.948	-9.56
231.166	78.51
231.384	78.51
231.601	41.64
231.819	94.89
232.037	-19.8
232.254	10.92
232.472	21.16
232.689	4.78
232.907	27.31
233.125	0.68
233.342	78.51
233.56	-44.37
233.777	90.79
233.995	43.69
234.213	51.88
234.43	64.17
234.648	27.31
234.865	92.84
235.083	78.51
235.3	25.26
235.518	31.4
235.735	72.36
235.953	105.13
236.17	33.45
236.388	19.11
236.605	43.69
236.822	43.69
237.04	92.84
237.257	60.07
237.475	27.31
237.692	31.4
237.909	68.27
238.127	21.16
238.344	78.51
238.562	74.41
238.779	10.92
238.996	21.16
239.214	19.11
239.431	55.98
239.648	47.79
239.865	88.75
240.083	43.69
240.3	-5.46
240.517	84.65
240.735	68.27
240.952	41.64
241.169	113.32
241.386	27.31
241.603	49.83
241.821	43.69
242.038	105.13
242.255	146.09
242.472	103.08
242.689	25.26
242.907	68.27
243.124	4.78
243.341	-9.56
243.558	-25.94
243.775	-15.7
243.992	-3.41
244.209	107.18
244.426	84.65
244.643	109.23
244.86	33.45
245.078	25.26
245.295	10.92
245.512	74.41
245.729	-64.85
245.946	41.64
246.163	21.16
246.38	55.98
246.597	72.36
246.814	21.16
247.031	31.4
247.248	21.16
247.464	47.79
247.681	51.88
247.898	90.79
248.115	6.83
248.332	4.78
248.549	62.12
248.766	47.79
248.983	21.16
249.2	80.55
249.417	10.92
249.633	92.84
249.85	41.64
250.067	43.69
250.284	115.37
250.501	2.73
250.717	60.07
250.934	-62.8
251.151	21.16
251.368	4.78
251.585	51.88
251.801	39.59
252.018	66.22
252.235	123.56
252.451	12.97
252.668	19.11
252.885	76.46
253.102	49.83
253.318	0.68
253.535	0.68
253.752	55.98
253.968	27.31
254.185	-9.56
254.401	101.03
254.618	55.98
254.835	-60.76
255.051	66.22
255.268	-5.46
255.484	66.22
255.701	49.83
255.917	64.17
256.134	58.03
256.351	35.5
256.567	80.55
256.784	41.64
257	76.46
257.217	19.11
257.433	27.31
257.65	109.23
257.866	27.31
258.082	82.6
258.299	66.22
258.515	78.51
258.732	-1.37
258.948	60.07
259.165	17.07
259.381	41.64
259.597	-3.41
259.814	80.55
260.03	10.92
260.246	43.69
260.463	84.65
260.679	68.27
260.895	17.07
261.112	125.61
261.328	62.12
261.544	-15.7
261.761	60.07
261.977	53.93
262.193	35.5
262.409	27.31
262.626	-3.41
262.842	62.12
263.058	53.93
263.274	-5.46
263.49	21.16
263.707	72.36
263.923	66.22
264.139	98.99
264.355	12.97
264.571	41.64
264.787	103.08
265.004	-11.61
265.22	68.27
265.436	96.94
265.652	51.88
265.868	35.5
266.084	31.4
266.3	115.37
266.516	82.6
266.732	-34.13
266.948	-1.37
267.164	4.78
267.38	27.31
267.596	41.64
267.812	41.64
268.028	80.55
268.244	-13.65
268.46	64.17
268.676	64.17
268.892	21.16
269.108	53.93
269.324	-44.37
269.54	39.59
269.756	88.75
269.972	15.02
270.188	29.35
270.403	-13.65
270.619	60.07
270.835	25.26
271.051	78.51
271.267	-36.18
271.483	154.28
271.698	62.12
271.914	53.93
272.13	0.68
272.346	68.27
272.562	-3.41
272.777	68.27
272.993	129.7
273.209	-3.41
273.425	86.7
273.64	17.07
273.856	39.59
274.072	4.78
274.287	17.07
274.503	39.59
274.719	78.51
274.934	94.89
275.15	-32.08
275.366	51.88
275.581	37.55
275.797	60.07
276.012	55.98
276.228	25.26
276.444	23.21
276.659	19.11
276.875	80.55
277.09	6.83
277.306	33.45
277.521	115.37
277.737	15.02
277.952	76.46
278.168	45.74
278.383	29.35
278.599	72.36
278.814	55.98
279.03	72.36
279.245	74.41
279.461	60.07
279.676	72.36
279.892	17.07
280.107	90.79
280.322	41.64
280.538	-42.32
280.753	53.93
280.969	31.4
281.184	25.26
281.399	29.35
281.615	10.92
281.83	74.41
282.045	-23.89
282.26	-13.65
282.476	33.45
282.691	39.59
282.906	62.12
283.122	76.46
283.337	21.16
283.552	103.08
283.767	4.78
283.983	60.07
284.198	41.64
284.413	80.55
284.628	19.11
284.843	-5.46
285.058	41.64
285.274	76.46
285.489	0.68
285.704	35.5
285.919	12.97
286.134	-3.41
286.349	105.13
286.564	0.68
286.779	125.61
286.995	55.98
287.21	86.7
287.425	-36.18
287.64	-5.46
287.855	-15.7
288.07	29.35
288.285	105.13
288.5	121.51
288.715	88.75
288.93	47.79
289.145	70.31
289.36	-1.37
289.575	29.35
289.79	-15.7
290.004	76.46
290.219	72.36
290.434	105.13
290.649	21.16
290.864	119.46
291.079	35.5
291.294	19.11
291.509	4.78
291.724	76.46
291.938	49.83
292.153	47.79
292.368	86.7
292.583	29.35
292.798	92.84
293.012	37.55
293.227	19.11
293.442	-25.94
293.657	101.03
293.871	-5.46
294.086	31.4
294.301	107.18
294.516	80.55
294.73	41.64
294.945	-25.94
295.16	41.64
295.374	4.78
295.589	150.18
295.804	-3.41
296.018	17.07
296.233	47.79
296.447	15.02
296.662	43.69
296.877	72.36
297.091	45.74
297.306	10.92
297.52	53.93
297.735	58.03
297.949	107.18
298.164	86.7
298.378	-1.37
298.593	84.65
298.807	-23.89
299.022	66.22
299.236	19.11
299.451	43.69
299.665	-21.85
299.88	23.21
300.094	4.78
300.309	74.41
300.523	8.87
300.737	27.31
300.952	55.98
301.166	90.79
301.381	55.98
301.595	123.56
301.809	66.22
302.024	113.32
302.238	19.11
302.452	41.64
302.667	55.98
302.881	0.68
303.095	53.93
303.309	23.21
303.524	0.68
303.738	-11.61
303.952	10.92
304.166	68.27
304.381	66.22
304.595	82.6
304.809	55.98
305.023	29.35
305.237	70.31
305.452	-34.13
305.666	53.93
305.88	105.13
306.094	115.37
306.308	-1.37
306.522	33.45
306.736	33.45
306.95	105.13
307.164	43.69
307.379	53.93
307.593	0.68
307.807	119.46
308.021	66.22
308.235	2.73
308.449	-17.75
308.663	53.93
308.877	131.75
309.091	90.79
309.305	19.11
309.519	53.93
309.733	49.83
309.947	33.45
310.161	58.03
310.374	64.17
310.588	45.74
310.802	47.79
311.016	0.68
311.23	103.08
311.444	-1.37
311.658	74.41
311.872	41.64
312.085	37.55
312.299	47.79
312.513	55.98
312.727	33.45
312.941	45.74
313.154	90.79
313.368	86.7
313.582	92.84
313.796	-27.99
314.009	76.46
314.223	19.11
314.437	53.93
314.651	58.03
314.864	2.73
315.078	-7.51
315.292	51.88
315.505	19.11
315.719	70.31
315.933	84.65
316.146	29.35
316.36	82.6
316.573	84.65
316.787	53.93
317.001	98.99
317.214	113.32
317.428	43.69
317.641	86.7
317.855	90.79
318.068	66.22
318.282	0.68
318.495	37.55
318.709	90.79
318.922	80.55
319.136	76.46
319.349	6.83
319.563	21.16
319.776	41.64
319.99	84.65
320.203	80.55
320.417	47.79
320.63	-19.8
320.843	88.75
321.057	4.78
321.27	37.55
321.483	25.26
321.697	47.79
321.91	86.7
322.124	-21.85
322.337	90.79
322.55	15.02
322.763	64.17
322.977	76.46
323.19	21.16
323.403	58.03
323.617	10.92
323.83	82.6
324.043	82.6
324.256	49.83
324.469	76.46
324.683	86.7
324.896	98.99
325.109	29.35
325.322	27.31
325.535	74.41
325.748	39.59
325.962	19.11
326.175	10.92
326.388	74.41
326.601	33.45
326.814	25.26
327.027	-23.89
327.24	58.03
327.453	-7.51
327.666	55.98
327.879	53.93
328.092	21.16
328.305	39.59
328.518	64.17
328.731	68.27
328.944	35.5
329.157	49.83
329.37	2.73
329.583	76.46
329.796	121.51
330.009	15.02
330.222	92.84
330.435	27.31
330.648	43.69
330.861	49.83
331.073	101.03
331.286	139.94
331.499	62.12
331.712	55.98
331.925	-13.65
332.138	31.4
332.35	-9.56
332.563	17.07
332.776	41.64
332.989	111.27
333.202	80.55
333.414	51.88
333.627	-5.46
333.84	-38.23
334.053	58.03
334.265	29.35
334.478	10.92
334.691	39.59
334.903	119.46
335.116	58.03
335.329	66.22
335.541	19.11
335.754	39.59
335.966	94.89
336.179	15.02
336.392	49.83
336.604	27.31
336.817	23.21
337.029	47.79
337.242	58.03
337.454	78.51
337.667	33.45
337.88	86.7
338.092	82.6
338.305	78.51
338.517	131.75
338.729	88.75
338.942	-13.65
339.154	2.73
339.367	49.83
339.579	55.98
339.792	10.92
340.004	29.35
340.217	51.88
340.429	-13.65
340.641	33.45
340.854	55.98
341.066	43.69
341.278	45.74
341.491	92.84
341.703	45.74
341.915	51.88
342.128	39.59
342.34	78.51
342.552	53.93
342.764	10.92
342.977	31.4
343.189	47.79
343.401	45.74
343.613	49.83
343.826	60.07
344.038	-19.8
344.25	47.79
344.462	-25.94
344.674	0.68
344.886	-25.94
345.099	-11.61
345.311	47.79
345.523	37.55
345.735	68.27
345.947	-11.61
346.159	94.89
346.371	72.36
346.583	41.64
346.795	19.11
347.007	39.59
347.219	72.36
347.431	12.97
347.643	35.5
347.855	60.07
348.067	76.46
348.279	39.59
348.491	33.45
348.703	21.16
348.915	10.92
349.127	86.7
349.339	70.31
349.551	-9.56
349.763	66.22
349.975	82.6
350.187	27.31
350.399	98.99
350.61	94.89
350.822	76.46
351.034	6.83
351.246	41.64
351.458	37.55
351.669	10.92
351.881	62.12
352.093	19.11
352.305	-9.56
352.517	0.68
352.728	80.55
352.94	53.93
353.152	29.35
353.363	31.4
353.575	66.22
353.787	121.51
353.999	53.93
354.21	82.6
354.422	-13.65
354.633	60.07
354.845	47.79
355.057	64.17
355.268	117.42
355.48	41.64
355.692	68.27
355.903	2.73
356.115	8.87
356.326	27.31
356.538	86.7
356.749	39.59
356.961	84.65
357.172	76.46
357.384	37.55
357.595	76.46
357.807	105.13
358.018	27.31
358.23	4.78
358.441	107.18
358.653	-38.23
358.864	39.59
359.075	47.79
359.287	21.16
359.498	84.65
359.709	43.69
359.921	6.83
360.132	86.7
360.344	17.07
360.555	60.07
360.766	109.23
360.977	45.74
361.189	49.83
361.4	64.17
361.611	74.41
361.823	101.03
362.034	41.64
362.245	45.74
362.456	60.07
362.667	41.64
362.879	41.64
363.09	23.21
363.301	70.31
363.512	119.46
363.723	12.97
363.935	41.64
364.146	133.8
364.357	-19.8
364.568	86.7
364.779	17.07
364.99	101.03
365.201	141.99
365.412	33.45
365.623	-44.37
365.834	64.17
366.045	39.59
366.256	21.16
366.467	35.5
366.678	12.97
366.889	27.31
367.1	15.02
367.311	39.59
367.522	62.12
367.733	66.22
367.944	37.55
368.155	15.02
368.366	84.65
368.577	144.04
368.788	96.94
368.999	17.07
369.209	35.5
369.42	158.38
369.631	111.27
369.842	98.99
370.053	86.7
370.264	86.7
370.474	15.02
370.685	82.6
370.896	113.32
371.107	62.12
371.317	15.02
371.528	96.94
371.739	66.22
371.95	90.79
372.16	94.89
372.371	-9.56
372.582	8.87
372.792	53.93
373.003	33.45
373.214	62.12
373.424	80.55
373.635	55.98
373.846	55.98
374.056	49.83
374.267	78.51
374.477	82.6
374.688	78.51
374.898	86.7
375.109	109.23
375.319	-5.46
375.53	45.74
375.74	88.75
375.951	64.17
376.161	31.4
376.372	27.31
376.582	98.99
376.793	84.65
377.003	72.36
377.214	105.13
377.424	88.75
377.635	70.31
377.845	-3.41
378.055	109.23
378.266	-19.8
378.476	58.03
378.686	37.55
378.897	88.75
379.107	51.88
379.317	45.74
379.528	60.07
379.738	74.41
379.948	-21.85
380.158	125.61
380.369	82.6
380.579	133.8
380.789	60.07
380.999	76.46
381.21	144.04
381.42	86.7
381.63	49.83
381.84	92.84
382.05	29.35
382.261	64.17
382.471	33.45
382.681	115.37
382.891	62.12
383.101	55.98
383.311	-5.46
383.521	90.79
383.731	68.27
383.941	150.18
384.151	135.85
384.361	55.98
384.571	60.07
384.781	66.22
384.991	105.13
385.201	90.79
385.411	121.51
385.621	21.16
385.831	6.83
386.041	144.04
386.251	103.08
386.461	58.03
386.671	80.55
386.881	60.07
387.091	25.26
387.301	60.07
387.511	60.07
387.72	111.27
387.93	80.55
388.14	25.26
388.35	37.55
388.56	109.23
388.769	55.98
388.979	80.55
389.189	35.5
389.399	105.13
389.609	66.22
389.818	43.69
390.028	88.75
390.238	82.6
390.447	80.55
390.657	74.41
390.867	31.4
391.076	98.99
391.286	68.27
391.496	25.26
391.705	45.74
391.915	133.8
392.125	45.74
392.334	39.59
392.544	80.55
392.753	10.92
392.963	105.13
393.172	109.23
393.382	39.59
393.591	96.94
393.801	115.37
394.01	180.9
394.22	144.04
394.429	86.7
394.639	33.45
394.848	96.94
395.058	174.76
395.267	27.31
395.477	51.88
395.686	109.23
395.895	135.85
396.105	115.37
396.314	86.7
396.524	37.55
396.733	17.07
396.942	113.32
397.152	86.7
397.361	94.89
397.57	137.9
397.78	111.27
397.989	107.18
398.198	187.05
398.407	33.45
398.617	47.79
398.826	86.7
399.035	37.55
399.244	55.98
399.453	123.56
399.663	64.17
399.872	45.74
400.081	90.79
400.29	123.56
400.499	51.88
400.708	291.49
400.917	117.42
401.127	74.41
401.336	141.99
401.545	141.99
401.754	195.24
401.963	176.81
402.172	129.7
402.381	64.17
402.59	74.41
402.799	146.09
403.008	141.99
403.217	103.08
403.426	166.57
403.635	125.61
403.844	88.75
404.053	150.18
404.262	166.57
404.471	170.66
404.68	115.37
404.888	121.51
405.097	141.99
405.306	193.19
405.515	129.7
405.724	150.18
405.933	225.96
406.142	213.67
406.35	207.53
406.559	207.53
406.768	164.52
406.977	264.87
407.185	203.43
407.394	232.1
407.603	139.94
407.812	254.63
408.02	215.72
408.229	209.58
408.438	193.19
408.646	166.57
408.855	271.01
409.064	209.58
409.272	221.86
409.481	254.63
409.69	318.12
409.898	244.39
410.107	309.93
410.315	324.26
410.524	324.26
410.733	322.21
410.941	363.17
411.15	410.28
411.358	424.61
411.567	342.69
411.775	277.16
411.984	361.13
412.192	375.46
412.401	410.28
412.609	412.32
412.818	465.57
413.026	459.43
413.234	496.29
413.443	412.32
413.651	531.11
413.86	481.96
414.068	529.06
414.276	514.72
414.485	555.68
414.693	557.73
414.901	631.46
415.11	631.46
415.318	740
415.526	701.09
415.734	764.58
415.943	727.71
416.151	742.05
416.359	811.68
416.567	864.93
416.776	815.77
416.984	897.69
417.192	938.65
417.4	856.73
417.608	905.88
417.817	993.95
418.025	989.85
418.233	1073.82
418.441	981.66
418.649	1125.02
418.857	1149.59
419.065	1147.55
419.273	1159.83
419.481	1227.42
419.689	1364.63
419.897	1352.34
420.105	1401.49
420.313	1485.46
420.521	1493.65
420.729	1520.28
420.937	1575.57
421.145	1598.1
421.353	1596.05
421.561	1745.55
421.769	1741.46
421.977	1950.35
422.185	1819.28
422.393	1995.4
422.601	2038.41
422.809	1933.97
423.017	2032.27
423.224	2179.72
423.432	2353.8
423.64	2402.95
423.848	2380.42
424.056	2361.99
424.263	2579.08
424.471	2523.78
424.679	2577.03
424.887	2730.62
425.094	2873.98
425.302	2925.18
425.51	3025.53
425.718	3086.97
425.925	3215.99
426.133	3166.84
426.341	3494.52
426.548	3586.68
426.756	3582.58
426.964	3615.35
427.171	3875.44
427.379	3977.84
427.586	3973.74
427.794	4094.57
428.001	4274.79
428.209	4385.38
428.417	4242.03
428.624	4663.91
428.832	4694.63
429.039	4608.61
429.247	4782.69
429.454	5110.36
429.662	5458.52
429.869	5014.11
430.076	5294.68
430.284	5317.21
430.491	5536.34
430.699	5878.35
430.906	5945.94
431.114	5972.56
431.321	6058.57
431.528	6257.23
431.736	6502.98
431.943	6976.06
432.15	6670.92
432.358	6668.87
432.565	7154.24
432.772	7305.79
432.979	7701.05
433.187	7502.39
433.394	7858.74
433.601	8120.88
433.808	8247.85
434.016	8200.75
434.223	8532.52
434.43	9136.67
434.637	8737.32
434.844	9364
435.052	9634.33
435.259	9484.83
435.466	9669.14
435.673	9579.03
435.88	10093.07
436.087	10514.95
436.294	10652.17
436.501	10230.29
436.708	10754.57
436.915	10963.46
437.122	11416.06
437.329	11334.14
437.537	11901.43
437.743	11946.48
437.95	11962.87
438.157	12444.14
438.364	12954.08
438.571	12917.22
438.778	12743.14
438.985	14131.67
439.192	13654.49
439.399	13906.39
439.606	13640.15
439.813	14539.21
440.02	15223.23
440.227	15051.2
440.433	14997.96
440.64	15634.88
440.847	15153.6
441.054	15536.57
441.261	16724.4
441.467	16572.85
441.674	16964.01
441.881	17463.71
442.088	17277.35
442.294	16998.82
442.501	17830.3
442.708	18389.39
442.914	18731.4
443.121	19757.44
443.328	19032.46
443.534	20545.91
443.741	19714.43
443.948	19607.94
444.154	20846.96
444.361	20785.52
444.568	20808.05
444.774	21150.06
444.981	21195.11
445.187	21510.5
445.394	22825.29
445.6	22387.03
445.807	24113.47
446.013	23466.31
446.22	23703.87
446.426	24647.99
446.633	24932.65
446.839	25989.41
447.046	24736.05
447.252	26353.94
447.459	26335.51
447.665	25948.45
447.871	27584.77
448.078	28336.38
448.284	27087.12
448.491	27771.14
448.697	28711.16
448.903	29354.22
449.11	29278.44
449.316	29063.41
449.522	29438.19
449.728	30132.45
449.935	30693.59
450.141	30531.8
450.347	31187.15
450.553	30099.68
450.76	30386.39
450.966	31471.82
451.172	31248.59
451.378	31946.95
451.584	31404.24
451.791	32526.52
451.997	31918.28
452.203	32456.89
452.409	32635.06
452.615	32569.53
452.821	31400.14
453.027	30746.84
453.233	32522.43
453.44	31523.02
453.646	31811.78
453.852	31869.12
454.058	32227.52
454.264	31103.18
454.47	31617.22
454.676	31035.6
454.882	32155.84
455.088	29272.3
455.294	30101.73
455.5	29901.03
455.705	30433.5
455.911	29237.48
456.117	28451.06
456.323	28330.23
456.529	26867.98
456.735	28023.04
456.941	26876.18
457.147	26833.17
457.352	25907.49
457.558	25768.23
457.764	25524.52
457.97	25512.23
458.176	24885.55
458.381	25000.24
458.587	23785.79
458.793	23736.64
458.999	22210.9
459.204	23775.55
459.41	23105.87
459.616	21832.03
459.821	21526.88
460.027	21705.06
460.233	21018.99
460.438	20324.72
460.644	20521.33
460.85	19358.08
461.055	19143.05
461.261	18801.04
461.466	17832.35
461.672	17191.33
461.878	18213.27
462.083	16966.06
462.289	16679.34
462.494	16615.85
462.7	15882.68
462.905	15235.52
463.111	15724.99
463.316	15790.52
463.522	15626.68
463.727	15772.09
463.932	15534.53
464.138	15495.61
464.343	15460.8
464.549	14942.66
464.754	15663.55
464.959	15389.12
465.165	15452.61
465.37	14830.02
465.575	14221.78
465.781	14899.66
465.986	14844.36
466.191	14332.37
466.397	13910.49
466.602	13427.17
466.807	13996.5
467.012	13994.45
467.218	14074.32
467.423	13789.66
467.628	13851.1
467.833	14485.97
468.038	13730.27
468.244	13253.09
468.449	13701.59
468.654	13388.25
468.859	13222.37
469.064	13470.17
469.269	12853.73
469.474	12708.33
469.679	13027.81
469.885	12780.01
470.09	12999.14
470.295	12726.76
470.5	12431.85
470.705	12456.43
470.91	12421.61
471.115	12220.91
471.32	12528.11
471.525	12276.21
471.73	12030.45
471.935	11891.19
472.139	11416.06
472.344	11889.14
472.549	11723.26
472.754	11516.41
472.959	11155.97
473.164	11084.29
473.369	10721.8
473.574	11325.95
473.778	11121.15
473.983	11022.85
474.188	10975.75
474.393	10535.43
474.598	10310.16
474.802	10527.24
475.007	10349.07
475.212	10543.63
475.417	9955.86
475.621	9830.93
475.826	10201.61
476.031	9875.99
476.235	9536.03
476.44	9900.56
476.645	9636.38
476.849	9832.98
477.054	9413.15
477.259	9378.33
477.463	9345.56
477.668	9269.79
477.872	9103.9
478.077	9296.41
478.282	8985.12
478.486	8833.57
478.691	8553
478.895	8778.28
479.1	8641.06
479.304	8610.34
479.509	8454.7
479.713	8512.04
479.918	8258.09
480.122	8299.05
480.326	8428.07
480.531	8397.35
480.735	8266.28
480.94	8188.46
481.144	8518.18
481.348	8325.68
481.553	8182.32
481.757	8190.51
481.961	8077.87
482.166	8448.55
482.37	8133.17
482.574	8084.02
482.778	8129.07
482.983	8170.03
483.187	8059.44
483.391	8157.74
483.595	8147.5
483.8	7957.04
484.004	8163.89
484.208	8188.46
484.412	8114.73
484.616	8110.64
484.821	8213.04
485.025	8045.1
485.229	8079.92
485.433	8096.3
485.637	8118.83
485.841	8010.29
486.045	7924.27
486.249	8077.87
486.453	7989.81
486.657	7993.9
486.861	8026.67
487.065	7897.65
487.269	8012.34
487.473	7932.47
487.677	8110.64
487.881	8231.47
488.085	7969.33
488.289	8208.94
488.493	8010.29
488.697	8129.07
488.901	8276.52
489.105	8081.97
489.309	8233.52
489.512	8301.1
489.716	8233.52
489.92	8237.61
490.124	8118.83
490.328	8598.06
490.531	8178.22
490.735	8368.68
490.939	8387.11
491.143	8526.38
491.346	8520.23
491.55	8448.55
491.754	8569.38
491.958	8653.35
492.161	8495.66
492.365	8616.49
492.569	8632.87
492.772	8569.38
492.976	8677.93
493.18	8759.84
493.383	8960.55
493.587	8923.68
493.79	9046.56
493.994	8909.35
494.197	9036.32
494.401	8911.39
494.605	9183.77
494.808	9226.78
495.012	9353.76
495.215	9347.61
495.419	9421.34
495.622	9407
495.825	9462.3
496.029	9484.83
496.232	9683.48
496.436	9593.37
496.639	9984.53
496.843	10142.22
497.046	10191.38
497.249	10570.25
497.453	10213.9
497.656	10377.74
497.859	10361.36
498.063	10412.56
498.266	10738.18
498.469	10760.71
498.673	10766.85
498.876	11162.11
499.079	11274.75
499.282	11061.76
499.485	11473.4
499.689	11448.83
499.892	11381.24
500.095	11799.03
500.298	12175.86
500.501	11571.71
500.705	12079.6
500.908	12151.28
501.111	12345.84
501.314	12700.14
501.517	12497.39
501.72	12886.5
501.923	12964.32
502.126	13058.53
502.329	13322.72
502.532	13296.1
502.735	13484.51
502.938	13681.11
503.141	13904.34
503.344	14049.75
503.547	14057.94
503.75	14363.09
503.953	14598.6
504.156	14780.87
504.359	14799.3
504.562	14862.79
504.765	15278.53
504.968	15507.9
505.17	15688.12
505.373	15731.13
505.576	15811
505.779	16163.25
505.982	16462.26
506.185	16605.61
506.387	16427.44
506.59	16802.22
506.793	17127.85
506.996	17068.45
507.198	17664.41
507.401	17363.36
507.604	17727.9
507.807	18041.24
508.009	18219.41
508.212	18366.87
508.415	18569.62
508.617	18532.75
508.82	19130.76
509.022	18909.58
509.225	19349.89
509.428	19587.46
509.63	19497.35
509.833	19827.07
510.035	20494.71
510.238	20279.67
510.44	20435.31
510.643	20762.99
510.845	21041.51
511.048	20980.07
511.25	21209.45
511.453	21553.51
511.655	22331.73
511.858	21959
512.06	22303.06
512.262	23036.24
512.465	22835.53
512.667	22753.62
512.87	23359.81
513.072	23212.36
513.274	23497.03
513.477	24320.31
513.679	24219.96
513.881	24711.47
514.084	24854.83
514.286	24895.79
514.488	25055.53
514.69	25884.96
514.893	25796.9
515.095	25919.78
515.297	26353.94
515.499	26329.37
515.701	26867.98
515.904	27193.61
516.106	27291.91
516.308	27705.6
516.51	27928.83
516.712	28053.76
516.914	28469.5
517.116	28961.01
517.318	28641.53
517.52	29327.6
517.722	29425.9
517.925	29655.27
518.127	29913.31
518.329	30025.95
518.531	30374.11
518.733	30970.07
518.935	31230.16
519.136	31367.37
519.338	31711.43
519.54	31465.67
519.742	32202.94
519.944	32108.74
520.146	32735.42
520.348	32889.01
520.55	33331.37
520.752	33288.37
520.954	33716.39
521.155	33491.12
521.357	34320.54
521.559	34551.96
521.761	34728.09
521.963	34891.93
522.164	35235.98
522.366	35254.42
522.568	36176
522.77	35532.94
522.971	36411.52
523.173	36192.39
523.375	36841.59
523.576	36493.44
523.778	36687.99
523.98	37306.48
524.181	37630.06
524.383	37666.92
524.584	38328.42
524.786	37910.63
524.988	38023.27
525.189	38322.27
525.391	38864.99
525.592	38830.17
525.794	38942.81
525.995	39342.16
526.197	39067.73
526.398	39153.75
526.6	39661.65
526.801	39825.48
527.003	40157.25
527.204	39985.22
527.406	40452.16
527.607	40347.71
527.808	40503.36
528.01	40423.49
528.211	40544.32
528.412	41103.42
528.614	41074.74
528.815	40892.47
529.016	41443.38
529.218	40857.66
529.419	41484.34
529.62	41295.92
529.822	41394.23
530.023	41568.3
530.224	41359.41
530.425	41443.38
530.626	40986.68
530.828	41584.69
531.029	42303.53
531.23	41793.58
531.431	41267.25
531.632	42246.18
531.833	42080.3
532.035	42033.19
532.236	41863.21
532.437	42287.14
532.638	41832.49
532.839	42317.86
533.04	42256.42
533.241	41588.78
533.442	42453.03
533.643	42491.94
533.844	42080.3
534.045	42455.07
534.246	41857.07
534.447	42303.53
534.648	41930.79
534.849	42289.19
535.05	42125.35
535.251	42123.3
535.451	41809.96
535.652	42369.06
535.853	42031.15
536.054	42385.44
536.255	42450.98
536.456	41732.14
536.657	42692.64
536.857	42108.97
537.058	41668.65
537.259	42364.96
537.46	42035.24
537.66	42096.68
537.861	42416.16
538.062	41920.55
538.263	41902.12
538.463	41789.48
538.664	42164.26
538.865	41975.85
539.065	42489.89
539.266	41244.73
539.466	42147.88
539.667	41758.77
539.868	42250.28
540.068	41707.57
540.269	41402.42
540.469	42178.6
540.67	41746.48
540.87	41945.13
541.071	42043.43
541.271	41488.43
541.472	41379.89
541.672	41785.39
541.873	41318.45
542.073	40951.87
542.274	42082.34
542.474	41476.15
542.675	41015.35
542.875	41869.36
543.075	41664.56
543.276	41115.7
543.476	42027.05
543.676	40400.96
543.877	41226.29
544.077	41015.35
544.277	41336.88
544.478	41234.49
544.678	41130.04
544.878	41300.02
545.078	41295.92
545.279	40839.23
545.479	40953.91
545.679	41048.12
545.879	41044.02
546.079	41017.4
546.28	40992.83
546.48	40540.22
546.68	41238.58
546.88	41205.81
547.08	41152.57
547.28	40874.04
547.48	40589.38
547.68	41007.16
547.88	40740.92
548.081	41226.29
548.281	40906.81
548.481	40958.01
548.681	41336.88
548.881	40726.59
549.081	40921.15
549.28	40194.12
549.48	40878.14
549.68	40558.66
549.88	41148.47
550.08	40595.52
550.28	40503.36
550.48	40317
550.68	40874.04
550.88	40273.99
551.08	40425.54
551.279	40665.15
551.479	40116.29
551.679	40640.57
551.879	40343.62
552.079	40355.91
552.278	40751.16
552.478	40673.34
552.678	40468.55
552.878	40437.83
553.077	40323.14
553.277	40136.77
553.477	40243.27
553.676	39825.48
553.876	39905.35
554.076	40106.05
554.275	39866.44
554.475	39798.86
554.674	39979.08
554.874	39942.22
555.074	39450.7
555.273	40136.77
555.473	39868.49
555.672	39970.89
555.872	39829.58
556.071	39905.35
556.271	40042.57
556.47	40091.72
556.67	39073.88
556.869	39354.45
557.068	39936.07
557.268	39231.57
557.467	39432.27
557.667	39553.1
557.866	39280.72
558.065	39309.39
558.265	39417.94
558.464	39100.5
558.663	39635.02
558.863	38711.39
559.062	39506
559.261	38625.37
559.461	39387.22
559.66	38715.48
559.859	38920.28
560.058	38682.72
560.258	38502.5
560.457	38150.24
560.656	38383.71
560.855	38596.7
561.054	38252.64
561.253	38125.67
561.453	38262.88
561.652	38381.66
561.851	38307.94
562.05	38053.99
562.249	37685.36
562.448	37986.41
562.647	37918.82
562.846	37466.22
563.045	37789.8
563.244	37415.02
563.443	38133.86
563.642	37290.1
563.841	37711.98
564.04	36794.49
564.239	37515.37
564.438	36931.7
564.637	37384.3
564.836	36833.4
565.035	36290.69
565.234	37060.73
565.432	36558.97
565.631	36380.8
565.83	36350.08
566.029	36593.79
566.228	36274.31
566.427	35932.29
566.625	36212.87
566.824	35733.64
567.023	35805.32
567.222	35909.77
567.42	36092.04
567.619	35907.72
567.818	35489.93
568.016	35426.45
568.215	35717.26
568.414	35444.88
568.612	35553.42
568.811	35109.01
569.01	35172.5
569.208	34572.44
569.407	35149.97
569.605	34543.77
569.804	34807.96
570.002	34480.28
570.201	34832.54
570.4	34224.29
570.598	33933.48
570.797	33986.72
570.995	34111.65
571.193	33999.01
571.392	33939.62
571.59	33736.87
571.789	33435.82
571.987	33530.03
572.186	33401
572.384	33128.63
572.582	33460.4
572.781	33194.16
572.979	32872.63
573.177	33431.72
573.376	33138.86
573.574	32796.85
573.772	32911.54
573.971	32358.59
574.169	32448.7
574.367	32301.25
574.565	32645.3
574.763	32340.16
574.962	31893.7
575.16	31930.56
575.358	32012.48
575.556	31285.45
575.754	31951.04
575.952	31070.42
576.151	31246.54
576.349	31101.14
576.547	31013.07
576.745	31011.03
576.943	31424.72
577.141	31088.85
577.339	30978.26
577.537	30808.28
577.735	30597.34
577.933	30189.79
578.131	30558.42
578.329	30322.91
578.527	30120.16
578.725	30267.61
578.923	30195.93
579.121	30103.78
579.319	30001.38
579.516	30257.37
579.714	29896.93
579.912	29612.26
580.11	29481.19
580.308	29694.18
580.506	29620.45
580.704	29022.45
580.901	29241.58
581.099	29202.67
581.297	28844.27
581.495	28733.68
581.692	29034.74
581.89	28561.65
582.088	28838.13
582.285	28498.17
582.483	28823.79
582.681	28559.61
582.878	28514.55
583.076	27887.87
583.274	28182.78
583.471	27861.25
583.669	28119.29
583.866	27576.58
584.064	27795.71
584.262	27363.59
584.459	27853.06
584.657	27179.28
584.854	27822.34
585.052	27044.11
585.249	27521.29
585.447	27277.58
585.644	26870.03
585.841	27306.25
586.039	27314.44
586.236	26925.33
586.434	26757.39
586.631	26638.61
586.828	26857.74
587.026	26878.22
587.223	26564.89
587.42	26343.7
587.618	26394.9
587.815	26040.61
588.012	26349.85
588.21	25973.02
588.407	26632.47
588.604	25938.21
588.801	26183.96
588.999	25901.34
589.196	25788.71
589.393	25520.42
589.59	25532.71
589.787	25418.02
589.984	25428.26
590.182	25272.62
590.379	25088.3
590.576	24963.37
590.773	25479.46
590.97	24879.41
591.167	25319.72
591.364	24729.91
591.561	24873.26
591.758	24789.3
591.955	24537.4
592.152	24867.12
592.349	24580.4
592.546	24574.26
592.743	24627.51
592.94	24203.58
593.137	24379.7
593.334	24308.02
593.531	24033.6
593.727	24328.5
593.924	24291.64
594.121	23769.41
594.318	24033.6
594.515	23839.04
594.712	24058.17
594.908	23830.85
595.105	23763.26
595.302	23460.16
595.499	23650.63
595.696	23558.47
595.892	23161.16
596.089	23847.23
596.286	23542.08
596.482	23234.89
596.679	23308.61
596.876	22958.41
597.072	23069
597.269	22890.83
597.466	22755.66
597.662	22372.69
597.859	22890.83
598.055	22753.62
598.252	22528.34
598.448	22948.17
598.645	22286.68
598.841	22595.92
599.038	22296.92
599.234	22456.66
599.431	22151.51
599.627	22073.69
599.824	22378.84
600.02	21989.72
600.217	22204.76
600.413	21600.61
600.609	21885.28
600.806	21520.74
601.002	21746.01
601.198	21852.51
601.395	21641.57
601.591	21551.46
601.787	21610.85
601.984	21399.91
602.18	21692.77
602.376	21158.25
602.572	21414.24
602.769	21330.28
602.965	21117.29
603.161	20914.54
603.357	21012.84
603.553	20855.15
603.75	20828.52
603.946	20593.01
604.142	20853.1
604.338	20709.74
604.534	20633.97
604.73	20644.21
604.926	20744.56
605.122	20556.14
605.318	20785.52
605.514	20435.31
605.71	20343.16
605.906	20212.09
606.102	20173.17
606.298	20212.09
606.494	20029.82
606.69	20384.12
606.886	19956.09
607.082	20031.86
607.278	20228.47
607.474	19704.19
607.67	19882.36
607.866	19652.99
608.062	19958.14
608.257	19552.64
608.453	19476.87
608.649	19593.6
608.845	19607.94
609.041	19444.1
609.236	19462.53
609.432	19448.19
609.628	19335.56
609.824	19415.43
610.019	19141
610.215	19126.66
610.411	19292.55
610.606	19249.54
610.802	19179.91
610.998	19200.39
611.193	19124.61
611.389	19351.94
611.584	18921.87
611.78	18948.49
611.976	18977.16
612.171	19227.01
612.367	18704.78
612.562	18727.31
612.758	18569.62
612.953	18626.96
613.149	18590.09
613.344	18203.03
613.539	18737.55
613.735	18407.83
613.93	18604.43
614.126	18393.49
614.321	18184.6
614.517	18223.51
614.712	18305.43
614.907	18131.35
615.103	18162.07
615.298	18209.17
615.493	18456.98
615.688	17764.76
615.884	18760.08
616.079	17920.41
616.274	18373.01
616.47	18012.57
616.665	18110.87
616.86	17930.65
617.055	17895.83
617.25	17895.83
617.445	17836.44
617.641	17369.51
617.836	17828.25
618.031	17564.06
618.226	17895.83
618.421	17215.91
618.616	17883.55
618.811	17469.86
619.006	17674.65
619.201	17258.92
619.396	17330.59
619.591	16953.77
619.786	17445.28
619.981	16513.45
620.176	17056.17
620.371	16902.57
620.566	16662.96
620.761	16716.2
620.956	16796.07
621.151	16437.68
621.346	16478.64
621.541	16441.78
621.735	16673.2
621.93	16341.43
622.125	16259.51
622.32	16214.45
622.515	16089.53
622.709	15837.62
622.904	16060.85
623.099	15890.87
623.294	15681.98
623.488	15569.34
623.683	15870.39
623.878	15395.26
624.072	15512
624.267	15466.94
624.462	15278.53
624.656	15040.97
624.851	15172.04
625.046	15104.45
625.24	14684.62
625.435	14784.97
625.629	15133.12
625.824	14873.03
626.018	14838.22
626.213	14533.07
626.407	14565.84
626.602	14275.02
626.796	14363.09
626.991	14531.02
627.185	14430.67
627.38	13898.2
627.574	14043.6
627.768	13896.15
627.963	13961.69
628.157	13701.59
628.352	13896.15
628.546	13576.67
628.74	13691.35
628.935	13584.86
629.129	13507.04
629.323	13351.39
629.517	13355.49
629.712	13388.25
629.906	13275.62
630.1	13064.68
630.294	13287.9
630.489	13009.38
630.683	13220.32
630.877	12773.86
631.071	12737
631.265	12941.8
631.459	12882.41
631.653	12550.64
631.848	12460.52
632.042	12605.93
632.236	12487.15
632.43	12487.15
632.624	12288.5
632.818	12286.45
633.012	12108.27
633.206	12241.39
633.4	12067.31
633.594	11782.65
633.788	11999.73
633.982	11995.64
634.176	12050.93
634.369	11819.51
634.563	11768.31
634.757	11719.16
634.951	11688.44
635.145	11581.95
635.339	11846.13
635.533	11454.97
635.726	11530.75
635.92	11149.82
636.114	11131.39
636.308	11276.8
636.501	11092.48
636.695	11086.34
636.889	10947.08
637.083	10873.35
637.276	10834.44
637.47	10807.81
637.664	10723.85
637.857	10816.01
638.051	10664.46
638.244	10736.13
638.438	10684.94
638.632	10457.61
638.825	10443.28
639.019	10150.42
639.212	10328.59
639.406	10289.68
639.599	10269.2
639.793	10224.14
639.986	9859.6
640.18	9878.04
640.373	10043.92
640.567	9835.03
640.76	9888.28
640.954	9677.33
641.147	9689.62
641.34	9679.38
641.534	9546.26
641.727	9566.74
641.92	9364
642.114	9386.52
642.307	9413.15
642.5	9300.51
642.694	9124.38
642.887	9140.77
643.08	9232.93
643.273	9179.68
643.467	9079.33
643.66	8993.31
643.853	8991.27
644.046	8774.18
644.239	8968.74
644.432	8847.91
644.626	8907.3
644.819	8708.65
645.012	8589.86
645.205	8690.21
645.398	8610.34
645.591	8395.31
645.784	8370.73
645.977	8466.99
646.17	8493.61
646.363	8321.58
646.556	8073.78
646.749	8116.78
646.942	8278.57
647.135	8165.93
647.328	7887.41
647.521	8032.82
647.714	7711.28
647.907	7860.79
648.099	7830.07
648.292	7936.56
648.485	7864.88
648.678	7666.23
648.871	7711.28
649.064	7580.22
649.256	7653.94
649.449	7617.08
649.642	7500.34
649.835	7576.12
650.027	7385.66
650.22	7539.26
650.413	7404.09
650.605	7344.7
650.798	7238.2
650.991	7172.67
651.183	7262.78
651.376	7146.05
651.568	7193.15
651.761	7107.13
651.954	7043.65
652.146	7205.44
652.339	7133.76
652.531	7131.71
652.724	6990.4
652.916	6912.58
653.109	6847.04
653.301	6998.59
653.494	6730.31
653.686	6720.07
653.879	6795.84
654.071	6752.84
654.263	6623.81
654.456	6507.08
654.648	6724.16
654.84	6408.78
655.033	6455.88
655.225	6345.29
655.417	6437.45
655.61	6349.39
655.802	6500.94
655.994	6400.59
656.186	6310.47
656.379	6208.08
656.571	6236.75
656.763	6220.36
656.955	6195.79
657.148	6169.16
657.34	6103.63
657.532	5927.5
657.724	6091.34
657.916	5978.7
658.108	6081.1
658.3	5915.22
658.492	6046.29
658.684	5911.12
658.876	5878.35
659.068	5757.52
659.26	5751.38
659.452	5775.95
659.644	5730.9
659.836	5683.8
660.028	5614.16
660.22	5612.12
660.412	5714.52
660.604	5481.05
660.796	5573.21
660.988	5548.63
661.18	5499.48
661.372	5347.93
661.563	5304.92
661.755	5376.6
661.947	5284.44
662.139	5325.4
662.331	5294.68
662.522	5190.24
662.714	5288.54
662.906	5014.11
663.097	5229.15
663.289	5169.76
663.481	5136.99
663.673	5233.24
663.864	5024.35
664.056	5065.31
664.247	5118.56
664.439	4928.1
664.631	5022.3
664.822	4938.34
665.014	4975.2
665.205	4825.7
665.397	4876.9
665.588	4852.32
665.78	4883.04
665.971	4885.09
666.163	4924
666.354	4717.15
666.546	4600.42
666.737	4766.31
666.929	4751.97
667.12	4625
667.311	4690.53
667.503	4577.89
667.694	4784.74
667.885	4581.99
668.077	4651.62
668.268	4684.39
668.459	4571.75
668.651	4534.89
668.842	4508.26
669.033	4637.28
669.224	4481.64
669.416	4567.65
669.607	4432.49
669.798	4479.59
669.989	4455.01
670.18	4409.96
670.371	4395.62
670.563	4336.23
670.754	4336.23
670.945	4297.32
671.136	4268.65
671.327	4211.31
671.518	4256.36
671.709	4336.23
671.9	4319.85
672.091	4260.46
672.282	4123.24
672.473	4364.9
672.664	4182.63
672.855	4225.64
673.046	4317.8
673.237	4182.63
673.428	4264.55
673.619	4082.28
673.809	4233.83
674	4088.43
674.191	4090.48
674.382	4119.15
674.573	4059.76
674.764	4121.2
674.954	4272.75
675.145	4113
675.336	4016.75
675.527	4184.68
675.717	4141.68
675.908	3961.45
676.099	4016.75
676.289	4131.44
676.48	4029.04
676.671	4094.57
676.861	3932.78
677.052	3953.26
677.243	3994.22
677.433	4033.13
677.624	4014.7
677.814	4110.96
678.005	3938.93
678.195	4006.51
678.386	4031.09
678.576	3949.17
678.767	4020.85
678.957	3928.69
679.148	3981.93
679.338	3936.88
679.529	3926.64
679.719	3967.6
679.909	3947.12
680.1	3834.48
680.29	3990.13
680.481	3953.26
680.671	4037.23
680.861	3971.69
681.052	4082.28
681.242	3871.34
681.432	3879.54
681.622	3838.58
681.813	3986.03
682.003	3983.98
682.193	3965.55
682.383	3998.32
682.573	3998.32
682.764	3863.15
682.954	3777.14
683.144	3865.2
683.334	3826.29
683.524	3965.55
683.714	3971.69
683.904	4024.94
684.094	3955.31
684.284	3900.02
684.474	3897.97
684.664	3900.02
684.854	3973.74
685.044	3926.64
685.234	3922.54
685.424	3846.77
685.614	3842.67
685.804	3789.42
685.994	3871.34
686.184	3887.73
686.374	3895.92
686.564	3764.85
686.753	3875.44
686.943	3684.98
687.133	3750.51
687.323	3629.68
687.513	3758.71
687.702	3662.45
687.892	3717.75
688.082	3725.94
688.272	3844.72
688.461	3582.58
688.651	3738.23
688.841	3658.35
689.03	3703.41
689.22	3633.78
689.41	3598.96
689.599	3670.64
689.789	3560.05
689.979	3627.64
690.168	3562.1
690.358	3584.63
690.547	3555.96
690.737	3603.06
690.926	3582.58
691.116	3541.62
691.305	3625.59
691.495	3461.75
691.684	3531.38
691.874	3564.15
692.063	3584.63
692.252	3521.14
692.442	3447.41
692.631	3482.23
692.82	3490.42
693.01	3385.98
693.199	3328.63
693.388	3355.26
693.578	3385.98
693.767	3574.39
693.956	3465.85
694.146	3287.67
694.335	3379.83
694.524	3420.79
694.713	3484.28
694.902	3361.4
695.092	3494.52
695.281	3457.65
695.47	3390.07
695.659	3291.77
695.848	3318.39
696.037	3322.49
696.226	3304.06
696.415	3461.75
696.604	3373.69
696.793	3320.44
696.982	3269.24
697.171	3435.13
697.36	3396.21
697.549	3342.97
697.738	3318.39
697.927	3306.1
698.116	3488.37
698.305	3289.72
698.494	3332.73
698.683	3306.1
698.872	3279.48
699.061	3283.58
699.25	3361.4
699.438	3263.1
699.627	3381.88
699.816	3279.48
700.005	3285.62
700.193	3373.69
700.382	3361.4
700.571	3431.03
700.76	3259
700.948	3402.36
701.137	3302.01
701.326	3297.91
701.514	3240.57
701.703	3312.25
701.892	3271.29
702.08	3304.06
702.269	3342.97
702.457	3238.52
702.646	3320.44
702.834	3207.8
703.023	3259
703.212	3150.46
703.4	3144.31
703.589	3265.14
703.777	3254.9
703.965	3248.76
704.154	3215.99
704.342	3228.28
704.531	3254.9
704.719	3138.17
704.907	3236.47
705.096	3064.44
705.284	3115.64
705.472	3197.56
705.661	3279.48
705.849	3187.32
706.037	3211.9
706.226	3080.83
706.414	3183.23
706.602	3164.79
706.79	3142.27
706.979	3226.23
707.167	3238.52
707.355	3132.03
707.543	2980.48
707.731	3086.97
707.919	3101.31
708.107	3089.02
708.296	3291.77
708.484	3041.92
708.672	3084.92
708.86	3005.05
709.048	2964.09
709.236	2970.24
709.424	3117.69
709.612	2964.09
709.8	3019.39
709.988	3064.44
710.176	2978.43
710.364	3170.94
710.551	3046.01
710.739	2984.57
710.927	3000.96
711.115	3041.92
711.303	2957.95
711.491	3031.68
711.679	2935.42
711.866	2964.09
712.054	3048.06
712.242	3031.68
712.43	3043.96
712.617	3007.1
712.805	2927.23
712.993	2935.42
713.181	2839.17
713.368	2953.85
713.556	2960
713.744	2894.46
713.931	3066.49
714.119	2839.17
714.306	2855.55
714.494	2882.17
714.682	2888.32
714.869	2761.34
715.057	2884.22
715.244	2933.37
715.432	2847.36
715.619	2984.57
715.807	2828.93
715.994	2853.5
716.182	2880.13
716.369	2849.41
716.556	2761.34
716.744	2808.45
716.931	2765.44
717.119	2757.25
717.306	2798.21
717.493	2900.61
717.681	2783.87
717.868	2687.62
718.055	2871.93
718.242	2812.54
718.43	2673.28
718.617	2722.43
718.804	2865.79
718.991	2714.24
719.179	2749.06
719.366	2714.24
719.553	2787.97
719.74	2658.95
719.927	2648.71
720.114	2712.19
720.301	2769.54
720.488	2609.79
720.676	2728.58
720.863	2628.23
721.05	2724.48
721.237	2687.62
721.424	2800.26
721.611	2615.94
721.798	2691.71
721.985	2556.55
722.172	2673.28
722.358	2667.14
722.545	2607.75
722.732	2603.65
722.919	2681.47
723.106	2583.17
723.293	2673.28
723.48	2663.04
723.667	2583.17
723.853	2443.91
724.04	2548.36
724.227	2493.06
724.414	2501.25
724.6	2585.22
724.787	2519.68
724.974	2556.55
725.161	2497.16
725.347	2519.68
725.534	2503.3
725.72	2591.36
725.907	2468.48
726.094	2519.68
726.28	2488.96
726.467	2540.16
726.653	2437.77
726.84	2421.38
727.027	2628.23
727.213	2427.53
727.4	2632.32
727.586	2433.67
727.773	2484.87
727.959	2321.03
728.145	2370.18
728.332	2390.66
728.518	2454.15
728.705	2493.06
728.891	2398.85
729.077	2476.68
729.264	2486.92
729.45	2392.71
729.636	2497.16
729.823	2316.94
730.009	2413.19
730.195	2384.52
730.382	2368.13
730.568	2470.53
730.754	2452.1
730.94	2288.26
731.126	2394.76
731.313	2333.32
731.499	2337.41
731.685	2368.13
731.871	2167.43
732.057	2331.27
732.243	2337.41
732.429	2292.36
732.615	2196.11
732.801	2288.26
732.987	2304.65
733.173	2368.13
733.359	2390.66
733.545	2253.45
733.731	2224.78
733.917	2316.94
734.103	2257.54
734.289	2419.33
734.475	2267.78
734.661	2316.94
734.847	2271.88
735.033	2361.99
735.219	2171.53
735.404	2314.89
735.59	2263.69
735.776	2192.01
735.962	2153.1
736.148	2259.59
736.333	2206.35
736.519	2155.15
736.705	2151.05
736.89	2183.82
737.076	2171.53
737.262	2101.9
737.447	2169.48
737.633	2099.85
737.819	2198.15
738.004	2128.52
738.19	2136.71
738.375	2149
738.561	2216.58
738.747	2101.9
738.932	1995.4
739.118	2146.95
739.303	2054.8
739.489	2198.15
739.674	2099.85
739.859	2130.57
740.045	2069.13
740.23	2114.19
740.416	2089.61
740.601	2108.04
740.786	2230.92
740.972	2058.89
741.157	1946.25
741.342	1936.01
741.528	2056.84
741.713	2081.42
741.898	1997.45
742.084	1983.12
742.269	2058.89
742.454	1936.01
742.639	1983.12
742.824	2013.84
743.01	1979.02
743.195	1931.92
743.38	1954.44
743.565	1893.01
743.75	1884.81
743.935	1946.25
744.12	1989.26
744.305	1862.29
744.49	1839.76
744.675	1901.2
744.86	1811.09
745.045	1886.86
745.23	1833.61
745.415	1794.7
745.6	1843.85
745.785	1774.22
745.97	1718.93
746.155	1675.92
746.34	1909.39
746.525	1772.18
746.71	1823.37
746.895	1825.42
747.079	1737.36
747.264	1641.11
747.449	1755.79
747.634	1698.45
747.819	1675.92
748.003	1659.54
748.188	1630.87
748.373	1665.68
748.557	1690.26
748.742	1702.54
748.927	1604.24
749.111	1696.4
749.296	1559.19
749.481	1505.94
749.665	1536.66
749.85	1542.8
750.034	1571.47
750.219	1481.36
750.404	1507.99
750.588	1479.32
750.773	1405.59
750.957	1516.18
751.141	1487.51
751.326	1487.51
751.51	1438.36
751.695	1499.8
751.879	1469.08
752.064	1491.6
752.248	1389.21
752.432	1495.7
752.617	1434.26
752.801	1460.88
752.985	1450.64
753.17	1387.16
753.354	1391.25
753.538	1352.34
753.722	1340.05
753.907	1366.68
754.091	1358.49
754.275	1280.66
754.459	1305.24
754.643	1264.28
754.828	1327.77
755.012	1247.9
755.196	1284.76
755.38	1192.6
755.564	1233.56
755.748	1282.71
755.932	1274.52
756.116	1243.8
756.3	1221.27
756.484	1129.11
756.668	1122.97
756.852	1241.75
757.036	1227.42
757.22	1223.32
757.404	1245.85
757.588	1120.92
757.772	1182.36
757.956	1155.74
758.14	1155.74
758.323	1069.72
758.507	1182.36
758.691	1082.01
758.875	1047.19
759.059	1090.2
759.242	1118.87
759.426	1077.91
759.61	1153.69
759.794	1047.19
759.977	1075.87
760.161	1161.88
760.345	1131.16
760.528	1004.19
760.712	1020.57
760.895	1084.06
761.079	948.89
761.263	936.6
761.446	1049.24
761.63	1016.48
761.813	998.04
761.997	981.66
762.18	1079.96
762.364	932.51
762.547	924.32
762.731	944.8
762.914	952.99
763.098	920.22
763.281	965.28
763.464	979.61
763.648	1000.09
763.831	918.17
764.015	875.17
764.198	946.84
764.381	922.27
764.564	873.12
764.748	860.83
764.931	975.52
765.114	930.46
765.297	961.18
765.481	920.22
765.664	903.84
765.847	924.32
766.03	873.12
766.213	838.3
766.397	860.83
766.58	799.39
766.763	848.54
766.946	959.13
767.129	819.87
767.312	848.54
767.495	901.79
767.678	809.63
767.861	881.31
768.044	768.67
768.227	813.73
768.41	770.72
768.593	928.41
768.776	809.63
768.959	766.62
769.142	836.25
769.324	834.21
769.507	723.62
769.69	883.36
769.873	791.2
770.056	801.44
770.239	864.93
770.421	785.05
770.604	801.44
770.787	692.9
770.97	776.86
771.152	772.77
771.335	780.96
771.518	758.43
771.7	813.73
771.883	772.77
772.066	819.87
772.248	737.95
772.431	746.14
772.613	713.38
772.796	701.09
772.978	803.49
773.161	733.86
773.343	715.42
773.526	696.99
773.708	680.61
773.891	606.88
774.073	699.04
774.256	764.58
774.438	764.58
774.621	672.42
774.803	707.23
774.985	729.76
775.168	703.14
775.35	699.04
775.532	635.55
775.715	686.75
775.897	623.27
776.079	674.46
776.261	676.51
776.444	588.45
776.626	647.84
776.808	635.55
776.99	606.88
777.173	592.55
777.355	578.21
777.537	694.94
777.719	608.93
777.901	588.45
778.083	535.2
778.265	533.15
778.447	570.02
778.629	549.54
778.811	535.2
778.993	555.68
779.175	529.06
779.357	432.8
779.539	598.69
779.721	531.11
779.903	510.63
780.085	488.1
780.267	492.2
780.449	588.45
780.631	453.28
780.812	533.15
780.994	541.35
781.176	582.31
781.358	502.43
781.54	527.01
781.721	531.11
781.903	508.58
782.085	496.29
782.267	453.28
782.448	467.62
782.63	475.81
782.812	465.57
782.993	445.09
783.175	402.08
783.357	471.72
783.538	477.86
783.72	471.72
783.901	475.81
784.083	494.24
784.264	445.09
784.446	475.81
784.627	445.09
784.809	445.09
784.99	361.13
785.172	410.28
785.353	422.56
785.535	371.37
785.716	365.22
785.897	457.38
786.079	424.61
786.26	367.27
786.441	428.71
786.623	383.65
786.804	385.7
786.985	383.65
787.167	365.22
787.348	389.8
787.529	305.83
787.71	377.51
787.891	418.47
788.073	400.04
788.254	406.18
788.435	348.84
788.616	414.37
788.797	307.88
788.978	328.36
789.159	361.13
789.34	279.21
789.522	377.51
789.703	328.36
789.884	348.84
790.065	287.4
790.246	367.27
790.427	412.32
790.607	379.56
790.788	332.45
790.969	283.3
791.15	393.89
791.331	328.36
791.512	293.54
791.693	277.16
791.874	287.4
792.054	295.59
792.235	359.08
792.416	309.93
792.597	279.21
792.778	254.63
792.958	266.92
793.139	299.69
793.32	318.12
793.5	291.49
793.681	326.31
793.862	295.59
794.042	275.11
794.223	256.68
794.404	297.64
794.584	258.73
794.765	287.4
794.945	287.4
795.126	293.54
795.306	268.97
795.487	311.97
795.667	223.91
795.848	334.5
796.028	256.68
796.209	309.93
796.389	236.2
796.57	287.4
796.75	264.87
796.93	316.07
797.111	238.25
797.291	260.77
797.471	262.82
797.652	234.15
797.832	246.44
798.012	250.53
798.192	225.96
798.373	211.62
798.553	221.86
798.733	258.73
798.913	232.1
799.093	225.96
799.274	223.91
799.454	213.67
799.634	250.53
799.814	338.6
799.994	234.15
800.174	273.06
800.354	242.34
800.534	240.3
800.714	203.43
800.894	211.62
801.074	295.59
801.254	223.91
801.434	285.35
801.614	326.31
801.794	230.06
801.974	545.44
802.154	197.29
802.334	209.58
802.514	215.72
802.693	207.53
802.873	166.57
803.053	213.67
803.233	223.91
803.413	285.35
803.592	199.34
803.772	191.14
803.952	244.39
804.131	180.9
804.311	141.99
804.491	189.1
804.67	119.46
804.85	246.44
805.03	197.29
805.209	221.86
805.389	174.76
805.568	158.38
805.748	199.34
805.928	236.2
806.107	154.28
806.287	191.14
806.466	154.28
806.646	217.77
806.825	160.42
807.004	223.91
807.184	232.1
807.363	230.06
807.543	187.05
807.722	234.15
807.901	162.47
808.081	199.34
808.26	123.56
808.439	164.52
808.619	125.61
808.798	170.66
808.977	225.96
809.156	182.95
809.336	137.9
809.515	209.58
809.694	123.56
809.873	225.96
810.052	199.34
810.231	182.95
810.411	199.34
810.59	125.61
810.769	117.42
810.948	141.99
811.127	205.48
811.306	176.81
811.485	139.94
811.664	191.14
811.843	148.14
812.022	266.92
812.201	160.42
812.38	139.94
812.559	60.07
812.737	113.32
812.916	111.27
813.095	197.29
813.274	146.09
813.453	248.49
813.632	135.85
813.811	109.23
813.989	78.51
814.168	141.99
814.347	123.56
814.526	86.7
814.704	166.57
814.883	211.62
815.062	146.09
815.24	117.42
815.419	62.12
815.598	191.14
815.776	135.85
815.955	201.38
816.133	111.27
816.312	191.14
816.49	193.19
816.669	170.66
816.847	141.99
817.026	162.47
817.204	123.56
817.383	189.1
817.561	139.94
817.74	90.79
817.918	174.76
818.097	78.51
818.275	105.13
818.453	105.13
818.632	146.09
818.81	185
818.988	135.85
819.167	139.94
819.345	98.99
819.523	98.99
819.701	172.71
819.879	86.7
820.058	105.13
820.236	125.61
820.414	146.09
820.592	174.76
820.77	119.46
820.948	92.84
821.127	117.42
821.305	90.79
821.483	66.22
821.661	217.77
821.839	166.57
822.017	72.36
822.195	144.04
822.373	113.32
822.551	121.51
822.729	141.99
822.907	86.7
823.085	113.32
823.262	101.03
823.44	131.75
823.618	86.7
823.796	125.61
823.974	82.6
824.152	160.42
824.329	86.7
824.507	101.03
824.685	68.27
824.863	164.52
825.04	129.7
825.218	117.42
825.396	123.56
825.574	109.23
825.751	94.89
825.929	141.99
826.107	150.18
826.284	41.64
826.462	62.12
826.639	60.07
826.817	31.4
826.994	115.37
827.172	66.22
827.349	92.84
827.527	88.75
827.704	135.85
827.882	90.79
828.059	31.4
828.237	92.84
828.414	115.37
828.591	90.79
828.769	105.13
828.946	107.18
829.124	131.75
829.301	107.18
829.478	131.75
829.655	55.98
829.833	107.18
830.01	49.83
830.187	107.18
830.364	10.92
830.542	137.9
830.719	121.51
830.896	96.94
831.073	127.66
831.25	96.94
831.427	96.94
831.604	115.37
831.782	152.23
831.959	82.6
832.136	47.79
832.313	55.98
832.49	-5.46
832.667	64.17
832.844	119.46
833.021	90.79
833.198	10.92
833.374	27.31
833.551	113.32
833.728	60.07
833.905	-1.37
834.082	41.64
834.259	62.12
834.436	168.62
834.612	74.41
834.789	105.13
834.966	86.7
835.143	103.08
835.319	74.41
835.496	70.31
835.673	94.89
835.85	72.36
836.026	49.83
836.203	78.51
836.38	111.27
836.556	109.23
836.733	53.93
836.909	135.85
837.086	23.21
837.262	58.03
837.439	43.69
837.616	35.5
837.792	39.59
837.968	55.98
838.145	88.75
838.321	55.98
838.498	25.26
838.674	105.13
838.851	82.6
839.027	62.12
839.203	43.69
839.38	107.18
839.556	43.69
839.732	92.84
839.909	90.79
840.085	94.89
840.261	62.12
840.437	39.59
840.614	10.92
840.79	127.66
840.966	84.65
841.142	68.27
841.318	72.36
841.494	51.88
841.671	-32.08
841.847	4.78
842.023	19.11
842.199	60.07
842.375	90.79
842.551	49.83
842.727	31.4
842.903	35.5
843.079	84.65
843.255	80.55
843.431	105.13
843.607	39.59
843.783	17.07
843.959	68.27
844.134	88.75
844.31	51.88
844.486	41.64
844.662	25.26
844.838	78.51
845.013	27.31
845.189	55.98
845.365	31.4
845.541	23.21
845.716	76.46
845.892	90.79
846.068	74.41
846.244	62.12
846.419	55.98
846.595	45.74
846.77	90.79
846.946	-21.85
847.122	-17.75
847.297	10.92
847.473	60.07
847.648	74.41
847.824	-17.75
847.999	0.68
848.175	35.5
848.35	27.31
848.526	0.68
848.701	82.6
848.876	72.36
849.052	58.03
849.227	29.35
849.403	88.75
849.578	96.94
849.753	6.83
849.929	101.03
850.104	35.5
850.279	101.03
850.454	43.69
850.63	25.26
850.805	47.79
850.98	39.59
851.155	84.65
851.33	2.73
851.505	51.88
851.681	86.7
851.856	17.07
852.031	74.41
852.206	123.56
852.381	25.26
852.556	19.11
852.731	45.74
852.906	76.46
853.081	27.31
853.256	45.74
853.431	33.45
853.606	47.79
853.781	25.26
853.956	35.5
854.131	47.79
854.305	64.17
854.48	2.73
854.655	19.11
854.83	62.12
855.005	107.18
855.18	12.97
855.354	-30.04
855.529	29.35
855.704	27.31
855.879	119.46
856.053	62.12
856.228	92.84
856.403	27.31
856.577	64.17
856.752	15.02
856.926	-56.66
857.101	64.17
857.276	55.98
857.45	47.79
857.625	43.69
857.799	105.13
857.974	84.65
858.148	19.11
858.323	25.26
858.497	47.79
858.672	10.92
858.846	68.27
859.02	33.45
859.195	25.26
859.369	33.45
859.543	43.69
859.718	43.69
859.892	41.64
860.066	60.07
860.241	15.02
860.415	129.7
860.589	0.68
860.763	0.68
860.938	82.6
861.112	94.89
861.286	15.02
861.46	72.36
861.634	64.17
861.808	101.03
861.982	-9.56
862.157	64.17
862.331	8.87
862.505	35.5
862.679	-11.61
862.853	41.64
863.027	-27.99
863.201	0.68
863.375	27.31
863.549	76.46
863.722	23.21
863.896	49.83
864.07	82.6
864.244	66.22
864.418	21.16
864.592	82.6
864.766	47.79
864.939	-38.23
865.113	64.17
865.287	68.27
865.461	-19.8
865.634	80.55
865.808	49.83
865.982	80.55
866.156	51.88
866.329	21.16
866.503	41.64
866.676	41.64
866.85	47.79
867.024	31.4
867.197	17.07
867.371	6.83
867.544	31.4
867.718	41.64
867.891	43.69
868.065	-21.85
868.238	-50.52
868.412	-5.46
868.585	-32.08
868.759	37.55
868.932	-34.13
869.105	25.26
869.279	39.59
869.452	6.83
869.625	123.56
869.799	4.78
869.972	-32.08
870.145	-40.28
870.319	45.74
870.492	35.5
870.665	23.21
870.838	10.92
871.011	47.79
871.185	49.83
871.358	2.73
871.531	68.27
871.704	12.97
871.877	35.5
872.05	53.93
872.223	-15.7
872.396	90.79
872.569	109.23
872.742	19.11
872.915	84.65
873.088	-48.47
873.261	96.94
873.434	-13.65
873.607	92.84
873.78	109.23
873.953	-71
874.126	49.83
874.299	25.26
874.471	-30.04
874.644	12.97
874.817	121.51
874.99	37.55
875.163	98.99
875.335	41.64
875.508	27.31
875.681	17.07
875.853	68.27
876.026	101.03
876.199	2.73
876.371	23.21
876.544	60.07
876.717	21.16
876.889	90.79
877.062	35.5
877.234	43.69
877.407	-40.28
877.579	19.11
877.752	-58.71
877.924	55.98
878.097	27.31
878.269	-1.37
878.442	-32.08
878.614	70.31
878.786	17.07
878.959	43.69
879.131	-13.65
879.303	-1.37
879.476	23.21
879.648	25.26
879.82	6.83
879.993	47.79
880.165	51.88
880.337	-34.13
880.509	101.03
880.681	-27.99
880.854	-7.51
881.026	-27.99
881.198	58.03
881.37	-7.51
881.542	86.7
881.714	-71
881.886	12.97
882.058	19.11
882.23	66.22
882.402	70.31
882.574	19.11
882.746	29.35
882.918	19.11
883.09	80.55
883.262	49.83
883.434	86.7
883.606	2.73
883.778	17.07
883.95	76.46
884.122	21.16
884.293	-25.94
884.465	-40.28
884.637	41.64
884.809	92.84
884.98	33.45
885.152	-1.37
885.324	51.88
885.496	41.64
885.667	33.45
885.839	-1.37
886.011	70.31
886.182	43.69
886.354	0.68
886.525	49.83
886.697	21.16
886.869	-3.41
887.04	-1.37
887.212	94.89
887.383	-3.41
887.555	19.11
887.726	12.97
887.897	-62.8
888.069	-58.71
888.24	51.88
888.412	55.98
888.583	6.83
888.754	35.5
888.926	25.26
889.097	47.79
889.268	0.68
889.44	96.94
889.611	-32.08
889.782	-1.37
889.953	23.21
890.125	17.07
890.296	21.16
890.467	49.83
890.638	-13.65
890.809	35.5
890.98	27.31
891.151	2.73
891.323	-36.18
891.494	80.55
891.665	15.02
891.836	41.64
892.007	33.45
892.178	15.02
892.349	64.17
892.52	10.92
892.691	-42.32
892.862	29.35
893.032	-9.56
893.203	-1.37
893.374	6.83
893.545	31.4
893.716	66.22
893.887	88.75
894.057	72.36
894.228	10.92
894.399	41.64
894.57	60.07
894.74	-27.99
894.911	53.93
895.082	10.92
895.253	-46.42
895.423	86.7
895.594	10.92
895.764	-68.95
895.935	19.11
896.106	25.26
896.276	-13.65
896.447	-34.13
896.617	-9.56
896.788	10.92
896.958	76.46
897.129	51.88
897.299	23.21
897.47	47.79
897.64	43.69
897.81	-19.8
897.981	2.73
898.151	53.93
898.322	25.26
898.492	82.6
898.662	43.69
898.832	-32.08
899.003	31.4
899.173	-7.51
899.343	4.78
899.513	6.83
