Data from USB4F104151__36__12-35-45-620.txt Node

Date: Fri Mar 14 12:35:45 EDT 2025
User: louis
Spectrometer: USB4F10415
Trigger mode: 4
Integration Time (sec): 2.000000E-2
Scans to average: 1
Electric dark correction enabled: true
Nonlinearity correction enabled: false
Boxcar width: 0
XAxis mode: Wavelengths
Number of Pixels in Spectrum: 3648
>>>>>Begin Spectral Data<<<<<
178.204	-60.24
178.424	-60.24
178.644	-60.24
178.864	-109.4
179.084	-101.2
179.304	-50
179.524	25.77
179.744	-103.25
179.964	60.59
180.184	-47.96
180.404	5.29
180.624	-41.81
180.844	70.83
181.064	-7
181.283	25.77
181.503	1.19
181.723	60.59
181.943	-62.29
182.163	58.54
182.383	38.06
182.602	17.58
182.822	101.55
183.042	60.59
183.262	-95.06
183.482	5.29
183.701	-13.14
183.921	23.72
184.141	-33.62
184.361	-33.62
184.58	7.34
184.8	40.11
185.02	-37.72
185.239	44.2
185.459	-13.14
185.679	70.83
185.898	-25.43
186.118	23.72
186.338	29.87
186.557	64.68
186.777	-25.43
186.997	21.67
187.216	56.49
187.436	72.87
187.655	29.87
187.875	-56.15
188.095	-60.24
188.314	48.3
188.534	54.44
188.753	27.82
188.973	46.25
189.192	74.92
189.412	-39.76
189.631	58.54
189.851	-39.76
190.07	19.63
190.29	-17.24
190.509	38.06
190.729	64.68
190.948	13.48
191.168	38.06
191.387	122.02
191.607	79.02
191.826	-19.29
192.045	-29.52
192.265	11.43
192.484	52.39
192.704	-9.05
192.923	-37.72
193.142	52.39
193.362	9.39
193.581	17.58
193.8	56.49
194.02	-29.52
194.239	-0.85
194.458	-0.85
194.678	21.67
194.897	33.96
195.116	5.29
195.335	1.19
195.555	36.01
195.774	29.87
195.993	60.59
196.212	-39.76
196.432	29.87
196.651	-4.95
196.87	9.39
197.089	21.67
197.308	-4.95
197.528	70.83
197.747	-17.24
197.966	60.59
198.185	36.01
198.404	29.87
198.623	72.87
198.842	-25.43
199.062	11.43
199.281	11.43
199.5	15.53
199.719	-17.24
199.938	50.35
200.157	-13.14
200.376	83.11
200.595	-21.33
200.814	5.29
201.033	31.91
201.252	60.59
201.471	42.15
201.69	-0.85
201.909	-15.19
202.128	60.59
202.347	64.68
202.566	23.72
202.785	-43.86
203.004	-39.76
203.223	103.59
203.442	85.16
203.661	-7
203.879	42.15
204.098	-17.24
204.317	-47.96
204.536	-25.43
204.755	3.24
204.974	-33.62
205.193	21.67
205.411	68.78
205.63	115.88
205.849	11.43
206.068	-15.19
206.287	-25.43
206.505	-15.19
206.724	1.19
206.943	23.72
207.162	15.53
207.381	70.83
207.599	36.01
207.818	79.02
208.037	52.39
208.255	-25.43
208.474	15.53
208.693	36.01
208.911	5.29
209.13	-17.24
209.349	66.73
209.567	44.2
209.786	44.2
210.005	-39.76
210.223	-31.57
210.442	-54.1
210.661	31.91
210.879	76.97
211.098	11.43
211.316	83.11
211.535	17.58
211.753	-0.85
211.972	-21.33
212.191	-95.06
212.409	-29.52
212.628	81.07
212.846	-27.48
213.065	-7
213.283	87.21
213.502	-13.14
213.72	33.96
213.938	-11.09
214.157	-47.96
214.375	-25.43
214.594	27.82
214.812	21.67
215.031	79.02
215.249	29.87
215.467	-9.05
215.686	29.87
215.904	44.2
216.122	-66.39
216.341	27.82
216.559	58.54
216.778	7.34
216.996	-4.95
217.214	64.68
217.432	-19.29
217.651	72.87
217.869	44.2
218.087	-11.09
218.306	-41.81
218.524	17.58
218.742	7.34
218.96	25.77
219.179	-2.9
219.397	-15.19
219.615	111.78
219.833	23.72
220.051	-4.95
220.27	13.48
220.488	19.63
220.706	-37.72
220.924	3.24
221.142	-9.05
221.36	17.58
221.578	-21.33
221.796	-2.9
222.015	44.2
222.233	103.59
222.451	7.34
222.669	-41.81
222.887	70.83
223.105	5.29
223.323	46.25
223.541	-33.62
223.759	60.59
223.977	-13.14
224.195	91.31
224.413	44.2
224.631	19.63
224.849	76.97
225.067	46.25
225.285	-33.62
225.503	-13.14
225.721	-4.95
225.939	-4.95
226.157	42.15
226.375	105.64
226.592	-33.62
226.81	-15.19
227.028	-11.09
227.246	33.96
227.464	56.49
227.682	79.02
227.9	52.39
228.117	91.31
228.335	87.21
228.553	42.15
228.771	-13.14
228.989	-2.9
229.206	1.19
229.424	38.06
229.642	-11.09
229.86	-0.85
230.077	95.4
230.295	91.31
230.513	-4.95
230.731	66.73
230.948	1.19
231.166	38.06
231.384	-23.38
231.601	44.2
231.819	-21.33
232.037	79.02
232.254	25.77
232.472	21.67
232.689	52.39
232.907	5.29
233.125	56.49
233.342	-29.52
233.56	9.39
233.777	-45.91
233.995	29.87
234.213	15.53
234.43	19.63
234.648	21.67
234.865	-15.19
235.083	103.59
235.3	-15.19
235.518	46.25
235.735	-21.33
235.953	-25.43
236.17	17.58
236.388	-15.19
236.605	7.34
236.822	7.34
237.04	25.77
237.257	19.63
237.475	48.3
237.692	66.73
237.909	36.01
238.127	29.87
238.344	-0.85
238.562	-13.14
238.779	19.63
238.996	23.72
239.214	9.39
239.431	1.19
239.648	40.11
239.865	54.44
240.083	29.87
240.3	36.01
240.517	-33.62
240.735	23.72
240.952	-45.91
241.169	58.54
241.386	29.87
241.603	-27.48
241.821	29.87
242.038	48.3
242.255	-39.76
242.472	27.82
242.689	38.06
242.907	74.92
243.124	89.26
243.341	-50
243.558	-27.48
243.775	46.25
243.992	-43.86
244.209	83.11
244.426	46.25
244.643	17.58
244.86	-0.85
245.078	-4.95
245.295	-2.9
245.512	-19.29
245.729	-37.72
245.946	50.35
246.163	-41.81
246.38	40.11
246.597	36.01
246.814	-7
247.031	-29.52
247.248	87.21
247.464	109.74
247.681	44.2
247.898	19.63
248.115	85.16
248.332	29.87
248.549	-39.76
248.766	23.72
248.983	56.49
249.2	9.39
249.417	13.48
249.633	33.96
249.85	72.87
250.067	48.3
250.284	74.92
250.501	40.11
250.717	48.3
250.934	27.82
251.151	5.29
251.368	48.3
251.585	46.25
251.801	-17.24
252.018	5.29
252.235	-9.05
252.451	9.39
252.668	66.73
252.885	48.3
253.102	-9.05
253.318	-13.14
253.535	31.91
253.752	25.77
253.968	36.01
254.185	-17.24
254.401	81.07
254.618	1.19
254.835	72.87
255.051	38.06
255.268	50.35
255.484	31.91
255.701	54.44
255.917	46.25
256.134	-43.86
256.351	56.49
256.567	52.39
256.784	54.44
257	-50
257.217	27.82
257.433	5.29
257.65	33.96
257.866	13.48
258.082	36.01
258.299	-33.62
258.515	42.15
258.732	40.11
258.948	38.06
259.165	-0.85
259.381	27.82
259.597	11.43
259.814	19.63
260.03	5.29
260.246	31.91
260.463	36.01
260.679	56.49
260.895	33.96
261.112	60.59
261.328	7.34
261.544	11.43
261.761	21.67
261.977	-35.67
262.193	23.72
262.409	46.25
262.626	13.48
262.842	-13.14
263.058	-0.85
263.274	27.82
263.49	-35.67
263.707	56.49
263.923	5.29
264.139	27.82
264.355	40.11
264.571	7.34
264.787	-50
265.004	9.39
265.22	81.07
265.436	46.25
265.652	62.63
265.868	42.15
266.084	13.48
266.3	-19.29
266.516	19.63
266.732	76.97
266.948	-11.09
267.164	64.68
267.38	15.53
267.596	48.3
267.812	-11.09
268.028	62.63
268.244	19.63
268.46	-29.52
268.676	62.63
268.892	29.87
269.108	-31.57
269.324	38.06
269.54	-0.85
269.756	97.45
269.972	23.72
270.188	9.39
270.403	56.49
270.619	-19.29
270.835	66.73
271.051	115.88
271.267	27.82
271.483	-35.67
271.698	56.49
271.914	-39.76
272.13	7.34
272.346	40.11
272.562	64.68
272.777	17.58
272.993	60.59
273.209	-4.95
273.425	62.63
273.64	17.58
273.856	85.16
274.072	15.53
274.287	11.43
274.503	27.82
274.719	38.06
274.934	50.35
275.15	-21.33
275.366	11.43
275.581	-0.85
275.797	27.82
276.012	40.11
276.228	54.44
276.444	38.06
276.659	81.07
276.875	-64.34
277.09	15.53
277.306	44.2
277.521	44.2
277.737	21.67
277.952	38.06
278.168	93.35
278.383	-35.67
278.599	46.25
278.814	42.15
279.03	36.01
279.245	85.16
279.461	29.87
279.676	-27.48
279.892	38.06
280.107	46.25
280.322	25.77
280.538	17.58
280.753	44.2
280.969	-17.24
281.184	40.11
281.399	33.96
281.615	-15.19
281.83	-17.24
282.045	58.54
282.26	-21.33
282.476	27.82
282.691	-43.86
282.906	-37.72
283.122	42.15
283.337	-17.24
283.552	21.67
283.767	-2.9
283.983	126.12
284.198	54.44
284.413	85.16
284.628	-72.53
284.843	7.34
285.058	64.68
285.274	-23.38
285.489	-35.67
285.704	-35.67
285.919	-19.29
286.134	-9.05
286.349	33.96
286.564	38.06
286.779	42.15
286.995	50.35
287.21	1.19
287.425	79.02
287.64	-9.05
287.855	42.15
288.07	36.01
288.285	103.59
288.5	19.63
288.715	83.11
288.93	42.15
289.145	95.4
289.36	19.63
289.575	68.78
289.79	99.5
290.004	15.53
290.219	-21.33
290.434	-4.95
290.649	-17.24
290.864	-60.24
291.079	21.67
291.294	-23.38
291.509	-15.19
291.724	7.34
291.938	9.39
292.153	40.11
292.368	36.01
292.583	83.11
292.798	31.91
293.012	128.17
293.227	46.25
293.442	50.35
293.657	42.15
293.871	76.97
294.086	46.25
294.301	62.63
294.516	68.78
294.73	33.96
294.945	44.2
295.16	-15.19
295.374	-2.9
295.589	42.15
295.804	54.44
296.018	40.11
296.233	11.43
296.447	-29.52
296.662	13.48
296.877	-4.95
297.091	50.35
297.306	-13.14
297.52	-35.67
297.735	13.48
297.949	40.11
298.164	-7
298.378	-17.24
298.593	-23.38
298.807	-21.33
299.022	36.01
299.236	25.77
299.451	11.43
299.665	66.73
299.88	-45.91
300.094	23.72
300.309	-45.91
300.523	29.87
300.737	27.82
300.952	19.63
301.166	40.11
301.381	-23.38
301.595	36.01
301.809	21.67
302.024	13.48
302.238	23.72
302.452	40.11
302.667	54.44
302.881	93.35
303.095	85.16
303.309	-0.85
303.524	52.39
303.738	42.15
303.952	-68.44
304.166	40.11
304.381	-31.57
304.595	60.59
304.809	62.63
305.023	19.63
305.237	17.58
305.452	62.63
305.666	25.77
305.88	72.87
306.094	23.72
306.308	38.06
306.522	74.92
306.736	62.63
306.95	58.54
307.164	23.72
307.379	33.96
307.593	146.6
307.807	27.82
308.021	1.19
308.235	56.49
308.449	19.63
308.663	60.59
308.877	58.54
309.091	54.44
309.305	93.35
309.519	38.06
309.733	11.43
309.947	-15.19
310.161	-0.85
310.374	7.34
310.588	68.78
310.802	-35.67
311.016	13.48
311.23	7.34
311.444	-13.14
311.658	11.43
311.872	93.35
312.085	19.63
312.299	87.21
312.513	87.21
312.727	72.87
312.941	-35.67
313.154	38.06
313.368	9.39
313.582	81.07
313.796	7.34
314.009	5.29
314.223	60.59
314.437	-7
314.651	7.34
314.864	31.91
315.078	29.87
315.292	56.49
315.505	5.29
315.719	21.67
315.933	29.87
316.146	36.01
316.36	-0.85
316.573	38.06
316.787	83.11
317.001	52.39
317.214	13.48
317.428	29.87
317.641	79.02
317.855	124.07
318.068	44.2
318.282	29.87
318.495	48.3
318.709	46.25
318.922	-27.48
319.136	-52.05
319.349	83.11
319.563	79.02
319.776	38.06
319.99	50.35
320.203	13.48
320.417	56.49
320.63	46.25
320.843	-7
321.057	1.19
321.27	11.43
321.483	-4.95
321.697	81.07
321.91	19.63
322.124	-11.09
322.337	83.11
322.55	31.91
322.763	85.16
322.977	52.39
323.19	-29.52
323.403	-2.9
323.617	70.83
323.83	74.92
324.043	38.06
324.256	40.11
324.469	21.67
324.683	36.01
324.896	87.21
325.109	3.24
325.322	5.29
325.535	74.92
325.748	60.59
325.962	17.58
326.175	76.97
326.388	146.6
326.601	29.87
326.814	17.58
327.027	50.35
327.24	72.87
327.453	-17.24
327.666	54.44
327.879	33.96
328.092	58.54
328.305	-4.95
328.518	50.35
328.731	-9.05
328.944	9.39
329.157	42.15
329.37	-21.33
329.583	15.53
329.796	38.06
330.009	7.34
330.222	54.44
330.435	17.58
330.648	54.44
330.861	-2.9
331.073	40.11
331.286	31.91
331.499	36.01
331.712	46.25
331.925	-29.52
332.138	19.63
332.35	60.59
332.563	60.59
332.776	56.49
332.989	44.2
333.202	89.26
333.414	-21.33
333.627	60.59
333.84	5.29
334.053	29.87
334.265	48.3
334.478	9.39
334.691	52.39
334.903	101.55
335.116	52.39
335.329	113.83
335.541	15.53
335.754	44.2
335.966	19.63
336.179	85.16
336.392	36.01
336.604	-31.57
336.817	46.25
337.029	33.96
337.242	-15.19
337.454	70.83
337.667	31.91
337.88	50.35
338.092	62.63
338.305	60.59
338.517	-2.9
338.729	23.72
338.942	81.07
339.154	42.15
339.367	21.67
339.579	42.15
339.792	17.58
340.004	46.25
340.217	54.44
340.429	17.58
340.641	-64.34
340.854	33.96
341.066	-23.38
341.278	50.35
341.491	-25.43
341.703	48.3
341.915	74.92
342.128	62.63
342.34	23.72
342.552	89.26
342.764	-47.96
342.977	-25.43
343.189	-15.19
343.401	11.43
343.613	52.39
343.826	50.35
344.038	-9.05
344.25	36.01
344.462	62.63
344.674	74.92
344.886	33.96
345.099	-9.05
345.311	-76.63
345.523	38.06
345.735	21.67
345.947	50.35
346.159	42.15
346.371	33.96
346.583	46.25
346.795	33.96
347.007	36.01
347.219	-11.09
347.431	95.4
347.643	85.16
347.855	9.39
348.067	33.96
348.279	-15.19
348.491	-27.48
348.703	42.15
348.915	7.34
349.127	19.63
349.339	-21.33
349.551	91.31
349.763	52.39
349.975	31.91
350.187	9.39
350.399	79.02
350.61	42.15
350.822	3.24
351.034	66.73
351.246	105.64
351.458	23.72
351.669	58.54
351.881	91.31
352.093	-76.63
352.305	3.24
352.517	-58.2
352.728	46.25
352.94	40.11
353.152	-2.9
353.363	50.35
353.575	99.5
353.787	62.63
353.999	83.11
354.21	79.02
354.422	66.73
354.633	7.34
354.845	11.43
355.057	62.63
355.268	68.78
355.48	1.19
355.692	44.2
355.903	64.68
356.115	21.67
356.326	11.43
356.538	72.87
356.749	7.34
356.961	17.58
357.172	23.72
357.384	52.39
357.595	87.21
357.807	48.3
358.018	-9.05
358.23	52.39
358.441	89.26
358.653	-23.38
358.864	-13.14
359.075	11.43
359.287	3.24
359.498	64.68
359.709	101.55
359.921	103.59
360.132	29.87
360.344	-19.29
360.555	31.91
360.766	109.74
360.977	56.49
361.189	70.83
361.4	66.73
361.611	38.06
361.823	58.54
362.034	36.01
362.245	1.19
362.456	31.91
362.667	11.43
362.879	99.5
363.09	25.77
363.301	-11.09
363.512	70.83
363.723	44.2
363.935	91.31
364.146	89.26
364.357	-2.9
364.568	40.11
364.779	-37.72
364.99	9.39
365.201	54.44
365.412	31.91
365.623	-9.05
365.834	-13.14
366.045	31.91
366.256	48.3
366.467	87.21
366.678	13.48
366.889	-2.9
367.1	74.92
367.311	136.36
367.522	68.78
367.733	68.78
367.944	38.06
368.155	15.53
368.366	33.96
368.577	138.41
368.788	68.78
368.999	-80.72
369.209	54.44
369.42	72.87
369.631	83.11
369.842	15.53
370.053	17.58
370.264	70.83
370.474	17.58
370.685	-80.72
370.896	46.25
371.107	97.45
371.317	17.58
371.528	79.02
371.739	99.5
371.95	-19.29
372.16	54.44
372.371	42.15
372.582	130.22
372.792	99.5
373.003	60.59
373.214	-4.95
373.424	42.15
373.635	48.3
373.846	29.87
374.056	31.91
374.267	72.87
374.477	95.4
374.688	11.43
374.898	42.15
375.109	50.35
375.319	29.87
375.53	68.78
375.74	27.82
375.951	-17.24
376.161	23.72
376.372	42.15
376.582	62.63
376.793	19.63
377.003	-17.24
377.214	54.44
377.424	27.82
377.635	38.06
377.845	7.34
378.055	107.69
378.266	-45.91
378.476	72.87
378.686	56.49
378.897	115.88
379.107	60.59
379.317	74.92
379.528	46.25
379.738	62.63
379.948	-11.09
380.158	17.58
380.369	27.82
380.579	62.63
380.789	-2.9
380.999	27.82
381.21	40.11
381.42	150.7
381.63	7.34
381.84	44.2
382.05	48.3
382.261	134.31
382.471	97.45
382.681	-21.33
382.891	21.67
383.101	97.45
383.311	25.77
383.521	25.77
383.731	54.44
383.941	101.55
384.151	101.55
384.361	64.68
384.571	40.11
384.781	119.98
384.991	101.55
385.201	150.7
385.411	44.2
385.621	-11.09
385.831	48.3
386.041	64.68
386.251	-19.29
386.461	115.88
386.671	1.19
386.881	11.43
387.091	-4.95
387.301	83.11
387.511	54.44
387.72	-9.05
387.93	44.2
388.14	17.58
388.35	89.26
388.56	79.02
388.769	109.74
388.979	54.44
389.189	25.77
389.399	93.35
389.609	175.27
389.818	-27.48
390.028	23.72
390.238	81.07
390.447	62.63
390.657	83.11
390.867	7.34
391.076	74.92
391.286	87.21
391.496	44.2
391.705	79.02
391.915	89.26
392.125	122.02
392.334	89.26
392.544	52.39
392.753	85.16
392.963	21.67
393.172	44.2
393.382	105.64
393.591	122.02
393.801	-23.38
394.01	130.22
394.22	89.26
394.429	93.35
394.639	33.96
394.848	70.83
395.058	44.2
395.267	146.6
395.477	54.44
395.686	107.69
395.895	85.16
396.105	111.78
396.314	60.59
396.524	15.53
396.733	119.98
396.942	169.13
397.152	68.78
397.361	31.91
397.57	101.55
397.78	13.48
397.989	25.77
398.198	122.02
398.407	130.22
398.617	89.26
398.826	91.31
399.035	38.06
399.244	64.68
399.453	97.45
399.663	74.92
399.872	115.88
400.081	81.07
400.29	148.65
400.499	74.92
400.708	111.78
400.917	103.59
401.127	56.49
401.336	79.02
401.545	126.12
401.754	140.46
401.963	124.07
402.172	101.55
402.381	111.78
402.59	169.13
402.799	124.07
403.008	85.16
403.217	142.5
403.426	181.42
403.635	50.35
403.844	132.26
404.053	97.45
404.262	124.07
404.471	183.46
404.68	134.31
404.888	197.8
405.097	85.16
405.306	183.46
405.515	111.78
405.724	87.21
405.933	208.04
406.142	167.08
406.35	167.08
406.559	156.84
406.768	167.08
406.977	203.94
407.185	257.19
407.394	183.46
407.603	181.42
407.812	189.61
408.02	296.1
408.229	249
408.438	142.5
408.646	197.8
408.855	210.09
409.064	314.53
409.272	195.75
409.481	236.71
409.69	308.39
409.898	259.24
410.107	285.86
410.315	257.19
410.524	234.66
410.733	345.25
410.941	298.15
411.15	355.49
411.358	341.16
411.567	423.08
411.775	298.15
411.984	320.68
412.192	388.26
412.401	339.11
412.609	472.23
412.818	363.69
413.026	421.03
413.234	488.61
413.443	486.56
413.651	523.43
413.86	441.51
414.068	548
414.276	578.72
414.485	554.15
414.693	578.72
414.901	648.35
415.11	699.55
415.318	607.39
415.526	631.97
415.734	689.31
415.943	744.61
416.151	758.94
416.359	746.66
416.567	752.8
416.776	847.01
416.984	844.96
417.192	851.1
417.4	908.44
417.608	818.33
417.817	847.01
418.025	969.88
418.233	1043.61
418.441	994.46
418.649	1160.34
418.857	1098.91
419.065	1213.59
419.273	1238.17
419.481	1242.26
419.689	1340.57
419.897	1346.71
420.105	1350.81
420.313	1500.31
420.521	1438.87
420.729	1555.6
420.937	1541.27
421.145	1655.95
421.353	1707.15
421.561	1803.41
421.769	1713.3
421.977	1823.89
422.185	1860.75
422.393	2012.3
422.601	2059.4
422.809	2000.01
423.017	2004.11
423.224	2067.6
423.432	2217.1
423.64	2184.33
423.848	2376.84
424.056	2440.33
424.263	2536.58
424.471	2589.83
424.679	2614.4
424.887	2837.63
425.094	2872.45
425.302	2825.34
425.51	2925.69
425.718	3038.33
425.925	3046.52
426.133	3175.55
426.341	3404.92
426.548	3591.28
426.756	3466.36
426.964	3597.43
427.171	3648.63
427.379	3923.05
427.586	4021.36
427.794	4021.36
428.001	4320.36
428.209	4471.91
428.417	4394.09
428.624	4641.89
428.832	4543.59
429.039	4662.37
429.247	4676.71
429.454	4990.05
429.662	5399.64
429.869	5078.11
430.076	5549.14
430.284	5135.45
430.491	5524.57
430.699	5696.6
430.906	5880.91
431.114	5837.91
431.321	6192.2
431.528	6319.18
431.736	6759.49
431.943	6825.03
432.15	6624.33
432.358	6761.54
432.565	7117.89
432.772	7136.32
432.979	7429.18
433.187	7668.79
433.394	7695.41
433.601	8090.67
433.808	8256.56
434.016	7947.31
434.223	8565.8
434.43	8889.38
434.637	8821.8
434.844	9509.91
435.052	9575.45
435.259	9493.53
435.466	9616.41
435.673	9688.09
435.88	10005.52
436.087	10746.89
436.294	10695.69
436.501	10359.82
436.708	10667.02
436.915	10871.81
437.122	11408.38
437.329	11414.52
437.537	11838.45
437.743	11912.18
437.95	11817.97
438.157	12608.49
438.364	12995.56
438.571	12919.78
438.778	12831.72
438.985	14087.12
439.192	13591.52
439.399	14072.79
439.606	13722.59
439.813	14523.34
440.02	15219.65
440.227	15031.24
440.433	14990.28
440.64	15535.04
440.847	15350.72
441.054	15928.25
441.261	16663.47
441.467	16368.56
441.674	16925.61
441.881	17419.17
442.088	16997.29
442.294	17007.53
442.501	17763.23
442.708	18056.09
442.914	18566.03
443.121	19409.79
443.328	18754.44
443.534	20317.04
443.741	19747.71
443.948	19522.43
444.154	20929.39
444.361	20894.57
444.568	20876.14
444.774	20851.56
444.981	20941.68
445.187	21732.19
445.394	22463.32
445.6	22295.38
445.807	24589.11
446.013	23204.68
446.22	23810.88
446.426	24820.53
446.633	24871.73
446.839	25967.39
447.046	24789.81
447.252	25940.77
447.459	26069.79
447.665	25938.72
447.871	27261.71
448.078	28498.68
448.284	26897.17
448.491	27489.03
448.697	28805.88
448.903	29240.04
449.11	29233.9
449.316	29065.97
449.522	29129.45
449.728	30415.58
449.935	30214.88
450.141	30122.72
450.347	31066.83
450.553	29915.87
450.76	30563.03
450.966	31484.62
451.172	31294.16
451.378	31716.04
451.584	31165.14
451.791	31843.01
451.997	31867.59
452.203	32588.47
452.409	32721.59
452.615	32391.87
452.821	31304.4
453.027	31101.65
453.233	32332.48
453.44	31208.14
453.646	31396.56
453.852	31533.77
454.058	32496.31
454.264	31214.29
454.47	32004.8
454.676	31183.57
454.882	32068.29
455.088	29369.07
455.294	30026.46
455.5	29932.26
455.705	30470.87
455.911	29209.32
456.117	28730.1
456.323	28461.82
456.529	26655.51
456.735	27849.47
456.941	27306.76
457.147	26422.04
457.352	26061.6
457.558	25527.08
457.764	25889.57
457.97	25273.13
458.176	24638.26
458.381	24595.25
458.587	23499.59
458.793	23366.47
458.999	22219.61
459.204	23763.78
459.41	23206.73
459.616	21400.42
459.821	21338.98
460.027	21418.85
460.233	21218.15
460.438	19831.68
460.644	20343.67
460.85	19444.61
461.055	19039.11
461.261	19073.93
461.466	17564.57
461.672	16753.58
461.878	18224.02
462.083	16849.83
462.289	16634.8
462.494	16489.39
462.7	15918.01
462.905	15276.99
463.111	15852.47
463.316	16038.84
463.522	15657.92
463.727	15721.4
463.932	15436.74
464.138	15358.91
464.343	15309.76
464.549	14900.17
464.754	15483.84
464.959	15297.47
465.165	14957.51
465.37	14445.52
465.575	14136.27
465.781	14689.23
465.986	14721.99
466.191	14156.75
466.397	14001.11
466.602	13224.93
466.807	14025.68
467.012	13632.47
467.218	13667.29
467.423	13597.66
467.628	13601.76
467.833	14361.55
468.038	13663.19
468.244	13413.34
468.449	13818.84
468.654	13663.19
468.859	13186.02
469.064	13306.85
469.269	12776.42
469.474	12647.4
469.679	13063.14
469.885	12667.88
470.09	12981.22
470.295	12856.29
470.5	12282.86
470.705	12379.12
470.91	12291.06
471.115	12356.59
471.32	11987.96
471.525	12157.94
471.73	12010.48
471.935	12035.06
472.139	11463.68
472.344	11787.25
472.549	11588.6
472.754	11428.86
472.959	11107.33
473.164	10806.28
473.369	10845.19
473.574	11291.65
473.778	11228.16
473.983	11009.03
474.188	10941.44
474.393	10396.68
474.598	10425.36
474.802	10327.05
475.007	10322.96
475.212	10306.57
475.417	9970.71
475.621	9901.08
475.826	10198.03
476.031	9739.29
476.235	9708.57
476.44	9835.54
476.645	9692.18
476.849	9608.22
477.054	9282.59
477.259	9339.93
477.463	9253.92
477.668	9206.81
477.872	9255.97
478.077	9167.9
478.282	8860.71
478.486	8795.17
478.691	8584.23
478.895	8858.66
479.1	8633.38
479.304	8840.23
479.509	8408.11
479.713	8608.81
479.918	8250.41
480.122	8418.35
480.326	8242.22
480.531	8303.66
480.735	8145.97
480.94	8182.83
481.144	8459.31
481.348	7957.55
481.553	7969.84
481.757	8043.57
481.961	8131.63
482.166	8145.97
482.37	8154.16
482.574	8096.82
482.778	7820.34
482.983	8324.14
483.187	8043.57
483.391	8209.45
483.595	8111.15
483.8	7943.22
484.004	8145.97
484.208	8168.49
484.412	7941.17
484.616	8059.95
484.821	8121.39
485.025	7994.42
485.229	8143.92
485.433	8055.86
485.637	8043.57
485.841	7980.08
486.045	7859.25
486.249	8154.16
486.453	7932.98
486.657	8105.01
486.861	8246.32
487.065	7975.98
487.269	8072.24
487.473	7885.87
487.677	8156.21
487.881	8293.42
488.085	8107.05
488.289	8170.54
488.493	8092.72
488.697	8004.66
488.901	8219.69
489.105	8131.63
489.309	8244.27
489.512	8123.44
489.716	8236.08
489.92	8328.24
490.124	8236.08
490.328	8438.83
490.531	8358.96
490.735	8379.43
490.939	8473.64
491.143	8266.8
491.346	8248.36
491.55	8637.48
491.754	8641.57
491.958	8594.47
492.161	8549.42
492.365	8733.73
492.569	8709.16
492.772	8442.92
492.976	8682.53
493.18	8735.78
493.383	8895.52
493.587	8948.77
493.79	8959.01
493.994	8895.52
494.197	9083.94
494.401	8899.62
494.605	9149.47
494.808	9260.06
495.012	9131.04
495.215	9372.7
495.419	9290.78
495.622	9509.91
495.825	9610.26
496.029	9557.02
496.232	9575.45
496.436	9864.21
496.639	9815.06
496.843	10220.56
497.046	10071.06
497.249	10304.53
497.453	10179.6
497.656	10357.77
497.859	10228.75
498.063	10433.55
498.266	10710.02
498.469	10783.75
498.673	10730.5
498.876	10939.4
499.079	10949.64
499.282	11219.97
499.485	11494.4
499.689	11504.64
499.892	11549.69
500.095	11576.31
500.298	11893.75
500.501	11656.18
500.705	12188.66
500.908	12360.69
501.111	12590.06
501.314	12440.56
501.517	12604.39
501.72	12905.45
501.923	12848.1
502.126	13202.4
502.329	13464.54
502.532	13444.06
502.735	13480.92
502.938	13628.38
503.141	13634.52
503.344	14111.7
503.547	14203.86
503.75	14126.04
503.953	14289.87
504.156	14646.22
504.359	14885.83
504.562	14775.24
504.765	15279.04
504.968	15395.78
505.17	15516.61
505.373	15670.2
505.576	15958.97
505.779	16223.16
505.982	16053.17
506.185	16649.13
506.387	16438.19
506.59	16776.11
506.793	17075.11
506.996	16921.51
507.198	17585.05
507.401	17408.93
507.604	17636.25
507.807	18262.93
508.009	18324.37
508.212	18367.38
508.415	18563.98
508.617	18783.12
508.82	18842.51
509.022	18809.74
509.225	19477.38
509.428	19426.18
509.63	19831.68
509.833	19970.94
510.035	20167.54
510.238	20204.41
510.44	20566.9
510.643	20800.37
510.845	20935.53
511.048	20937.58
511.25	21455.72
511.453	21425
511.655	22348.63
511.858	22061.91
512.06	22066.01
512.262	22561.62
512.465	22569.81
512.667	22565.71
512.87	23282.5
513.072	23489.35
513.274	23851.84
513.477	23855.93
513.679	24406.84
513.881	24599.35
514.084	24894.25
514.286	24656.69
514.488	25178.92
514.69	25760.55
514.893	25680.67
515.095	25684.77
515.297	26356.5
515.499	26301.21
515.701	26729.23
515.904	27079.44
516.106	27233.04
516.308	27374.34
516.51	27757.32
516.712	27792.13
516.914	28244.73
517.116	28775.16
517.318	28619.51
517.52	29250.28
517.722	29459.18
517.925	29506.28
518.127	29928.16
518.329	30341.85
518.531	29993.7
518.733	30974.67
518.935	31072.98
519.136	30896.85
519.338	31658.7
519.54	31822.53
519.742	31953.6
519.944	32043.71
520.146	32797.37
520.348	32694.97
520.55	32940.72
520.752	33133.23
520.954	33790.63
521.155	33712.81
521.357	33981.09
521.559	34319.01
521.761	35117.71
521.963	34773.66
522.164	35105.43
522.366	35336.85
522.568	35291.79
522.77	35656.33
522.971	36543.1
523.173	35781.26
523.375	36536.96
523.576	36471.42
523.778	36711.03
523.98	37010.04
524.181	37157.49
524.383	37655.15
524.584	37728.87
524.786	37669.48
524.988	38099.56
525.189	38722.14
525.391	38636.13
525.592	38980.18
525.794	38619.74
525.995	39307.86
526.197	38416.99
526.398	39236.18
526.6	39559.76
526.801	39567.95
527.003	40034.89
527.204	39969.35
527.406	40292.93
527.607	40247.88
527.808	40632.89
528.01	39981.64
528.211	40460.87
528.412	41034.3
528.614	40587.84
528.815	41275.96
529.016	41337.4
529.218	40630.85
529.419	41237.05
529.62	40974.91
529.822	41374.26
530.023	41269.81
530.224	41781.81
530.425	41343.54
530.626	41456.18
530.828	40880.7
531.029	42105.38
531.23	41849.39
531.431	41482.8
531.632	41867.82
531.833	42373.67
532.035	42101.29
532.236	42136.1
532.437	42213.93
532.638	41865.77
532.839	42179.11
533.04	42158.63
533.241	41841.2
533.442	42347.04
533.643	42199.59
533.844	41669.17
534.045	42361.38
534.246	42045.99
534.447	42463.78
534.648	41968.17
534.849	42478.11
535.05	41869.87
535.251	42381.86
535.451	42105.38
535.652	42644
535.853	41984.55
536.054	42009.13
536.255	42414.63
536.456	41880.11
536.657	42218.02
536.857	41456.18
537.058	42025.51
537.259	42215.97
537.46	42179.11
537.66	42170.92
537.861	42025.51
538.062	41796.14
538.263	42281.51
538.463	41759.28
538.664	42068.52
538.865	41943.59
539.065	42345
539.266	41671.21
539.466	42269.22
539.667	41343.54
539.868	42125.86
540.068	41962.03
540.269	42117.67
540.469	41738.8
540.67	41585.2
540.87	41626.16
541.071	41435.7
541.271	41853.48
541.472	41599.54
541.672	41091.64
541.873	41474.61
542.073	41075.26
542.274	41849.39
542.474	41187.89
542.675	41206.33
542.875	41321.01
543.075	41280.05
543.276	40749.63
543.476	41273.91
543.676	40806.97
543.877	41265.72
544.077	40911.42
544.277	41237.05
544.478	40981.05
544.678	41196.09
544.878	40919.61
545.078	41136.69
545.279	41001.53
545.479	41189.94
545.679	41171.51
545.879	40770.11
546.079	41067.06
546.28	41044.54
546.48	40821.31
546.68	41251.38
546.88	40643.13
547.08	40727.1
547.28	40368.71
547.48	40569.41
547.68	41013.82
547.88	40354.37
548.081	40845.88
548.281	40710.72
548.481	40460.87
548.681	40749.63
548.881	40710.72
549.081	40895.03
549.28	40477.25
549.48	41105.98
549.68	40636.99
549.88	40913.47
550.08	40428.1
550.28	40772.16
550.48	40481.34
550.68	40792.64
550.88	40145.48
551.08	40491.58
551.279	40385.09
551.479	40153.67
551.679	40776.25
551.879	39862.86
552.079	40174.15
552.278	40202.82
552.478	40106.57
552.678	40344.13
552.878	40329.8
553.077	40247.88
553.277	40165.96
553.477	40125
553.676	39823.95
553.876	40145.48
554.076	40182.34
554.275	40143.43
554.475	39774.8
554.674	39973.45
554.874	39977.54
555.074	39526.99
555.273	39981.64
555.473	40198.73
555.672	39387.73
555.872	39731.79
556.071	40053.32
556.271	40063.56
556.47	39510.61
556.67	38988.38
556.869	39533.14
557.068	39780.94
557.268	39266.9
557.467	39414.35
557.667	39219.8
557.866	39578.19
558.065	39524.94
558.265	39080.53
558.464	38840.92
558.663	39660.11
558.863	38767.2
559.062	39158.36
559.261	38486.62
559.461	39295.57
559.66	38449.76
559.859	38736.48
560.058	38683.23
560.258	38756.96
560.457	38261.35
560.656	38922.84
560.855	38652.51
561.054	38460
561.253	38068.84
561.453	38367.84
561.652	38357.6
561.851	38058.6
562.05	37849.71
562.249	37741.16
562.448	38128.23
562.647	37888.62
562.846	38287.97
563.045	37712.49
563.244	37038.71
563.443	37739.11
563.642	37003.89
563.841	37206.64
564.04	37253.75
564.239	37773.93
564.438	36825.72
564.637	36915.83
564.836	36989.56
565.035	36315.78
565.234	36962.93
565.432	36463.23
565.631	36668.03
565.83	36670.08
566.029	36237.95
566.228	36338.3
566.427	36268.67
566.625	35783.3
566.824	35410.57
567.023	36051.59
567.222	35510.92
567.42	35728.01
567.619	35945.09
567.818	35340.94
568.016	35234.45
568.215	35435.15
568.414	35371.66
568.612	35224.21
568.811	34906.77
569.01	34949.78
569.208	34646.68
569.407	35017.36
569.605	34470.56
569.804	34720.41
570.002	34284.19
570.201	34312.86
570.4	34368.16
570.598	34187.94
570.797	33764.01
570.995	33985.19
571.193	33284.78
571.392	33819.3
571.59	33659.56
571.789	33643.18
571.987	33501.87
572.186	33393.33
572.384	33397.42
572.582	33297.07
572.781	33350.32
572.979	32418.49
573.177	33125.04
573.376	32998.07
573.574	32694.97
573.772	32973.49
573.971	32561.85
574.169	32162.5
574.367	32355
574.565	32459.45
574.763	31949.51
574.962	32096.96
575.16	31580.87
575.358	31615.69
575.556	31298.25
575.754	32154.3
575.952	30798.55
576.151	31576.78
576.349	30964.43
576.547	31023.83
576.745	31271.63
576.943	30943.95
577.141	30644.95
577.339	30655.19
577.537	30665.43
577.735	30210.78
577.933	30202.59
578.131	30685.91
578.329	30343.9
578.527	29989.6
578.725	30010.08
578.923	30391
579.121	30022.37
579.319	29600.49
579.516	29950.69
579.714	29688.55
579.912	29993.7
580.11	29344.49
580.308	29371.11
580.506	29201.13
580.704	28701.43
580.901	28982
581.099	29154.03
581.297	28934.9
581.495	28865.27
581.692	29168.37
581.89	28672.76
582.088	28838.64
582.285	28396.28
582.483	28148.48
582.681	28422.9
582.878	28484.34
583.076	27945.73
583.274	28300.03
583.471	28050.17
583.669	28132.09
583.866	27861.76
584.064	27751.17
584.262	27781.89
584.459	27372.3
584.657	27632.39
584.854	27558.66
585.052	27198.22
585.249	27394.82
585.447	27374.34
585.644	26940.18
585.841	27269.9
586.039	27378.44
586.236	26692.37
586.434	26516.25
586.631	26524.44
586.828	26632.98
587.026	26327.83
587.223	26526.49
587.42	26534.68
587.618	26356.5
587.815	26362.65
588.012	26186.52
588.21	26053.41
588.407	26237.72
588.604	25731.87
588.801	25697.06
588.999	25756.45
589.196	25860.9
589.393	25688.87
589.59	25563.94
589.787	25447.21
589.984	25283.37
590.182	24879.92
590.379	25279.27
590.576	25166.63
590.773	25156.39
590.97	24634.16
591.167	25215.79
591.364	24953.65
591.561	24705.84
591.758	24650.55
591.955	24824.62
592.152	24834.86
592.349	24529.72
592.546	24566.58
592.743	24589.11
592.94	24421.17
593.137	24607.54
593.334	24644.4
593.531	23987
593.727	24214.33
593.924	23825.22
594.121	24013.63
594.318	23837.5
594.515	23581.51
594.712	23987
594.908	23579.46
595.105	23579.46
595.302	23649.09
595.499	23309.13
595.696	23333.7
595.892	23001.93
596.089	23493.44
596.286	23290.7
596.482	23241.54
596.679	22958.92
596.876	23386.95
597.072	22831.95
597.269	22829.9
597.466	22891.34
597.662	22692.69
597.859	23051.08
598.055	22846.29
598.252	22559.57
598.448	22940.49
598.645	22283.09
598.841	22420.31
599.038	22301.53
599.234	22330.2
599.431	22262.61
599.627	22076.25
599.824	22324.05
600.02	22137.69
600.217	21965.66
600.413	21846.88
600.609	21838.69
600.806	21855.07
601.002	21830.49
601.198	21523.3
601.395	21664.61
601.591	21486.43
601.787	21447.52
601.984	21330.79
602.18	21214.05
602.376	21173.1
602.572	21113.7
602.769	21242.73
602.965	20921.2
603.161	21074.79
603.357	21082.98
603.553	20863.85
603.75	21111.66
603.946	20611.95
604.142	20605.81
604.338	20679.54
604.534	20515.7
604.73	20360.05
604.926	20466.55
605.122	20587.38
605.318	20358
605.514	20071.29
605.71	20046.71
605.906	20261.75
606.102	20194.17
606.298	20075.38
606.494	20147.06
606.69	20003.71
606.886	20077.43
607.082	19860.35
607.278	19989.37
607.474	19639.17
607.67	20216.69
607.866	19506.05
608.062	19735.42
608.257	19510.14
608.453	19694.46
608.649	19495.81
608.845	19358.6
609.041	19422.08
609.236	19579.78
609.432	19059.59
609.628	19522.43
609.824	19266.44
610.019	19235.72
610.215	19139.46
610.411	19405.7
610.606	19207.05
610.802	19016.58
610.998	19063.69
611.193	19145.61
611.389	18693.01
611.584	18918.28
611.78	18824.08
611.976	19049.35
612.171	18924.43
612.367	18783.12
612.562	18715.53
612.758	18535.31
612.953	18498.45
613.149	18695.05
613.344	18451.35
613.539	18713.49
613.735	18428.82
613.93	18447.25
614.126	18160.53
614.321	18549.65
614.517	18338.71
614.712	18412.43
614.907	18365.33
615.103	18363.28
615.298	18148.25
615.493	18396.05
615.688	17961.88
615.884	18398.1
616.079	18060.18
616.274	18146.2
616.47	17882.01
616.665	18174.87
616.86	17462.18
617.055	17752.99
617.25	17791.9
617.445	17824.67
617.641	17775.52
617.836	17591.2
618.031	17492.9
618.226	17509.28
618.421	17470.37
618.616	17597.34
618.811	17107.88
619.006	17654.69
619.201	17241
619.396	17185.7
619.591	17060.77
619.786	17269.67
619.981	17128.36
620.176	17138.6
620.371	16729
620.566	16579.5
620.761	16686
620.956	16788.39
621.151	16446.38
621.346	16460.72
621.541	16251.83
621.735	16444.34
621.93	15934.39
622.125	16403.38
622.32	15981.49
622.515	15895.48
622.709	15858.62
622.904	15762.36
623.099	15612.86
623.294	15537.09
623.488	15520.7
623.683	15539.13
623.878	15506.37
624.072	15434.69
624.267	15463.36
624.462	15264.71
624.656	15154.12
624.851	15021
625.046	14863.3
625.24	14967.75
625.435	14926.79
625.629	14724.04
625.824	14832.58
626.018	14865.35
626.213	14605.26
626.407	14253.01
626.602	14336.98
626.796	14558.16
626.991	14283.73
627.185	14095.32
627.38	14345.17
627.574	14005.2
627.768	14078.93
627.963	13951.96
628.157	13583.32
628.352	13851.61
628.546	13673.43
628.74	13775.83
628.935	13562.84
629.129	13468.64
629.323	13315.04
629.517	13335.52
629.712	13200.35
629.906	13202.4
630.1	12970.98
630.294	13106.15
630.489	13116.39
630.683	12944.36
630.877	12819.43
631.071	12473.32
631.265	12981.22
631.459	12743.66
631.653	12563.43
631.848	12622.83
632.042	12528.62
632.236	12590.06
632.43	12299.25
632.624	12387.31
632.818	12057.59
633.012	12102.64
633.206	11987.96
633.4	12184.56
633.594	12061.68
633.788	11854.84
633.982	11947
634.176	11899.89
634.369	11686.9
634.563	11785.21
634.757	11506.68
634.951	11604.99
635.145	11594.75
635.339	11717.62
635.533	11353.09
635.726	11303.93
635.92	11103.23
636.114	11430.91
636.308	11039.75
636.501	10900.48
636.695	11189.25
636.889	10886.15
637.083	10884.1
637.276	10906.63
637.47	10716.17
637.664	10607.62
637.857	10880
638.051	10613.77
638.244	10271.76
638.438	10519.56
638.632	10429.45
638.825	10388.49
639.019	10202.13
639.212	10150.93
639.406	10392.59
639.599	10124.3
639.793	10077.2
639.986	9921.56
640.18	10109.97
640.373	10107.92
640.567	9755.67
640.76	9733.14
640.954	9929.75
641.147	9677.85
641.34	9630.74
641.534	9544.73
641.727	9583.64
641.92	9397.28
642.114	9460.76
642.307	9378.84
642.5	9235.49
642.694	9165.85
642.887	9163.81
643.08	9229.34
643.273	9266.21
643.467	9237.53
643.66	9051.17
643.853	8725.54
644.046	8780.84
644.239	8881.19
644.432	8635.43
644.626	8645.67
644.819	8643.62
645.012	8563.75
645.205	8610.86
645.398	8602.66
645.591	8416.3
645.784	8387.63
645.977	8477.74
646.17	8510.5
646.363	8176.69
646.556	8195.12
646.749	8252.46
646.942	8143.92
647.135	8107.05
647.328	7892.02
647.521	7752.76
647.714	7971.89
647.907	7816.24
648.099	7728.18
648.292	7910.45
648.485	8045.62
648.678	7777.33
648.871	7689.27
649.064	7496.76
649.256	7533.62
649.449	7619.64
649.642	7384.12
649.835	7468.09
650.027	7564.34
650.22	7236.67
650.413	7373.88
650.605	7529.53
650.798	7296.06
650.991	7306.3
651.183	7267.39
651.376	6982.72
651.568	7085.12
651.761	7078.97
651.954	7162.94
652.146	6945.86
652.339	7064.64
652.531	6947.9
652.724	6831.17
652.916	6732.87
653.109	6755.4
653.301	6736.96
653.494	6700.1
653.686	6577.22
653.879	6947.9
654.071	6552.65
654.263	6536.26
654.456	6642.76
654.648	6655.05
654.84	6446.15
655.033	6546.5
655.225	6341.71
655.417	6487.11
655.61	6325.32
655.802	6509.64
655.994	6274.12
656.186	6331.47
656.379	6192.2
656.571	6143.05
656.763	6126.67
656.955	6036.56
657.148	6267.98
657.34	6114.38
657.532	5936.21
657.724	6016.08
657.916	6007.89
658.108	5971.02
658.3	5891.15
658.492	5911.63
658.684	5842
658.876	5772.37
659.068	5770.32
659.26	5674.07
659.452	5796.95
659.644	5676.12
659.836	5622.87
660.028	5710.93
660.22	5416.02
660.412	5561.43
660.604	5491.8
660.796	5418.07
660.988	5424.22
661.18	5452.89
661.372	5432.41
661.563	5409.88
661.755	5336.15
661.947	5356.63
662.139	5256.28
662.331	5303.39
662.522	5100.64
662.714	5239.9
662.906	5121.12
663.097	5063.77
663.289	5084.25
663.481	5123.16
663.673	5051.49
663.864	5141.6
664.056	5125.21
664.247	5002.33
664.439	4863.07
664.631	4973.66
664.822	5016.67
665.014	4901.98
665.205	5033.05
665.397	5033.05
665.588	4871.26
665.78	4770.91
665.971	4951.14
666.163	4875.36
666.354	4904.03
666.546	4750.43
666.737	4781.15
666.929	4840.54
667.12	4738.15
667.311	4701.28
667.503	4682.85
667.694	4637.8
667.885	4650.08
668.077	4684.9
668.268	4654.18
668.459	4686.95
668.651	4662.37
668.842	4564.07
669.033	4551.78
669.224	4631.65
669.416	4588.64
669.607	4588.64
669.798	4504.68
669.989	4467.81
670.18	4361.32
670.371	4394.09
670.563	4426.86
670.754	4447.33
670.945	4246.63
671.136	4389.99
671.327	4404.33
671.518	4492.39
671.709	4314.22
671.9	4283.5
672.091	4330.6
672.282	4258.92
672.473	4293.74
672.664	4201.58
672.855	4293.74
673.046	4303.98
673.237	4160.62
673.428	4297.83
673.619	4248.68
673.809	4183.15
674	4131.95
674.191	4263.02
674.382	4152.43
674.573	4150.38
674.764	4076.65
674.954	4179.05
675.145	4023.41
675.336	4121.71
675.527	4080.75
675.717	4058.22
675.908	4021.36
676.099	4174.95
676.289	4121.71
676.48	4082.8
676.671	3990.64
676.861	3968.11
677.052	4029.55
677.243	4035.69
677.433	4009.07
677.624	4029.55
677.814	4084.84
678.005	3974.25
678.195	4052.08
678.386	4084.84
678.576	3812.46
678.767	3998.83
678.957	4021.36
679.148	4052.08
679.338	3972.21
679.529	3955.82
679.719	3984.49
679.909	4009.07
680.1	3959.92
680.29	3886.19
680.481	3921.01
680.671	3939.44
680.861	3943.53
681.052	4107.37
681.242	3921.01
681.432	4023.41
681.622	3804.27
681.813	3894.38
682.003	3937.39
682.193	3794.03
682.383	3966.06
682.573	3933.29
682.764	4097.13
682.954	3839.09
683.144	3832.94
683.334	3875.95
683.524	3886.19
683.714	3939.44
683.904	3955.82
684.094	3892.34
684.284	3757.17
684.474	4047.98
684.664	3888.24
684.854	3988.59
685.044	3916.91
685.234	3826.8
685.424	3912.81
685.614	3871.86
685.804	3929.2
685.994	3859.57
686.184	3890.29
686.374	3966.06
686.564	3863.66
686.753	3828.85
686.943	3777.65
687.133	3818.61
687.323	3722.35
687.513	3806.32
687.702	3847.28
687.892	3683.44
688.082	3689.59
688.272	3843.18
688.461	3751.03
688.651	3703.92
688.841	3648.63
689.03	3781.74
689.22	3677.3
689.41	3673.2
689.599	3744.88
689.789	3630.2
689.979	3617.91
690.168	3603.57
690.358	3660.91
690.547	3411.06
690.737	3622
690.926	3609.72
691.116	3538.04
691.305	3615.86
691.495	3634.29
691.684	3605.62
691.874	3554.42
692.063	3529.84
692.252	3546.23
692.442	3544.18
692.631	3531.89
692.82	3591.28
693.01	3507.32
693.199	3501.17
693.388	3447.93
693.578	3425.4
693.767	3589.24
693.956	3535.99
694.146	3579
694.335	3400.82
694.524	3439.73
694.713	3527.8
694.902	3447.93
695.092	3384.44
695.281	3527.8
695.47	3456.12
695.659	3509.37
695.848	3607.67
696.037	3406.97
696.226	3411.06
696.415	3339.38
696.604	3429.49
696.793	3478.65
696.982	3341.43
697.171	3452.02
697.36	3409.01
697.549	3359.86
697.738	3382.39
697.927	3449.97
698.116	3423.35
698.305	3292.28
698.494	3474.55
698.683	3353.72
698.872	3458.17
699.061	3323
699.25	3402.87
699.438	3216.51
699.627	3486.84
699.816	3392.63
700.005	3206.27
700.193	3320.95
700.382	3406.97
700.571	3288.18
700.76	3265.66
700.948	3445.88
701.137	3533.94
701.326	3312.76
701.514	3286.14
701.703	3374.2
701.892	3345.53
702.08	3382.39
702.269	3308.66
702.457	3314.81
702.646	3288.18
702.834	3290.23
703.023	3265.66
703.212	3249.27
703.4	3267.7
703.589	3296.38
703.777	3296.38
703.965	3153.02
704.154	3288.18
704.342	3290.23
704.531	3224.7
704.719	3181.69
704.907	3226.75
705.096	3241.08
705.284	3284.09
705.472	3323
705.661	3169.4
705.849	3325.05
706.037	3218.55
706.226	3253.37
706.414	3146.87
706.602	3363.96
706.79	3146.87
706.979	3085.44
707.167	3249.27
707.355	3257.46
707.543	3122.3
707.731	3212.41
707.919	3181.69
708.107	3130.49
708.296	3267.7
708.484	3060.86
708.672	3144.83
708.86	3107.96
709.048	3067
709.236	3046.52
709.424	3021.95
709.612	3054.72
709.8	3112.06
709.988	2985.09
710.176	3024
710.364	3024
710.551	3071.1
710.739	3288.18
710.927	3083.39
711.115	3073.15
711.303	3058.81
711.491	3126.39
711.679	2997.37
711.866	3067
712.054	3124.35
712.242	3050.62
712.43	3126.39
712.617	2983.04
712.805	3009.66
712.993	3040.38
713.181	2884.73
713.368	2858.11
713.556	2860.16
713.744	2886.78
713.931	2980.99
714.119	2763.9
714.306	2950.27
714.494	2956.41
714.682	2956.41
714.869	2825.34
715.057	2888.83
715.244	2817.15
715.432	2942.08
715.619	2976.89
715.807	2856.06
715.994	2976.89
716.182	2970.75
716.369	2962.56
716.556	2909.31
716.744	2821.25
716.931	2862.21
717.119	2909.31
717.306	2856.06
717.493	2854.02
717.681	2933.89
717.868	2718.85
718.055	2806.91
718.242	2909.31
718.43	2755.71
718.617	2772.1
718.804	2768
718.991	2671.75
719.179	2831.49
719.366	2663.55
719.553	2714.75
719.74	2759.81
719.927	2753.66
720.114	2718.85
720.301	2641.03
720.488	2702.47
720.676	2534.53
720.863	2774.14
721.05	2708.61
721.237	2763.9
721.424	2690.18
721.611	2696.32
721.798	2765.95
721.985	2679.94
722.172	2665.6
722.358	2671.75
722.545	2651.27
722.732	2641.03
722.919	2647.17
723.106	2516.1
723.293	2591.88
723.48	2587.78
723.667	2694.27
723.853	2591.88
724.04	2655.36
724.227	2565.25
724.414	2473.09
724.6	2679.94
724.787	2628.74
724.974	2677.89
725.161	2530.44
725.347	2454.66
725.534	2577.54
725.72	2641.03
725.907	2673.79
726.094	2417.8
726.28	2540.68
726.467	2579.59
726.653	2634.88
726.84	2573.44
727.027	2638.98
727.213	2403.46
727.4	2503.81
727.586	2612.35
727.773	2335.88
727.959	2382.98
728.145	2505.86
728.332	2397.32
728.518	2391.17
728.705	2485.38
728.891	2339.97
729.077	2460.81
729.264	2419.85
729.45	2442.37
729.636	2483.33
729.823	2344.07
730.009	2438.28
730.195	2401.41
730.382	2403.46
730.568	2458.76
730.754	2522.24
730.94	2446.47
731.126	2387.08
731.313	2413.7
731.499	2481.28
731.685	2190.47
731.871	2380.93
732.057	2397.32
732.243	2335.88
732.429	2368.65
732.615	2346.12
732.801	2305.16
732.987	2374.79
733.173	2249.86
733.359	2362.5
733.545	2288.78
733.731	2274.44
733.917	2268.3
734.103	2335.88
734.289	2294.92
734.475	2241.67
734.661	2305.16
734.847	2372.74
735.033	2327.69
735.219	2307.21
735.404	2286.73
735.59	2229.38
735.776	2253.96
735.962	2286.73
736.148	2237.58
736.333	2223.24
736.519	2311.3
736.705	2208.9
736.89	2346.12
737.076	2221.19
737.262	2153.61
737.447	2186.38
737.633	2262.15
737.819	2149.51
738.004	2120.84
738.19	2243.72
738.375	2231.43
738.561	2258.06
738.747	2131.08
738.932	2118.79
739.118	2202.76
739.303	2108.55
739.489	2225.29
739.674	2122.89
739.859	2098.31
740.045	2118.79
740.23	2204.81
740.416	2129.03
740.601	1985.68
740.786	2079.88
740.972	2010.25
741.157	2073.74
741.342	1993.87
741.528	2045.07
741.713	2049.16
741.898	2120.84
742.084	2004.11
742.269	2110.6
742.454	2100.36
742.639	1979.53
742.824	1952.91
743.01	2026.64
743.195	1903.76
743.38	2038.92
743.565	1870.99
743.75	1940.62
743.935	1903.76
744.12	1959.05
744.305	1973.39
744.49	1842.32
744.675	1883.28
744.86	1887.37
745.045	1770.64
745.23	1850.51
745.415	1852.56
745.6	1864.85
745.785	1811.6
745.97	1864.85
746.155	1705.1
746.34	1789.07
746.525	1836.17
746.71	1914
746.895	1768.59
747.079	1660.05
747.264	1729.68
747.449	1739.92
747.634	1709.2
747.819	1703.06
748.003	1801.36
748.188	1733.78
748.373	1739.92
748.557	1639.57
748.742	1686.67
748.927	1653.91
749.111	1629.33
749.296	1674.39
749.481	1649.81
749.665	1602.71
749.85	1635.47
750.034	1576.08
750.219	1504.4
750.404	1578.13
750.588	1496.21
750.773	1475.73
750.957	1522.84
751.141	1488.02
751.326	1592.47
751.51	1455.25
751.695	1410.2
751.879	1436.82
752.064	1557.65
752.248	1447.06
752.432	1455.25
752.617	1369.24
752.801	1397.91
752.985	1383.57
753.17	1412.25
753.354	1410.2
753.538	1416.34
753.722	1336.47
753.907	1356.95
754.091	1367.19
754.275	1365.14
754.459	1307.8
754.643	1240.22
754.828	1295.51
755.012	1354.9
755.196	1373.33
755.38	1338.52
755.564	1109.15
755.748	1363.09
755.932	1344.66
756.116	1299.61
756.3	1313.94
756.484	1121.43
756.668	1262.74
756.852	1119.39
757.036	1094.81
757.22	1166.49
757.404	1096.86
757.588	1121.43
757.772	1189.02
757.956	1150.11
758.14	1201.3
758.323	1107.1
758.507	1057.95
758.691	1107.1
758.875	1129.63
759.059	1080.47
759.242	1066.14
759.426	1100.95
759.61	996.51
759.794	1043.61
759.977	1033.37
760.161	1117.34
760.345	1059.99
760.528	1117.34
760.712	1023.13
760.895	967.84
761.079	1066.14
761.263	984.22
761.446	1031.32
761.63	1029.27
761.813	1043.61
761.997	1025.18
762.18	1035.42
762.364	1053.85
762.547	980.12
762.731	1051.8
762.914	1049.75
763.098	959.64
763.281	976.03
763.464	1049.75
763.648	912.54
763.831	916.64
764.015	896.16
764.198	986.27
764.381	978.08
764.564	873.63
764.748	902.3
764.931	937.12
765.114	912.54
765.297	998.56
765.481	930.97
765.664	894.11
765.847	836.77
766.03	947.36
766.213	943.26
766.397	867.49
766.58	855.2
766.763	834.72
766.946	867.49
767.129	820.38
767.312	890.01
767.495	844.96
767.678	836.77
767.861	898.2
768.044	832.67
768.227	849.05
768.41	910.49
768.593	877.73
768.776	781.47
768.959	916.64
769.142	795.81
769.324	777.37
769.507	863.39
769.69	771.23
769.873	740.51
770.056	826.53
770.239	859.29
770.421	810.14
770.604	902.3
770.787	844.96
770.97	763.04
771.152	781.47
771.335	724.13
771.518	705.7
771.7	783.52
771.883	746.66
772.066	726.18
772.248	728.22
772.431	707.74
772.613	816.29
772.796	740.51
772.978	754.85
773.161	711.84
773.343	677.02
773.526	666.78
773.708	717.98
773.891	760.99
774.073	705.7
774.256	715.94
774.438	695.46
774.621	685.22
774.803	640.16
774.985	631.97
775.168	679.07
775.35	670.88
775.532	707.74
775.715	560.29
775.897	654.5
776.079	627.87
776.261	621.73
776.444	709.79
776.626	582.82
776.808	638.11
776.99	500.9
777.173	564.39
777.355	668.83
777.537	629.92
777.719	713.89
777.901	509.09
778.083	509.09
778.265	621.73
778.447	566.43
778.629	582.82
778.811	609.44
778.993	527.52
779.175	609.44
779.357	595.11
779.539	529.57
779.721	521.38
779.903	601.25
780.085	484.52
780.267	556.19
780.449	535.71
780.631	521.38
780.812	533.67
780.994	468.13
781.176	605.35
781.358	447.65
781.54	513.19
781.721	574.63
781.903	435.36
782.085	494.76
782.267	548
782.448	515.23
782.63	498.85
782.812	468.13
782.993	435.36
783.175	449.7
783.357	437.41
783.538	421.03
783.72	449.7
783.901	451.75
784.083	427.17
784.264	443.56
784.446	400.55
784.627	392.36
784.809	439.46
784.99	423.08
785.172	359.59
785.353	416.93
785.535	488.61
785.716	461.99
785.897	384.16
786.079	353.45
786.26	337.06
786.441	341.16
786.623	384.16
786.804	437.41
786.985	447.65
787.167	287.91
787.348	351.4
787.529	351.4
787.71	416.93
787.891	423.08
788.073	283.81
788.254	412.84
788.435	349.35
788.616	408.74
788.797	326.82
788.978	394.4
789.159	277.67
789.34	296.1
789.522	371.88
789.703	312.49
789.884	294.05
790.065	347.3
790.246	302.25
790.427	373.92
790.607	294.05
790.788	345.25
790.969	259.24
791.15	273.57
791.331	289.96
791.512	328.87
791.693	292.01
791.874	335.01
792.054	328.87
792.235	341.16
792.416	277.67
792.597	322.73
792.778	281.77
792.958	418.98
793.139	289.96
793.32	224.42
793.5	222.38
793.681	304.29
793.862	236.71
794.042	312.49
794.223	261.29
794.404	310.44
794.584	203.94
794.765	283.81
794.945	265.38
795.126	287.91
795.306	255.14
795.487	134.31
795.667	341.16
795.848	269.48
796.028	183.46
796.209	273.57
796.389	224.42
796.57	261.29
796.75	310.44
796.93	232.62
797.111	232.62
797.291	294.05
797.471	218.28
797.652	197.8
797.832	222.38
798.012	263.33
798.192	224.42
798.373	244.9
798.553	242.85
798.733	294.05
798.913	210.09
799.093	238.76
799.274	214.18
799.454	218.28
799.634	234.66
799.814	228.52
799.994	277.67
800.174	226.47
800.354	169.13
800.534	201.9
800.714	304.29
800.894	191.66
801.074	187.56
801.254	179.37
801.434	165.03
801.614	220.33
801.794	232.62
801.974	695.46
802.154	226.47
802.334	238.76
802.514	193.7
802.693	183.46
802.873	146.6
803.053	195.75
803.233	199.85
803.413	234.66
803.592	144.55
803.772	183.46
803.952	201.9
804.131	156.84
804.311	89.26
804.491	181.42
804.67	222.38
804.85	253.09
805.03	132.26
805.209	148.65
805.389	177.32
805.568	109.74
805.748	107.69
805.928	195.75
806.107	191.66
806.287	197.8
806.466	187.56
806.646	142.5
806.825	142.5
807.004	124.07
807.184	130.22
807.363	222.38
807.543	191.66
807.722	154.79
807.901	277.67
808.081	205.99
808.26	66.73
808.439	173.22
808.619	152.74
808.798	130.22
808.977	156.84
809.156	144.55
809.336	214.18
809.515	201.9
809.694	54.44
809.873	117.93
810.052	150.7
810.231	205.99
810.411	154.79
810.59	187.56
810.769	156.84
810.948	134.31
811.127	62.63
811.306	89.26
811.485	109.74
811.664	205.99
811.843	119.98
812.022	138.41
812.201	95.4
812.38	134.31
812.559	158.89
812.737	197.8
812.916	160.94
813.095	109.74
813.274	269.48
813.453	236.71
813.632	107.69
813.811	136.36
813.989	105.64
814.168	99.5
814.347	113.83
814.526	148.65
814.704	130.22
814.883	122.02
815.062	158.89
815.24	191.66
815.419	99.5
815.598	179.37
815.776	156.84
815.955	191.66
816.133	115.88
816.312	105.64
816.49	132.26
816.669	136.36
816.847	36.01
817.026	76.97
817.204	85.16
817.383	124.07
817.561	79.02
817.74	95.4
817.918	117.93
818.097	142.5
818.275	91.31
818.453	107.69
818.632	60.59
818.81	171.18
818.988	175.27
819.167	126.12
819.345	173.22
819.523	130.22
819.701	97.45
819.879	58.54
820.058	134.31
820.236	5.29
820.414	72.87
820.592	101.55
820.77	87.21
820.948	74.92
821.127	44.2
821.305	-9.05
821.483	76.97
821.661	130.22
821.839	154.79
822.017	134.31
822.195	74.92
822.373	33.96
822.551	64.68
822.729	134.31
822.907	109.74
823.085	109.74
823.262	81.07
823.44	115.88
823.618	91.31
823.796	93.35
823.974	76.97
824.152	91.31
824.329	56.49
824.507	87.21
824.685	140.46
824.863	46.25
825.04	101.55
825.218	46.25
825.396	3.24
825.574	117.93
825.751	79.02
825.929	132.26
826.107	31.91
826.284	40.11
826.462	56.49
826.639	130.22
826.817	95.4
826.994	122.02
827.172	70.83
827.349	119.98
827.527	83.11
827.704	93.35
827.882	214.18
828.059	62.63
828.237	-17.24
828.414	148.65
828.591	60.59
828.769	52.39
828.946	-56.15
829.124	72.87
829.301	103.59
829.478	13.48
829.655	95.4
829.833	87.21
830.01	132.26
830.187	33.96
830.364	85.16
830.542	27.82
830.719	117.93
830.896	142.5
831.073	97.45
831.25	42.15
831.427	130.22
831.604	72.87
831.782	85.16
831.959	117.93
832.136	25.77
832.313	105.64
832.49	27.82
832.667	21.67
832.844	62.63
833.021	140.46
833.198	-7
833.374	165.03
833.551	46.25
833.728	91.31
833.905	31.91
834.082	95.4
834.259	70.83
834.436	109.74
834.612	3.24
834.789	40.11
834.966	56.49
835.143	54.44
835.319	74.92
835.496	38.06
835.673	62.63
835.85	136.36
836.026	27.82
836.203	85.16
836.38	70.83
836.556	76.97
836.733	17.58
836.909	79.02
837.086	48.3
837.262	33.96
837.439	62.63
837.616	13.48
837.792	25.77
837.968	122.02
838.145	-23.38
838.321	124.07
838.498	23.72
838.674	99.5
838.851	29.87
839.027	60.59
839.203	27.82
839.38	-27.48
839.556	19.63
839.732	60.59
839.909	64.68
840.085	36.01
840.261	-17.24
840.437	38.06
840.614	40.11
840.79	150.7
840.966	52.39
841.142	33.96
841.318	15.53
841.494	54.44
841.671	74.92
841.847	72.87
842.023	36.01
842.199	54.44
842.375	33.96
842.551	9.39
842.727	58.54
842.903	-2.9
843.079	33.96
843.255	56.49
843.431	33.96
843.607	74.92
843.783	-23.38
843.959	42.15
844.134	25.77
844.31	66.73
844.486	54.44
844.662	58.54
844.838	38.06
845.013	21.67
845.189	109.74
845.365	58.54
845.541	54.44
845.716	48.3
845.892	40.11
846.068	-25.43
846.244	72.87
846.419	42.15
846.595	13.48
846.77	29.87
846.946	50.35
847.122	99.5
847.297	60.59
847.473	52.39
847.648	85.16
847.824	9.39
847.999	17.58
848.175	-4.95
848.35	27.82
848.526	76.97
848.701	7.34
848.876	25.77
849.052	54.44
849.227	7.34
849.403	56.49
849.578	38.06
849.753	46.25
849.929	85.16
850.104	-2.9
850.279	-7
850.454	11.43
850.63	15.53
850.805	66.73
850.98	44.2
851.155	50.35
851.33	42.15
851.505	-19.29
851.681	58.54
851.856	31.91
852.031	42.15
852.206	74.92
852.381	23.72
852.556	-7
852.731	54.44
852.906	42.15
853.081	70.83
853.256	79.02
853.431	103.59
853.606	5.29
853.781	70.83
853.956	-0.85
854.131	11.43
854.305	-17.24
854.48	33.96
854.655	60.59
854.83	103.59
855.005	25.77
855.18	17.58
855.354	-2.9
855.529	50.35
855.704	7.34
855.879	-0.85
856.053	89.26
856.228	7.34
856.403	85.16
856.577	58.54
856.752	-13.14
856.926	42.15
857.101	74.92
857.276	60.59
857.45	13.48
857.625	70.83
857.799	-4.95
857.974	52.39
858.148	29.87
858.323	9.39
858.497	-9.05
858.672	40.11
858.846	50.35
859.02	1.19
859.195	-45.91
859.369	52.39
859.543	-35.67
859.718	31.91
859.892	58.54
860.066	42.15
860.241	9.39
860.415	23.72
860.589	23.72
860.763	38.06
860.938	-19.29
861.112	44.2
861.286	97.45
861.46	74.92
861.634	40.11
861.808	85.16
861.982	17.58
862.157	29.87
862.331	11.43
862.505	-15.19
862.679	21.67
862.853	27.82
863.027	-41.81
863.201	52.39
863.375	40.11
863.549	5.29
863.722	31.91
863.896	54.44
864.07	-35.67
864.244	15.53
864.418	17.58
864.592	40.11
864.766	76.97
864.939	-4.95
865.113	21.67
865.287	31.91
865.461	-19.29
865.634	50.35
865.808	21.67
865.982	-31.57
866.156	50.35
866.329	27.82
866.503	-76.63
866.676	70.83
866.85	23.72
867.024	42.15
867.197	36.01
867.371	-4.95
867.544	64.68
867.718	-4.95
867.891	5.29
868.065	91.31
868.238	72.87
868.412	17.58
868.585	64.68
868.759	-82.77
868.932	64.68
869.105	-11.09
869.279	29.87
869.452	-58.2
869.625	-11.09
869.799	-17.24
869.972	13.48
870.145	13.48
870.319	50.35
870.492	7.34
870.665	17.58
870.838	-39.76
871.011	-29.52
871.185	-21.33
871.358	83.11
871.531	68.78
871.704	17.58
871.877	-15.19
872.05	76.97
872.223	33.96
872.396	15.53
872.569	1.19
872.742	-17.24
872.915	1.19
873.088	13.48
873.261	-19.29
873.434	93.35
873.607	38.06
873.78	31.91
873.953	11.43
874.126	31.91
874.299	-54.1
874.471	-70.48
874.644	29.87
874.817	3.24
874.99	44.2
875.163	42.15
875.335	40.11
875.508	-17.24
875.681	3.24
875.853	-33.62
876.026	1.19
876.199	-33.62
876.371	74.92
876.544	15.53
876.717	48.3
876.889	-4.95
877.062	-25.43
877.234	-11.09
877.407	42.15
877.579	-109.4
877.752	3.24
877.924	-29.52
878.097	-27.48
878.269	-4.95
878.442	36.01
878.614	7.34
878.786	33.96
878.959	25.77
879.131	23.72
879.303	17.58
879.476	36.01
879.648	119.98
879.82	27.82
879.993	17.58
880.165	-17.24
880.337	-43.86
880.509	31.91
880.681	-54.1
880.854	9.39
881.026	54.44
881.198	25.77
881.37	-31.57
881.542	48.3
881.714	-37.72
881.886	21.67
882.058	-21.33
882.23	62.63
882.402	31.91
882.574	-7
882.746	-15.19
882.918	44.2
883.09	-39.76
883.262	42.15
883.434	25.77
883.606	42.15
883.778	44.2
883.95	31.91
884.122	74.92
884.293	52.39
884.465	27.82
884.637	58.54
884.809	-29.52
884.98	17.58
885.152	29.87
885.324	-2.9
885.496	54.44
885.667	-43.86
885.839	5.29
886.011	60.59
886.182	11.43
886.354	-2.9
886.525	-29.52
886.697	5.29
886.869	36.01
887.04	-29.52
887.212	70.83
887.383	7.34
887.555	-2.9
887.726	-15.19
887.897	36.01
888.069	-31.57
888.24	58.54
888.412	-0.85
888.583	-33.62
888.754	19.63
888.926	-21.33
889.097	9.39
889.268	76.97
889.44	9.39
889.611	-13.14
889.782	48.3
889.953	-7
890.125	17.58
890.296	-58.2
890.467	5.29
890.638	5.29
890.809	-11.09
890.98	-62.29
891.151	105.64
891.323	-15.19
891.494	7.34
891.665	-39.76
891.836	-15.19
892.007	40.11
892.178	23.72
892.349	7.34
892.52	27.82
892.691	27.82
892.862	58.54
893.032	-43.86
893.203	50.35
893.374	17.58
893.545	46.25
893.716	29.87
893.887	-2.9
894.057	-27.48
894.228	64.68
894.399	15.53
894.57	68.78
894.74	13.48
894.911	72.87
895.082	-19.29
895.253	23.72
895.423	23.72
895.594	15.53
895.764	-33.62
895.935	46.25
896.106	-19.29
896.276	15.53
896.447	7.34
896.617	27.82
896.788	-58.2
896.958	25.77
897.129	15.53
897.299	-43.86
897.47	-11.09
897.64	27.82
897.81	-4.95
897.981	-0.85
898.151	9.39
898.322	33.96
898.492	5.29
898.662	-7
898.832	-41.81
899.003	-74.58
899.173	11.43
899.343	-39.76
899.513	36.01
