Data from USB4F104151__10__12-35-08-124.txt Node

Date: Fri Mar 14 12:35:08 EDT 2025
User: louis
Spectrometer: USB4F10415
Trigger mode: 4
Integration Time (sec): 2.000000E-2
Scans to average: 1
Electric dark correction enabled: true
Nonlinearity correction enabled: false
Boxcar width: 0
XAxis mode: Wavelengths
Number of Pixels in Spectrum: 3648
>>>>>Begin Spectral Data<<<<<
178.204	-59.22
178.424	-59.22
178.644	-59.22
178.864	-55.12
179.084	-87.89
179.304	-67.41
179.524	16.55
179.744	10.41
179.964	2.22
180.184	22.7
180.404	-1.88
180.624	30.89
180.844	-30.55
181.064	-24.4
181.283	14.51
181.503	18.6
181.723	8.36
181.943	-10.07
182.163	49.32
182.383	22.7
182.602	51.37
182.822	88.23
183.042	20.65
183.262	49.32
183.482	39.08
183.701	6.31
183.921	34.99
184.141	-1.88
184.361	30.89
184.58	26.79
184.8	43.18
185.02	166.06
185.239	127.14
185.459	18.6
185.679	53.42
185.898	22.7
186.118	112.81
186.338	10.41
186.557	141.48
186.777	69.8
186.997	45.23
187.216	47.27
187.436	22.7
187.655	-3.93
187.875	63.66
188.095	43.18
188.314	106.67
188.534	61.61
188.753	61.61
188.973	127.14
189.192	67.75
189.412	45.23
189.631	2.22
189.851	22.7
190.07	53.42
190.29	28.84
190.509	8.36
190.729	84.14
190.948	94.38
191.168	65.71
191.387	94.38
191.607	67.75
191.826	61.61
192.045	51.37
192.265	92.33
192.484	67.75
192.704	94.38
192.923	41.13
193.142	69.8
193.362	94.38
193.581	98.47
193.8	2.22
194.02	84.14
194.239	51.37
194.458	12.46
194.678	88.23
194.897	-16.21
195.116	14.51
195.335	45.23
195.555	116.9
195.774	82.09
195.993	53.42
196.212	8.36
196.432	86.19
196.651	32.94
196.87	-1.88
197.089	63.66
197.308	106.67
197.528	47.27
197.747	12.46
197.966	-30.55
198.185	65.71
198.404	45.23
198.623	112.81
198.842	104.62
199.062	110.76
199.281	75.95
199.5	96.43
199.719	39.08
199.938	112.81
200.157	16.55
200.376	55.47
200.595	53.42
200.814	80.04
201.033	67.75
201.252	88.23
201.471	67.75
201.69	39.08
201.909	32.94
202.128	45.23
202.347	22.7
202.566	84.14
202.785	47.27
203.004	49.32
203.223	92.33
203.442	43.18
203.661	71.85
203.879	47.27
204.098	61.61
204.317	53.42
204.536	45.23
204.755	28.84
204.974	43.18
205.193	121
205.411	104.62
205.63	51.37
205.849	39.08
206.068	32.94
206.287	110.76
206.505	41.13
206.724	10.41
206.943	104.62
207.162	53.42
207.381	41.13
207.599	12.46
207.818	34.99
208.037	0.17
208.255	12.46
208.474	125.1
208.693	80.04
208.911	24.75
209.13	39.08
209.349	24.75
209.567	94.38
209.786	34.99
210.005	34.99
210.223	43.18
210.442	73.9
210.661	28.84
210.879	39.08
211.098	51.37
211.316	67.75
211.535	57.51
211.753	80.04
211.972	127.14
212.191	51.37
212.409	2.22
212.628	26.79
212.846	129.19
213.065	75.95
213.283	45.23
213.502	84.14
213.72	-40.79
213.938	53.42
214.157	92.33
214.375	26.79
214.594	-30.55
214.812	32.94
215.031	92.33
215.249	49.32
215.467	80.04
215.686	30.89
215.904	80.04
216.122	47.27
216.341	129.19
216.559	69.8
216.778	82.09
216.996	-1.88
217.214	18.6
217.432	55.47
217.651	20.65
217.869	47.27
218.087	104.62
218.306	47.27
218.524	127.14
218.742	59.56
218.96	61.61
219.179	73.9
219.397	43.18
219.615	112.81
219.833	90.28
220.051	90.28
220.27	71.85
220.488	51.37
220.706	53.42
220.924	37.03
221.142	45.23
221.36	84.14
221.578	32.94
221.796	30.89
222.015	139.43
222.233	28.84
222.451	55.47
222.669	59.56
222.887	92.33
223.105	73.9
223.323	-20.31
223.541	12.46
223.759	121
223.977	63.66
224.195	34.99
224.413	55.47
224.631	121
224.849	16.55
225.067	129.19
225.285	26.79
225.503	82.09
225.721	45.23
225.939	-1.88
226.157	141.48
226.375	194.73
226.592	4.27
226.81	43.18
227.028	57.51
227.246	143.53
227.464	94.38
227.682	80.04
227.9	80.04
228.117	90.28
228.335	55.47
228.553	100.52
228.771	34.99
228.989	75.95
229.206	114.86
229.424	82.09
229.642	-28.5
229.86	20.65
230.077	61.61
230.295	55.47
230.513	82.09
230.731	131.24
230.948	20.65
231.166	125.1
231.384	26.79
231.601	92.33
231.819	145.58
232.037	14.51
232.254	2.22
232.472	82.09
232.689	28.84
232.907	77.99
233.125	-16.21
233.342	43.18
233.56	84.14
233.777	67.75
233.995	10.41
234.213	116.9
234.43	24.75
234.648	16.55
234.865	22.7
235.083	84.14
235.3	6.31
235.518	4.27
235.735	51.37
235.953	84.14
236.17	75.95
236.388	39.08
236.605	8.36
236.822	114.86
237.04	30.89
237.257	61.61
237.475	59.56
237.692	47.27
237.909	67.75
238.127	69.8
238.344	14.51
238.562	67.75
238.779	-3.93
238.996	-24.4
239.214	96.43
239.431	67.75
239.648	37.03
239.865	92.33
240.083	20.65
240.3	0.17
240.517	127.14
240.735	12.46
240.952	104.62
241.169	69.8
241.386	51.37
241.603	-83.8
241.821	22.7
242.038	151.72
242.255	100.52
242.472	63.66
242.689	90.28
242.907	92.33
243.124	32.94
243.341	47.27
243.558	53.42
243.775	104.62
243.992	88.23
244.209	59.56
244.426	98.47
244.643	100.52
244.86	41.13
245.078	67.75
245.295	10.41
245.512	92.33
245.729	-14.17
245.946	77.99
246.163	18.6
246.38	37.03
246.597	4.27
246.814	82.09
247.031	-36.69
247.248	57.51
247.464	77.99
247.681	69.8
247.898	80.04
248.115	67.75
248.332	100.52
248.549	102.57
248.766	145.58
248.983	71.85
249.2	51.37
249.417	63.66
249.633	-18.26
249.85	55.47
250.067	80.04
250.284	47.27
250.501	106.67
250.717	49.32
250.934	-16.21
251.151	73.9
251.368	61.61
251.585	65.71
251.801	100.52
252.018	16.55
252.235	77.99
252.451	151.72
252.668	59.56
252.885	82.09
253.102	45.23
253.318	-18.26
253.535	141.48
253.752	86.19
253.968	-26.45
254.185	118.95
254.401	153.77
254.618	77.99
254.835	26.79
255.051	34.99
255.268	61.61
255.484	108.71
255.701	63.66
255.917	30.89
256.134	24.75
256.351	114.86
256.567	26.79
256.784	73.9
257	108.71
257.217	69.8
257.433	41.13
257.65	98.47
257.866	-3.93
258.082	90.28
258.299	61.61
258.515	92.33
258.732	80.04
258.948	63.66
259.165	75.95
259.381	71.85
259.597	80.04
259.814	61.61
260.03	59.56
260.246	121
260.463	18.6
260.679	75.95
260.895	98.47
261.112	100.52
261.328	49.32
261.544	47.27
261.761	114.86
261.977	71.85
262.193	77.99
262.409	106.67
262.626	67.75
262.842	96.43
263.058	51.37
263.274	151.72
263.49	96.43
263.707	47.27
263.923	-5.97
264.139	-3.93
264.355	59.56
264.571	0.17
264.787	53.42
265.004	37.03
265.22	34.99
265.436	73.9
265.652	2.22
265.868	77.99
266.084	80.04
266.3	39.08
266.516	114.86
266.732	61.61
266.948	104.62
267.164	61.61
267.38	73.9
267.596	37.03
267.812	112.81
268.028	69.8
268.244	34.99
268.46	63.66
268.676	43.18
268.892	73.9
269.108	51.37
269.324	8.36
269.54	86.19
269.756	77.99
269.972	6.31
270.188	47.27
270.403	8.36
270.619	53.42
270.835	53.42
271.051	110.76
271.267	71.85
271.483	73.9
271.698	104.62
271.914	69.8
272.13	71.85
272.346	51.37
272.562	39.08
272.777	53.42
272.993	32.94
273.209	20.65
273.425	30.89
273.64	0.17
273.856	61.61
274.072	114.86
274.287	47.27
274.503	77.99
274.719	47.27
274.934	51.37
275.15	61.61
275.366	63.66
275.581	53.42
275.797	100.52
276.012	20.65
276.228	75.95
276.444	98.47
276.659	145.58
276.875	-53.08
277.09	-38.74
277.306	-36.69
277.521	6.31
277.737	49.32
277.952	63.66
278.168	53.42
278.383	84.14
278.599	45.23
278.814	98.47
279.03	84.14
279.245	30.89
279.461	53.42
279.676	51.37
279.892	55.47
280.107	82.09
280.322	133.29
280.538	45.23
280.753	84.14
280.969	30.89
281.184	92.33
281.399	90.28
281.615	82.09
281.83	121
282.045	80.04
282.26	16.55
282.476	80.04
282.691	149.67
282.906	69.8
283.122	118.95
283.337	57.51
283.552	45.23
283.767	49.32
283.983	47.27
284.198	71.85
284.413	94.38
284.628	28.84
284.843	90.28
285.058	30.89
285.274	137.38
285.489	71.85
285.704	37.03
285.919	32.94
286.134	129.19
286.349	86.19
286.564	80.04
286.779	80.04
286.995	57.51
287.21	10.41
287.425	32.94
287.64	47.27
287.855	57.51
288.07	-16.21
288.285	-3.93
288.5	49.32
288.715	102.57
288.93	51.37
289.145	102.57
289.36	-12.12
289.575	77.99
289.79	174.25
290.004	82.09
290.219	65.71
290.434	98.47
290.649	26.79
290.864	86.19
291.079	73.9
291.294	65.71
291.509	100.52
291.724	102.57
291.938	41.13
292.153	127.14
292.368	61.61
292.583	-10.07
292.798	22.7
293.012	53.42
293.227	75.95
293.442	73.9
293.657	65.71
293.871	118.95
294.086	57.51
294.301	143.53
294.516	-24.4
294.73	-36.69
294.945	32.94
295.16	67.75
295.374	121
295.589	106.67
295.804	84.14
296.018	30.89
296.233	8.36
296.447	94.38
296.662	102.57
296.877	98.47
297.091	49.32
297.306	139.43
297.52	-5.97
297.735	77.99
297.949	98.47
298.164	49.32
298.378	30.89
298.593	98.47
298.807	55.47
299.022	77.99
299.236	34.99
299.451	18.6
299.665	41.13
299.88	26.79
300.094	114.86
300.309	57.51
300.523	55.47
300.737	22.7
300.952	67.75
301.166	133.29
301.381	39.08
301.595	75.95
301.809	67.75
302.024	106.67
302.238	75.95
302.452	104.62
302.667	82.09
302.881	63.66
303.095	14.51
303.309	98.47
303.524	39.08
303.738	106.67
303.952	24.75
304.166	53.42
304.381	30.89
304.595	147.62
304.809	10.41
305.023	94.38
305.237	71.85
305.452	80.04
305.666	59.56
305.88	82.09
306.094	-8.02
306.308	143.53
306.522	108.71
306.736	24.75
306.95	110.76
307.164	98.47
307.379	80.04
307.593	137.38
307.807	39.08
308.021	170.15
308.235	88.23
308.449	14.51
308.663	65.71
308.877	98.47
309.091	73.9
309.305	92.33
309.519	96.43
309.733	65.71
309.947	53.42
310.161	131.24
310.374	114.86
310.588	131.24
310.802	75.95
311.016	100.52
311.23	6.31
311.444	59.56
311.658	39.08
311.872	147.62
312.085	49.32
312.299	34.99
312.513	174.25
312.727	106.67
312.941	55.47
313.154	123.05
313.368	110.76
313.582	55.47
313.796	92.33
314.009	98.47
314.223	112.81
314.437	106.67
314.651	159.91
314.864	51.37
315.078	112.81
315.292	59.56
315.505	49.32
315.719	194.73
315.933	53.42
316.146	16.55
316.36	110.76
316.573	112.81
316.787	63.66
317.001	106.67
317.214	8.36
317.428	100.52
317.641	39.08
317.855	133.29
318.068	28.84
318.282	102.57
318.495	34.99
318.709	98.47
318.922	14.51
319.136	26.79
319.349	24.75
319.563	20.65
319.776	92.33
319.99	30.89
320.203	84.14
320.417	84.14
320.63	0.17
320.843	96.43
321.057	77.99
321.27	61.61
321.483	71.85
321.697	84.14
321.91	75.95
322.124	30.89
322.337	94.38
322.55	28.84
322.763	110.76
322.977	143.53
323.19	53.42
323.403	61.61
323.617	12.46
323.83	137.38
324.043	100.52
324.256	86.19
324.469	16.55
324.683	92.33
324.896	92.33
325.109	77.99
325.322	-16.21
325.535	112.81
325.748	59.56
325.962	82.09
326.175	57.51
326.388	88.23
326.601	53.42
326.814	51.37
327.027	112.81
327.24	98.47
327.453	8.36
327.666	100.52
327.879	77.99
328.092	92.33
328.305	45.23
328.518	65.71
328.731	45.23
328.944	53.42
329.157	92.33
329.37	6.31
329.583	110.76
329.796	90.28
330.009	45.23
330.222	90.28
330.435	90.28
330.648	168.1
330.861	16.55
331.073	106.67
331.286	114.86
331.499	-5.97
331.712	84.14
331.925	102.57
332.138	114.86
332.35	104.62
332.563	114.86
332.776	2.22
332.989	104.62
333.202	6.31
333.414	10.41
333.627	73.9
333.84	32.94
334.053	123.05
334.265	14.51
334.478	77.99
334.691	61.61
334.903	59.56
335.116	28.84
335.329	96.43
335.541	80.04
335.754	34.99
335.966	59.56
336.179	61.61
336.392	57.51
336.604	108.71
336.817	129.19
337.029	71.85
337.242	8.36
337.454	53.42
337.667	49.32
337.88	86.19
338.092	121
338.305	94.38
338.517	47.27
338.729	112.81
338.942	135.34
339.154	92.33
339.367	16.55
339.579	100.52
339.792	86.19
340.004	65.71
340.217	24.75
340.429	47.27
340.641	69.8
340.854	49.32
341.066	59.56
341.278	110.76
341.491	166.06
341.703	102.57
341.915	41.13
342.128	82.09
342.34	135.34
342.552	63.66
342.764	96.43
342.977	145.58
343.189	98.47
343.401	159.91
343.613	88.23
343.826	59.56
344.038	51.37
344.25	139.43
344.462	57.51
344.674	141.48
344.886	77.99
345.099	75.95
345.311	18.6
345.523	123.05
345.735	39.08
345.947	47.27
346.159	67.75
346.371	45.23
346.583	86.19
346.795	94.38
347.007	51.37
347.219	63.66
347.431	129.19
347.643	34.99
347.855	104.62
348.067	86.19
348.279	22.7
348.491	164.01
348.703	34.99
348.915	137.38
349.127	116.9
349.339	61.61
349.551	69.8
349.763	71.85
349.975	61.61
350.187	104.62
350.399	88.23
350.61	26.79
350.822	172.2
351.034	30.89
351.246	71.85
351.458	121
351.669	59.56
351.881	82.09
352.093	71.85
352.305	151.72
352.517	53.42
352.728	80.04
352.94	10.41
353.152	96.43
353.363	57.51
353.575	43.18
353.787	18.6
353.999	49.32
354.21	110.76
354.422	-1.88
354.633	63.66
354.845	112.81
355.057	69.8
355.268	102.57
355.48	37.03
355.692	84.14
355.903	6.31
356.115	123.05
356.326	41.13
356.538	59.56
356.749	88.23
356.961	129.19
357.172	137.38
357.384	22.7
357.595	106.67
357.807	67.75
358.018	77.99
358.23	67.75
358.441	69.8
358.653	63.66
358.864	12.46
359.075	-16.21
359.287	22.7
359.498	104.62
359.709	49.32
359.921	-5.97
360.132	71.85
360.344	153.77
360.555	28.84
360.766	55.47
360.977	63.66
361.189	96.43
361.4	55.47
361.611	92.33
361.823	43.18
362.034	55.47
362.245	94.38
362.456	88.23
362.667	123.05
362.879	86.19
363.09	112.81
363.301	55.47
363.512	57.51
363.723	80.04
363.935	141.48
364.146	131.24
364.357	90.28
364.568	131.24
364.779	77.99
364.99	65.71
365.201	75.95
365.412	121
365.623	41.13
365.834	116.9
366.045	121
366.256	90.28
366.467	100.52
366.678	129.19
366.889	106.67
367.1	37.03
367.311	65.71
367.522	32.94
367.733	77.99
367.944	84.14
368.155	112.81
368.366	135.34
368.577	43.18
368.788	84.14
368.999	84.14
369.209	157.86
369.42	96.43
369.631	135.34
369.842	82.09
370.053	57.51
370.264	22.7
370.474	92.33
370.685	80.04
370.896	49.32
371.107	65.71
371.317	57.51
371.528	80.04
371.739	137.38
371.95	10.41
372.16	43.18
372.371	67.75
372.582	26.79
372.792	147.62
373.003	45.23
373.214	61.61
373.424	149.67
373.635	65.71
373.846	75.95
374.056	104.62
374.267	104.62
374.477	96.43
374.688	18.6
374.898	98.47
375.109	108.71
375.319	110.76
375.53	90.28
375.74	92.33
375.951	55.47
376.161	147.62
376.372	100.52
376.582	32.94
376.793	123.05
377.003	116.9
377.214	47.27
377.424	137.38
377.635	4.27
377.845	61.61
378.055	94.38
378.266	30.89
378.476	106.67
378.686	170.15
378.897	110.76
379.107	53.42
379.317	114.86
379.528	100.52
379.738	90.28
379.948	55.47
380.158	112.81
380.369	88.23
380.579	47.27
380.789	73.9
380.999	149.67
381.21	51.37
381.42	159.91
381.63	100.52
381.84	63.66
382.05	116.9
382.261	143.53
382.471	37.03
382.681	63.66
382.891	12.46
383.101	102.57
383.311	90.28
383.521	90.28
383.731	98.47
383.941	118.95
384.151	112.81
384.361	125.1
384.571	55.47
384.781	69.8
384.991	98.47
385.201	123.05
385.411	147.62
385.621	92.33
385.831	151.72
386.041	82.09
386.251	77.99
386.461	98.47
386.671	49.32
386.881	145.58
387.091	129.19
387.301	100.52
387.511	53.42
387.72	106.67
387.93	182.44
388.14	55.47
388.35	102.57
388.56	159.91
388.769	112.81
388.979	86.19
389.189	32.94
389.399	55.47
389.609	123.05
389.818	159.91
390.028	51.37
390.238	98.47
390.447	63.66
390.657	164.01
390.867	127.14
391.076	82.09
391.286	100.52
391.496	131.24
391.705	84.14
391.915	155.82
392.125	121
392.334	41.13
392.544	184.49
392.753	45.23
392.963	135.34
393.172	133.29
393.382	112.81
393.591	127.14
393.801	55.47
394.01	143.53
394.22	145.58
394.429	141.48
394.639	116.9
394.848	149.67
395.058	98.47
395.267	114.86
395.477	166.06
395.686	133.29
395.895	164.01
396.105	164.01
396.314	145.58
396.524	133.29
396.733	172.2
396.942	127.14
397.152	221.35
397.361	188.58
397.57	116.9
397.78	172.2
397.989	98.47
398.198	188.58
398.407	155.82
398.617	125.1
398.826	112.81
399.035	159.91
399.244	200.87
399.453	151.72
399.663	135.34
399.872	282.79
400.081	198.82
400.29	190.63
400.499	102.57
400.708	151.72
400.917	112.81
401.127	104.62
401.336	159.91
401.545	176.3
401.754	166.06
401.963	188.58
402.172	151.72
402.381	139.43
402.59	227.5
402.799	209.06
403.008	194.73
403.217	196.78
403.426	147.62
403.635	166.06
403.844	188.58
404.053	194.73
404.262	198.82
404.471	202.92
404.68	237.74
404.888	274.6
405.097	233.64
405.306	209.06
405.515	176.3
405.724	276.65
405.933	237.74
406.142	315.56
406.35	194.73
406.559	211.11
406.768	229.54
406.977	301.22
407.185	284.84
407.394	266.41
407.603	313.51
407.812	340.13
408.02	323.75
408.229	290.98
408.438	360.61
408.646	313.51
408.855	389.28
409.064	432.29
409.272	393.38
409.481	379.04
409.69	374.95
409.898	407.72
410.107	465.06
410.315	436.39
410.524	426.15
410.733	559.27
410.941	493.73
411.15	546.98
411.358	534.69
411.567	512.16
411.775	508.07
411.984	540.83
412.192	557.22
412.401	608.42
412.609	583.84
412.818	694.43
413.026	622.75
413.234	708.77
413.443	698.53
413.651	608.42
413.86	766.11
414.068	790.69
414.276	850.08
414.485	786.59
414.693	862.37
414.901	882.85
415.11	903.32
415.318	884.89
415.526	872.61
415.734	1110.17
415.943	1073.31
416.151	1108.12
416.359	1050.78
416.567	1046.68
416.776	1155.23
416.984	1222.81
417.192	1251.48
417.4	1314.97
417.608	1317.01
417.817	1390.74
418.025	1394.84
418.233	1548.44
418.441	1476.76
418.649	1437.84
418.857	1747.09
419.065	1663.12
419.273	1777.81
419.481	1761.42
419.689	1902.73
419.897	1863.82
420.105	1980.56
420.313	2039.95
420.521	2074.76
420.729	2013.32
420.937	2197.64
421.145	2252.94
421.353	2306.18
421.561	2351.24
421.769	2558.08
421.977	2742.4
422.185	2564.23
422.393	2793.6
422.601	2957.44
422.809	2898.05
423.017	3063.93
423.224	3080.32
423.432	3246.2
423.64	3217.53
423.848	3440.76
424.056	3459.19
424.263	3696.75
424.471	3668.08
424.679	3745.91
424.887	3993.71
425.094	4059.24
425.302	4141.16
425.51	4221.03
425.718	4233.32
425.925	4397.16
426.133	4513.89
426.341	4806.75
426.548	5081.18
426.756	5132.38
426.964	5179.48
427.171	5578.84
427.379	5494.87
427.586	5640.28
427.794	5810.26
428.001	6039.63
428.209	6408.26
428.417	6113.36
428.624	6586.44
428.832	6645.83
429.039	6469.7
429.247	6621.25
429.454	7292.99
429.662	7766.07
429.869	7227.45
430.076	7843.89
430.284	7639.09
430.491	7872.56
430.699	8396.84
430.906	8278.06
431.114	8550.44
431.321	8802.34
431.528	9035.81
431.736	9461.79
431.943	9943.06
432.15	9443.35
432.358	9603.1
432.565	10278.93
432.772	10084.37
432.979	10852.36
433.187	10899.46
433.394	10756.1
433.601	11812.85
433.808	11894.77
434.016	11556.86
434.223	12378.09
434.43	13021.16
434.637	12484.59
434.844	13404.13
435.052	13535.2
435.259	13512.67
435.466	13830.1
435.673	13613.02
435.88	14516.17
436.087	15333.31
436.294	15181.76
436.501	15124.42
436.708	15288.26
436.915	15790.01
437.122	16101.3
437.329	16451.5
437.537	16881.58
437.743	17156
437.95	17242.02
438.157	18091.93
438.364	18415.51
438.571	18696.08
438.778	18583.44
438.985	20365.17
439.192	19509.12
439.399	19982.2
439.606	19734.4
439.813	20862.83
440.02	22073.18
440.227	21657.44
440.433	21528.42
440.64	22290.26
440.847	22306.65
441.054	22566.74
441.261	24215.35
441.467	23844.67
441.674	24389.43
441.881	25161.51
442.088	25323.3
442.294	24950.57
442.501	25534.25
442.708	25962.27
442.914	26908.43
443.121	28448.5
443.328	27436.81
443.534	29447.91
443.741	28827.38
443.948	28241.66
444.154	30400.22
444.361	29966.05
444.568	30357.21
444.774	30418.65
444.981	30807.76
445.187	31745.73
445.394	33064.63
445.6	32386.75
445.807	35606.16
446.013	33937.06
446.22	35038.87
446.426	35894.92
446.633	36296.32
446.839	37690.99
447.046	35995.27
447.252	38030.95
447.459	37772.91
447.665	37949.03
447.871	39325.27
448.078	41305.65
448.284	39300.69
448.491	40248.9
448.697	42294.82
448.903	42745.37
449.11	42642.98
449.316	42122.79
449.522	43021.85
449.728	44219.91
449.935	44314.12
450.141	44125.71
450.347	45299.19
450.553	44195.34
450.76	44951.04
450.966	45985.26
451.172	45202.94
451.378	46386.66
451.584	45700.59
451.791	46853.6
451.997	46648.8
452.203	47742.42
452.409	47539.67
452.615	47410.65
452.821	45618.67
453.027	45346.29
453.233	47447.51
453.44	45655.54
453.646	46116.33
453.852	46517.73
454.058	47119.84
454.264	45680.11
454.47	46603.75
454.676	45508.08
454.882	47271.39
455.088	43071
455.294	43664.91
455.5	43986.44
455.705	44246.54
455.911	43197.98
456.117	42249.77
456.323	41809.45
456.529	39605.84
456.735	41250.36
456.941	40652.35
457.147	39718.48
457.352	38561.37
457.558	37979.75
457.764	38039.14
457.97	37488.24
458.176	36660.86
458.381	36421.25
458.587	35284.62
458.793	34915.99
458.999	32741.05
459.204	35524.24
459.41	34289.31
459.616	32302.78
459.821	32280.25
460.027	32112.32
460.233	31475.4
460.438	29863.65
460.644	30299.87
460.85	28716.79
461.055	28423.93
461.261	28194.56
461.466	26216.22
461.672	25208.62
461.878	27420.42
462.083	25388.84
462.289	24989.49
462.494	24934.19
462.7	23789.38
462.905	22978.38
463.111	23895.87
463.316	23885.63
463.522	23265.1
463.727	23527.24
463.932	23213.9
464.138	23150.41
464.343	23080.78
464.549	22388.57
464.754	23293.77
464.959	23086.92
465.165	23023.44
465.37	21940.06
465.575	21313.38
465.781	22267.73
465.986	22417.24
466.191	21579.62
466.397	21067.63
466.602	20029.31
466.807	20785.01
467.012	20901.74
467.218	20828.01
467.423	20723.57
467.628	20516.72
467.833	21546.85
468.038	20911.98
468.244	20182.9
468.449	20721.52
468.654	20223.86
468.859	20031.35
469.064	19699.58
469.269	19287.94
469.474	19459.97
469.679	19709.82
469.885	19246.98
470.09	19455.87
470.295	19259.27
470.5	19001.22
470.705	19072.9
470.91	18321.3
471.115	18038.68
471.32	18839.44
471.525	18526.1
471.73	18128.79
471.935	17921.95
472.139	17461.15
472.344	17395.62
472.549	17713.05
472.754	17248.16
472.959	17039.27
473.164	16326.58
473.369	16390.06
473.574	16844.71
473.778	16850.86
473.983	16449.46
474.188	16619.44
474.393	15663.04
474.598	16246.71
474.802	15841.21
475.007	15427.52
475.212	15663.04
475.417	15091.65
475.621	15009.73
475.826	14929.86
476.031	14763.98
476.235	14753.74
476.44	14763.98
476.645	14428.11
476.849	14405.58
477.054	14178.26
477.259	13758.42
477.463	14096.34
477.668	13807.58
477.872	13799.38
478.077	13803.48
478.282	13225.95
478.486	13209.57
478.691	13121.51
478.895	13121.51
479.1	12853.22
479.304	13139.94
479.509	12574.7
479.713	12908.52
479.918	12546.03
480.122	12292.08
480.326	12539.88
480.531	12500.97
480.735	12480.49
480.94	12392.43
481.144	12673
481.348	11952.12
481.553	12273.65
481.757	12068.85
481.961	12195.82
482.166	12234.74
482.37	12113.91
482.574	11868.15
482.778	11931.64
482.983	12226.54
483.187	12050.42
483.391	12120.05
483.595	11718.65
483.8	11802.61
484.004	12175.34
484.208	12183.54
484.412	11749.37
484.616	11814.9
484.821	12011.51
485.025	11810.81
485.229	12163.06
485.433	11923.44
485.637	12017.65
485.841	11696.12
486.045	11642.87
486.249	11943.92
486.453	11892.73
486.657	11948.02
486.861	12056.56
487.065	11444.22
487.269	12038.13
487.473	11796.47
487.677	11847.67
487.881	11814.9
488.085	11661.3
488.289	12001.27
488.493	11921.4
488.697	12038.13
488.901	12132.34
489.105	11956.21
489.309	12118
489.512	12029.94
489.716	11945.97
489.92	12152.82
490.124	12003.32
490.328	12376.05
490.531	12109.81
490.735	12279.79
490.939	12275.7
491.143	12328.94
491.346	12277.74
491.55	12318.7
491.754	12292.08
491.958	12410.86
492.161	12433.39
492.365	12462.06
492.569	12322.8
492.772	12623.85
492.976	12554.22
493.18	12799.98
493.383	12937.19
493.587	12965.86
493.79	12908.52
493.994	12840.93
494.197	12771.3
494.401	13125.6
494.605	13146.08
494.808	13293.54
495.012	13369.31
495.215	13361.12
495.419	13551.58
495.622	13613.02
495.825	13713.37
496.029	13760.47
496.232	14059.48
496.436	14026.71
496.639	14493.65
496.843	14368.72
497.046	14778.31
497.249	14544.84
497.453	14841.8
497.656	15062.98
497.859	14831.56
498.063	15079.36
498.266	15171.52
498.469	15443.9
498.673	15241.15
498.876	15736.76
499.079	16007.09
499.282	15910.84
499.485	16308.15
499.689	16224.18
499.892	16388.02
500.095	16476.08
500.298	16725.93
500.501	16719.79
500.705	17280.93
500.908	17545.12
501.111	17487.78
501.314	17860.51
501.517	18071.45
501.72	18263.96
501.923	18175.89
502.126	18599.82
502.329	18894.73
502.532	18943.88
502.735	18837.39
502.938	19443.59
503.141	19468.16
503.344	19785.6
503.547	19912.57
503.75	20017.02
503.953	20369.27
504.156	20543.35
504.359	21073.77
504.562	20875.12
504.765	21297
504.968	21374.82
505.17	21606.24
505.373	21716.83
505.576	22179.67
505.779	22638.42
505.982	22648.66
506.185	22816.59
506.387	23111.5
506.59	23383.88
506.793	23811.9
506.996	23701.31
507.198	24440.63
507.401	24123.19
507.604	24106.81
507.807	24930.09
508.009	25376.55
508.212	25151.27
508.415	25507.62
508.617	25888.54
508.82	26107.68
509.022	25841.44
509.225	26502.93
509.428	26887.95
509.63	27164.43
509.833	27117.32
510.035	28126.97
510.238	27870.98
510.44	28006.14
510.643	28536.57
510.845	28727.03
511.048	28839.67
511.25	29173.49
511.453	29232.88
511.655	30277.34
511.858	29966.05
512.06	30154.46
512.262	30699.22
512.465	30850.77
512.667	31309.52
512.87	31430.35
513.072	31317.71
513.274	32276.16
513.477	32444.09
513.679	32859.83
513.881	33066.67
514.084	33183.41
514.286	33595.05
514.488	33644.2
514.69	34643.61
514.893	34498.2
515.095	34563.74
515.297	35094.16
515.499	35706.51
515.701	35653.26
515.904	35982.98
516.106	36134.53
516.308	36910.71
516.51	37363.31
516.712	36998.77
516.914	37682.8
517.116	38063.72
517.318	37903.98
517.52	38563.42
517.722	38624.86
517.925	39179.86
518.127	39468.62
518.329	39874.12
518.531	39624.27
518.733	40543.81
518.935	40930.87
519.136	41008.7
519.338	41414.19
519.54	41602.61
519.742	42100.26
519.944	42233.38
520.146	42661.41
520.348	42905.12
520.55	43085.34
520.752	43609.62
520.954	43937.29
521.155	43372.05
521.357	44750.34
521.559	44817.92
521.761	45123.07
521.963	45317.62
522.164	45770.22
522.366	45788.66
522.568	45913.58
522.77	46417.38
522.971	47048.16
523.173	46628.32
523.375	47255
523.576	47168.99
523.778	47527.38
523.98	48027.09
524.181	48203.21
524.383	48172.49
524.584	49098.17
524.786	49190.33
524.988	48639.43
525.189	49393.08
525.391	49540.53
525.592	49792.43
525.794	49937.84
525.995	49982.9
526.197	50333.1
526.398	50275.76
526.6	50863.52
526.801	50783.65
527.003	50806.18
527.204	50748.84
527.406	51441.05
527.607	51285.4
527.808	51778.96
528.01	51017.12
528.211	51418.52
528.412	52419.98
528.614	51965.33
528.815	52082.06
529.016	53122.43
529.218	52342.16
529.419	52385.16
529.62	52692.36
529.822	52571.53
530.023	52753.8
530.224	52653.45
530.425	52798.85
530.626	52958.59
530.828	52417.93
531.029	53572.99
531.23	52819.33
531.431	53446.01
531.632	53173.63
531.833	53546.36
532.035	53656.95
532.236	53355.9
532.437	53749.11
532.638	53411.2
532.839	53628.28
533.04	53964.15
533.241	53321.09
533.442	53857.65
533.643	53431.68
533.844	53656.95
534.045	53712.25
534.246	53624.18
534.447	54187.38
534.648	53183.87
534.849	53962.1
535.05	53562.75
535.251	54076.79
535.451	53661.05
535.652	53732.73
535.853	53523.83
536.054	53943.67
536.255	54037.87
536.456	53466.49
536.657	54078.83
536.857	53431.68
537.058	53513.59
537.259	54439.28
537.46	53896.56
537.66	53738.87
537.861	54078.83
538.062	53564.79
538.263	54189.42
538.463	53247.36
538.664	53599.61
538.865	54115.7
539.065	54232.43
539.266	53308.8
539.466	54160.75
539.667	53435.77
539.868	54230.38
540.068	53726.58
540.269	53278.08
540.469	54240.62
540.67	53398.91
540.87	53173.63
541.071	53726.58
541.271	53706.1
541.472	53689.72
541.672	53132.67
541.873	53128.58
542.073	52919.68
542.274	53527.93
542.474	53345.66
542.675	53243.26
542.875	53798.26
543.075	53640.57
543.276	52809.09
543.476	53689.72
543.676	53185.92
543.877	53372.28
544.077	53218.69
544.277	52964.74
544.478	53417.34
544.678	53118.34
544.878	53431.68
545.078	53271.93
545.279	52864.39
545.479	53333.37
545.679	53173.63
545.879	53269.89
546.079	53306.75
546.28	52862.34
546.48	52718.98
546.68	53198.21
546.88	53104
547.08	53292.41
547.28	52620.68
547.48	52587.91
547.68	52983.17
547.88	52565.38
548.081	53075.33
548.281	52884.87
548.481	53181.82
548.681	53071.23
548.881	53026.18
549.081	52745.61
549.28	52864.39
549.48	53167.49
549.68	52880.77
549.88	53480.83
550.08	52698.5
550.28	52774.28
550.48	52815.24
550.68	53134.72
550.88	52471.18
551.08	52358.54
551.279	52944.26
551.479	52178.32
551.679	52766.09
551.879	52737.41
552.079	52987.27
552.278	52575.62
552.478	52819.33
552.678	52596.1
552.878	53038.47
553.077	52637.06
553.277	52200.85
553.477	53087.62
553.676	52213.13
553.876	52333.96
554.076	51998.1
554.275	52286.86
554.475	51332.51
554.674	52135.31
554.874	51934.61
555.074	52180.37
555.273	51981.71
555.473	52624.78
555.672	51799.44
555.872	52243.85
556.071	52221.33
556.271	52186.51
556.47	51834.26
556.67	51613.08
556.869	51910.03
557.068	51979.67
557.268	51320.22
557.467	51539.35
557.667	51654.04
557.866	51379.61
558.065	51752.34
558.265	51029.41
558.464	51262.88
558.663	51795.35
558.863	51133.85
559.062	51744.15
559.261	51023.26
559.461	51928.47
559.66	50746.79
559.859	51051.94
560.058	51035.55
560.258	51101.09
560.457	50437.55
560.656	51324.32
560.855	50582.95
561.054	50861.47
561.253	50550.18
561.453	50820.52
561.652	50417.07
561.851	50621.86
562.05	50435.5
562.249	49886.64
562.448	50406.83
562.647	49823.15
562.846	50109.87
563.045	50173.36
563.244	49290.68
563.443	50486.7
563.642	49630.65
563.841	49853.87
564.04	49565.11
564.239	49968.56
564.438	49614.26
564.637	49462.71
564.836	49397.18
565.035	49063.36
565.234	49257.92
565.432	48711.11
565.631	48737.73
565.83	48793.03
566.029	48930.24
566.228	48604.61
566.427	48627.14
566.625	48346.57
566.824	47846.86
567.023	48629.19
567.222	47568.34
567.42	48096.72
567.619	48074.19
567.818	48385.48
568.016	47562.2
568.215	48192.97
568.414	47402.46
568.612	48240.07
568.811	47406.55
569.01	47439.32
569.208	46829.02
569.407	47490.52
569.605	46771.68
569.804	47089.12
570.002	46919.13
570.201	46921.18
570.4	46622.18
570.598	45950.45
570.797	46343.66
570.995	46460.39
571.193	45682.16
571.392	46392.81
571.59	45676.02
571.789	46104.04
571.987	45549.04
572.186	45299.19
572.384	45714.93
572.582	45551.09
572.781	45862.38
572.979	45030.91
573.177	45260.28
573.376	45422.07
573.574	44750.34
573.772	45186.55
573.971	44985.85
574.169	44684.8
574.367	43877.9
574.565	44740.1
574.763	43937.29
574.962	44074.51
575.16	43574.8
575.358	44318.21
575.556	43595.28
575.754	43972.11
575.952	43509.27
576.151	44332.55
576.349	43048.47
576.547	43216.41
576.745	43175.45
576.943	43124.25
577.141	43044.38
577.339	43097.63
577.537	42516
577.735	42737.18
577.933	42307.11
578.131	42991.13
578.329	42200.61
578.527	42067.5
578.725	42116.65
578.923	42077.74
579.121	41895.47
579.319	41768.49
579.516	42112.55
579.714	41670.19
579.912	41678.38
580.11	41160.25
580.308	41506.35
580.506	41244.21
580.704	40685.12
580.901	41418.29
581.099	41281.08
581.297	40896.06
581.495	40556.1
581.692	40660.54
581.89	40310.34
582.088	40476.23
582.285	40037.96
582.483	40289.86
582.681	40078.92
582.878	39870.03
583.076	39931.47
583.274	40105.54
583.471	39595.6
583.669	39571.02
583.866	39401.04
584.064	39554.64
584.262	38788.7
584.459	39284.31
584.657	38968.92
584.854	38927.96
585.052	38467.17
585.249	38555.23
585.447	38889.05
585.644	38270.56
585.841	38598.24
586.039	38766.17
586.236	37813.87
586.434	37916.26
586.631	38067.81
586.828	38102.63
587.026	37860.97
587.223	37705.32
587.42	37615.21
587.618	37680.75
587.815	37181.04
588.012	37150.32
588.21	36900.47
588.407	37305.97
588.604	36798.07
588.801	36857.46
588.999	36695.67
589.196	36771.45
589.393	36621.95
589.59	36284.03
589.787	36327.04
589.984	36216.45
590.182	35991.17
590.379	35729.03
590.576	35380.88
590.773	36058.76
590.97	35634.83
591.167	35747.47
591.364	35522.19
591.561	35673.74
591.758	35247.76
591.955	35202.71
592.152	35188.37
592.349	34786.97
592.546	35126.93
592.743	35081.88
592.94	34391.71
593.137	34707.1
593.334	34674.33
593.531	33902.25
593.727	34461.34
593.924	34272.93
594.121	34086.56
594.318	34418.33
594.515	33636.01
594.712	33975.97
594.908	33537.71
595.105	33767.08
595.302	33404.59
595.499	33621.67
595.696	33105.59
595.892	32784.05
596.089	33220.27
596.286	32972.47
596.482	33138.35
596.679	32927.41
596.876	32673.46
597.072	32612.03
597.269	32730.81
597.466	32665.27
597.662	32448.19
597.859	32124.61
598.055	32143.04
598.252	31833.8
598.448	32108.22
598.645	31758.02
598.841	31538.89
599.038	32005.83
599.234	31542.99
599.431	31405.77
599.627	31502.03
599.824	31383.24
600.02	31305.42
600.217	31231.69
600.413	31061.71
600.609	30746.33
600.806	30475.99
601.002	30838.48
601.198	30400.22
601.395	30656.21
601.591	30557.91
601.787	30047.97
601.984	29886.18
602.18	30412.51
602.376	30107.36
602.572	29724.39
602.769	30152.41
602.965	29468.39
603.161	29933.28
603.357	29329.13
603.553	29476.58
603.75	29376.23
603.946	29220.59
604.142	29587.18
604.338	28884.72
604.534	29265.64
604.73	29050.61
604.926	28819.19
605.122	28993.26
605.318	28925.68
605.514	28722.93
605.71	28442.36
605.906	28518.14
606.102	28532.47
606.298	28503.8
606.494	28471.03
606.69	28450.55
606.886	28456.7
607.082	28083.97
607.278	28245.76
607.474	27660.04
607.67	27971.33
607.866	27272.97
608.062	27954.94
608.257	27584.26
608.453	27571.97
608.649	27674.37
608.845	27447.05
609.041	27625.22
609.236	27410.18
609.432	27201.29
609.628	27197.2
609.824	27016.97
610.019	27244.3
610.215	27236.11
610.411	27412.23
610.606	26808.08
610.802	27205.39
610.998	27213.58
611.193	26697.49
611.389	26586.9
611.584	26849.04
611.78	26543.89
611.976	26468.12
612.171	26638.1
612.367	26308.38
612.562	26685.2
612.758	25976.61
612.953	26068.76
613.149	26382.1
613.344	25947.93
613.539	26322.71
613.735	25933.6
613.93	26087.2
614.126	26050.33
614.321	26275.61
614.517	25839.39
614.712	25714.47
614.907	25497.38
615.103	25964.32
615.298	25618.21
615.493	25968.41
615.688	25405.22
615.884	25874.21
616.079	25335.59
616.274	25499.43
616.47	25145.13
616.665	25249.58
616.86	24975.15
617.055	25220.91
617.25	25118.51
617.445	25237.29
617.641	24590.13
617.836	24944.43
618.031	24710.96
618.226	24819.5
618.421	24522.55
618.616	24663.86
618.811	24401.72
619.006	24952.62
619.201	24211.26
619.396	24098.62
619.591	23975.74
619.786	24205.11
619.981	23670.59
620.176	23957.31
620.371	23736.13
620.566	23570.24
620.761	23342.92
620.956	23684.93
621.151	23265.1
621.346	23177.03
621.541	22937.42
621.735	23174.99
621.93	22665.04
622.125	22757.2
622.32	22701.9
622.515	22738.77
622.709	22376.28
622.904	22165.34
623.099	22331.22
623.294	22224.73
623.488	21954.4
623.683	22101.85
623.878	21882.72
624.072	21630.82
624.267	21970.78
624.462	21655.39
624.656	21360.48
624.851	21559.14
625.046	21184.36
625.24	21094.25
625.435	20733.81
625.629	20608.88
625.824	20658.03
626.018	20498.29
626.213	20129.66
626.407	20477.81
626.602	20242.29
626.796	20363.12
626.991	20246.39
627.185	20230.01
627.38	19687.29
627.574	19775.36
627.768	19412.87
627.963	19591.04
628.157	19402.63
628.352	19308.42
628.546	19083.14
628.74	19025.8
628.935	19099.53
629.129	18841.48
629.323	18673.55
629.517	18696.08
629.712	18835.34
629.906	18698.13
630.1	17991.58
630.294	18378.64
630.489	17956.76
630.683	18397.07
630.877	18077.59
631.071	17936.28
631.265	18012.06
631.459	17827.74
631.653	17756.06
631.848	17543.07
632.042	17303.46
632.236	17694.62
632.43	17211.3
632.624	17256.36
632.818	17184.68
633.012	16766.89
633.206	17125.29
633.4	17184.68
633.594	16756.65
633.788	16498.61
633.982	16680.88
634.176	16773.03
634.369	16428.98
634.563	16213.94
634.757	16281.52
634.951	16471.98
635.145	16248.75
635.339	16271.28
635.533	15873.98
635.726	15994.81
635.92	15835.07
636.114	15767.48
636.308	15628.22
636.501	15769.53
636.695	15218.63
636.889	15433.66
637.083	15222.72
637.276	14997.45
637.47	15292.35
637.664	14993.35
637.857	14974.92
638.051	14913.48
638.244	14794.7
638.438	14739.4
638.632	14530.51
638.825	14571.47
639.019	14407.63
639.212	14305.23
639.406	14251.99
639.599	14366.67
639.793	14383.06
639.986	13959.13
640.18	14159.83
640.373	13873.11
640.567	13846.49
640.76	13905.88
640.954	13787.1
641.147	13615.07
641.34	13457.37
641.534	13459.42
641.727	13328.35
641.92	13223.9
642.114	13191.14
642.307	13193.19
642.5	13242.34
642.694	12980.2
642.887	12916.71
643.08	13023.2
643.273	12746.73
643.467	12771.3
643.66	12804.07
643.853	12738.54
644.046	12498.92
644.239	12480.49
644.432	12357.61
644.626	12400.62
644.819	12326.89
645.012	12034.04
645.205	12064.75
645.398	12376.05
645.591	12140.53
645.784	12093.43
645.977	11593.72
646.17	11642.87
646.363	11702.26
646.556	11675.64
646.749	11517.95
646.942	11794.42
647.135	11358.21
647.328	11358.21
647.521	11282.43
647.714	11345.92
647.907	11126.78
648.099	11141.12
648.292	11243.52
648.485	11042.82
648.678	10795.01
648.871	10967.04
649.064	10809.35
649.256	11036.67
649.449	10938.37
649.642	10530.83
649.835	10596.36
650.027	10639.37
650.22	10526.73
650.413	10446.86
650.605	10473.48
650.798	10414.09
650.991	10328.08
651.183	10414.09
651.376	10119.18
651.568	10432.52
651.761	10131.47
651.954	10096.66
652.146	10092.56
652.339	9797.65
652.531	10031.12
652.724	9879.57
652.916	9822.23
653.109	9965.59
653.301	9660.44
653.494	9666.58
653.686	9508.89
653.879	9547.8
654.071	9414.68
654.263	9283.61
654.456	9201.69
654.648	9367.58
654.84	9160.73
655.033	9273.37
655.225	9256.99
655.417	8968.23
655.61	9160.73
655.802	9154.59
655.994	9046.05
656.186	8788
656.379	9044
656.571	8882.21
656.763	8681.51
656.955	8654.89
657.148	8759.33
657.34	8570.92
657.532	8601.64
657.724	8441.9
657.916	8632.36
658.108	8433.71
658.3	8380.46
658.492	8448.04
658.684	8509.48
658.876	8343.6
659.068	8402.99
659.26	8314.92
659.452	8216.62
659.644	8069.17
659.836	8183.85
660.028	8181.81
660.22	7905.33
660.412	7950.39
660.604	7712.82
660.796	8032.3
660.988	7929.91
661.18	7839.8
661.372	7725.11
661.563	7745.59
661.755	7647.29
661.947	7561.27
662.139	7491.64
662.331	7389.24
662.522	7368.76
662.714	7581.75
662.906	7249.98
663.097	7350.33
663.289	7342.14
663.481	7346.23
663.673	7133.25
663.864	7034.94
664.056	7100.48
664.247	7026.75
664.439	7032.9
664.631	7104.57
664.822	7049.28
665.014	7006.27
665.205	6897.73
665.397	6885.44
665.588	6879.3
665.78	7026.75
665.971	6887.49
666.163	6760.52
666.354	6651.97
666.546	6748.23
666.737	6783.04
666.929	6651.97
667.12	6699.08
667.311	6606.92
667.503	6598.73
667.694	6561.86
667.885	6422.6
668.077	6445.13
668.268	6367.31
668.459	6383.69
668.651	6297.67
668.842	6223.95
669.033	6254.67
669.224	6316.11
669.416	6273.1
669.607	6385.74
669.798	6256.72
669.989	6383.69
670.18	6164.56
670.371	6064.21
670.563	5992.53
670.754	6002.77
670.945	5947.47
671.136	5931.09
671.327	6088.78
671.518	5851.22
671.709	5800.02
671.9	5984.34
672.091	5814.35
672.282	5797.97
672.473	5877.84
672.664	5847.12
672.855	5797.97
673.046	5916.75
673.237	5851.22
673.428	5671
673.619	5693.52
673.809	5675.09
674	5548.12
674.191	5726.29
674.382	5603.41
674.573	5730.39
674.764	5521.49
674.954	5541.97
675.145	5550.17
675.336	5591.13
675.527	5421.14
675.717	5445.72
675.908	5318.75
676.099	5337.18
676.289	5558.36
676.48	5240.92
676.671	5390.42
676.861	5376.09
677.052	5351.51
677.243	5300.31
677.433	5367.9
677.624	5263.45
677.814	5404.76
678.005	5253.21
678.195	5132.38
678.386	5296.22
678.576	5075.04
678.767	5079.13
678.957	5107.8
679.148	5175.39
679.338	5126.24
679.529	5148.76
679.719	5146.72
679.909	5027.93
680.1	5009.5
680.29	5077.09
680.481	5097.56
680.671	4952.16
680.861	5091.42
681.052	5066.85
681.242	4966.49
681.432	5116
681.622	4913.25
681.813	4870.24
682.003	4982.88
682.193	4937.82
682.383	4888.67
682.573	4878.43
682.764	4878.43
682.954	4986.97
683.144	4937.82
683.334	4950.11
683.524	4915.3
683.714	4845.66
683.904	4894.82
684.094	4767.84
684.284	4794.47
684.474	4802.66
684.664	4773.99
684.854	4882.53
685.044	4634.72
685.234	4624.48
685.424	4816.99
685.614	4626.53
685.804	4632.68
685.994	4565.09
686.184	4825.19
686.374	4538.47
686.564	4536.42
686.753	4620.39
686.943	4558.95
687.133	4589.67
687.323	4530.28
687.513	4474.98
687.702	4362.34
687.892	4528.23
688.082	4419.69
688.272	4526.18
688.461	4298.86
688.651	4395.11
688.841	4354.15
689.03	4436.07
689.22	4276.33
689.41	4378.73
689.599	4266.09
689.789	4429.93
689.979	4311.14
690.168	4335.72
690.358	4319.34
690.547	4325.48
690.737	4085.87
690.926	4370.54
691.116	4155.5
691.305	4360.3
691.495	4311.14
691.684	4227.18
691.874	4200.55
692.063	4182.12
692.252	4092.01
692.442	4278.38
692.631	3995.76
692.82	4196.46
693.01	3997.81
693.199	4075.63
693.388	4032.62
693.578	3911.79
693.767	3977.33
693.956	4077.68
694.146	3958.89
694.335	3829.87
694.524	3825.78
694.713	3901.55
694.902	3930.22
695.092	3862.64
695.281	3891.31
695.47	3879.02
695.659	3893.36
695.848	3758.19
696.037	3887.22
696.226	3876.98
696.415	3698.8
696.604	3913.84
696.793	3741.81
696.982	3836.02
697.171	3934.32
697.36	3975.28
697.549	3803.25
697.738	3723.38
697.927	3694.71
698.116	3831.92
698.305	3805.3
698.494	3850.35
698.683	3704.95
698.872	3840.11
699.061	3780.72
699.25	3637.36
699.438	3825.78
699.627	3672.18
699.816	3657.84
700.005	3711.09
700.193	3725.43
700.382	3754.1
700.571	3741.81
700.76	3653.75
700.948	3717.23
701.137	3715.19
701.326	3637.36
701.514	3795.06
701.703	3637.36
701.892	3602.55
702.08	3661.94
702.269	3682.42
702.457	3635.32
702.646	3690.61
702.834	3573.88
703.023	3704.95
703.212	3670.13
703.4	3573.88
703.589	3588.21
703.777	3612.79
703.965	3518.58
704.154	3803.25
704.342	3563.64
704.531	3598.45
704.719	3565.68
704.907	3446.9
705.096	3438.71
705.284	3625.08
705.472	3494.01
705.661	3410.04
705.849	3487.86
706.037	3537.01
706.226	3623.03
706.414	3451
706.602	3401.85
706.79	3461.24
706.979	3487.86
707.167	3412.09
707.355	3522.68
707.543	3358.84
707.731	3528.82
707.919	3379.32
708.107	3334.26
708.296	3344.5
708.484	3289.21
708.672	3340.41
708.86	3262.58
709.048	3375.22
709.236	3258.49
709.424	3330.17
709.612	3274.87
709.8	3287.16
709.988	3287.16
710.176	3254.39
710.364	3360.89
710.551	3332.22
710.739	3182.71
710.927	3137.66
711.115	3213.43
711.303	3264.63
711.491	3246.2
711.679	3217.53
711.866	3184.76
712.054	3301.5
712.242	3223.67
712.43	3276.92
712.617	3119.23
712.805	3086.46
712.993	3137.66
713.181	3102.84
713.368	3139.71
713.556	3188.86
713.744	3078.27
713.931	3262.58
714.119	3029.12
714.306	3168.38
714.494	3002.49
714.682	3149.95
714.869	3018.88
715.057	3133.56
715.244	3029.12
715.432	3065.98
715.619	3037.31
715.807	2920.57
715.994	2949.25
716.182	2975.87
716.369	3025.02
716.556	3000.44
716.744	2986.11
716.931	2887.81
717.119	2998.4
717.306	3092.6
717.493	2797.7
717.681	2963.58
717.868	2998.4
718.055	3121.28
718.242	2846.85
718.43	2957.44
718.617	3014.78
718.804	2783.36
718.991	2924.67
719.179	2988.16
719.366	2984.06
719.553	2879.61
719.74	2863.23
719.927	2990.21
720.114	2754.69
720.301	2719.87
720.488	2877.57
720.676	2848.9
720.863	2828.42
721.05	2693.25
721.237	2795.65
721.424	2832.51
721.611	2814.08
721.798	2830.46
721.985	2709.63
722.172	2705.54
722.358	2726.02
722.545	2723.97
722.732	2723.97
722.919	2785.41
723.106	2807.94
723.293	2754.69
723.48	2766.98
723.667	2752.64
723.853	2664.58
724.04	2771.07
724.227	2687.11
724.414	2627.71
724.6	2687.11
724.787	2637.95
724.974	2670.72
725.161	2646.15
725.347	2662.53
725.534	2637.95
725.72	2662.53
725.907	2654.34
726.094	2715.78
726.28	2484.36
726.467	2607.23
726.653	2633.86
726.84	2607.23
727.027	2601.09
727.213	2519.17
727.4	2562.18
727.586	2576.52
727.773	2482.31
727.959	2592.9
728.145	2551.94
728.332	2525.32
728.518	2541.7
728.705	2488.45
728.891	2525.32
729.077	2576.52
729.264	2545.8
729.45	2517.12
729.636	2541.7
729.823	2519.17
730.009	2410.63
730.195	2529.41
730.382	2693.25
730.568	2478.21
730.754	2463.88
730.94	2429.06
731.126	2627.71
731.313	2480.26
731.499	2467.97
731.685	2496.64
731.871	2431.11
732.057	2377.86
732.243	2330.76
732.429	2375.81
732.615	2412.68
732.801	2341
732.987	2334.86
733.173	2445.45
733.359	2420.87
733.545	2297.99
733.731	2269.32
733.917	2363.53
734.103	2322.57
734.289	2312.33
734.475	2224.26
734.661	2355.33
734.847	2375.81
735.033	2322.57
735.219	2302.09
735.404	2189.45
735.59	2257.03
735.776	2359.43
735.962	2302.09
736.148	2302.09
736.333	2363.53
736.519	2209.93
736.705	2173.07
736.89	2300.04
737.076	2275.46
737.262	2220.17
737.447	2199.69
737.633	2248.84
737.819	2361.48
738.004	2263.18
738.19	2211.98
738.375	2091.15
738.561	2271.37
738.747	2191.5
738.932	2220.17
739.118	2250.89
739.303	2138.25
739.489	2144.39
739.674	2085
739.859	2107.53
740.045	2173.07
740.23	2162.83
740.416	2019.47
740.601	2142.35
740.786	1992.84
740.972	2056.33
741.157	2128.01
741.342	1994.89
741.528	1960.08
741.713	2089.1
741.898	2072.72
742.084	2033.8
742.269	2029.71
742.454	1998.99
742.639	2033.8
742.824	1949.84
743.01	2013.32
743.195	1998.99
743.38	1951.88
743.565	1968.27
743.75	2025.61
743.935	1818.77
744.12	1939.6
744.305	1781.9
744.49	1906.83
744.675	1835.15
744.86	1861.77
745.045	1906.83
745.23	1947.79
745.415	1843.34
745.6	1804.43
745.785	1826.96
745.97	1894.54
746.155	1810.58
746.34	1771.66
746.525	1681.55
746.71	1857.68
746.895	1724.56
747.079	1786
747.264	1642.64
747.449	1730.7
747.634	1792.14
747.819	1720.46
748.003	1738.9
748.188	1724.56
748.373	1753.23
748.557	1595.54
748.742	1749.14
748.927	1628.31
749.111	1642.64
749.296	1695.89
749.481	1683.6
749.665	1509.52
749.85	1616.02
750.034	1564.82
750.219	1634.45
750.404	1478.8
750.588	1597.59
750.773	1558.67
750.957	1632.4
751.141	1501.33
751.326	1509.52
751.51	1487
751.695	1556.63
751.879	1482.9
752.064	1611.92
752.248	1517.72
752.432	1380.5
752.617	1433.75
752.801	1564.82
752.985	1435.8
753.17	1392.79
753.354	1509.52
753.538	1433.75
753.722	1392.79
753.907	1472.66
754.091	1398.93
754.275	1325.21
754.459	1327.25
754.643	1341.59
754.828	1341.59
755.012	1319.06
755.196	1331.35
755.38	1380.5
755.564	1233.05
755.748	1312.92
755.932	1378.45
756.116	1233.05
756.3	1226.9
756.484	1218.71
756.668	1329.3
756.852	1169.56
757.036	1294.49
757.22	1177.75
757.404	1194.14
757.588	1202.33
757.772	1231
757.956	1185.94
758.14	1192.09
758.323	1147.03
758.507	1226.9
758.691	1144.99
758.875	1218.71
759.059	1190.04
759.242	1114.27
759.426	1202.33
759.61	1149.08
759.794	1134.75
759.977	1046.68
760.161	1093.79
760.345	1120.41
760.528	1114.27
760.712	1044.63
760.895	1091.74
761.079	1015.96
761.263	968.86
761.446	1018.01
761.63	1040.54
761.813	1028.25
761.997	1046.68
762.18	1024.16
762.364	1040.54
762.547	985.24
762.731	1032.35
762.914	1024.16
763.098	1018.01
763.281	1046.68
763.464	991.39
763.648	987.29
763.831	985.24
764.015	983.2
764.198	1015.96
764.381	874.65
764.564	1056.92
764.748	1034.39
764.931	938.14
765.114	962.72
765.297	948.38
765.481	888.99
765.664	942.24
765.847	1007.77
766.03	886.94
766.213	999.58
766.397	923.8
766.58	874.65
766.763	932
766.946	954.52
767.129	905.37
767.312	870.56
767.495	923.8
767.678	927.9
767.861	913.56
768.044	981.15
768.227	977.05
768.41	886.94
768.593	858.27
768.776	915.61
768.959	872.61
769.142	790.69
769.324	901.28
769.507	864.41
769.69	833.69
769.873	893.09
770.056	938.14
770.239	858.27
770.421	800.93
770.604	895.13
770.787	835.74
770.97	837.79
771.152	743.58
771.335	903.32
771.518	866.46
771.7	747.68
771.883	757.92
772.066	780.45
772.248	796.83
772.431	776.35
772.613	772.25
772.796	807.07
772.978	843.93
773.161	817.31
773.343	700.58
773.526	747.68
773.708	759.97
773.891	714.91
774.073	751.78
774.256	735.39
774.438	678.05
774.621	649.38
774.803	782.49
774.985	700.58
775.168	784.54
775.35	649.38
775.532	741.54
775.715	702.62
775.897	700.58
776.079	739.49
776.261	684.19
776.444	575.65
776.626	706.72
776.808	712.86
776.99	671.9
777.173	653.47
777.355	782.49
777.537	684.19
777.719	698.53
777.901	651.42
778.083	596.13
778.265	622.75
778.447	669.86
778.629	659.62
778.811	571.55
778.993	704.67
779.175	676
779.357	614.56
779.539	632.99
779.721	606.37
779.903	645.28
780.085	540.83
780.267	630.95
780.449	575.65
780.631	632.99
780.812	702.62
780.994	526.5
781.176	602.27
781.358	559.27
781.54	546.98
781.721	542.88
781.903	606.37
782.085	479.4
782.267	569.51
782.448	569.51
782.63	546.98
782.812	559.27
782.993	512.16
783.175	643.23
783.357	553.12
783.538	448.68
783.72	540.83
783.901	497.83
784.083	516.26
784.264	444.58
784.446	506.02
784.627	542.88
784.809	514.21
784.99	510.11
785.172	417.96
785.353	530.59
785.535	483.49
785.716	446.63
785.897	456.87
786.079	409.76
786.26	473.25
786.441	452.77
786.623	377
786.804	448.68
786.985	510.11
787.167	460.96
787.348	415.91
787.529	446.63
787.71	434.34
787.891	385.19
788.073	463.01
788.254	430.24
788.435	450.72
788.616	366.76
788.797	405.67
788.978	352.42
789.159	325.8
789.34	411.81
789.522	364.71
789.703	301.22
789.884	377
790.065	393.38
790.246	456.87
790.427	401.57
790.607	395.43
790.788	354.47
790.969	385.19
791.15	286.89
791.331	303.27
791.512	319.65
791.693	358.57
791.874	385.19
792.054	438.44
792.235	454.82
792.416	338.09
792.597	272.55
792.778	338.09
792.958	391.33
793.139	362.66
793.32	323.75
793.5	309.41
793.681	303.27
793.862	379.04
794.042	266.41
794.223	323.75
794.404	258.21
794.584	325.8
794.765	293.03
794.945	346.28
795.126	290.98
795.306	305.32
795.487	288.93
795.667	280.74
795.848	331.94
796.028	284.84
796.209	331.94
796.389	327.85
796.57	303.27
796.75	202.92
796.93	223.4
797.111	186.54
797.291	252.07
797.471	311.46
797.652	350.37
797.832	297.13
798.012	307.37
798.192	282.79
798.373	258.21
798.553	323.75
798.733	315.56
798.913	229.54
799.093	209.06
799.274	282.79
799.454	276.65
799.634	311.46
799.814	293.03
799.994	235.69
800.174	284.84
800.354	229.54
800.534	221.35
800.714	299.17
800.894	272.55
801.074	233.64
801.254	235.69
801.434	297.13
801.614	288.93
801.794	209.06
801.974	774.3
802.154	245.93
802.334	245.93
802.514	223.4
802.693	202.92
802.873	315.56
803.053	311.46
803.233	209.06
803.413	159.91
803.592	182.44
803.772	229.54
803.952	266.41
804.131	159.91
804.311	153.77
804.491	247.97
804.67	147.62
804.85	293.03
805.03	295.08
805.209	262.31
805.389	172.2
805.568	180.39
805.748	223.4
805.928	260.26
806.107	149.67
806.287	284.84
806.466	159.91
806.646	131.24
806.825	221.35
807.004	129.19
807.184	204.97
807.363	164.01
807.543	211.11
807.722	229.54
807.901	225.45
808.081	256.17
808.26	233.64
808.439	170.15
808.619	157.86
808.798	170.15
808.977	123.05
809.156	219.3
809.336	116.9
809.515	184.49
809.694	221.35
809.873	204.97
810.052	176.3
810.231	149.67
810.411	178.34
810.59	178.34
810.769	178.34
810.948	215.21
811.127	194.73
811.306	260.26
811.485	186.54
811.664	250.02
811.843	223.4
812.022	145.58
812.201	217.26
812.38	137.38
812.559	188.58
812.737	166.06
812.916	151.72
813.095	243.88
813.274	157.86
813.453	159.91
813.632	172.2
813.811	157.86
813.989	94.38
814.168	182.44
814.347	116.9
814.526	184.49
814.704	190.63
814.883	174.25
815.062	88.23
815.24	145.58
815.419	178.34
815.598	184.49
815.776	139.43
815.955	180.39
816.133	131.24
816.312	168.1
816.49	96.43
816.669	139.43
816.847	141.48
817.026	204.97
817.204	161.96
817.383	196.78
817.561	121
817.74	276.65
817.918	196.78
818.097	174.25
818.275	88.23
818.453	129.19
818.632	155.82
818.81	161.96
818.988	166.06
819.167	139.43
819.345	135.34
819.523	151.72
819.701	159.91
819.879	178.34
820.058	98.47
820.236	166.06
820.414	118.95
820.592	133.29
820.77	157.86
820.948	151.72
821.127	184.49
821.305	88.23
821.483	186.54
821.661	176.3
821.839	135.34
822.017	106.67
822.195	118.95
822.373	219.3
822.551	108.71
822.729	137.38
822.907	147.62
823.085	157.86
823.262	227.5
823.44	127.14
823.618	86.19
823.796	129.19
823.974	137.38
824.152	131.24
824.329	96.43
824.507	149.67
824.685	96.43
824.863	166.06
825.04	147.62
825.218	178.34
825.396	104.62
825.574	147.62
825.751	184.49
825.929	135.34
826.107	129.19
826.284	125.1
826.462	194.73
826.639	155.82
826.817	82.09
826.994	153.77
827.172	125.1
827.349	182.44
827.527	168.1
827.704	110.76
827.882	135.34
828.059	139.43
828.237	45.23
828.414	116.9
828.591	47.27
828.769	131.24
828.946	110.76
829.124	114.86
829.301	141.48
829.478	75.95
829.655	127.14
829.833	92.33
830.01	94.38
830.187	41.13
830.364	137.38
830.542	110.76
830.719	116.9
830.896	123.05
831.073	125.1
831.25	127.14
831.427	121
831.604	129.19
831.782	159.91
831.959	98.47
832.136	73.9
832.313	80.04
832.49	-5.97
832.667	143.53
832.844	123.05
833.021	26.79
833.198	47.27
833.374	59.56
833.551	82.09
833.728	47.27
833.905	110.76
834.082	110.76
834.259	131.24
834.436	121
834.612	139.43
834.789	112.81
834.966	18.6
835.143	55.47
835.319	80.04
835.496	77.99
835.673	37.03
835.85	151.72
836.026	69.8
836.203	145.58
836.38	108.71
836.556	127.14
836.733	84.14
836.909	84.14
837.086	96.43
837.262	57.51
837.439	77.99
837.616	82.09
837.792	80.04
837.968	110.76
838.145	100.52
838.321	186.54
838.498	4.27
838.674	121
838.851	147.62
839.027	102.57
839.203	112.81
839.38	45.23
839.556	82.09
839.732	92.33
839.909	88.23
840.085	116.9
840.261	118.95
840.437	116.9
840.614	0.17
840.79	121
840.966	92.33
841.142	135.34
841.318	102.57
841.494	161.96
841.671	39.08
841.847	94.38
842.023	75.95
842.199	176.3
842.375	149.67
842.551	45.23
842.727	92.33
842.903	84.14
843.079	100.52
843.255	192.68
843.431	49.32
843.607	0.17
843.783	37.03
843.959	110.76
844.134	59.56
844.31	67.75
844.486	47.27
844.662	61.61
844.838	65.71
845.013	176.3
845.189	73.9
845.365	84.14
845.541	47.27
845.716	39.08
845.892	84.14
846.068	86.19
846.244	114.86
846.419	118.95
846.595	39.08
846.77	49.32
846.946	73.9
847.122	65.71
847.297	55.47
847.473	121
847.648	118.95
847.824	6.31
847.999	47.27
848.175	59.56
848.35	67.75
848.526	98.47
848.701	125.1
848.876	153.77
849.052	98.47
849.227	82.09
849.403	75.95
849.578	39.08
849.753	102.57
849.929	151.72
850.104	12.46
850.279	96.43
850.454	80.04
850.63	67.75
850.805	51.37
850.98	94.38
851.155	80.04
851.33	51.37
851.505	12.46
851.681	71.85
851.856	69.8
852.031	108.71
852.206	32.94
852.381	84.14
852.556	86.19
852.731	131.24
852.906	108.71
853.081	92.33
853.256	57.51
853.431	121
853.606	127.14
853.781	43.18
853.956	67.75
854.131	47.27
854.305	-1.88
854.48	69.8
854.655	4.27
854.83	65.71
855.005	51.37
855.18	22.7
855.354	53.42
855.529	88.23
855.704	43.18
855.879	102.57
856.053	75.95
856.228	80.04
856.403	6.31
856.577	129.19
856.752	20.65
856.926	-5.97
857.101	80.04
857.276	92.33
857.45	4.27
857.625	63.66
857.799	-30.55
857.974	65.71
858.148	37.03
858.323	88.23
858.497	-5.97
858.672	55.47
858.846	57.51
859.02	139.43
859.195	145.58
859.369	-32.6
859.543	110.76
859.718	26.79
859.892	123.05
860.066	53.42
860.241	63.66
860.415	71.85
860.589	28.84
860.763	45.23
860.938	-3.93
861.112	121
861.286	94.38
861.46	80.04
861.634	-16.21
861.808	65.71
861.982	104.62
862.157	94.38
862.331	18.6
862.505	-3.93
862.679	8.36
862.853	22.7
863.027	22.7
863.201	39.08
863.375	43.18
863.549	98.47
863.722	65.71
863.896	96.43
864.07	41.13
864.244	69.8
864.418	-8.02
864.592	57.51
864.766	43.18
864.939	2.22
865.113	63.66
865.287	-42.84
865.461	43.18
865.634	4.27
865.808	39.08
865.982	18.6
866.156	28.84
866.329	-14.17
866.503	57.51
866.676	65.71
866.85	77.99
867.024	92.33
867.197	43.18
867.371	47.27
867.544	32.94
867.718	37.03
867.891	125.1
868.065	55.47
868.238	34.99
868.412	92.33
868.585	26.79
868.759	104.62
868.932	20.65
869.105	53.42
869.279	32.94
869.452	53.42
869.625	57.51
869.799	0.17
869.972	24.75
870.145	14.51
870.319	43.18
870.492	14.51
870.665	67.75
870.838	26.79
871.011	49.32
871.185	55.47
871.358	-14.17
871.531	57.51
871.704	108.71
871.877	82.09
872.05	73.9
872.223	-34.64
872.396	125.1
872.569	53.42
872.742	110.76
872.915	77.99
873.088	-14.17
873.261	20.65
873.434	82.09
873.607	73.9
873.78	22.7
873.953	-30.55
874.126	-14.17
874.299	10.41
874.471	24.75
874.644	-3.93
874.817	37.03
874.99	77.99
875.163	37.03
875.335	71.85
875.508	8.36
875.681	63.66
875.853	-1.88
876.026	26.79
876.199	-22.36
876.371	94.38
876.544	59.56
876.717	8.36
876.889	32.94
877.062	32.94
877.234	61.61
877.407	49.32
877.579	45.23
877.752	8.36
877.924	-1.88
878.097	82.09
878.269	26.79
878.442	-5.97
878.614	0.17
878.786	143.53
878.959	30.89
879.131	32.94
879.303	-5.97
879.476	-59.22
879.648	100.52
879.82	71.85
879.993	-57.17
880.165	20.65
880.337	86.19
880.509	90.28
880.681	16.55
880.854	59.56
881.026	73.9
881.198	63.66
881.37	53.42
881.542	69.8
881.714	108.71
881.886	73.9
882.058	28.84
882.23	49.32
882.402	28.84
882.574	39.08
882.746	65.71
882.918	30.89
883.09	6.31
883.262	18.6
883.434	55.47
883.606	6.31
883.778	61.61
883.95	135.34
884.122	71.85
884.293	22.7
884.465	26.79
884.637	118.95
884.809	41.13
884.98	94.38
885.152	28.84
885.324	53.42
885.496	18.6
885.667	2.22
885.839	32.94
886.011	94.38
886.182	37.03
886.354	61.61
886.525	16.55
886.697	49.32
886.869	4.27
887.04	47.27
887.212	53.42
887.383	49.32
887.555	43.18
887.726	-18.26
887.897	22.7
888.069	61.61
888.24	-24.4
888.412	-34.64
888.583	-16.21
888.754	20.65
888.926	41.13
889.097	77.99
889.268	-1.88
889.44	6.31
889.611	6.31
889.782	22.7
889.953	-1.88
890.125	-16.21
890.296	24.75
890.467	57.51
890.638	51.37
890.809	-46.93
890.98	63.66
891.151	47.27
891.323	180.39
891.494	59.56
891.665	-65.36
891.836	57.51
892.007	26.79
892.178	80.04
892.349	41.13
892.52	63.66
892.691	14.51
892.862	92.33
893.032	43.18
893.203	-10.07
893.374	67.75
893.545	0.17
893.716	-5.97
893.887	43.18
894.057	96.43
894.228	4.27
894.399	28.84
894.57	32.94
894.74	10.41
894.911	-1.88
895.082	67.75
895.253	34.99
895.423	43.18
895.594	28.84
895.764	45.23
895.935	65.71
896.106	22.7
896.276	-46.93
896.447	-77.65
896.617	2.22
896.788	59.56
896.958	30.89
897.129	51.37
897.299	-24.4
897.47	80.04
897.64	45.23
897.81	41.13
897.981	-1.88
898.151	67.75
898.322	34.99
898.492	67.75
898.662	37.03
898.832	-16.21
899.003	39.08
899.173	39.08
899.343	92.33
899.513	-5.97
