Data from USB4F104151__99__12-37-18-130.txt Node

Date: Fri Mar 14 12:37:18 EDT 2025
User: louis
Spectrometer: USB4F10415
Trigger mode: 4
Integration Time (sec): 2.000000E-2
Scans to average: 1
Electric dark correction enabled: true
Nonlinearity correction enabled: false
Boxcar width: 0
XAxis mode: Wavelengths
Number of Pixels in Spectrum: 3648
>>>>>Begin Spectral Data<<<<<
178.204	-43.18
178.424	-43.18
178.644	-43.18
178.864	-114.86
179.084	-16.55
179.304	-32.94
179.524	-0.17
179.744	28.5
179.964	-39.08
180.184	22.36
180.404	-6.31
180.624	-22.7
180.844	5.97
181.064	-4.27
181.283	12.12
181.503	-2.22
181.723	38.74
181.943	-20.65
182.163	-10.41
182.383	-32.94
182.602	48.98
182.822	30.55
183.042	-24.75
183.262	42.84
183.482	71.51
183.701	-12.46
183.921	5.97
184.141	18.26
184.361	16.21
184.58	34.64
184.8	-4.27
185.02	8.02
185.239	-2.22
185.459	-26.79
185.679	44.88
185.898	38.74
186.118	3.93
186.338	24.4
186.557	22.36
186.777	-51.37
186.997	28.5
187.216	38.74
187.436	69.46
187.655	57.17
187.875	155.47
188.095	-0.17
188.314	71.51
188.534	116.56
188.753	44.88
188.973	48.98
189.192	55.12
189.412	98.13
189.631	38.74
189.851	-14.51
190.07	81.75
190.29	-51.37
190.509	-30.89
190.729	38.74
190.948	12.12
191.168	65.36
191.387	22.36
191.607	32.6
191.826	28.5
192.045	1.88
192.265	36.69
192.484	16.21
192.704	3.93
192.923	-82.09
193.142	110.42
193.362	22.36
193.581	-14.51
193.8	16.21
194.02	-2.22
194.239	22.36
194.458	24.4
194.678	-18.6
194.897	-43.18
195.116	14.17
195.335	-22.7
195.555	65.36
195.774	1.88
195.993	32.6
196.212	30.55
196.432	-2.22
196.651	57.17
196.87	-39.08
197.089	141.14
197.308	10.07
197.528	61.27
197.747	53.08
197.966	24.4
198.185	85.84
198.404	24.4
198.623	51.03
198.842	96.08
199.062	8.02
199.281	46.93
199.5	-0.17
199.719	57.17
199.938	28.5
200.157	46.93
200.376	5.97
200.595	77.65
200.814	44.88
201.033	34.64
201.252	-12.46
201.471	48.98
201.69	12.12
201.909	98.13
202.128	3.93
202.347	16.21
202.566	44.88
202.785	-26.79
203.004	40.79
203.223	55.12
203.442	32.6
203.661	16.21
203.879	59.22
204.098	77.65
204.317	69.46
204.536	85.84
204.755	3.93
204.974	16.21
205.193	20.31
205.411	73.56
205.63	91.99
205.849	73.56
206.068	46.93
206.287	65.36
206.505	65.36
206.724	-8.36
206.943	-8.36
207.162	8.02
207.381	71.51
207.599	24.4
207.818	-4.27
208.037	3.93
208.255	30.55
208.474	59.22
208.693	81.75
208.911	59.22
209.13	96.08
209.349	63.32
209.567	38.74
209.786	69.46
210.005	126.8
210.223	38.74
210.442	26.45
210.661	67.41
210.879	63.32
211.098	44.88
211.316	77.65
211.535	57.17
211.753	-26.79
211.972	40.79
212.191	79.7
212.409	-22.7
212.628	36.69
212.846	67.41
213.065	59.22
213.283	42.84
213.502	40.79
213.72	32.6
213.938	10.07
214.157	10.07
214.375	16.21
214.594	22.36
214.812	48.98
215.031	-28.84
215.249	75.6
215.467	-43.18
215.686	-0.17
215.904	85.84
216.122	-8.36
216.341	114.52
216.559	42.84
216.778	71.51
216.996	96.08
217.214	-18.6
217.432	-32.94
217.651	53.08
217.869	51.03
218.087	-4.27
218.306	28.5
218.524	46.93
218.742	1.88
218.96	-20.65
219.179	-10.41
219.397	55.12
219.615	65.36
219.833	65.36
220.051	1.88
220.27	104.28
220.488	42.84
220.706	36.69
220.924	24.4
221.142	55.12
221.36	30.55
221.578	24.4
221.796	63.32
222.015	-34.99
222.233	73.56
222.451	28.5
222.669	65.36
222.887	71.51
223.105	28.5
223.323	75.6
223.541	-32.94
223.759	100.18
223.977	-57.51
224.195	71.51
224.413	69.46
224.631	28.5
224.849	24.4
225.067	106.32
225.285	57.17
225.503	22.36
225.721	5.97
225.939	59.22
226.157	94.04
226.375	128.85
226.592	-4.27
226.81	-55.47
227.028	83.8
227.246	79.7
227.464	128.85
227.682	-24.75
227.9	55.12
228.117	1.88
228.335	40.79
228.553	46.93
228.771	-10.41
228.989	75.6
229.206	87.89
229.424	-26.79
229.642	65.36
229.86	40.79
230.077	30.55
230.295	65.36
230.513	104.28
230.731	14.17
230.948	55.12
231.166	106.32
231.384	46.93
231.601	18.26
231.819	61.27
232.037	30.55
232.254	-26.79
232.472	59.22
232.689	69.46
232.907	98.13
233.125	26.45
233.342	-0.17
233.56	71.51
233.777	61.27
233.995	-12.46
234.213	20.31
234.43	-43.18
234.648	10.07
234.865	48.98
235.083	81.75
235.3	-14.51
235.518	24.4
235.735	42.84
235.953	-2.22
236.17	14.17
236.388	3.93
236.605	-16.55
236.822	69.46
237.04	71.51
237.257	48.98
237.475	22.36
237.692	-2.22
237.909	22.36
238.127	77.65
238.344	51.03
238.562	59.22
238.779	-26.79
238.996	14.17
239.214	94.04
239.431	91.99
239.648	-8.36
239.865	38.74
240.083	57.17
240.3	55.12
240.517	34.64
240.735	3.93
240.952	10.07
241.169	14.17
241.386	24.4
241.603	89.94
241.821	3.93
242.038	46.93
242.255	12.12
242.472	94.04
242.689	-2.22
242.907	42.84
243.124	63.32
243.341	28.5
243.558	53.08
243.775	26.45
243.992	-0.17
244.209	42.84
244.426	69.46
244.643	79.7
244.86	-32.94
245.078	28.5
245.295	36.69
245.512	51.03
245.729	30.55
245.946	71.51
246.163	8.02
246.38	24.4
246.597	36.69
246.814	53.08
247.031	40.79
247.248	10.07
247.464	28.5
247.681	-6.31
247.898	10.07
248.115	14.17
248.332	-10.41
248.549	118.61
248.766	38.74
248.983	110.42
249.2	118.61
249.417	51.03
249.633	32.6
249.85	18.26
250.067	36.69
250.284	5.97
250.501	55.12
250.717	96.08
250.934	44.88
251.151	24.4
251.368	30.55
251.585	57.17
251.801	46.93
252.018	-14.51
252.235	57.17
252.451	61.27
252.668	1.88
252.885	-24.75
253.102	28.5
253.318	-39.08
253.535	5.97
253.752	16.21
253.968	75.6
254.185	12.12
254.401	10.07
254.618	110.42
254.835	8.02
255.051	135
255.268	-8.36
255.484	-0.17
255.701	-8.36
255.917	94.04
256.134	46.93
256.351	77.65
256.567	26.45
256.784	22.36
257	-2.22
257.217	77.65
257.433	26.45
257.65	104.28
257.866	73.56
258.082	1.88
258.299	22.36
258.515	16.21
258.732	-63.66
258.948	44.88
259.165	34.64
259.381	38.74
259.597	65.36
259.814	38.74
260.03	-41.13
260.246	48.98
260.463	-2.22
260.679	122.71
260.895	77.65
261.112	89.94
261.328	57.17
261.544	51.03
261.761	18.26
261.977	28.5
262.193	53.08
262.409	40.79
262.626	-6.31
262.842	85.84
263.058	-10.41
263.274	55.12
263.49	36.69
263.707	100.18
263.923	-8.36
264.139	5.97
264.355	24.4
264.571	51.03
264.787	-28.84
265.004	73.56
265.22	55.12
265.436	-14.51
265.652	42.84
265.868	65.36
266.084	8.02
266.3	53.08
266.516	24.4
266.732	5.97
266.948	69.46
267.164	-12.46
267.38	48.98
267.596	116.56
267.812	106.32
268.028	34.64
268.244	-53.42
268.46	77.65
268.676	69.46
268.892	59.22
269.108	59.22
269.324	71.51
269.54	-20.65
269.756	12.12
269.972	87.89
270.188	55.12
270.403	-16.55
270.619	55.12
270.835	-14.51
271.051	87.89
271.267	8.02
271.483	30.55
271.698	3.93
271.914	44.88
272.13	42.84
272.346	-6.31
272.562	-28.84
272.777	3.93
272.993	69.46
273.209	87.89
273.425	42.84
273.64	30.55
273.856	104.28
274.072	16.21
274.287	26.45
274.503	48.98
274.719	51.03
274.934	30.55
275.15	12.12
275.366	-10.41
275.581	63.32
275.797	-10.41
276.012	51.03
276.228	87.89
276.444	59.22
276.659	81.75
276.875	18.26
277.09	-2.22
277.306	55.12
277.521	65.36
277.737	16.21
277.952	67.41
278.168	94.04
278.383	30.55
278.599	-49.32
278.814	143.19
279.03	89.94
279.245	-14.51
279.461	18.26
279.676	77.65
279.892	40.79
280.107	36.69
280.322	10.07
280.538	10.07
280.753	44.88
280.969	102.23
281.184	53.08
281.399	118.61
281.615	108.37
281.83	65.36
282.045	118.61
282.26	137.04
282.476	69.46
282.691	77.65
282.906	42.84
283.122	73.56
283.337	38.74
283.552	116.56
283.767	61.27
283.983	57.17
284.198	94.04
284.413	67.41
284.628	-8.36
284.843	-10.41
285.058	36.69
285.274	44.88
285.489	22.36
285.704	67.41
285.919	-8.36
286.134	-14.51
286.349	-0.17
286.564	51.03
286.779	10.07
286.995	53.08
287.21	44.88
287.425	85.84
287.64	12.12
287.855	100.18
288.07	-2.22
288.285	38.74
288.5	116.56
288.715	55.12
288.93	5.97
289.145	51.03
289.36	20.31
289.575	104.28
289.79	-18.6
290.004	30.55
290.219	122.71
290.434	75.6
290.649	30.55
290.864	-24.75
291.079	1.88
291.294	44.88
291.509	73.56
291.724	34.64
291.938	53.08
292.153	116.56
292.368	81.75
292.583	-47.27
292.798	61.27
293.012	-6.31
293.227	94.04
293.442	55.12
293.657	87.89
293.871	108.37
294.086	61.27
294.301	87.89
294.516	67.41
294.73	69.46
294.945	73.56
295.16	5.97
295.374	89.94
295.589	61.27
295.804	14.17
296.018	24.4
296.233	81.75
296.447	48.98
296.662	63.32
296.877	53.08
297.091	32.6
297.306	-12.46
297.52	69.46
297.735	57.17
297.949	30.55
298.164	38.74
298.378	26.45
298.593	28.5
298.807	57.17
299.022	34.64
299.236	85.84
299.451	71.51
299.665	63.32
299.88	28.5
300.094	-63.66
300.309	-32.94
300.523	96.08
300.737	65.36
300.952	73.56
301.166	73.56
301.381	42.84
301.595	24.4
301.809	5.97
302.024	77.65
302.238	91.99
302.452	40.79
302.667	8.02
302.881	69.46
303.095	42.84
303.309	53.08
303.524	51.03
303.738	100.18
303.952	69.46
304.166	20.31
304.381	51.03
304.595	102.23
304.809	104.28
305.023	77.65
305.237	32.6
305.452	48.98
305.666	124.76
305.88	65.36
306.094	153.43
306.308	57.17
306.522	102.23
306.736	-28.84
306.95	53.08
307.164	48.98
307.379	32.6
307.593	57.17
307.807	26.45
308.021	-14.51
308.235	98.13
308.449	42.84
308.663	85.84
308.877	32.6
309.091	108.37
309.305	59.22
309.519	48.98
309.733	91.99
309.947	-12.46
310.161	85.84
310.374	30.55
310.588	73.56
310.802	48.98
311.016	53.08
311.23	114.52
311.444	112.47
311.658	98.13
311.872	77.65
312.085	1.88
312.299	102.23
312.513	8.02
312.727	38.74
312.941	-4.27
313.154	3.93
313.368	65.36
313.582	130.9
313.796	100.18
314.009	51.03
314.223	10.07
314.437	22.36
314.651	130.9
314.864	67.41
315.078	46.93
315.292	40.79
315.505	20.31
315.719	8.02
315.933	63.32
316.146	5.97
316.36	44.88
316.573	143.19
316.787	83.8
317.001	145.24
317.214	-8.36
317.428	5.97
317.641	36.69
317.855	77.65
318.068	83.8
318.282	44.88
318.495	145.24
318.709	32.6
318.922	42.84
319.136	48.98
319.349	36.69
319.563	63.32
319.776	57.17
319.99	55.12
320.203	38.74
320.417	57.17
320.63	61.27
320.843	48.98
321.057	112.47
321.27	79.7
321.483	53.08
321.697	104.28
321.91	26.45
322.124	59.22
322.337	67.41
322.55	32.6
322.763	-8.36
322.977	48.98
323.19	24.4
323.403	28.5
323.617	65.36
323.83	77.65
324.043	42.84
324.256	104.28
324.469	26.45
324.683	59.22
324.896	34.64
325.109	32.6
325.322	61.27
325.535	87.89
325.748	8.02
325.962	112.47
326.175	34.64
326.388	81.75
326.601	57.17
326.814	106.32
327.027	79.7
327.24	89.94
327.453	34.64
327.666	118.61
327.879	-4.27
328.092	40.79
328.305	77.65
328.518	69.46
328.731	30.55
328.944	26.45
329.157	71.51
329.37	3.93
329.583	46.93
329.796	118.61
330.009	-0.17
330.222	98.13
330.435	130.9
330.648	102.23
330.861	-28.84
331.073	104.28
331.286	126.8
331.499	71.51
331.712	18.26
331.925	73.56
332.138	57.17
332.35	67.41
332.563	36.69
332.776	48.98
332.989	53.08
333.202	85.84
333.414	48.98
333.627	34.64
333.84	1.88
334.053	5.97
334.265	30.55
334.478	34.64
334.691	61.27
334.903	46.93
335.116	-43.18
335.329	30.55
335.541	1.88
335.754	108.37
335.966	-10.41
336.179	55.12
336.392	55.12
336.604	94.04
336.817	10.07
337.029	30.55
337.242	36.69
337.454	110.42
337.667	-2.22
337.88	75.6
338.092	34.64
338.305	28.5
338.517	69.46
338.729	118.61
338.942	83.8
339.154	38.74
339.367	20.31
339.579	96.08
339.792	-4.27
340.004	65.36
340.217	-18.6
340.429	14.17
340.641	51.03
340.854	-30.89
341.066	-12.46
341.278	57.17
341.491	73.56
341.703	79.7
341.915	-39.08
342.128	69.46
342.34	-4.27
342.552	16.21
342.764	79.7
342.977	67.41
343.189	48.98
343.401	83.8
343.613	46.93
343.826	73.56
344.038	28.5
344.25	34.64
344.462	46.93
344.674	110.42
344.886	-12.46
345.099	102.23
345.311	112.47
345.523	67.41
345.735	-22.7
345.947	120.66
346.159	89.94
346.371	91.99
346.583	46.93
346.795	30.55
347.007	-2.22
347.219	71.51
347.431	26.45
347.643	85.84
347.855	5.97
348.067	71.51
348.279	-4.27
348.491	71.51
348.703	87.89
348.915	1.88
349.127	116.56
349.339	114.52
349.551	51.03
349.763	106.32
349.975	1.88
350.187	59.22
350.399	94.04
350.61	73.56
350.822	24.4
351.034	102.23
351.246	53.08
351.458	91.99
351.669	48.98
351.881	63.32
352.093	79.7
352.305	44.88
352.517	18.26
352.728	128.85
352.94	114.52
353.152	81.75
353.363	40.79
353.575	91.99
353.787	57.17
353.999	85.84
354.21	145.24
354.422	83.8
354.633	30.55
354.845	22.36
355.057	69.46
355.268	96.08
355.48	57.17
355.692	63.32
355.903	48.98
356.115	63.32
356.326	30.55
356.538	79.7
356.749	96.08
356.961	139.09
357.172	24.4
357.384	112.47
357.595	75.6
357.807	79.7
358.018	67.41
358.23	32.6
358.441	87.89
358.653	26.45
358.864	63.32
359.075	1.88
359.287	100.18
359.498	139.09
359.709	32.6
359.921	34.64
360.132	102.23
360.344	118.61
360.555	44.88
360.766	104.28
360.977	-6.31
361.189	71.51
361.4	71.51
361.611	10.07
361.823	59.22
362.034	48.98
362.245	53.08
362.456	116.56
362.667	79.7
362.879	3.93
363.09	87.89
363.301	55.12
363.512	79.7
363.723	59.22
363.935	91.99
364.146	42.84
364.357	110.42
364.568	91.99
364.779	-37.03
364.99	71.51
365.201	147.28
365.412	91.99
365.623	32.6
365.834	81.75
366.045	128.85
366.256	100.18
366.467	130.9
366.678	71.51
366.889	36.69
367.1	24.4
367.311	10.07
367.522	18.26
367.733	24.4
367.944	141.14
368.155	48.98
368.366	44.88
368.577	108.37
368.788	116.56
368.999	65.36
369.209	83.8
369.42	120.66
369.631	77.65
369.842	87.89
370.053	51.03
370.264	145.24
370.474	67.41
370.685	38.74
370.896	81.75
371.107	63.32
371.317	51.03
371.528	44.88
371.739	83.8
371.95	85.84
372.16	73.56
372.371	-8.36
372.582	34.64
372.792	55.12
373.003	85.84
373.214	87.89
373.424	38.74
373.635	48.98
373.846	104.28
374.056	44.88
374.267	26.45
374.477	89.94
374.688	63.32
374.898	30.55
375.109	71.51
375.319	42.84
375.53	71.51
375.74	135
375.951	40.79
376.161	38.74
376.372	100.18
376.582	118.61
376.793	81.75
377.003	81.75
377.214	40.79
377.424	81.75
377.635	65.36
377.845	155.47
378.055	87.89
378.266	55.12
378.476	30.55
378.686	61.27
378.897	12.12
379.107	48.98
379.317	120.66
379.528	36.69
379.738	83.8
379.948	79.7
380.158	85.84
380.369	42.84
380.579	73.56
380.789	132.95
380.999	77.65
381.21	126.8
381.42	178
381.63	16.21
381.84	173.91
382.05	143.19
382.261	149.33
382.471	57.17
382.681	61.27
382.891	96.08
383.101	91.99
383.311	44.88
383.521	36.69
383.731	100.18
383.941	151.38
384.151	65.36
384.361	79.7
384.571	51.03
384.781	73.56
384.991	73.56
385.201	98.13
385.411	141.14
385.621	175.95
385.831	63.32
386.041	112.47
386.251	53.08
386.461	106.32
386.671	69.46
386.881	69.46
387.091	57.17
387.301	89.94
387.511	145.24
387.72	139.09
387.93	122.71
388.14	106.32
388.35	79.7
388.56	83.8
388.769	32.6
388.979	71.51
389.189	87.89
389.399	67.41
389.609	63.32
389.818	114.52
390.028	55.12
390.238	147.28
390.447	1.88
390.657	83.8
390.867	-2.22
391.076	55.12
391.286	20.31
391.496	110.42
391.705	10.07
391.915	81.75
392.125	112.47
392.334	46.93
392.544	130.9
392.753	44.88
392.963	100.18
393.172	67.41
393.382	57.17
393.591	126.8
393.801	151.38
394.01	130.9
394.22	104.28
394.429	114.52
394.639	118.61
394.848	169.81
395.058	182.1
395.267	155.47
395.477	116.56
395.686	141.14
395.895	171.86
396.105	151.38
396.314	42.84
396.524	96.08
396.733	141.14
396.942	161.62
397.152	108.37
397.361	151.38
397.57	169.81
397.78	192.34
397.989	106.32
398.198	98.13
398.407	157.52
398.617	106.32
398.826	114.52
399.035	48.98
399.244	139.09
399.453	126.8
399.663	194.39
399.872	165.71
400.081	145.24
400.29	221.01
400.499	120.66
400.708	87.89
400.917	163.67
401.127	155.47
401.336	114.52
401.545	126.8
401.754	208.72
401.963	167.76
402.172	132.95
402.381	145.24
402.59	157.52
402.799	161.62
403.008	173.91
403.217	165.71
403.426	145.24
403.635	132.95
403.844	161.62
404.053	155.47
404.262	151.38
404.471	145.24
404.68	137.04
404.888	225.11
405.097	132.95
405.306	198.48
405.515	280.4
405.724	229.2
405.933	223.06
406.142	182.1
406.35	274.26
406.559	198.48
406.768	309.07
406.977	345.94
407.185	311.12
407.394	270.16
407.603	272.21
407.812	272.21
408.02	245.59
408.229	300.88
408.438	284.5
408.646	366.42
408.855	339.79
409.064	378.7
409.272	352.08
409.481	405.33
409.69	446.29
409.898	407.38
410.107	425.81
410.315	434
410.524	388.94
410.733	382.8
410.941	534.35
411.15	495.44
411.358	515.92
411.567	585.55
411.775	524.11
411.984	505.68
412.192	556.88
412.401	587.6
412.609	585.55
412.818	714.57
413.026	665.42
413.234	714.57
413.443	716.62
413.651	804.68
413.86	700.23
414.068	843.59
414.276	823.11
414.485	784.2
414.693	843.59
414.901	1027.91
415.11	941.89
415.318	864.07
415.526	1040.2
415.734	878.41
415.943	978.76
416.151	1036.1
416.359	1128.26
416.567	1136.45
416.776	1142.6
416.984	1312.58
417.192	1304.39
417.4	1353.54
417.608	1281.86
417.817	1339.2
418.025	1431.36
418.233	1535.81
418.441	1584.96
418.649	1556.29
418.857	1650.49
419.065	1855.29
419.273	1677.12
419.481	1767.23
419.689	1904.44
419.897	1978.17
420.105	2012.98
420.313	2076.47
420.521	2146.1
420.729	2268.98
420.937	2236.21
421.145	2332.47
421.353	2395.95
421.561	2674.48
421.769	2680.62
421.977	2717.48
422.185	2660.14
422.393	2955.05
422.601	3096.36
422.809	2965.29
423.017	3014.44
423.224	3266.34
423.432	3389.22
423.64	3223.33
423.848	3671.84
424.056	3505.95
424.263	3784.48
424.471	3936.03
424.679	3899.16
424.887	4271.89
425.094	4132.63
425.302	4362
425.51	4456.21
425.718	4452.11
425.925	4671.25
426.133	4808.46
426.341	5041.93
426.548	5170.95
426.756	5256.97
426.964	5252.87
427.171	5631.74
427.379	5793.53
427.586	5928.7
427.794	6174.46
428.001	6526.71
428.209	6737.65
428.417	6500.08
428.624	6958.83
428.832	6936.3
429.039	7073.51
429.247	7143.14
429.454	7591.65
429.662	8048.35
429.869	7814.88
430.076	8165.08
430.284	7870.17
430.491	8191.7
430.699	8570.58
430.906	8758.99
431.114	8933.07
431.321	9316.04
431.528	9434.82
431.736	9950.91
431.943	10591.92
432.15	10321.59
432.358	10032.83
432.565	10868.4
432.772	10819.25
432.979	11527.85
433.187	11519.65
433.394	11546.28
433.601	12406.42
433.808	12416.66
434.016	12527.25
434.223	12701.33
434.43	13543.05
434.637	13366.92
434.844	14409.34
435.052	14749.3
435.259	14438.01
435.466	14567.03
435.673	14263.93
435.88	15210.09
436.087	15982.18
436.294	16365.15
436.501	15767.14
436.708	16029.28
436.915	16821.84
437.122	17444.43
437.329	17481.29
437.537	17985.09
437.743	18144.83
437.95	18042.43
438.157	18996.79
438.364	19707.43
438.571	19756.58
438.778	20059.68
438.985	21478.93
439.192	20583.96
439.399	21884.42
439.606	21145.11
439.813	22089.22
440.02	23363.06
440.227	22986.23
440.433	22697.47
440.64	23457.26
440.847	23621.1
441.054	24143.33
441.261	25529.81
441.467	25376.21
441.674	26031.56
441.881	26959.29
442.088	26435.01
442.294	26580.42
442.501	27340.21
442.708	27903.4
442.914	28609.95
443.121	30180.74
443.328	29144.47
443.534	31645.04
443.741	30410.12
443.948	29998.48
444.154	32017.77
444.361	31868.27
444.568	32007.53
444.774	32398.69
444.981	32781.67
445.187	33443.16
445.394	34835.78
445.6	34073.93
445.807	37606.68
446.013	36275.5
446.22	36625.7
446.426	38083.86
446.633	38518.03
446.839	40062.19
447.046	38411.53
447.252	40258.8
447.459	40793.32
447.665	40211.7
447.871	42216.66
448.078	43709.63
448.284	42097.87
448.491	42775.75
448.697	44631.21
448.903	45161.64
449.11	45380.77
449.316	44840.11
449.522	45839.51
449.728	46781.58
449.935	47023.24
450.141	47027.34
450.347	48606.32
450.553	46806.16
450.76	47385.73
450.966	48807.02
451.172	48114.81
451.378	49609.82
451.584	48198.77
451.791	49501.28
451.997	49759.33
452.203	50336.85
452.409	50873.42
452.615	50289.75
452.821	48237.69
453.027	48032.89
453.233	50357.33
453.44	48802.92
453.646	48888.94
453.852	49577.06
454.058	49957.98
454.264	48270.45
454.47	49460.32
454.676	48749.68
454.882	49980.51
455.088	45890.71
455.294	46668.94
455.5	47068.3
455.705	47703.17
455.911	45544.61
456.117	44836.01
456.323	44475.57
456.529	42466.51
456.735	43850.94
456.941	42951.88
457.147	41876.69
457.352	40459.5
457.558	40541.42
457.764	40379.63
457.97	39914.74
458.176	38714.63
458.381	38618.38
458.587	36918.56
458.793	36859.17
458.999	34954.56
459.204	37891.35
459.41	36756.77
459.616	33801.55
459.821	34225.48
460.027	33981.77
460.233	33178.97
460.438	31835.5
460.644	31995.25
460.85	30340.49
461.055	30217.61
461.261	30021
461.466	27815.34
461.672	26949.05
461.878	28857.76
462.083	26803.64
462.289	26379.71
462.494	26404.29
462.7	25062.87
462.905	24192.48
463.111	25357.78
463.316	25349.59
463.522	24751.58
463.727	24925.66
463.932	24718.81
464.138	24638.94
464.343	24444.38
464.549	23707.12
464.754	24657.37
464.959	24462.82
465.165	24264.16
465.37	23039.48
465.575	22894.07
465.781	23750.12
465.986	23815.66
466.191	23002.61
466.397	22343.17
466.602	21370.38
466.807	22265.35
467.012	22267.39
467.218	21990.92
467.423	21706.25
467.628	22005.25
467.833	22707.71
468.038	22017.54
468.244	21454.35
468.449	22291.97
468.654	21503.5
468.859	21380.62
469.064	21181.97
469.269	20491.8
469.474	20549.15
469.679	20743.7
469.885	20067.88
470.09	20782.62
470.295	20604.44
470.5	20174.37
470.705	20174.37
470.91	19680.81
471.115	19652.14
471.32	19494.44
471.525	19598.89
471.73	19236.4
471.935	19004.98
472.139	18392.64
472.344	18665.02
472.549	18689.59
472.754	18632.25
472.959	17917.51
473.164	17378.89
473.369	17294.93
473.574	18165.31
473.778	17780.29
473.983	17612.36
474.188	17491.53
474.393	16625.24
474.598	17004.11
474.802	16604.76
475.007	16594.52
475.212	16692.82
475.417	15945.31
475.621	16064.1
475.826	16051.81
476.031	15857.25
476.235	15597.16
476.44	15533.67
476.645	15558.25
476.849	15480.43
477.054	15033.97
477.259	15007.34
477.463	14976.62
477.668	14708.34
477.872	14763.64
478.077	14478.97
478.282	14294.65
478.486	14198.4
478.691	13917.82
478.895	14032.51
479.1	13833.86
479.304	13753.99
479.509	13557.38
479.713	13688.45
479.918	13434.5
480.122	13151.88
480.326	13549.19
480.531	13334.15
480.735	13153.93
480.94	13020.81
481.144	13719.17
481.348	12779.15
481.553	13131.4
481.757	12680.85
481.961	12992.14
482.166	13139.6
482.37	13012.62
482.574	12889.74
482.778	12682.9
482.983	13084.3
483.187	12895.89
483.391	12811.92
483.595	12871.31
483.8	12596.89
484.004	12840.59
484.208	12967.57
484.412	12977.81
484.616	12805.78
484.821	12787.35
485.025	12834.45
485.229	12848.79
485.433	12748.43
485.637	13129.36
485.841	12842.64
486.045	12590.74
486.249	12928.66
486.453	12811.92
486.657	13051.53
486.861	12838.55
487.065	12654.23
487.269	12713.62
487.473	12646.04
487.677	12945.04
487.881	12942.99
488.085	12940.94
488.289	13024.91
488.493	12705.43
488.697	12758.67
488.901	13074.06
489.105	12701.33
489.309	12975.76
489.512	12887.7
489.716	13090.45
489.92	12986
490.124	12730
490.328	13287.05
490.531	12981.9
490.735	13205.13
490.939	13102.73
491.143	13309.58
491.346	13155.98
491.55	13528.71
491.754	13442.7
491.958	13371.02
492.161	13338.25
492.365	13645.45
492.569	13321.87
492.772	13381.26
492.976	13796.99
493.18	13629.06
493.383	13911.68
493.587	13790.85
493.79	14104.19
493.994	13993.6
494.197	14063.23
494.401	14399.1
494.605	14274.17
494.808	14564.98
495.012	14630.52
495.215	14468.73
495.419	14628.47
495.622	14708.34
495.825	14913.14
496.029	14919.28
496.232	15318.64
496.436	15099.5
496.639	15595.11
496.843	15486.57
497.046	15978.08
497.249	15898.21
497.453	15840.87
497.656	16143.97
497.859	16027.23
498.063	16326.24
498.266	16596.57
498.469	16635.48
498.673	16768.6
498.876	17118.8
499.079	17380.94
499.282	17282.64
499.485	17686.09
499.689	17759.81
499.892	17948.23
500.095	17952.32
500.298	18628.15
500.501	18140.74
500.705	18802.23
500.908	19119.67
501.111	19045.94
501.314	19328.56
501.517	19672.62
501.72	19766.82
501.923	19815.97
502.126	20344.35
502.329	20692.51
502.532	20485.66
502.735	20784.66
502.938	21261.84
503.141	21251.6
503.344	21669.39
503.547	21788.17
503.75	21966.34
503.953	22068.74
504.156	22363.65
504.359	22722.04
504.562	22736.38
504.765	23406.06
504.968	23606.77
505.17	23899.62
505.373	23821.8
505.576	24194.53
505.779	24380.9
505.982	24810.97
506.185	25095.64
506.387	25099.73
506.59	25400.79
506.793	26203.59
506.996	25759.18
507.198	26758.59
507.401	26449.35
507.604	26965.43
507.807	27209.14
508.009	27477.43
508.212	27602.35
508.415	28048.81
508.617	28167.59
508.82	28040.62
509.022	28732.83
509.225	29181.34
509.428	29328.79
509.63	29678.99
509.833	29846.93
510.035	30498.18
510.238	30131.59
510.44	30911.87
510.643	31014.27
510.845	31612.27
511.048	31298.94
511.25	31663.47
511.453	32290.15
511.655	33320.28
511.858	32476.52
512.06	33213.79
512.262	33527.13
512.465	33193.31
512.667	34104.65
512.87	34340.17
513.072	34153.8
513.274	35327.29
513.477	35472.7
513.679	35552.57
513.881	36189.49
514.084	36494.63
514.286	36363.56
514.488	36590.89
514.69	37227.81
514.893	37643.54
515.095	37889.3
515.297	38573.32
515.499	38378.76
515.701	39011.59
515.904	39185.66
516.106	39527.67
516.308	39894.26
516.51	40801.51
516.712	40557.8
516.914	40996.07
517.116	41469.15
517.318	41630.94
517.52	42118.35
517.722	42130.64
517.925	42820.81
518.127	43216.07
518.329	42835.14
518.531	43181.25
518.733	44299.44
518.935	44160.18
519.136	44360.88
519.338	45202.6
519.54	45253.79
519.742	45735.07
519.944	46292.11
520.146	46912.65
520.348	46539.92
520.55	46965.9
520.752	47096.97
520.954	47858.81
521.155	47471.74
521.357	48503.92
521.559	48884.84
521.761	49482.85
521.963	49570.91
522.164	49884.25
522.366	49798.24
522.568	50228.31
522.77	50328.66
522.971	51209.29
523.173	50678.86
523.375	51520.58
523.576	51188.81
523.778	51838.01
523.98	52577.33
524.181	52333.62
524.383	52630.58
524.584	53224.49
524.786	53021.74
524.988	52853.81
525.189	53398.57
525.391	53949.47
525.592	54418.45
525.794	54572.05
525.995	54324.25
526.197	54711.31
526.398	54823.95
526.6	54993.93
526.801	55129.1
527.003	55182.35
527.204	55368.71
527.406	56224.76
527.607	55811.07
527.808	56261.63
528.01	55530.5
528.211	56036.35
528.412	56916.98
528.614	56398.84
528.815	56597.49
529.016	57304.04
529.218	56615.93
529.419	56982.51
529.62	57093.1
529.822	57228.27
530.023	57183.21
530.224	57115.63
530.425	57637.86
530.626	57420.78
530.828	57002.99
531.029	58186.72
531.23	57605.09
531.431	57639.91
531.632	57465.83
531.833	58000.35
532.035	57727.97
532.236	58223.58
532.437	58411.99
532.638	57816.04
532.839	58375.13
533.04	58436.57
533.241	57807.84
533.442	58688.47
533.643	58604.5
533.844	58168.29
534.045	58534.87
534.246	58346.46
534.447	58246.11
534.648	57945.06
534.849	58739.67
535.05	58244.06
535.251	58346.46
535.451	58563.54
535.652	58514.39
535.853	58368.99
536.054	58690.52
536.255	58534.87
536.456	58129.37
536.657	59333.58
536.857	58104.8
537.058	58366.94
537.259	58663.89
537.46	58526.68
537.66	58336.22
537.861	58434.52
538.062	58444.76
538.263	58655.7
538.463	57932.77
538.664	58561.5
538.865	58313.69
539.065	58995.67
539.266	58170.33
539.466	58401.75
539.667	57162.73
539.868	58495.96
540.068	58321.88
540.269	58268.64
540.469	58706.9
540.67	58055.65
540.87	58217.44
541.071	58151.9
541.271	58434.52
541.472	58315.74
541.672	57775.08
541.873	57975.78
542.073	57287.66
542.274	58358.75
542.474	57840.61
542.675	57635.81
542.875	58850.26
543.075	58358.75
543.276	57261.04
543.476	58215.39
543.676	57758.69
543.877	58043.36
544.077	57955.3
544.277	57625.57
544.478	58156
544.678	57940.96
544.878	57637.86
545.078	57711.59
545.279	57641.96
545.479	57369.58
545.679	57908.19
545.879	57662.44
546.079	57328.62
546.28	57842.66
546.48	56935.41
546.68	57783.27
546.88	57994.21
547.08	57424.87
547.28	57631.72
547.48	57132.01
547.68	57091.05
547.88	57406.44
548.081	57779.17
548.281	57852.9
548.481	57396.2
548.681	57576.42
548.881	57721.83
549.081	57334.76
549.28	57091.05
549.48	57783.27
549.68	57152.49
549.88	57547.75
550.08	57275.37
550.28	57338.86
550.48	57213.93
550.68	57988.06
550.88	57678.82
551.08	57009.14
551.279	57465.83
551.479	57064.43
551.679	57115.63
551.879	57025.52
552.079	57498.6
552.278	56818.67
552.478	57043.95
552.678	56959.98
552.878	57201.64
553.077	56972.27
553.277	56751.09
553.477	57478.12
553.676	56863.73
553.876	56945.65
554.076	56826.87
554.275	56636.41
554.475	56366.07
554.674	56650.74
554.874	56761.33
555.074	56396.79
555.273	57070.57
555.473	56523.77
555.672	56495.1
555.872	56574.97
556.071	56519.67
556.271	57086.96
556.47	56368.12
556.67	55798.79
556.869	55843.84
557.068	56366.07
557.268	55727.11
557.467	56099.84
557.667	55766.02
557.866	56128.51
558.065	55915.52
558.265	55530.5
558.464	55172.11
558.663	56103.93
558.863	55086.09
559.062	55655.43
559.261	55507.97
559.461	56124.41
559.66	55016.46
559.859	55278.6
560.058	55319.56
560.258	55477.25
560.457	54580.24
560.656	55763.97
560.855	55012.37
561.054	55294.99
561.253	54746.13
561.453	54901.78
561.652	54703.12
561.851	54924.3
562.05	54467.61
562.249	54307.86
562.448	54674.45
562.647	54707.22
562.846	54483.99
563.045	54774.8
563.244	54158.36
563.443	54782.99
563.642	53836.83
563.841	54058.01
564.04	53742.63
564.239	54021.15
564.438	53838.88
564.637	53959.71
564.836	53457.96
565.035	53025.84
565.234	53595.17
565.432	53392.42
565.631	53029.93
565.83	53447.72
566.029	52966.45
566.228	52847.66
566.427	52741.17
566.625	52280.38
566.824	52292.66
567.023	52986.92
567.222	52057.15
567.42	52890.67
567.619	52612.15
567.818	51921.98
568.016	52261.94
568.215	52681.78
568.414	51946.56
568.612	52139.07
568.811	51729.47
569.01	51786.82
569.208	51199.05
569.407	51657.79
569.605	51067.98
569.804	51504.2
570.002	51057.74
570.201	51301.45
570.4	50981.96
570.598	50437.2
570.797	50517.07
570.995	50891.85
571.193	50371.67
571.392	50564.18
571.59	50295.89
571.789	50064.47
571.987	50463.83
572.186	50046.04
572.384	49624.16
572.582	49642.59
572.781	49964.12
572.979	49106.02
573.177	49654.88
573.376	49392.74
573.574	49192.04
573.772	49282.15
573.971	48815.21
574.169	49556.58
574.367	48442.48
574.565	48929.9
574.763	48655.47
574.962	48358.52
575.16	48114.81
575.358	48667.76
575.556	47848.57
575.754	49093.74
575.952	47676.54
576.151	48211.06
576.349	47746.17
576.547	47670.4
576.745	47924.35
576.943	47873.15
577.141	46939.27
577.339	47522.94
577.537	47121.54
577.735	46646.41
577.933	46570.64
578.131	46976.14
578.329	46791.82
578.527	46161.04
578.725	46152.85
578.923	46912.65
579.121	45982.87
579.319	46218.39
579.516	46072.98
579.714	46173.33
579.912	45671.58
580.11	45538.46
580.308	45821.08
580.506	45456.54
580.704	45034.66
580.901	45669.53
581.099	45352.1
581.297	44829.87
581.495	44903.59
581.692	45098.15
581.89	44643.5
582.088	44743.85
582.285	44463.28
582.483	44686.51
582.681	44463.28
582.878	44496.05
583.076	43732.15
583.274	44324.02
583.471	43422.91
583.669	43826.36
583.866	43691.19
584.064	43404.48
584.262	43312.32
584.459	43248.83
584.657	43021.51
584.854	43707.58
585.052	42605.77
585.249	43269.31
585.447	43171.01
585.644	42560.72
585.841	42724.55
586.039	42912.97
586.236	42116.31
586.434	42437.84
586.631	42097.87
586.828	41802.97
587.026	41925.85
587.223	41514.2
587.42	42020.05
587.618	41661.66
587.815	41276.64
588.012	41424.09
588.21	41057.51
588.407	41274.59
588.604	41125.09
588.801	40574.19
588.999	40873.19
589.196	41022.69
589.393	40723.69
589.59	40301.81
589.787	40396.01
589.984	40285.42
590.182	39445.76
590.379	40170.74
590.576	39836.92
590.773	39959.8
590.97	39621.88
591.167	39734.52
591.364	39804.15
591.561	39101.7
591.758	38798.6
591.955	38870.28
592.152	39511.29
592.349	38786.31
592.546	38767.88
592.743	39116.03
592.94	38464.78
593.137	38475.02
593.334	38649.1
593.531	38305.04
593.727	38026.51
593.924	38231.31
594.121	37686.55
594.318	38130.96
594.515	37489.95
594.712	38444.3
594.908	37670.17
595.105	37670.17
595.302	36840.74
595.499	37469.47
595.696	37057.82
595.892	36812.07
596.089	37233.95
596.286	37279
596.482	36908.32
596.679	36701.48
596.876	36631.85
597.072	36289.84
597.269	36431.15
597.466	36230.44
597.662	36470.06
597.859	35937.58
598.055	36281.64
598.252	36113.71
598.448	35743.03
598.645	35794.23
598.841	35071.29
599.038	35394.87
599.234	35542.33
599.431	35097.92
599.627	34655.56
599.824	35048.77
600.02	34538.82
600.217	34975.04
600.413	34725.19
600.609	34364.74
600.806	34184.52
601.002	34559.3
601.198	33926.48
601.395	34231.63
601.591	34176.33
601.787	34282.83
601.984	33953.1
602.18	34149.71
602.376	33607
602.572	33504.6
602.769	33416.54
602.965	33363.29
603.161	33264.99
603.357	33320.28
603.553	33033.57
603.75	33058.14
603.946	32630.12
604.142	33047.9
604.338	32335.21
604.534	32636.26
604.73	32435.56
604.926	32384.36
605.122	32372.07
605.318	32290.15
605.514	32009.58
605.71	31782.26
605.906	32144.75
606.102	31599.99
606.298	32077.16
606.494	31823.22
606.69	32003.44
606.886	31731.06
607.082	31174.01
607.278	31997.29
607.474	31001.98
607.67	31845.74
607.866	30891.39
608.062	31718.77
608.257	30985.6
608.453	31282.55
608.649	31012.22
608.845	30893.44
609.041	30877.05
609.236	30801.28
609.432	30950.78
609.628	30518.66
609.824	30621.06
610.019	30461.32
610.215	30041.48
610.411	30483.84
610.606	30322.05
610.802	30541.19
610.998	30258.57
611.193	30117.26
611.389	29951.37
611.584	29789.58
611.78	29767.06
611.976	29713.81
612.171	29988.24
612.367	30074.25
612.562	29863.31
612.758	29314.45
612.953	29642.13
613.149	29666.7
613.344	29537.68
613.539	29722
613.735	29355.41
613.93	29310.36
614.126	29404.56
614.321	29271.45
614.517	29085.08
614.712	29162.9
614.907	29187.48
615.103	29371.8
615.298	28857.76
615.493	29257.11
615.688	28597.66
615.884	29490.58
616.079	28351.91
616.274	28874.14
616.47	28718.5
616.665	28911
616.86	28505.51
617.055	28347.81
617.25	28384.68
617.445	28548.51
617.641	27674.03
617.836	28568.99
618.031	27821.48
618.226	28108.2
618.421	27731.37
618.616	28024.23
618.811	27422.13
619.006	27725.23
619.201	27174.33
619.396	27405.75
619.591	27129.27
619.786	27606.45
619.981	26793.4
620.176	27139.51
620.371	26820.03
620.566	26955.19
620.761	26703.29
620.956	26711.49
621.151	26377.67
621.346	26504.64
621.541	25855.43
621.735	26318.28
621.93	25699.79
622.125	25775.56
622.32	25689.55
622.515	25451.98
622.709	25226.71
622.904	25474.51
623.099	25195.99
623.294	25105.88
623.488	24901.08
623.683	24931.8
623.878	24765.92
624.072	24413.66
624.267	24460.77
624.462	24669.66
624.656	23999.98
624.851	24178.15
625.046	23918.06
625.24	23858.67
625.435	23262.71
625.629	23471.6
625.824	23608.81
626.018	23686.64
626.213	23019
626.407	23504.37
626.602	22769.15
626.796	22715.9
626.991	22982.13
627.185	22920.7
627.38	22773.24
627.574	22443.52
627.768	22259.2
627.963	22363.65
628.157	21984.77
628.352	22169.09
628.546	21427.73
628.74	22009.35
628.935	21542.41
629.129	21626.38
629.323	21169.68
629.517	21267.98
629.712	21263.89
629.906	21216.79
630.1	20852.25
630.294	20700.7
630.489	20872.73
630.683	20655.64
630.877	20489.76
631.071	20018.72
631.265	20651.55
631.459	20291.1
631.653	20076.07
631.848	20200.99
632.042	20102.69
632.236	19813.93
632.43	19678.76
632.624	19713.58
632.818	19453.48
633.012	19412.53
633.206	19365.42
633.4	19314.22
633.594	19050.03
633.788	18992.69
633.982	19086.9
634.176	18794.04
634.369	18579
634.563	18802.23
634.757	18579
634.951	18589.24
635.145	18396.73
635.339	18366.01
635.533	18038.34
635.726	18228.8
635.92	17985.09
636.114	17706.57
636.308	17534.54
636.501	17788.49
636.695	17788.49
636.889	17546.83
637.083	17344.08
637.276	17370.7
637.47	17370.7
637.664	17086.03
637.857	17213.01
638.051	17071.7
638.244	16957.01
638.438	16830.04
638.632	16662.1
638.825	16639.58
639.019	16576.09
639.212	16295.52
639.406	16232.03
639.599	16393.82
639.793	16168.54
639.986	16158.3
640.18	16125.54
640.373	16043.62
640.567	15703.65
640.76	15726.18
640.954	15689.32
641.147	15761
641.34	15482.47
641.534	15330.92
641.727	15238.76
641.92	15171.18
642.114	14978.67
642.307	15115.89
642.5	15060.59
642.694	14759.54
642.887	14716.53
643.08	14689.91
643.273	15076.98
643.467	14638.71
643.66	14329.47
643.853	14386.81
644.046	14308.99
644.239	14313.08
644.432	14306.94
644.626	14202.49
644.819	14395
645.012	14022.27
645.205	13952.64
645.398	13729.41
645.591	13827.71
645.784	13891.2
645.977	13629.06
646.17	13504.14
646.363	13485.7
646.556	13379.21
646.749	13377.16
646.942	13076.11
647.135	13348.49
647.328	13235.85
647.521	13174.41
647.714	12826.26
647.907	12897.94
648.099	13033.1
648.292	12865.17
648.485	12893.84
648.678	12549.78
648.871	12480.15
649.064	12504.73
649.256	12570.26
649.449	12312.22
649.642	12320.41
649.835	12228.25
650.027	12164.76
650.22	12119.71
650.413	12242.59
650.605	11906.72
650.798	11994.78
650.991	11626.15
651.183	11902.62
651.376	11609.76
651.568	11769.51
651.761	11574.95
651.954	11560.61
652.146	11503.27
652.339	11450.02
652.531	11404.97
652.724	11321
652.916	11331.24
653.109	11337.38
653.301	11177.64
653.494	11140.78
653.686	11042.48
653.879	11036.33
654.071	10976.94
654.263	10626.74
654.456	10925.74
654.648	10927.79
654.84	10710.71
655.033	10647.22
655.225	10520.24
655.417	10495.67
655.61	10579.64
655.802	10522.29
655.994	10370.74
656.186	10602.16
656.379	10180.28
656.571	10249.91
656.763	10120.89
656.955	10045.12
657.148	9991.87
657.34	9918.14
657.532	9975.49
657.724	9815.74
657.916	9799.36
658.108	9369.29
658.3	9645.76
658.492	9717.44
658.684	9567.94
658.876	9549.51
659.068	9569.99
659.26	9287.37
659.452	9369.29
659.644	9520.84
659.836	9248.46
660.028	9510.6
660.22	9240.26
660.412	9127.63
660.604	9103.05
660.796	9203.4
660.988	8857.29
661.18	9017.04
661.372	8845.01
661.563	8865.49
661.755	8853.2
661.947	9010.89
662.139	8740.56
662.331	8589.01
662.522	8593.11
662.714	8756.94
662.906	8566.48
663.097	8330.97
663.289	8316.63
663.481	8386.26
663.673	8177.37
663.864	8412.88
664.056	8230.62
664.247	8253.14
664.439	8105.69
664.631	8269.53
664.822	8247
665.014	8048.35
665.205	7933.66
665.397	7874.27
665.588	8074.97
665.78	7943.9
665.971	7796.45
666.163	7845.6
666.354	7712.48
666.546	7757.53
666.737	7601.89
666.929	7810.78
667.12	7675.62
667.311	7450.34
667.503	7433.96
667.694	7573.22
667.885	7522.02
668.077	7550.69
668.268	7499.49
668.459	7505.63
668.651	7347.94
668.842	7380.71
669.033	7182.06
669.224	7239.4
669.416	7485.16
669.607	7194.34
669.798	7081.71
669.989	7137
670.18	7093.99
670.371	6989.55
670.563	6973.16
670.754	7005.93
670.945	6883.05
671.136	7016.17
671.327	6876.91
671.518	6901.48
671.709	6794.99
671.9	6821.61
672.091	6768.37
672.282	6770.41
672.473	6571.76
672.664	6833.9
672.855	6440.69
673.046	6653.68
673.237	6813.42
673.428	6684.4
673.619	6500.08
673.809	6614.77
674	6504.18
674.191	6514.42
674.382	6487.79
674.573	6495.99
674.764	6391.54
674.954	6414.07
675.145	6344.44
675.336	6336.24
675.527	6199.03
675.717	6326
675.908	6262.52
676.099	6211.32
676.289	6127.35
676.48	6035.19
676.671	6135.54
676.861	6219.51
677.052	6129.4
677.243	6002.43
677.433	6092.54
677.624	6139.64
677.814	5967.61
678.005	6123.26
678.195	6092.54
678.386	6100.73
678.576	5897.98
678.767	5854.97
678.957	5955.32
679.148	5947.13
679.338	5916.41
679.529	5918.46
679.719	5791.48
679.909	5883.64
680.1	5635.84
680.29	5885.69
680.481	5832.44
680.671	5791.48
680.861	5783.29
681.052	5721.85
681.242	5654.27
681.432	5928.7
681.622	5574.4
681.813	5558.02
682.003	5648.13
682.193	5521.15
682.383	5566.21
682.573	5541.63
682.764	5445.38
682.954	5558.02
683.144	5621.5
683.334	5441.28
683.524	5486.34
683.714	5523.2
683.904	5578.5
684.094	5519.11
684.284	5336.84
684.474	5428.99
684.664	5328.64
684.854	5353.22
685.044	5324.55
685.234	5234.44
685.424	5320.45
685.614	5388.04
685.804	5236.49
685.994	5082.89
686.184	5271.3
686.374	5173
686.564	5129.99
686.753	5109.51
686.943	5136.13
687.133	5074.7
687.323	5052.17
687.513	5068.55
687.702	5015.3
687.892	5185.29
688.082	5119.75
688.272	4902.67
688.461	4900.62
688.651	4953.87
688.841	4863.76
689.03	4886.28
689.22	4683.53
689.41	4837.13
689.599	4779.79
689.789	4810.51
689.979	4857.61
690.168	4761.36
690.358	4771.6
690.547	4675.34
690.737	4701.97
690.926	4814.6
691.116	4683.53
691.305	4656.91
691.495	4570.9
691.684	4626.19
691.874	4478.74
692.063	4394.77
692.252	4505.36
692.442	4538.13
692.631	4419.35
692.82	4417.3
693.01	4335.38
693.199	4419.35
693.388	4353.81
693.578	4423.44
693.767	4370.19
693.956	4275.99
694.146	4253.46
694.335	4181.78
694.524	4255.51
694.713	4384.53
694.902	4220.69
695.092	4382.48
695.281	4179.73
695.47	4196.12
695.659	3956.5
695.848	4249.36
696.037	4353.81
696.226	4257.56
696.415	4040.47
696.604	4269.84
696.793	4159.25
696.982	4077.34
697.171	4046.62
697.36	4042.52
697.549	4089.62
697.738	3987.22
697.927	4032.28
698.116	3981.08
698.305	3946.27
698.494	4302.61
698.683	3950.36
698.872	4056.86
699.061	4013.85
699.25	4048.66
699.438	3991.32
699.627	3925.79
699.816	3905.31
700.005	3911.45
700.193	3921.69
700.382	3776.28
700.571	3948.31
700.76	3903.26
700.948	3839.77
701.137	3995.42
701.326	3972.89
701.514	3862.3
701.703	3895.07
701.892	3905.31
702.08	3782.43
702.269	3821.34
702.457	3804.96
702.646	3833.63
702.834	3850.01
703.023	3737.37
703.212	3624.73
703.4	3620.64
703.589	3673.89
703.777	3868.44
703.965	3665.69
704.154	3798.81
704.342	3606.3
704.531	3518.24
704.719	3669.79
704.907	3694.36
705.096	3680.03
705.284	3716.89
705.472	3516.19
705.661	3499.81
705.849	3567.39
706.037	3632.93
706.226	3561.25
706.414	3598.11
706.602	3497.76
706.79	3575.58
706.979	3522.34
707.167	3487.52
707.355	3460.9
707.543	3667.74
707.731	3596.06
707.919	3395.36
708.107	3385.12
708.296	3485.47
708.484	3327.78
708.672	3495.71
708.86	3436.32
709.048	3462.94
709.236	3387.17
709.424	3368.74
709.612	3295.01
709.8	3331.87
709.988	3290.92
710.176	3411.75
710.364	3415.84
710.551	3309.35
710.739	3331.87
710.927	3469.09
711.115	3338.02
711.303	3295.01
711.491	3366.69
711.679	3178.28
711.866	3272.48
712.054	3096.36
712.242	3237.67
712.43	3258.15
712.617	3227.43
712.805	3190.56
712.993	3233.57
713.181	3202.85
713.368	3141.41
713.556	3245.86
713.744	3114.79
713.931	3215.14
714.119	3122.98
714.306	3221.28
714.494	3174.18
714.682	3168.04
714.869	3030.82
715.057	3188.52
715.244	3047.21
715.432	3079.97
715.619	3133.22
715.807	3122.98
715.994	3077.93
716.182	3084.07
716.369	3043.11
716.556	3135.27
716.744	2893.61
716.931	2975.53
717.119	3137.32
717.306	3057.45
717.493	3077.93
717.681	2926.38
717.868	3004.2
718.055	2950.95
718.242	2881.32
718.43	2930.47
718.617	3102.5
718.804	2948.9
718.991	3059.49
719.179	2920.23
719.366	2901.8
719.553	2848.55
719.74	2903.85
719.927	2981.67
720.114	2914.09
720.301	2871.08
720.488	2832.17
720.676	2690.86
720.863	2875.18
721.05	2797.35
721.237	2811.69
721.424	2877.23
721.611	2719.53
721.798	2744.11
721.985	2842.41
722.172	2717.48
722.358	2840.36
722.545	2850.6
722.732	2654
722.919	2592.56
723.106	2658.09
723.293	2787.11
723.48	2619.18
723.667	2625.33
723.853	2740.01
724.04	2680.62
724.227	2717.48
724.414	2737.96
724.6	2662.19
724.787	2651.95
724.974	2654
725.161	2531.12
725.347	2621.23
725.534	2662.19
725.72	2496.3
725.907	2584.37
726.094	2651.95
726.28	2678.57
726.467	2529.07
726.653	2600.75
726.84	2623.28
727.027	2692.91
727.213	2520.88
727.4	2596.65
727.586	2524.97
727.773	2522.93
727.959	2477.87
728.145	2375.47
728.332	2490.16
728.518	2477.87
728.705	2441.01
728.891	2443.06
729.077	2338.61
729.264	2422.58
729.45	2385.71
729.636	2584.37
729.823	2426.67
730.009	2471.73
730.195	2561.84
730.382	2494.26
730.568	2514.73
730.754	2488.11
730.94	2516.78
731.126	2393.9
731.313	2621.23
731.499	2488.11
731.685	2441.01
731.871	2469.68
732.057	2402.1
732.243	2393.9
732.429	2424.62
732.615	2469.68
732.801	2432.82
732.987	2311.99
733.173	2320.18
733.359	2385.71
733.545	2342.71
733.731	2291.51
733.917	2445.1
734.103	2242.36
734.289	2385.71
734.475	2199.35
734.661	2406.19
734.847	2258.74
735.033	2361.14
735.219	2447.15
735.404	2322.23
735.59	2252.59
735.776	2225.97
735.962	2451.25
736.148	2219.83
736.333	2246.45
736.519	2320.18
736.705	2330.42
736.89	2264.88
737.076	2287.41
737.262	2111.29
737.447	2230.07
737.633	2180.92
737.819	2246.45
738.004	2156.34
738.19	2158.39
738.375	2203.44
738.561	2158.39
738.747	2094.9
738.932	2119.48
739.118	2238.26
739.303	2025.27
739.489	2107.19
739.674	2051.89
739.859	2025.27
740.045	2166.58
740.23	2150.2
740.416	2043.7
740.601	1992.5
740.786	2064.18
740.972	2002.74
741.157	2078.52
741.342	2072.37
741.528	1955.64
741.713	2023.22
741.898	2064.18
742.084	1992.5
742.269	2031.41
742.454	1929.02
742.639	2142
742.824	1998.65
743.01	1933.11
743.195	1935.16
743.38	1933.11
743.565	1935.16
743.75	1941.3
743.935	1955.64
744.12	2019.13
744.305	1867.58
744.49	1900.34
744.675	1931.06
744.86	1869.62
745.045	1851.19
745.23	1808.19
745.415	1808.19
745.6	1859.38
745.785	1744.7
745.97	1838.91
746.155	1847.1
746.34	1824.57
746.525	1783.61
746.71	1820.47
746.895	1765.18
747.079	1804.09
747.264	1759.03
747.449	1838.91
747.634	1746.75
747.819	1699.64
748.003	1709.88
748.188	1679.16
748.373	1656.64
748.557	1752.89
748.742	1656.64
748.927	1673.02
749.111	1670.97
749.296	1668.92
749.481	1617.72
749.665	1593.15
749.85	1642.3
750.034	1562.43
750.219	1640.25
750.404	1492.8
750.588	1539.9
750.773	1550.14
750.957	1515.33
751.141	1457.98
751.326	1513.28
751.51	1460.03
751.695	1406.78
751.879	1427.26
752.064	1576.77
752.248	1460.03
752.432	1490.75
752.617	1443.65
752.801	1400.64
752.985	1398.59
753.17	1345.34
753.354	1427.26
753.538	1439.55
753.722	1417.02
753.907	1443.65
754.091	1312.58
754.275	1400.64
754.459	1306.43
754.643	1363.78
754.828	1339.2
755.012	1318.72
755.196	1361.73
755.38	1359.68
755.564	1249.09
755.748	1351.49
755.932	1296.19
756.116	1265.47
756.3	1335.1
756.484	1158.98
756.668	1224.51
756.852	1208.13
757.036	1226.56
757.22	1222.47
757.404	1165.12
757.588	1265.47
757.772	1234.75
757.956	1144.64
758.14	1126.21
758.323	1132.36
758.507	1216.32
758.691	1156.93
758.875	1107.78
759.059	1214.27
759.242	1218.37
759.426	1083.2
759.61	1034.05
759.794	1167.17
759.977	1226.56
760.161	1173.32
760.345	1087.3
760.528	1093.44
760.712	1032.01
760.895	1122.12
761.079	1175.36
761.263	1062.73
761.446	1005.38
761.63	1066.82
761.813	1064.77
761.997	1032.01
762.18	978.76
762.364	1077.06
762.547	1007.43
762.731	1060.68
762.914	989
763.098	1025.86
763.281	952.13
763.464	1011.53
763.648	966.47
763.831	1013.57
764.015	1050.44
764.198	1034.05
764.381	974.66
764.564	943.94
764.748	958.28
764.931	917.32
765.114	929.61
765.297	915.27
765.481	978.76
765.664	935.75
765.847	978.76
766.03	1048.39
766.213	843.59
766.397	892.74
766.58	917.32
766.763	913.22
766.946	921.42
767.129	935.75
767.312	894.79
767.495	870.22
767.678	808.78
767.861	907.08
768.044	878.41
768.227	866.12
768.41	808.78
768.593	952.13
768.776	982.85
768.959	896.84
769.142	939.85
769.324	878.41
769.507	835.4
769.69	759.63
769.873	933.7
770.056	968.52
770.239	806.73
770.421	851.78
770.604	794.44
770.787	814.92
770.97	849.74
771.152	737.1
771.335	825.16
771.518	798.54
771.7	804.68
771.883	819.02
772.066	739.15
772.248	761.67
772.431	786.25
772.613	814.92
772.796	796.49
772.978	769.87
773.161	837.45
773.343	745.29
773.526	773.96
773.708	763.72
773.891	722.76
774.073	796.49
774.256	716.62
774.438	724.81
774.621	698.19
774.803	765.77
774.985	685.9
775.168	761.67
775.35	714.57
775.532	714.57
775.715	669.52
775.897	737.1
776.079	733
776.261	687.95
776.444	698.19
776.626	743.24
776.808	739.15
776.99	620.36
777.173	675.66
777.355	628.56
777.537	685.9
777.719	595.79
777.901	606.03
778.083	608.08
778.265	522.06
778.447	708.43
778.629	575.31
778.811	681.8
778.993	544.59
779.175	608.08
779.357	618.32
779.539	560.97
779.721	595.79
779.903	628.56
780.085	622.41
780.267	517.97
780.449	507.73
780.631	583.5
780.812	577.36
780.994	532.3
781.176	593.74
781.358	536.4
781.54	509.77
781.721	493.39
781.903	479.05
782.085	507.73
782.267	554.83
782.448	599.88
782.63	526.16
782.812	530.25
782.993	499.53
783.175	497.49
783.357	479.05
783.538	595.79
783.72	472.91
783.901	513.87
784.083	481.1
784.264	460.62
784.446	419.66
784.627	444.24
784.809	477.01
784.99	505.68
785.172	493.39
785.353	477.01
785.535	470.86
785.716	413.52
785.897	368.46
786.079	489.29
786.26	458.57
786.441	495.44
786.623	388.94
786.804	288.59
786.985	415.57
787.167	390.99
787.348	503.63
787.529	390.99
787.71	517.97
787.891	378.7
788.073	395.09
788.254	454.48
788.435	366.42
788.616	405.33
788.797	302.93
788.978	343.89
789.159	438.09
789.34	417.61
789.522	462.67
789.703	350.03
789.884	366.42
790.065	311.12
790.246	397.14
790.427	311.12
790.607	407.38
790.788	360.27
790.969	360.27
791.15	380.75
791.331	358.22
791.512	429.9
791.693	333.65
791.874	309.07
792.054	434
792.235	323.41
792.416	300.88
792.597	331.6
792.778	360.27
792.958	354.13
793.139	317.26
793.32	395.09
793.5	354.13
793.681	327.5
793.862	313.17
794.042	298.83
794.223	284.5
794.404	280.4
794.584	331.6
794.765	315.22
794.945	202.58
795.126	413.52
795.306	288.59
795.487	366.42
795.667	247.63
795.848	288.59
796.028	272.21
796.209	309.07
796.389	302.93
796.57	311.12
796.75	229.2
796.93	313.17
797.111	233.3
797.291	362.32
797.471	282.45
797.652	337.74
797.832	321.36
798.012	327.5
798.192	261.97
798.373	288.59
798.553	378.7
798.733	214.87
798.913	280.4
799.093	233.3
799.274	241.49
799.454	329.55
799.634	153.43
799.814	311.12
799.994	276.31
800.174	212.82
800.354	221.01
800.534	165.71
800.714	178
800.894	247.63
801.074	182.1
801.254	196.43
801.434	208.72
801.614	233.3
801.794	130.9
801.974	540.49
802.154	247.63
802.334	313.17
802.514	165.71
802.693	221.01
802.873	210.77
803.053	208.72
803.233	292.69
803.413	270.16
803.592	169.81
803.772	153.43
803.952	184.15
804.131	221.01
804.311	204.63
804.491	239.44
804.67	182.1
804.85	210.77
805.03	235.35
805.209	235.35
805.389	192.34
805.568	139.09
805.748	202.58
805.928	204.63
806.107	188.24
806.287	243.54
806.466	169.81
806.646	216.91
806.825	241.49
807.004	171.86
807.184	212.82
807.363	188.24
807.543	212.82
807.722	198.48
807.901	175.95
808.081	173.91
808.26	198.48
808.439	196.43
808.619	178
808.798	161.62
808.977	167.76
809.156	178
809.336	171.86
809.515	221.01
809.694	173.91
809.873	85.84
810.052	163.67
810.231	300.88
810.411	132.95
810.59	208.72
810.769	204.63
810.948	151.38
811.127	173.91
811.306	159.57
811.485	188.24
811.664	223.06
811.843	149.33
812.022	124.76
812.201	225.11
812.38	155.47
812.559	147.28
812.737	178
812.916	85.84
813.095	40.79
813.274	167.76
813.453	200.53
813.632	157.52
813.811	169.81
813.989	135
814.168	85.84
814.347	178
814.526	132.95
814.704	227.15
814.883	159.57
815.062	206.67
815.24	192.34
815.419	159.57
815.598	153.43
815.776	141.14
815.955	161.62
816.133	22.36
816.312	175.95
816.49	175.95
816.669	143.19
816.847	184.15
817.026	139.09
817.204	208.72
817.383	182.1
817.561	91.99
817.74	91.99
817.918	85.84
818.097	141.14
818.275	182.1
818.453	184.15
818.632	165.71
818.81	163.67
818.988	153.43
819.167	102.23
819.345	188.24
819.523	147.28
819.701	200.53
819.879	77.65
820.058	192.34
820.236	102.23
820.414	53.08
820.592	98.13
820.77	118.61
820.948	65.36
821.127	94.04
821.305	118.61
821.483	122.71
821.661	139.09
821.839	94.04
822.017	163.67
822.195	135
822.373	145.24
822.551	75.6
822.729	110.42
822.907	114.52
823.085	44.88
823.262	124.76
823.44	106.32
823.618	96.08
823.796	124.76
823.974	100.18
824.152	69.46
824.329	165.71
824.507	173.91
824.685	75.6
824.863	87.89
825.04	106.32
825.218	126.8
825.396	42.84
825.574	120.66
825.751	81.75
825.929	143.19
826.107	51.03
826.284	173.91
826.462	108.37
826.639	118.61
826.817	42.84
826.994	175.95
827.172	145.24
827.349	100.18
827.527	77.65
827.704	120.66
827.882	57.17
828.059	100.18
828.237	89.94
828.414	145.24
828.591	44.88
828.769	137.04
828.946	120.66
829.124	171.86
829.301	116.56
829.478	83.8
829.655	59.22
829.833	128.85
830.01	57.17
830.187	71.51
830.364	89.94
830.542	104.28
830.719	128.85
830.896	98.13
831.073	63.32
831.25	116.56
831.427	71.51
831.604	77.65
831.782	128.85
831.959	104.28
832.136	53.08
832.313	100.18
832.49	85.84
832.667	98.13
832.844	81.75
833.021	79.7
833.198	20.31
833.374	110.42
833.551	46.93
833.728	79.7
833.905	75.6
834.082	110.42
834.259	143.19
834.436	51.03
834.612	40.79
834.789	143.19
834.966	30.55
835.143	135
835.319	12.12
835.496	100.18
835.673	-8.36
835.85	143.19
836.026	51.03
836.203	42.84
836.38	85.84
836.556	135
836.733	116.56
836.909	120.66
837.086	-12.46
837.262	8.02
837.439	143.19
837.616	12.12
837.792	10.07
837.968	69.46
838.145	122.71
838.321	55.12
838.498	83.8
838.674	143.19
838.851	32.6
839.027	98.13
839.203	40.79
839.38	81.75
839.556	3.93
839.732	65.36
839.909	79.7
840.085	100.18
840.261	91.99
840.437	46.93
840.614	22.36
840.79	163.67
840.966	69.46
841.142	110.42
841.318	10.07
841.494	48.98
841.671	65.36
841.847	44.88
842.023	67.41
842.199	59.22
842.375	75.6
842.551	3.93
842.727	51.03
842.903	-22.7
843.079	38.74
843.255	46.93
843.431	34.64
843.607	106.32
843.783	67.41
843.959	51.03
844.134	137.04
844.31	126.8
844.486	38.74
844.662	91.99
844.838	85.84
845.013	83.8
845.189	83.8
845.365	98.13
845.541	61.27
845.716	83.8
845.892	36.69
846.068	40.79
846.244	-92.33
846.419	98.13
846.595	59.22
846.77	69.46
846.946	12.12
847.122	28.5
847.297	53.08
847.473	-2.22
847.648	55.12
847.824	65.36
847.999	24.4
848.175	40.79
848.35	38.74
848.526	-2.22
848.701	57.17
848.876	110.42
849.052	14.17
849.227	38.74
849.403	20.31
849.578	108.37
849.753	106.32
849.929	42.84
850.104	34.64
850.279	32.6
850.454	5.97
850.63	24.4
850.805	83.8
850.98	120.66
851.155	75.6
851.33	147.28
851.505	59.22
851.681	51.03
851.856	94.04
852.031	165.71
852.206	1.88
852.381	59.22
852.556	20.31
852.731	10.07
852.906	-4.27
853.081	26.45
853.256	83.8
853.431	-8.36
853.606	20.31
853.781	22.36
853.956	10.07
854.131	51.03
854.305	36.69
854.48	16.21
854.655	1.88
854.83	63.32
855.005	55.12
855.18	16.21
855.354	-26.79
855.529	63.32
855.704	34.64
855.879	104.28
856.053	32.6
856.228	48.98
856.403	16.21
856.577	71.51
856.752	-26.79
856.926	-0.17
857.101	30.55
857.276	1.88
857.45	94.04
857.625	-41.13
857.799	69.46
857.974	18.26
858.148	12.12
858.323	-0.17
858.497	36.69
858.672	36.69
858.846	-32.94
859.02	69.46
859.195	-8.36
859.369	-18.6
859.543	67.41
859.718	12.12
859.892	40.79
860.066	-26.79
860.241	26.45
860.415	-24.75
860.589	-16.55
860.763	91.99
860.938	-26.79
861.112	18.26
861.286	14.17
861.46	126.8
861.634	-2.22
861.808	77.65
861.982	55.12
862.157	12.12
862.331	48.98
862.505	-26.79
862.679	16.21
862.853	-39.08
863.027	-28.84
863.201	10.07
863.375	8.02
863.549	67.41
863.722	55.12
863.896	34.64
864.07	32.6
864.244	30.55
864.418	22.36
864.592	51.03
864.766	63.32
864.939	22.36
865.113	104.28
865.287	53.08
865.461	5.97
865.634	28.5
865.808	12.12
865.982	91.99
866.156	-10.41
866.329	-4.27
866.503	8.02
866.676	69.46
866.85	-2.22
867.024	44.88
867.197	-16.55
867.371	65.36
867.544	51.03
867.718	-51.37
867.891	65.36
868.065	14.17
868.238	-32.94
868.412	12.12
868.585	24.4
868.759	44.88
868.932	-2.22
869.105	3.93
869.279	-41.13
869.452	28.5
869.625	67.41
869.799	34.64
869.972	44.88
870.145	26.45
870.319	-0.17
870.492	57.17
870.665	5.97
870.838	48.98
871.011	-39.08
871.185	-30.89
871.358	-55.47
871.531	30.55
871.704	-18.6
871.877	18.26
872.05	26.45
872.223	26.45
872.396	71.51
872.569	-8.36
872.742	48.98
872.915	28.5
873.088	-57.51
873.261	24.4
873.434	34.64
873.607	-43.18
873.78	69.46
873.953	20.31
874.126	38.74
874.299	10.07
874.471	48.98
874.644	-12.46
874.817	-4.27
874.99	71.51
875.163	-30.89
875.335	20.31
875.508	16.21
875.681	3.93
875.853	-20.65
876.026	-34.99
876.199	51.03
876.371	26.45
876.544	-28.84
876.717	20.31
876.889	44.88
877.062	10.07
877.234	24.4
877.407	22.36
877.579	26.45
877.752	32.6
877.924	-32.94
878.097	65.36
878.269	51.03
878.442	36.69
878.614	10.07
878.786	51.03
878.959	-28.84
879.131	51.03
879.303	24.4
879.476	-22.7
879.648	-102.57
879.82	-22.7
879.993	55.12
880.165	10.07
880.337	36.69
880.509	-26.79
880.681	42.84
880.854	65.36
881.026	116.56
881.198	83.8
881.37	32.6
881.542	32.6
881.714	-4.27
881.886	-10.41
882.058	42.84
882.23	-12.46
882.402	-41.13
882.574	5.97
882.746	55.12
882.918	46.93
883.09	42.84
883.262	18.26
883.434	16.21
883.606	61.27
883.778	51.03
883.95	-65.71
884.122	28.5
884.293	-6.31
884.465	-55.47
884.637	53.08
884.809	-16.55
884.98	-55.47
885.152	-10.41
885.324	59.22
885.496	-8.36
885.667	-0.17
885.839	30.55
886.011	20.31
886.182	34.64
886.354	44.88
886.525	28.5
886.697	71.51
886.869	-100.52
887.04	10.07
887.212	24.4
887.383	44.88
887.555	-43.18
887.726	20.31
887.897	32.6
888.069	-2.22
888.24	73.56
888.412	3.93
888.583	-2.22
888.754	1.88
888.926	-8.36
889.097	-45.23
889.268	-12.46
889.44	32.6
889.611	18.26
889.782	16.21
889.953	-65.71
890.125	-0.17
890.296	-22.7
890.467	28.5
890.638	42.84
890.809	-4.27
890.98	12.12
891.151	38.74
891.323	42.84
891.494	28.5
891.665	10.07
891.836	-14.51
892.007	-10.41
892.178	-6.31
892.349	16.21
892.52	-2.22
892.691	16.21
892.862	-10.41
893.032	-59.56
893.203	-8.36
893.374	-16.55
893.545	34.64
893.716	36.69
893.887	18.26
894.057	-14.51
894.228	1.88
894.399	-51.37
894.57	34.64
894.74	42.84
894.911	8.02
895.082	61.27
895.253	-2.22
895.423	-8.36
895.594	46.93
895.764	24.4
895.935	-63.66
896.106	46.93
896.276	1.88
896.447	-0.17
896.617	-26.79
896.788	-61.61
896.958	42.84
897.129	-63.66
897.299	77.65
897.47	16.21
897.64	30.55
897.81	-18.6
897.981	32.6
898.151	5.97
898.322	36.69
898.492	30.55
898.662	-32.94
898.832	34.64
899.003	1.88
899.173	-43.18
899.343	-2.22
899.513	22.36
