Data from USB4F104151__39__12-35-46-820.txt Node

Date: Fri Mar 14 12:35:46 EDT 2025
User: louis
Spectrometer: USB4F10415
Trigger mode: 4
Integration Time (sec): 2.000000E-2
Scans to average: 1
Electric dark correction enabled: true
Nonlinearity correction enabled: false
Boxcar width: 0
XAxis mode: Wavelengths
Number of Pixels in Spectrum: 3648
>>>>>Begin Spectral Data<<<<<
178.204	-105.3
178.424	-105.3
178.644	-105.3
178.864	-41.81
179.084	-68.44
179.304	25.77
179.524	1.19
179.744	-29.52
179.964	3.24
180.184	-2.9
180.404	27.82
180.624	11.43
180.844	-70.48
181.064	11.43
181.283	23.72
181.503	-27.48
181.723	25.77
181.943	17.58
182.163	101.55
182.383	-13.14
182.602	60.59
182.822	70.83
183.042	36.01
183.262	21.67
183.482	9.39
183.701	58.54
183.921	3.24
184.141	-33.62
184.361	44.2
184.58	60.59
184.8	-21.33
185.02	-0.85
185.239	85.16
185.459	-52.05
185.679	115.88
185.898	11.43
186.118	-37.72
186.338	36.01
186.557	136.36
186.777	56.49
186.997	46.25
187.216	21.67
187.436	132.26
187.655	56.49
187.875	19.63
188.095	38.06
188.314	-19.29
188.534	105.64
188.753	60.59
188.973	60.59
189.192	54.44
189.412	72.87
189.631	91.31
189.851	-11.09
190.07	64.68
190.29	-17.24
190.509	111.78
190.729	-7
190.948	95.4
191.168	128.17
191.387	15.53
191.607	7.34
191.826	154.79
192.045	52.39
192.265	46.25
192.484	27.82
192.704	66.73
192.923	29.87
193.142	70.83
193.362	50.35
193.581	40.11
193.8	74.92
194.02	97.45
194.239	15.53
194.458	74.92
194.678	76.97
194.897	-2.9
195.116	91.31
195.335	29.87
195.555	48.3
195.774	56.49
195.993	-15.19
196.212	89.26
196.432	31.91
196.651	-29.52
196.87	36.01
197.089	31.91
197.308	89.26
197.528	48.3
197.747	46.25
197.966	54.44
198.185	48.3
198.404	-37.72
198.623	95.4
198.842	40.11
199.062	109.74
199.281	27.82
199.5	52.39
199.719	25.77
199.938	7.34
200.157	83.11
200.376	27.82
200.595	46.25
200.814	9.39
201.033	-21.33
201.252	40.11
201.471	148.65
201.69	33.96
201.909	13.48
202.128	11.43
202.347	58.54
202.566	62.63
202.785	29.87
203.004	48.3
203.223	79.02
203.442	56.49
203.661	13.48
203.879	50.35
204.098	119.98
204.317	-23.38
204.536	48.3
204.755	64.68
204.974	91.31
205.193	54.44
205.411	95.4
205.63	19.63
205.849	23.72
206.068	3.24
206.287	70.83
206.505	36.01
206.724	-25.43
206.943	-29.52
207.162	-2.9
207.381	36.01
207.599	7.34
207.818	85.16
208.037	-2.9
208.255	29.87
208.474	64.68
208.693	115.88
208.911	89.26
209.13	44.2
209.349	-2.9
209.567	5.29
209.786	56.49
210.005	-7
210.223	79.02
210.442	-11.09
210.661	29.87
210.879	97.45
211.098	44.2
211.316	5.29
211.535	91.31
211.753	-29.52
211.972	31.91
212.191	21.67
212.409	62.63
212.628	81.07
212.846	64.68
213.065	48.3
213.283	36.01
213.502	29.87
213.72	46.25
213.938	33.96
214.157	21.67
214.375	99.5
214.594	95.4
214.812	76.97
215.031	-21.33
215.249	21.67
215.467	91.31
215.686	-21.33
215.904	54.44
216.122	21.67
216.341	87.21
216.559	40.11
216.778	101.55
216.996	119.98
217.214	19.63
217.432	62.63
217.651	62.63
217.869	-76.63
218.087	1.19
218.306	46.25
218.524	48.3
218.742	25.77
218.96	68.78
219.179	38.06
219.397	11.43
219.615	46.25
219.833	83.11
220.051	40.11
220.27	48.3
220.488	40.11
220.706	33.96
220.924	25.77
221.142	42.15
221.36	44.2
221.578	25.77
221.796	76.97
222.015	56.49
222.233	81.07
222.451	64.68
222.669	5.29
222.887	79.02
223.105	-7
223.323	87.21
223.541	42.15
223.759	93.35
223.977	46.25
224.195	101.55
224.413	74.92
224.631	140.46
224.849	99.5
225.067	62.63
225.285	31.91
225.503	54.44
225.721	15.53
225.939	76.97
226.157	-29.52
226.375	128.17
226.592	40.11
226.81	56.49
227.028	36.01
227.246	91.31
227.464	42.15
227.682	91.31
227.9	25.77
228.117	79.02
228.335	66.73
228.553	66.73
228.771	52.39
228.989	-13.14
229.206	-17.24
229.424	29.87
229.642	72.87
229.86	58.54
230.077	76.97
230.295	42.15
230.513	60.59
230.731	64.68
230.948	-25.43
231.166	62.63
231.384	-9.05
231.601	-31.57
231.819	50.35
232.037	40.11
232.254	19.63
232.472	85.16
232.689	-21.33
232.907	13.48
233.125	85.16
233.342	-43.86
233.56	42.15
233.777	23.72
233.995	58.54
234.213	76.97
234.43	38.06
234.648	-15.19
234.865	66.73
235.083	5.29
235.3	23.72
235.518	103.59
235.735	42.15
235.953	25.77
236.17	38.06
236.388	74.92
236.605	113.83
236.822	50.35
237.04	83.11
237.257	7.34
237.475	62.63
237.692	83.11
237.909	117.93
238.127	62.63
238.344	70.83
238.562	33.96
238.779	33.96
238.996	105.64
239.214	91.31
239.431	13.48
239.648	62.63
239.865	15.53
240.083	95.4
240.3	5.29
240.517	23.72
240.735	5.29
240.952	42.15
241.169	5.29
241.386	-4.95
241.603	42.15
241.821	-17.24
242.038	152.74
242.255	44.2
242.472	1.19
242.689	85.16
242.907	76.97
243.124	23.72
243.341	58.54
243.558	33.96
243.775	64.68
243.992	107.69
244.209	113.83
244.426	66.73
244.643	54.44
244.86	70.83
245.078	64.68
245.295	103.59
245.512	85.16
245.729	7.34
245.946	89.26
246.163	66.73
246.38	101.55
246.597	79.02
246.814	52.39
247.031	109.74
247.248	17.58
247.464	50.35
247.681	29.87
247.898	-4.95
248.115	50.35
248.332	60.59
248.549	134.31
248.766	52.39
248.983	50.35
249.2	79.02
249.417	27.82
249.633	40.11
249.85	-15.19
250.067	99.5
250.284	9.39
250.501	93.35
250.717	60.59
250.934	7.34
251.151	27.82
251.368	54.44
251.585	13.48
251.801	-11.09
252.018	31.91
252.235	19.63
252.451	-15.19
252.668	38.06
252.885	31.91
253.102	-58.2
253.318	76.97
253.535	74.92
253.752	33.96
253.968	40.11
254.185	17.58
254.401	64.68
254.618	19.63
254.835	87.21
255.051	29.87
255.268	74.92
255.484	5.29
255.701	81.07
255.917	74.92
256.134	-23.38
256.351	38.06
256.567	7.34
256.784	54.44
257	-17.24
257.217	-17.24
257.433	38.06
257.65	81.07
257.866	25.77
258.082	13.48
258.299	54.44
258.515	72.87
258.732	-15.19
258.948	15.53
259.165	17.58
259.381	29.87
259.597	64.68
259.814	93.35
260.03	13.48
260.246	54.44
260.463	87.21
260.679	83.11
260.895	21.67
261.112	62.63
261.328	-7
261.544	38.06
261.761	50.35
261.977	74.92
262.193	-0.85
262.409	72.87
262.626	44.2
262.842	60.59
263.058	3.24
263.274	62.63
263.49	36.01
263.707	25.77
263.923	91.31
264.139	70.83
264.355	50.35
264.571	126.12
264.787	31.91
265.004	105.64
265.22	19.63
265.436	62.63
265.652	-31.57
265.868	-27.48
266.084	56.49
266.3	-11.09
266.516	3.24
266.732	95.4
266.948	-13.14
267.164	33.96
267.38	25.77
267.596	68.78
267.812	1.19
268.028	68.78
268.244	46.25
268.46	74.92
268.676	-0.85
268.892	38.06
269.108	40.11
269.324	44.2
269.54	36.01
269.756	-25.43
269.972	9.39
270.188	64.68
270.403	72.87
270.619	74.92
270.835	40.11
271.051	17.58
271.267	27.82
271.483	48.3
271.698	9.39
271.914	95.4
272.13	85.16
272.346	15.53
272.562	42.15
272.777	93.35
272.993	64.68
273.209	-58.2
273.425	50.35
273.64	11.43
273.856	58.54
274.072	23.72
274.287	7.34
274.503	17.58
274.719	11.43
274.934	13.48
275.15	74.92
275.366	33.96
275.581	42.15
275.797	68.78
276.012	15.53
276.228	5.29
276.444	19.63
276.659	74.92
276.875	-4.95
277.09	15.53
277.306	50.35
277.521	-19.29
277.737	42.15
277.952	128.17
278.168	42.15
278.383	91.31
278.599	111.78
278.814	72.87
279.03	113.83
279.245	105.64
279.461	-35.67
279.676	25.77
279.892	31.91
280.107	25.77
280.322	83.11
280.538	15.53
280.753	115.88
280.969	19.63
281.184	42.15
281.399	70.83
281.615	48.3
281.83	85.16
282.045	25.77
282.26	31.91
282.476	11.43
282.691	64.68
282.906	72.87
283.122	126.12
283.337	-21.33
283.552	52.39
283.767	38.06
283.983	19.63
284.198	83.11
284.413	138.41
284.628	40.11
284.843	85.16
285.058	1.19
285.274	42.15
285.489	52.39
285.704	17.58
285.919	33.96
286.134	70.83
286.349	52.39
286.564	23.72
286.779	11.43
286.995	42.15
287.21	17.58
287.425	9.39
287.64	31.91
287.855	25.77
288.07	1.19
288.285	-23.38
288.5	79.02
288.715	36.01
288.93	23.72
289.145	36.01
289.36	81.07
289.575	5.29
289.79	54.44
290.004	83.11
290.219	1.19
290.434	-27.48
290.649	15.53
290.864	-15.19
291.079	9.39
291.294	15.53
291.509	58.54
291.724	-13.14
291.938	23.72
292.153	52.39
292.368	31.91
292.583	95.4
292.798	95.4
293.012	89.26
293.227	9.39
293.442	66.73
293.657	9.39
293.871	79.02
294.086	3.24
294.301	101.55
294.516	72.87
294.73	56.49
294.945	25.77
295.16	44.2
295.374	117.93
295.589	81.07
295.804	13.48
296.018	36.01
296.233	54.44
296.447	93.35
296.662	-4.95
296.877	15.53
297.091	72.87
297.306	27.82
297.52	33.96
297.735	87.21
297.949	40.11
298.164	21.67
298.378	79.02
298.593	38.06
298.807	42.15
299.022	36.01
299.236	72.87
299.451	-7
299.665	31.91
299.88	29.87
300.094	87.21
300.309	68.78
300.523	76.97
300.737	-23.38
300.952	70.83
301.166	50.35
301.381	48.3
301.595	40.11
301.809	3.24
302.024	52.39
302.238	-29.52
302.452	85.16
302.667	79.02
302.881	62.63
303.095	-7
303.309	89.26
303.524	36.01
303.738	76.97
303.952	95.4
304.166	-33.62
304.381	31.91
304.595	29.87
304.809	-21.33
305.023	44.2
305.237	17.58
305.452	81.07
305.666	42.15
305.88	68.78
306.094	46.25
306.308	52.39
306.522	62.63
306.736	-27.48
306.95	38.06
307.164	31.91
307.379	58.54
307.593	85.16
307.807	74.92
308.021	64.68
308.235	29.87
308.449	23.72
308.663	38.06
308.877	11.43
309.091	60.59
309.305	52.39
309.519	38.06
309.733	97.45
309.947	-58.2
310.161	52.39
310.374	107.69
310.588	89.26
310.802	-39.76
311.016	33.96
311.23	42.15
311.444	11.43
311.658	54.44
311.872	76.97
312.085	25.77
312.299	70.83
312.513	42.15
312.727	9.39
312.941	38.06
313.154	40.11
313.368	81.07
313.582	52.39
313.796	48.3
314.009	101.55
314.223	-17.24
314.437	5.29
314.651	58.54
314.864	-0.85
315.078	-9.05
315.292	52.39
315.505	33.96
315.719	85.16
315.933	60.59
316.146	33.96
316.36	-25.43
316.573	70.83
316.787	95.4
317.001	91.31
317.214	-2.9
317.428	11.43
317.641	31.91
317.855	50.35
318.068	42.15
318.282	29.87
318.495	126.12
318.709	115.88
318.922	1.19
319.136	60.59
319.349	117.93
319.563	68.78
319.776	3.24
319.99	-43.86
320.203	38.06
320.417	19.63
320.63	99.5
320.843	54.44
321.057	-2.9
321.27	83.11
321.483	87.21
321.697	95.4
321.91	29.87
322.124	48.3
322.337	-0.85
322.55	103.59
322.763	56.49
322.977	122.02
323.19	29.87
323.403	-7
323.617	50.35
323.83	122.02
324.043	126.12
324.256	162.98
324.469	52.39
324.683	99.5
324.896	31.91
325.109	64.68
325.322	21.67
325.535	17.58
325.748	119.98
325.962	76.97
326.175	68.78
326.388	72.87
326.601	85.16
326.814	68.78
327.027	72.87
327.24	74.92
327.453	-23.38
327.666	97.45
327.879	7.34
328.092	74.92
328.305	72.87
328.518	46.25
328.731	38.06
328.944	40.11
329.157	54.44
329.37	29.87
329.583	48.3
329.796	83.11
330.009	23.72
330.222	38.06
330.435	93.35
330.648	58.54
330.861	79.02
331.073	25.77
331.286	52.39
331.499	52.39
331.712	5.29
331.925	13.48
332.138	81.07
332.35	23.72
332.563	74.92
332.776	56.49
332.989	-4.95
333.202	68.78
333.414	23.72
333.627	140.46
333.84	54.44
334.053	-33.62
334.265	3.24
334.478	83.11
334.691	105.64
334.903	58.54
335.116	-45.91
335.329	101.55
335.541	74.92
335.754	64.68
335.966	-13.14
336.179	44.2
336.392	50.35
336.604	-2.9
336.817	54.44
337.029	64.68
337.242	23.72
337.454	54.44
337.667	42.15
337.88	113.83
338.092	85.16
338.305	46.25
338.517	1.19
338.729	58.54
338.942	33.96
339.154	48.3
339.367	117.93
339.579	44.2
339.792	74.92
340.004	54.44
340.217	15.53
340.429	74.92
340.641	9.39
340.854	13.48
341.066	46.25
341.278	29.87
341.491	91.31
341.703	115.88
341.915	54.44
342.128	70.83
342.34	19.63
342.552	31.91
342.764	-7
342.977	111.78
343.189	11.43
343.401	62.63
343.613	40.11
343.826	66.73
344.038	81.07
344.25	89.26
344.462	13.48
344.674	46.25
344.886	40.11
345.099	56.49
345.311	40.11
345.523	87.21
345.735	-25.43
345.947	165.03
346.159	95.4
346.371	33.96
346.583	95.4
346.795	68.78
347.007	56.49
347.219	89.26
347.431	89.26
347.643	13.48
347.855	97.45
348.067	56.49
348.279	70.83
348.491	23.72
348.703	-4.95
348.915	87.21
349.127	46.25
349.339	31.91
349.551	40.11
349.763	27.82
349.975	54.44
350.187	89.26
350.399	46.25
350.61	64.68
350.822	33.96
351.034	68.78
351.246	79.02
351.458	79.02
351.669	68.78
351.881	89.26
352.093	25.77
352.305	119.98
352.517	38.06
352.728	56.49
352.94	103.59
353.152	70.83
353.363	36.01
353.575	91.31
353.787	40.11
353.999	7.34
354.21	107.69
354.422	48.3
354.633	44.2
354.845	27.82
355.057	46.25
355.268	36.01
355.48	85.16
355.692	-2.9
355.903	74.92
356.115	31.91
356.326	11.43
356.538	89.26
356.749	81.07
356.961	64.68
357.172	74.92
357.384	25.77
357.595	72.87
357.807	-15.19
358.018	7.34
358.23	15.53
358.441	95.4
358.653	91.31
358.864	91.31
359.075	29.87
359.287	56.49
359.498	29.87
359.709	138.41
359.921	48.3
360.132	36.01
360.344	64.68
360.555	62.63
360.766	138.41
360.977	48.3
361.189	48.3
361.4	-15.19
361.611	60.59
361.823	44.2
362.034	36.01
362.245	9.39
362.456	19.63
362.667	81.07
362.879	70.83
363.09	105.64
363.301	62.63
363.512	9.39
363.723	93.35
363.935	70.83
364.146	91.31
364.357	70.83
364.568	138.41
364.779	48.3
364.99	93.35
365.201	115.88
365.412	48.3
365.623	23.72
365.834	83.11
366.045	27.82
366.256	72.87
366.467	68.78
366.678	119.98
366.889	46.25
367.1	27.82
367.311	134.31
367.522	99.5
367.733	46.25
367.944	58.54
368.155	64.68
368.366	74.92
368.577	44.2
368.788	101.55
368.999	64.68
369.209	60.59
369.42	160.94
369.631	76.97
369.842	48.3
370.053	42.15
370.264	64.68
370.474	117.93
370.685	42.15
370.896	31.91
371.107	97.45
371.317	44.2
371.528	-2.9
371.739	83.11
371.95	33.96
372.16	68.78
372.371	-0.85
372.582	48.3
372.792	15.53
373.003	93.35
373.214	74.92
373.424	122.02
373.635	-15.19
373.846	74.92
374.056	89.26
374.267	107.69
374.477	62.63
374.688	83.11
374.898	56.49
375.109	62.63
375.319	109.74
375.53	115.88
375.74	70.83
375.951	76.97
376.161	89.26
376.372	44.2
376.582	7.34
376.793	52.39
377.003	-11.09
377.214	52.39
377.424	33.96
377.635	48.3
377.845	21.67
378.055	115.88
378.266	81.07
378.476	48.3
378.686	68.78
378.897	-17.24
379.107	-9.05
379.317	83.11
379.528	-7
379.738	19.63
379.948	60.59
380.158	58.54
380.369	62.63
380.579	140.46
380.789	-2.9
380.999	122.02
381.21	122.02
381.42	91.31
381.63	81.07
381.84	46.25
382.05	105.64
382.261	128.17
382.471	87.21
382.681	81.07
382.891	83.11
383.101	79.02
383.311	-25.43
383.521	60.59
383.731	76.97
383.941	66.73
384.151	81.07
384.361	60.59
384.571	87.21
384.781	42.15
384.991	60.59
385.201	175.27
385.411	48.3
385.621	44.2
385.831	38.06
386.041	50.35
386.251	60.59
386.461	58.54
386.671	134.31
386.881	60.59
387.091	42.15
387.301	42.15
387.511	15.53
387.72	117.93
387.93	117.93
388.14	81.07
388.35	146.6
388.56	119.98
388.769	42.15
388.979	38.06
389.189	31.91
389.399	122.02
389.609	74.92
389.818	124.07
390.028	36.01
390.238	46.25
390.447	31.91
390.657	27.82
390.867	113.83
391.076	97.45
391.286	70.83
391.496	74.92
391.705	31.91
391.915	40.11
392.125	31.91
392.334	62.63
392.544	109.74
392.753	62.63
392.963	60.59
393.172	72.87
393.382	91.31
393.591	70.83
393.801	119.98
394.01	111.78
394.22	74.92
394.429	76.97
394.639	40.11
394.848	81.07
395.058	105.64
395.267	74.92
395.477	107.69
395.686	46.25
395.895	76.97
396.105	62.63
396.314	99.5
396.524	99.5
396.733	50.35
396.942	140.46
397.152	85.16
397.361	29.87
397.57	105.64
397.78	146.6
397.989	76.97
398.198	146.6
398.407	83.11
398.617	150.7
398.826	97.45
399.035	103.59
399.244	105.64
399.453	113.83
399.663	83.11
399.872	122.02
400.081	124.07
400.29	74.92
400.499	132.26
400.708	109.74
400.917	83.11
401.127	134.31
401.336	48.3
401.545	81.07
401.754	115.88
401.963	191.66
402.172	95.4
402.381	173.22
402.59	115.88
402.799	79.02
403.008	103.59
403.217	124.07
403.426	122.02
403.635	117.93
403.844	136.36
404.053	167.08
404.262	111.78
404.471	126.12
404.68	224.42
404.888	136.36
405.097	160.94
405.306	154.79
405.515	107.69
405.724	130.22
405.933	193.7
406.142	199.85
406.35	232.62
406.559	160.94
406.768	197.8
406.977	210.09
407.185	201.9
407.394	220.33
407.603	136.36
407.812	283.81
408.02	253.09
408.229	251.05
408.438	193.7
408.646	197.8
408.855	203.94
409.064	234.66
409.272	273.57
409.481	249
409.69	314.53
409.898	267.43
410.107	328.87
410.315	316.58
410.524	320.68
410.733	304.29
410.941	337.06
411.15	363.69
411.358	314.53
411.567	421.03
411.775	437.41
411.984	390.31
412.192	392.36
412.401	414.88
412.609	507.04
412.818	496.8
413.026	451.75
413.234	482.47
413.443	486.56
413.651	468.13
413.86	574.63
414.068	570.53
414.276	629.92
414.485	605.35
414.693	627.87
414.901	634.02
415.11	613.54
415.318	644.26
415.526	652.45
415.734	728.22
415.943	670.88
416.151	767.13
416.359	677.02
416.567	703.65
416.776	900.25
416.984	838.81
417.192	883.87
417.4	879.77
417.608	941.21
417.817	1039.51
418.025	947.36
418.233	1019.04
418.441	1078.43
418.649	1133.72
418.857	1242.26
419.065	1252.5
419.273	1180.82
419.481	1205.4
419.689	1277.08
419.897	1420.44
420.105	1330.33
420.313	1434.77
420.521	1453.2
420.729	1442.96
420.937	1600.66
421.145	1539.22
421.353	1744.02
421.561	1713.3
421.769	1713.3
421.977	1901.71
422.185	1830.03
422.393	1969.29
422.601	2198.67
422.809	2094.22
423.017	2038.92
423.224	2210.95
423.432	2147.47
423.64	2233.48
423.848	2550.92
424.056	2454.66
424.263	2598.02
424.471	2600.07
424.679	2626.69
424.887	2786.43
425.094	2811.01
425.302	2923.65
425.51	3007.61
425.718	3142.78
425.925	3124.35
426.133	3171.45
426.341	3310.71
426.548	3464.31
426.756	3525.75
426.964	3574.9
427.171	3796.08
427.379	3845.23
427.586	3923.05
427.794	4136.04
428.001	4209.77
428.209	4586.6
428.417	4336.74
428.624	4744.29
428.832	4580.45
429.039	4658.28
429.247	4637.8
429.454	5147.74
429.662	5387.35
429.869	4996.19
430.076	5528.66
430.284	5389.4
430.491	5633.11
430.699	5760.08
430.906	5815.38
431.114	5971.02
431.321	6126.67
431.528	6194.25
431.736	6743.11
431.943	6841.41
432.15	6743.11
432.358	6704.2
432.565	7179.33
432.772	7060.54
432.979	7498.81
433.187	7656.5
433.394	7707.7
433.601	8199.21
433.808	8315.95
434.016	8207.41
434.223	8479.79
434.43	9022.5
434.637	8916
434.844	9311.26
435.052	9571.35
435.259	9577.5
435.466	9571.35
435.673	9575.45
435.88	10071.06
436.087	10531.85
436.294	10632.2
436.501	10380.3
436.708	10695.69
436.915	11011.07
437.122	11385.85
437.329	11498.49
437.537	11815.93
437.743	11971.57
437.95	11764.73
438.157	12696.55
438.364	12774.38
438.571	12798.95
438.778	12966.88
438.985	14123.99
439.192	13384.67
439.399	14148.56
439.606	13507.55
439.813	14513.1
440.02	15174.6
440.227	14898.12
440.433	14924.74
440.64	15272.9
440.847	15217.6
441.054	15766.46
441.261	16614.32
441.467	16358.32
441.674	17060.77
441.881	17611.68
442.088	17259.43
442.294	17453.98
442.501	17761.18
442.708	18109.33
442.914	18891.66
443.121	19587.97
443.328	19205
443.534	20206.45
443.741	19790.72
443.948	19516.29
444.154	20444.02
444.361	21017.45
444.568	20968.3
444.774	21080.94
444.981	20751.21
445.187	21873.5
445.394	22426.45
445.6	22553.43
445.807	24523.57
446.013	23466.82
446.22	23933.76
446.426	24718.13
446.633	25162.54
446.839	25703.2
447.046	24472.37
447.252	26278.68
447.459	26272.54
447.665	25998.11
447.871	27126.54
448.078	28650.23
448.284	26835.73
448.491	28291.83
448.697	28898.03
448.903	29358.83
449.11	29723.37
449.316	29016.82
449.522	29539.05
449.728	30239.45
449.935	30520.02
450.141	30317.28
450.347	31021.78
450.553	30198.49
450.76	30755.54
450.966	31720.13
451.172	31214.29
451.378	31953.6
451.584	31265.49
451.791	32420.54
451.997	31963.84
452.203	32500.41
452.409	32654.01
452.615	32535.23
452.821	30825.17
453.027	30970.58
453.233	32430.78
453.44	31249.1
453.646	31793.86
453.852	31711.94
454.058	32074.43
454.264	31365.84
454.47	31965.89
454.676	31402.7
454.882	32297.66
455.088	29772.52
455.294	29479.66
455.5	30348
455.705	30753.49
455.911	29420.27
456.117	28572.41
456.323	28429.05
456.529	26882.83
456.735	27839.23
456.941	27001.61
457.147	26727.19
457.352	26313.5
457.558	25744.16
457.764	25910.05
457.97	24863.54
458.176	24740.66
458.381	24742.71
458.587	23309.13
458.793	23610.18
458.999	22270.81
459.204	23589.7
459.41	23276.36
459.616	21535.59
459.821	21504.87
460.027	21570.4
460.233	21105.51
460.438	20163.45
460.644	20337.52
460.85	19262.34
461.055	18955.15
461.261	19075.98
461.466	17363.87
461.672	17048.49
461.878	18359.19
462.083	16894.89
462.289	16720.81
462.494	16444.34
462.7	15764.41
462.905	15543.23
463.111	15885.24
463.316	15645.63
463.522	15422.4
463.727	15705.02
463.932	15655.87
464.138	15403.97
464.343	15496.13
464.549	15088.58
464.754	15369.15
464.959	15254.47
465.165	15182.79
465.37	14449.61
465.575	14369.74
465.781	14861.26
465.986	14916.55
466.191	14156.75
466.397	14027.73
466.602	13464.54
466.807	13908.95
467.012	13728.73
467.218	13837.27
467.423	13743.06
467.628	13579.23
467.833	14269.39
468.038	13698.01
468.244	13368.29
468.449	14003.16
468.654	13544.41
468.859	13409.25
469.064	13310.94
469.269	12891.11
469.474	12856.29
469.679	13163.49
469.885	12841.96
470.09	12776.42
470.295	12866.53
470.5	12604.39
470.705	12643.31
470.91	12202.99
471.115	12018.68
471.32	12264.43
471.525	12262.38
471.73	11877.37
471.935	11824.12
472.139	11394.04
472.344	11633.66
472.549	11715.58
472.754	11435
472.959	11291.65
473.164	10963.97
473.369	10908.68
473.574	11310.08
473.778	11166.72
473.983	11031.55
474.188	11060.23
474.393	10515.47
474.598	10529.8
474.802	10509.32
475.007	10501.13
475.212	10400.78
475.417	10058.77
475.621	9989.14
475.826	10028.05
476.031	9776.15
476.235	9849.88
476.44	9999.38
476.645	9690.13
476.849	9638.94
477.054	9583.64
477.259	9485.34
477.463	9473.05
477.668	9196.57
477.872	9163.81
478.077	8823.84
478.282	8913.95
478.486	8918.05
478.691	8776.74
478.895	8803.36
479.1	8758.31
479.304	8707.11
479.509	8547.37
479.713	8571.94
479.918	8500.26
480.122	8162.35
480.326	8576.04
480.531	8383.53
480.735	8203.31
480.94	8307.76
481.144	8414.25
481.348	8047.66
481.553	8055.86
481.757	7932.98
481.961	8162.35
482.166	8170.54
482.37	8127.53
482.574	8041.52
482.778	8047.66
482.983	8145.97
483.187	8018.99
483.391	8213.55
483.595	8066.1
483.8	8084.53
484.004	8117.29
484.208	8244.27
484.412	8127.53
484.616	8299.56
484.821	8168.49
485.025	7900.21
485.229	8186.93
485.433	8100.91
485.637	8123.44
485.841	7928.88
486.045	8170.54
486.249	7908.4
486.453	8244.27
486.657	8244.27
486.861	8174.64
487.065	7773.24
487.269	8066.1
487.473	7838.77
487.677	8082.48
487.881	8264.75
488.085	7920.69
488.289	8037.42
488.493	8096.82
488.697	8170.54
488.901	8229.93
489.105	8033.33
489.309	8139.82
489.512	8344.62
489.716	8123.44
489.92	8297.52
490.124	8266.8
490.328	8361
490.531	8238.12
490.735	8551.46
490.939	8541.22
491.143	8576.04
491.346	8432.68
491.55	8641.57
491.754	8576.04
491.958	8576.04
492.161	8666.15
492.365	8657.96
492.569	8361
492.772	8696.87
492.976	8856.61
493.18	8645.67
493.383	8805.41
493.587	8864.8
493.79	9018.4
493.994	8827.94
494.197	8975.39
494.401	9192.48
494.605	9397.28
494.808	9341.98
495.012	9573.4
495.215	9223.2
495.419	9313.31
495.622	9346.08
495.825	9559.06
496.029	9550.87
496.232	9763.86
496.436	9794.58
496.639	9845.78
496.843	9737.24
497.046	9976.85
497.249	10454.03
497.453	10116.11
497.656	10257.42
497.859	10441.74
498.063	10490.89
498.266	10748.93
498.469	10890.24
498.673	10757.13
498.876	11111.43
499.079	11203.58
499.282	11127.81
499.485	11453.44
499.689	11453.44
499.892	11639.8
500.095	11672.57
500.298	11985.91
500.501	11895.8
500.705	12059.63
500.908	12358.64
501.111	12385.26
501.314	12506.09
501.517	12596.2
501.72	12850.15
501.923	12946.41
502.126	13401.05
502.329	13460.45
502.532	13577.18
502.735	13356
502.938	13792.22
503.141	13712.35
503.344	14179.28
503.547	14144.47
503.75	14490.57
503.953	14666.7
504.156	14896.07
504.359	14857.16
504.562	14889.93
504.765	15205.31
504.968	15381.44
505.17	15743.93
505.373	15520.7
505.576	15911.86
505.779	16178.1
505.982	16165.81
506.185	16536.49
506.387	16724.91
506.59	16772.01
506.793	17284
506.996	16931.75
507.198	17388.45
507.401	17566.62
507.604	17572.77
507.807	18060.18
508.009	18119.57
508.212	18408.34
508.415	18545.55
508.617	18770.83
508.82	19178.37
509.022	18903.95
509.225	19792.76
509.428	19379.07
509.63	19643.26
509.833	20005.75
510.035	20396.92
510.238	20337.52
510.44	20616.05
510.643	20960.11
510.845	20882.28
511.048	20814.7
511.25	21379.94
511.453	21375.84
511.655	22410.07
511.858	22160.22
512.06	22164.31
512.262	22653.78
512.465	22559.57
512.667	22827.85
512.87	23411.53
513.072	23270.22
513.274	23733.06
513.477	24095.55
513.679	24269.62
513.881	24503.09
514.084	24556.34
514.286	24818.48
514.488	25230.12
514.69	25899.81
514.893	26096.41
515.095	25928.48
515.297	26293.02
515.499	26850.06
515.701	26567.45
515.904	26602.26
516.106	26891.02
516.308	27683.59
516.51	27722.5
516.712	28011.26
516.914	28277.5
517.116	28795.64
517.318	28812.02
517.52	29010.67
517.722	29211.37
517.925	29934.31
518.127	29983.46
518.329	30546.65
518.531	30077.66
518.733	30636.76
518.935	30851.8
519.136	31032.02
519.338	31744.71
519.54	31765.19
519.742	32066.24
519.944	32119.49
520.146	32756.41
520.348	32717.5
520.55	33153.71
520.752	33403.56
520.954	33870.5
521.155	33995.43
521.357	34273.95
521.559	34175.65
521.761	35039.89
521.963	35009.17
522.164	35265.17
522.366	35472.01
522.568	36033.16
522.77	35816.07
522.971	36586.11
523.173	35897.99
523.375	36457.09
523.576	36797.05
523.778	36870.78
523.98	37210.74
524.181	37593.71
524.383	37511.79
524.584	38062.69
524.786	38091.37
524.988	38165.09
525.189	38353.51
525.391	38603.36
525.592	38857.31
525.794	38914.65
525.995	39158.36
526.197	39191.12
526.398	39529.04
526.6	39613.01
526.801	39518.8
527.003	39950.92
527.204	40045.13
527.406	40311.36
527.607	40229.44
527.808	40514.11
528.01	39869
528.211	40276.55
528.412	41308.72
528.614	40905.27
528.815	41062.97
529.016	41235
529.218	41013.82
529.419	41660.97
529.62	41196.09
529.822	41435.7
530.023	41318.96
530.224	41490.99
530.425	41423.41
530.626	41198.13
530.828	41480.75
531.029	42050.09
531.23	41611.82
531.431	41859.63
531.632	41718.32
531.833	42396.2
532.035	42015.27
532.236	42308.13
532.437	42428.96
532.638	41888.3
532.839	41951.79
533.04	42668.58
533.241	41687.6
533.442	43008.54
533.643	42195.49
533.844	42107.43
534.045	42455.59
534.246	42107.43
534.447	42586.66
534.648	42185.25
534.849	42547.75
535.05	42105.38
535.251	42160.68
535.451	42134.06
535.652	42025.51
535.853	42005.03
536.054	42304.04
536.255	42502.69
536.456	41959.98
536.657	42586.66
536.857	42025.51
537.058	41646.64
537.259	42244.65
537.46	41929.26
537.66	42070.57
537.861	42287.65
538.062	41878.06
538.263	42152.49
538.463	41845.29
538.664	41941.55
538.865	42187.3
539.065	42322.47
539.266	41792.04
539.466	42107.43
539.667	41626.16
539.868	42086.95
540.068	42025.51
540.269	41855.53
540.469	42056.23
540.67	41376.31
540.87	41464.37
541.071	41443.89
541.271	41544.24
541.472	41460.27
541.672	41589.3
541.873	41488.95
542.073	41060.92
542.274	41759.28
542.474	41278
542.675	40809.02
542.875	41620.02
543.075	41216.57
543.276	40520.26
543.476	41210.42
543.676	41378.36
543.877	41407.03
544.077	41329.2
544.277	41228.85
544.478	40757.82
544.678	41349.68
544.878	41058.87
545.078	41302.58
545.279	40720.96
545.479	40792.64
545.679	41292.34
545.879	40948.28
546.079	41009.72
546.28	40841.79
546.48	41155.13
546.68	40819.26
546.88	41038.39
547.08	40925.75
547.28	40665.66
547.48	40624.7
547.68	40813.12
547.88	40391.23
548.081	41005.62
548.281	40702.53
548.481	40665.66
548.681	40866.36
548.881	40815.16
549.081	40909.37
549.28	40415.81
549.48	40895.03
549.68	40712.77
549.88	40940.09
550.08	40053.32
550.28	40880.7
550.48	40479.3
550.68	40749.63
550.88	40088.13
551.08	40432.19
551.279	40557.12
551.479	40145.48
551.679	40424
551.879	40096.33
552.079	40956.47
552.278	40622.65
552.478	40237.64
552.678	40452.67
552.878	40278.6
553.077	39756.36
553.277	40227.4
553.477	40464.96
553.676	39881.29
553.876	40206.92
554.076	39952.97
554.275	39869
554.475	40057.42
554.674	40041.03
554.874	39721.55
555.074	39735.88
555.273	40151.62
555.473	40294.98
555.672	39699.02
555.872	39606.86
556.071	39311.95
556.271	40116.81
556.47	39465.55
556.67	39342.67
556.869	38947.42
557.068	39754.32
557.268	39285.33
557.467	39584.33
557.667	39629.39
557.866	39479.89
558.065	39432.78
558.265	39107.16
558.464	39041.62
558.663	38998.62
558.863	38816.35
559.062	39656.01
559.261	39015
559.461	39645.77
559.66	38206.05
559.859	38853.21
560.058	38494.82
560.258	38797.91
560.457	38376.03
560.656	38672.99
560.855	38529.63
561.054	38740.57
561.253	38167.14
561.453	38601.31
561.652	38425.18
561.851	38441.57
562.05	38156.9
562.249	37730.92
562.448	38124.13
562.647	37796.46
562.846	37909.1
563.045	37712.49
563.244	37268.08
563.443	37892.71
563.642	37276.27
563.841	37341.81
564.04	37366.38
564.239	37403.25
564.438	36876.92
564.637	37116.53
564.836	36997.75
565.035	36489.85
565.234	37005.94
565.432	36520.57
565.631	36199.04
565.83	36645.5
566.029	36571.77
566.228	36342.4
566.427	36401.79
566.625	36127.36
566.824	35504.78
567.023	36233.86
567.222	35496.59
567.42	35859.08
567.619	35869.32
567.818	35732.11
568.016	35605.13
568.215	35738.25
568.414	35463.82
568.612	35668.62
568.811	35310.22
569.01	35058.32
569.208	34589.34
569.407	35508.88
569.605	34646.68
569.804	34968.21
570.002	34423.45
570.201	34658.97
570.4	33987.24
570.598	34024.1
570.797	34007.72
570.995	34124.45
571.193	33829.54
571.392	33856.17
571.59	33401.52
571.789	33510.06
571.987	33811.11
572.186	33530.54
572.384	33364.65
572.582	33026.74
572.781	33350.32
572.979	33049.27
573.177	32768.69
573.376	32864.95
573.574	32715.45
573.772	32987.83
573.971	32547.51
574.169	32092.86
574.367	32049.86
574.565	32223.93
574.763	32117.44
574.962	31701.7
575.16	31789.77
575.358	31822.53
575.556	31371.98
575.754	31544.01
575.952	31380.17
576.151	31654.6
576.349	31185.61
576.547	31085.26
576.745	31126.22
576.943	30946
577.141	31189.71
577.339	31120.08
577.537	30337.76
577.735	30538.46
577.933	30188.25
578.131	30702.29
578.329	30188.25
578.527	29975.27
578.725	30251.74
578.923	30593.75
579.121	30020.32
579.319	30046.94
579.516	29905.63
579.714	29786.85
579.912	29666.02
580.11	29711.08
580.308	29422.31
580.506	29287.15
580.704	28742.39
580.901	29405.93
581.099	29137.65
581.297	29022.96
581.495	28922.61
581.692	28687.09
581.89	28613.37
582.088	28914.42
582.285	28332.79
582.483	28879.6
582.681	28273.4
582.878	28308.22
583.076	28416.76
583.274	28297.98
583.471	27796.23
583.669	27910.91
583.866	27470.6
584.064	27927.3
584.262	27407.11
584.459	27603.72
584.657	27235.08
584.854	27769.6
585.052	26987.28
585.249	27314.95
585.447	26864.4
585.644	26917.65
585.841	27208.46
586.039	27327.24
586.236	26649.36
586.434	26663.7
586.631	26399.51
586.828	26618.64
587.026	26942.22
587.223	26532.63
587.42	26438.42
587.618	26506.01
587.815	26151.71
588.012	26075.93
588.21	25977.63
588.407	26321.69
588.604	26020.64
588.801	25936.67
588.999	25819.94
589.196	25713.44
589.393	25828.13
589.59	25463.59
589.787	25727.78
589.984	25496.36
590.182	25164.59
590.379	25318.18
590.576	25162.54
590.773	25068.33
590.97	25170.73
591.167	24963.89
591.364	25002.8
591.561	25125.68
591.758	24781.62
591.955	24351.54
592.152	24652.59
592.349	24673.07
592.546	24595.25
592.743	24275.77
592.94	24111.93
593.137	24574.77
593.334	24443.7
593.531	24097.59
593.727	24306.49
593.924	24161.08
594.121	23898.94
594.318	24306.49
594.515	23651.14
594.712	24083.26
594.908	23993.15
595.105	23630.66
595.302	23663.43
595.499	23483.2
595.696	23538.5
595.892	23421.77
596.089	23382.85
596.286	23581.51
596.482	23257.93
596.679	23089.99
596.876	23309.13
597.072	23073.61
597.269	23264.07
597.466	22801.23
597.662	22700.88
597.859	23051.08
598.055	22639.44
598.252	22641.49
598.448	22401.88
598.645	22614.87
598.841	22248.28
599.038	22440.79
599.234	22283.09
599.431	22016.86
599.627	21928.8
599.824	22123.35
600.02	21850.97
600.217	22311.77
600.413	21857.12
600.609	22106.97
600.806	21498.72
601.002	21914.46
601.198	21248.87
601.395	21545.83
601.591	21590.88
601.787	21263.21
601.984	21504.87
602.18	21760.86
602.376	21197.67
602.572	21291.88
602.769	21355.36
602.965	20966.25
603.161	21078.89
603.357	20628.34
603.553	21099.37
603.75	20982.63
603.946	20783.98
604.142	21093.22
604.338	20644.72
604.534	20765.55
604.73	20614
604.926	20511.6
605.122	20530.03
605.318	20267.89
605.514	20108.15
605.71	20288.37
605.906	20181.88
606.102	20145.02
606.298	20317.04
606.494	20044.66
606.69	19905.4
606.886	19872.64
607.082	19673.98
607.278	20282.23
607.474	19630.98
607.67	19850.11
607.866	19491.71
608.062	19999.61
608.257	19446.66
608.453	19792.76
608.649	19895.16
608.845	19321.73
609.041	19469.19
609.236	19340.16
609.432	19813.24
609.628	19368.84
609.824	19508.1
610.019	19405.7
610.215	19397.51
610.411	19317.64
610.606	18983.82
610.802	19020.68
610.998	19053.45
611.193	19157.89
611.389	18914.19
611.584	18764.68
611.78	18987.91
611.976	19078.02
612.171	18936.71
612.367	19051.4
612.562	18549.65
612.758	18520.98
612.953	18437.01
613.149	18764.68
613.344	18430.87
613.539	19016.58
613.735	18375.57
613.93	18578.32
614.126	18363.28
614.321	18619.28
614.517	18303.89
614.712	18434.96
614.907	18394
615.103	18533.26
615.298	18273.17
615.493	18365.33
615.688	18342.8
615.884	18256.79
616.079	18062.23
616.274	18150.29
616.47	17988.5
616.665	18035.61
616.86	17808.28
617.055	17910.68
617.25	17818.52
617.445	17951.64
617.641	17517.47
617.836	17834.91
618.031	17451.94
618.226	17716.12
618.421	17343.39
618.616	17492.9
618.811	17232.8
619.006	17572.77
619.201	16978.86
619.396	17380.26
619.591	17105.83
619.786	17312.67
619.981	16796.59
620.176	17126.31
620.371	16638.89
620.566	16841.64
620.761	16675.76
620.956	16677.8
621.151	16548.78
621.346	16587.69
621.541	16432.05
621.735	16649.13
621.93	16266.16
622.125	16184.24
622.32	16090.04
622.515	16237.49
622.709	15899.58
622.904	15803.32
623.099	15776.7
623.294	15836.09
623.488	15702.97
623.683	15586.24
623.878	15430.59
624.072	15451.07
624.267	15367.1
624.462	15416.26
624.656	15123.4
624.851	15178.69
625.046	15154.12
625.24	15043.53
625.435	14877.64
625.629	14728.14
625.824	14898.12
626.018	14552.01
626.213	14439.37
626.407	14695.37
626.602	14228.43
626.796	14343.12
626.991	14533.58
627.185	14345.17
627.38	14199.76
627.574	14101.46
627.768	13857.75
627.963	13620.19
628.157	13812.7
628.352	13622.23
628.546	13765.59
628.74	13669.34
628.935	13468.64
629.129	13775.83
629.323	13489.12
629.517	13544.41
629.712	13192.16
629.906	13296.61
630.1	13020.13
630.294	13016.04
630.489	12997.6
630.683	12975.08
630.877	12833.77
631.071	12999.65
631.265	12897.25
631.459	13003.75
631.653	12710.89
631.848	12594.15
632.042	12608.49
632.236	12692.46
632.43	12383.21
632.624	12360.69
632.818	12147.7
633.012	12084.21
633.206	11922.42
633.4	12286.96
633.594	12045.3
633.788	11990
633.982	12028.92
634.176	11797.49
634.369	12022.77
634.563	11875.32
634.757	11543.55
634.951	11815.93
635.145	11473.92
635.339	11617.27
635.533	11469.82
635.726	11351.04
635.92	11346.94
636.114	11330.56
636.308	11136
636.501	11017.22
636.695	11191.3
636.889	11049.99
637.083	10931.2
637.276	10902.53
637.47	10861.57
637.664	10761.22
637.857	10783.75
638.051	10779.65
638.244	10675.21
638.438	10646.54
638.632	10482.7
638.825	10380.3
639.019	10261.52
639.212	10161.17
639.406	10255.37
639.599	10040.34
639.793	10142.74
639.986	9839.64
640.18	10120.21
640.373	10048.53
640.567	10075.15
640.76	9716.76
640.954	9683.99
641.147	9581.59
641.34	9626.65
641.534	9608.22
641.727	9534.49
641.92	9475.1
642.114	9587.74
642.307	9475.1
642.5	9329.69
642.694	9079.84
642.887	9118.75
643.08	9172
643.273	9227.29
643.467	9057.31
643.66	9112.61
643.853	9151.52
644.046	8692.77
644.239	8619.05
644.432	8797.22
644.626	8776.74
644.819	8674.34
645.012	8762.4
645.205	8721.45
645.398	8600.62
645.591	8471.59
645.784	8573.99
645.977	8303.66
646.17	8246.32
646.363	8352.81
646.556	8195.12
646.749	8119.34
646.942	8213.55
647.135	8035.38
647.328	8098.86
647.521	7896.11
647.714	7834.68
647.907	8076.34
648.099	7867.44
648.292	7980.08
648.485	7713.84
648.678	7517.24
648.871	7636.02
649.064	7570.49
649.256	7529.53
649.449	7515.19
649.642	7461.94
649.835	7468.09
650.027	7285.82
650.22	7291.96
650.413	7173.18
650.605	7234.62
650.798	7298.11
650.991	7011.39
651.183	7261.24
651.376	6952
651.568	7203.9
651.761	7017.54
651.954	6949.95
652.146	6962.24
652.339	7097.41
652.531	6954.05
652.724	7003.2
652.916	6861.89
653.109	6704.2
653.301	6732.87
653.494	6786.12
653.686	6573.13
653.879	6634.57
654.071	6558.79
654.263	6739.01
654.456	6640.71
654.648	6683.72
654.84	6534.21
655.033	6442.06
655.225	6464.58
655.417	6622.28
655.61	6442.06
655.802	6270.03
655.994	6382.67
656.186	6327.37
656.379	6159.44
656.571	6335.56
656.763	6239.31
656.955	6188.11
657.148	6153.29
657.34	6085.71
657.532	5979.22
657.724	6003.79
657.916	5979.22
658.108	5897.3
658.3	6052.94
658.492	6007.89
658.684	5751.89
658.876	5968.98
659.068	5919.82
659.26	5610.58
659.452	5702.74
659.644	5702.74
659.836	5651.54
660.028	5672.02
660.22	5543
660.412	5694.55
660.604	5522.52
660.796	5473.37
660.988	5706.84
661.18	5442.65
661.372	5274.71
661.563	5510.23
661.755	5368.92
661.947	5319.77
662.139	5254.23
662.331	5305.43
662.522	5346.39
662.714	5254.23
662.906	5299.29
663.097	5239.9
663.289	4963.42
663.481	5114.97
663.673	5190.75
663.864	5065.82
664.056	5258.33
664.247	5053.53
664.439	5031.01
664.631	5166.17
664.822	5037.15
665.014	4904.03
665.205	4998.24
665.397	4967.52
665.588	4967.52
665.78	4721.76
665.971	4797.54
666.163	4719.71
666.354	4754.53
666.546	4953.18
666.737	4727.91
666.929	4742.24
667.12	4762.72
667.311	4721.76
667.503	4547.69
667.694	4672.61
667.885	4783.2
668.077	4555.88
668.268	4627.56
668.459	4539.49
668.651	4652.13
668.842	4443.24
669.033	4555.88
669.224	4512.87
669.416	4557.93
669.607	4402.28
669.798	4396.14
669.989	4494.44
670.18	4441.19
670.371	4392.04
670.563	4351.08
670.754	4394.09
670.945	4258.92
671.136	4422.76
671.327	4357.22
671.518	4443.24
671.709	4258.92
671.9	4260.97
672.091	4252.78
672.282	4234.35
672.473	4250.73
672.664	4295.79
672.855	4021.36
673.046	4183.15
673.237	4150.38
673.428	4211.82
673.619	4256.87
673.809	4136.04
674	4185.19
674.191	4177
674.382	4146.28
674.573	4197.48
674.764	4160.62
674.954	4080.75
675.145	4078.7
675.336	4269.16
675.527	4109.42
675.717	4211.82
675.908	4043.88
676.099	4103.28
676.289	4015.21
676.48	4015.21
676.671	3888.24
676.861	4097.13
677.052	4095.08
677.243	4002.93
677.433	3957.87
677.624	4043.88
677.814	4004.97
678.005	4021.36
678.195	4105.32
678.386	3955.82
678.576	4082.8
678.767	4002.93
678.957	3830.9
679.148	3904.62
679.338	3951.73
679.529	4066.41
679.719	3896.43
679.909	4013.17
680.1	4152.43
680.29	3998.83
680.481	3959.92
680.671	3927.15
680.861	3974.25
681.052	3857.52
681.242	3886.19
681.432	4113.52
681.622	3988.59
681.813	3955.82
682.003	3988.59
682.193	3921.01
682.383	3961.97
682.573	4000.88
682.764	3867.76
682.954	3779.7
683.144	3978.35
683.334	3865.71
683.524	4002.93
683.714	4004.97
683.904	3990.64
684.094	3779.7
684.284	3869.81
684.474	3953.77
684.664	3828.85
684.854	3722.35
685.044	3927.15
685.234	3929.2
685.424	3966.06
685.614	3798.13
685.804	3865.71
685.994	3871.86
686.184	3744.88
686.374	3875.95
686.564	3867.76
686.753	3755.12
686.943	3757.17
687.133	3812.46
687.323	3669.11
687.513	3742.83
687.702	3667.06
687.892	3904.62
688.082	3736.69
688.272	3812.46
688.461	3669.11
688.651	3718.26
688.841	3652.72
689.03	3583.09
689.22	3687.54
689.41	3638.39
689.599	3667.06
689.789	3562.61
689.979	3558.52
690.168	3714.16
690.358	3699.83
690.547	3589.24
690.737	3538.04
690.926	3503.22
691.116	3562.61
691.305	3554.42
691.495	3585.14
691.684	3517.56
691.874	3691.63
692.063	3476.6
692.252	3515.51
692.442	3458.17
692.631	3458.17
692.82	3505.27
693.01	3495.03
693.199	3482.74
693.388	3402.87
693.578	3427.45
693.767	3581.04
693.956	3460.21
694.146	3482.74
694.335	3431.54
694.524	3480.69
694.713	3454.07
694.902	3355.77
695.092	3417.21
695.281	3357.82
695.47	3384.44
695.659	3394.68
695.848	3306.62
696.037	3292.28
696.226	3458.17
696.415	3390.58
696.604	3380.34
696.793	3466.36
696.982	3372.15
697.171	3443.83
697.36	3263.61
697.549	3398.77
697.738	3296.38
697.927	3396.73
698.116	3314.81
698.305	3409.01
698.494	3517.56
698.683	3368.06
698.872	3349.62
699.061	3343.48
699.25	3441.78
699.438	3290.23
699.627	3347.58
699.816	3263.61
700.005	3318.9
700.193	3372.15
700.382	3241.08
700.571	3343.48
700.76	3218.55
700.948	3316.86
701.137	3271.8
701.326	3316.86
701.514	3136.63
701.703	3273.85
701.892	3253.37
702.08	3320.95
702.269	3271.8
702.457	3376.25
702.646	3282.04
702.834	3275.9
703.023	3292.28
703.212	3335.29
703.4	3171.45
703.589	3247.23
703.777	3165.31
703.965	3183.74
704.154	3304.57
704.342	3198.07
704.531	3292.28
704.719	3114.11
704.907	3187.83
705.096	3181.69
705.284	3140.73
705.472	3204.22
705.661	3155.07
705.849	3296.38
706.037	3230.84
706.226	3200.12
706.414	3196.03
706.602	3175.55
706.79	3198.07
706.979	3181.69
707.167	3134.59
707.355	3028.09
707.543	3157.11
707.731	3159.16
707.919	3189.88
708.107	3134.59
708.296	3210.36
708.484	3097.72
708.672	3146.87
708.86	3056.76
709.048	3093.63
709.236	3142.78
709.424	2927.74
709.612	3153.02
709.8	3112.06
709.988	3007.61
710.176	2960.51
710.364	3013.76
710.551	3040.38
710.739	3021.95
710.927	2991.23
711.115	3046.52
711.303	3185.79
711.491	3019.9
711.679	2974.85
711.866	2995.32
712.054	3015.8
712.242	2960.51
712.43	2874.49
712.617	3030.14
712.805	2933.89
712.993	2933.89
713.181	2958.46
713.368	2985.09
713.556	2858.11
713.744	2925.69
713.931	2796.67
714.119	2929.79
714.306	3058.81
714.494	2847.87
714.682	2940.03
714.869	2892.93
715.057	2937.98
715.244	2804.86
715.432	2909.31
715.619	2866.3
715.807	2868.35
715.994	2862.21
716.182	2827.39
716.369	2858.11
716.556	2876.54
716.744	2755.71
716.931	2843.78
717.119	2847.87
717.306	2763.9
717.493	2751.62
717.681	2802.82
717.868	2776.19
718.055	2847.87
718.242	2780.29
718.43	2876.54
718.617	2808.96
718.804	2747.52
718.991	2737.28
719.179	2782.34
719.366	2782.34
719.553	2737.28
719.74	2735.23
719.927	2737.28
720.114	2768
720.301	2647.17
720.488	2673.79
720.676	2626.69
720.863	2737.28
721.05	2708.61
721.237	2677.89
721.424	2632.83
721.611	2669.7
721.798	2634.88
721.985	2659.46
722.172	2610.31
722.358	2593.92
722.545	2663.55
722.732	2647.17
722.919	2710.66
723.106	2509.96
723.293	2595.97
723.48	2671.75
723.667	2546.82
723.853	2479.24
724.04	2559.11
724.227	2497.67
724.414	2485.38
724.6	2563.2
724.787	2473.09
724.974	2595.97
725.161	2555.01
725.347	2487.43
725.534	2587.78
725.72	2651.27
725.907	2446.47
726.094	2573.44
726.28	2563.2
726.467	2466.95
726.653	2464.9
726.84	2516.1
727.027	2520.2
727.213	2501.76
727.4	2405.51
727.586	2374.79
727.773	2434.18
727.959	2520.2
728.145	2538.63
728.332	2432.13
728.518	2360.45
728.705	2391.17
728.891	2469
729.077	2487.43
729.264	2417.8
729.45	2401.41
729.636	2452.61
729.823	2380.93
730.009	2430.09
730.195	2335.88
730.382	2323.59
730.568	2376.84
730.754	2450.57
730.94	2360.45
731.126	2485.38
731.313	2444.42
731.499	2442.37
731.685	2290.82
731.871	2323.59
732.057	2346.12
732.243	2456.71
732.429	2307.21
732.615	2401.41
732.801	2276.49
732.987	2243.72
733.173	2256.01
733.359	2290.82
733.545	2382.98
733.731	2262.15
733.917	2303.11
734.103	2335.88
734.289	2307.21
734.475	2301.06
734.661	2337.93
734.847	2301.06
735.033	2333.83
735.219	2141.32
735.404	2309.26
735.59	2366.6
735.776	2172.04
735.962	2292.87
736.148	2243.72
736.333	2137.23
736.519	2286.73
736.705	2180.23
736.89	2276.49
737.076	2299.02
737.262	2270.34
737.447	2122.89
737.633	2217.1
737.819	2194.57
738.004	2122.89
738.19	2159.75
738.375	2192.52
738.561	2221.19
738.747	2153.61
738.932	2122.89
739.118	2172.04
739.303	2176.14
739.489	2032.78
739.674	2147.47
739.859	2059.4
740.045	2067.6
740.23	2178.19
740.416	2055.31
740.601	2124.94
740.786	2098.31
740.972	2008.2
741.157	1946.76
741.342	1993.87
741.528	1963.15
741.713	1971.34
741.898	2006.16
742.084	1981.58
742.269	2083.98
742.454	1977.48
742.639	1940.62
742.824	2049.16
743.01	1940.62
743.195	1973.39
743.38	1903.76
743.565	2034.83
743.75	1963.15
743.935	1864.85
744.12	1922.19
744.305	1909.9
744.49	1911.95
744.675	1881.23
744.86	1895.57
745.045	1862.8
745.23	1840.27
745.415	1907.85
745.6	1844.37
745.785	1776.78
745.97	1797.26
746.155	1772.69
746.34	1825.93
746.525	1834.13
746.71	1684.62
746.895	1799.31
747.079	1770.64
747.264	1670.29
747.449	1799.31
747.634	1703.06
747.819	1764.5
748.003	1625.23
748.188	1701.01
748.373	1678.48
748.557	1793.17
748.742	1643.67
748.927	1658
749.111	1719.44
749.296	1567.89
749.481	1563.79
749.665	1651.86
749.85	1483.92
750.034	1610.9
750.219	1643.67
750.404	1598.61
750.588	1545.36
750.773	1574.03
750.957	1537.17
751.141	1533.08
751.326	1469.59
751.51	1479.83
751.695	1404.05
751.879	1445.01
752.064	1588.37
752.248	1520.79
752.432	1436.82
752.617	1514.64
752.801	1406.1
752.985	1381.53
753.17	1359
753.354	1418.39
753.538	1485.97
753.722	1361.05
753.907	1342.61
754.091	1336.47
754.275	1328.28
754.459	1307.8
754.643	1330.33
754.828	1315.99
755.012	1483.92
755.196	1248.41
755.38	1279.13
755.564	1240.22
755.748	1250.46
755.932	1225.88
756.116	1260.7
756.3	1244.31
756.484	1135.77
756.668	1168.54
756.852	1113.24
757.036	1240.22
757.22	1154.2
757.404	1234.07
757.588	1184.92
757.772	1189.02
757.956	1143.96
758.14	1143.96
758.323	1055.9
758.507	1215.64
758.691	1195.16
758.875	1160.34
759.059	1107.1
759.242	1125.53
759.426	1119.39
759.61	1137.82
759.794	1103
759.977	1031.32
760.161	1094.81
760.345	1135.77
760.528	1111.19
760.712	1121.43
760.895	1084.57
761.079	1043.61
761.263	1006.75
761.446	988.32
761.63	1064.09
761.813	1084.57
761.997	953.5
762.18	961.69
762.364	957.6
762.547	994.46
762.731	1096.86
762.914	988.32
763.098	965.79
763.281	980.12
763.464	1019.04
763.648	967.84
763.831	955.55
764.015	951.45
764.198	947.36
764.381	961.69
764.564	924.83
764.748	941.21
764.931	1002.65
765.114	926.88
765.297	908.44
765.481	875.68
765.664	916.64
765.847	922.78
766.03	943.26
766.213	894.11
766.397	900.25
766.58	906.4
766.763	881.82
766.946	877.73
767.129	892.06
767.312	912.54
767.495	873.63
767.678	801.95
767.861	908.44
768.044	904.35
768.227	840.86
768.41	785.57
768.593	951.45
768.776	859.29
768.959	814.24
769.142	828.57
769.324	744.61
769.507	789.66
769.69	867.49
769.873	670.88
770.056	935.07
770.239	853.15
770.421	863.39
770.604	722.08
770.787	736.42
770.97	773.28
771.152	775.33
771.335	818.33
771.518	742.56
771.7	847.01
771.883	715.94
772.066	648.35
772.248	709.79
772.431	701.6
772.613	779.42
772.796	726.18
772.978	787.61
773.161	744.61
773.343	742.56
773.526	695.46
773.708	674.98
773.891	724.13
774.073	697.5
774.256	726.18
774.438	740.51
774.621	697.5
774.803	625.83
774.985	715.94
775.168	642.21
775.35	674.98
775.532	584.87
775.715	634.02
775.897	715.94
776.079	580.77
776.261	703.65
776.444	613.54
776.626	636.06
776.808	621.73
776.99	572.58
777.173	625.83
777.355	601.25
777.537	558.24
777.719	619.68
777.901	601.25
778.083	586.91
778.265	588.96
778.447	548
778.629	631.97
778.811	615.59
778.993	605.35
779.175	644.26
779.357	539.81
779.539	586.91
779.721	533.67
779.903	629.92
780.085	476.32
780.267	488.61
780.449	502.95
780.631	556.19
780.812	472.23
780.994	574.63
781.176	500.9
781.358	539.81
781.54	525.47
781.721	572.58
781.903	517.28
782.085	484.52
782.267	531.62
782.448	490.66
782.63	492.71
782.812	531.62
782.993	480.42
783.175	580.77
783.357	519.33
783.538	496.8
783.72	480.42
783.901	478.37
784.083	527.52
784.264	513.19
784.446	335.01
784.627	365.73
784.809	416.93
784.99	427.17
785.172	478.37
785.353	445.6
785.535	408.74
785.716	480.42
785.897	443.56
786.079	445.6
786.26	425.12
786.441	390.31
786.623	378.02
786.804	445.6
786.985	406.69
787.167	408.74
787.348	375.97
787.529	390.31
787.71	349.35
787.891	445.6
788.073	386.21
788.254	363.69
788.435	300.2
788.616	322.73
788.797	279.72
788.978	316.58
789.159	310.44
789.34	367.78
789.522	386.21
789.703	443.56
789.884	249
790.065	404.64
790.246	367.78
790.427	357.54
790.607	292.01
790.788	359.59
790.969	341.16
791.15	375.97
791.331	275.62
791.512	349.35
791.693	277.67
791.874	359.59
792.054	326.82
792.235	396.45
792.416	277.67
792.597	259.24
792.778	343.21
792.958	287.91
793.139	324.77
793.32	265.38
793.5	322.73
793.681	320.68
793.862	275.62
794.042	287.91
794.223	320.68
794.404	292.01
794.584	326.82
794.765	228.52
794.945	296.1
795.126	285.86
795.306	326.82
795.487	273.57
795.667	232.62
795.848	244.9
796.028	304.29
796.209	228.52
796.389	205.99
796.57	269.48
796.75	298.15
796.93	228.52
797.111	244.9
797.291	349.35
797.471	216.23
797.652	238.76
797.832	169.13
798.012	255.14
798.192	259.24
798.373	281.77
798.553	281.77
798.733	259.24
798.913	169.13
799.093	240.81
799.274	228.52
799.454	320.68
799.634	205.99
799.814	306.34
799.994	138.41
800.174	201.9
800.354	232.62
800.534	240.81
800.714	242.85
800.894	244.9
801.074	146.6
801.254	187.56
801.434	242.85
801.614	240.81
801.794	240.81
801.974	640.16
802.154	205.99
802.334	289.96
802.514	193.7
802.693	199.85
802.873	208.04
803.053	261.29
803.233	226.47
803.413	208.04
803.592	208.04
803.772	167.08
803.952	214.18
804.131	201.9
804.311	224.42
804.491	285.86
804.67	177.32
804.85	150.7
805.03	234.66
805.209	271.53
805.389	148.65
805.568	154.79
805.748	263.33
805.928	146.6
806.107	187.56
806.287	158.89
806.466	224.42
806.646	240.81
806.825	189.61
807.004	210.09
807.184	167.08
807.363	212.14
807.543	117.93
807.722	240.81
807.901	146.6
808.081	210.09
808.26	132.26
808.439	138.41
808.619	210.09
808.798	226.47
808.977	152.74
809.156	273.57
809.336	181.42
809.515	152.74
809.694	156.84
809.873	158.89
810.052	126.12
810.231	201.9
810.411	273.57
810.59	189.61
810.769	154.79
810.948	203.94
811.127	107.69
811.306	138.41
811.485	124.07
811.664	175.27
811.843	175.27
812.022	177.32
812.201	189.61
812.38	91.31
812.559	134.31
812.737	203.94
812.916	228.52
813.095	201.9
813.274	201.9
813.453	132.26
813.632	93.35
813.811	136.36
813.989	128.17
814.168	173.22
814.347	142.5
814.526	146.6
814.704	162.98
814.883	156.84
815.062	169.13
815.24	148.65
815.419	74.92
815.598	173.22
815.776	99.5
815.955	85.16
816.133	113.83
816.312	203.94
816.49	162.98
816.669	99.5
816.847	132.26
817.026	189.61
817.204	173.22
817.383	146.6
817.561	9.39
817.74	124.07
817.918	85.16
818.097	177.32
818.275	64.68
818.453	222.38
818.632	52.39
818.81	107.69
818.988	146.6
819.167	130.22
819.345	119.98
819.523	144.55
819.701	107.69
819.879	142.5
820.058	111.78
820.236	126.12
820.414	62.63
820.592	144.55
820.77	138.41
820.948	126.12
821.127	140.46
821.305	177.32
821.483	72.87
821.661	109.74
821.839	165.03
822.017	105.64
822.195	99.5
822.373	119.98
822.551	40.11
822.729	226.47
822.907	87.21
823.085	167.08
823.262	187.56
823.44	171.18
823.618	124.07
823.796	146.6
823.974	160.94
824.152	87.21
824.329	99.5
824.507	150.7
824.685	74.92
824.863	128.17
825.04	91.31
825.218	187.56
825.396	76.97
825.574	91.31
825.751	68.78
825.929	126.12
826.107	107.69
826.284	105.64
826.462	66.73
826.639	64.68
826.817	81.07
826.994	95.4
827.172	54.44
827.349	99.5
827.527	50.35
827.704	134.31
827.882	79.02
828.059	46.25
828.237	36.01
828.414	203.94
828.591	70.83
828.769	115.88
828.946	95.4
829.124	216.23
829.301	134.31
829.478	50.35
829.655	76.97
829.833	42.15
830.01	66.73
830.187	115.88
830.364	95.4
830.542	64.68
830.719	130.22
830.896	144.55
831.073	109.74
831.25	81.07
831.427	9.39
831.604	154.79
831.782	111.78
831.959	87.21
832.136	62.63
832.313	76.97
832.49	122.02
832.667	105.64
832.844	58.54
833.021	38.06
833.198	25.77
833.374	95.4
833.551	48.3
833.728	144.55
833.905	36.01
834.082	74.92
834.259	101.55
834.436	126.12
834.612	99.5
834.789	167.08
834.966	89.26
835.143	87.21
835.319	5.29
835.496	101.55
835.673	81.07
835.85	54.44
836.026	134.31
836.203	101.55
836.38	79.02
836.556	68.78
836.733	150.7
836.909	97.45
837.086	19.63
837.262	60.59
837.439	138.41
837.616	76.97
837.792	130.22
837.968	74.92
838.145	-0.85
838.321	101.55
838.498	19.63
838.674	97.45
838.851	105.64
839.027	56.49
839.203	111.78
839.38	70.83
839.556	42.15
839.732	130.22
839.909	111.78
840.085	126.12
840.261	150.7
840.437	54.44
840.614	64.68
840.79	9.39
840.966	79.02
841.142	97.45
841.318	74.92
841.494	146.6
841.671	132.26
841.847	113.83
842.023	68.78
842.199	70.83
842.375	101.55
842.551	124.07
842.727	25.77
842.903	66.73
843.079	60.59
843.255	25.77
843.431	19.63
843.607	48.3
843.783	40.11
843.959	15.53
844.134	62.63
844.31	126.12
844.486	72.87
844.662	23.72
844.838	33.96
845.013	58.54
845.189	76.97
845.365	74.92
845.541	46.25
845.716	119.98
845.892	42.15
846.068	36.01
846.244	23.72
846.419	54.44
846.595	15.53
846.77	68.78
846.946	66.73
847.122	124.07
847.297	17.58
847.473	111.78
847.648	-2.9
847.824	93.35
847.999	46.25
848.175	19.63
848.35	27.82
848.526	136.36
848.701	56.49
848.876	89.26
849.052	58.54
849.227	-43.86
849.403	7.34
849.578	44.2
849.753	89.26
849.929	29.87
850.104	31.91
850.279	89.26
850.454	76.97
850.63	27.82
850.805	25.77
850.98	62.63
851.155	1.19
851.33	50.35
851.505	85.16
851.681	64.68
851.856	-13.14
852.031	66.73
852.206	13.48
852.381	54.44
852.556	-13.14
852.731	46.25
852.906	29.87
853.081	119.98
853.256	58.54
853.431	79.02
853.606	-4.95
853.781	-23.38
853.956	62.63
854.131	58.54
854.305	58.54
854.48	93.35
854.655	40.11
854.83	31.91
855.005	-21.33
855.18	87.21
855.354	33.96
855.529	48.3
855.704	11.43
855.879	42.15
856.053	50.35
856.228	1.19
856.403	83.11
856.577	113.83
856.752	27.82
856.926	74.92
857.101	48.3
857.276	91.31
857.45	52.39
857.625	97.45
857.799	15.53
857.974	-11.09
858.148	19.63
858.323	-0.85
858.497	52.39
858.672	25.77
858.846	-39.76
859.02	103.59
859.195	85.16
859.369	74.92
859.543	103.59
859.718	105.64
859.892	-4.95
860.066	81.07
860.241	33.96
860.415	27.82
860.589	72.87
860.763	91.31
860.938	33.96
861.112	64.68
861.286	54.44
861.46	58.54
861.634	50.35
861.808	31.91
861.982	33.96
862.157	27.82
862.331	-0.85
862.505	29.87
862.679	76.97
862.853	19.63
863.027	-27.48
863.201	44.2
863.375	66.73
863.549	42.15
863.722	44.2
863.896	54.44
864.07	-7
864.244	5.29
864.418	-11.09
864.592	40.11
864.766	68.78
864.939	103.59
865.113	107.69
865.287	115.88
865.461	74.92
865.634	101.55
865.808	17.58
865.982	40.11
866.156	44.2
866.329	72.87
866.503	-19.29
866.676	3.24
866.85	70.83
867.024	23.72
867.197	-9.05
867.371	105.64
867.544	64.68
867.718	36.01
867.891	76.97
868.065	58.54
868.238	-35.67
868.412	76.97
868.585	38.06
868.759	46.25
868.932	48.3
869.105	42.15
869.279	7.34
869.452	62.63
869.625	46.25
869.799	87.21
869.972	1.19
870.145	25.77
870.319	27.82
870.492	68.78
870.665	38.06
870.838	54.44
871.011	-11.09
871.185	5.29
871.358	31.91
871.531	66.73
871.704	70.83
871.877	38.06
872.05	19.63
872.223	-7
872.396	38.06
872.569	-43.86
872.742	-47.96
872.915	52.39
873.088	19.63
873.261	95.4
873.434	79.02
873.607	17.58
873.78	11.43
873.953	58.54
874.126	-19.29
874.299	31.91
874.471	-11.09
874.644	74.92
874.817	113.83
874.99	93.35
875.163	85.16
875.335	3.24
875.508	-19.29
875.681	74.92
875.853	-15.19
876.026	-25.43
876.199	74.92
876.371	79.02
876.544	5.29
876.717	-2.9
876.889	7.34
877.062	52.39
877.234	-11.09
877.407	58.54
877.579	76.97
877.752	115.88
877.924	11.43
878.097	-33.62
878.269	83.11
878.442	115.88
878.614	15.53
878.786	99.5
878.959	11.43
879.131	38.06
879.303	99.5
879.476	27.82
879.648	5.29
879.82	70.83
879.993	-45.91
880.165	79.02
880.337	-27.48
880.509	64.68
880.681	13.48
880.854	25.77
881.026	25.77
881.198	42.15
881.37	27.82
881.542	-45.91
881.714	-19.29
881.886	60.59
882.058	74.92
882.23	72.87
882.402	13.48
882.574	-23.38
882.746	-11.09
882.918	31.91
883.09	15.53
883.262	15.53
883.434	38.06
883.606	17.58
883.778	93.35
883.95	85.16
884.122	58.54
884.293	50.35
884.465	62.63
884.637	21.67
884.809	-27.48
884.98	23.72
885.152	-45.91
885.324	93.35
885.496	-50
885.667	36.01
885.839	17.58
886.011	54.44
886.182	-50
886.354	33.96
886.525	56.49
886.697	66.73
886.869	54.44
887.04	15.53
887.212	13.48
887.383	3.24
887.555	56.49
887.726	31.91
887.897	13.48
888.069	3.24
888.24	97.45
888.412	54.44
888.583	54.44
888.754	-23.38
888.926	-17.24
889.097	29.87
889.268	29.87
889.44	62.63
889.611	48.3
889.782	19.63
889.953	-9.05
890.125	56.49
890.296	31.91
890.467	74.92
890.638	25.77
890.809	7.34
890.98	19.63
891.151	58.54
891.323	-11.09
891.494	-2.9
891.665	-2.9
891.836	11.43
892.007	1.19
892.178	21.67
892.349	19.63
892.52	83.11
892.691	50.35
892.862	-33.62
893.032	17.58
893.203	38.06
893.374	60.59
893.545	93.35
893.716	7.34
893.887	103.59
894.057	42.15
894.228	17.58
894.399	25.77
894.57	52.39
894.74	97.45
894.911	54.44
895.082	-35.67
895.253	-21.33
895.423	-15.19
895.594	-39.76
895.764	31.91
895.935	42.15
896.106	-27.48
896.276	38.06
896.447	-9.05
896.617	29.87
896.788	27.82
896.958	-25.43
897.129	23.72
897.299	-9.05
897.47	-13.14
897.64	38.06
897.81	19.63
897.981	52.39
898.151	52.39
898.322	62.63
898.492	48.3
898.662	5.29
898.832	-88.92
899.003	-9.05
899.173	7.34
899.343	17.58
899.513	42.15
