Data from USB4F104151__72__12-36-45-014.txt Node

Date: Fri Mar 14 12:36:45 EDT 2025
User: louis
Spectrometer: USB4F10415
Trigger mode: 4
Integration Time (sec): 2.000000E-2
Scans to average: 1
Electric dark correction enabled: true
Nonlinearity correction enabled: false
Boxcar width: 0
XAxis mode: Wavelengths
Number of Pixels in Spectrum: 3648
>>>>>Begin Spectral Data<<<<<
178.204	-62.8
178.424	-62.8
178.644	-62.8
178.864	-79.19
179.084	-109.91
179.304	43.69
179.524	10.92
179.744	-1.37
179.964	27.31
180.184	-13.65
180.404	43.69
180.624	-66.9
180.844	15.02
181.064	58.03
181.283	25.26
181.503	-62.8
181.723	-79.19
181.943	0.68
182.163	76.46
182.383	17.07
182.602	43.69
182.822	80.55
183.042	62.12
183.262	82.6
183.482	27.31
183.701	58.03
183.921	39.59
184.141	39.59
184.361	53.93
184.58	49.83
184.8	-34.13
185.02	39.59
185.239	12.97
185.459	45.74
185.679	117.42
185.898	33.45
186.118	17.07
186.338	-9.56
186.557	53.93
186.777	31.4
186.997	76.46
187.216	17.07
187.436	88.75
187.655	25.26
187.875	88.75
188.095	21.16
188.314	55.98
188.534	25.26
188.753	23.21
188.973	45.74
189.192	27.31
189.412	68.27
189.631	45.74
189.851	-27.99
190.07	98.99
190.29	-7.51
190.509	55.98
190.729	-32.08
190.948	92.84
191.168	53.93
191.387	74.41
191.607	-30.04
191.826	15.02
192.045	10.92
192.265	-15.7
192.484	-17.75
192.704	6.83
192.923	-32.08
193.142	113.32
193.362	39.59
193.581	74.41
193.8	-9.56
194.02	8.87
194.239	-23.89
194.458	47.79
194.678	12.97
194.897	70.31
195.116	-7.51
195.335	37.55
195.555	58.03
195.774	-7.51
195.993	-1.37
196.212	6.83
196.432	31.4
196.651	37.55
196.87	-19.8
197.089	39.59
197.308	35.5
197.528	6.83
197.747	47.79
197.966	43.69
198.185	0.68
198.404	45.74
198.623	10.92
198.842	21.16
199.062	47.79
199.281	105.13
199.5	27.31
199.719	-44.37
199.938	23.21
200.157	39.59
200.376	47.79
200.595	12.97
200.814	47.79
201.033	19.11
201.252	62.12
201.471	25.26
201.69	-5.46
201.909	35.5
202.128	66.22
202.347	37.55
202.566	-71
202.785	35.5
203.004	123.56
203.223	127.66
203.442	53.93
203.661	43.69
203.879	21.16
204.098	70.31
204.317	21.16
204.536	76.46
204.755	119.46
204.974	31.4
205.193	23.21
205.411	129.7
205.63	80.55
205.849	-17.75
206.068	-46.42
206.287	62.12
206.505	86.7
206.724	12.97
206.943	31.4
207.162	68.27
207.381	29.35
207.599	-15.7
207.818	29.35
208.037	45.74
208.255	-21.85
208.474	96.94
208.693	-1.37
208.911	17.07
209.13	80.55
209.349	47.79
209.567	15.02
209.786	82.6
210.005	25.26
210.223	2.73
210.442	-23.89
210.661	25.26
210.879	15.02
211.098	58.03
211.316	47.79
211.535	0.68
211.753	23.21
211.972	37.55
212.191	15.02
212.409	78.51
212.628	-85.33
212.846	21.16
213.065	-25.94
213.283	72.36
213.502	-60.76
213.72	-21.85
213.938	21.16
214.157	78.51
214.375	39.59
214.594	-21.85
214.812	2.73
215.031	-13.65
215.249	39.59
215.467	33.45
215.686	29.35
215.904	53.93
216.122	92.84
216.341	66.22
216.559	70.31
216.778	47.79
216.996	-30.04
217.214	68.27
217.432	37.55
217.651	-3.41
217.869	60.07
218.087	-42.32
218.306	-32.08
218.524	15.02
218.742	35.5
218.96	66.22
219.179	6.83
219.397	47.79
219.615	113.32
219.833	35.5
220.051	12.97
220.27	55.98
220.488	31.4
220.706	31.4
220.924	-7.51
221.142	31.4
221.36	86.7
221.578	49.83
221.796	41.64
222.015	12.97
222.233	39.59
222.451	51.88
222.669	-5.46
222.887	98.99
223.105	-15.7
223.323	-42.32
223.541	76.46
223.759	47.79
223.977	78.51
224.195	70.31
224.413	10.92
224.631	53.93
224.849	15.02
225.067	39.59
225.285	-17.75
225.503	6.83
225.721	-36.18
225.939	74.41
226.157	45.74
226.375	80.55
226.592	23.21
226.81	74.41
227.028	76.46
227.246	51.88
227.464	25.26
227.682	45.74
227.9	37.55
228.117	8.87
228.335	84.65
228.553	47.79
228.771	6.83
228.989	94.89
229.206	68.27
229.424	0.68
229.642	10.92
229.86	45.74
230.077	4.78
230.295	51.88
230.513	47.79
230.731	70.31
230.948	47.79
231.166	58.03
231.384	21.16
231.601	41.64
231.819	76.46
232.037	37.55
232.254	19.11
232.472	4.78
232.689	58.03
232.907	17.07
233.125	-50.52
233.342	23.21
233.56	29.35
233.777	62.12
233.995	60.07
234.213	29.35
234.43	123.56
234.648	70.31
234.865	23.21
235.083	64.17
235.3	-1.37
235.518	39.59
235.735	109.22
235.953	27.31
236.17	31.4
236.388	-13.65
236.605	58.03
236.822	133.8
237.04	66.22
237.257	8.87
237.475	109.22
237.692	64.17
237.909	-17.75
238.127	62.12
238.344	6.83
238.562	-1.37
238.779	6.83
238.996	8.87
239.214	49.83
239.431	88.75
239.648	-38.23
239.865	47.79
240.083	86.7
240.3	68.27
240.517	39.59
240.735	37.55
240.952	86.7
241.169	45.74
241.386	27.31
241.603	133.8
241.821	121.51
242.038	84.65
242.255	0.68
242.472	6.83
242.689	64.17
242.907	72.36
243.124	129.7
243.341	41.64
243.558	-36.18
243.775	62.12
243.992	60.07
244.209	10.92
244.426	47.79
244.643	41.64
244.86	113.32
245.078	35.5
245.295	41.64
245.512	27.31
245.729	64.17
245.946	21.16
246.163	121.51
246.38	82.6
246.597	-7.51
246.814	35.5
247.031	37.55
247.248	-1.37
247.464	27.31
247.681	0.68
247.898	111.27
248.115	51.88
248.332	23.21
248.549	113.32
248.766	-11.61
248.983	47.79
249.2	27.31
249.417	74.41
249.633	25.26
249.85	29.35
250.067	88.75
250.284	45.74
250.501	27.31
250.717	62.12
250.934	62.12
251.151	27.31
251.368	-5.46
251.585	21.16
251.801	27.31
252.018	53.93
252.235	49.83
252.451	31.4
252.668	-1.37
252.885	96.94
253.102	33.45
253.318	68.27
253.535	4.78
253.752	21.16
253.968	80.55
254.185	-21.85
254.401	107.18
254.618	78.51
254.835	39.59
255.051	33.45
255.268	78.51
255.484	39.59
255.701	58.03
255.917	-9.56
256.134	33.45
256.351	82.6
256.567	41.64
256.784	51.88
257	-25.94
257.217	4.78
257.433	29.35
257.65	84.65
257.866	51.88
258.082	45.74
258.299	31.4
258.515	76.46
258.732	-15.7
258.948	45.74
259.165	8.87
259.381	58.03
259.597	47.79
259.814	49.83
260.03	4.78
260.246	39.59
260.463	68.27
260.679	39.59
260.895	-25.94
261.112	10.92
261.328	51.88
261.544	45.74
261.761	88.75
261.977	-36.18
262.193	10.92
262.409	23.21
262.626	0.68
262.842	-23.89
263.058	92.84
263.274	45.74
263.49	37.55
263.707	113.32
263.923	17.07
264.139	35.5
264.355	86.7
264.571	84.65
264.787	2.73
265.004	41.64
265.22	4.78
265.436	33.45
265.652	31.4
265.868	23.21
266.084	23.21
266.3	58.03
266.516	62.12
266.732	78.51
266.948	60.07
267.164	94.89
267.38	51.88
267.596	-27.99
267.812	51.88
268.028	43.69
268.244	4.78
268.46	-9.56
268.676	51.88
268.892	43.69
269.108	66.22
269.324	62.12
269.54	21.16
269.756	66.22
269.972	-44.37
270.188	64.17
270.403	15.02
270.619	60.07
270.835	62.12
271.051	29.35
271.267	47.79
271.483	74.41
271.698	51.88
271.914	0.68
272.13	66.22
272.346	23.21
272.562	15.02
272.777	17.07
272.993	6.83
273.209	72.36
273.425	-3.41
273.64	-38.23
273.856	43.69
274.072	4.78
274.287	39.59
274.503	74.41
274.719	72.36
274.934	109.22
275.15	66.22
275.366	-19.8
275.581	35.5
275.797	-44.37
276.012	41.64
276.228	-7.51
276.444	-5.46
276.659	10.92
276.875	35.5
277.09	41.64
277.306	58.03
277.521	31.4
277.737	35.5
277.952	2.73
278.168	31.4
278.383	76.46
278.599	64.17
278.814	29.35
279.03	84.65
279.245	45.74
279.461	12.97
279.676	-15.7
279.892	-13.65
280.107	-19.8
280.322	-21.85
280.538	92.84
280.753	-5.46
280.969	72.36
281.184	86.7
281.399	70.31
281.615	45.74
281.83	72.36
282.045	23.21
282.26	15.02
282.476	0.68
282.691	55.98
282.906	29.35
283.122	-5.46
283.337	82.6
283.552	64.17
283.767	72.36
283.983	92.84
284.198	41.64
284.413	29.35
284.628	58.03
284.843	10.92
285.058	70.31
285.274	17.07
285.489	70.31
285.704	-3.41
285.919	55.98
286.134	105.13
286.349	33.45
286.564	-9.56
286.779	25.26
286.995	39.59
287.21	39.59
287.425	105.13
287.64	35.5
287.855	-13.65
288.07	90.79
288.285	19.11
288.5	39.59
288.715	41.64
288.93	49.83
289.145	27.31
289.36	80.55
289.575	101.03
289.79	70.31
290.004	-21.85
290.219	74.41
290.434	86.7
290.649	74.41
290.864	15.02
291.079	39.59
291.294	-17.75
291.509	17.07
291.724	0.68
291.938	58.03
292.153	98.99
292.368	74.41
292.583	0.68
292.798	23.21
293.012	51.88
293.227	60.07
293.442	8.87
293.657	19.11
293.871	64.17
294.086	10.92
294.301	35.5
294.516	109.22
294.73	25.26
294.945	37.55
295.16	4.78
295.374	43.69
295.589	27.31
295.804	-25.94
296.018	29.35
296.233	43.69
296.447	64.17
296.662	10.92
296.877	129.7
297.091	66.22
297.306	29.35
297.52	68.27
297.735	2.73
297.949	31.4
298.164	146.09
298.378	60.07
298.593	21.16
298.807	68.27
299.022	33.45
299.236	27.31
299.451	27.31
299.665	55.98
299.88	-19.8
300.094	109.22
300.309	31.4
300.523	39.59
300.737	45.74
300.952	23.21
301.166	86.7
301.381	-13.65
301.595	12.97
301.809	23.21
302.024	76.46
302.238	10.92
302.452	98.99
302.667	27.31
302.881	0.68
303.095	78.51
303.309	105.13
303.524	58.03
303.738	72.36
303.952	45.74
304.166	53.93
304.381	37.55
304.595	96.94
304.809	35.5
305.023	92.84
305.237	33.45
305.452	12.97
305.666	43.69
305.88	113.32
306.094	35.5
306.308	113.32
306.522	43.69
306.736	25.26
306.95	31.4
307.164	39.59
307.379	47.79
307.593	96.94
307.807	66.22
308.021	74.41
308.235	37.55
308.449	35.5
308.663	10.92
308.877	66.22
309.091	39.59
309.305	-1.37
309.519	-27.99
309.733	-21.85
309.947	-1.37
310.161	53.93
310.374	60.07
310.588	88.75
310.802	29.35
311.016	39.59
311.23	-30.04
311.444	23.21
311.658	47.79
311.872	80.55
312.085	70.31
312.299	39.59
312.513	53.93
312.727	47.79
312.941	8.87
313.154	17.07
313.368	60.07
313.582	55.98
313.796	64.17
314.009	88.75
314.223	58.03
314.437	60.07
314.651	49.83
314.864	19.11
315.078	47.79
315.292	27.31
315.505	12.97
315.719	90.79
315.933	6.83
316.146	27.31
316.36	58.03
316.573	62.12
316.787	92.84
317.001	-13.65
317.214	-38.23
317.428	39.59
317.641	-40.28
317.855	80.55
318.068	158.38
318.282	117.42
318.495	17.07
318.709	43.69
318.922	101.03
319.136	146.09
319.349	68.27
319.563	12.97
319.776	19.11
319.99	15.02
320.203	21.16
320.417	70.31
320.63	27.31
320.843	82.6
321.057	53.93
321.27	150.18
321.483	98.99
321.697	41.64
321.91	12.97
322.124	45.74
322.337	39.59
322.55	27.31
322.763	23.21
322.977	49.83
323.19	8.87
323.403	29.35
323.617	53.93
323.83	4.78
324.043	25.26
324.256	43.69
324.469	-17.75
324.683	84.65
324.896	103.08
325.109	60.07
325.322	37.55
325.535	72.36
325.748	92.84
325.962	-30.04
326.175	10.92
326.388	82.6
326.601	72.36
326.814	-13.65
327.027	27.31
327.24	60.07
327.453	27.31
327.666	51.88
327.879	53.93
328.092	88.75
328.305	33.45
328.518	125.61
328.731	39.59
328.944	82.6
329.157	49.83
329.37	33.45
329.583	72.36
329.796	101.03
330.009	6.83
330.222	90.79
330.435	43.69
330.648	41.64
330.861	62.12
331.073	86.7
331.286	-38.23
331.499	78.51
331.712	58.03
331.925	74.41
332.138	37.55
332.35	74.41
332.563	68.27
332.776	17.07
332.989	23.21
333.202	12.97
333.414	21.16
333.627	-3.41
333.84	45.74
334.053	72.36
334.265	115.37
334.478	-17.75
334.691	27.31
334.903	107.18
335.116	21.16
335.329	66.22
335.541	115.37
335.754	58.03
335.966	-3.41
336.179	25.26
336.392	8.87
336.604	47.79
336.817	27.31
337.029	84.65
337.242	25.26
337.454	45.74
337.667	45.74
337.88	80.55
338.092	49.83
338.305	88.75
338.517	90.79
338.729	17.07
338.942	70.31
339.154	64.17
339.367	8.87
339.579	43.69
339.792	-27.99
340.004	41.64
340.217	88.75
340.429	70.31
340.641	17.07
340.854	70.31
341.066	41.64
341.278	107.18
341.491	84.65
341.703	58.03
341.915	43.69
342.128	78.51
342.34	107.18
342.552	29.35
342.764	82.6
342.977	55.98
343.189	62.12
343.401	55.98
343.613	12.97
343.826	72.36
344.038	64.17
344.25	105.13
344.462	33.45
344.674	41.64
344.886	6.83
345.099	41.64
345.311	49.83
345.523	86.7
345.735	41.64
345.947	45.74
346.159	74.41
346.371	37.55
346.583	88.75
346.795	133.8
347.007	-7.51
347.219	84.65
347.431	111.27
347.643	53.93
347.855	6.83
348.067	84.65
348.279	-23.89
348.491	55.98
348.703	10.92
348.915	19.11
349.127	-5.46
349.339	21.16
349.551	115.37
349.763	47.79
349.975	39.59
350.187	58.03
350.399	90.79
350.61	29.35
350.822	82.6
351.034	60.07
351.246	98.99
351.458	121.51
351.669	72.36
351.881	70.31
352.093	55.98
352.305	131.75
352.517	29.35
352.728	35.5
352.94	10.92
353.152	58.03
353.363	139.94
353.575	76.46
353.787	82.6
353.999	47.79
354.21	141.99
354.422	43.69
354.633	80.55
354.845	6.83
355.057	6.83
355.268	39.59
355.48	35.5
355.692	29.35
355.903	19.11
356.115	31.4
356.326	39.59
356.538	129.7
356.749	62.12
356.961	70.31
357.172	27.31
357.384	105.13
357.595	150.18
357.807	101.03
358.018	86.7
358.23	92.84
358.441	101.03
358.653	88.75
358.864	31.4
359.075	72.36
359.287	74.41
359.498	58.03
359.709	37.55
359.921	60.07
360.132	90.79
360.344	82.6
360.555	70.31
360.766	23.21
360.977	12.97
361.189	51.88
361.4	96.94
361.611	94.89
361.823	107.18
362.034	88.75
362.245	21.16
362.456	84.65
362.667	123.56
362.879	53.93
363.09	90.79
363.301	141.99
363.512	35.5
363.723	78.51
363.935	68.27
364.146	90.79
364.357	94.89
364.568	109.22
364.779	-5.46
364.99	58.03
365.201	84.65
365.412	70.31
365.623	47.79
365.834	72.36
366.045	70.31
366.256	2.73
366.467	68.27
366.678	74.41
366.889	72.36
367.1	76.46
367.311	131.75
367.522	55.98
367.733	98.99
367.944	101.03
368.155	31.4
368.366	72.36
368.577	111.27
368.788	64.17
368.999	21.16
369.209	62.12
369.42	113.32
369.631	90.79
369.842	45.74
370.053	76.46
370.264	51.88
370.474	58.03
370.685	113.32
370.896	127.66
371.107	98.99
371.317	72.36
371.528	74.41
371.739	60.07
371.95	117.42
372.16	111.27
372.371	-25.94
372.582	131.75
372.792	51.88
373.003	72.36
373.214	88.75
373.424	101.03
373.635	41.64
373.846	76.46
374.056	58.03
374.267	27.31
374.477	45.74
374.688	27.31
374.898	60.07
375.109	90.79
375.319	-21.85
375.53	107.18
375.74	84.65
375.951	60.07
376.161	105.13
376.372	121.51
376.582	68.27
376.793	66.22
377.003	51.88
377.214	58.03
377.424	66.22
377.635	101.03
377.845	60.07
378.055	60.07
378.266	88.75
378.476	117.42
378.686	45.74
378.897	31.4
379.107	82.6
379.317	62.12
379.528	-30.04
379.738	90.79
379.948	78.51
380.158	103.08
380.369	19.11
380.579	119.46
380.789	29.35
380.999	103.08
381.21	94.89
381.42	156.33
381.63	-21.85
381.84	72.36
382.05	-1.37
382.261	92.84
382.471	84.65
382.681	70.31
382.891	72.36
383.101	72.36
383.311	21.16
383.521	58.03
383.731	55.98
383.941	168.62
384.151	78.51
384.361	84.65
384.571	78.51
384.781	115.37
384.991	113.32
385.201	76.46
385.411	49.83
385.621	68.27
385.831	105.13
386.041	17.07
386.251	12.97
386.461	172.71
386.671	55.98
386.881	123.56
387.091	74.41
387.301	131.75
387.511	31.4
387.72	47.79
387.93	98.99
388.14	66.22
388.35	96.94
388.56	94.89
388.769	62.12
388.979	68.27
389.189	127.66
389.399	98.99
389.609	135.85
389.818	115.37
390.028	80.55
390.238	96.94
390.447	47.79
390.657	154.28
390.867	123.56
391.076	68.27
391.286	60.07
391.496	43.69
391.705	68.27
391.915	98.99
392.125	115.37
392.334	109.22
392.544	96.94
392.753	101.03
392.963	160.42
393.172	88.75
393.382	111.27
393.591	88.75
393.801	80.55
394.01	168.62
394.22	70.31
394.429	82.6
394.639	25.26
394.848	156.33
395.058	148.14
395.267	92.84
395.477	94.89
395.686	60.07
395.895	117.42
396.105	94.89
396.314	111.27
396.524	115.37
396.733	125.61
396.942	107.18
397.152	166.57
397.361	135.85
397.57	117.42
397.78	178.86
397.989	96.94
398.198	107.18
398.407	74.41
398.617	137.9
398.826	166.57
399.035	62.12
399.244	182.95
399.453	119.46
399.663	176.81
399.872	150.18
400.081	127.66
400.29	178.86
400.499	123.56
400.708	158.38
400.917	131.75
401.127	219.82
401.336	146.09
401.545	174.76
401.754	150.18
401.963	127.66
402.172	144.04
402.381	178.86
402.59	150.18
402.799	156.33
403.008	170.66
403.217	158.38
403.426	191.14
403.635	199.34
403.844	180.9
404.053	185
404.262	199.34
404.471	193.19
404.68	238.25
404.888	166.57
405.097	238.25
405.306	254.63
405.515	309.93
405.724	131.75
405.933	232.1
406.142	225.96
406.35	236.2
406.559	307.88
406.768	168.62
406.977	228.01
407.185	254.63
407.394	232.1
407.603	334.5
407.812	277.16
408.02	338.6
408.229	365.22
408.438	295.59
408.646	342.69
408.855	297.64
409.064	375.46
409.272	340.65
409.481	371.36
409.69	361.13
409.898	422.56
410.107	420.52
410.315	408.23
410.524	385.7
410.733	428.71
410.941	494.24
411.15	520.87
411.358	512.67
411.567	621.22
411.775	514.72
411.984	551.59
412.192	561.83
412.401	602.79
412.609	633.5
412.818	649.89
413.026	690.85
413.234	709.28
413.443	688.8
413.651	740
413.86	737.95
414.068	840.35
414.276	883.36
414.485	780.96
414.693	901.79
414.901	918.17
415.11	907.93
415.318	930.46
415.526	1129.11
415.734	1006.24
415.943	1041.05
416.151	1165.98
416.359	1112.73
416.567	1155.74
416.776	1192.6
416.984	1292.95
417.192	1405.59
417.4	1381.01
417.608	1368.73
417.817	1395.35
418.025	1518.23
418.233	1567.38
418.441	1600.15
418.649	1602.19
418.857	1735.31
419.065	1743.5
419.273	1727.12
419.481	1823.37
419.689	1989.26
419.897	2011.79
420.105	2210.44
420.313	2081.42
420.521	2163.34
420.729	2214.54
420.937	2302.6
421.145	2437.77
421.353	2521.73
421.561	2615.94
421.769	2894.46
421.977	2986.62
422.185	2718.34
422.393	3000.96
422.601	3150.46
422.809	3078.78
423.017	3172.99
423.224	3306.1
423.432	3420.79
423.64	3363.45
423.848	3635.83
424.056	3644.02
424.263	3826.29
424.471	3897.97
424.679	3998.32
424.887	4186.73
425.094	4434.53
425.302	4256.36
425.51	4504.17
425.718	4659.81
425.925	4608.61
426.133	4934.24
426.341	5194.33
426.548	5476.95
426.756	5288.54
426.964	5450.33
427.171	5689.94
427.379	5835.35
427.586	5925.46
427.794	6257.23
428.001	6400.58
428.209	6761.03
428.417	6625.86
428.624	7156.29
428.832	7193.15
429.039	7148.09
429.247	7225.92
429.454	7733.81
429.662	8239.66
429.869	7719.48
430.076	8235.56
430.284	8135.21
430.491	8561.19
430.699	8987.17
430.906	8872.48
431.114	9120.29
431.321	9538.07
431.528	9538.07
431.736	10136.08
431.943	10756.61
432.15	10453.52
432.358	10545.67
432.565	11221.5
432.772	11012.61
432.979	11477.5
433.187	11727.35
433.394	11741.69
433.601	12700.14
433.808	12790.25
434.016	12722.66
434.223	13228.51
434.43	13926.87
434.637	13683.16
434.844	14797.26
435.052	14813.64
435.259	14567.88
435.466	14852.55
435.673	14660.04
435.88	15798.71
436.087	16495.02
436.294	16540.08
436.501	16114.1
436.708	16550.32
436.915	16921
437.122	17588.64
437.329	17904.03
437.537	18352.53
437.743	18692.49
437.95	18657.68
438.157	19220.87
438.364	19773.82
438.571	19851.64
438.778	20310.39
438.985	21932.38
439.192	21252.45
439.399	22008.15
439.606	21401.96
439.813	22821.2
440.02	23677.25
440.227	23474.5
440.433	23140.68
440.64	24090.94
440.847	24111.42
441.054	24623.41
441.261	25938.21
441.467	25944.35
441.674	26470.68
441.881	27216.14
442.088	27390.22
442.294	27042.06
442.501	27879.68
442.708	28553.46
442.914	29511.91
443.121	30777.56
443.328	29870.31
443.534	31854.79
443.741	30927.06
443.948	30433.5
444.154	33063.09
444.361	32739.51
444.568	32766.13
444.774	32708.79
444.981	33087.67
445.187	34168.99
445.394	35604.62
445.6	35082.39
445.807	38254.69
446.013	36790.39
446.22	37769.32
446.426	38981.72
446.633	39469.14
446.839	40775.74
447.046	39168.08
447.252	41228.34
447.459	41205.81
447.665	41119.8
447.871	42887.2
448.078	44998.65
448.284	42623.01
448.491	43808.78
448.697	45248.5
448.903	46231.53
449.11	46467.05
449.316	45891.57
449.522	46872.54
449.728	48009.17
449.935	48291.79
450.141	47943.63
450.347	49180.6
450.553	47595.48
450.76	48095.18
450.966	49770.42
451.172	49323.96
451.378	50599.85
451.584	49201.08
451.791	50775.97
451.997	50651.05
452.203	51197.85
452.409	51240.86
452.615	51183.52
452.821	49590.2
453.027	49102.78
453.233	51165.09
453.44	49162.17
453.646	50089.9
453.852	50046.89
454.058	51359.64
454.264	49319.87
454.47	50425.77
454.676	49467.32
454.882	50593.7
455.088	46518.24
455.294	47052.76
455.5	48099.28
455.705	48435.14
455.911	46249.96
456.117	45610.99
456.323	45150.2
456.529	42428.45
456.735	44660.74
456.941	43560.98
457.147	42997.79
457.352	41750.57
457.558	41443.38
457.764	41041.98
457.97	40317
458.176	39825.48
458.381	39311.44
458.587	37619.82
458.793	37376.11
458.999	35924.1
459.204	38381.67
459.41	37286
459.616	35014.8
459.821	34910.36
460.027	35125.39
460.233	33890.47
460.438	32274.62
460.644	32751.8
460.85	31185.1
461.055	30482.65
461.261	30789.84
461.466	28410.11
461.672	27560.2
461.878	29305.07
462.083	27576.58
462.289	26902.8
462.494	26628.37
462.7	25528.61
462.905	24858.93
463.111	25846.05
463.316	25872.67
463.522	25358.63
463.727	25293.1
463.932	24883.5
464.138	25022.76
464.343	24912.17
464.549	24213.82
464.754	25338.15
464.959	25067.82
465.165	24842.54
465.37	23671.11
465.575	22880.59
465.781	23937.34
465.986	23994.68
466.191	23411.01
466.397	22806.86
466.602	21404
466.807	22473.04
467.012	22485.33
467.218	22421.84
467.423	22108.51
467.628	22280.53
467.833	23343.43
468.038	22282.58
468.244	21870.94
468.449	22481.24
468.654	21815.65
468.859	21813.6
469.064	21455.2
469.269	20676.98
469.474	20636.02
469.679	21344.61
469.885	20767.09
470.09	20982.12
470.295	20752.75
470.5	20283.77
470.705	20775.28
470.91	19978.62
471.115	19575.17
471.32	20294
471.525	20054.39
471.73	19227.01
471.935	19321.22
472.139	18866.57
472.344	18952.59
472.549	18655.63
472.754	18614.67
472.959	18207.12
473.164	17871.26
473.369	17910.17
473.574	18127.25
473.778	18123.16
473.983	18049.43
474.188	17867.16
474.393	17138.09
474.598	17238.44
474.802	16916.9
475.007	17037.73
475.212	16964.01
475.417	16159.16
475.621	16228.79
475.826	16228.79
476.031	16077.24
476.235	15684.03
476.44	16103.86
476.645	15708.6
476.849	15763.9
477.054	15237.57
477.259	15163.84
477.463	15266.24
477.668	14916.04
477.872	15020.49
478.077	14674.38
478.282	14414.29
478.486	14322.13
478.691	14395.85
478.895	14248.4
479.1	13971.93
479.304	14295.5
479.509	13650.39
479.713	14006.74
479.918	13498.84
480.122	13566.43
480.326	13595.1
480.531	13537.76
480.735	13468.13
480.94	13300.19
481.144	13689.31
481.348	13050.34
481.553	13081.06
481.757	12802.54
481.961	13271.52
482.166	13378.01
482.37	13347.29
482.574	13038.05
482.778	13044.2
482.983	13105.63
483.187	12900.84
483.391	13066.72
483.595	12878.31
483.8	12714.47
484.004	13040.1
484.208	13167.07
484.412	12833.25
484.616	13171.17
484.821	13236.7
485.025	12622.31
485.229	12763.62
485.433	12900.84
485.637	12970.47
485.841	12872.17
486.045	12741.1
486.249	12771.82
486.453	12911.08
486.657	12943.85
486.861	13023.72
487.065	12696.04
487.269	12675.56
487.473	12919.27
487.677	12880.36
487.881	13070.82
488.085	13021.67
488.289	12913.13
488.493	12921.32
488.697	13130.21
488.901	12825.06
489.105	13113.83
489.309	13117.92
489.512	13158.88
489.716	13044.2
489.92	13115.87
490.124	13210.08
490.328	13320.67
490.531	13441.5
490.735	13033.96
490.939	13363.68
491.143	13322.72
491.346	13418.97
491.55	13646.3
491.754	13439.45
491.958	13582.81
492.161	13588.96
492.365	13513.18
492.569	13390.3
492.772	13734.36
492.976	13760.98
493.18	13924.82
493.383	13978.07
493.587	14195.15
493.79	14166.48
493.994	13998.55
494.197	14201.3
494.401	14432.72
494.605	14348.75
494.808	14791.11
495.012	14623.18
495.215	14696.91
495.419	14657.99
495.622	14617.04
495.825	15012.29
496.029	14825.93
496.232	15393.22
496.436	15212.99
496.639	15485.37
496.843	15483.33
497.046	16028.09
497.249	15671.74
497.453	16167.35
497.656	16322.99
497.859	16492.97
498.063	16454.06
498.266	16806.31
498.469	16576.94
498.673	17088.93
498.876	17381.79
499.079	17201.57
499.282	17338.79
499.485	17631.65
499.689	17818.01
499.892	17951.13
500.095	18174.36
500.298	18561.42
500.501	18499.98
500.705	18762.12
500.908	19077.51
501.111	19227.01
501.314	19603.84
501.517	19638.65
501.72	19855.74
501.923	19722.62
502.126	20134.26
502.329	20537.71
502.532	20531.57
502.735	20580.72
502.938	21008.75
503.141	21143.91
503.344	21660
503.547	21752.16
503.75	21637.47
503.953	21940.57
504.156	22266.2
504.359	22557.01
504.562	22856.01
504.765	23263.56
504.968	23767.36
505.17	23499.08
505.373	23824.7
505.576	24203.58
505.779	24303.93
505.982	24475.96
506.185	24942.89
506.387	24899.89
506.59	25276.71
506.793	25743.65
506.996	25735.46
507.198	26374.42
507.401	26374.42
507.604	26800.4
507.807	27150.6
508.009	27212.04
508.212	27021.58
508.415	27709.7
508.617	28227.84
508.82	28401.91
509.022	28135.68
509.225	28975.34
509.428	28922.1
509.63	29315.31
509.833	29602.02
510.035	30279.9
510.238	29708.52
510.44	30564.57
510.643	30869.72
510.845	30972.11
511.048	30687.45
511.25	31463.63
511.453	32018.63
511.655	32501.95
511.858	32104.64
512.06	32594.11
512.262	33132.72
512.465	32858.29
512.667	33882.28
512.87	33951.91
513.072	33796.26
513.274	34511
513.477	34932.89
513.679	35168.4
513.881	35645.58
514.084	35764.36
514.286	35729.55
514.488	36292.74
514.69	36722.81
514.893	36810.87
515.095	37376.11
515.297	37607.53
515.499	37851.24
515.701	37982.31
515.904	38445.15
516.106	38830.17
516.308	39145.56
516.51	39522.38
516.712	39737.42
516.914	40001.61
517.116	40874.04
517.318	40749.12
517.52	41293.88
517.722	40958.01
517.925	41812.01
518.127	42043.43
518.329	42242.09
518.531	42006.57
518.733	42993.69
518.935	43778.06
519.136	43208.73
519.338	43753.49
519.54	44392.45
519.742	44953.6
519.944	44806.14
520.146	45320.18
520.348	45660.15
520.55	45789.17
520.752	46084.08
520.954	46874.59
521.155	46448.61
521.357	47394.78
521.559	47550.42
521.761	48050.13
521.963	47908.82
522.164	48164.81
522.366	48347.08
522.568	48869.31
522.77	48928.7
522.971	49745.84
523.173	49526.71
523.375	49543.09
523.576	49811.38
523.778	50204.59
523.98	50417.58
524.181	50558.89
524.383	50913.19
524.584	51185.57
524.786	51474.33
524.988	51441.56
525.189	52201.36
525.391	52275.08
525.592	52152.21
525.794	52760.45
525.995	52653.96
526.197	52772.74
526.398	52961.15
526.6	53563.26
526.801	53659.51
527.003	53784.44
527.204	53712.76
527.406	54220.66
527.607	54202.22
527.808	54669.16
528.01	53487.48
528.211	54339.44
528.412	54976.36
528.614	55162.72
528.815	54996.84
529.016	55535.45
529.218	54724.46
529.419	55508.83
529.62	55586.65
529.822	55222.11
530.023	54996.84
530.224	55605.08
530.425	55682.9
530.626	54953.83
530.828	55357.28
531.029	56358.73
531.23	55627.61
531.431	55813.97
531.632	56223.57
531.833	56051.54
532.035	56033.11
532.236	56125.27
532.437	56454.99
532.638	56440.65
532.839	56442.7
533.04	56373.07
533.241	56115.03
533.442	56883.01
533.643	56072.02
533.844	56393.55
534.045	56643.4
534.246	56274.77
534.447	56663.88
534.648	56815.43
534.849	56682.31
535.05	55840.6
535.251	56756.04
535.451	56096.59
535.652	56749.9
535.853	56674.12
536.054	56823.62
536.255	56952.65
536.456	56143.7
536.657	56741.7
536.857	56479.56
537.058	56610.63
537.259	57141.06
537.46	56676.17
537.66	56389.45
537.861	57089.86
538.062	56696.65
538.263	56844.1
538.463	56665.93
538.664	56883.01
538.865	56753.99
539.065	57085.76
539.266	56196.95
539.466	57206.59
539.667	55953.24
539.868	56917.83
540.068	56581.96
540.269	56377.17
540.469	56526.67
540.67	56420.17
540.87	56577.87
541.071	56342.35
541.271	56651.59
541.472	56325.97
541.672	56573.77
541.873	56211.28
542.073	55709.53
542.274	56551.24
542.474	56035.16
542.675	56373.07
542.875	56727.37
543.075	56420.17
543.276	55932.76
543.476	56276.82
543.676	55945.04
543.877	56657.74
544.077	55961.43
544.277	56123.22
544.478	56282.96
544.678	56061.78
544.878	55881.56
545.078	56282.96
545.279	55832.41
545.479	55914.33
545.679	55785.3
545.879	56203.09
546.079	56160.08
546.28	56135.51
546.48	55527.26
546.68	56293.2
546.88	55930.71
547.08	56293.2
547.28	55883.61
547.48	55666.52
547.68	55996.24
547.88	55480.16
548.081	56090.45
548.281	55758.68
548.481	55730.01
548.681	56495.95
548.881	55482.2
549.081	55453.53
549.28	55228.26
549.48	55934.81
549.68	56055.64
549.88	56479.56
550.08	55191.39
550.28	55893.85
550.48	55439.2
550.68	55519.07
550.88	55484.25
551.08	55873.37
551.279	55492.44
551.479	55631.71
551.679	55340.89
551.879	55160.67
552.079	55832.41
552.278	55400.29
552.478	55289.69
552.678	54789.99
552.878	55631.71
553.077	55287.65
553.277	55170.91
553.477	55301.98
553.676	55267.17
553.876	55285.6
554.076	54835.05
554.275	55261.02
554.475	54464.36
554.674	54869.86
554.874	55279.46
555.074	55011.17
555.273	54929.25
555.473	55207.78
555.672	54804.33
555.872	54923.11
556.071	55072.61
556.271	55224.16
556.47	55109.47
556.67	54583.15
556.869	54005.62
557.068	54933.35
557.268	54298.48
557.467	54056.82
557.667	54398.83
557.866	54265.71
558.065	54497.13
558.265	54083.44
558.464	54026.1
558.663	54923.11
558.863	53677.94
559.062	54873.96
559.261	53890.93
559.461	54286.19
559.66	53776.25
559.859	53694.33
560.058	53258.11
560.258	53940.08
560.457	53364.6
560.656	53718.9
560.855	53356.41
561.054	53817.21
561.253	53516.15
561.453	53317.5
561.652	53782.39
561.851	53469.05
562.05	53192.57
562.249	52838.28
562.448	53479.29
562.647	52914.05
562.846	52834.18
563.045	53256.06
563.244	52221.84
563.443	52889.48
563.642	52127.63
563.841	52678.53
564.04	52508.55
564.239	52903.81
564.438	51863.44
564.637	52526.99
564.836	52500.36
565.035	52043.66
565.234	52178.83
565.432	52074.38
565.631	51797.91
565.83	52244.37
566.029	51699.61
566.228	51384.22
566.427	51527.58
566.625	51210.14
566.824	50808.74
567.023	51945.36
567.222	50388.91
567.42	51435.42
567.619	51011.49
567.818	50982.82
568.016	51214.24
568.215	50866.08
568.414	50653.09
568.612	50945.95
568.811	50530.22
569.01	50415.53
569.208	49889.2
569.407	50759.59
569.605	49645.49
569.804	50544.55
570.002	49903.54
570.201	50165.68
570.4	49645.49
570.598	49532.85
570.797	49473.46
570.995	49938.35
571.193	48650.18
571.392	49518.52
571.59	49010.62
571.789	48990.14
571.987	48627.65
572.186	48945.09
572.384	48910.27
572.582	49061.82
572.781	48762.82
572.979	47998.93
573.177	48146.38
573.376	48263.11
573.574	47990.73
573.772	47828.94
573.971	47894.48
574.169	47763.41
574.367	47587.28
574.565	47618
574.763	47611.86
574.962	47120.35
575.16	46880.74
575.358	47509.46
575.556	46319.59
575.754	47415.26
575.952	46557.16
576.151	46972.89
576.349	46206.95
576.547	46575.59
576.745	46573.54
576.943	46403.56
577.141	45903.85
577.339	46041.07
577.537	46348.26
577.735	45752.3
577.933	45725.68
578.131	45826.03
578.329	45680.63
578.527	45678.58
578.725	45535.22
578.923	45660.15
579.121	45264.89
579.319	45021.18
579.516	45043.71
579.714	45133.82
579.912	44814.33
580.11	44531.72
580.308	44838.91
580.506	44705.79
580.704	43921.42
580.901	44644.35
581.099	44908.54
581.297	43915.28
581.495	44056.59
581.692	44154.89
581.89	43896.84
582.088	43790.35
582.285	43591.7
582.483	44023.82
582.681	43792.4
582.878	43249.69
583.076	42788.89
583.274	43405.33
583.471	42942.49
583.669	42680.35
583.866	42643.49
584.064	42926.11
584.262	42356.77
584.459	42670.11
584.657	42160.17
584.854	42889.24
585.052	41838.64
585.249	42403.88
585.447	42399.78
585.644	41377.84
585.841	41889.84
586.039	42379.3
586.236	41111.61
586.434	41678.89
586.631	41220.15
586.828	41400.37
587.026	41060.41
587.223	41369.65
587.42	40591.42
587.618	41211.96
587.815	40376.39
588.012	40200.26
588.21	40237.12
588.407	40788.03
588.604	40292.42
588.801	39768.14
588.999	40112.2
589.196	40083.53
589.393	39700.56
589.59	39409.75
589.787	39534.67
589.984	39704.65
590.182	39194.71
590.379	39524.43
590.576	39481.42
590.773	39147.61
590.97	38858.84
591.167	38750.3
591.364	38656.09
591.561	38819.93
591.758	38424.67
591.955	38293.6
592.152	38520.93
592.349	38170.72
592.546	38365.28
592.743	38191.2
592.94	37447.79
593.137	37746.79
593.334	37890.15
593.531	37478.51
593.727	37566.57
593.924	37406.83
594.121	37148.79
594.318	37593.2
594.515	36989.05
594.712	37535.85
594.908	36704.38
595.105	36943.99
595.302	36325.5
595.499	36569.21
595.696	36577.4
595.892	36403.33
596.089	36567.16
596.286	36223.11
596.482	35881.1
596.679	36055.17
596.876	35719.31
597.072	35731.59
597.269	35711.11
597.466	35410.06
597.662	35387.53
597.859	35313.81
598.055	35141.78
598.252	35156.11
598.448	34977.94
598.645	35072.15
598.841	34492.57
599.038	35180.69
599.234	34691.23
599.431	34230.43
599.627	34427.04
599.824	34740.38
600.02	34152.61
600.217	34453.66
600.413	34019.49
600.609	33759.4
600.806	33585.32
601.002	34107.55
601.198	33874.09
601.395	33525.93
601.591	33314.99
601.787	33493.16
601.984	33251.5
602.18	33579.18
602.376	32700.6
602.572	32889.01
602.769	32901.3
602.965	32528.57
603.161	32633.02
603.357	32245.95
603.553	32268.48
603.75	32555.19
603.946	31942.85
604.142	32100.54
604.338	32002.24
604.534	32346.3
604.73	31664.33
604.926	32010.43
605.122	31637.7
605.318	31682.76
605.514	31449.29
605.71	31596.74
605.906	31473.87
606.102	31502.54
606.298	31338.7
606.494	30793.94
606.69	31248.59
606.886	30865.62
607.082	30814.42
607.278	30908.63
607.474	30392.54
607.67	30996.69
607.866	30505.18
608.062	30664.92
608.257	30445.79
608.453	30603.48
608.649	30073.06
608.845	30032.1
609.041	30187.74
609.236	30290.14
609.432	30281.95
609.628	30271.71
609.824	29778.15
610.019	29665.51
610.215	29792.48
610.411	29970.66
610.606	29743.33
610.802	29632.74
610.998	29393.13
611.193	29378.79
611.389	29653.22
611.584	29090.03
611.78	29329.64
611.976	29110.51
612.171	29608.17
612.367	29391.08
612.562	29227.24
612.758	28715.25
612.953	28983.54
613.149	29341.93
613.344	28496.12
613.539	29188.33
613.735	28748.02
613.93	28993.78
614.126	28371.19
614.321	28848.37
614.517	28371.19
614.712	28291.32
614.907	28475.64
615.103	28459.26
615.298	28225.79
615.493	28643.57
615.688	27996.42
615.884	28610.81
616.079	27906.3
616.274	27826.43
616.47	28205.31
616.665	27949.31
616.86	27869.44
617.055	28008.7
617.25	27967.74
617.445	27693.32
617.641	27459.85
617.836	27627.78
618.031	27160.84
618.226	27951.36
618.421	27210
618.616	27638.02
618.811	26865.94
619.006	27582.73
619.201	26581.27
619.396	27035.92
619.591	26626.32
619.786	27162.89
619.981	26333.46
620.176	26806.55
620.371	26257.69
620.566	26421.53
620.761	26163.48
620.956	26288.41
621.151	25862.43
621.346	25755.94
621.541	25596.2
621.735	26050.85
621.93	25567.52
622.125	25465.13
622.32	25080.11
622.515	25121.07
622.709	24924.46
622.904	24834.35
623.099	24617.27
623.294	24690.99
623.488	24279.35
623.683	24207.67
623.878	24238.39
624.072	24355.13
624.267	24449.33
624.462	23638.34
624.656	23398.73
624.851	23595.33
625.046	23601.47
625.24	23247.18
625.435	23335.24
625.629	23531.84
625.824	23107.91
626.018	22948.17
626.213	22544.72
626.407	22538.58
626.602	22522.19
626.796	22692.18
626.991	22219.1
627.185	22141.27
627.38	21979.48
627.574	21954.91
627.768	21717.34
627.963	21676.38
628.157	21438.82
628.352	21674.34
628.546	21404
628.74	21406.05
628.935	21317.99
629.129	21094.76
629.323	20500.85
629.517	20687.22
629.712	20613.49
629.906	20480.37
630.1	20119.93
630.294	20461.94
630.489	20468.08
630.683	20386.16
630.877	19853.69
631.071	19712.38
631.265	20005.24
631.459	19732.86
631.653	19720.57
631.848	19423.62
632.042	19478.91
632.236	19403.14
632.43	19157.38
632.624	19210.63
632.818	19087.75
633.012	18780.56
633.206	18749.84
633.4	18958.73
633.594	18600.33
633.788	18729.36
633.982	18618.77
634.176	18854.28
634.369	18321.81
634.563	18121.11
634.757	18069.91
634.951	18117.01
635.145	18135.45
635.339	17955.22
635.533	17721.76
635.726	17590.69
635.92	17414.56
636.114	17385.89
636.308	17291.68
636.501	17568.16
636.695	17482.14
636.889	16949.67
637.083	17107.37
637.276	16914.86
637.47	16943.53
637.664	16718.25
637.857	16691.63
638.051	16452.02
638.244	16478.64
638.438	16669.1
638.632	16198.07
638.825	15980.98
639.019	16146.87
639.212	16058.81
639.406	16206.26
639.599	15696.32
639.793	15817.15
639.986	15563.2
640.18	15925.69
640.373	15741.37
640.567	15270.34
640.76	15436.22
640.954	15073.73
641.147	15276.48
641.34	15206.85
641.534	15376.83
641.727	15024.58
641.92	14852.55
642.114	14791.11
642.307	14789.06
642.5	14756.3
642.694	14594.51
642.887	14338.51
643.08	14447.05
643.273	14395.85
643.467	14500.3
643.66	14209.49
643.853	14367.18
644.046	13963.73
644.239	14191.06
644.432	13937.11
644.626	13992.41
644.819	13791.7
645.012	13697.5
645.205	13695.45
645.398	13515.23
645.591	13373.92
645.784	13541.85
645.977	13341.15
646.17	13402.59
646.363	13427.17
646.556	13097.44
646.749	13062.63
646.942	12974.56
647.135	12755.43
647.328	13005.28
647.521	12945.89
647.714	12653.03
647.907	12741.1
648.099	12913.13
648.292	12499.44
648.485	12481
648.678	12474.86
648.871	12524.01
649.064	12399.09
649.256	12415.47
649.449	12296.69
649.642	12157.43
649.835	12188.14
650.027	11973.11
650.22	11954.68
650.413	12042.74
650.605	11829.75
650.798	11692.54
650.991	11524.6
651.183	11647.48
651.376	11467.26
651.568	11502.08
651.761	11483.64
651.954	11475.45
652.146	11422.2
652.339	11225.6
652.531	11244.03
652.724	10959.36
652.916	11033.09
653.109	11026.95
653.301	11039.23
653.494	10852.87
653.686	10797.57
653.879	10854.92
654.071	10887.68
654.263	10801.67
654.456	10625.54
654.648	10594.82
654.84	10482.19
655.033	10652.17
655.225	10523.15
655.417	10494.47
655.61	10172.94
655.802	10306.06
655.994	10246.67
656.186	10230.29
656.379	10131.98
656.571	10009.11
656.763	10076.69
656.955	10101.26
657.148	10093.07
657.34	9935.38
657.532	9910.8
657.724	9701.91
657.916	9548.31
658.108	9845.27
658.3	9550.36
658.492	9613.85
658.684	9417.24
658.876	9482.78
659.068	9536.03
659.26	9198.11
659.452	9376.28
659.644	9384.48
659.836	9124.38
660.028	9353.76
660.22	8970.79
660.412	8899.11
660.604	8927.78
660.796	8958.5
660.988	8800.8
661.18	8815.14
661.372	8759.84
661.563	8811.04
661.755	8772.13
661.947	8804.9
662.139	8755.75
662.331	8665.64
662.522	8520.23
662.714	8469.03
662.906	8593.96
663.097	8514.09
663.289	8317.48
663.481	8524.33
663.673	8323.63
663.864	8043.06
664.056	8176.17
664.247	8061.49
664.439	8129.07
664.631	8010.29
664.822	7979.57
665.014	7924.27
665.205	8096.3
665.397	8032.82
665.588	8178.22
665.78	7957.04
665.971	7938.61
666.163	7791.16
666.354	7875.12
666.546	7848.5
666.737	7629.37
666.929	7752.24
667.12	7655.99
667.311	7492.15
667.503	7397.95
667.694	7727.67
667.885	7371.32
668.077	7426.62
668.268	7381.56
668.459	7443
668.651	7256.64
668.842	7238.2
669.033	7367.23
669.224	7131.71
669.416	7152.19
669.607	7285.31
669.798	7248.44
669.989	7098.94
670.18	7127.61
670.371	7035.46
670.563	6992.45
670.754	6947.39
670.945	6828.61
671.136	6824.51
671.327	7057.98
671.518	6867.52
671.709	6722.12
671.9	6969.92
672.091	6640.2
672.282	6675.01
672.473	6715.97
672.664	6912.58
672.855	6531.65
673.046	6603.33
673.237	6478.41
673.428	6672.96
673.619	6439.5
673.809	6466.12
674	6365.77
674.191	6513.22
674.382	6482.5
674.573	6494.79
674.764	6390.35
674.954	6437.45
675.145	6423.11
675.336	6292.04
675.527	6267.47
675.717	6038.09
675.908	6072.91
676.099	6197.84
676.289	6097.49
676.48	6292.04
676.671	6034
676.861	6189.64
677.052	6074.96
677.243	5997.14
677.433	6072.91
677.624	6077.01
677.814	5939.79
678.005	5825.11
678.195	6128.21
678.386	6003.28
678.576	6015.57
678.767	5982.8
678.957	5816.91
679.148	5950.03
679.338	5798.48
679.529	5915.22
679.719	5778
679.909	5726.8
680.1	5810.77
680.29	5679.7
680.481	5788.24
680.671	5884.5
680.861	5767.76
681.052	5575.25
681.242	5714.52
681.432	5714.52
681.622	5622.36
681.813	5593.69
682.003	5687.89
682.193	5589.59
682.383	5634.64
682.573	5491.29
682.764	5528.15
682.954	5651.03
683.144	5468.76
683.334	5509.72
683.524	5356.12
683.714	5392.98
683.904	5370.46
684.094	5366.36
684.284	5517.91
684.474	5491.29
684.664	5501.53
684.854	5212.76
685.044	5306.97
685.234	5317.21
685.424	5173.85
685.614	5343.83
685.804	5227.1
685.994	5392.98
686.184	5247.58
686.374	5249.63
686.564	5239.39
686.753	5124.7
686.943	5108.32
687.133	5108.32
687.323	4999.77
687.513	5128.8
687.702	5145.18
687.892	5079.65
688.082	5132.89
688.272	5079.65
688.461	4921.95
688.651	5157.47
688.841	4766.31
689.03	4794.98
689.22	4797.03
689.41	4776.55
689.599	4885.09
689.789	4690.53
689.979	4663.91
690.168	4745.83
690.358	4731.49
690.547	4680.29
690.737	4637.28
690.926	4680.29
691.116	4551.27
691.305	4651.62
691.495	4700.77
691.684	4627.04
691.874	4459.11
692.063	4616.8
692.252	4557.41
692.442	4444.77
692.631	4399.72
692.82	4395.62
693.01	4528.74
693.199	4348.52
693.388	4248.17
693.578	4325.99
693.767	4491.88
693.956	4192.87
694.146	4334.18
694.335	4313.7
694.524	4248.17
694.713	4153.96
694.902	4196.97
695.092	4096.62
695.281	4176.49
695.47	4147.82
695.659	4162.16
695.848	4156.01
696.037	4270.7
696.226	4151.92
696.415	4106.86
696.604	4014.7
696.793	4031.09
696.982	4117.1
697.171	4168.3
697.36	4070
697.549	4024.94
697.738	4049.52
697.927	3986.03
698.116	4104.81
698.305	3992.17
698.494	4000.37
698.683	3887.73
698.872	4104.81
699.061	3979.89
699.25	4049.52
699.438	4002.41
699.627	3873.39
699.816	4051.56
700.005	3889.78
700.193	3967.6
700.382	3902.06
700.571	3953.26
700.76	3758.71
700.948	3793.52
701.137	3900.02
701.326	3699.31
701.514	3889.78
701.703	3807.86
701.892	3795.57
702.08	3795.57
702.269	3783.28
702.457	3693.17
702.646	3768.95
702.834	3799.66
703.023	3637.88
703.212	3766.9
703.4	3766.9
703.589	3666.55
703.777	3635.83
703.965	3689.07
704.154	3711.6
704.342	3678.83
704.531	3719.79
704.719	3652.21
704.907	3621.49
705.096	3603.06
705.284	3705.46
705.472	3641.97
705.661	3543.67
705.849	3510.9
706.037	3529.33
706.226	3646.07
706.414	3588.72
706.602	3568.24
706.79	3605.11
706.979	3617.4
707.167	3596.92
707.355	3431.03
707.543	3564.15
707.731	3648.11
707.919	3512.95
708.107	3508.85
708.296	3433.08
708.484	3537.52
708.672	3371.64
708.86	3566.2
709.048	3365.5
709.236	3445.37
709.424	3476.09
709.612	3498.61
709.8	3418.74
709.988	3525.24
710.176	3312.25
710.364	3461.75
710.551	3431.03
710.739	3279.48
710.927	3338.87
711.115	3281.53
711.303	3320.44
711.491	3259
711.679	3220.09
711.866	3289.72
712.054	3308.15
712.242	3230.33
712.43	3189.37
712.617	3408.5
712.805	3334.78
712.993	3332.73
713.181	3256.95
713.368	3187.32
713.556	3351.16
713.744	3365.5
713.931	3185.27
714.119	3299.96
714.306	3289.72
714.494	3277.43
714.682	3381.88
714.869	3199.61
715.057	3248.76
715.244	3105.4
715.432	3230.33
715.619	3113.6
715.807	3150.46
715.994	3127.93
716.182	3052.16
716.369	3168.89
716.556	3189.37
716.744	3052.16
716.931	3160.7
717.119	3113.6
717.306	3027.58
717.493	3078.78
717.681	3109.5
717.868	3041.92
718.055	3146.36
718.242	3164.79
718.43	3041.92
718.617	3150.46
718.804	2998.91
718.991	3003
719.179	2992.76
719.366	3095.16
719.553	3097.21
719.74	3041.92
719.927	3066.49
720.114	3037.82
720.301	2927.23
720.488	3003
720.676	2986.62
720.863	3003
721.05	2839.17
721.237	2970.24
721.424	2943.61
721.611	2863.74
721.798	2929.28
721.985	2871.93
722.172	2966.14
722.358	2916.99
722.545	2853.5
722.732	2851.46
722.919	2914.94
723.106	3009.15
723.293	2921.09
723.48	2902.65
723.667	2916.99
723.853	2884.22
724.04	2863.74
724.227	2796.16
724.414	2910.85
724.6	2816.64
724.787	2876.03
724.974	2843.26
725.161	2779.78
725.347	2845.31
725.534	2794.11
725.72	2767.49
725.907	2873.98
726.094	2925.18
726.28	2869.89
726.467	2810.5
726.653	2814.59
726.84	2765.44
727.027	2833.02
727.213	2722.43
727.4	2861.69
727.586	2835.07
727.773	2712.19
727.959	2802.3
728.145	2738.82
728.332	2663.04
728.518	2654.85
728.705	2607.75
728.891	2697.86
729.077	2706.05
729.264	2787.97
729.45	2710.15
729.636	2734.72
729.823	2607.75
730.009	2693.76
730.195	2620.03
730.382	2695.81
730.568	2648.71
730.754	2689.67
730.94	2562.69
731.126	2556.55
731.313	2718.34
731.499	2701.95
731.685	2687.62
731.871	2785.92
732.057	2712.19
732.243	2536.07
732.429	2587.27
732.615	2658.95
732.801	2714.24
732.987	2704
733.173	2484.87
733.359	2755.2
733.545	2675.33
733.731	2499.2
733.917	2538.12
734.103	2650.75
734.289	2503.3
734.475	2603.65
734.661	2642.56
734.847	2560.64
735.033	2577.03
735.219	2527.88
735.404	2654.85
735.59	2484.87
735.776	2437.77
735.962	2458.25
736.148	2560.64
736.333	2536.07
736.519	2464.39
736.705	2439.81
736.89	2568.84
737.076	2534.02
737.262	2415.24
737.447	2450.05
737.633	2413.19
737.819	2331.27
738.004	2411.14
738.19	2517.64
738.375	2482.82
738.561	2443.91
738.747	2431.62
738.932	2394.76
739.118	2339.46
739.303	2374.28
739.489	2454.15
739.674	2327.18
739.859	2298.5
740.045	2341.51
740.23	2374.28
740.416	2460.29
740.601	2321.03
740.786	2402.95
740.972	2347.65
741.157	2282.12
741.342	2321.03
741.528	2280.07
741.713	2316.94
741.898	2339.46
742.084	2142.86
742.269	2282.12
742.454	2275.98
742.639	2357.89
742.824	2189.96
743.01	2253.45
743.195	2208.39
743.38	2261.64
743.565	2185.87
743.75	2165.39
743.935	2122.38
744.12	2308.74
744.305	2040.46
744.49	2159.24
744.675	2118.28
744.86	2116.23
745.045	2120.33
745.23	2030.22
745.415	2189.96
745.6	2050.7
745.785	2114.19
745.97	2065.04
746.155	2032.27
746.34	1999.5
746.525	1976.97
746.71	2005.64
746.895	1917.58
747.079	2065.04
747.264	1964.68
747.449	1909.39
747.634	1958.54
747.819	2007.69
748.003	1813.13
748.188	1917.58
748.373	1868.43
748.557	1952.4
748.742	1847.95
748.927	1778.32
749.111	1794.7
749.296	1872.53
749.481	1725.07
749.665	1845.9
749.85	1694.35
750.034	1735.31
750.219	1778.32
750.404	1817.23
750.588	1854.09
750.773	1778.32
750.957	1653.39
751.141	1688.21
751.326	1702.54
751.51	1612.43
751.695	1698.45
751.879	1655.44
752.064	1723.02
752.248	1618.58
752.432	1653.39
752.617	1591.95
752.801	1663.63
752.985	1645.2
753.17	1589.91
753.354	1583.76
753.538	1581.71
753.722	1548.95
753.907	1604.24
754.091	1512.08
754.275	1536.66
754.459	1518.23
754.643	1446.55
754.828	1526.42
755.012	1407.64
755.196	1481.36
755.38	1503.89
755.564	1534.61
755.748	1426.07
755.932	1389.21
756.116	1528.47
756.3	1362.58
756.484	1329.81
756.668	1387.16
756.852	1385.11
757.036	1395.35
757.22	1368.73
757.404	1364.63
757.588	1309.33
757.772	1342.1
757.956	1278.62
758.14	1325.72
758.323	1260.18
758.507	1387.16
758.691	1274.52
758.875	1327.77
759.059	1368.73
759.242	1251.99
759.426	1254.04
759.61	1208.98
759.794	1243.8
759.977	1206.94
760.161	1286.81
760.345	1231.51
760.528	1190.55
760.712	1141.4
760.895	1188.5
761.079	1190.55
761.263	1235.61
761.446	1208.98
761.63	1188.5
761.813	1258.14
761.997	1149.59
762.18	1151.64
762.364	1260.18
762.547	1100.44
762.731	1108.63
762.914	1090.2
763.098	1059.48
763.281	1112.73
763.464	1061.53
763.648	1153.69
763.831	1139.35
764.015	1137.31
764.198	1112.73
764.381	1067.67
764.564	993.95
764.748	1026.71
764.931	1157.78
765.114	1034.91
765.297	1067.67
765.481	1041.05
765.664	1073.82
765.847	1008.28
766.03	1143.45
766.213	1055.39
766.397	1024.67
766.58	991.9
766.763	1061.53
766.946	1036.95
767.129	950.94
767.312	1000.09
767.495	895.64
767.678	955.04
767.861	987.8
768.044	989.85
768.227	948.89
768.41	1051.29
768.593	1002.14
768.776	1028.76
768.959	948.89
769.142	1041.05
769.324	932.51
769.507	893.6
769.69	885.41
769.873	899.74
770.056	1049.24
770.239	940.7
770.421	944.8
770.604	957.08
770.787	905.88
770.97	899.74
771.152	903.84
771.335	955.04
771.518	875.17
771.7	909.98
771.883	926.36
772.066	862.88
772.248	864.93
772.431	983.71
772.613	811.68
772.796	881.31
772.978	819.87
773.161	862.88
773.343	821.92
773.526	740
773.708	813.73
773.891	821.92
774.073	862.88
774.256	744.1
774.438	821.92
774.621	729.76
774.803	809.63
774.985	828.06
775.168	809.63
775.35	735.9
775.532	756.38
775.715	762.53
775.897	778.91
776.079	770.72
776.261	838.3
776.444	811.68
776.626	793.25
776.808	711.33
776.99	678.56
777.173	694.94
777.355	709.28
777.537	789.15
777.719	631.46
777.901	692.9
778.083	635.55
778.265	668.32
778.447	668.32
778.629	676.51
778.811	789.15
778.993	623.27
779.175	746.14
779.357	686.75
779.539	748.19
779.721	694.94
779.903	680.61
780.085	633.5
780.267	602.79
780.449	594.59
780.631	613.03
780.812	653.98
780.994	610.98
781.176	672.42
781.358	518.82
781.54	602.79
781.721	610.98
781.903	709.28
782.085	576.16
782.267	664.22
782.448	531.11
782.63	555.68
782.812	590.5
782.993	543.39
783.175	592.55
783.357	647.84
783.538	461.48
783.72	541.35
783.901	545.44
784.083	555.68
784.264	559.78
784.446	572.07
784.627	484
784.809	494.24
784.99	524.96
785.172	498.34
785.353	545.44
785.535	432.8
785.716	463.52
785.897	459.43
786.079	475.81
786.26	516.77
786.441	494.24
786.623	463.52
786.804	500.39
786.985	481.96
787.167	520.87
787.348	447.14
787.529	416.42
787.71	457.38
787.891	479.91
788.073	395.94
788.254	434.85
788.435	531.11
788.616	430.76
788.797	410.28
788.978	412.32
789.159	381.6
789.34	473.76
789.522	359.08
789.703	506.53
789.884	438.95
790.065	494.24
790.246	449.19
790.427	357.03
790.607	428.71
790.788	404.13
790.969	397.99
791.15	414.37
791.331	367.27
791.512	365.22
791.693	369.32
791.874	352.93
792.054	381.6
792.235	467.62
792.416	320.17
792.597	359.08
792.778	338.6
792.958	346.79
793.139	414.37
793.32	363.17
793.5	281.25
793.681	393.89
793.862	244.39
794.042	471.72
794.223	240.29
794.404	332.45
794.584	324.26
794.765	266.92
794.945	297.64
795.126	377.51
795.306	443.04
795.487	369.32
795.667	287.4
795.848	293.54
796.028	307.88
796.209	285.35
796.389	301.73
796.57	264.87
796.75	350.89
796.93	228.01
797.111	293.54
797.291	334.5
797.471	344.74
797.652	375.46
797.832	352.93
798.012	318.12
798.192	301.73
798.373	250.53
798.553	275.11
798.733	268.97
798.913	268.97
799.093	262.82
799.274	307.88
799.454	285.35
799.634	338.6
799.814	223.91
799.994	244.39
800.174	324.26
800.354	303.78
800.534	316.07
800.714	297.64
800.894	176.81
801.074	254.63
801.254	305.83
801.434	268.97
801.614	221.86
801.794	258.73
801.974	637.6
802.154	217.77
802.334	262.82
802.514	301.73
802.693	197.29
802.873	279.21
803.053	271.01
803.233	277.16
803.413	191.14
803.592	221.86
803.772	266.92
803.952	275.11
804.131	309.93
804.311	146.09
804.491	166.57
804.67	240.29
804.85	277.16
805.03	236.2
805.209	316.07
805.389	211.62
805.568	217.77
805.748	209.58
805.928	189.1
806.107	266.92
806.287	207.53
806.466	180.9
806.646	144.04
806.825	199.34
807.004	271.01
807.184	193.19
807.363	199.34
807.543	256.68
807.722	185
807.901	211.62
808.081	250.53
808.26	146.09
808.439	154.28
808.619	170.66
808.798	219.82
808.977	258.73
809.156	277.16
809.336	236.2
809.515	176.81
809.694	215.72
809.873	152.23
810.052	205.48
810.231	195.24
810.411	154.28
810.59	152.23
810.769	268.97
810.948	168.62
811.127	195.24
811.306	146.09
811.485	189.1
811.664	180.9
811.843	264.87
812.022	234.15
812.201	139.94
812.38	150.18
812.559	195.24
812.737	217.77
812.916	221.86
813.095	209.58
813.274	189.1
813.453	234.15
813.632	279.21
813.811	246.44
813.989	96.94
814.168	182.95
814.347	137.9
814.526	217.77
814.704	185
814.883	203.43
815.062	109.22
815.24	150.18
815.419	156.33
815.598	182.95
815.776	117.42
815.955	94.89
816.133	127.66
816.312	195.24
816.49	88.75
816.669	168.62
816.847	158.38
817.026	205.48
817.204	185
817.383	180.9
817.561	160.42
817.74	127.66
817.918	144.04
818.097	217.77
818.275	162.47
818.453	230.06
818.632	121.51
818.81	109.22
818.988	131.75
819.167	144.04
819.345	88.75
819.523	168.62
819.701	152.23
819.879	139.94
820.058	64.17
820.236	115.37
820.414	141.99
820.592	178.86
820.77	144.04
820.948	156.33
821.127	78.51
821.305	123.56
821.483	94.89
821.661	185
821.839	158.38
822.017	156.33
822.195	53.93
822.373	172.71
822.551	127.66
822.729	156.33
822.907	123.56
823.085	150.18
823.262	117.42
823.44	127.66
823.618	86.7
823.796	176.81
823.974	33.45
824.152	146.09
824.329	58.03
824.507	150.18
824.685	150.18
824.863	111.27
825.04	96.94
825.218	92.84
825.396	127.66
825.574	174.76
825.751	113.32
825.929	45.74
826.107	80.55
826.284	133.8
826.462	121.51
826.639	148.14
826.817	66.22
826.994	49.83
827.172	107.18
827.349	162.47
827.527	88.75
827.704	62.12
827.882	133.8
828.059	115.37
828.237	109.22
828.414	103.08
828.591	39.59
828.769	41.64
828.946	101.03
829.124	113.32
829.301	111.27
829.478	101.03
829.655	78.51
829.833	103.08
830.01	47.79
830.187	131.75
830.364	107.18
830.542	101.03
830.719	123.56
830.896	123.56
831.073	137.9
831.25	53.93
831.427	84.65
831.604	98.99
831.782	2.73
831.959	88.75
832.136	90.79
832.313	64.17
832.49	-7.51
832.667	37.55
832.844	133.8
833.021	119.46
833.198	25.26
833.374	64.17
833.551	86.7
833.728	29.35
833.905	84.65
834.082	29.35
834.259	133.8
834.436	80.55
834.612	2.73
834.789	133.8
834.966	-3.41
835.143	86.7
835.319	86.7
835.496	23.21
835.673	119.46
835.85	88.75
836.026	70.31
836.203	60.07
836.38	41.64
836.556	66.22
836.733	139.94
836.909	76.46
837.086	-25.94
837.262	17.07
837.439	41.64
837.616	6.83
837.792	58.03
837.968	55.98
838.145	17.07
838.321	41.64
838.498	154.28
838.674	43.69
838.851	25.26
839.027	103.08
839.203	-7.51
839.38	41.64
839.556	21.16
839.732	58.03
839.909	113.32
840.085	66.22
840.261	66.22
840.437	129.7
840.614	160.42
840.79	105.13
840.966	31.4
841.142	60.07
841.318	92.84
841.494	80.55
841.671	62.12
841.847	-34.13
842.023	80.55
842.199	92.84
842.375	51.88
842.551	47.79
842.727	29.35
842.903	94.89
843.079	12.97
843.255	78.51
843.431	103.08
843.607	101.03
843.783	-1.37
843.959	31.4
844.134	43.69
844.31	68.27
844.486	68.27
844.662	78.51
844.838	64.17
845.013	58.03
845.189	39.59
845.365	74.41
845.541	43.69
845.716	35.5
845.892	96.94
846.068	39.59
846.244	31.4
846.419	148.14
846.595	68.27
846.77	78.51
846.946	66.22
847.122	39.59
847.297	-25.94
847.473	21.16
847.648	82.6
847.824	94.89
847.999	35.5
848.175	78.51
848.35	62.12
848.526	121.51
848.701	88.75
848.876	86.7
849.052	111.27
849.227	35.5
849.403	-9.56
849.578	21.16
849.753	19.11
849.929	33.45
850.104	6.83
850.279	55.98
850.454	86.7
850.63	37.55
850.805	64.17
850.98	68.27
851.155	-5.46
851.33	43.69
851.505	25.26
851.681	74.41
851.856	10.92
852.031	51.88
852.206	33.45
852.381	-21.85
852.556	2.73
852.731	80.55
852.906	58.03
853.081	51.88
853.256	35.5
853.431	21.16
853.606	-9.56
853.781	58.03
853.956	-25.94
854.131	88.75
854.305	64.17
854.48	23.21
854.655	6.83
854.83	55.98
855.005	72.36
855.18	19.11
855.354	-19.8
855.529	19.11
855.704	47.79
855.879	12.97
856.053	6.83
856.228	-34.13
856.403	10.92
856.577	125.61
856.752	70.31
856.926	55.98
857.101	76.46
857.276	4.78
857.45	55.98
857.625	119.46
857.799	2.73
857.974	10.92
858.148	49.83
858.323	17.07
858.497	27.31
858.672	96.94
858.846	51.88
859.02	113.32
859.195	-19.8
859.369	-3.41
859.543	76.46
859.718	25.26
859.892	-11.61
860.066	113.32
860.241	-11.61
860.415	0.68
860.589	21.16
860.763	10.92
860.938	31.4
861.112	96.94
861.286	45.74
861.46	29.35
861.634	78.51
861.808	68.27
861.982	19.11
862.157	76.46
862.331	-3.41
862.505	-60.76
862.679	-21.85
862.853	21.16
863.027	0.68
863.201	27.31
863.375	0.68
863.549	37.55
863.722	12.97
863.896	60.07
864.07	33.45
864.244	41.64
864.418	39.59
864.592	78.51
864.766	82.6
864.939	21.16
865.113	15.02
865.287	2.73
865.461	31.4
865.634	90.79
865.808	12.97
865.982	66.22
866.156	39.59
866.329	-3.41
866.503	-9.56
866.676	86.7
866.85	43.69
867.024	55.98
867.197	103.08
867.371	98.99
867.544	103.08
867.718	41.64
867.891	8.87
868.065	-21.85
868.238	29.35
868.412	101.03
868.585	37.55
868.759	43.69
868.932	-38.23
869.105	-3.41
869.279	27.31
869.452	21.16
869.625	-5.46
869.799	84.65
869.972	-60.76
870.145	-7.51
870.319	45.74
870.492	33.45
870.665	17.07
870.838	19.11
871.011	-32.08
871.185	39.59
871.358	19.11
871.531	10.92
871.704	-34.13
871.877	-36.18
872.05	2.73
872.223	0.68
872.396	31.4
872.569	19.11
872.742	41.64
872.915	74.41
873.088	8.87
873.261	-58.71
873.434	58.03
873.607	60.07
873.78	101.03
873.953	27.31
874.126	49.83
874.299	41.64
874.471	53.93
874.644	58.03
874.817	41.64
874.99	8.87
875.163	12.97
875.335	107.18
875.508	-36.18
875.681	49.83
875.853	47.79
876.026	2.73
876.199	-13.65
876.371	45.74
876.544	-32.08
876.717	62.12
876.889	6.83
877.062	82.6
877.234	-58.71
877.407	19.11
877.579	6.83
877.752	17.07
877.924	6.83
878.097	121.51
878.269	47.79
878.442	10.92
878.614	51.88
878.786	-7.51
878.959	10.92
879.131	80.55
879.303	4.78
879.476	4.78
879.648	23.21
879.82	62.12
879.993	6.83
880.165	-34.13
880.337	23.21
880.509	21.16
880.681	-32.08
880.854	6.83
881.026	2.73
881.198	51.88
881.37	-15.7
881.542	25.26
881.714	-38.23
881.886	-46.42
882.058	-15.7
882.23	74.41
882.402	23.21
882.574	47.79
882.746	8.87
882.918	92.84
883.09	-9.56
883.262	17.07
883.434	-32.08
883.606	-19.8
883.778	78.51
883.95	117.42
884.122	51.88
884.293	35.5
884.465	37.55
884.637	43.69
884.809	-30.04
884.98	-5.46
885.152	-3.41
885.324	68.27
885.496	33.45
885.667	2.73
885.839	-3.41
886.011	4.78
886.182	53.93
886.354	49.83
886.525	12.97
886.697	-25.94
886.869	62.12
887.04	64.17
887.212	37.55
887.383	25.26
887.555	21.16
887.726	-17.75
887.897	-25.94
888.069	-23.89
888.24	74.41
888.412	27.31
888.583	58.03
888.754	8.87
888.926	-48.47
889.097	-34.13
889.268	8.87
889.44	43.69
889.611	-13.65
889.782	-1.37
889.953	2.73
890.125	84.65
890.296	15.02
890.467	39.59
890.638	25.26
890.809	49.83
890.98	-105.81
891.151	-5.46
891.323	27.31
891.494	8.87
891.665	0.68
891.836	6.83
892.007	37.55
892.178	17.07
892.349	68.27
892.52	2.73
892.691	37.55
892.862	21.16
893.032	6.83
893.203	6.83
893.374	55.98
893.545	64.17
893.716	-25.94
893.887	19.11
894.057	49.83
894.228	29.35
894.399	-30.04
894.57	37.55
894.74	-46.42
894.911	62.12
895.082	-91.48
895.253	-9.56
895.423	-34.13
895.594	-13.65
895.764	19.11
895.935	31.4
896.106	43.69
896.276	12.97
896.447	29.35
896.617	31.4
896.788	-13.65
896.958	2.73
897.129	58.03
897.299	21.16
897.47	55.98
897.64	-48.47
897.81	17.07
897.981	27.31
898.151	23.21
898.322	4.78
898.492	94.89
898.662	51.88
898.832	45.74
899.003	55.98
899.173	49.83
899.343	-5.46
899.513	37.55
