Data from USB4F104151__18__12-35-20-523.txt Node

Date: Fri Mar 14 12:35:20 EDT 2025
User: louis
Spectrometer: USB4F10415
Trigger mode: 4
Integration Time (sec): 2.000000E-2
Scans to average: 1
Electric dark correction enabled: true
Nonlinearity correction enabled: false
Boxcar width: 0
XAxis mode: Wavelengths
Number of Pixels in Spectrum: 3648
>>>>>Begin Spectral Data<<<<<
178.204	-98.99
178.424	-98.99
178.644	-98.99
178.864	-172.71
179.084	-17.07
179.304	-72.36
179.524	68.95
179.744	-35.5
179.964	66.9
180.184	-55.98
180.404	7.51
180.624	58.71
180.844	23.89
181.064	-41.64
181.283	27.99
181.503	-64.17
181.723	15.7
181.943	23.89
182.163	118.1
182.383	-12.97
182.602	46.42
182.822	68.95
183.042	7.51
183.262	13.65
183.482	13.65
183.701	77.14
183.921	-21.16
184.141	68.95
184.361	-27.31
184.58	64.85
184.8	7.51
185.02	83.28
185.239	140.63
185.459	50.52
185.679	11.61
185.898	15.7
186.118	13.65
186.338	40.28
186.557	21.85
186.777	71
186.997	-2.73
187.216	34.13
187.436	52.56
187.655	48.47
187.875	9.56
188.095	50.52
188.314	93.52
188.534	7.51
188.753	19.8
188.973	95.57
189.192	25.94
189.412	91.48
189.631	60.76
189.851	46.42
190.07	27.99
190.29	-21.16
190.509	79.19
190.729	75.09
190.948	15.7
191.168	126.29
191.387	30.04
191.607	5.46
191.826	-4.78
192.045	79.19
192.265	15.7
192.484	54.61
192.704	81.24
192.923	15.7
193.142	73.04
193.362	50.52
193.581	83.28
193.8	93.52
194.02	120.15
194.239	118.1
194.458	83.28
194.678	-23.21
194.897	-39.59
195.116	48.47
195.335	27.99
195.555	21.85
195.774	44.37
195.993	116.05
196.212	52.56
196.432	-0.68
196.651	85.33
196.87	60.76
197.089	154.96
197.308	107.86
197.528	48.47
197.747	1.37
197.966	62.8
198.185	161.11
198.404	23.89
198.623	42.32
198.842	27.99
199.062	77.14
199.281	46.42
199.5	87.38
199.719	68.95
199.938	60.76
200.157	109.91
200.376	54.61
200.595	27.99
200.814	36.18
201.033	52.56
201.252	-15.02
201.471	71
201.69	85.33
201.909	64.85
202.128	146.77
202.347	95.57
202.566	19.8
202.785	56.66
203.004	19.8
203.223	122.2
203.442	50.52
203.661	81.24
203.879	44.37
204.098	50.52
204.317	-25.26
204.536	91.48
204.755	50.52
204.974	44.37
205.193	79.19
205.411	32.08
205.63	32.08
205.849	25.94
206.068	-35.5
206.287	146.77
206.505	114
206.724	95.57
206.943	81.24
207.162	46.42
207.381	42.32
207.599	44.37
207.818	73.04
208.037	23.89
208.255	-15.02
208.474	36.18
208.693	34.13
208.911	75.09
209.13	54.61
209.349	50.52
209.567	42.32
209.786	50.52
210.005	7.51
210.223	-21.16
210.442	11.61
210.661	21.85
210.879	-31.4
211.098	68.95
211.316	32.08
211.535	122.2
211.753	-21.16
211.972	27.99
212.191	23.89
212.409	27.99
212.628	40.28
212.846	5.46
213.065	17.75
213.283	148.82
213.502	-62.12
213.72	83.28
213.938	36.18
214.157	27.99
214.375	58.71
214.594	17.75
214.812	34.13
215.031	-4.78
215.249	38.23
215.467	46.42
215.686	9.56
215.904	62.8
216.122	-8.87
216.341	93.52
216.559	62.8
216.778	25.94
216.996	27.99
217.214	30.04
217.432	5.46
217.651	66.9
217.869	116.05
218.087	71
218.306	111.96
218.524	103.76
218.742	21.85
218.96	105.81
219.179	-37.55
219.397	124.24
219.615	30.04
219.833	42.32
220.051	77.14
220.27	93.52
220.488	66.9
220.706	87.38
220.924	5.46
221.142	-15.02
221.36	122.2
221.578	32.08
221.796	56.66
222.015	95.57
222.233	32.08
222.451	77.14
222.669	36.18
222.887	89.43
223.105	-10.92
223.323	62.8
223.541	64.85
223.759	17.75
223.977	44.37
224.195	44.37
224.413	132.44
224.631	111.96
224.849	89.43
225.067	62.8
225.285	-0.68
225.503	54.61
225.721	64.85
225.939	136.53
226.157	34.13
226.375	107.86
226.592	79.19
226.81	83.28
227.028	87.38
227.246	118.1
227.464	91.48
227.682	87.38
227.9	-21.16
228.117	93.52
228.335	89.43
228.553	89.43
228.771	83.28
228.989	60.76
229.206	87.38
229.424	5.46
229.642	32.08
229.86	54.61
230.077	114
230.295	77.14
230.513	150.87
230.731	116.05
230.948	44.37
231.166	44.37
231.384	38.23
231.601	23.89
231.819	48.47
232.037	27.99
232.254	66.9
232.472	124.24
232.689	30.04
232.907	66.9
233.125	73.04
233.342	52.56
233.56	15.7
233.777	169.3
233.995	77.14
234.213	73.04
234.43	36.18
234.648	48.47
234.865	38.23
235.083	109.91
235.3	111.96
235.518	48.47
235.735	140.63
235.953	71
236.17	89.43
236.388	11.61
236.605	54.61
236.822	93.52
237.04	-12.97
237.257	99.67
237.475	-12.97
237.692	40.28
237.909	9.56
238.127	71
238.344	91.48
238.562	23.89
238.779	38.23
238.996	75.09
239.214	111.96
239.431	89.43
239.648	87.38
239.865	13.65
240.083	71
240.3	23.89
240.517	60.76
240.735	68.95
240.952	81.24
241.169	81.24
241.386	52.56
241.603	46.42
241.821	62.8
242.038	36.18
242.255	21.85
242.472	3.41
242.689	15.7
242.907	25.94
243.124	89.43
243.341	101.72
243.558	15.7
243.775	50.52
243.992	46.42
244.209	60.76
244.426	73.04
244.643	40.28
244.86	32.08
245.078	93.52
245.295	83.28
245.512	81.24
245.729	46.42
245.946	148.82
246.163	62.8
246.38	54.61
246.597	122.2
246.814	52.56
247.031	13.65
247.248	95.57
247.464	73.04
247.681	36.18
247.898	13.65
248.115	52.56
248.332	40.28
248.549	95.57
248.766	58.71
248.983	89.43
249.2	46.42
249.417	52.56
249.633	124.24
249.85	105.81
250.067	7.51
250.284	54.61
250.501	15.7
250.717	130.39
250.934	73.04
251.151	-12.97
251.368	13.65
251.585	146.77
251.801	21.85
252.018	17.75
252.235	27.99
252.451	118.1
252.668	50.52
252.885	71
253.102	-0.68
253.318	44.37
253.535	77.14
253.752	-60.07
253.968	81.24
254.185	30.04
254.401	68.95
254.618	44.37
254.835	40.28
255.051	3.41
255.268	91.48
255.484	21.85
255.701	71
255.917	89.43
256.134	25.94
256.351	68.95
256.567	36.18
256.784	71
257	13.65
257.217	95.57
257.433	42.32
257.65	124.24
257.866	-60.07
258.082	48.47
258.299	23.89
258.515	87.38
258.732	73.04
258.948	32.08
259.165	97.62
259.381	52.56
259.597	62.8
259.814	62.8
260.03	21.85
260.246	81.24
260.463	54.61
260.679	73.04
260.895	58.71
261.112	54.61
261.328	36.18
261.544	71
261.761	111.96
261.977	27.99
262.193	25.94
262.409	56.66
262.626	62.8
262.842	56.66
263.058	140.63
263.274	107.86
263.49	32.08
263.707	30.04
263.923	64.85
264.139	44.37
264.355	116.05
264.571	111.96
264.787	114
265.004	68.95
265.22	40.28
265.436	85.33
265.652	27.99
265.868	44.37
266.084	25.94
266.3	38.23
266.516	-10.92
266.732	167.25
266.948	54.61
267.164	34.13
267.38	21.85
267.596	87.38
267.812	60.76
268.028	50.52
268.244	62.8
268.46	91.48
268.676	97.62
268.892	23.89
269.108	56.66
269.324	52.56
269.54	66.9
269.756	17.75
269.972	34.13
270.188	122.2
270.403	15.7
270.619	56.66
270.835	66.9
271.051	71
271.267	40.28
271.483	68.95
271.698	19.8
271.914	87.38
272.13	23.89
272.346	101.72
272.562	103.76
272.777	91.48
272.993	146.77
273.209	-2.73
273.425	7.51
273.64	97.62
273.856	103.76
274.072	101.72
274.287	97.62
274.503	52.56
274.719	54.61
274.934	19.8
275.15	56.66
275.366	42.32
275.581	71
275.797	32.08
276.012	11.61
276.228	68.95
276.444	-33.45
276.659	120.15
276.875	111.96
277.09	27.99
277.306	48.47
277.521	122.2
277.737	52.56
277.952	48.47
278.168	36.18
278.383	83.28
278.599	-0.68
278.814	118.1
279.03	23.89
279.245	138.58
279.461	83.28
279.676	48.47
279.892	-23.21
280.107	36.18
280.322	-8.87
280.538	54.61
280.753	11.61
280.969	109.91
281.184	111.96
281.399	48.47
281.615	122.2
281.83	13.65
282.045	56.66
282.26	1.37
282.476	36.18
282.691	-17.07
282.906	103.76
283.122	60.76
283.337	15.7
283.552	46.42
283.767	44.37
283.983	109.91
284.198	56.66
284.413	66.9
284.628	118.1
284.843	62.8
285.058	79.19
285.274	-23.21
285.489	62.8
285.704	71
285.919	9.56
286.134	48.47
286.349	93.52
286.564	48.47
286.779	138.58
286.995	107.86
287.21	93.52
287.425	38.23
287.64	23.89
287.855	32.08
288.07	68.95
288.285	81.24
288.5	58.71
288.715	89.43
288.93	62.8
289.145	77.14
289.36	87.38
289.575	64.85
289.79	46.42
290.004	9.56
290.219	120.15
290.434	-37.55
290.649	95.57
290.864	136.53
291.079	60.76
291.294	114
291.509	5.46
291.724	95.57
291.938	58.71
292.153	-21.16
292.368	89.43
292.583	83.28
292.798	81.24
293.012	87.38
293.227	77.14
293.442	75.09
293.657	101.72
293.871	83.28
294.086	-2.73
294.301	103.76
294.516	97.62
294.73	85.33
294.945	81.24
295.16	64.85
295.374	56.66
295.589	64.85
295.804	34.13
296.018	5.46
296.233	111.96
296.447	42.32
296.662	19.8
296.877	167.25
297.091	19.8
297.306	85.33
297.52	71
297.735	83.28
297.949	83.28
298.164	66.9
298.378	79.19
298.593	21.85
298.807	15.7
299.022	44.37
299.236	75.09
299.451	85.33
299.665	114
299.88	60.76
300.094	107.86
300.309	-0.68
300.523	120.15
300.737	48.47
300.952	97.62
301.166	79.19
301.381	91.48
301.595	66.9
301.809	60.76
302.024	159.06
302.238	48.47
302.452	66.9
302.667	64.85
302.881	9.56
303.095	83.28
303.309	79.19
303.524	19.8
303.738	50.52
303.952	99.67
304.166	66.9
304.381	81.24
304.595	83.28
304.809	68.95
305.023	105.81
305.237	105.81
305.452	44.37
305.666	73.04
305.88	103.76
306.094	97.62
306.308	44.37
306.522	73.04
306.736	87.38
306.95	91.48
307.164	62.8
307.379	99.67
307.593	36.18
307.807	40.28
308.021	9.56
308.235	15.7
308.449	1.37
308.663	21.85
308.877	79.19
309.091	95.57
309.305	48.47
309.519	-19.11
309.733	99.67
309.947	66.9
310.161	58.71
310.374	52.56
310.588	97.62
310.802	19.8
311.016	1.37
311.23	32.08
311.444	79.19
311.658	23.89
311.872	107.86
312.085	52.56
312.299	64.85
312.513	34.13
312.727	36.18
312.941	40.28
313.154	75.09
313.368	32.08
313.582	107.86
313.796	46.42
314.009	99.67
314.223	52.56
314.437	32.08
314.651	142.68
314.864	89.43
315.078	52.56
315.292	75.09
315.505	38.23
315.719	128.34
315.933	32.08
316.146	50.52
316.36	17.75
316.573	77.14
316.787	146.77
317.001	-2.73
317.214	-2.73
317.428	171.35
317.641	52.56
317.855	9.56
318.068	54.61
318.282	77.14
318.495	11.61
318.709	73.04
318.922	40.28
319.136	134.48
319.349	118.1
319.563	97.62
319.776	54.61
319.99	38.23
320.203	56.66
320.417	79.19
320.63	19.8
320.843	93.52
321.057	99.67
321.27	114
321.483	75.09
321.697	91.48
321.91	68.95
322.124	146.77
322.337	38.23
322.55	38.23
322.763	95.57
322.977	36.18
323.19	126.29
323.403	126.29
323.617	25.94
323.83	134.48
324.043	91.48
324.256	130.39
324.469	15.7
324.683	38.23
324.896	150.87
325.109	50.52
325.322	42.32
325.535	30.04
325.748	40.28
325.962	81.24
326.175	79.19
326.388	27.99
326.601	157.01
326.814	46.42
327.027	25.94
327.24	95.57
327.453	89.43
327.666	71
327.879	19.8
328.092	101.72
328.305	81.24
328.518	75.09
328.731	107.86
328.944	56.66
329.157	21.85
329.37	73.04
329.583	73.04
329.796	126.29
330.009	58.71
330.222	150.87
330.435	142.68
330.648	60.76
330.861	79.19
331.073	52.56
331.286	73.04
331.499	105.81
331.712	79.19
331.925	19.8
332.138	48.47
332.35	54.61
332.563	36.18
332.776	93.52
332.989	68.95
333.202	71
333.414	118.1
333.627	42.32
333.84	-6.83
334.053	77.14
334.265	32.08
334.478	23.89
334.691	54.61
334.903	99.67
335.116	81.24
335.329	81.24
335.541	-27.31
335.754	77.14
335.966	109.91
336.179	52.56
336.392	56.66
336.604	138.58
336.817	140.63
337.029	89.43
337.242	7.51
337.454	159.06
337.667	50.52
337.88	89.43
338.092	93.52
338.305	105.81
338.517	38.23
338.729	66.9
338.942	89.43
339.154	42.32
339.367	171.35
339.579	58.71
339.792	73.04
340.004	101.72
340.217	152.92
340.429	52.56
340.641	81.24
340.854	44.37
341.066	68.95
341.278	66.9
341.491	93.52
341.703	81.24
341.915	54.61
342.128	46.42
342.34	66.9
342.552	44.37
342.764	23.89
342.977	50.52
343.189	77.14
343.401	124.24
343.613	23.89
343.826	148.82
344.038	-12.97
344.25	128.34
344.462	48.47
344.674	95.57
344.886	136.53
345.099	130.39
345.311	210.26
345.523	21.85
345.735	50.52
345.947	107.86
346.159	60.76
346.371	56.66
346.583	116.05
346.795	130.39
347.007	75.09
347.219	64.85
347.431	79.19
347.643	118.1
347.855	103.76
348.067	95.57
348.279	132.44
348.491	109.91
348.703	140.63
348.915	79.19
349.127	-10.92
349.339	60.76
349.551	116.05
349.763	77.14
349.975	40.28
350.187	60.76
350.399	109.91
350.61	126.29
350.822	34.13
351.034	114
351.246	77.14
351.458	21.85
351.669	71
351.881	124.24
352.093	32.08
352.305	66.9
352.517	68.95
352.728	134.48
352.94	54.61
353.152	64.85
353.363	126.29
353.575	52.56
353.787	46.42
353.999	97.62
354.21	154.96
354.422	187.73
354.633	101.72
354.845	132.44
355.057	150.87
355.268	103.76
355.48	91.48
355.692	116.05
355.903	48.47
356.115	75.09
356.326	-2.73
356.538	71
356.749	3.41
356.961	120.15
357.172	77.14
357.384	128.34
357.595	167.25
357.807	30.04
358.018	87.38
358.23	71
358.441	159.06
358.653	136.53
358.864	140.63
359.075	66.9
359.287	38.23
359.498	87.38
359.709	52.56
359.921	83.28
360.132	38.23
360.344	154.96
360.555	25.94
360.766	103.76
360.977	56.66
361.189	87.38
361.4	68.95
361.611	114
361.823	109.91
362.034	87.38
362.245	85.33
362.456	44.37
362.667	132.44
362.879	71
363.09	-2.73
363.301	71
363.512	50.52
363.723	87.38
363.935	91.48
364.146	138.58
364.357	52.56
364.568	81.24
364.779	81.24
364.99	154.96
365.201	48.47
365.412	25.94
365.623	114
365.834	118.1
366.045	118.1
366.256	118.1
366.467	150.87
366.678	54.61
366.889	75.09
367.1	38.23
367.311	32.08
367.522	17.75
367.733	107.86
367.944	62.8
368.155	99.67
368.366	64.85
368.577	101.72
368.788	95.57
368.999	27.99
369.209	97.62
369.42	89.43
369.631	114
369.842	38.23
370.053	101.72
370.264	152.92
370.474	118.1
370.685	116.05
370.896	150.87
371.107	134.48
371.317	81.24
371.528	64.85
371.739	185.68
371.95	58.71
372.16	118.1
372.371	79.19
372.582	64.85
372.792	54.61
373.003	120.15
373.214	60.76
373.424	111.96
373.635	73.04
373.846	73.04
374.056	93.52
374.267	97.62
374.477	87.38
374.688	23.89
374.898	38.23
375.109	105.81
375.319	120.15
375.53	64.85
375.74	120.15
375.951	40.28
376.161	62.8
376.372	120.15
376.582	83.28
376.793	116.05
377.003	27.99
377.214	97.62
377.424	54.61
377.635	50.52
377.845	48.47
378.055	154.96
378.266	42.32
378.476	97.62
378.686	97.62
378.897	120.15
379.107	103.76
379.317	25.94
379.528	105.81
379.738	48.47
379.948	38.23
380.158	85.33
380.369	62.8
380.579	109.91
380.789	68.95
380.999	116.05
381.21	101.72
381.42	128.34
381.63	163.15
381.84	107.86
382.05	103.76
382.261	44.37
382.471	124.24
382.681	71
382.891	103.76
383.101	161.11
383.311	89.43
383.521	130.39
383.731	85.33
383.941	97.62
384.151	134.48
384.361	89.43
384.571	77.14
384.781	36.18
384.991	144.72
385.201	81.24
385.411	79.19
385.621	95.57
385.831	93.52
386.041	150.87
386.251	48.47
386.461	48.47
386.671	126.29
386.881	118.1
387.091	103.76
387.301	159.06
387.511	148.82
387.72	105.81
387.93	66.9
388.14	91.48
388.35	109.91
388.56	208.21
388.769	68.95
388.979	93.52
389.189	95.57
389.399	91.48
389.609	140.63
389.818	148.82
390.028	81.24
390.238	132.44
390.447	128.34
390.657	91.48
390.867	58.71
391.076	167.25
391.286	105.81
391.496	75.09
391.705	124.24
391.915	46.42
392.125	165.2
392.334	118.1
392.544	140.63
392.753	148.82
392.963	114
393.172	169.3
393.382	68.95
393.591	144.72
393.801	152.92
394.01	126.29
394.22	175.44
394.429	79.19
394.639	181.59
394.848	97.62
395.058	163.15
395.267	97.62
395.477	159.06
395.686	247.12
395.895	136.53
396.105	150.87
396.314	161.11
396.524	124.24
396.733	181.59
396.942	152.92
397.152	247.12
397.361	185.68
397.57	142.68
397.78	175.44
397.989	103.76
398.198	212.31
398.407	105.81
398.617	177.49
398.826	130.39
399.035	187.73
399.244	224.59
399.453	249.17
399.663	111.96
399.872	144.72
400.081	150.87
400.29	163.15
400.499	191.83
400.708	265.55
400.917	132.44
401.127	187.73
401.336	152.92
401.545	171.35
401.754	134.48
401.963	234.83
402.172	206.16
402.381	173.39
402.59	197.97
402.799	204.11
403.008	204.11
403.217	173.39
403.426	283.99
403.635	128.34
403.844	122.2
404.053	150.87
404.262	179.54
404.471	265.55
404.68	208.21
404.888	208.21
405.097	308.56
405.306	261.46
405.515	324.94
405.724	238.93
405.933	257.36
406.142	243.03
406.35	253.27
406.559	202.07
406.768	331.09
406.977	370
407.185	273.75
407.394	300.37
407.603	326.99
407.812	312.66
408.02	335.18
408.229	398.67
408.438	382.29
408.646	306.51
408.855	394.58
409.064	382.29
409.272	378.19
409.481	427.34
409.69	484.69
409.898	447.82
410.107	447.82
410.315	456.01
410.524	533.84
410.733	464.21
410.941	449.87
411.15	505.17
411.358	474.45
411.567	671.05
411.775	646.48
411.984	580.94
412.192	646.48
412.401	638.28
412.609	703.82
412.818	828.74
413.026	648.52
413.234	742.73
413.443	767.31
413.651	808.27
413.86	826.7
414.068	841.03
414.276	933.19
414.485	890.18
414.693	906.57
414.901	941.38
415.11	1004.87
415.318	1121.6
415.526	1101.12
415.734	1144.13
415.943	1148.23
416.151	1189.19
416.359	1232.19
416.567	1228.1
416.776	1344.83
416.984	1357.12
417.192	1498.43
417.4	1422.66
417.608	1436.99
417.817	1531.2
418.025	1537.34
418.233	1645.88
418.441	1731.9
418.649	1744.19
418.857	1809.72
419.065	1953.08
419.273	1957.18
419.481	1977.66
419.689	2053.43
419.897	2166.07
420.105	2153.78
420.313	2260.27
420.521	2383.15
420.729	2440.5
420.937	2499.89
421.145	2544.94
421.353	2676.01
421.561	2686.25
421.769	2794.79
421.977	2993.45
422.185	2860.33
422.393	3067.17
422.601	3310.88
422.809	3392.8
423.017	3450.14
423.224	3372.32
423.432	3671.33
423.64	3663.13
423.848	4019.48
424.056	3687.71
424.263	4236.56
424.471	4148.5
424.679	4132.12
424.887	4517.14
425.094	4738.32
425.302	4697.36
425.51	5031.18
425.718	4906.25
425.925	4889.87
426.133	5215.49
426.341	5338.37
426.548	5717.25
426.756	5815.55
426.964	5866.75
427.171	5999.87
427.379	6427.89
427.586	6431.99
427.794	6444.27
428.001	6843.63
428.209	7099.62
428.417	7005.42
428.624	7597.28
428.832	7736.54
429.039	7558.37
429.247	7486.69
429.454	8135.9
429.662	8910.03
429.869	8199.38
430.076	8828.11
430.284	8522.96
430.491	8875.21
430.699	9491.65
430.906	9280.71
431.114	9508.04
431.321	9860.29
431.528	10228.92
431.736	10677.43
431.943	11144.36
432.15	10878.13
432.358	10898.61
432.565	11644.07
432.772	11562.15
432.979	11998.37
433.187	12432.54
433.394	12465.3
433.601	13180.04
433.808	13239.44
434.016	13294.73
434.223	13966.46
434.43	14457.98
434.637	14124.16
434.844	15178.86
435.052	15363.18
435.259	15522.92
435.466	15649.89
435.673	15529.06
435.88	16677.97
436.087	17294.41
436.294	17175.63
436.501	16786.52
436.708	17157.2
436.915	17910.85
437.122	18601.02
437.329	18603.07
437.537	19221.55
437.743	19323.95
437.95	19352.62
438.157	20294.69
438.364	20761.62
438.571	21431.31
438.778	21296.14
438.985	23266.29
439.192	22412.29
439.399	22758.39
439.606	22473.73
439.813	23700.46
440.02	24857.56
440.227	24767.45
440.433	24097.77
440.64	25160.66
440.847	25091.03
441.054	25387.99
441.261	27259.83
441.467	26803.13
441.674	27536.31
441.881	28537.76
442.088	28748.7
442.294	28384.16
442.501	28699.55
442.708	29877.13
442.914	30538.63
443.121	31882.09
443.328	31179.64
443.534	32961.37
443.741	32377.7
443.948	31890.29
444.154	34274.12
444.361	34106.19
444.568	34169.68
444.774	33962.83
444.981	34493.25
445.187	35701.56
445.394	37061.41
445.6	36764.45
445.807	39723.77
446.013	38738.69
446.22	39039.75
446.426	40432.36
446.633	40917.73
446.839	42162.9
447.046	40782.57
447.252	43102.92
447.459	42715.85
447.665	42552.01
447.871	44425.9
448.078	46244.5
448.284	44419.76
448.491	45722.27
448.697	47135.37
448.903	47932.03
449.11	48249.46
449.316	47602.3
449.522	48013.94
449.728	49508.96
449.935	49711.71
450.141	49916.51
450.347	50950.73
450.553	49261.16
450.76	49670.75
450.966	51454.53
451.172	50842.19
451.378	52240.95
451.584	51462.72
451.791	52214.33
451.997	52216.38
452.203	52746.8
452.409	53037.61
452.615	52611.63
452.821	50829.9
453.027	50274.9
453.233	52816.43
453.44	51071.56
453.646	51616.32
453.852	51550.79
454.058	52587.06
454.264	50643.54
454.47	52171.32
454.676	50575.95
454.882	52460.08
455.088	47852.16
455.294	48618.1
455.5	49566.3
455.705	49916.51
455.911	48386.67
456.117	47227.52
456.323	46574.22
456.529	44004.02
456.735	45873.82
456.941	45054.63
457.147	43893.43
457.352	42734.28
457.558	42226.38
457.764	42328.78
457.97	41611.99
458.176	40938.21
458.381	40561.39
458.587	38642.44
458.793	38898.44
458.999	36852.51
459.204	39578.36
459.41	38542.09
459.616	35719.99
459.821	35535.67
460.027	35558.2
460.233	34831.17
460.438	33454.93
460.644	33848.14
460.85	32226.15
461.055	31474.55
461.261	31361.91
461.466	29346.71
461.672	28504.99
461.878	30583.68
462.083	28351.4
462.289	27665.33
462.494	27155.38
462.7	26332.1
462.905	25766.86
463.111	26624.96
463.316	26524.61
463.522	25953.23
463.727	26119.11
463.932	25947.08
464.138	25750.48
464.343	25455.57
464.549	25011.16
464.754	25748.43
464.959	25527.25
465.165	25504.72
465.37	24110.05
465.575	23985.13
465.781	24519.65
465.986	24847.32
466.191	23931.88
466.397	23415.79
466.602	22199.3
466.807	23139.32
467.012	23170.04
467.218	23172.08
467.423	22428.67
467.628	22862.84
467.833	23540.72
468.038	22840.31
468.244	22400
468.449	23167.99
468.654	22459.39
468.859	22268.93
469.064	22148.1
469.269	21304.34
469.474	21609.48
469.679	21681.16
469.885	21363.73
470.09	21261.33
470.295	21261.33
470.5	20888.6
470.705	21091.35
470.91	20612.12
471.115	20327.46
471.32	20569.12
471.525	20407.33
471.73	19991.59
471.935	19930.15
472.139	19303.47
472.344	19332.14
472.549	19239.98
472.754	19035.19
472.959	18697.27
473.164	18259.01
473.369	18027.59
473.574	18730.04
473.778	18662.46
473.983	18031.68
474.188	18271.29
474.393	17601.61
474.598	17558.6
474.802	17347.66
475.007	17202.25
475.212	17327.18
475.417	16577.62
475.621	16413.79
475.826	16647.26
476.031	16338.01
476.235	15928.42
476.44	16454.75
476.645	15924.32
476.849	15707.24
477.054	15762.53
477.259	15682.66
477.463	15479.91
477.668	15062.13
477.872	15404.14
478.077	15230.06
478.282	14781.56
478.486	14754.93
478.691	14343.29
478.895	14683.25
479.1	14376.06
479.304	14310.52
479.509	13806.72
479.713	14380.15
479.918	13896.83
480.122	13651.08
480.326	13747.33
480.531	14054.53
480.735	13816.96
480.94	13640.84
481.144	13886.59
481.348	13532.29
481.553	13577.35
481.757	13229.2
481.961	13401.22
482.166	13667.46
482.37	13296.78
482.574	13216.91
482.778	13386.89
482.983	13388.94
483.187	13573.25
483.391	13495.43
483.595	13223.05
483.8	13012.11
484.004	13372.55
484.208	13321.35
484.412	13311.11
484.616	13442.18
484.821	13284.49
485.025	13028.49
485.229	13245.58
485.433	12973.2
485.637	13360.27
485.841	13122.7
486.045	13214.86
486.249	13255.82
486.453	12983.44
486.657	13352.07
486.861	13315.21
487.065	12973.2
487.269	13155.47
487.473	13057.17
487.677	13409.42
487.881	13251.72
488.085	13094.03
488.289	13491.34
488.493	13442.18
488.697	13329.55
488.901	13409.42
489.105	13374.6
489.309	13517.96
489.512	13464.71
489.716	13436.04
489.92	13313.16
490.124	13419.66
490.328	13759.62
490.531	13536.39
490.735	13761.67
490.939	13814.91
491.143	13370.51
491.346	13657.22
491.55	13845.63
491.754	13677.7
491.958	13905.03
492.161	14103.68
492.365	14091.39
492.569	14001.28
492.772	13888.64
492.976	14005.38
493.18	14214.27
493.383	14400.63
493.587	14240.89
493.79	14429.31
493.994	14548.09
494.197	14480.5
494.401	14926.96
494.605	14695.54
494.808	14830.71
495.012	15070.32
495.215	15084.66
495.419	14937.2
495.622	15121.52
495.825	15490.15
496.029	15506.54
496.232	15576.17
496.436	15627.37
496.639	16153.69
496.843	15883.36
497.046	16200.8
497.249	16440.41
497.453	16753.75
497.656	16430.17
497.859	16753.75
498.063	16802.9
498.266	17181.78
498.469	17140.82
498.673	17413.2
498.876	17464.39
499.079	17904.71
499.282	17906.76
499.485	18170.94
499.689	18256.96
499.892	18598.97
500.095	18508.86
500.298	19143.73
500.501	18879.54
500.705	19026.99
500.908	19694.63
501.111	19678.25
501.314	20050.98
501.517	19964.96
501.72	20581.4
501.923	20528.16
502.126	20741.14
502.329	21117.97
502.532	21206.03
502.735	21222.42
502.938	21765.13
503.141	21793.8
503.344	22432.77
503.547	22281.22
503.75	22629.37
503.953	22957.05
504.156	23047.16
504.359	23409.65
504.562	23444.46
504.765	23892.97
504.968	24099.81
505.17	24314.85
505.373	24300.51
505.576	25099.22
505.779	25183.19
505.982	25224.15
506.185	26147.78
506.387	25621.45
506.59	26205.13
506.793	27005.88
506.996	26540.99
507.198	27417.52
507.401	26780.6
507.604	27685.81
507.807	27997.1
508.009	28150.7
508.212	28244.9
508.415	28478.37
508.617	29217.69
508.82	29195.16
509.022	29227.93
509.225	29776.78
509.428	29924.24
509.63	30157.71
509.833	30356.36
510.035	31333.24
510.238	30917.5
510.44	31574.9
510.643	32185.19
510.845	32187.24
511.048	32015.21
511.25	32858.98
511.453	32867.17
511.655	34388.81
511.858	33508.18
512.06	33809.23
512.262	34460.49
512.465	34208.59
512.667	35232.57
512.87	35265.34
513.072	35277.63
513.274	36031.28
513.477	36279.08
513.679	36621.09
513.881	37319.45
514.084	36936.48
514.286	37581.59
514.488	37741.33
514.69	38570.76
514.893	38662.92
515.095	38763.27
515.297	39269.12
515.499	39342.84
515.701	40119.03
515.904	40104.69
516.106	40420.08
516.308	40917.73
516.51	41388.77
516.712	41710.3
516.914	41929.43
517.116	42427.09
517.318	42887.88
517.52	42871.5
517.722	43010.76
517.925	43829.94
518.127	44341.94
518.329	44370.61
518.531	44061.36
518.733	44964.52
518.935	45490.85
519.136	45263.52
519.338	46350.99
519.54	46250.64
519.742	46887.56
519.944	46860.94
520.146	47549.06
520.348	47772.28
520.55	48249.46
520.752	48145.01
520.954	49072.74
521.155	48749.17
521.357	49441.38
521.559	49771.1
521.761	50307.67
521.963	50342.49
522.164	50381.4
522.366	50764.37
522.568	51231.3
522.77	51606.08
522.971	52648.5
523.173	51546.69
523.375	52269.62
523.576	52441.65
523.778	52693.55
523.98	53414.44
524.181	53137.96
524.383	53520.93
524.584	54237.72
524.786	53670.43
524.988	54135.32
525.189	54882.83
525.391	54602.26
525.592	55226.89
525.794	55181.84
525.995	55302.67
526.197	55282.19
526.398	56052.22
526.6	56101.37
526.801	56099.33
527.003	56345.08
527.204	56418.81
527.406	56734.2
527.607	56543.73
527.808	57063.92
528.01	56386.04
528.211	56809.97
528.412	58044.9
528.614	57696.74
528.815	57188.84
529.016	57995.74
529.218	57461.22
529.419	57946.59
529.62	58186.21
529.822	58233.31
530.023	58165.73
530.224	57872.87
530.425	57901.54
530.626	57760.23
530.828	57993.7
531.029	59107.79
531.23	58239.45
531.431	58075.62
531.632	58722.77
531.833	58964.43
532.035	58796.5
532.236	58683.86
532.437	59095.5
532.638	58556.89
532.839	58685.91
533.04	59070.93
533.241	58321.37
533.442	59431.37
533.643	59288.01
533.844	58800.6
534.045	58960.34
534.246	58698.2
534.447	58952.15
534.648	58655.19
534.849	59400.65
535.05	58595.8
535.251	59038.16
535.451	58690.01
535.652	59369.93
535.853	59128.27
536.054	58669.53
536.255	59345.36
536.456	58251.74
536.657	59281.87
536.857	58964.43
537.058	58458.59
537.259	59054.54
537.46	58868.18
537.66	59066.83
537.861	58665.43
538.062	59005.39
538.263	58902.99
538.463	58513.88
538.664	58984.91
538.865	59095.5
539.065	58974.67
539.266	58497.5
539.466	59414.99
539.667	57975.26
539.868	59328.97
540.068	58681.81
540.269	58405.34
540.469	58839.51
540.67	58388.95
540.87	58608.09
541.071	58614.23
541.271	58610.13
541.472	58577.37
541.672	58212.83
541.873	58126.81
542.073	57682.41
542.274	58651.09
542.474	58321.37
542.675	58083.81
542.875	58452.44
543.075	58272.22
543.276	57526.76
543.476	58966.48
543.676	58024.42
543.877	58722.77
544.077	58100.19
544.277	58405.34
544.478	58042.85
544.678	58663.38
544.878	57954.78
545.078	58546.65
545.279	58044.9
545.479	57903.59
545.679	58513.88
545.879	57700.84
546.079	58042.85
546.28	57917.92
546.48	57532.9
546.68	57649.64
546.88	57625.06
547.08	58104.29
547.28	57780.71
547.48	57407.98
547.68	57958.88
547.88	57487.85
548.081	57504.23
548.281	57809.38
548.481	57764.32
548.681	57827.81
548.881	57580.01
549.081	57545.19
549.28	57465.32
549.48	57881.06
549.68	57309.67
549.88	58005.98
550.08	57731.56
550.28	57682.41
550.48	57297.39
550.68	57743.84
550.88	57700.84
551.08	57379.31
551.279	57287.15
551.479	56699.38
551.679	57786.85
551.879	57049.58
552.079	57631.21
552.278	56838.64
552.478	57348.59
552.678	57518.57
552.878	57326.06
553.077	57248.24
553.277	56648.18
553.477	57602.53
553.676	56922.61
553.876	57141.74
554.076	56551.93
554.275	56773.11
554.475	56666.61
554.674	56824.31
554.874	57039.34
555.074	56173.05
555.273	57033.2
555.473	56877.55
555.672	56439.29
555.872	57084.4
556.071	56646.13
556.271	56986.1
556.47	56371.71
556.67	55958.02
556.869	56371.71
557.068	56646.13
557.268	55671.3
557.467	56046.08
557.667	56271.35
557.866	56199.68
558.065	56171
558.265	55800.32
558.464	55814.66
558.663	56080.89
558.863	55517.7
559.062	56291.83
559.261	55333.38
559.461	55935.49
559.66	55054.86
559.859	55697.92
560.058	55228.94
560.258	55581.19
560.457	55220.75
560.656	55607.81
560.855	54845.97
561.054	55339.53
561.253	54776.34
561.453	55202.31
561.652	55171.6
561.851	55036.43
562.05	54663.7
562.249	54624.79
562.448	55054.86
562.647	54463
562.846	54315.54
563.045	54811.15
563.244	53840.42
563.443	54723.09
563.642	53774.88
563.841	54178.33
564.04	53996.06
564.239	54297.11
564.438	53512.74
564.637	54051.36
564.836	54147.61
565.035	53455.4
565.234	53850.66
565.432	53656.1
565.631	53400.1
565.83	53353
566.029	53314.09
566.228	53193.26
566.427	53107.24
566.625	52679.22
566.824	52361.78
567.023	53381.67
567.222	51970.62
567.42	53008.94
567.619	52441.65
567.818	51968.57
568.016	51829.31
568.215	52525.62
568.414	52120.12
568.612	52331.06
568.811	51731.01
569.01	51931.71
569.208	51419.72
569.407	51446.34
569.605	50979.4
569.804	51595.84
570.002	51298.89
570.201	51352.13
570.4	50747.98
570.598	50788.94
570.797	50541.14
570.995	50594.39
571.193	49846.88
571.392	50518.61
571.59	49803.87
571.789	50039.39
571.987	50344.53
572.186	49812.06
572.384	49379.94
572.582	50178.65
572.781	50129.5
572.979	49433.19
573.177	49508.96
573.376	49494.63
573.574	48411.25
573.772	49183.33
573.971	48755.31
574.169	48831.08
574.367	48401.01
574.565	48614
574.763	48851.56
574.962	48364.15
575.16	47559.3
575.358	48523.89
575.556	47362.69
575.754	48661.1
575.952	47649.41
576.151	47741.56
576.349	47350.4
576.547	47463.04
576.745	47397.51
576.943	46969.48
577.141	47434.37
577.339	47012.49
577.537	47041.16
577.735	46885.51
577.933	46529.17
578.131	46856.84
578.329	46443.15
578.527	46236.31
578.725	46197.4
578.923	46377.62
579.121	45935.26
579.319	45869.72
579.516	46031.51
579.714	45664.92
579.912	45709.98
580.11	45097.64
580.308	45327.01
580.506	45150.88
580.704	44980.9
580.901	45374.11
581.099	45017.77
581.297	44810.92
581.495	44722.86
581.692	44833.45
581.89	44006.07
582.088	44849.83
582.285	44106.42
582.483	44217.01
582.681	44305.07
582.878	43934.39
583.076	43643.58
583.274	44294.83
583.471	43739.83
583.669	43528.89
583.866	43092.68
584.064	43498.17
584.262	43211.46
584.459	43604.67
584.657	42846.92
584.854	43778.75
585.052	42195.67
585.249	42834.63
585.447	42437.33
585.644	42218.19
585.841	42214.1
586.039	42310.35
586.236	41732.82
586.434	42101.46
586.631	42042.07
586.828	41822.94
587.026	41999.06
587.223	41781.98
587.42	41042.66
587.618	41292.51
587.815	41183.97
588.012	40991.46
588.21	41061.09
588.407	40968.93
588.604	40823.53
588.801	40696.55
588.999	40692.46
589.196	40340.21
589.393	40502
589.59	39854.84
589.787	39787.25
589.984	39990
590.182	39494.39
590.379	39828.21
590.576	39469.82
590.773	39647.99
590.97	39529.21
591.167	39279.36
591.364	38865.67
591.561	39244.54
591.758	38931.2
591.955	38906.63
592.152	39101.18
592.349	38703.88
592.546	38576.9
592.743	38798.09
592.94	38083.34
593.137	38578.95
593.334	38206.22
593.531	37686.04
593.727	38308.62
593.924	38122.26
594.121	37397.27
594.318	37704.47
594.515	37159.71
594.712	37559.06
594.908	37061.41
595.105	37303.07
595.302	37034.78
595.499	37178.14
595.696	36678.44
595.892	36565.8
596.089	37016.35
596.286	36860.71
596.482	36234.03
596.679	36252.46
596.876	36354.86
597.072	36100.91
597.269	35951.41
597.466	35730.23
597.662	35279.67
597.859	35732.28
598.055	36008.75
598.252	35314.49
598.448	35525.43
598.645	35261.24
598.841	35126.08
599.038	35181.37
599.234	35289.91
599.431	34706.24
599.627	34814.79
599.824	35316.54
600.02	34261.83
600.217	34689.86
600.413	34587.46
600.609	34194.25
600.806	34030.41
601.002	34409.29
601.198	34081.61
601.395	33827.67
601.591	33723.22
601.787	33653.59
601.984	33565.53
602.18	33663.83
602.376	33188.7
602.572	33219.42
602.769	33295.19
602.965	32850.78
603.161	33233.75
603.357	32785.25
603.553	32633.7
603.75	32994.14
603.946	32537.44
604.142	33090.4
604.338	31886.19
604.534	32629.6
604.73	31939.44
604.926	32183.15
605.122	32607.08
605.318	31804.27
605.514	31396.73
605.71	31961.97
605.906	31751.02
606.102	31800.18
606.298	31714.16
606.494	31316.86
606.69	31413.11
606.886	31384.44
607.082	30450.56
607.278	31275.9
607.474	30837.63
607.67	31286.14
607.866	30600.07
608.062	31179.64
608.257	30692.22
608.453	31064.96
608.649	30548.87
608.845	30602.11
609.041	30659.46
609.236	30675.84
609.432	30358.41
609.628	30372.74
609.824	30198.66
610.019	30075.79
610.215	30071.69
610.411	30391.17
610.606	29887.37
610.802	29995.92
610.998	30061.45
611.193	30063.5
611.389	29703.06
611.584	29354.9
611.78	29414.29
611.976	29469.59
612.171	29528.98
612.367	29436.82
612.562	29105.05
612.758	29025.18
612.953	28885.92
613.149	29164.44
613.344	29033.37
613.539	29361.05
613.735	28922.78
613.93	28982.17
614.126	28713.89
614.321	29109.15
614.517	28789.66
614.712	28791.71
614.907	28226.47
615.103	28916.64
615.298	28502.95
615.493	28607.39
615.688	28244.9
615.884	28402.6
616.079	28359.59
616.274	28400.55
616.47	28185.51
616.665	28105.64
616.86	27648.94
617.055	27919.28
617.25	27665.33
617.445	27814.83
617.641	27468.72
617.836	27798.45
618.031	27354.04
618.226	27683.76
618.421	27491.25
618.616	27327.41
618.811	27184.05
619.006	27294.64
619.201	26405.83
619.396	27208.63
619.591	26530.75
619.786	26530.75
619.981	26119.11
620.176	26299.33
620.371	26147.78
620.566	26379.2
620.761	26110.92
620.956	26299.33
621.151	25756.62
621.346	25949.13
621.541	25336.79
621.735	26026.95
621.93	25377.75
622.125	25461.71
622.32	25238.48
622.515	25220.05
622.709	24865.75
622.904	24857.56
623.099	24781.79
623.294	24611.81
623.488	24310.75
623.683	24486.88
623.878	23843.82
624.072	23722.99
624.267	23944.17
624.462	23821.29
624.656	23442.42
624.851	23604.21
625.046	23329.78
625.24	23407.6
625.435	23077.88
625.629	23194.61
625.824	22768.63
626.018	22787.07
626.213	22385.66
626.407	22545.41
626.602	22146.05
626.796	22580.22
626.991	22209.54
627.185	21871.62
627.38	21924.87
627.574	21558.28
627.768	21623.82
627.963	21615.63
628.157	21234.71
628.352	21431.31
628.546	21208.08
628.74	21306.38
628.935	20788.25
629.129	21201.94
629.323	20653.08
629.517	20534.3
629.712	20685.85
629.906	20429.85
630.1	20128.8
630.294	20048.93
630.489	20134.95
630.683	20345.89
630.877	19768.36
631.071	19612.71
631.265	19645.48
631.459	19463.21
631.653	19356.72
631.848	19602.47
632.042	19250.22
632.236	19186.74
632.43	18975.8
632.624	19469.36
632.818	18947.12
633.012	18951.22
633.206	18664.5
633.4	18940.98
633.594	18523.19
633.788	18361.41
633.982	18345.02
634.176	18498.62
634.369	18007.11
634.563	18211.9
634.757	17611.85
634.951	17695.82
635.145	17966.15
635.339	17824.84
635.533	17632.33
635.726	17497.16
635.92	17335.37
636.114	17245.26
636.308	17380.43
636.501	16999.51
636.695	17169.49
636.889	16581.72
637.083	16899.16
637.276	16749.65
637.47	16847.96
637.664	16530.52
637.857	16677.97
638.051	16479.32
638.244	16186.46
638.438	16260.19
638.632	16110.69
638.825	16063.58
639.019	15885.41
639.212	15805.54
639.406	15799.4
639.599	15531.11
639.793	15506.54
639.986	15506.54
640.18	15283.31
640.373	15373.42
640.567	15166.57
640.76	15236.2
640.954	15080.56
641.147	15051.89
641.34	14830.71
641.534	14894.19
641.727	14599.29
641.92	14752.88
642.114	14535.8
642.307	14531.7
642.5	14478.46
642.694	14173.31
642.887	13972.61
643.08	14161.02
643.273	14138.49
643.467	13937.79
643.66	13773.96
643.853	13520.01
644.046	13534.34
644.239	13448.33
644.432	13405.32
644.626	13415.56
644.819	13405.32
645.012	13464.71
645.205	13315.21
645.398	13118.61
645.591	13098.13
645.784	12977.3
645.977	12774.55
646.17	12782.74
646.363	12741.78
646.556	12391.58
646.749	12743.83
646.942	12721.3
647.135	12493.97
647.328	12610.71
647.521	12369.05
647.714	12133.53
647.907	12270.75
648.099	12252.31
648.292	12184.73
648.485	11732.13
648.678	11973.79
648.871	11721.89
649.064	11623.59
649.256	12047.52
649.449	11570.34
649.642	11789.47
649.835	11474.09
650.027	11449.51
650.22	11482.28
650.413	11383.98
650.605	11156.65
650.798	11177.13
650.991	11359.4
651.183	11224.23
651.376	10904.75
651.568	11080.88
651.761	10693.81
651.954	10943.66
652.146	10745.01
652.339	10566.84
652.531	10804.4
652.724	10771.63
652.916	10564.79
653.109	10595.51
653.301	10359.99
653.494	10669.23
653.686	10124.47
653.879	10226.87
654.071	10099.9
654.263	10108.09
654.456	10130.62
654.648	10032.32
654.84	9903.29
655.033	10046.65
655.225	9837.76
655.417	9817.28
655.61	9725.12
655.802	9952.45
655.994	9594.05
656.186	9702.59
656.379	9686.21
656.571	9553.09
656.763	9424.07
656.955	9350.34
657.148	9358.53
657.34	9379.01
657.532	9188.55
657.724	9100.49
657.916	9127.11
658.108	9106.63
658.3	9000.14
658.492	9008.33
658.684	8660.18
658.876	9051.34
659.068	8805.58
659.26	8838.35
659.452	8684.75
659.644	8860.88
659.836	8670.42
660.028	8887.5
660.22	8471.76
660.412	8623.31
660.604	8301.78
660.796	8426.71
660.988	8408.28
661.18	8420.56
661.372	8297.69
661.563	8326.36
661.755	8131.8
661.947	8350.93
662.139	8017.11
662.331	8045.79
662.522	8248.54
662.714	7978.2
662.906	8025.31
663.097	7871.71
663.289	7806.17
663.481	7699.68
663.673	7888.09
663.864	7584.99
664.056	7722.21
664.247	7648.48
664.439	7601.38
664.631	7630.05
664.822	7566.56
665.014	7611.62
665.205	7347.43
665.397	7439.59
665.588	7296.23
665.78	7331.05
665.971	7230.69
666.163	7281.89
666.354	7345.38
666.546	7318.76
666.737	7148.78
666.929	7193.83
667.12	7103.72
667.311	7046.38
667.503	7007.47
667.694	7156.97
667.885	6749.42
668.077	6954.22
668.268	6833.39
668.459	6743.28
668.651	6800.62
668.842	6925.55
669.033	6757.61
669.224	6915.31
669.416	6622.45
669.607	6542.58
669.798	6618.35
669.989	6778.09
670.18	6612.21
670.371	6483.19
670.563	6577.39
670.754	6565.11
670.945	6511.86
671.136	6423.8
671.327	6472.95
671.518	6522.1
671.709	6515.95
671.9	6485.23
672.091	6472.95
672.282	6378.74
672.473	6294.77
672.664	6315.25
672.855	6139.13
673.046	6249.72
673.237	6241.53
673.428	6206.71
673.619	5979.39
673.809	6030.59
674	6032.63
674.191	5993.72
674.382	5909.76
674.573	6022.39
674.764	5874.94
674.954	5973.24
675.145	5899.52
675.336	6034.68
675.527	5887.23
675.717	6036.73
675.908	5795.07
676.099	5881.08
676.289	5747.97
676.48	5948.67
676.671	5772.54
676.861	5844.22
677.052	5817.6
677.243	5707.01
677.433	5686.53
677.624	5754.11
677.814	5627.14
678.005	5784.83
678.195	5717.25
678.386	5686.53
678.576	5754.11
678.767	5637.38
678.957	5688.57
679.148	5733.63
679.338	5666.05
679.529	5594.37
679.719	5453.06
679.909	5637.38
680.1	5569.79
680.29	5543.17
680.481	5457.15
680.671	5451.01
680.861	5592.32
681.052	5567.74
681.242	5434.63
681.432	5352.71
681.622	5453.06
681.813	5477.63
682.003	5518.59
682.193	5424.39
682.383	5428.48
682.573	5436.67
682.764	5424.39
682.954	5457.15
683.144	5412.1
683.334	5346.56
683.524	5250.31
683.714	5276.93
683.904	5326.08
684.094	5313.8
684.284	5192.97
684.474	5299.46
684.664	5235.97
684.854	5158.15
685.044	5299.46
685.234	5219.59
685.424	5180.68
685.614	5143.81
685.804	5131.53
685.994	5258.5
686.184	5178.63
686.374	4986.12
686.564	5154.05
686.753	5186.82
686.943	4979.98
687.133	5129.48
687.323	4810
687.513	5012.74
687.702	5004.55
687.892	4898.06
688.082	4736.27
688.272	5051.66
688.461	4973.83
688.651	4939.02
688.841	4891.91
689.03	4902.15
689.22	4879.63
689.41	4701.45
689.599	4773.13
689.789	4859.15
689.979	4680.97
690.168	4721.93
690.358	4652.3
690.547	4656.4
690.737	4703.5
690.926	4736.27
691.116	4539.66
691.305	4756.75
691.495	4560.14
691.684	4513.04
691.874	4490.51
692.063	4576.53
692.252	4502.8
692.442	4551.95
692.631	4465.94
692.82	4410.64
693.01	4545.81
693.199	4517.14
693.388	4535.57
693.578	4470.03
693.767	4384.02
693.956	4361.49
694.146	4525.33
694.335	4422.93
694.524	4263.19
694.713	4236.56
694.902	4394.26
695.092	4394.26
695.281	4197.65
695.47	4246.8
695.659	4234.52
695.848	4050.2
696.037	4316.44
696.226	4265.24
696.415	4287.76
696.604	4373.78
696.793	4232.47
696.982	4171.03
697.171	4216.09
697.36	4238.61
697.549	4177.17
697.738	4285.72
697.927	4154.65
698.116	4306.2
698.305	4287.76
698.494	4142.36
698.683	4166.93
698.872	4205.85
699.061	4087.06
699.25	4246.8
699.438	4048.15
699.627	4142.36
699.816	4080.92
700.005	4091.16
700.193	4085.01
700.382	4054.3
700.571	3984.66
700.76	3996.95
700.948	4093.21
701.137	4136.21
701.326	4078.87
701.514	3984.66
701.703	4093.21
701.892	3968.28
702.08	4085.01
702.269	4123.93
702.457	3861.79
702.646	3867.93
702.834	3894.55
703.023	3941.66
703.212	3921.18
703.4	3872.03
703.589	3812.64
703.777	3886.36
703.965	3917.08
704.154	3927.32
704.342	3947.8
704.531	3771.68
704.719	3896.6
704.907	3818.78
705.096	3837.21
705.284	3781.92
705.472	3927.32
705.661	3783.96
705.849	3863.83
706.037	3743
706.226	3970.33
706.414	3650.85
706.602	3681.57
706.79	3921.18
706.979	3794.2
707.167	3718.43
707.355	3687.71
707.543	3751.2
707.731	3654.94
707.919	3777.82
708.107	3833.11
708.296	3722.52
708.484	3616.03
708.672	3581.21
708.86	3638.56
709.048	3560.73
709.236	3605.79
709.424	3753.24
709.612	3632.41
709.8	3503.39
709.988	3683.61
710.176	3650.85
710.364	3640.61
710.551	3595.55
710.739	3595.55
710.927	3554.59
711.115	3577.12
711.303	3570.97
711.491	3384.61
711.679	3409.19
711.866	3532.06
712.054	3499.3
712.242	3458.34
712.43	3525.92
712.617	3439.9
712.805	3521.82
712.993	3456.29
713.181	3462.43
713.368	3355.94
713.556	3462.43
713.744	3407.14
713.931	3513.63
714.119	3419.43
714.306	3351.84
714.494	3351.84
714.682	3446.05
714.869	3362.08
715.057	3355.94
715.244	3218.72
715.432	3239.2
715.619	3310.88
715.807	3384.61
715.994	3319.07
716.182	3241.25
716.369	3390.75
716.556	3222.82
716.744	3204.39
716.931	3136.81
717.119	3212.58
717.306	3231.01
717.493	3214.63
717.681	3208.48
717.868	3321.12
718.055	3228.96
718.242	3089.7
718.43	3122.47
718.617	3132.71
718.804	3284.26
718.991	3142.95
719.179	3159.33
719.366	3128.61
719.553	3091.75
719.74	3093.8
719.927	2977.06
720.114	3044.65
720.301	3036.45
720.488	3054.89
720.676	3087.65
720.863	3181.86
721.05	3073.32
721.237	2993.45
721.424	3099.94
721.611	3136.81
721.798	2944.3
721.985	2899.24
722.172	2938.15
722.358	3063.08
722.545	2854.19
722.732	2897.19
722.919	3063.08
723.106	3032.36
723.293	3046.69
723.48	2843.95
723.667	2872.62
723.853	3007.78
724.04	2866.47
724.227	2950.44
724.414	2905.39
724.6	2827.56
724.787	2823.47
724.974	2911.53
725.161	2848.04
725.347	2764.08
725.534	2899.24
725.72	2792.75
725.907	2768.17
726.094	2817.32
726.28	2882.86
726.467	2807.08
726.653	2753.84
726.84	2733.36
727.027	2852.14
727.213	2716.97
727.4	2784.55
727.586	2721.07
727.773	2637.1
727.959	2678.06
728.145	2770.22
728.332	2800.94
728.518	2610.48
728.705	2780.46
728.891	2739.5
729.077	2661.68
729.264	2712.88
729.45	2667.82
729.636	2671.92
729.823	2682.16
730.009	2692.4
730.195	2618.67
730.382	2559.28
730.568	2682.16
730.754	2643.24
730.94	2667.82
731.126	2616.62
731.313	2594.09
731.499	2590
731.685	2608.43
731.871	2618.67
732.057	2608.43
732.243	2788.65
732.429	2569.52
732.615	2444.59
732.801	2651.44
732.987	2501.94
733.173	2544.94
733.359	2608.43
733.545	2516.27
733.731	2471.22
733.917	2553.13
734.103	2489.65
734.289	2420.02
734.475	2481.46
734.661	2571.57
734.847	2503.98
735.033	2444.59
735.219	2450.74
735.404	2487.6
735.59	2405.68
735.776	2387.25
735.962	2444.59
736.148	2422.06
736.333	2434.35
736.519	2436.4
736.705	2420.02
736.89	2538.8
737.076	2370.87
737.262	2417.97
737.447	2442.54
737.633	2331.95
737.819	2463.02
738.004	2319.67
738.19	2325.81
738.375	2262.32
738.561	2383.15
738.747	2338.1
738.932	2358.58
739.118	2393.39
739.303	2301.23
739.489	2403.63
739.674	2223.41
739.859	2299.19
740.045	2243.89
740.23	2241.84
740.416	2241.84
740.601	2295.09
740.786	2231.6
740.972	2211.12
741.157	2227.51
741.342	2315.57
741.528	2209.08
741.713	2174.26
741.898	2223.41
742.084	2112.82
742.269	2213.17
742.454	2243.89
742.639	2098.49
742.824	2278.71
743.01	2196.79
743.195	2112.82
743.38	2166.07
743.565	2166.07
743.75	2164.02
743.935	2106.68
744.12	2141.49
744.305	2016.57
744.49	2084.15
744.675	1961.27
744.86	2026.81
745.045	2106.68
745.23	2000.18
745.415	1989.94
745.6	2002.23
745.785	2084.15
745.97	2004.28
746.155	2010.42
746.34	2010.42
746.525	1891.64
746.71	1928.5
746.895	1920.31
747.079	1967.42
747.264	1918.26
747.449	1865.02
747.634	1783.1
747.819	1955.13
748.003	1836.35
748.188	1918.26
748.373	1779
748.557	1846.59
748.742	1756.47
748.927	1766.71
749.111	1877.3
749.296	1770.81
749.481	1785.15
749.665	1850.68
749.85	1725.75
750.034	1692.99
750.219	1799.48
750.404	1670.46
750.588	1713.47
750.773	1727.8
750.957	1645.88
751.141	1598.78
751.326	1623.36
751.51	1627.45
751.695	1719.61
751.879	1625.4
752.064	1754.43
752.248	1594.69
752.432	1473.85
752.617	1588.54
752.801	1611.07
752.985	1619.26
753.17	1516.86
753.354	1537.34
753.538	1500.48
753.722	1510.72
753.907	1393.98
754.091	1471.81
754.275	1461.57
754.459	1453.38
754.643	1461.57
754.828	1461.57
755.012	1365.31
755.196	1453.38
755.38	1318.21
755.564	1428.8
755.748	1391.94
755.932	1490.24
756.116	1305.92
756.3	1344.83
756.484	1295.68
756.668	1322.31
756.852	1295.68
757.036	1353.02
757.22	1258.82
757.404	1342.78
757.588	1322.31
757.772	1273.15
757.956	1318.21
758.14	1254.72
758.323	1183.04
758.507	1320.26
758.691	1248.58
758.875	1246.53
759.059	1246.53
759.242	1209.67
759.426	1215.81
759.61	1172.8
759.794	1230.15
759.977	1189.19
760.161	1181
760.345	1232.19
760.528	1201.48
760.712	1146.18
760.895	1082.69
761.079	1144.13
761.263	1117.51
761.446	1176.9
761.63	1094.98
761.813	1084.74
761.997	1092.93
762.18	1078.6
762.364	1015.11
762.547	1101.12
762.731	1066.31
762.914	1090.88
763.098	1076.55
763.281	1002.82
763.464	1105.22
763.648	1062.21
763.831	1092.93
764.015	1019.21
764.198	1117.51
764.381	1013.06
764.564	1006.92
764.748	1105.22
764.931	1041.73
765.114	1049.93
765.297	1029.45
765.481	1047.88
765.664	959.81
765.847	1031.49
766.03	1011.01
766.213	1064.26
766.397	1011.01
766.58	992.58
766.763	937.29
766.946	986.44
767.129	998.73
767.312	957.77
767.495	998.73
767.678	949.57
767.861	920.9
768.044	949.57
768.227	931.14
768.41	916.81
768.593	986.44
768.776	1015.11
768.959	925
769.142	937.29
769.324	875.85
769.507	867.66
769.69	982.34
769.873	916.81
770.056	957.77
770.239	879.94
770.421	916.81
770.604	906.57
770.787	804.17
770.97	894.28
771.152	886.09
771.335	986.44
771.518	851.27
771.7	910.66
771.883	927.05
772.066	865.61
772.248	894.28
772.431	935.24
772.613	955.72
772.796	910.66
772.978	855.37
773.161	841.03
773.343	767.31
773.526	689.48
773.708	830.79
773.891	773.45
774.073	775.5
774.256	806.22
774.438	791.88
774.621	738.63
774.803	804.17
774.985	777.55
775.168	824.65
775.35	755.02
775.532	746.83
775.715	664.91
775.897	773.45
776.079	748.87
776.261	720.2
776.444	736.59
776.626	703.82
776.808	718.15
776.99	787.79
777.173	734.54
777.355	650.57
777.537	695.63
777.719	718.15
777.901	752.97
778.083	671.05
778.265	621.9
778.447	681.29
778.629	695.63
778.811	675.15
778.993	621.9
779.175	675.15
779.357	693.58
779.539	644.43
779.721	607.56
779.903	613.71
780.085	582.99
780.267	691.53
780.449	607.56
780.631	578.89
780.812	679.24
780.994	582.99
781.176	685.39
781.358	511.31
781.54	660.81
781.721	525.65
781.903	578.89
782.085	595.28
782.267	527.69
782.448	574.8
782.63	587.08
782.812	511.31
782.993	546.13
783.175	617.8
783.357	488.78
783.538	574.8
783.72	517.45
783.901	591.18
784.083	609.61
784.264	572.75
784.446	451.92
784.627	480.59
784.809	503.12
784.99	507.21
785.172	558.41
785.353	474.45
785.535	472.4
785.716	453.97
785.897	484.69
786.079	531.79
786.26	462.16
786.441	566.6
786.623	488.78
786.804	464.21
786.985	404.82
787.167	507.21
787.348	382.29
787.529	480.59
787.71	398.67
787.891	431.44
788.073	482.64
788.254	443.73
788.435	468.3
788.616	378.19
788.797	421.2
788.978	419.15
789.159	361.81
789.34	376.14
789.522	488.78
789.703	421.2
789.884	384.34
790.065	337.23
790.246	458.06
790.427	400.72
790.607	435.53
790.788	355.66
790.969	335.18
791.15	376.14
791.331	314.7
791.512	470.35
791.693	378.19
791.874	320.85
792.054	453.97
792.235	378.19
792.416	408.91
792.597	351.57
792.778	398.67
792.958	439.63
793.139	339.28
793.32	341.33
793.5	312.66
793.681	376.14
793.862	318.8
794.042	341.33
794.223	310.61
794.404	345.42
794.584	337.23
794.765	308.56
794.945	288.08
795.126	236.88
795.306	339.28
795.487	343.38
795.667	345.42
795.848	255.31
796.028	337.23
796.209	316.75
796.389	437.58
796.57	265.55
796.75	335.18
796.93	355.66
797.111	310.61
797.291	210.26
797.471	347.47
797.652	236.88
797.832	329.04
798.012	343.38
798.192	290.13
798.373	265.55
798.553	331.09
798.733	298.32
798.913	220.5
799.093	410.96
799.274	255.31
799.454	271.7
799.634	353.62
799.814	283.99
799.994	298.32
800.174	294.22
800.354	310.61
800.534	277.84
800.714	349.52
800.894	271.7
801.074	259.41
801.254	286.03
801.434	337.23
801.614	283.99
801.794	263.51
801.974	781.64
802.154	238.93
802.334	191.83
802.514	171.35
802.693	318.8
802.873	218.45
803.053	339.28
803.233	234.83
803.413	218.45
803.592	253.27
803.772	222.55
803.952	322.9
804.131	181.59
804.311	238.93
804.491	232.79
804.67	179.54
804.85	214.35
805.03	302.42
805.209	218.45
805.389	197.97
805.568	171.35
805.748	220.5
805.928	218.45
806.107	234.83
806.287	273.75
806.466	222.55
806.646	218.45
806.825	230.74
807.004	173.39
807.184	220.5
807.363	249.17
807.543	191.83
807.722	261.46
807.901	265.55
808.081	169.3
808.26	183.63
808.439	163.15
808.619	290.13
808.798	177.49
808.977	161.11
809.156	290.13
809.336	230.74
809.515	163.15
809.694	222.55
809.873	195.92
810.052	183.63
810.231	204.11
810.411	140.63
810.59	152.92
810.769	185.68
810.948	175.44
811.127	122.2
811.306	165.2
811.485	200.02
811.664	204.11
811.843	181.59
812.022	214.35
812.201	134.48
812.38	193.87
812.559	214.35
812.737	204.11
812.916	161.11
813.095	159.06
813.274	122.2
813.453	206.16
813.632	218.45
813.811	179.54
813.989	146.77
814.168	191.83
814.347	154.96
814.526	204.11
814.704	185.68
814.883	214.35
815.062	105.81
815.24	253.27
815.419	91.48
815.598	177.49
815.776	167.25
815.955	249.17
816.133	181.59
816.312	230.74
816.49	169.3
816.669	191.83
816.847	128.34
817.026	148.82
817.204	191.83
817.383	163.15
817.561	148.82
817.74	189.78
817.918	200.02
818.097	111.96
818.275	191.83
818.453	159.06
818.632	114
818.81	177.49
818.988	122.2
819.167	163.15
819.345	191.83
819.523	159.06
819.701	159.06
819.879	181.59
820.058	122.2
820.236	165.2
820.414	169.3
820.592	179.54
820.77	140.63
820.948	54.61
821.127	150.87
821.305	116.05
821.483	126.29
821.661	101.72
821.839	124.24
822.017	177.49
822.195	171.35
822.373	159.06
822.551	165.2
822.729	142.68
822.907	132.44
823.085	150.87
823.262	111.96
823.44	150.87
823.618	105.81
823.796	73.04
823.974	111.96
824.152	118.1
824.329	101.72
824.507	169.3
824.685	175.44
824.863	97.62
825.04	152.92
825.218	159.06
825.396	161.11
825.574	101.72
825.751	165.2
825.929	111.96
826.107	73.04
826.284	161.11
826.462	114
826.639	126.29
826.817	107.86
826.994	134.48
827.172	93.52
827.349	114
827.527	124.24
827.704	171.35
827.882	140.63
828.059	169.3
828.237	54.61
828.414	107.86
828.591	36.18
828.769	77.14
828.946	105.81
829.124	230.74
829.301	206.16
829.478	64.85
829.655	126.29
829.833	154.96
830.01	157.01
830.187	91.48
830.364	103.76
830.542	118.1
830.719	79.19
830.896	159.06
831.073	93.52
831.25	122.2
831.427	142.68
831.604	124.24
831.782	91.48
831.959	105.81
832.136	114
832.313	77.14
832.49	56.66
832.667	73.04
832.844	111.96
833.021	148.82
833.198	99.67
833.374	128.34
833.551	87.38
833.728	103.76
833.905	81.24
834.082	77.14
834.259	99.67
834.436	128.34
834.612	114
834.789	116.05
834.966	54.61
835.143	87.38
835.319	38.23
835.496	126.29
835.673	93.52
835.85	136.53
836.026	71
836.203	146.77
836.38	89.43
836.556	46.42
836.733	75.09
836.909	169.3
837.086	116.05
837.262	150.87
837.439	48.47
837.616	19.8
837.792	150.87
837.968	150.87
838.145	142.68
838.321	109.91
838.498	91.48
838.674	122.2
838.851	87.38
839.027	60.76
839.203	44.37
839.38	114
839.556	114
839.732	81.24
839.909	101.72
840.085	122.2
840.261	68.95
840.437	52.56
840.614	32.08
840.79	173.39
840.966	103.76
841.142	138.58
841.318	66.9
841.494	79.19
841.671	120.15
841.847	97.62
842.023	85.33
842.199	64.85
842.375	68.95
842.551	38.23
842.727	27.99
842.903	97.62
843.079	93.52
843.255	42.32
843.431	81.24
843.607	68.95
843.783	42.32
843.959	54.61
844.134	97.62
844.31	105.81
844.486	-2.73
844.662	5.46
844.838	56.66
845.013	130.39
845.189	109.91
845.365	173.39
845.541	34.13
845.716	136.53
845.892	60.76
846.068	136.53
846.244	99.67
846.419	91.48
846.595	50.52
846.77	11.61
846.946	118.1
847.122	89.43
847.297	111.96
847.473	54.61
847.648	89.43
847.824	71
847.999	-39.59
848.175	77.14
848.35	32.08
848.526	81.24
848.701	64.85
848.876	19.8
849.052	36.18
849.227	-10.92
849.403	66.9
849.578	73.04
849.753	11.61
849.929	132.44
850.104	7.51
850.279	54.61
850.454	93.52
850.63	142.68
850.805	36.18
850.98	81.24
851.155	50.52
851.33	116.05
851.505	66.9
851.681	58.71
851.856	71
852.031	42.32
852.206	91.48
852.381	13.65
852.556	38.23
852.731	128.34
852.906	60.76
853.081	73.04
853.256	83.28
853.431	89.43
853.606	68.95
853.781	79.19
853.956	38.23
854.131	42.32
854.305	32.08
854.48	42.32
854.655	40.28
854.83	-2.73
855.005	48.47
855.18	93.52
855.354	109.91
855.529	9.56
855.704	68.95
855.879	93.52
856.053	25.94
856.228	58.71
856.403	56.66
856.577	46.42
856.752	71
856.926	52.56
857.101	114
857.276	52.56
857.45	68.95
857.625	46.42
857.799	66.9
857.974	75.09
858.148	3.41
858.323	89.43
858.497	9.56
858.672	68.95
858.846	79.19
859.02	30.04
859.195	11.61
859.369	21.85
859.543	9.56
859.718	5.46
859.892	87.38
860.066	101.72
860.241	36.18
860.415	3.41
860.589	19.8
860.763	93.52
860.938	128.34
861.112	64.85
861.286	25.94
861.46	48.47
861.634	11.61
861.808	60.76
861.982	17.75
862.157	48.47
862.331	58.71
862.505	62.8
862.679	50.52
862.853	52.56
863.027	85.33
863.201	81.24
863.375	3.41
863.549	77.14
863.722	21.85
863.896	34.13
864.07	99.67
864.244	52.56
864.418	101.72
864.592	103.76
864.766	-31.4
864.939	-4.78
865.113	87.38
865.287	77.14
865.461	68.95
865.634	-10.92
865.808	-35.5
865.982	48.47
866.156	-4.78
866.329	25.94
866.503	48.47
866.676	-4.78
866.85	23.89
867.024	13.65
867.197	79.19
867.371	46.42
867.544	95.57
867.718	68.95
867.891	1.37
868.065	103.76
868.238	62.8
868.412	120.15
868.585	118.1
868.759	-17.07
868.932	56.66
869.105	60.76
869.279	-4.78
869.452	75.09
869.625	75.09
869.799	85.33
869.972	32.08
870.145	62.8
870.319	71
870.492	85.33
870.665	30.04
870.838	46.42
871.011	36.18
871.185	36.18
871.358	21.85
871.531	105.81
871.704	52.56
871.877	66.9
872.05	23.89
872.223	60.76
872.396	23.89
872.569	79.19
872.742	-15.02
872.915	21.85
873.088	3.41
873.261	19.8
873.434	21.85
873.607	138.58
873.78	83.28
873.953	46.42
874.126	52.56
874.299	116.05
874.471	87.38
874.644	3.41
874.817	68.95
874.99	34.13
875.163	-37.55
875.335	56.66
875.508	66.9
875.681	7.51
875.853	48.47
876.026	11.61
876.199	32.08
876.371	66.9
876.544	107.86
876.717	25.94
876.889	1.37
877.062	107.86
877.234	15.7
877.407	25.94
877.579	38.23
877.752	54.61
877.924	25.94
878.097	46.42
878.269	93.52
878.442	7.51
878.614	83.28
878.786	36.18
878.959	27.99
879.131	25.94
879.303	50.52
879.476	62.8
879.648	34.13
879.82	3.41
879.993	30.04
880.165	62.8
880.337	27.99
880.509	32.08
880.681	17.75
880.854	3.41
881.026	42.32
881.198	81.24
881.37	46.42
881.542	5.46
881.714	-15.02
881.886	58.71
882.058	32.08
882.23	62.8
882.402	54.61
882.574	56.66
882.746	11.61
882.918	40.28
883.09	30.04
883.262	54.61
883.434	46.42
883.606	-25.26
883.778	71
883.95	68.95
884.122	30.04
884.293	107.86
884.465	15.7
884.637	52.56
884.809	30.04
884.98	46.42
885.152	-15.02
885.324	73.04
885.496	62.8
885.667	25.94
885.839	9.56
886.011	91.48
886.182	44.37
886.354	48.47
886.525	-10.92
886.697	7.51
886.869	15.7
887.04	-12.97
887.212	50.52
887.383	19.8
887.555	25.94
887.726	85.33
887.897	-0.68
888.069	25.94
888.24	27.99
888.412	-8.87
888.583	122.2
888.754	77.14
888.926	-39.59
889.097	32.08
889.268	77.14
889.44	93.52
889.611	-23.21
889.782	11.61
889.953	-0.68
890.125	44.37
890.296	42.32
890.467	15.7
890.638	103.76
890.809	30.04
890.98	23.89
891.151	36.18
891.323	101.72
891.494	81.24
891.665	68.95
891.836	-21.16
892.007	15.7
892.178	27.99
892.349	-33.45
892.52	50.52
892.691	62.8
892.862	66.9
893.032	5.46
893.203	34.13
893.374	-0.68
893.545	25.94
893.716	38.23
893.887	71
894.057	25.94
894.228	54.61
894.399	56.66
894.57	68.95
894.74	79.19
894.911	32.08
895.082	101.72
895.253	-15.02
895.423	73.04
895.594	11.61
895.764	-2.73
895.935	13.65
896.106	66.9
896.276	-2.73
896.447	-68.27
896.617	77.14
896.788	-2.73
896.958	1.37
897.129	-0.68
897.299	7.51
897.47	13.65
897.64	-15.02
897.81	48.47
897.981	40.28
898.151	21.85
898.322	30.04
898.492	46.42
898.662	-23.21
898.832	66.9
899.003	-37.55
899.173	68.95
899.343	128.34
899.513	38.23
