Data from USB4F104151__63__12-36-31-116.txt Node

Date: Fri Mar 14 12:36:31 EDT 2025
User: louis
Spectrometer: USB4F10415
Trigger mode: 4
Integration Time (sec): 2.000000E-2
Scans to average: 1
Electric dark correction enabled: true
Nonlinearity correction enabled: false
Boxcar width: 0
XAxis mode: Wavelengths
Number of Pixels in Spectrum: 3648
>>>>>Begin Spectral Data<<<<<
178.204	-71.17
178.424	-71.17
178.644	-71.17
178.864	-67.07
179.084	-122.37
179.304	-28.16
179.524	-36.35
179.744	-40.45
179.964	-13.82
180.184	-11.78
180.404	10.75
180.624	61.95
180.844	10.75
181.064	-3.58
181.283	31.23
181.503	-36.35
181.723	55.81
181.943	-24.06
182.163	53.76
182.383	-5.63
182.602	66.05
182.822	-19.97
183.042	29.18
183.262	0.51
183.482	-54.78
183.701	57.86
183.921	14.85
184.141	-1.54
184.361	104.96
184.58	-38.4
184.8	2.56
185.02	29.18
185.239	10.75
185.459	33.28
185.679	37.38
185.898	12.8
186.118	41.47
186.338	55.81
186.557	43.52
186.777	-11.78
186.997	55.81
187.216	92.67
187.436	51.71
187.655	20.99
187.875	12.8
188.095	76.29
188.314	59.9
188.534	64
188.753	4.61
188.973	25.09
189.192	20.99
189.412	33.28
189.631	10.75
189.851	61.95
190.07	-17.92
190.29	-24.06
190.509	10.75
190.729	23.04
190.948	86.53
191.168	84.48
191.387	-11.78
191.607	61.95
191.826	20.99
192.045	27.14
192.265	-13.82
192.484	31.23
192.704	84.48
192.923	-62.98
193.142	8.7
193.362	37.38
193.581	102.91
193.8	-19.97
194.02	20.99
194.239	80.38
194.458	27.14
194.678	-19.97
194.897	12.8
195.116	31.23
195.335	-50.69
195.555	39.42
195.774	-24.06
195.993	14.85
196.212	-7.68
196.432	-1.54
196.651	78.33
196.87	23.04
197.089	25.09
197.308	57.86
197.528	23.04
197.747	4.61
197.966	49.66
198.185	117.25
198.404	-13.82
198.623	-1.54
198.842	23.04
199.062	33.28
199.281	64
199.5	35.33
199.719	113.15
199.938	31.23
200.157	25.09
200.376	51.71
200.595	31.23
200.814	-9.73
201.033	-7.68
201.252	53.76
201.471	90.62
201.69	20.99
201.909	4.61
202.128	72.19
202.347	121.34
202.566	-11.78
202.785	8.7
203.004	4.61
203.223	111.1
203.442	8.7
203.661	20.99
203.879	-22.02
204.098	23.04
204.317	74.24
204.536	104.96
204.755	109.05
204.974	100.86
205.193	88.57
205.411	115.2
205.63	33.28
205.849	29.18
206.068	82.43
206.287	-28.16
206.505	49.66
206.724	14.85
206.943	-28.16
207.162	29.18
207.381	25.09
207.599	-7.68
207.818	-15.87
208.037	31.23
208.255	-7.68
208.474	49.66
208.693	35.33
208.911	-19.97
209.13	45.57
209.349	82.43
209.567	-3.58
209.786	25.09
210.005	23.04
210.223	23.04
210.442	-5.63
210.661	51.71
210.879	10.75
211.098	16.9
211.316	35.33
211.535	70.14
211.753	25.09
211.972	94.72
212.191	61.95
212.409	-1.54
212.628	43.52
212.846	23.04
213.065	39.42
213.283	80.38
213.502	8.7
213.72	20.99
213.938	86.53
214.157	-9.73
214.375	78.33
214.594	72.19
214.812	12.8
215.031	90.62
215.249	12.8
215.467	18.94
215.686	27.14
215.904	70.14
216.122	25.09
216.341	74.24
216.559	49.66
216.778	20.99
216.996	-9.73
217.214	-22.02
217.432	-3.58
217.651	35.33
217.869	29.18
218.087	25.09
218.306	25.09
218.524	37.38
218.742	33.28
218.96	76.29
219.179	-77.31
219.397	23.04
219.615	94.72
219.833	51.71
220.051	-15.87
220.27	23.04
220.488	39.42
220.706	4.61
220.924	-32.26
221.142	8.7
221.36	4.61
221.578	49.66
221.796	53.76
222.015	66.05
222.233	74.24
222.451	37.38
222.669	82.43
222.887	-44.54
223.105	-28.16
223.323	18.94
223.541	86.53
223.759	39.42
223.977	64
224.195	-1.54
224.413	25.09
224.631	84.48
224.849	29.18
225.067	88.57
225.285	23.04
225.503	-32.26
225.721	-13.82
225.939	96.77
226.157	33.28
226.375	100.86
226.592	43.52
226.81	100.86
227.028	-32.26
227.246	84.48
227.464	41.47
227.682	6.66
227.9	-26.11
228.117	33.28
228.335	-42.5
228.553	61.95
228.771	96.77
228.989	6.66
229.206	53.76
229.424	6.66
229.642	-79.36
229.86	35.33
230.077	-9.73
230.295	45.57
230.513	76.29
230.731	104.96
230.948	55.81
231.166	74.24
231.384	31.23
231.601	51.71
231.819	45.57
232.037	39.42
232.254	-15.87
232.472	35.33
232.689	66.05
232.907	-44.54
233.125	-34.3
233.342	27.14
233.56	55.81
233.777	27.14
233.995	2.56
234.213	74.24
234.43	76.29
234.648	57.86
234.865	2.56
235.083	47.62
235.3	88.57
235.518	61.95
235.735	68.09
235.953	49.66
236.17	33.28
236.388	111.1
236.605	31.23
236.822	70.14
237.04	55.81
237.257	27.14
237.475	66.05
237.692	18.94
237.909	86.53
238.127	4.61
238.344	49.66
238.562	2.56
238.779	-1.54
238.996	-1.54
239.214	-26.11
239.431	29.18
239.648	39.42
239.865	66.05
240.083	72.19
240.3	84.48
240.517	23.04
240.735	-9.73
240.952	47.62
241.169	72.19
241.386	74.24
241.603	39.42
241.821	-17.92
242.038	-15.87
242.255	29.18
242.472	49.66
242.689	49.66
242.907	59.9
243.124	25.09
243.341	-15.87
243.558	-42.5
243.775	49.66
243.992	10.75
244.209	12.8
244.426	111.1
244.643	4.61
244.86	20.99
245.078	107.01
245.295	12.8
245.512	12.8
245.729	43.52
245.946	66.05
246.163	59.9
246.38	35.33
246.597	29.18
246.814	27.14
247.031	90.62
247.248	98.81
247.464	31.23
247.681	25.09
247.898	16.9
248.115	57.86
248.332	18.94
248.549	49.66
248.766	-15.87
248.983	29.18
249.2	-30.21
249.417	123.39
249.633	-34.3
249.85	76.29
250.067	-5.63
250.284	25.09
250.501	45.57
250.717	23.04
250.934	-116.22
251.151	43.52
251.368	25.09
251.585	113.15
251.801	-11.78
252.018	12.8
252.235	43.52
252.451	43.52
252.668	59.9
252.885	43.52
253.102	33.28
253.318	37.38
253.535	-11.78
253.752	57.86
253.968	-5.63
254.185	39.42
254.401	20.99
254.618	37.38
254.835	23.04
255.051	55.81
255.268	-15.87
255.484	68.09
255.701	49.66
255.917	100.86
256.134	0.51
256.351	66.05
256.567	-34.3
256.784	4.61
257	-19.97
257.217	115.2
257.433	61.95
257.65	53.76
257.866	6.66
258.082	-7.68
258.299	29.18
258.515	10.75
258.732	-30.21
258.948	70.14
259.165	10.75
259.381	12.8
259.597	2.56
259.814	6.66
260.03	39.42
260.246	18.94
260.463	55.81
260.679	6.66
260.895	4.61
261.112	-13.82
261.328	64
261.544	57.86
261.761	-9.73
261.977	23.04
262.193	-30.21
262.409	14.85
262.626	53.76
262.842	16.9
263.058	31.23
263.274	25.09
263.49	115.2
263.707	117.25
263.923	45.57
264.139	29.18
264.355	55.81
264.571	51.71
264.787	14.85
265.004	29.18
265.22	66.05
265.436	78.33
265.652	23.04
265.868	45.57
266.084	57.86
266.3	-3.58
266.516	16.9
266.732	90.62
266.948	20.99
267.164	66.05
267.38	51.71
267.596	76.29
267.812	80.38
268.028	-11.78
268.244	70.14
268.46	59.9
268.676	10.75
268.892	45.57
269.108	125.44
269.324	2.56
269.54	-7.68
269.756	43.52
269.972	33.28
270.188	27.14
270.403	-13.82
270.619	10.75
270.835	68.09
271.051	16.9
271.267	41.47
271.483	18.94
271.698	25.09
271.914	-30.21
272.13	41.47
272.346	74.24
272.562	29.18
272.777	20.99
272.993	61.95
273.209	25.09
273.425	0.51
273.64	94.72
273.856	0.51
274.072	57.86
274.287	0.51
274.503	29.18
274.719	57.86
274.934	49.66
275.15	-50.69
275.366	-22.02
275.581	70.14
275.797	41.47
276.012	88.57
276.228	41.47
276.444	70.14
276.659	72.19
276.875	47.62
277.09	76.29
277.306	-11.78
277.521	86.53
277.737	29.18
277.952	27.14
278.168	53.76
278.383	-40.45
278.599	74.24
278.814	41.47
279.03	31.23
279.245	41.47
279.461	43.52
279.676	25.09
279.892	20.99
280.107	55.81
280.322	43.52
280.538	43.52
280.753	-19.97
280.969	66.05
281.184	25.09
281.399	20.99
281.615	0.51
281.83	55.81
282.045	-11.78
282.26	27.14
282.476	72.19
282.691	117.25
282.906	-7.68
283.122	-26.11
283.337	-48.64
283.552	61.95
283.767	74.24
283.983	8.7
284.198	78.33
284.413	115.2
284.628	49.66
284.843	51.71
285.058	68.09
285.274	25.09
285.489	-30.21
285.704	76.29
285.919	66.05
286.134	102.91
286.349	66.05
286.564	94.72
286.779	59.9
286.995	59.9
287.21	-36.35
287.425	16.9
287.64	59.9
287.855	61.95
288.07	72.19
288.285	47.62
288.5	80.38
288.715	18.94
288.93	76.29
289.145	18.94
289.36	111.1
289.575	8.7
289.79	92.67
290.004	64
290.219	16.9
290.434	80.38
290.649	16.9
290.864	51.71
291.079	61.95
291.294	100.86
291.509	57.86
291.724	47.62
291.938	12.8
292.153	25.09
292.368	25.09
292.583	111.1
292.798	100.86
293.012	27.14
293.227	18.94
293.442	16.9
293.657	51.71
293.871	49.66
294.086	45.57
294.301	51.71
294.516	53.76
294.73	61.95
294.945	53.76
295.16	10.75
295.374	14.85
295.589	72.19
295.804	35.33
296.018	0.51
296.233	68.09
296.447	86.53
296.662	74.24
296.877	29.18
297.091	98.81
297.306	27.14
297.52	109.05
297.735	39.42
297.949	23.04
298.164	90.62
298.378	-13.82
298.593	88.57
298.807	41.47
299.022	139.77
299.236	-5.63
299.451	12.8
299.665	29.18
299.88	14.85
300.094	78.33
300.309	88.57
300.523	23.04
300.737	12.8
300.952	70.14
301.166	8.7
301.381	96.77
301.595	100.86
301.809	29.18
302.024	-26.11
302.238	25.09
302.452	31.23
302.667	78.33
302.881	70.14
303.095	51.71
303.309	41.47
303.524	31.23
303.738	14.85
303.952	-22.02
304.166	41.47
304.381	8.7
304.595	82.43
304.809	-32.26
305.023	61.95
305.237	47.62
305.452	23.04
305.666	74.24
305.88	88.57
306.094	31.23
306.308	107.01
306.522	-7.68
306.736	-28.16
306.95	68.09
307.164	43.52
307.379	25.09
307.593	102.91
307.807	12.8
308.021	37.38
308.235	-65.02
308.449	12.8
308.663	-44.54
308.877	53.76
309.091	-5.63
309.305	119.29
309.519	0.51
309.733	70.14
309.947	-7.68
310.161	49.66
310.374	59.9
310.588	43.52
310.802	111.1
311.016	25.09
311.23	68.09
311.444	109.05
311.658	0.51
311.872	107.01
312.085	80.38
312.299	51.71
312.513	47.62
312.727	117.25
312.941	47.62
313.154	70.14
313.368	43.52
313.582	84.48
313.796	25.09
314.009	88.57
314.223	39.42
314.437	14.85
314.651	41.47
314.864	47.62
315.078	-24.06
315.292	12.8
315.505	45.57
315.719	49.66
315.933	41.47
316.146	76.29
316.36	137.73
316.573	61.95
316.787	35.33
317.001	92.67
317.214	45.57
317.428	74.24
317.641	14.85
317.855	47.62
318.068	-40.45
318.282	72.19
318.495	0.51
318.709	121.34
318.922	88.57
319.136	61.95
319.349	8.7
319.563	-19.97
319.776	70.14
319.99	49.66
320.203	82.43
320.417	49.66
320.63	51.71
320.843	143.87
321.057	20.99
321.27	59.9
321.483	86.53
321.697	100.86
321.91	-24.06
322.124	80.38
322.337	-7.68
322.55	23.04
322.763	70.14
322.977	61.95
323.19	-48.64
323.403	70.14
323.617	35.33
323.83	39.42
324.043	68.09
324.256	49.66
324.469	39.42
324.683	66.05
324.896	-13.82
325.109	88.57
325.322	27.14
325.535	27.14
325.748	47.62
325.962	86.53
326.175	94.72
326.388	100.86
326.601	98.81
326.814	31.23
327.027	6.66
327.24	82.43
327.453	-26.11
327.666	96.77
327.879	49.66
328.092	76.29
328.305	29.18
328.518	39.42
328.731	-44.54
328.944	84.48
329.157	57.86
329.37	6.66
329.583	43.52
329.796	55.81
330.009	-30.21
330.222	29.18
330.435	8.7
330.648	86.53
330.861	-9.73
331.073	31.23
331.286	37.38
331.499	102.91
331.712	43.52
331.925	84.48
332.138	29.18
332.35	115.2
332.563	8.7
332.776	98.81
332.989	27.14
333.202	16.9
333.414	51.71
333.627	27.14
333.84	-19.97
334.053	31.23
334.265	18.94
334.478	74.24
334.691	104.96
334.903	76.29
335.116	41.47
335.329	-30.21
335.541	12.8
335.754	8.7
335.966	37.38
336.179	35.33
336.392	35.33
336.604	-3.58
336.817	117.25
337.029	33.28
337.242	-36.35
337.454	39.42
337.667	27.14
337.88	104.96
338.092	72.19
338.305	25.09
338.517	49.66
338.729	135.68
338.942	125.44
339.154	45.57
339.367	25.09
339.579	-54.78
339.792	10.75
340.004	98.81
340.217	59.9
340.429	68.09
340.641	72.19
340.854	-36.35
341.066	37.38
341.278	35.33
341.491	59.9
341.703	66.05
341.915	-3.58
342.128	86.53
342.34	45.57
342.552	-24.06
342.764	57.86
342.977	-7.68
343.189	31.23
343.401	57.86
343.613	57.86
343.826	45.57
344.038	78.33
344.25	45.57
344.462	35.33
344.674	135.68
344.886	12.8
345.099	53.76
345.311	51.71
345.523	86.53
345.735	23.04
345.947	59.9
346.159	31.23
346.371	74.24
346.583	82.43
346.795	76.29
347.007	41.47
347.219	123.39
347.431	8.7
347.643	143.87
347.855	74.24
348.067	160.25
348.279	23.04
348.491	35.33
348.703	66.05
348.915	8.7
349.127	14.85
349.339	25.09
349.551	53.76
349.763	94.72
349.975	102.91
350.187	82.43
350.399	86.53
350.61	88.57
350.822	23.04
351.034	43.52
351.246	100.86
351.458	70.14
351.669	33.28
351.881	78.33
352.093	18.94
352.305	78.33
352.517	64
352.728	61.95
352.94	45.57
353.152	76.29
353.363	29.18
353.575	10.75
353.787	66.05
353.999	18.94
354.21	123.39
354.422	47.62
354.633	47.62
354.845	41.47
355.057	51.71
355.268	53.76
355.48	78.33
355.692	51.71
355.903	61.95
356.115	78.33
356.326	6.66
356.538	39.42
356.749	78.33
356.961	104.96
357.172	33.28
357.384	27.14
357.595	29.18
357.807	158.21
358.018	33.28
358.23	72.19
358.441	107.01
358.653	51.71
358.864	64
359.075	98.81
359.287	61.95
359.498	88.57
359.709	37.38
359.921	74.24
360.132	96.77
360.344	-44.54
360.555	45.57
360.766	45.57
360.977	29.18
361.189	51.71
361.4	37.38
361.611	125.44
361.823	57.86
362.034	31.23
362.245	59.9
362.456	33.28
362.667	84.48
362.879	70.14
363.09	25.09
363.301	-32.26
363.512	39.42
363.723	20.99
363.935	10.75
364.146	57.86
364.357	92.67
364.568	53.76
364.779	90.62
364.99	78.33
365.201	96.77
365.412	43.52
365.623	90.62
365.834	10.75
366.045	23.04
366.256	117.25
366.467	59.9
366.678	145.92
366.889	37.38
367.1	111.1
367.311	78.33
367.522	31.23
367.733	80.38
367.944	86.53
368.155	123.39
368.366	92.67
368.577	98.81
368.788	92.67
368.999	57.86
369.209	68.09
369.42	78.33
369.631	102.91
369.842	53.76
370.053	68.09
370.264	104.96
370.474	74.24
370.685	131.58
370.896	29.18
371.107	104.96
371.317	20.99
371.528	80.38
371.739	78.33
371.95	33.28
372.16	125.44
372.371	98.81
372.582	33.28
372.792	39.42
373.003	131.58
373.214	72.19
373.424	76.29
373.635	39.42
373.846	84.48
374.056	82.43
374.267	25.09
374.477	57.86
374.688	37.38
374.898	104.96
375.109	45.57
375.319	152.06
375.53	162.3
375.74	41.47
375.951	90.62
376.161	96.77
376.372	45.57
376.582	107.01
376.793	43.52
377.003	57.86
377.214	102.91
377.424	10.75
377.635	127.49
377.845	109.05
378.055	74.24
378.266	47.62
378.476	94.72
378.686	107.01
378.897	27.14
379.107	96.77
379.317	113.15
379.528	25.09
379.738	47.62
379.948	57.86
380.158	98.81
380.369	70.14
380.579	35.33
380.789	53.76
380.999	49.66
381.21	84.48
381.42	51.71
381.63	14.85
381.84	72.19
382.05	78.33
382.261	49.66
382.471	84.48
382.681	49.66
382.891	129.53
383.101	76.29
383.311	4.61
383.521	133.63
383.731	66.05
383.941	113.15
384.151	41.47
384.361	74.24
384.571	129.53
384.781	25.09
384.991	147.97
385.201	37.38
385.411	139.77
385.621	55.81
385.831	72.19
386.041	94.72
386.251	137.73
386.461	121.34
386.671	43.52
386.881	12.8
387.091	94.72
387.301	57.86
387.511	47.62
387.72	94.72
387.93	84.48
388.14	37.38
388.35	4.61
388.56	156.16
388.769	53.76
388.979	59.9
389.189	35.33
389.399	76.29
389.609	86.53
389.818	119.29
390.028	20.99
390.238	86.53
390.447	49.66
390.657	113.15
390.867	59.9
391.076	45.57
391.286	86.53
391.496	88.57
391.705	86.53
391.915	66.05
392.125	104.96
392.334	84.48
392.544	76.29
392.753	92.67
392.963	72.19
393.172	139.77
393.382	104.96
393.591	139.77
393.801	98.81
394.01	113.15
394.22	70.14
394.429	102.91
394.639	86.53
394.848	82.43
395.058	94.72
395.267	141.82
395.477	102.91
395.686	176.64
395.895	162.3
396.105	139.77
396.314	90.62
396.524	133.63
396.733	92.67
396.942	141.82
397.152	92.67
397.361	150.01
397.57	180.73
397.78	186.88
397.989	55.81
398.198	229.88
398.407	86.53
398.617	133.63
398.826	160.25
399.035	133.63
399.244	141.82
399.453	176.64
399.663	125.44
399.872	119.29
400.081	186.88
400.29	154.11
400.499	178.69
400.708	170.49
400.917	147.97
401.127	141.82
401.336	147.97
401.545	207.36
401.754	133.63
401.963	168.45
402.172	201.21
402.381	182.78
402.59	176.64
402.799	154.11
403.008	190.97
403.217	203.26
403.426	233.98
403.635	184.83
403.844	190.97
404.053	156.16
404.262	256.51
404.471	260.6
404.68	190.97
404.888	176.64
405.097	143.87
405.306	240.12
405.515	217.6
405.724	225.79
405.933	309.76
406.142	201.21
406.35	238.08
406.559	233.98
406.768	264.7
406.977	264.7
407.185	203.26
407.394	233.98
407.603	293.37
407.812	301.56
408.02	274.94
408.229	276.99
408.438	281.08
408.646	360.95
408.855	379.39
409.064	330.23
409.272	367.1
409.481	381.43
409.69	324.09
409.898	389.63
410.107	451.07
410.315	449.02
410.524	346.62
410.733	401.91
410.941	537.08
411.15	563.7
411.358	528.89
411.567	578.04
411.775	514.55
411.984	526.84
412.192	510.46
412.401	580.09
412.609	696.82
412.818	723.44
413.026	756.21
413.234	727.54
413.443	676.34
413.651	690.68
413.86	733.68
414.068	850.42
414.276	958.96
414.485	866.8
414.693	840.18
414.901	1014.26
415.11	1059.31
415.318	965.11
415.526	1077.74
415.734	1135.09
415.943	1153.52
416.151	1214.96
416.359	1135.09
416.567	1237.49
416.776	1118.7
416.984	1292.78
417.192	1335.79
417.4	1415.66
417.608	1409.51
417.817	1516.01
418.025	1489.39
418.233	1501.67
418.441	1636.84
418.649	1597.93
418.857	1749.48
419.065	1880.55
419.273	1858.02
419.481	1958.37
419.689	2122.21
419.897	2116.06
420.105	2187.74
420.313	2275.81
420.521	2292.19
420.729	2183.65
420.937	2425.31
421.145	2503.13
421.353	2636.25
421.561	2734.55
421.769	2707.93
421.977	2963.92
422.185	2781.65
422.393	3043.79
422.601	3299.79
422.809	3236.3
423.017	3271.12
423.224	3383.76
423.432	3596.75
423.64	3523.02
423.848	3869.12
424.056	3746.25
424.263	3994.05
424.471	4239.81
424.679	4088.26
424.887	4436.41
425.094	4399.55
425.302	4397.5
425.51	4645.31
425.718	4839.86
425.925	4854.2
426.133	5071.28
426.341	5374.38
426.548	5489.07
426.756	5693.87
426.964	5726.63
427.171	5937.57
427.379	6162.85
427.586	6271.39
427.794	6310.3
428.001	6771.1
428.209	6918.55
428.417	6982.04
428.624	7301.52
428.832	7238.03
429.039	7311.76
429.247	7338.38
429.454	7901.58
429.662	8571.26
429.869	8044.93
430.076	8604.03
430.284	8196.48
430.491	8823.16
430.699	9126.26
430.906	9222.52
431.114	9068.92
431.321	9587.05
431.528	9877.87
431.736	10451.3
431.943	11059.54
432.15	10633.57
432.358	10799.45
432.565	11444.56
432.772	11112.79
432.979	11989.32
433.187	12114.25
433.394	12101.96
433.601	13021.5
433.808	13062.46
434.016	13025.59
434.223	13609.26
434.43	14526.75
434.637	14053.67
434.844	14985.5
435.052	15456.53
435.259	15188.25
435.466	15286.55
435.673	15157.53
435.88	16376.07
436.087	16732.42
436.294	17228.03
436.501	16494.85
436.708	17086.72
436.915	17830.13
437.122	18327.78
437.329	18440.42
437.537	19013.85
437.743	19312.86
437.95	19032.29
438.157	20123.85
438.364	20836.55
438.571	20625.61
438.778	20820.16
438.985	22786.21
439.192	21934.26
439.399	22710.44
439.606	22096.05
439.813	23066.78
440.02	24621.19
440.227	24357
440.433	23922.83
440.64	24989.83
440.847	24600.71
441.054	25493.63
441.261	26734.7
441.467	26585.19
441.674	27312.22
441.881	28067.92
442.088	28022.87
442.294	27609.18
442.501	28674.12
442.708	29098.05
442.914	30165.04
443.121	31506.46
443.328	30658.6
443.534	33058.82
443.741	31588.38
443.948	31295.52
444.154	33955.83
444.361	33411.07
444.568	33724.41
444.774	33744.89
444.981	34109.43
445.187	35149.8
445.394	36693.97
445.6	36315.09
445.807	39221.16
446.013	37949.37
446.22	38385.59
446.426	40380.31
446.633	40380.31
446.839	41570.18
447.046	39810.98
447.252	42084.22
447.459	42422.14
447.665	42626.93
447.871	44216.16
448.078	45670.22
448.284	43777.89
448.491	44773.2
448.697	46735.16
448.903	46980.92
449.11	47669.03
449.316	46868.28
449.522	47515.43
449.728	48908.05
449.935	49151.76
450.141	49112.85
450.347	50284.29
450.553	48594.71
450.76	49354.51
450.966	50845.43
451.172	50247.43
451.378	51513.07
451.584	50726.65
451.791	52070.12
451.997	51879.66
452.203	52451.04
452.409	52483.81
452.615	52008.68
452.821	50538.24
453.027	49913.61
453.233	52569.82
453.44	50407.17
453.646	50614.01
453.852	51422.96
454.058	51920.62
454.264	50507.52
454.47	51465.97
454.676	50061.06
454.882	51986.15
455.088	47716.14
455.294	48275.23
455.5	49024.79
455.705	49645.32
455.911	47968.04
456.117	46825.27
456.323	46270.27
456.529	43759.46
456.735	45922.12
456.941	44570.46
457.147	43392.87
457.352	42528.63
457.558	42022.78
457.764	42358.65
457.97	41394.06
458.176	40398.74
458.381	40423.32
458.587	38471.6
458.793	38555.57
458.999	36603.86
459.204	39276.46
459.41	38062.01
459.616	35461.09
459.821	35551.2
460.027	35538.91
460.233	34557.94
460.438	33132.55
460.644	33355.78
460.85	32047.13
461.055	31510.56
461.261	31174.69
461.466	29161.54
461.672	28342.35
461.878	29878.33
462.083	27953.24
462.289	27521.12
462.494	27514.97
462.7	26263.66
462.905	25636.98
463.111	26513.52
463.316	26478.7
463.522	25942.13
463.727	25835.64
463.932	25854.07
464.138	25792.63
464.343	25395.32
464.549	24608.9
464.754	25340.03
464.959	25591.93
465.165	25487.48
465.37	24338.57
465.575	23472.28
465.781	24709.25
465.986	25008.26
466.191	23984.27
466.397	23441.56
466.602	22124.72
466.807	23074.98
467.012	23009.44
467.218	22835.36
467.423	22804.64
467.628	22995.11
467.833	23816.34
468.038	22741.16
468.244	22325.42
468.449	22966.43
468.654	22292.65
468.859	22012.08
469.064	22012.08
469.269	21379.26
469.474	21293.24
469.679	21688.5
469.885	21033.15
470.09	21774.52
470.295	21274.81
470.5	21067.97
470.705	20936.9
470.91	20330.7
471.115	20519.11
471.32	20521.16
471.525	20271.31
471.73	19796.18
471.935	19990.73
472.139	19278.04
472.344	19368.15
472.549	19294.43
472.754	19163.36
472.959	18596.07
473.164	18223.34
473.369	18131.18
473.574	18508.01
473.778	18720.99
473.983	18305.26
474.188	18114.8
474.393	17559.8
474.598	17791.22
474.802	17381.62
475.007	17436.92
475.212	17297.66
475.417	16718.08
475.621	16666.88
475.826	16820.48
476.031	16214.28
476.235	15952.14
476.44	16412.93
476.645	15919.37
476.849	16048.4
477.054	15972.62
477.259	15653.14
477.463	15755.54
477.668	15012.12
477.872	15472.92
478.077	15173.91
478.282	14829.85
478.486	14756.13
478.691	14444.84
478.895	14373.16
479.1	14508.32
479.304	14215.46
479.509	13955.37
479.713	14231.85
479.918	14076.2
480.122	13803.82
480.326	14088.49
480.531	14088.49
480.735	13758.77
480.94	13574.45
481.144	14172.46
481.348	13523.25
481.553	13582.64
481.757	13429.04
481.961	13435.19
482.166	13668.66
482.37	13730.09
482.574	13209.91
482.778	13187.38
482.983	13639.98
483.187	13336.88
483.391	13392.18
483.595	13390.13
483.8	13115.7
484.004	13650.22
484.208	13625.65
484.412	13345.08
484.616	13439.28
484.821	13340.98
485.025	13205.81
485.229	13658.42
485.433	13076.79
485.637	13154.62
485.841	13367.6
486.045	13238.58
486.249	13519.15
486.453	13224.25
486.657	13203.77
486.861	13472.05
487.065	13244.73
487.269	13322.55
487.473	13435.19
487.677	13379.89
487.881	13517.11
488.085	13383.99
488.289	13320.5
488.493	13234.49
488.697	13531.44
488.901	13517.11
489.105	13392.18
489.309	13582.64
489.512	13334.84
489.716	13484.34
489.92	13449.52
490.124	13574.45
490.328	13781.29
490.531	13504.82
490.735	13592.88
490.939	13689.14
491.143	13754.67
491.346	13760.81
491.55	14027.05
491.754	13783.34
491.958	14102.82
492.161	13965.61
492.365	13965.61
492.569	13969.71
492.772	14016.81
492.976	14061.87
493.18	14121.26
493.383	14285.09
493.587	14698.78
493.79	14637.34
493.994	14346.53
494.197	14645.54
494.401	14774.56
494.605	14676.26
494.808	14946.59
495.012	14868.77
495.215	15073.56
495.419	15132.95
495.622	15216.92
495.825	15229.21
496.029	15403.28
496.232	15937.8
496.436	15724.82
496.639	16007.44
496.843	16165.13
497.046	16232.71
497.249	16345.35
497.453	16482.56
497.656	16722.18
497.859	16875.77
498.063	16906.49
498.266	17135.87
498.469	16965.89
498.673	17395.96
498.876	17797.36
499.079	17672.43
499.282	17799.41
499.485	18381.03
499.689	18217.19
499.892	18626.79
500.095	18651.36
500.298	19179.74
500.501	18829.54
500.705	19511.51
500.908	19466.45
501.111	20060.37
501.314	20017.36
501.517	20486.34
501.72	20287.69
501.923	20422.86
502.126	20832.45
502.329	21145.79
502.532	21145.79
502.735	21436.6
502.938	21981.36
503.141	21643.45
503.344	22186.16
503.547	22376.62
503.75	22429.87
503.953	22794.4
504.156	22683.81
504.359	23355.55
504.562	23333.02
504.765	23873.68
504.968	24154.26
505.17	24385.68
505.373	24078.48
505.576	25159.81
505.779	24918.15
505.982	25282.69
506.185	25600.12
506.387	25577.59
506.59	26046.58
506.793	26562.67
506.996	26667.11
507.198	27234.4
507.401	26697.83
507.604	27502.68
507.807	27680.86
508.009	28096.6
508.212	28190.8
508.415	28635.21
508.617	28766.28
508.82	28975.17
509.022	28975.17
509.225	29648.96
509.428	29925.43
509.63	30079.03
509.833	30179.38
510.035	30765.1
510.238	30976.04
510.44	31234.08
510.643	31592.48
510.845	32043.03
511.048	31989.78
511.25	32516.11
511.453	32647.18
511.655	33824.76
511.858	33054.73
512.06	33230.85
512.262	33675.26
512.465	33765.37
512.667	34359.28
512.87	34742.25
513.072	34605.04
513.274	35708.9
513.477	35725.28
513.679	36167.64
513.881	36757.46
514.084	36710.35
514.286	36648.91
514.488	37132.23
514.69	37998.52
514.893	38035.39
515.095	38412.21
515.297	38848.43
515.499	38487.99
515.701	39055.28
515.904	39743.39
516.106	39894.94
516.308	40267.67
516.51	40796.05
516.712	40902.54
516.914	40912.78
517.116	41682.82
517.318	41281.42
517.52	41928.58
517.722	42356.6
517.925	42825.59
518.127	42956.66
518.329	43134.83
518.531	43032.43
518.733	43923.3
518.935	43937.63
519.136	44328.8
519.338	44994.39
519.54	44836.69
519.742	45426.51
519.944	45680.45
520.146	46423.87
520.348	46307.13
520.55	46503.74
520.752	46944.05
520.954	47927.08
521.155	47193.9
521.357	48357.15
521.559	48154.4
521.761	48938.77
521.963	48758.55
522.164	49088.27
522.366	49454.86
522.568	50087.68
522.77	49725.19
522.971	50534.14
523.173	50491.13
523.375	50618.11
523.576	51263.22
523.778	51029.75
523.98	51564.27
524.181	51912.42
524.383	52086.5
524.584	52299.49
524.786	52379.36
524.988	52285.15
525.189	52588.25
525.391	53302.99
525.592	53485.26
525.794	53370.58
525.995	53872.33
526.197	53614.29
526.398	53901
526.6	54404.8
526.801	54412.99
527.003	54924.99
527.204	54824.64
527.406	55099.06
527.607	55242.42
527.808	55180.98
528.01	54873.79
528.211	55549.62
528.412	56430.24
528.614	56041.13
528.815	55711.41
529.016	56420
529.218	56112.81
529.419	55764.65
529.62	56358.56
529.822	55942.83
530.023	56227.49
530.224	56506.02
530.425	56395.43
530.626	56125.1
530.828	56379.04
531.029	57714.32
531.23	56491.68
531.431	56917.66
531.632	56719.01
531.833	56934.04
532.035	56700.57
532.236	57460.37
532.437	57228.95
532.638	56960.67
532.839	57419.41
533.04	57495.19
533.241	57112.22
533.442	57861.77
533.643	57540.24
533.844	57458.32
534.045	57646.74
534.246	57097.88
534.447	57624.21
534.648	57495.19
534.849	57702.03
535.05	57097.88
535.251	57298.58
535.451	57249.43
535.652	57663.12
535.853	57587.35
536.054	57534.1
536.255	57788.05
536.456	56739.49
536.657	58150.54
536.857	57312.92
537.058	57013.91
537.259	57859.73
537.46	57919.12
537.66	57468.56
537.861	57370.26
538.062	57472.66
538.263	57783.95
538.463	57028.25
538.664	56880.8
538.865	57786
539.065	57587.35
539.266	57050.78
539.466	57634.45
539.667	56589.98
539.868	57738.89
540.068	57482.9
540.269	56936.09
540.469	57472.66
540.67	57247.38
540.87	57171.61
541.071	57405.08
541.271	57441.94
541.472	56962.71
541.672	57081.5
541.873	56698.53
542.073	56331.94
542.274	57652.88
542.474	56706.72
542.675	56512.16
542.875	57095.83
543.075	56977.05
543.276	56469.15
543.476	57136.79
543.676	56858.27
543.877	57388.69
544.077	56862.36
544.277	56512.16
544.478	56518.31
544.678	57071.26
544.878	56546.98
545.078	56807.07
545.279	56528.55
545.479	56358.56
545.679	56848.03
545.879	56536.74
546.079	56497.83
546.28	56956.57
546.48	56362.66
546.68	56962.71
546.88	56366.76
547.08	56768.16
547.28	56551.07
547.48	55987.88
547.68	56506.02
547.88	56456.87
548.081	57112.22
548.281	56544.93
548.481	56247.97
548.681	56970.91
548.881	56739.49
549.081	56536.74
549.28	56477.35
549.48	56741.53
549.68	56518.31
549.88	56770.21
550.08	55846.57
550.28	56503.97
550.48	56231.59
550.68	56481.44
550.88	56352.42
551.08	56239.78
551.279	56424.1
551.479	56182.44
551.679	56114.86
551.879	55887.53
552.079	56542.88
552.278	56129.19
552.478	56207.01
552.678	56385.19
552.878	56288.93
553.077	56071.85
553.277	55654.06
553.477	56348.32
553.676	55719.6
553.876	56080.04
554.076	56053.42
554.275	55568.05
554.475	55414.45
554.674	56217.25
554.874	55674.54
555.074	55940.78
555.273	56331.94
555.473	56172.2
555.672	55371.44
555.872	55301.81
556.071	55449.27
556.271	55908.01
556.47	55674.54
556.67	55060.15
556.869	55418.55
557.068	55578.29
557.268	55125.69
557.467	54920.89
557.667	54818.49
557.866	55502.51
558.065	54976.19
558.265	54877.88
558.464	54931.13
558.663	55428.79
558.863	54499.01
559.062	55553.71
559.261	54331.07
559.461	55297.72
559.66	54456
559.859	55000.76
560.058	54535.87
560.258	54757.05
560.457	54238.92
560.656	54826.68
560.855	54077.13
561.054	54224.58
561.253	53941.96
561.453	54183.62
561.652	54007.5
561.851	54412.99
562.05	53892.81
562.249	53612.24
562.448	54257.35
562.647	53735.12
562.846	53616.33
563.045	53798.6
563.244	53178.07
563.443	53761.74
563.642	52917.98
563.841	53579.47
564.04	53059.29
564.239	54206.15
564.438	53092.05
564.637	53341.91
564.836	53573.33
565.035	52299.49
565.234	52885.21
565.432	52590.3
565.631	52612.83
565.83	53030.61
566.029	52451.04
566.228	52410.08
566.427	52602.59
566.625	52018.92
566.824	51912.42
567.023	52268.77
567.222	51447.53
567.42	52152.04
567.619	51832.55
567.818	51814.12
568.016	51453.68
568.215	51832.55
568.414	51445.49
568.612	52039.4
568.811	51472.11
569.01	51218.16
569.208	51021.56
569.407	51267.31
569.605	50489.09
569.804	51422.96
570.002	50853.62
570.201	51148.53
570.4	50335.49
570.598	50368.26
570.797	50167.55
570.995	50384.64
571.193	49635.08
571.392	50378.5
571.59	49964.81
571.789	50532.09
571.987	50048.77
572.186	49575.69
572.384	49463.05
572.582	49606.41
572.781	49186.58
572.979	49024.79
573.177	49168.15
573.376	49575.69
573.574	48776.98
573.772	48973.59
573.971	49159.95
574.169	48389.92
574.367	47890.21
574.565	48482.08
574.763	48346.91
574.962	48404.25
575.16	47992.61
575.358	47826.73
575.556	47957.8
575.754	48320.29
575.952	47609.64
576.151	47968.04
576.349	47492.91
576.547	47630.12
576.745	47535.91
576.943	47234.86
577.141	46831.41
577.339	47746.86
577.537	46958.39
577.735	46737.21
577.933	46651.19
578.131	46649.14
578.329	46460.73
578.527	46475.07
578.725	46090.05
578.923	46665.53
579.121	46032.71
579.319	46137.15
579.516	46141.25
579.714	45817.67
579.912	45768.52
580.11	45578.06
580.308	45285.2
580.506	45674.31
580.704	44984.15
580.901	45326.16
581.099	45707.08
581.297	45164.37
581.495	45188.94
581.692	44787.54
581.89	44818.26
582.088	45107.02
582.285	44621.66
582.483	44711.77
582.681	44752.73
582.878	44377.95
583.076	43978.59
583.274	44332.89
583.471	43585.38
583.669	43577.19
583.866	43323.24
584.064	43659.11
584.262	43362.15
584.459	43511.66
584.657	43132.78
584.854	43583.33
585.052	42665.84
585.249	43292.52
585.447	42895.22
585.644	42628.98
585.841	42659.7
586.039	43100.01
586.236	42622.84
586.434	42203
586.631	42133.37
586.828	42477.43
587.026	41965.44
587.223	41799.55
587.42	41705.35
587.618	41668.48
587.815	41584.52
588.012	41480.07
588.21	41093
588.407	41957.25
588.604	41179.02
588.801	40910.74
588.999	40986.51
589.196	40576.92
589.393	40757.14
589.59	40372.12
589.787	40318.87
589.984	40499.09
590.182	40134.56
590.379	40097.69
590.576	39716.77
590.773	40011.68
590.97	39905.18
591.167	40054.68
591.364	39206.83
591.561	40048.54
591.758	39081.9
591.955	38881.2
592.152	39301.03
592.349	38944.69
592.546	38993.84
592.743	38873.01
592.94	38619.06
593.137	38592.44
593.334	39049.13
593.531	37926.85
593.727	38500.28
593.924	38295.48
594.121	37904.32
594.318	38201.27
594.515	37785.54
594.712	38186.94
594.908	37842.88
595.105	37824.45
595.302	37107.66
595.499	37425.09
595.696	37242.82
595.892	37228.49
596.089	37140.43
596.286	36986.83
596.482	36831.18
596.679	36620.24
596.876	36919.24
597.072	36646.86
597.269	36706.26
597.466	36202.46
597.662	36329.43
597.859	36112.34
598.055	36194.26
598.252	35956.7
598.448	35874.78
598.645	35872.73
598.841	35780.57
599.038	35872.73
599.234	35248.1
599.431	35258.34
599.627	35024.87
599.824	35233.77
600.02	34818.03
600.217	34920.43
600.413	34596.85
600.609	34711.53
600.806	34349.04
601.002	34940.91
601.198	34512.88
601.395	34285.56
601.591	33945.59
601.787	34187.25
601.984	33626.11
602.18	34091
602.376	33724.41
602.572	33624.06
602.769	33492.99
602.965	33257.48
603.161	33677.31
603.357	32940.04
603.553	33523.71
603.75	33056.78
603.946	32897.03
604.142	33239.04
604.338	32999.43
604.534	32845.83
604.73	32278.55
604.926	32444.43
605.122	32440.34
605.318	32217.11
605.514	32296.98
605.71	32020.5
605.906	31821.85
606.102	32147.48
606.298	32122.9
606.494	32026.65
606.69	32061.46
606.886	31774.75
607.082	31105.06
607.278	31922.2
607.474	31268.9
607.67	31541.28
607.866	30998.57
608.062	31254.56
608.257	31074.34
608.453	31285.28
608.649	31191.08
608.845	31021.09
609.041	30896.17
609.236	31041.57
609.432	30693.42
609.628	30930.98
609.824	30617.64
610.019	30621.74
610.215	30627.88
610.411	30545.97
610.606	30322.74
610.802	30466.1
610.998	30230.58
611.193	30210.1
611.389	29945.91
611.584	30142.52
611.78	29986.87
611.976	29923.38
612.171	29839.42
612.367	29597.76
612.562	29321.28
612.758	29147.2
612.953	29388.86
613.149	29882.42
613.344	29595.71
613.539	30044.21
613.735	29605.95
613.93	29685.82
614.126	28770.38
614.321	29472.83
614.517	29323.33
614.712	29118.53
614.907	29069.38
615.103	29509.69
615.298	29040.71
615.493	29167.68
615.688	28840.01
615.884	29120.58
616.079	28635.21
616.274	28940.36
616.47	28672.07
616.665	28913.73
616.86	28645.45
617.055	28430.41
617.25	28682.31
617.445	28487.76
617.641	27879.51
617.836	28219.47
618.031	27713.63
618.226	28119.12
618.421	27906.13
618.616	28102.74
618.811	27531.36
619.006	27854.93
619.201	27418.72
619.396	27793.5
619.591	26923.11
619.786	27406.43
619.981	27088.99
620.176	27390.05
620.371	26523.76
620.566	26826.85
620.761	26744.94
620.956	26761.32
621.151	26280.05
621.346	26708.07
621.541	25987.19
621.735	26249.33
621.93	26073.2
622.125	26130.55
622.32	25778.29
622.515	25632.89
622.709	25415.8
622.904	25593.98
623.099	25653.37
623.294	25460.86
623.488	24912
623.683	25002.11
623.878	24627.34
624.072	24803.46
624.267	24787.08
624.462	24281.23
624.656	24211.6
624.851	24318.09
625.046	23967.89
625.24	24490.12
625.435	23789.72
625.629	23658.65
625.824	23642.26
626.018	23558.3
626.213	23193.76
626.407	23439.51
626.602	22952.1
626.796	23175.33
626.991	22925.47
627.185	23036.06
627.38	22722.73
627.574	22511.78
627.768	22249.64
627.963	22253.74
628.157	22016.18
628.352	22100.14
628.546	21817.52
628.74	21883.06
628.935	21610.68
629.129	21708.98
629.323	21213.37
629.517	21276.86
629.712	21098.69
629.906	20912.32
630.1	20897.99
630.294	20863.17
630.489	20658.37
630.683	20699.33
630.877	20580.55
631.071	20367.56
631.265	20447.43
631.459	20418.76
631.653	20283.59
631.848	19859.66
632.042	19951.82
632.236	19851.47
632.43	19603.67
632.624	19665.11
632.818	19695.83
633.012	19114.2
633.206	19368.15
633.4	19452.12
633.594	18911.46
633.788	18847.97
633.982	19106.01
634.176	18913.5
634.369	18663.65
634.563	18579.68
634.757	18395.37
634.951	18790.63
635.145	18239.72
635.339	18387.18
635.533	18041.07
635.726	18370.79
635.92	17774.83
636.114	17930.48
636.308	17723.63
636.501	17641.71
636.695	17768.69
636.889	17654
637.083	17246.46
637.276	17287.42
637.47	17187.07
637.664	17316.09
637.857	17363.19
638.051	17021.18
638.244	16849.15
638.438	17015.04
638.632	16679.17
638.825	16820.48
639.019	16654.59
639.212	16324.87
639.406	16527.62
639.599	16402.69
639.793	16343.3
639.986	15911.18
640.18	16320.77
640.373	15976.72
640.567	15917.33
640.76	15569.17
640.954	15802.64
641.147	15509.78
641.34	15399.19
641.534	15483.16
641.727	15302.93
641.92	15323.41
642.114	15143.19
642.307	15370.52
642.5	15046.94
642.694	14954.78
642.887	14848.29
643.08	15061.27
643.273	14698.78
643.467	14836
643.66	14518.56
643.853	14434.6
644.046	14358.82
644.239	14577.95
644.432	14440.74
644.626	14059.82
644.819	14051.63
645.012	14086.44
645.205	14197.03
645.398	14065.96
645.591	13535.54
645.784	13859.12
645.977	13619.5
646.17	13703.47
646.363	13650.22
646.556	13316.4
646.749	13560.11
646.942	13392.18
647.135	13250.87
647.328	13424.95
647.521	13082.94
647.714	13009.21
647.907	13246.77
648.099	13084.98
648.292	12970.3
648.485	12894.52
648.678	12790.08
648.871	12785.98
649.064	12564.8
649.256	12663.1
649.449	12556.61
649.642	12550.46
649.835	12378.44
650.027	12265.8
650.22	12237.13
650.413	12216.65
650.605	11891.02
650.798	11960.65
650.991	11823.44
651.183	11940.17
651.376	11766.09
651.568	12028.23
651.761	11583.82
651.954	11682.13
652.146	11546.96
652.339	11682.13
652.531	11481.42
652.724	11452.75
652.916	11467.09
653.109	11192.66
653.301	11360.59
653.494	11256.15
653.686	11055.45
653.879	11207
654.071	10903.9
654.263	10991.96
654.456	11123.03
654.648	10957.14
654.84	10606.94
655.033	10793.31
655.225	10711.39
655.417	10633.57
655.61	10549.6
655.802	10668.38
655.994	10398.05
656.186	10467.68
656.379	10289.51
656.571	10510.69
656.763	10402.15
656.955	10072.42
657.148	10299.75
657.34	10199.4
657.532	10033.51
657.724	10031.46
657.916	9970.02
658.108	9890.15
658.3	9701.74
658.492	10058.09
658.684	9644.4
658.876	9625.97
659.068	9857.39
659.26	9701.74
659.452	9546.09
659.644	9589.1
659.836	9578.86
660.028	9617.77
660.22	9193.84
660.412	9374.06
660.604	9277.81
660.796	9077.11
660.988	9337.2
661.18	9113.97
661.372	9048.44
661.563	8972.66
661.755	8966.52
661.947	8821.11
662.139	9118.07
662.331	8907.13
662.522	8784.25
662.714	8800.63
662.906	8604.03
663.097	8769.91
663.289	8597.88
663.481	8477.05
663.673	8520.06
663.864	8536.45
664.056	8442.24
664.247	8434.05
664.439	8288.64
664.631	8393.09
664.822	8182.15
665.014	8317.31
665.205	8237.44
665.397	8343.94
665.588	8388.99
665.78	8059.27
665.971	8055.17
666.163	8077.7
666.354	7913.86
666.546	7950.73
666.737	7899.53
666.929	7903.62
667.12	7719.31
667.311	7774.6
667.503	7672.2
667.694	7780.75
667.885	7735.69
668.077	7682.44
668.268	7664.01
668.459	7551.37
668.651	7678.35
668.842	7475.6
669.033	7549.32
669.224	7319.95
669.416	7358.86
669.607	7283.09
669.798	7240.08
669.989	7438.73
670.18	7410.06
670.371	7287.18
670.563	7248.27
670.754	7158.16
670.945	7125.4
671.136	7100.82
671.327	7031.19
671.518	7178.64
671.709	7051.67
671.9	6936.98
672.091	6816.15
672.282	6916.5
672.473	6736.28
672.664	6988.18
672.855	6793.62
673.046	6730.14
673.237	6728.09
673.428	6736.28
673.619	7006.61
673.809	6506.91
674	6740.38
674.191	6871.45
674.382	6513.05
674.573	6660.51
674.764	6551.96
674.954	6494.62
675.145	6390.17
675.336	6498.72
675.527	6451.61
675.717	6414.75
675.908	6502.81
676.099	6341.02
676.289	6416.8
676.48	6351.26
676.671	6424.99
676.861	6242.72
677.052	6214.05
677.243	6259.1
677.433	6144.42
677.624	6332.83
677.814	6095.27
678.005	6269.34
678.195	6031.78
678.386	6316.45
678.576	6193.57
678.767	6076.84
678.957	6164.9
679.148	6109.6
679.338	6046.12
679.529	5999.01
679.719	5884.33
679.909	5917.09
680.1	6076.84
680.29	6005.16
680.481	5941.67
680.671	5999.01
680.861	5810.6
681.052	5818.79
681.242	5886.37
681.432	5841.32
681.622	5792.17
681.813	5783.98
682.003	5732.78
682.193	5743.02
682.383	5824.94
682.573	5820.84
682.764	5697.96
682.954	5613.99
683.144	5663.15
683.334	5501.36
683.524	5460.4
683.714	5511.6
683.904	5638.57
684.094	5505.45
684.284	5654.95
684.474	5659.05
684.664	5448.11
684.854	5548.46
685.044	5292.46
685.234	5431.73
685.424	5398.96
685.614	5503.4
685.804	5382.57
685.994	5501.36
686.184	5337.52
686.374	5374.38
686.564	5145.01
686.753	5226.93
686.943	5243.31
687.133	5321.13
687.323	5366.19
687.513	5163.44
687.702	5026.23
687.892	5112.24
688.082	5024.18
688.272	4962.74
688.461	4991.41
688.651	5018.04
688.841	4936.12
689.03	5015.99
689.22	5058.99
689.41	4979.12
689.599	4839.86
689.789	4893.11
689.979	4936.12
690.168	4856.25
690.358	4856.25
690.547	4794.81
690.737	4776.38
690.926	4708.79
691.116	4583.87
691.305	4721.08
691.495	4596.15
691.684	4698.55
691.874	4741.56
692.063	4397.5
692.252	4612.54
692.442	4575.67
692.631	4524.47
692.82	4585.91
693.01	4446.65
693.199	4381.12
693.388	4518.33
693.578	4598.2
693.767	4409.79
693.956	4385.21
694.146	4276.67
694.335	4327.87
694.524	4213.18
694.713	4297.15
694.902	4377.02
695.092	4284.86
695.281	4231.62
695.47	4225.47
695.659	4180.42
695.848	4192.7
696.037	4178.37
696.226	4159.94
696.415	4168.13
696.604	4182.46
696.793	4065.73
696.982	4155.84
697.171	4155.84
697.36	4061.63
697.549	4096.45
697.738	4026.82
697.927	4114.88
698.116	3891.65
698.305	4211.14
698.494	4002.24
698.683	4051.39
698.872	3967.43
699.061	3856.84
699.25	4008.39
699.438	3885.51
699.627	3889.6
699.816	4057.54
700.005	4026.82
700.193	3869.12
700.382	3949
700.571	3922.37
700.76	4012.48
700.948	3879.36
701.137	3815.88
701.326	3869.12
701.514	3858.89
701.703	3932.61
701.892	3811.78
702.08	3875.27
702.269	3781.06
702.457	3801.54
702.646	3885.51
702.834	3860.93
703.023	3774.92
703.212	3682.76
703.4	3703.24
703.589	3635.66
703.777	3682.76
703.965	3701.19
704.154	3617.22
704.342	3578.31
704.531	3588.55
704.719	3635.66
704.907	3793.35
705.096	3619.27
705.284	3680.71
705.472	3625.42
705.661	3568.07
705.849	3617.22
706.037	3654.09
706.226	3711.43
706.414	3635.66
706.602	3721.67
706.79	3629.51
706.979	3555.79
707.167	3484.11
707.355	3494.35
707.543	3443.15
707.731	3566.03
707.919	3416.52
708.107	3420.62
708.296	3555.79
708.484	3424.72
708.672	3570.12
708.86	3434.96
709.048	3430.86
709.236	3291.6
709.424	3584.46
709.612	3408.33
709.8	3359.18
709.988	3465.68
710.176	3363.28
710.364	3389.9
710.551	3379.66
710.739	3279.31
710.927	3400.14
711.115	3275.21
711.303	3445.2
711.491	3383.76
711.679	3412.43
711.866	3340.75
712.054	3344.84
712.242	3402.19
712.43	3410.38
712.617	3303.89
712.805	3363.28
712.993	3324.37
713.181	3201.49
713.368	3348.94
713.556	3260.88
713.744	3254.73
713.931	3330.51
714.119	3299.79
714.306	3246.54
714.494	3256.78
714.682	3209.68
714.869	3213.77
715.057	3164.62
715.244	3197.39
715.432	3152.34
715.619	3078.61
715.807	3289.55
715.994	3195.34
716.182	3160.53
716.369	3107.28
716.556	3115.47
716.744	3058.13
716.931	3049.94
717.119	3152.34
717.306	3103.18
717.493	3129.81
717.681	3156.43
717.868	3068.37
718.055	3056.08
718.242	3006.93
718.43	3109.33
718.617	2978.26
718.804	3019.22
718.991	3000.79
719.179	3113.42
719.366	3181.01
719.553	2990.55
719.74	3109.33
719.927	3160.53
720.114	2972.11
720.301	3019.22
720.488	2791.89
720.676	2914.77
720.863	2927.06
721.05	2994.64
721.237	2992.59
721.424	2982.35
721.611	3008.98
721.798	2953.68
721.985	2851.28
722.172	2918.87
722.358	2970.07
722.545	3011.03
722.732	2912.72
722.919	3092.94
723.106	2857.43
723.293	2861.52
723.48	2996.69
723.667	2990.55
723.853	2828.76
724.04	3015.12
724.227	3002.83
724.414	2918.87
724.6	2927.06
724.787	2884.05
724.974	2836.95
725.161	2841.04
725.347	2683.35
725.534	2841.04
725.72	2816.47
725.907	2826.71
726.094	2752.98
726.28	2845.14
726.467	2916.82
726.653	2699.73
726.84	2916.82
727.027	2806.23
727.213	2800.09
727.4	2683.35
727.586	2836.95
727.773	2578.9
727.959	2732.5
728.145	2746.84
728.332	2630.1
728.518	2701.78
728.705	2755.03
728.891	2744.79
729.077	2828.76
729.264	2732.5
729.45	2716.12
729.636	2705.88
729.823	2816.47
730.009	2638.3
730.195	2718.17
730.382	2658.78
730.568	2660.82
730.754	2601.43
730.94	2689.49
731.126	2617.82
731.313	2634.2
731.499	2785.75
731.685	2662.87
731.871	2591.19
732.057	2750.93
732.243	2644.44
732.429	2669.02
732.615	2767.32
732.801	2705.88
732.987	2679.26
733.173	2546.14
733.359	2644.44
733.545	2580.95
733.731	2556.38
733.917	2484.7
734.103	2591.19
734.289	2609.62
734.475	2560.47
734.661	2675.16
734.847	2496.99
735.033	2507.23
735.219	2478.55
735.404	2529.75
735.59	2560.47
735.776	2630.1
735.962	2523.61
736.148	2525.66
736.333	2505.18
736.519	2451.93
736.705	2597.34
736.89	2519.51
737.076	2523.61
737.262	2406.88
737.447	2609.62
737.633	2494.94
737.819	2535.9
738.004	2484.7
738.19	2462.17
738.375	2550.23
738.561	2441.69
738.747	2435.55
738.932	2456.03
739.118	2408.92
739.303	2447.83
739.489	2415.07
739.674	2476.51
739.859	2269.66
740.045	2392.54
740.23	2146.78
740.416	2265.57
740.601	2300.38
740.786	2374.11
740.972	2378.2
741.157	2380.25
741.342	2286.05
741.528	2296.28
741.713	2378.2
741.898	2197.98
742.084	2367.96
742.269	2251.23
742.454	2314.72
742.639	2347.48
742.824	2224.61
743.01	2327
743.195	2333.15
743.38	2238.94
743.565	2146.78
743.75	2150.88
743.935	2122.21
744.12	2187.74
744.305	2165.21
744.49	2116.06
744.675	2126.3
744.86	2105.82
745.045	2126.3
745.23	2095.58
745.415	2093.54
745.6	2142.69
745.785	2105.82
745.97	2038.24
746.155	2064.86
746.34	2120.16
746.525	1958.37
746.71	2138.59
746.895	2015.71
747.079	1964.51
747.264	2120.16
747.449	1954.27
747.634	2054.62
747.819	1944.03
748.003	1935.84
748.188	1935.84
748.373	1827.3
748.557	1886.69
748.742	1917.41
748.927	1800.68
749.111	1919.46
749.296	1860.07
749.481	1825.25
749.665	1909.22
749.85	1835.49
750.034	1823.2
750.219	1802.72
750.404	1798.63
750.588	1726.95
750.773	1786.34
750.957	1827.3
751.141	1833.44
751.326	1694.18
751.51	1782.24
751.695	1595.88
751.879	1677.8
752.064	1694.18
752.248	1548.78
752.432	1729
752.617	1808.87
752.801	1751.53
752.985	1640.93
753.17	1716.71
753.354	1612.26
753.538	1544.68
753.722	1567.21
753.907	1487.34
754.091	1538.54
754.275	1522.15
754.459	1452.52
754.643	1477.1
754.828	1466.86
755.012	1626.6
755.196	1536.49
755.38	1532.39
755.564	1429.99
755.748	1382.89
755.932	1559.02
756.116	1499.63
756.3	1399.27
756.484	1395.18
756.668	1376.75
756.852	1329.64
757.036	1376.75
757.22	1370.6
757.404	1278.44
757.588	1225.2
757.772	1307.12
757.956	1382.89
758.14	1370.6
758.323	1386.99
758.507	1294.83
758.691	1391.08
758.875	1327.6
759.059	1300.97
759.242	1337.84
759.426	1249.77
759.61	1198.57
759.794	1298.92
759.977	1300.97
760.161	1286.64
760.345	1270.25
760.528	1231.34
760.712	1106.42
760.895	1303.02
761.079	1188.33
761.263	1296.88
761.446	1196.53
761.63	1208.81
761.813	1221.1
761.997	1217.01
762.18	1151.47
762.364	1157.61
762.547	1061.36
762.731	1094.13
762.914	1087.98
763.098	1133.04
763.281	1192.43
763.464	1161.71
763.648	1128.94
763.831	1174
764.015	1145.33
764.198	1149.42
764.381	1065.46
764.564	1104.37
764.748	1004.02
764.931	1071.6
765.114	1057.26
765.297	938.48
765.481	1051.12
765.664	1092.08
765.847	1090.03
766.03	1055.22
766.213	946.67
766.397	999.92
766.58	1057.26
766.763	1022.45
766.946	950.77
767.129	1059.31
767.312	1001.97
767.495	995.82
767.678	1026.54
767.861	963.06
768.044	1055.22
768.227	975.35
768.41	965.11
768.593	989.68
768.776	928.24
768.959	963.06
769.142	922.1
769.324	1032.69
769.507	1028.59
769.69	924.15
769.873	1016.3
770.056	1004.02
770.239	887.28
770.421	963.06
770.604	899.57
770.787	958.96
770.97	928.24
771.152	903.67
771.335	860.66
771.518	858.61
771.7	887.28
771.883	889.33
772.066	870.9
772.248	922.1
772.431	844.28
772.613	868.85
772.796	907.76
772.978	907.76
773.161	889.33
773.343	809.46
773.526	858.61
773.708	793.08
773.891	827.89
774.073	766.45
774.256	860.66
774.438	881.14
774.621	860.66
774.803	793.08
774.985	840.18
775.168	756.21
775.35	729.59
775.532	791.03
775.715	700.92
775.897	745.97
776.079	739.83
776.261	864.75
776.444	776.69
776.626	768.5
776.808	756.21
776.99	707.06
777.173	719.35
777.355	690.68
777.537	743.92
777.719	635.38
777.901	741.88
778.083	797.17
778.265	737.78
778.447	705.01
778.629	678.39
778.811	705.01
778.993	690.68
779.175	635.38
779.357	668.15
779.539	672.25
779.721	571.9
779.903	682.49
780.085	715.25
780.267	692.73
780.449	653.81
780.631	692.73
780.812	598.52
780.994	606.71
781.176	545.27
781.358	506.36
781.54	662.01
781.721	555.51
781.903	604.66
782.085	590.33
782.267	549.37
782.448	559.61
782.63	535.03
782.812	553.46
782.993	543.22
783.175	655.86
783.357	606.71
783.538	567.8
783.72	580.09
783.901	571.9
784.083	473.59
784.264	578.04
784.446	643.57
784.627	526.84
784.809	561.66
784.99	555.51
785.172	494.07
785.353	530.94
785.535	489.98
785.716	567.8
785.897	532.98
786.079	442.87
786.26	514.55
786.441	467.45
786.623	475.64
786.804	416.25
786.985	420.35
787.167	516.6
787.348	444.92
787.529	477.69
787.71	424.44
787.891	399.87
788.073	383.48
788.254	438.78
788.435	426.49
788.616	510.46
788.797	383.48
788.978	463.35
789.159	399.87
789.34	504.31
789.522	336.38
789.703	315.9
789.884	440.83
790.065	383.48
790.246	434.68
790.427	342.52
790.607	487.93
790.788	432.63
790.969	387.58
791.15	385.53
791.331	412.15
791.512	399.87
791.693	348.67
791.874	393.72
792.054	430.59
792.235	356.86
792.416	256.51
792.597	334.33
792.778	430.59
792.958	369.15
793.139	334.33
793.32	311.8
793.5	375.29
793.681	354.81
793.862	356.86
794.042	313.85
794.223	336.38
794.404	354.81
794.584	336.38
794.765	344.57
794.945	322.04
795.126	315.9
795.306	381.43
795.487	324.09
795.667	233.98
795.848	242.17
796.028	369.15
796.209	344.57
796.389	301.56
796.57	365.05
796.75	328.19
796.93	356.86
797.111	330.23
797.291	297.47
797.471	293.37
797.652	309.76
797.832	276.99
798.012	328.19
798.192	305.66
798.373	360.95
798.553	233.98
798.733	299.52
798.913	254.46
799.093	285.18
799.274	367.1
799.454	305.66
799.634	307.71
799.814	281.08
799.994	264.7
800.174	254.46
800.354	313.85
800.534	311.8
800.714	348.67
800.894	268.8
801.074	240.12
801.254	242.17
801.434	233.98
801.614	231.93
801.794	211.45
801.974	575.99
802.154	262.65
802.334	205.31
802.514	238.08
802.693	268.8
802.873	164.35
803.053	225.79
803.233	262.65
803.413	164.35
803.592	285.18
803.772	147.97
803.952	236.03
804.131	250.36
804.311	270.84
804.491	195.07
804.67	170.49
804.85	195.07
805.03	100.86
805.209	289.28
805.389	182.78
805.568	217.6
805.748	256.51
805.928	182.78
806.107	211.45
806.287	197.12
806.466	201.21
806.646	141.82
806.825	197.12
807.004	195.07
807.184	201.21
807.363	215.55
807.543	205.31
807.722	207.36
807.901	211.45
808.081	223.74
808.26	207.36
808.439	121.34
808.619	174.59
808.798	217.6
808.977	188.93
809.156	231.93
809.336	213.5
809.515	197.12
809.694	113.15
809.873	160.25
810.052	197.12
810.231	174.59
810.411	182.78
810.59	172.54
810.769	176.64
810.948	150.01
811.127	190.97
811.306	274.94
811.485	215.55
811.664	178.69
811.843	88.57
812.022	203.26
812.201	211.45
812.38	207.36
812.559	121.34
812.737	215.55
812.916	168.45
813.095	133.63
813.274	154.11
813.453	135.68
813.632	117.25
813.811	180.73
813.989	123.39
814.168	141.82
814.347	199.16
814.526	135.68
814.704	209.4
814.883	147.97
815.062	123.39
815.24	182.78
815.419	129.53
815.598	94.72
815.776	186.88
815.955	145.92
816.133	131.58
816.312	100.86
816.49	113.15
816.669	143.87
816.847	147.97
817.026	205.31
817.204	145.92
817.383	123.39
817.561	115.2
817.74	160.25
817.918	162.3
818.097	111.1
818.275	109.05
818.453	129.53
818.632	86.53
818.81	115.2
818.988	178.69
819.167	168.45
819.345	166.4
819.523	127.49
819.701	152.06
819.879	145.92
820.058	164.35
820.236	164.35
820.414	137.73
820.592	104.96
820.77	117.25
820.948	80.38
821.127	82.43
821.305	135.68
821.483	37.38
821.661	127.49
821.839	82.43
822.017	66.05
822.195	150.01
822.373	139.77
822.551	29.18
822.729	168.45
822.907	127.49
823.085	211.45
823.262	150.01
823.44	164.35
823.618	135.68
823.796	141.82
823.974	61.95
824.152	123.39
824.329	84.48
824.507	109.05
824.685	82.43
824.863	160.25
825.04	96.77
825.218	59.9
825.396	119.29
825.574	27.14
825.751	111.1
825.929	133.63
826.107	45.57
826.284	186.88
826.462	133.63
826.639	100.86
826.817	-3.58
826.994	141.82
827.172	123.39
827.349	86.53
827.527	92.67
827.704	-1.54
827.882	123.39
828.059	80.38
828.237	129.53
828.414	66.05
828.591	115.2
828.769	104.96
828.946	86.53
829.124	84.48
829.301	176.64
829.478	117.25
829.655	129.53
829.833	92.67
830.01	53.76
830.187	96.77
830.364	51.71
830.542	82.43
830.719	88.57
830.896	102.91
831.073	47.62
831.25	111.1
831.427	129.53
831.604	143.87
831.782	94.72
831.959	133.63
832.136	45.57
832.313	53.76
832.49	61.95
832.667	156.16
832.844	100.86
833.021	109.05
833.198	51.71
833.374	121.34
833.551	53.76
833.728	47.62
833.905	109.05
834.082	107.01
834.259	117.25
834.436	147.97
834.612	90.62
834.789	111.1
834.966	76.29
835.143	0.51
835.319	45.57
835.496	119.29
835.673	92.67
835.85	109.05
836.026	43.52
836.203	111.1
836.38	94.72
836.556	25.09
836.733	90.62
836.909	98.81
837.086	29.18
837.262	18.94
837.439	49.66
837.616	102.91
837.792	88.57
837.968	72.19
838.145	92.67
838.321	68.09
838.498	104.96
838.674	84.48
838.851	80.38
839.027	84.48
839.203	16.9
839.38	70.14
839.556	70.14
839.732	25.09
839.909	29.18
840.085	61.95
840.261	88.57
840.437	107.01
840.614	47.62
840.79	74.24
840.966	57.86
841.142	-3.58
841.318	-19.97
841.494	55.81
841.671	64
841.847	29.18
842.023	123.39
842.199	29.18
842.375	70.14
842.551	23.04
842.727	31.23
842.903	78.33
843.079	107.01
843.255	125.44
843.431	51.71
843.607	0.51
843.783	8.7
843.959	141.82
844.134	33.28
844.31	139.77
844.486	45.57
844.662	-19.97
844.838	90.62
845.013	66.05
845.189	76.29
845.365	72.19
845.541	72.19
845.716	61.95
845.892	61.95
846.068	96.77
846.244	55.81
846.419	84.48
846.595	27.14
846.77	33.28
846.946	86.53
847.122	35.33
847.297	33.28
847.473	45.57
847.648	0.51
847.824	59.9
847.999	-7.68
848.175	78.33
848.35	78.33
848.526	45.57
848.701	68.09
848.876	59.9
849.052	55.81
849.227	-24.06
849.403	-26.11
849.578	111.1
849.753	14.85
849.929	31.23
850.104	57.86
850.279	23.04
850.454	29.18
850.63	66.05
850.805	12.8
850.98	14.85
851.155	49.66
851.33	94.72
851.505	49.66
851.681	98.81
851.856	53.76
852.031	45.57
852.206	43.52
852.381	82.43
852.556	23.04
852.731	57.86
852.906	51.71
853.081	53.76
853.256	8.7
853.431	-11.78
853.606	-5.63
853.781	20.99
853.956	59.9
854.131	8.7
854.305	61.95
854.48	43.52
854.655	20.99
854.83	-11.78
855.005	-44.54
855.18	55.81
855.354	8.7
855.529	82.43
855.704	45.57
855.879	14.85
856.053	-34.3
856.228	55.81
856.403	20.99
856.577	57.86
856.752	31.23
856.926	33.28
857.101	-19.97
857.276	59.9
857.45	31.23
857.625	129.53
857.799	43.52
857.974	14.85
858.148	4.61
858.323	72.19
858.497	37.38
858.672	4.61
858.846	84.48
859.02	80.38
859.195	86.53
859.369	76.29
859.543	-19.97
859.718	-36.35
859.892	102.91
860.066	86.53
860.241	-69.12
860.415	-19.97
860.589	-32.26
860.763	57.86
860.938	33.28
861.112	39.42
861.286	-22.02
861.46	53.76
861.634	-11.78
861.808	92.67
861.982	2.56
862.157	-7.68
862.331	-46.59
862.505	-11.78
862.679	-77.31
862.853	23.04
863.027	31.23
863.201	90.62
863.375	-44.54
863.549	72.19
863.722	23.04
863.896	66.05
864.07	-34.3
864.244	20.99
864.418	2.56
864.592	-13.82
864.766	33.28
864.939	61.95
865.113	-24.06
865.287	53.76
865.461	29.18
865.634	70.14
865.808	25.09
865.982	27.14
866.156	76.29
866.329	35.33
866.503	18.94
866.676	25.09
866.85	-1.54
867.024	72.19
867.197	70.14
867.371	82.43
867.544	16.9
867.718	27.14
867.891	31.23
868.065	96.77
868.238	-26.11
868.412	59.9
868.585	55.81
868.759	2.56
868.932	45.57
869.105	31.23
869.279	27.14
869.452	-85.5
869.625	20.99
869.799	18.94
869.972	-19.97
870.145	31.23
870.319	49.66
870.492	10.75
870.665	10.75
870.838	-22.02
871.011	-3.58
871.185	49.66
871.358	-38.4
871.531	78.33
871.704	-30.21
871.877	8.7
872.05	2.56
872.223	27.14
872.396	20.99
872.569	59.9
872.742	20.99
872.915	61.95
873.088	-5.63
873.261	-32.26
873.434	-34.3
873.607	35.33
873.78	35.33
873.953	43.52
874.126	-9.73
874.299	35.33
874.471	29.18
874.644	-1.54
874.817	29.18
874.99	-9.73
875.163	-87.55
875.335	57.86
875.508	53.76
875.681	37.38
875.853	8.7
876.026	-19.97
876.199	43.52
876.371	102.91
876.544	18.94
876.717	18.94
876.889	49.66
877.062	23.04
877.234	31.23
877.407	33.28
877.579	43.52
877.752	61.95
877.924	8.7
878.097	-11.78
878.269	78.33
878.442	-38.4
878.614	-9.73
878.786	12.8
878.959	10.75
879.131	8.7
879.303	0.51
879.476	43.52
879.648	37.38
879.82	-56.83
879.993	18.94
880.165	107.01
880.337	-19.97
880.509	20.99
880.681	-42.5
880.854	-56.83
881.026	37.38
881.198	-17.92
881.37	31.23
881.542	-1.54
881.714	23.04
881.886	14.85
882.058	86.53
882.23	-15.87
882.402	68.09
882.574	16.9
882.746	76.29
882.918	35.33
883.09	-30.21
883.262	27.14
883.434	25.09
883.606	41.47
883.778	29.18
883.95	33.28
884.122	-22.02
884.293	53.76
884.465	-32.26
884.637	18.94
884.809	14.85
884.98	31.23
885.152	43.52
885.324	16.9
885.496	-19.97
885.667	-1.54
885.839	12.8
886.011	18.94
886.182	23.04
886.354	-9.73
886.525	29.18
886.697	14.85
886.869	-34.3
887.04	57.86
887.212	55.81
887.383	68.09
887.555	68.09
887.726	39.42
887.897	6.66
888.069	74.24
888.24	35.33
888.412	12.8
888.583	14.85
888.754	12.8
888.926	-36.35
889.097	-13.82
889.268	-24.06
889.44	39.42
889.611	-32.26
889.782	-13.82
889.953	61.95
890.125	-3.58
890.296	41.47
890.467	-19.97
890.638	64
890.809	119.29
890.98	-19.97
891.151	121.34
891.323	16.9
891.494	12.8
891.665	12.8
891.836	14.85
892.007	-28.16
892.178	4.61
892.349	43.52
892.52	-11.78
892.691	14.85
892.862	-32.26
893.032	-28.16
893.203	-5.63
893.374	31.23
893.545	39.42
893.716	-40.45
893.887	-36.35
894.057	45.57
894.228	0.51
894.399	-26.11
894.57	29.18
894.74	-40.45
894.911	-56.83
895.082	-24.06
895.253	53.76
895.423	6.66
895.594	-26.11
895.764	70.14
895.935	12.8
896.106	61.95
896.276	70.14
896.447	-13.82
896.617	-52.74
896.788	-83.45
896.958	2.56
897.129	8.7
897.299	-32.26
897.47	-24.06
897.64	-7.68
897.81	92.67
897.981	84.48
898.151	-19.97
898.322	14.85
898.492	119.29
898.662	-69.12
898.832	2.56
899.003	-22.02
899.173	-42.5
899.343	51.71
899.513	80.38
