Data from USB4F104151__24__12-35-26-266.txt Node

Date: Fri Mar 14 12:35:26 EDT 2025
User: louis
Spectrometer: USB4F10415
Trigger mode: 4
Integration Time (sec): 2.000000E-2
Scans to average: 1
Electric dark correction enabled: true
Nonlinearity correction enabled: false
Boxcar width: 0
XAxis mode: Wavelengths
Number of Pixels in Spectrum: 3648
>>>>>Begin Spectral Data<<<<<
178.204	-54.44
178.424	-54.44
178.644	-54.44
178.864	-48.3
179.084	-101.55
179.304	-5.29
179.524	17.24
179.744	-13.48
179.964	-1.19
180.184	15.19
180.404	-5.29
180.624	4.95
180.844	-62.63
181.064	41.81
181.283	-23.72
181.503	33.62
181.723	-1.19
181.943	-54.44
182.163	95.06
182.383	50
182.602	25.43
182.822	60.24
183.042	43.86
183.262	-19.63
183.482	68.44
183.701	47.96
183.921	-1.19
184.141	27.48
184.361	33.62
184.58	-76.97
184.8	9.05
185.02	-56.49
185.239	33.62
185.459	-19.63
185.679	31.57
185.898	-3.24
186.118	72.53
186.338	19.29
186.557	21.33
186.777	33.62
186.997	90.96
187.216	7
187.436	60.24
187.655	78.68
187.875	29.52
188.095	27.48
188.314	58.2
188.534	15.19
188.753	21.33
188.973	-27.82
189.192	80.72
189.412	0.85
189.631	7
189.851	-17.58
190.07	66.39
190.29	-11.43
190.509	84.82
190.729	78.68
190.948	76.63
191.168	78.68
191.387	19.29
191.607	-60.59
191.826	29.52
192.045	25.43
192.265	70.48
192.484	43.86
192.704	4.95
192.923	47.96
193.142	47.96
193.362	-15.53
193.581	13.14
193.8	27.48
194.02	43.86
194.239	-21.67
194.458	56.15
194.678	80.72
194.897	-13.48
195.116	23.38
195.335	21.33
195.555	7
195.774	33.62
195.993	52.05
196.212	-17.58
196.432	97.11
196.651	56.15
196.87	-19.63
197.089	150.36
197.308	37.72
197.528	19.29
197.747	2.9
197.966	-36.01
198.185	-31.91
198.404	52.05
198.623	-13.48
198.842	19.29
199.062	-19.63
199.281	103.25
199.5	43.86
199.719	82.77
199.938	105.3
200.157	41.81
200.376	29.52
200.595	50
200.814	58.2
201.033	45.91
201.252	80.72
201.471	74.58
201.69	-9.39
201.909	27.48
202.128	64.34
202.347	60.24
202.566	7
202.785	23.38
203.004	27.48
203.223	113.49
203.442	2.9
203.661	13.14
203.879	64.34
204.098	27.48
204.317	-25.77
204.536	43.86
204.755	68.44
204.974	0.85
205.193	41.81
205.411	25.43
205.63	45.91
205.849	50
206.068	27.48
206.287	-56.49
206.505	-40.11
206.724	4.95
206.943	-1.19
207.162	54.1
207.381	-33.96
207.599	27.48
207.818	9.05
208.037	0.85
208.255	25.43
208.474	64.34
208.693	31.57
208.911	60.24
209.13	-5.29
209.349	-5.29
209.567	-11.43
209.786	54.1
210.005	70.48
210.223	-7.34
210.442	31.57
210.661	17.24
210.879	56.15
211.098	-23.72
211.316	82.77
211.535	2.9
211.753	25.43
211.972	13.14
212.191	-7.34
212.409	45.91
212.628	0.85
212.846	-9.39
213.065	-70.83
213.283	-42.15
213.502	-70.83
213.72	39.76
213.938	58.2
214.157	58.2
214.375	39.76
214.594	19.29
214.812	0.85
215.031	0.85
215.249	47.96
215.467	11.09
215.686	39.76
215.904	74.58
216.122	-23.72
216.341	7
216.559	37.72
216.778	72.53
216.996	78.68
217.214	0.85
217.432	-31.91
217.651	29.52
217.869	50
218.087	4.95
218.306	93.01
218.524	62.29
218.742	-76.97
218.96	25.43
219.179	47.96
219.397	41.81
219.615	82.77
219.833	33.62
220.051	52.05
220.27	64.34
220.488	2.9
220.706	70.48
220.924	37.72
221.142	88.92
221.36	-11.43
221.578	13.14
221.796	31.57
222.015	86.87
222.233	15.19
222.451	2.9
222.669	64.34
222.887	15.19
223.105	-23.72
223.323	15.19
223.541	15.19
223.759	17.24
223.977	56.15
224.195	11.09
224.413	52.05
224.631	45.91
224.849	66.39
225.067	78.68
225.285	-9.39
225.503	15.19
225.721	-7.34
225.939	45.91
226.157	47.96
226.375	86.87
226.592	7
226.81	54.1
227.028	72.53
227.246	119.64
227.464	19.29
227.682	45.91
227.9	7
228.117	86.87
228.335	-17.58
228.553	2.9
228.771	25.43
228.989	-23.72
229.206	58.2
229.424	23.38
229.642	64.34
229.86	50
230.077	41.81
230.295	-11.43
230.513	74.58
230.731	-5.29
230.948	76.63
231.166	23.38
231.384	2.9
231.601	45.91
231.819	-9.39
232.037	19.29
232.254	-9.39
232.472	-13.48
232.689	-5.29
232.907	119.64
233.125	56.15
233.342	-1.19
233.56	-5.29
233.777	60.24
233.995	54.1
234.213	43.86
234.43	76.63
234.648	-31.91
234.865	113.49
235.083	45.91
235.3	2.9
235.518	-5.29
235.735	107.35
235.953	4.95
236.17	-46.25
236.388	-17.58
236.605	-1.19
236.822	29.52
237.04	35.67
237.257	68.44
237.475	-23.72
237.692	78.68
237.909	-11.43
238.127	58.2
238.344	19.29
238.562	31.57
238.779	39.76
238.996	39.76
239.214	50
239.431	62.29
239.648	21.33
239.865	31.57
240.083	64.34
240.3	-25.77
240.517	-56.49
240.735	29.52
240.952	82.77
241.169	9.05
241.386	33.62
241.603	58.2
241.821	13.14
242.038	84.82
242.255	52.05
242.472	43.86
242.689	23.38
242.907	72.53
243.124	43.86
243.341	101.2
243.558	-11.43
243.775	25.43
243.992	17.24
244.209	84.82
244.426	15.19
244.643	-33.96
244.86	25.43
245.078	31.57
245.295	68.44
245.512	39.76
245.729	-27.82
245.946	31.57
246.163	29.52
246.38	-5.29
246.597	23.38
246.814	-38.06
247.031	70.48
247.248	72.53
247.464	23.38
247.681	-25.77
247.898	15.19
248.115	27.48
248.332	-21.67
248.549	-3.24
248.766	45.91
248.983	4.95
249.2	15.19
249.417	43.86
249.633	9.05
249.85	150.36
250.067	72.53
250.284	27.48
250.501	13.14
250.717	-13.48
250.934	13.14
251.151	-76.97
251.368	4.95
251.585	50
251.801	25.43
252.018	80.72
252.235	47.96
252.451	-27.82
252.668	15.19
252.885	54.1
253.102	-15.53
253.318	47.96
253.535	4.95
253.752	25.43
253.968	35.67
254.185	0.85
254.401	140.12
254.618	29.52
254.835	43.86
255.051	117.59
255.268	33.62
255.484	50
255.701	82.77
255.917	45.91
256.134	43.86
256.351	-11.43
256.567	27.48
256.784	93.01
257	50
257.217	95.06
257.433	-25.77
257.65	39.76
257.866	17.24
258.082	29.52
258.299	25.43
258.515	7
258.732	39.76
258.948	-11.43
259.165	-9.39
259.381	47.96
259.597	54.1
259.814	41.81
260.03	78.68
260.246	41.81
260.463	-9.39
260.679	95.06
260.895	-19.63
261.112	74.58
261.328	0.85
261.544	19.29
261.761	140.12
261.977	2.9
262.193	31.57
262.409	70.48
262.626	50
262.842	21.33
263.058	41.81
263.274	23.38
263.49	45.91
263.707	84.82
263.923	37.72
264.139	50
264.355	13.14
264.571	33.62
264.787	56.15
265.004	39.76
265.22	45.91
265.436	31.57
265.652	11.09
265.868	58.2
266.084	-15.53
266.3	-9.39
266.516	47.96
266.732	7
266.948	50
267.164	27.48
267.38	54.1
267.596	-9.39
267.812	-7.34
268.028	15.19
268.244	119.64
268.46	-27.82
268.676	35.67
268.892	13.14
269.108	27.48
269.324	-36.01
269.54	-40.11
269.756	93.01
269.972	-15.53
270.188	19.29
270.403	60.24
270.619	74.58
270.835	90.96
271.051	41.81
271.267	68.44
271.483	29.52
271.698	72.53
271.914	72.53
272.13	-5.29
272.346	13.14
272.562	-5.29
272.777	72.53
272.993	13.14
273.209	21.33
273.425	54.1
273.64	76.63
273.856	74.58
274.072	-64.68
274.287	50
274.503	52.05
274.719	-19.63
274.934	11.09
275.15	-7.34
275.366	21.33
275.581	-33.96
275.797	35.67
276.012	-1.19
276.228	31.57
276.444	19.29
276.659	50
276.875	21.33
277.09	127.83
277.306	25.43
277.521	-5.29
277.737	9.05
277.952	4.95
278.168	17.24
278.383	27.48
278.599	29.52
278.814	70.48
279.03	-19.63
279.245	78.68
279.461	2.9
279.676	-27.82
279.892	-13.48
280.107	74.58
280.322	-5.29
280.538	19.29
280.753	13.14
280.969	62.29
281.184	13.14
281.399	52.05
281.615	93.01
281.83	7
282.045	111.44
282.26	-9.39
282.476	41.81
282.691	-21.67
282.906	45.91
283.122	80.72
283.337	43.86
283.552	72.53
283.767	-5.29
283.983	62.29
284.198	-17.58
284.413	68.44
284.628	9.05
284.843	45.91
285.058	86.87
285.274	-33.96
285.489	31.57
285.704	80.72
285.919	66.39
286.134	72.53
286.349	15.19
286.564	58.2
286.779	133.97
286.995	-19.63
287.21	-21.67
287.425	35.67
287.64	50
287.855	50
288.07	15.19
288.285	23.38
288.5	66.39
288.715	58.2
288.93	29.52
289.145	47.96
289.36	76.63
289.575	33.62
289.79	-46.25
290.004	-44.2
290.219	62.29
290.434	11.09
290.649	80.72
290.864	105.3
291.079	4.95
291.294	86.87
291.509	74.58
291.724	11.09
291.938	43.86
292.153	29.52
292.368	27.48
292.583	2.9
292.798	33.62
293.012	64.34
293.227	54.1
293.442	99.16
293.657	-27.82
293.871	15.19
294.086	-27.82
294.301	70.48
294.516	29.52
294.73	80.72
294.945	11.09
295.16	78.68
295.374	13.14
295.589	29.52
295.804	9.05
296.018	-27.82
296.233	170.83
296.447	74.58
296.662	43.86
296.877	74.58
297.091	19.29
297.306	52.05
297.52	-31.91
297.735	33.62
297.949	95.06
298.164	27.48
298.378	47.96
298.593	-46.25
298.807	29.52
299.022	41.81
299.236	54.1
299.451	47.96
299.665	29.52
299.88	60.24
300.094	39.76
300.309	31.57
300.523	95.06
300.737	7
300.952	78.68
301.166	11.09
301.381	45.91
301.595	90.96
301.809	9.05
302.024	80.72
302.238	47.96
302.452	19.29
302.667	86.87
302.881	58.2
303.095	56.15
303.309	88.92
303.524	-15.53
303.738	-3.24
303.952	-44.2
304.166	72.53
304.381	-25.77
304.595	41.81
304.809	35.67
305.023	70.48
305.237	37.72
305.452	50
305.666	62.29
305.88	43.86
306.094	19.29
306.308	-7.34
306.522	64.34
306.736	21.33
306.95	90.96
307.164	64.34
307.379	-5.29
307.593	25.43
307.807	-13.48
308.021	17.24
308.235	47.96
308.449	17.24
308.663	-9.39
308.877	80.72
309.091	101.2
309.305	21.33
309.519	4.95
309.733	133.97
309.947	64.34
310.161	84.82
310.374	56.15
310.588	111.44
310.802	-1.19
311.016	103.25
311.23	66.39
311.444	74.58
311.658	4.95
311.872	111.44
312.085	70.48
312.299	50
312.513	93.01
312.727	21.33
312.941	37.72
313.154	47.96
313.368	27.48
313.582	39.76
313.796	23.38
314.009	13.14
314.223	97.11
314.437	17.24
314.651	-42.15
314.864	84.82
315.078	68.44
315.292	-1.19
315.505	-33.96
315.719	39.76
315.933	15.19
316.146	13.14
316.36	13.14
316.573	113.49
316.787	80.72
317.001	80.72
317.214	19.29
317.428	37.72
317.641	66.39
317.855	50
318.068	-42.15
318.282	54.1
318.495	29.52
318.709	70.48
318.922	29.52
319.136	80.72
319.349	84.82
319.563	72.53
319.776	2.9
319.99	17.24
320.203	47.96
320.417	27.48
320.63	-36.01
320.843	103.25
321.057	37.72
321.27	50
321.483	31.57
321.697	93.01
321.91	17.24
322.124	56.15
322.337	60.24
322.55	27.48
322.763	-1.19
322.977	52.05
323.19	37.72
323.403	90.96
323.617	33.62
323.83	37.72
324.043	-44.2
324.256	-23.72
324.469	-25.77
324.683	84.82
324.896	13.14
325.109	47.96
325.322	27.48
325.535	50
325.748	50
325.962	90.96
326.175	41.81
326.388	37.72
326.601	19.29
326.814	72.53
327.027	60.24
327.24	140.12
327.453	27.48
327.666	68.44
327.879	-7.34
328.092	7
328.305	33.62
328.518	74.58
328.731	-7.34
328.944	11.09
329.157	50
329.37	-23.72
329.583	70.48
329.796	95.06
330.009	41.81
330.222	84.82
330.435	111.44
330.648	27.48
330.861	68.44
331.073	47.96
331.286	13.14
331.499	43.86
331.712	-42.15
331.925	-5.29
332.138	-3.24
332.35	56.15
332.563	-21.67
332.776	25.43
332.989	47.96
333.202	62.29
333.414	2.9
333.627	105.3
333.84	45.91
334.053	90.96
334.265	56.15
334.478	56.15
334.691	27.48
334.903	17.24
335.116	35.67
335.329	80.72
335.541	68.44
335.754	62.29
335.966	17.24
336.179	113.49
336.392	25.43
336.604	60.24
336.817	35.67
337.029	115.54
337.242	111.44
337.454	35.67
337.667	47.96
337.88	37.72
338.092	68.44
338.305	56.15
338.517	82.77
338.729	74.58
338.942	72.53
339.154	84.82
339.367	50
339.579	23.38
339.792	-33.96
340.004	78.68
340.217	-1.19
340.429	95.06
340.641	25.43
340.854	35.67
341.066	47.96
341.278	93.01
341.491	37.72
341.703	84.82
341.915	82.77
342.128	-42.15
342.34	13.14
342.552	113.49
342.764	60.24
342.977	27.48
343.189	15.19
343.401	62.29
343.613	33.62
343.826	90.96
344.038	7
344.25	74.58
344.462	-17.58
344.674	-50.35
344.886	37.72
345.099	39.76
345.311	25.43
345.523	31.57
345.735	-25.77
345.947	113.49
346.159	76.63
346.371	129.88
346.583	45.91
346.795	27.48
347.007	-19.63
347.219	86.87
347.431	19.29
347.643	64.34
347.855	-11.43
348.067	125.78
348.279	27.48
348.491	39.76
348.703	68.44
348.915	45.91
349.127	43.86
349.339	-27.82
349.551	50
349.763	21.33
349.975	7
350.187	33.62
350.399	21.33
350.61	95.06
350.822	95.06
351.034	78.68
351.246	2.9
351.458	15.19
351.669	19.29
351.881	80.72
352.093	13.14
352.305	54.1
352.517	60.24
352.728	70.48
352.94	27.48
353.152	39.76
353.363	-3.24
353.575	52.05
353.787	54.1
353.999	86.87
354.21	170.83
354.422	50
354.633	-29.87
354.845	0.85
355.057	64.34
355.268	90.96
355.48	76.63
355.692	37.72
355.903	-7.34
356.115	64.34
356.326	50
356.538	174.93
356.749	52.05
356.961	95.06
357.172	58.2
357.384	152.4
357.595	62.29
357.807	-1.19
358.018	58.2
358.23	66.39
358.441	78.68
358.653	103.25
358.864	7
359.075	47.96
359.287	29.52
359.498	117.59
359.709	25.43
359.921	33.62
360.132	35.67
360.344	117.59
360.555	64.34
360.766	119.64
360.977	58.2
361.189	95.06
361.4	-1.19
361.611	45.91
361.823	154.45
362.034	15.19
362.245	-23.72
362.456	99.16
362.667	72.53
362.879	76.63
363.09	66.39
363.301	140.12
363.512	54.1
363.723	-17.58
363.935	-1.19
364.146	84.82
364.357	37.72
364.568	101.2
364.779	70.48
364.99	47.96
365.201	84.82
365.412	45.91
365.623	9.05
365.834	80.72
366.045	21.33
366.256	125.78
366.467	54.1
366.678	52.05
366.889	56.15
367.1	131.92
367.311	64.34
367.522	7
367.733	62.29
367.944	15.19
368.155	45.91
368.366	76.63
368.577	33.62
368.788	113.49
368.999	7
369.209	78.68
369.42	72.53
369.631	93.01
369.842	2.9
370.053	-3.24
370.264	41.81
370.474	-36.01
370.685	56.15
370.896	84.82
371.107	78.68
371.317	86.87
371.528	39.76
371.739	66.39
371.95	13.14
372.16	103.25
372.371	2.9
372.582	50
372.792	25.43
373.003	88.92
373.214	0.85
373.424	58.2
373.635	52.05
373.846	29.52
374.056	70.48
374.267	97.11
374.477	117.59
374.688	56.15
374.898	47.96
375.109	97.11
375.319	101.2
375.53	62.29
375.74	25.43
375.951	41.81
376.161	109.4
376.372	80.72
376.582	13.14
376.793	76.63
377.003	72.53
377.214	70.48
377.424	27.48
377.635	88.92
377.845	47.96
378.055	-5.29
378.266	60.24
378.476	50
378.686	33.62
378.897	111.44
379.107	101.2
379.317	37.72
379.528	43.86
379.738	127.83
379.948	19.29
380.158	103.25
380.369	64.34
380.579	27.48
380.789	31.57
380.999	50
381.21	68.44
381.42	95.06
381.63	15.19
381.84	168.79
382.05	60.24
382.261	97.11
382.471	86.87
382.681	45.91
382.891	45.91
383.101	41.81
383.311	43.86
383.521	35.67
383.731	86.87
383.941	23.38
384.151	19.29
384.361	76.63
384.571	54.1
384.781	97.11
384.991	84.82
385.201	29.52
385.411	66.39
385.621	152.4
385.831	68.44
386.041	95.06
386.251	41.81
386.461	99.16
386.671	-29.87
386.881	113.49
387.091	19.29
387.301	119.64
387.511	72.53
387.72	80.72
387.93	-15.53
388.14	52.05
388.35	70.48
388.56	107.35
388.769	-13.48
388.979	90.96
389.189	45.91
389.399	97.11
389.609	68.44
389.818	127.83
390.028	33.62
390.238	99.16
390.447	56.15
390.657	93.01
390.867	60.24
391.076	70.48
391.286	64.34
391.496	101.2
391.705	78.68
391.915	35.67
392.125	60.24
392.334	41.81
392.544	39.76
392.753	125.78
392.963	37.72
393.172	119.64
393.382	33.62
393.591	107.35
393.801	62.29
394.01	158.55
394.22	119.64
394.429	113.49
394.639	88.92
394.848	113.49
395.058	70.48
395.267	56.15
395.477	109.4
395.686	70.48
395.895	66.39
396.105	148.31
396.314	129.88
396.524	109.4
396.733	64.34
396.942	93.01
397.152	181.07
397.361	133.97
397.57	43.86
397.78	129.88
397.989	70.48
398.198	187.22
398.407	107.35
398.617	162.64
398.826	185.17
399.035	88.92
399.244	140.12
399.453	84.82
399.663	43.86
399.872	86.87
400.081	115.54
400.29	166.74
400.499	123.73
400.708	133.97
400.917	78.68
401.127	95.06
401.336	101.2
401.545	156.5
401.754	174.93
401.963	119.64
402.172	131.92
402.381	168.79
402.59	62.29
402.799	207.7
403.008	193.36
403.217	176.98
403.426	123.73
403.635	95.06
403.844	129.88
404.053	199.51
404.262	168.79
404.471	154.45
404.68	168.79
404.888	156.5
405.097	252.75
405.306	127.83
405.515	195.41
405.724	158.55
405.933	222.03
406.142	238.42
406.35	252.75
406.559	193.36
406.768	211.79
406.977	248.66
407.185	240.47
407.394	283.47
407.603	176.98
407.812	283.47
408.02	385.87
408.229	326.48
408.438	293.71
408.646	310.1
408.855	344.91
409.064	308.05
409.272	246.61
409.481	326.48
409.69	308.05
409.898	373.58
410.107	320.34
410.315	289.62
410.524	355.15
410.733	402.26
410.941	361.3
411.15	412.5
411.358	363.34
411.567	492.37
411.775	420.69
411.984	484.17
412.192	514.89
412.401	500.56
412.609	586.57
412.818	553.8
413.026	508.75
413.234	594.76
413.443	682.83
413.651	602.96
413.86	707.4
414.068	764.75
414.276	709.45
414.485	734.03
414.693	791.37
414.901	772.94
415.11	752.46
415.318	723.79
415.526	799.56
415.734	889.67
415.943	932.68
416.151	1014.6
416.359	899.91
416.567	1028.93
416.776	1051.46
416.984	1198.92
417.192	1162.05
417.4	1172.29
417.608	1254.21
417.817	1243.97
418.025	1274.69
418.233	1327.94
418.441	1446.72
418.649	1413.95
418.857	1416
419.065	1557.31
419.273	1393.47
419.481	1676.09
419.689	1725.24
419.897	1688.38
420.105	1841.98
420.313	1819.45
420.521	1864.5
420.729	1909.56
420.937	1930.04
421.145	2069.3
421.353	2192.18
421.561	2136.88
421.769	2272.05
421.977	2413.36
422.185	2323.25
422.393	2499.38
422.601	2663.21
422.809	2661.16
423.017	2581.29
423.224	2880.3
423.432	2870.06
423.64	2904.87
423.848	3175.2
424.056	2976.55
424.263	3257.12
424.471	3388.19
424.679	3388.19
424.887	3564.32
425.094	3574.56
425.302	3609.37
425.51	3840.79
425.718	4029.21
425.925	4045.59
426.133	4021.02
426.341	4360.98
426.548	4647.69
426.756	4576.02
426.964	4621.07
427.171	4924.17
427.379	5104.39
427.586	5155.59
427.794	5200.65
428.001	5468.93
428.209	5427.97
428.417	5569.28
428.624	6056.7
428.832	6089.46
429.039	5876.48
429.247	6005.5
429.454	6501.11
429.662	7011.05
429.869	6519.54
430.076	7054.06
430.284	6796.01
430.491	7058.15
430.699	7424.74
430.906	7441.12
431.114	7604.96
431.321	7865.05
431.528	8035.03
431.736	8579.79
431.943	8893.13
432.15	8866.51
432.358	8852.17
432.565	9382.6
432.772	9157.32
432.979	9751.23
433.187	9761.47
433.394	10046.14
433.601	10523.32
433.808	10537.65
434.016	10592.95
434.223	11018.93
434.43	11704.99
434.637	11356.84
434.844	12090.01
435.052	12522.13
435.259	12032.67
435.466	12565.14
435.673	12225.18
435.88	13161.1
436.087	13603.46
436.294	13773.44
436.501	13200.01
436.708	13732.48
436.915	13982.34
437.122	14742.13
437.329	14631.54
437.537	15145.58
437.743	15485.55
437.95	15452.78
438.157	16341.6
438.364	16611.93
438.571	16788.05
438.778	16851.54
438.985	18354.75
439.192	17578.57
439.399	18168.38
439.606	17576.52
439.813	18737.72
440.02	19954.21
440.227	19755.56
440.433	19425.84
440.64	20204.07
440.847	19900.97
441.054	20306.46
441.261	21719.56
441.467	21266.96
441.674	21688.84
441.881	22919.67
442.088	22542.85
442.294	22452.73
442.501	23077.37
442.708	23411.18
442.914	24302.05
443.121	25268.69
443.328	24510.94
443.534	26304.96
443.741	25805.26
443.948	25383.38
444.154	27478.45
444.361	26759.61
444.568	27150.78
444.774	27431.35
444.981	27486.64
445.187	27924.91
445.394	29751.7
445.6	29114.78
445.807	31740.27
446.013	30564.74
446.22	31273.34
446.426	32409.96
446.633	32715.11
446.839	33511.77
447.046	32434.53
447.252	34128.2
447.459	33964.37
447.665	33616.21
447.871	35746.1
448.078	37259.55
448.284	35373.37
448.491	36344.11
448.697	37460.25
448.903	38396.17
449.11	38238.48
449.316	37415.19
449.522	38363.4
449.728	39446.78
449.935	39762.17
450.141	39641.34
450.347	40726.76
450.553	39403.77
450.76	39993.59
450.966	41404.64
451.172	40669.42
451.378	41459.93
451.584	40863.97
451.791	41898.2
451.997	41865.43
452.203	42678.47
452.409	42334.42
452.615	42303.7
452.821	40644.84
453.027	40685.8
453.233	42737.87
453.44	40782.06
453.646	41650.39
453.852	41570.52
454.058	42115.28
454.264	40755.43
454.47	41427.17
454.676	40898.79
454.882	42121.43
455.088	38365.45
455.294	39123.2
455.5	39817.46
455.705	39911.67
455.911	38641.93
456.117	37941.52
456.323	37314.84
456.529	35111.23
456.735	36661.54
456.941	35795.25
457.147	35381.56
457.352	34392.39
457.558	33843.54
457.764	33921.36
457.97	33249.63
458.176	32586.08
458.381	32643.43
458.587	30884.22
458.793	31156.6
458.999	29235.61
459.204	31674.74
459.41	30732.67
459.616	28866.97
459.821	28740
460.027	28463.52
460.233	27734.45
460.438	26638.78
460.644	27038.14
460.85	25704.91
461.055	25086.42
461.261	25000.41
461.466	23462.38
461.672	22741.5
461.878	24353.25
462.083	22422.02
462.289	22151.68
462.494	21864.97
462.7	20857.37
462.905	20597.28
463.111	21139.99
463.316	21258.77
463.522	20937.24
463.727	20935.19
463.932	20855.32
464.138	20546.08
464.343	20570.65
464.549	19835.43
464.754	20443.68
464.959	20505.12
465.165	20025.89
465.37	19198.51
465.575	19040.82
465.781	19544.62
465.986	19710.5
466.191	19184.18
466.397	18623.03
466.602	17730.12
466.807	18555.45
467.012	18500.16
467.218	18141.76
467.423	18121.28
467.628	18258.49
467.833	19038.77
468.038	18321.98
468.244	17887.81
468.449	18666.04
468.654	17764.93
468.859	17697.35
469.064	17672.78
469.269	17062.48
469.474	17222.22
469.679	17553.99
469.885	16968.27
470.09	17101.39
470.295	17019.47
470.5	16579.16
470.705	16740.95
470.91	16443.99
471.115	16276.06
471.32	16310.88
471.525	16540.25
471.73	16069.22
471.935	15954.53
472.139	15319.66
472.344	15422.06
472.549	15413.87
472.754	15346.28
472.959	15032.94
473.164	14731.89
473.369	14770.8
473.574	14946.93
473.778	14676.6
473.983	14666.36
474.188	14660.21
474.393	13904.51
474.598	13949.57
474.802	13937.28
475.007	13961.86
475.212	13789.83
475.417	13320.84
475.621	13279.88
475.826	13304.46
476.031	13318.79
476.235	12898.96
476.44	12919.44
476.645	12763.79
476.849	12780.18
477.054	12599.96
477.259	12645.01
477.463	12440.22
477.668	11989.66
477.872	12403.35
478.077	11958.94
478.282	11649.7
478.486	11692.71
478.691	11797.15
478.895	11604.64
479.1	11678.37
479.304	11379.37
479.509	11258.54
479.713	11528.87
479.918	11025.07
480.122	11139.76
480.326	11229.87
480.531	11176.62
480.735	11070.12
480.94	10797.74
481.144	11344.55
481.348	10738.35
481.553	10937.01
481.757	10640.05
481.961	10891.95
482.166	11045.55
482.37	11000.49
482.574	10543.8
482.778	10740.4
482.983	10760.88
483.187	10683.06
483.391	10826.42
483.595	10773.17
483.8	10564.28
484.004	10754.74
484.208	10826.42
484.412	10572.47
484.616	10603.19
484.821	10732.21
485.025	10625.72
485.229	10648.24
485.433	10607.28
485.637	10660.53
485.841	10627.76
486.045	10429.11
486.249	10681.01
486.453	10521.27
486.657	10810.03
486.861	10732.21
487.065	10406.58
487.269	10678.96
487.473	10459.83
487.677	10736.31
487.881	10721.97
488.085	10617.52
488.289	10771.12
488.493	10638
488.697	10621.62
488.901	10668.72
489.105	10666.67
489.309	10896.05
489.512	10820.27
489.716	10707.63
489.92	10992.3
490.124	10650.29
490.328	11063.98
490.531	10939.05
490.735	10873.52
490.939	11102.89
491.143	11080.36
491.346	10963.63
491.55	11086.51
491.754	11137.71
491.958	11203.24
492.161	11352.74
492.365	11451.05
492.569	11125.42
492.772	11289.26
492.976	11166.38
493.18	11522.73
493.383	11580.07
493.587	11569.83
493.79	11780.77
493.994	11455.14
494.197	11702.95
494.401	11868.83
494.605	11704.99
494.808	12042.91
495.012	12040.86
495.215	12268.19
495.419	12157.6
495.622	12214.94
495.825	12247.71
496.029	12305.05
496.232	12728.98
496.436	12556.95
496.639	12716.69
496.843	12665.49
497.046	13025.93
497.249	13161.1
497.453	13314.7
497.656	13611.65
497.859	13394.57
498.063	13537.93
498.266	13916.8
498.469	13806.21
498.673	13931.14
498.876	14267
499.079	14238.33
499.282	14377.59
499.485	14662.26
499.689	14826.1
499.892	14832.24
500.095	15084.14
500.298	15465.07
500.501	15080.05
500.705	15628.9
500.908	15602.28
501.111	15796.84
501.314	15798.88
501.517	16337.5
501.72	16472.67
501.923	16163.42
502.126	16779.86
502.329	17105.49
502.532	17279.57
502.735	17015.38
502.938	17406.54
503.141	17390.16
503.344	17781.32
503.547	18018.88
503.75	18063.94
503.953	18487.87
504.156	18758.2
504.359	19038.77
504.562	18846.26
504.765	19442.22
504.968	19270.19
505.17	19860.01
505.373	19608.11
505.576	20249.12
505.779	20249.12
505.982	20355.61
506.185	20539.93
506.387	20834.84
506.59	21160.47
506.793	21492.24
506.996	21303.82
507.198	21920.26
507.401	22045.19
507.604	22145.54
507.807	22862.33
508.009	22921.72
508.212	23042.55
508.415	23409.14
508.617	23636.46
508.82	23437.81
509.022	23609.84
509.225	24054.25
509.428	24437.22
509.63	24941.02
509.833	24924.63
510.035	25162.2
510.238	25131.48
510.44	25682.38
510.643	26155.46
510.845	26159.56
511.048	25981.38
511.25	26632.64
511.453	26812.86
511.655	27630
511.858	27564.46
512.06	27494.83
512.262	28322.21
512.465	28094.89
512.667	28481.95
512.87	28850.59
513.072	28668.32
513.274	29475.22
513.477	29637.01
513.679	29983.12
513.881	30122.38
514.084	30466.44
514.286	30284.17
514.488	30833.02
514.69	31273.34
514.893	31785.33
515.095	31789.42
515.297	32282.98
515.499	32514.41
515.701	32663.91
515.904	33268.06
516.106	33610.07
516.308	33859.92
516.51	33651.03
516.712	34261.32
516.914	34589
517.116	34855.23
517.318	35074.37
517.52	35328.31
517.722	35291.45
517.925	35782.96
518.127	36372.78
518.329	36452.65
518.531	36741.41
518.733	37228.83
518.935	37753.11
519.136	37753.11
519.338	38461.71
519.54	38187.28
519.742	38691.08
519.944	38949.12
520.146	39506.17
520.348	39596.28
520.55	39813.37
520.752	40194.29
520.954	40304.88
521.155	40239.34
521.357	40716.52
521.559	41259.23
521.761	41965.78
521.963	42019.03
522.164	42164.43
522.366	41990.36
522.568	42934.47
522.77	42752.2
522.971	43088.07
523.173	42930.37
523.375	43546.81
523.576	43342.02
523.778	43831.48
523.98	44384.43
524.181	44769.45
524.383	44597.42
524.584	45357.22
524.786	45189.28
524.988	45215.91
525.189	45822.11
525.391	45377.7
525.592	45975.7
525.794	46028.95
525.995	46293.14
526.197	46307.47
526.398	46741.64
526.6	46790.8
526.801	46983.3
527.003	46876.81
527.204	47366.27
527.406	47499.39
527.607	47687.81
527.808	47927.42
528.01	47257.73
528.211	47896.7
528.412	49121.38
528.614	48058.49
528.815	48400.5
529.016	48822.38
529.218	47874.17
529.419	48390.26
529.62	48791.66
529.822	48910.44
530.023	48490.61
530.224	48586.86
530.425	48701.55
530.626	48623.73
530.828	48550
531.029	49444.96
531.23	48652.4
531.431	49016.94
531.632	49148.01
531.833	49207.4
532.035	49524.83
532.236	49324.13
532.437	49563.75
532.638	49090.66
532.839	49596.51
533.04	49748.06
533.241	48738.41
533.442	49979.48
533.643	49629.28
533.844	49320.04
534.045	49870.94
534.246	49049.7
534.447	49762.4
534.648	49324.13
534.849	49139.82
535.05	49031.27
535.251	49381.48
535.451	49383.52
535.652	49688.67
535.853	49369.19
536.054	49573.98
536.255	49283.17
536.456	48728.17
536.657	50018.39
536.857	48765.04
537.058	49350.76
537.259	49723.49
537.46	49485.92
537.66	49332.32
537.861	49485.92
538.062	49021.03
538.263	49356.9
538.463	48912.49
538.664	48799.85
538.865	49406.05
539.065	49606.75
539.266	48750.7
539.466	49533.03
539.667	48984.17
539.868	49487.97
540.068	49045.61
540.269	49182.82
540.469	49639.52
540.67	48980.07
540.87	48717.93
541.071	48836.72
541.271	49170.54
541.472	48810.09
541.672	48466.03
541.873	48844.91
542.073	48263.28
542.274	49223.78
542.474	48345.2
542.675	48580.72
542.875	48758.89
543.075	48353.4
543.276	48078.97
543.476	48535.66
543.676	48449.65
543.877	48935.02
544.077	48386.16
544.277	48527.47
544.478	48967.79
544.678	48738.41
544.878	48283.76
545.078	48754.8
545.279	48294
545.479	47980.67
545.679	48408.69
545.879	48631.92
546.079	48169.08
546.28	48377.97
546.48	47831.16
546.68	48910.44
546.88	48226.42
547.08	48128.12
547.28	48205.94
547.48	48087.16
547.68	48390.26
547.88	48091.26
548.081	48265.33
548.281	48246.9
548.481	48189.56
548.681	48697.45
548.881	48386.16
549.081	48347.25
549.28	47767.68
549.48	48377.97
549.68	48197.75
549.88	48300.15
550.08	48124.02
550.28	48275.57
550.48	47693.95
550.68	48367.73
550.88	47718.53
551.08	47710.33
551.279	48228.47
551.479	47812.73
551.679	47784.06
551.879	47433.86
552.079	47880.31
552.278	47861.88
552.478	47810.68
552.678	47800.44
552.878	48050.3
553.077	47671.42
553.277	47585.41
553.477	48117.88
553.676	47247.49
553.876	48011.38
554.076	47388.8
554.275	47335.56
554.475	47216.77
554.674	47706.24
554.874	47859.84
555.074	47626.37
555.273	47775.87
555.473	47581.31
555.672	47126.66
555.872	47591.55
556.071	47382.66
556.271	47431.81
556.47	47122.57
556.67	47128.71
556.869	47118.47
557.068	47517.82
557.268	46690.44
557.467	47108.23
557.667	47163.53
557.866	46592.14
558.065	46811.28
558.265	46743.69
558.464	46307.47
558.663	47263.88
558.863	45975.7
559.062	46977.16
559.261	45940.89
559.461	46997.64
559.66	46018.71
559.859	46663.82
560.058	46194.84
560.258	46510.22
560.457	45947.03
560.656	46215.32
560.855	46051.48
561.054	46796.94
561.253	45609.12
561.453	45910.17
561.652	46207.12
561.851	46012.57
562.05	45590.69
562.249	45645.98
562.448	45867.16
562.647	46037.14
562.846	45422.75
563.045	45361.31
563.244	44708.01
563.443	45578.4
563.642	45131.94
563.841	45144.23
564.04	45004.97
564.239	45314.21
564.438	44988.58
564.637	45109.41
564.836	45084.84
565.035	44517.55
565.234	44482.73
565.432	44325.04
565.631	44601.52
565.83	44400.82
566.029	44257.46
566.228	44062.9
566.427	44226.74
566.625	43980.98
566.824	43495.61
567.023	43593.92
567.222	42959.05
567.42	43722.94
567.619	43794.62
567.818	43518.14
568.016	43237.57
568.215	43817.14
568.414	43133.12
568.612	43331.78
568.811	42647.75
569.01	43100.36
569.208	42684.62
569.407	43071.68
569.605	42510.54
569.804	42651.85
570.002	42133.71
570.201	42619.08
570.4	41939.16
570.598	41978.07
570.797	42023.12
570.995	42293.46
571.193	41646.3
571.392	42162.39
571.59	41777.37
571.789	41734.36
571.987	41392.35
572.186	41603.29
572.384	40923.36
572.582	41021.67
572.781	41138.4
572.979	40562.92
573.177	40906.98
573.376	40882.41
573.574	40485.1
573.772	40268.01
573.971	40636.65
574.169	40218.86
574.367	40020.21
574.565	40327.41
574.763	39950.58
574.962	39848.18
575.16	39389.44
575.358	39520.51
575.556	39219.45
575.754	39887.09
575.952	39229.69
576.151	39307.52
576.349	38777.09
576.547	38842.63
576.745	38945.03
576.943	38910.21
577.141	38828.29
577.339	38711.56
577.537	38537.48
577.735	38643.98
577.933	38566.15
578.131	38258.96
578.329	37808.4
578.527	37898.52
578.725	37966.1
578.923	37892.37
579.121	37859.6
579.319	37411.1
579.516	37552.41
579.714	37576.98
579.912	37216.54
580.11	37415.19
580.308	37390.62
580.506	36925.73
580.704	36890.91
580.901	36993.31
581.099	37198.11
581.297	36469.03
581.495	36507.94
581.692	37101.86
581.89	36278.57
582.088	36376.87
582.285	35871.03
582.483	36561.19
582.681	35567.93
582.878	36106.54
583.076	35903.79
583.274	35754.29
583.471	35385.66
583.669	35592.5
583.866	35184.96
584.064	35422.52
584.262	35158.33
584.459	35217.72
584.657	35137.85
584.854	35293.5
585.052	34382.15
585.249	34654.53
585.447	34836.8
585.644	34505.03
585.841	34535.75
586.039	34945.34
586.236	34171.21
586.434	34365.77
586.631	33993.04
586.828	33802.58
587.026	34140.49
587.223	33786.19
587.42	33534.29
587.618	33866.06
587.815	33108.32
588.012	33444.18
588.21	32997.73
588.407	33290.59
588.604	33206.62
588.801	32979.29
588.999	33087.84
589.196	32944.48
589.393	33087.84
589.59	32668
589.787	32536.93
589.984	32354.66
590.182	32262.51
590.379	32616.8
590.576	32076.14
590.773	32072.04
590.97	31746.42
591.167	32014.7
591.364	31801.71
591.561	31764.85
591.758	31652.21
591.955	31639.92
592.152	31693.17
592.349	31519.09
592.546	31146.36
592.743	31308.15
592.94	31025.53
593.137	31242.62
593.334	31334.78
593.531	30433.67
593.727	31236.47
593.924	31066.49
594.121	30415.24
594.318	30650.75
594.515	30044.55
594.712	30351.75
594.908	30509.44
595.105	30437.76
595.302	29827.47
595.499	30331.27
595.696	29852.05
595.892	30011.79
596.089	29772.18
596.286	29526.42
596.482	29411.73
596.679	29694.35
596.876	29716.88
597.072	29456.79
597.269	29540.75
597.466	29374.87
597.662	29137.3
597.859	29292.95
598.055	29133.21
598.252	28907.93
598.448	28668.32
598.645	28475.81
598.841	28455.33
599.038	28617.12
599.234	28496.29
599.431	28299.69
599.627	28277.16
599.824	28486.05
600.02	27986.35
600.217	28500.39
600.413	28025.26
600.609	27636.14
600.806	27586.99
601.002	28178.86
601.198	27503.03
601.395	27363.76
601.591	27693.49
601.787	27586.99
601.984	27331
602.18	27378.1
602.376	27171.25
602.572	26864.06
602.769	27318.71
602.965	26767.8
603.161	27066.81
603.357	26732.99
603.553	26511.81
603.75	26595.78
603.946	26397.12
604.142	26849.72
604.338	25862.6
604.534	26364.36
604.73	26294.72
604.926	26061.26
605.122	26225.09
605.318	26051.02
605.514	25997.77
605.71	25635.28
605.906	26055.11
606.102	25805.26
606.298	25645.52
606.494	25645.52
606.69	25604.56
606.886	25485.78
607.082	25258.45
607.278	25539.02
607.474	25158.1
607.67	25174.49
607.866	24764.89
608.062	25270.74
608.257	24922.59
608.453	24664.54
608.649	25035.22
608.845	24762.84
609.041	24881.63
609.236	24912.35
609.432	24562.14
609.628	24400.35
609.824	24363.49
610.019	24455.65
610.215	24596.96
610.411	24381.92
610.606	24248.8
610.802	24580.57
610.998	24365.54
611.193	24371.68
611.389	24080.87
611.584	24060.39
611.78	23876.07
611.976	24007.14
612.171	23984.62
612.367	23624.17
612.562	23833.07
612.758	23413.23
612.953	23632.36
613.149	23747.05
613.344	23333.36
613.539	23822.83
613.735	23595.5
613.93	23517.68
614.126	23257.59
614.321	23323.12
614.517	23591.41
614.712	23020.02
614.907	23140.85
615.103	23063.03
615.298	22880.76
615.493	23382.51
615.688	22823.42
615.884	23095.8
616.079	22594.04
616.274	23077.37
616.47	22755.83
616.665	23093.75
616.86	22462.97
617.055	22583.8
617.25	22536.7
617.445	22536.7
617.641	22297.09
617.836	22540.8
618.031	22166.02
618.226	22442.49
618.421	22315.52
618.616	22473.21
618.811	21756.43
619.006	22116.87
619.201	21737.99
619.396	21625.36
619.591	21590.54
619.786	21854.73
619.981	21324.3
620.176	21486.09
620.371	21158.42
620.566	21322.26
620.761	21164.56
620.956	21400.08
621.151	20572.7
621.346	20894.23
621.541	20445.73
621.735	20843.03
621.93	20386.33
622.125	20466.21
622.32	20324.9
622.515	20347.42
622.709	20173.35
622.904	19821.09
623.099	19952.16
623.294	20075.04
623.488	19642.92
623.683	19954.21
623.878	19298.86
624.072	19669.55
624.267	19345.97
624.462	19286.58
624.656	19225.14
624.851	19155.51
625.046	18874.93
625.24	18971.19
625.435	18817.59
625.629	18563.64
625.824	18557.5
626.018	18473.53
626.213	18045.51
626.407	18266.69
626.602	18018.88
626.796	18420.28
626.991	18072.13
627.185	17861.19
627.38	17685.06
627.574	17633.86
627.768	17386.06
627.963	17384.01
628.157	17111.63
628.352	17420.88
628.546	17056.34
628.74	17234.51
628.935	17015.38
629.129	17111.63
629.323	16767.57
629.517	16761.43
629.712	16546.39
629.906	16847.44
630.1	16499.29
630.294	16601.69
630.489	16452.19
630.683	16415.32
630.877	16220.77
631.071	16093.79
631.265	16005.73
631.459	16011.87
631.653	15628.9
631.848	15741.54
632.042	15544.94
632.236	15663.72
632.43	15159.92
632.624	15551.08
632.818	15223.41
633.012	15151.73
633.206	15241.84
633.4	15356.52
633.594	14807.67
633.788	14830.2
633.982	14860.91
634.176	14946.93
634.369	14596.73
634.563	14498.42
634.757	14584.44
634.951	14467.7
635.145	14566.01
635.339	14584.44
635.533	14305.92
635.726	14158.46
635.92	13873.79
636.114	14180.99
636.308	13945.47
636.501	13783.68
636.695	13808.26
636.889	13628.04
637.083	13656.71
637.276	13472.39
637.47	13281.93
637.664	13331.08
637.857	13128.33
638.051	13212.3
638.244	13202.06
638.438	13114
638.632	13062.8
638.825	12982.93
639.019	12759.7
639.212	12827.28
639.406	12624.53
639.599	12528.28
639.793	12583.57
639.986	12434.07
640.18	12440.22
640.373	12536.47
640.567	12098.2
640.76	12145.31
640.954	11956.89
641.147	11903.65
641.34	12022.43
641.534	12026.53
641.727	12010.14
641.92	11719.33
642.114	11573.92
642.307	11809.44
642.5	11567.78
642.694	11547.3
642.887	11465.38
643.08	11408.04
643.273	11215.53
643.467	11299.5
643.66	11143.85
643.853	11135.66
644.046	10922.67
644.239	10922.67
644.432	10908.33
644.626	10879.66
644.819	10527.41
645.012	10705.59
645.205	10488.5
645.398	10603.19
645.591	10558.13
645.784	10554.04
645.977	10582.71
646.17	10492.6
646.363	10384.05
646.556	10199.74
646.749	10121.91
646.942	10218.17
647.135	10105.53
647.328	10037.95
647.521	9753.28
647.714	9904.83
647.907	9941.69
648.099	9564.87
648.292	9708.23
648.485	9708.23
648.678	9431.75
648.871	9362.12
649.064	9398.98
649.256	9683.65
649.449	9413.32
649.642	9489.09
649.835	9214.66
650.027	9104.07
650.22	9081.55
650.413	9040.59
650.605	9069.26
650.798	9175.75
650.991	8938.19
651.183	9102.03
651.376	8889.04
651.568	8846.03
651.761	8688.34
651.954	8655.57
652.146	8790.74
652.339	8680.14
652.531	8606.42
652.724	8501.97
652.916	8346.33
653.109	8430.29
653.301	8278.74
653.494	8452.82
653.686	8381.14
653.879	8397.53
654.071	8250.07
654.263	8035.03
654.456	8098.52
654.648	8168.15
654.84	7940.83
655.033	7934.68
655.225	8037.08
655.417	7910.11
655.61	7957.21
655.802	7959.26
655.994	7693.02
656.186	7764.7
656.379	7520.99
656.571	7817.95
656.763	7650.02
656.955	7709.41
657.148	7551.71
657.34	7588.58
657.532	7293.67
657.724	7387.88
657.916	7439.08
658.108	7295.72
658.3	7340.77
658.492	7275.24
658.684	7123.69
658.876	7213.8
659.068	7082.73
659.26	7004.91
659.452	7224.04
659.644	7080.68
659.836	6945.52
660.028	6855.4
660.22	6765.29
660.412	6916.84
660.604	6859.5
660.796	6691.57
660.988	6699.76
661.18	6761.2
661.372	6666.99
661.563	6607.6
661.755	6697.71
661.947	6679.28
662.139	6789.87
662.331	6548.21
662.522	6470.39
662.714	6513.39
662.906	6429.43
663.097	6357.75
663.289	6347.51
663.481	6470.39
663.673	6486.77
663.864	6275.83
664.056	6109.94
664.247	6101.75
664.439	5962.49
664.631	6009.59
664.822	5974.78
665.014	6048.51
665.205	5962.49
665.397	6101.75
665.588	6060.79
665.78	5888.76
665.971	6087.42
666.163	5985.02
666.354	5899
666.546	5925.63
666.737	5815.04
666.929	5890.81
667.12	5907.2
667.311	5681.92
667.503	5726.97
667.694	5651.2
667.885	5591.81
668.077	5649.15
668.268	5442.31
668.459	5548.8
668.651	5516.03
668.842	5552.9
669.033	5493.51
669.224	5432.07
669.416	5460.74
669.607	5292.8
669.798	5239.56
669.989	5415.68
670.18	5331.72
670.371	5346.05
670.563	5182.21
670.754	5243.65
670.945	5350.15
671.136	5194.5
671.327	5094.15
671.518	5288.71
671.709	5059.34
671.9	5223.17
672.091	5192.45
672.282	5042.95
672.473	5053.19
672.664	5178.12
672.855	5024.52
673.046	5212.93
673.237	5114.63
673.428	4950.79
673.619	5045
673.809	4911.88
674	4922.12
674.191	5081.86
674.382	4854.54
674.573	5051.14
674.764	4967.18
674.954	4889.35
675.145	4909.83
675.336	4872.97
675.527	4977.42
675.717	4811.53
675.908	4764.43
676.099	4899.59
676.289	4686.61
676.48	4723.47
676.671	4659.98
676.861	4866.83
677.052	4881.16
677.243	4807.44
677.433	4776.72
677.624	4713.23
677.814	4709.13
678.005	4770.57
678.195	4655.89
678.386	4713.23
678.576	4692.75
678.767	4766.48
678.957	4614.93
679.148	4784.91
679.338	4584.21
679.529	4551.44
679.719	4649.74
679.909	4700.94
680.1	4494.1
680.29	4619.02
680.481	4567.82
680.671	4678.41
680.861	4653.84
681.052	4625.17
681.242	4530.96
681.432	4350.74
681.622	4352.79
681.813	4530.96
682.003	4600.59
682.193	4551.44
682.383	4639.5
682.573	4557.58
682.764	4520.72
682.954	4623.12
683.144	4526.86
683.334	4360.98
683.524	4514.58
683.714	4420.37
683.904	4479.76
684.094	4490
684.284	4418.32
684.474	4395.79
684.664	4401.94
684.854	4358.93
685.044	4463.38
685.234	4440.85
685.424	4403.99
685.614	4420.37
685.804	4227.86
685.994	4363.03
686.184	4287.25
686.374	4277.01
686.564	4223.76
686.753	4291.35
686.943	4186.9
687.133	4303.64
687.323	4174.61
687.513	4219.67
687.702	4240.15
687.892	4309.78
688.082	4272.92
688.272	4090.65
688.461	4143.89
688.651	4141.85
688.841	4064.02
689.03	3992.34
689.22	4057.88
689.41	4074.26
689.599	4070.17
689.789	4057.88
689.979	4111.13
690.168	3935
690.358	4283.16
690.547	3906.33
690.737	3865.37
690.926	4166.42
691.116	3955.48
691.305	4002.58
691.495	3967.77
691.684	3859.23
691.874	3887.9
692.063	3924.76
692.252	3816.22
692.442	3943.19
692.631	3824.41
692.82	3935
693.01	3765.02
693.199	3869.47
693.388	3748.64
693.578	3949.34
693.767	3871.51
693.956	3760.92
694.146	3797.79
694.335	3908.38
694.524	3719.96
694.713	3795.74
694.902	3732.25
695.092	3707.68
695.281	3808.03
695.47	3730.2
695.659	3724.06
695.848	3777.31
696.037	3695.39
696.226	3685.15
696.415	3636
696.604	3838.75
696.793	3728.16
696.982	3736.35
697.171	3660.57
697.36	3631.9
697.549	3711.77
697.738	3679.01
697.927	3631.9
698.116	3681.05
698.305	3576.61
698.494	3689.25
698.683	3816.22
698.872	3652.38
699.061	3529.5
699.25	3705.63
699.438	3605.28
699.627	3533.6
699.816	3648.29
700.005	3490.59
700.193	3605.28
700.382	3679.01
700.571	3574.56
700.76	3611.42
700.948	3576.61
701.137	3543.84
701.326	3576.61
701.514	3541.79
701.703	3617.57
701.892	3500.83
702.08	3654.43
702.269	3619.61
702.457	3556.13
702.646	3488.54
702.834	3353.38
703.023	3466.02
703.212	3472.16
703.4	3574.56
703.589	3459.87
703.777	3519.26
703.965	3410.72
704.154	3406.63
704.342	3425.06
704.531	3308.32
704.719	3228.45
704.907	3500.83
705.096	3316.51
705.284	3457.82
705.472	3431.2
705.661	3392.29
705.849	3314.47
706.037	3328.8
706.226	3455.78
706.414	3310.37
706.602	3396.39
706.79	3304.23
706.979	3466.02
707.167	3304.23
707.355	3275.56
707.543	3271.46
707.731	3324.71
707.919	3244.84
708.107	3263.27
708.296	3357.47
708.484	3185.44
708.672	3054.37
708.86	3261.22
709.048	3298.08
709.236	3171.11
709.424	3173.16
709.612	3246.88
709.8	3255.08
709.988	3169.06
710.176	3261.22
710.364	3195.68
710.551	3226.4
710.739	3177.25
710.927	3177.25
711.115	3124.01
711.303	3248.93
711.491	3048.23
711.679	3128.1
711.866	3029.8
712.054	3134.25
712.242	3037.99
712.43	3091.24
712.617	3015.46
712.805	3099.43
712.993	2964.26
713.181	3115.81
713.368	3023.66
713.556	3062.57
713.744	2947.88
713.931	3042.09
714.119	3031.85
714.306	3046.18
714.494	3046.18
714.682	3058.47
714.869	2966.31
715.057	3054.37
715.244	2929.45
715.432	2988.84
715.619	2900.78
715.807	3005.22
715.994	2972.46
716.182	2984.74
716.369	2816.81
716.556	2880.3
716.744	2792.23
716.931	2915.11
717.119	2915.11
717.306	2876.2
717.493	2886.44
717.681	2984.74
717.868	2781.99
718.055	2806.57
718.242	2882.35
718.43	2902.83
718.617	2745.13
718.804	2796.33
718.991	2798.38
719.179	2702.12
719.366	2698.03
719.553	2908.97
719.74	2777.9
719.927	2689.84
720.114	2708.27
720.301	2784.04
720.488	2747.18
720.676	2810.67
720.863	2743.08
721.05	2603.82
721.237	2628.4
721.424	2724.65
721.611	2726.7
721.798	2607.92
721.985	2751.28
722.172	2695.98
722.358	2632.49
722.545	2661.16
722.732	2614.06
722.919	2620.21
723.106	2532.14
723.293	2558.77
723.48	2544.43
723.667	2569.01
723.853	2650.92
724.04	2646.83
724.227	2648.88
724.414	2595.63
724.6	2476.85
724.787	2628.4
724.974	2558.77
725.161	2566.96
725.347	2546.48
725.534	2534.19
725.72	2476.85
725.907	2509.62
726.094	2603.82
726.28	2489.14
726.467	2587.44
726.653	2321.2
726.84	2409.26
727.027	2511.66
727.213	2446.13
727.4	2526
727.586	2401.07
727.773	2423.6
727.959	2470.7
728.145	2489.14
728.332	2485.04
728.518	2263.86
728.705	2292.53
728.891	2302.77
729.077	2405.17
729.264	2515.76
729.45	2349.87
729.636	2376.5
729.823	2384.69
730.009	2370.35
730.195	2413.36
730.382	2409.26
730.568	2255.67
730.754	2323.25
730.94	2253.62
731.126	2300.72
731.313	2413.36
731.499	2298.67
731.685	2263.86
731.871	2300.72
732.057	2421.55
732.243	2247.48
732.429	2315.06
732.615	2306.87
732.801	2200.37
732.987	2239.28
733.173	2224.95
733.359	2282.29
733.545	2243.38
733.731	2306.87
733.917	2263.86
734.103	2143.03
734.289	2265.91
734.475	2239.28
734.661	2265.91
734.847	2222.9
735.033	2218.8
735.219	2235.19
735.404	2175.8
735.59	2220.85
735.776	2163.51
735.962	2222.9
736.148	2151.22
736.333	2128.69
736.519	2151.22
736.705	2110.26
736.89	2190.13
737.076	2151.22
737.262	2069.3
737.447	2138.93
737.633	2034.49
737.819	2097.97
738.004	2112.31
738.19	2073.4
738.375	2102.07
738.561	2159.41
738.747	2095.93
738.932	2026.29
739.118	2102.07
739.303	2071.35
739.489	1940.28
739.674	1997.62
739.859	2118.45
740.045	2157.36
740.23	1950.52
740.416	2044.73
740.601	2106.17
740.786	1975.1
740.972	1925.94
741.157	1962.81
741.342	2020.15
741.528	1897.27
741.713	1846.07
741.898	1880.89
742.084	1868.6
742.269	1934.14
742.454	1891.13
742.639	1860.41
742.824	1887.03
743.01	1954.62
743.195	1876.79
743.38	1893.18
743.565	1811.26
743.75	1839.93
743.935	1766.2
744.12	1766.2
744.305	1846.07
744.49	1731.39
744.675	1872.7
744.86	1770.3
745.045	1770.3
745.23	1917.75
745.415	1772.35
745.6	1930.04
745.785	1684.28
745.97	1739.58
746.155	1719.1
746.34	1792.83
746.525	1715
746.71	1618.75
746.895	1712.96
747.079	1606.46
747.264	1585.98
747.449	1600.32
747.634	1567.55
747.819	1704.76
748.003	1499.97
748.188	1620.8
748.373	1635.13
748.557	1635.13
748.742	1602.36
748.927	1551.17
749.111	1524.54
749.296	1487.68
749.481	1565.5
749.665	1477.44
749.85	1510.21
750.034	1573.69
750.219	1442.62
750.404	1559.36
750.588	1448.77
750.773	1518.4
750.957	1426.24
751.141	1360.7
751.326	1538.88
751.51	1407.81
751.695	1370.94
751.879	1434.43
752.064	1432.38
752.248	1303.36
752.432	1387.33
752.617	1399.62
752.801	1487.68
752.985	1282.88
753.17	1276.74
753.354	1370.94
753.538	1418.05
753.722	1372.99
753.907	1252.16
754.091	1307.46
754.275	1278.79
754.459	1286.98
754.643	1274.69
754.828	1235.78
755.012	1252.16
755.196	1254.21
755.38	1243.97
755.564	1266.5
755.748	1205.06
755.932	1219.39
756.116	1184.58
756.3	1178.44
756.484	1262.4
756.668	1168.2
756.852	1176.39
757.036	1223.49
757.22	1203.01
757.404	1141.57
757.588	1106.76
757.772	1106.76
757.956	1282.88
758.14	1131.33
758.323	1108.8
758.507	1157.96
758.691	979.78
758.875	1051.46
759.059	1090.37
759.242	1088.32
759.426	1041.22
759.61	1018.69
759.794	1057.61
759.977	1071.94
760.161	940.87
760.345	971.59
760.528	977.73
760.712	1055.56
760.895	914.25
761.079	938.82
761.263	975.69
761.446	1008.45
761.63	994.12
761.813	924.49
761.997	981.83
762.18	947.01
762.364	1030.98
762.547	930.63
762.731	920.39
762.914	955.21
763.098	893.77
763.281	906.06
763.464	879.43
763.648	926.54
763.831	912.2
764.015	914.25
764.198	979.78
764.381	987.97
764.564	877.38
764.748	912.2
764.931	850.76
765.114	920.39
765.297	1002.31
765.481	858.95
765.664	887.62
765.847	904.01
766.03	920.39
766.213	838.47
766.397	912.2
766.58	746.31
766.763	949.06
766.946	848.71
767.129	848.71
767.312	836.42
767.495	897.86
767.678	748.36
767.861	781.13
768.044	916.3
768.227	840.52
768.41	893.77
768.593	863.05
768.776	779.08
768.959	850.76
769.142	805.71
769.324	731.98
769.507	815.94
769.69	793.42
769.873	738.12
770.056	750.41
770.239	787.27
770.421	736.07
770.604	758.6
770.787	779.08
770.97	723.79
771.152	723.79
771.335	744.27
771.518	799.56
771.7	744.27
771.883	774.99
772.066	731.98
772.248	748.36
772.431	639.82
772.613	656.2
772.796	666.44
772.978	684.87
773.161	770.89
773.343	736.07
773.526	748.36
773.708	594.76
773.891	703.31
774.073	789.32
774.256	719.69
774.438	684.87
774.621	682.83
774.803	658.25
774.985	688.97
775.168	654.16
775.35	566.09
775.532	713.55
775.715	602.96
775.897	686.92
776.079	611.15
776.261	688.97
776.444	754.51
776.626	652.11
776.808	643.92
776.99	537.42
777.173	588.62
777.355	615.24
777.537	582.48
777.719	627.53
777.901	525.13
778.083	615.24
778.265	521.04
778.447	574.28
778.629	521.04
778.811	537.42
778.993	457.55
779.175	648.01
779.357	545.61
779.539	478.03
779.721	570.19
779.903	549.71
780.085	625.48
780.267	566.09
780.449	518.99
780.631	605
780.812	602.96
780.994	504.65
781.176	453.45
781.358	447.31
781.54	488.27
781.721	537.42
781.903	480.08
782.085	392.02
782.267	439.12
782.448	543.57
782.63	516.94
782.812	514.89
782.993	426.83
783.175	389.97
783.357	478.03
783.538	416.59
783.72	484.17
783.901	435.02
784.083	404.3
784.264	416.59
784.446	410.45
784.627	353.1
784.809	443.21
784.99	418.64
785.172	473.93
785.353	361.3
785.535	340.82
785.716	441.17
785.897	445.26
786.079	469.84
786.26	385.87
786.441	439.12
786.623	355.15
786.804	406.35
786.985	353.1
787.167	363.34
787.348	396.11
787.529	404.3
787.71	389.97
787.891	361.3
788.073	287.57
788.254	363.34
788.435	359.25
788.616	285.52
788.797	303.95
788.978	351.06
789.159	265.04
789.34	365.39
789.522	324.43
789.703	359.25
789.884	377.68
790.065	334.67
790.246	414.54
790.427	340.82
790.607	379.73
790.788	334.67
790.969	349.01
791.15	285.52
791.331	355.15
791.512	338.77
791.693	265.04
791.874	318.29
792.054	295.76
792.235	303.95
792.416	240.47
792.597	375.63
792.778	314.19
792.958	244.56
793.139	299.86
793.32	324.43
793.5	187.22
793.681	359.25
793.862	349.01
794.042	285.52
794.223	244.56
794.404	125.78
794.584	283.47
794.765	314.19
794.945	299.86
795.126	265.04
795.306	279.38
795.487	260.95
795.667	205.65
795.848	262.99
796.028	289.62
796.209	312.14
796.389	308.05
796.57	275.28
796.75	236.37
796.93	271.19
797.111	213.84
797.291	312.14
797.471	207.7
797.652	269.14
797.832	242.51
798.012	275.28
798.192	222.03
798.373	172.88
798.553	222.03
798.733	299.86
798.913	222.03
799.093	222.03
799.274	275.28
799.454	244.56
799.634	303.95
799.814	193.36
799.994	285.52
800.174	269.14
800.354	269.14
800.534	232.27
800.714	224.08
800.894	217.94
801.074	242.51
801.254	174.93
801.434	207.7
801.614	234.32
801.794	248.66
801.974	664.4
802.154	207.7
802.334	187.22
802.514	156.5
802.693	181.07
802.873	187.22
803.053	244.56
803.233	144.21
803.413	199.51
803.592	203.6
803.772	142.16
803.952	189.27
804.131	185.17
804.311	219.99
804.491	238.42
804.67	172.88
804.85	164.69
805.03	244.56
805.209	209.75
805.389	205.65
805.568	189.27
805.748	203.6
805.928	219.99
806.107	170.83
806.287	164.69
806.466	148.31
806.646	199.51
806.825	146.26
807.004	185.17
807.184	203.6
807.363	183.12
807.543	156.5
807.722	88.92
807.901	211.79
808.081	136.02
808.26	107.35
808.439	193.36
808.619	111.44
808.798	246.61
808.977	172.88
809.156	138.07
809.336	150.36
809.515	199.51
809.694	115.54
809.873	107.35
810.052	166.74
810.231	256.85
810.411	174.93
810.59	109.4
810.769	205.65
810.948	160.59
811.127	66.39
811.306	138.07
811.485	138.07
811.664	95.06
811.843	219.99
812.022	80.72
812.201	179.03
812.38	191.31
812.559	136.02
812.737	154.45
812.916	144.21
813.095	170.83
813.274	158.55
813.453	121.68
813.632	195.41
813.811	158.55
813.989	47.96
814.168	123.73
814.347	129.88
814.526	131.92
814.704	150.36
814.883	170.83
815.062	123.73
815.24	164.69
815.419	201.55
815.598	154.45
815.776	127.83
815.955	142.16
816.133	136.02
816.312	181.07
816.49	138.07
816.669	93.01
816.847	115.54
817.026	125.78
817.204	123.73
817.383	113.49
817.561	105.3
817.74	78.68
817.918	129.88
818.097	95.06
818.275	107.35
818.453	166.74
818.632	93.01
818.81	158.55
818.988	68.44
819.167	109.4
819.345	154.45
819.523	101.2
819.701	125.78
819.879	54.1
820.058	131.92
820.236	195.41
820.414	90.96
820.592	125.78
820.77	179.03
820.948	142.16
821.127	103.25
821.305	127.83
821.483	60.24
821.661	183.12
821.839	68.44
822.017	99.16
822.195	131.92
822.373	93.01
822.551	80.72
822.729	181.07
822.907	99.16
823.085	66.39
823.262	150.36
823.44	133.97
823.618	90.96
823.796	148.31
823.974	101.2
824.152	107.35
824.329	105.3
824.507	50
824.685	95.06
824.863	174.93
825.04	86.87
825.218	148.31
825.396	131.92
825.574	72.53
825.751	31.57
825.929	105.3
826.107	146.26
826.284	97.11
826.462	129.88
826.639	93.01
826.817	138.07
826.994	9.05
827.172	17.24
827.349	115.54
827.527	41.81
827.704	109.4
827.882	76.63
828.059	166.74
828.237	25.43
828.414	25.43
828.591	-7.34
828.769	142.16
828.946	140.12
829.124	129.88
829.301	25.43
829.478	52.05
829.655	35.67
829.833	140.12
830.01	80.72
830.187	86.87
830.364	60.24
830.542	82.77
830.719	84.82
830.896	115.54
831.073	176.98
831.25	111.44
831.427	95.06
831.604	-21.67
831.782	25.43
831.959	68.44
832.136	27.48
832.313	90.96
832.49	74.58
832.667	109.4
832.844	68.44
833.021	127.83
833.198	58.2
833.374	29.52
833.551	113.49
833.728	111.44
833.905	76.63
834.082	15.19
834.259	43.86
834.436	68.44
834.612	80.72
834.789	95.06
834.966	113.49
835.143	72.53
835.319	58.2
835.496	103.25
835.673	66.39
835.85	97.11
836.026	103.25
836.203	105.3
836.38	90.96
836.556	80.72
836.733	78.68
836.909	88.92
837.086	-5.29
837.262	13.14
837.439	58.2
837.616	70.48
837.792	119.64
837.968	105.3
838.145	88.92
838.321	17.24
838.498	80.72
838.674	127.83
838.851	113.49
839.027	-1.19
839.203	17.24
839.38	109.4
839.556	7
839.732	78.68
839.909	52.05
840.085	52.05
840.261	37.72
840.437	99.16
840.614	13.14
840.79	133.97
840.966	33.62
841.142	68.44
841.318	47.96
841.494	117.59
841.671	76.63
841.847	74.58
842.023	60.24
842.199	31.57
842.375	74.58
842.551	31.57
842.727	-44.2
842.903	-15.53
843.079	76.63
843.255	52.05
843.431	72.53
843.607	41.81
843.783	88.92
843.959	123.73
844.134	-13.48
844.31	47.96
844.486	17.24
844.662	86.87
844.838	15.19
845.013	113.49
845.189	82.77
845.365	45.91
845.541	17.24
845.716	39.76
845.892	121.68
846.068	54.1
846.244	80.72
846.419	93.01
846.595	52.05
846.77	2.9
846.946	11.09
847.122	35.67
847.297	-19.63
847.473	47.96
847.648	-54.44
847.824	84.82
847.999	68.44
848.175	41.81
848.35	-7.34
848.526	82.77
848.701	131.92
848.876	60.24
849.052	-50.35
849.227	60.24
849.403	-5.29
849.578	70.48
849.753	23.38
849.929	41.81
850.104	19.29
850.279	60.24
850.454	33.62
850.63	4.95
850.805	62.29
850.98	74.58
851.155	39.76
851.33	19.29
851.505	0.85
851.681	76.63
851.856	7
852.031	33.62
852.206	-9.39
852.381	-21.67
852.556	54.1
852.731	39.76
852.906	93.01
853.081	17.24
853.256	-19.63
853.431	29.52
853.606	19.29
853.781	-11.43
853.956	-13.48
854.131	84.82
854.305	43.86
854.48	-33.96
854.655	25.43
854.83	70.48
855.005	21.33
855.18	66.39
855.354	33.62
855.529	52.05
855.704	7
855.879	4.95
856.053	-11.43
856.228	121.68
856.403	47.96
856.577	11.09
856.752	-31.91
856.926	11.09
857.101	31.57
857.276	21.33
857.45	-40.11
857.625	37.72
857.799	93.01
857.974	-48.3
858.148	21.33
858.323	4.95
858.497	17.24
858.672	9.05
858.846	21.33
859.02	68.44
859.195	-17.58
859.369	21.33
859.543	2.9
859.718	7
859.892	78.68
860.066	33.62
860.241	58.2
860.415	-38.06
860.589	-11.43
860.763	-25.77
860.938	11.09
861.112	2.9
861.286	76.63
861.46	58.2
861.634	-15.53
861.808	13.14
861.982	19.29
862.157	-40.11
862.331	19.29
862.505	-27.82
862.679	0.85
862.853	4.95
863.027	76.63
863.201	62.29
863.375	78.68
863.549	11.09
863.722	15.19
863.896	-13.48
864.07	33.62
864.244	-79.02
864.418	60.24
864.592	-31.91
864.766	25.43
864.939	0.85
865.113	23.38
865.287	52.05
865.461	-21.67
865.634	52.05
865.808	50
865.982	29.52
866.156	29.52
866.329	-7.34
866.503	27.48
866.676	64.34
866.85	39.76
867.024	-7.34
867.197	11.09
867.371	27.48
867.544	86.87
867.718	-56.49
867.891	29.52
868.065	-17.58
868.238	27.48
868.412	131.92
868.585	-9.39
868.759	15.19
868.932	43.86
869.105	-1.19
869.279	-23.72
869.452	-38.06
869.625	-21.67
869.799	37.72
869.972	68.44
870.145	35.67
870.319	25.43
870.492	-17.58
870.665	15.19
870.838	37.72
871.011	-25.77
871.185	-42.15
871.358	37.72
871.531	43.86
871.704	33.62
871.877	52.05
872.05	-7.34
872.223	-27.82
872.396	17.24
872.569	68.44
872.742	-33.96
872.915	47.96
873.088	21.33
873.261	-40.11
873.434	21.33
873.607	13.14
873.78	-33.96
873.953	-27.82
874.126	-19.63
874.299	-25.77
874.471	25.43
874.644	41.81
874.817	17.24
874.99	35.67
875.163	-3.24
875.335	9.05
875.508	-9.39
875.681	-33.96
875.853	29.52
876.026	19.29
876.199	-29.87
876.371	50
876.544	-70.83
876.717	-46.25
876.889	31.57
877.062	-11.43
877.234	-23.72
877.407	82.77
877.579	33.62
877.752	68.44
877.924	-29.87
878.097	-13.48
878.269	25.43
878.442	-31.91
878.614	54.1
878.786	64.34
878.959	-33.96
879.131	7
879.303	-5.29
879.476	43.86
879.648	-9.39
879.82	13.14
879.993	21.33
880.165	-27.82
880.337	33.62
880.509	9.05
880.681	-76.97
880.854	-17.58
881.026	7
881.198	17.24
881.37	-42.15
881.542	74.58
881.714	11.09
881.886	15.19
882.058	25.43
882.23	-48.3
882.402	-27.82
882.574	58.2
882.746	-19.63
882.918	15.19
883.09	-36.01
883.262	11.09
883.434	-5.29
883.606	7
883.778	-46.25
883.95	15.19
884.122	29.52
884.293	0.85
884.465	9.05
884.637	-9.39
884.809	41.81
884.98	-46.25
885.152	93.01
885.324	-27.82
885.496	9.05
885.667	-7.34
885.839	54.1
886.011	17.24
886.182	2.9
886.354	23.38
886.525	31.57
886.697	-9.39
886.869	-1.19
887.04	37.72
887.212	68.44
887.383	31.57
887.555	17.24
887.726	43.86
887.897	80.72
888.069	27.48
888.24	25.43
888.412	-3.24
888.583	-5.29
888.754	29.52
888.926	-23.72
889.097	-83.11
889.268	-3.24
889.44	27.48
889.611	-23.72
889.782	31.57
889.953	39.76
890.125	25.43
890.296	-15.53
890.467	13.14
890.638	-27.82
890.809	37.72
890.98	35.67
891.151	-40.11
891.323	-23.72
891.494	-48.3
891.665	66.39
891.836	54.1
892.007	23.38
892.178	45.91
892.349	21.33
892.52	-21.67
892.691	2.9
892.862	-9.39
893.032	-17.58
893.203	-9.39
893.374	11.09
893.545	29.52
893.716	-5.29
893.887	33.62
894.057	-7.34
894.228	9.05
894.399	-11.43
894.57	47.96
894.74	17.24
894.911	0.85
895.082	41.81
895.253	35.67
895.423	29.52
895.594	88.92
895.764	43.86
895.935	13.14
896.106	-7.34
896.276	-11.43
896.447	9.05
896.617	13.14
896.788	-5.29
896.958	-13.48
897.129	23.38
897.299	-29.87
897.47	4.95
897.64	29.52
897.81	-27.82
897.981	0.85
898.151	-23.72
898.322	29.52
898.492	47.96
898.662	72.53
898.832	-11.43
899.003	7
899.173	21.33
899.343	-9.39
899.513	-42.15
