Data from USB4F104151__98__12-37-13-190.txt Node

Date: Fri Mar 14 12:37:13 EDT 2025
User: louis
Spectrometer: USB4F10415
Trigger mode: 4
Integration Time (sec): 2.000000E-2
Scans to average: 1
Electric dark correction enabled: true
Nonlinearity correction enabled: false
Boxcar width: 0
XAxis mode: Wavelengths
Number of Pixels in Spectrum: 3648
>>>>>Begin Spectral Data<<<<<
178.204	-107.69
178.424	-107.69
178.644	-107.69
178.864	-56.49
179.084	-107.69
179.304	68.44
179.524	-21.67
179.744	9.05
179.964	-19.63
180.184	60.24
180.404	-21.67
180.624	2.9
180.844	-54.44
181.064	-54.44
181.283	29.52
181.503	-19.63
181.723	21.33
181.943	7
182.163	54.1
182.383	62.29
182.602	66.39
182.822	54.1
183.042	43.86
183.262	31.57
183.482	41.81
183.701	19.29
183.921	41.81
184.141	9.05
184.361	86.87
184.58	76.63
184.8	31.57
185.02	-3.24
185.239	82.77
185.459	54.1
185.679	88.92
185.898	66.39
186.118	47.96
186.338	43.86
186.557	86.87
186.777	-9.39
186.997	27.48
187.216	-36.01
187.436	88.92
187.655	50
187.875	72.53
188.095	-13.48
188.314	93.01
188.534	66.39
188.753	35.67
188.973	29.52
189.192	70.48
189.412	117.59
189.631	56.15
189.851	-40.11
190.07	80.72
190.29	64.34
190.509	148.31
190.729	74.58
190.948	33.62
191.168	181.07
191.387	66.39
191.607	56.15
191.826	99.16
192.045	13.14
192.265	84.82
192.484	62.29
192.704	17.24
192.923	74.58
193.142	29.52
193.362	78.68
193.581	47.96
193.8	41.81
194.02	82.77
194.239	64.34
194.458	17.24
194.678	15.19
194.897	31.57
195.116	66.39
195.335	109.4
195.555	7
195.774	33.62
195.993	78.68
196.212	9.05
196.432	23.38
196.651	33.62
196.87	84.82
197.089	113.49
197.308	23.38
197.528	39.76
197.747	19.29
197.966	129.88
198.185	-5.29
198.404	7
198.623	43.86
198.842	125.78
199.062	17.24
199.281	99.16
199.5	13.14
199.719	76.63
199.938	47.96
200.157	-1.19
200.376	25.43
200.595	111.44
200.814	39.76
201.033	9.05
201.252	13.14
201.471	88.92
201.69	88.92
201.909	21.33
202.128	86.87
202.347	41.81
202.566	17.24
202.785	50
203.004	-5.29
203.223	90.96
203.442	27.48
203.661	58.2
203.879	29.52
204.098	86.87
204.317	23.38
204.536	80.72
204.755	35.67
204.974	47.96
205.193	43.86
205.411	68.44
205.63	4.95
205.849	47.96
206.068	86.87
206.287	19.29
206.505	97.11
206.724	-60.59
206.943	0.85
207.162	43.86
207.381	15.19
207.599	15.19
207.818	52.05
208.037	64.34
208.255	68.44
208.474	80.72
208.693	54.1
208.911	19.29
209.13	35.67
209.349	41.81
209.567	19.29
209.786	33.62
210.005	62.29
210.223	25.43
210.442	11.09
210.661	64.34
210.879	62.29
211.098	23.38
211.316	-17.58
211.535	95.06
211.753	21.33
211.972	136.02
212.191	13.14
212.409	64.34
212.628	17.24
212.846	50
213.065	90.96
213.283	160.59
213.502	21.33
213.72	19.29
213.938	125.78
214.157	39.76
214.375	29.52
214.594	58.2
214.812	11.09
215.031	-11.43
215.249	45.91
215.467	66.39
215.686	19.29
215.904	-9.39
216.122	54.1
216.341	11.09
216.559	23.38
216.778	76.63
216.996	11.09
217.214	31.57
217.432	-31.91
217.651	54.1
217.869	93.01
218.087	33.62
218.306	17.24
218.524	109.4
218.742	-11.43
218.96	74.58
219.179	99.16
219.397	23.38
219.615	80.72
219.833	90.96
220.051	-9.39
220.27	50
220.488	-46.25
220.706	-13.48
220.924	62.29
221.142	31.57
221.36	9.05
221.578	41.81
221.796	45.91
222.015	90.96
222.233	103.25
222.451	113.49
222.669	-40.11
222.887	33.62
223.105	52.05
223.323	95.06
223.541	4.95
223.759	27.48
223.977	50
224.195	-13.48
224.413	109.4
224.631	64.34
224.849	99.16
225.067	93.01
225.285	-33.96
225.503	39.76
225.721	-9.39
225.939	111.44
226.157	33.62
226.375	101.2
226.592	88.92
226.81	50
227.028	72.53
227.246	121.68
227.464	23.38
227.682	33.62
227.9	56.15
228.117	-21.67
228.335	31.57
228.553	-5.29
228.771	29.52
228.989	88.92
229.206	50
229.424	43.86
229.642	19.29
229.86	47.96
230.077	84.82
230.295	95.06
230.513	58.2
230.731	88.92
230.948	58.2
231.166	136.02
231.384	35.67
231.601	90.96
231.819	78.68
232.037	11.09
232.254	-44.2
232.472	43.86
232.689	86.87
232.907	64.34
233.125	68.44
233.342	60.24
233.56	-17.58
233.777	84.82
233.995	56.15
234.213	97.11
234.43	95.06
234.648	25.43
234.865	74.58
235.083	45.91
235.3	60.24
235.518	62.29
235.735	131.92
235.953	115.54
236.17	80.72
236.388	78.68
236.605	95.06
236.822	54.1
237.04	33.62
237.257	9.05
237.475	-5.29
237.692	70.48
237.909	76.63
238.127	7
238.344	66.39
238.562	-15.53
238.779	13.14
238.996	56.15
239.214	58.2
239.431	84.82
239.648	64.34
239.865	-11.43
240.083	29.52
240.3	33.62
240.517	29.52
240.735	76.63
240.952	95.06
241.169	113.49
241.386	125.78
241.603	43.86
241.821	37.72
242.038	76.63
242.255	95.06
242.472	29.52
242.689	33.62
242.907	117.59
243.124	15.19
243.341	76.63
243.558	35.67
243.775	-1.19
243.992	-40.11
244.209	39.76
244.426	72.53
244.643	123.73
244.86	70.48
245.078	74.58
245.295	35.67
245.512	68.44
245.729	76.63
245.946	4.95
246.163	78.68
246.38	35.67
246.597	41.81
246.814	93.01
247.031	27.48
247.248	88.92
247.464	23.38
247.681	62.29
247.898	72.53
248.115	84.82
248.332	15.19
248.549	123.73
248.766	27.48
248.983	97.11
249.2	56.15
249.417	45.91
249.633	41.81
249.85	31.57
250.067	86.87
250.284	107.35
250.501	27.48
250.717	66.39
250.934	35.67
251.151	68.44
251.368	62.29
251.585	60.24
251.801	84.82
252.018	15.19
252.235	129.88
252.451	33.62
252.668	-19.63
252.885	62.29
253.102	131.92
253.318	35.67
253.535	60.24
253.752	66.39
253.968	7
254.185	103.25
254.401	19.29
254.618	41.81
254.835	0.85
255.051	129.88
255.268	39.76
255.484	70.48
255.701	45.91
255.917	80.72
256.134	-3.24
256.351	9.05
256.567	41.81
256.784	76.63
257	-15.53
257.217	41.81
257.433	74.58
257.65	148.31
257.866	37.72
258.082	11.09
258.299	88.92
258.515	78.68
258.732	-21.67
258.948	45.91
259.165	84.82
259.381	74.58
259.597	125.78
259.814	15.19
260.03	64.34
260.246	45.91
260.463	68.44
260.679	23.38
260.895	52.05
261.112	21.33
261.328	140.12
261.544	82.77
261.761	72.53
261.977	64.34
262.193	7
262.409	56.15
262.626	93.01
262.842	39.76
263.058	31.57
263.274	17.24
263.49	68.44
263.707	136.02
263.923	105.3
264.139	-7.34
264.355	47.96
264.571	74.58
264.787	-5.29
265.004	121.68
265.22	-7.34
265.436	68.44
265.652	4.95
265.868	56.15
266.084	78.68
266.3	-5.29
266.516	103.25
266.732	27.48
266.948	41.81
267.164	47.96
267.38	84.82
267.596	19.29
267.812	66.39
268.028	58.2
268.244	7
268.46	13.14
268.676	29.52
268.892	82.77
269.108	52.05
269.324	86.87
269.54	-9.39
269.756	148.31
269.972	88.92
270.188	113.49
270.403	7
270.619	70.48
270.835	47.96
271.051	80.72
271.267	2.9
271.483	13.14
271.698	35.67
271.914	88.92
272.13	39.76
272.346	31.57
272.562	76.63
272.777	74.58
272.993	-15.53
273.209	60.24
273.425	97.11
273.64	68.44
273.856	47.96
274.072	68.44
274.287	43.86
274.503	136.02
274.719	54.1
274.934	86.87
275.15	0.85
275.366	78.68
275.581	15.19
275.797	68.44
276.012	82.77
276.228	-9.39
276.444	82.77
276.659	31.57
276.875	29.52
277.09	33.62
277.306	37.72
277.521	101.2
277.737	52.05
277.952	76.63
278.168	31.57
278.383	2.9
278.599	33.62
278.814	86.87
279.03	29.52
279.245	54.1
279.461	0.85
279.676	80.72
279.892	37.72
280.107	41.81
280.322	15.19
280.538	27.48
280.753	-1.19
280.969	111.44
281.184	-13.48
281.399	97.11
281.615	125.78
281.83	-1.19
282.045	27.48
282.26	60.24
282.476	72.53
282.691	31.57
282.906	50
283.122	27.48
283.337	95.06
283.552	41.81
283.767	107.35
283.983	78.68
284.198	50
284.413	133.97
284.628	13.14
284.843	-13.48
285.058	78.68
285.274	121.68
285.489	37.72
285.704	97.11
285.919	39.76
286.134	70.48
286.349	93.01
286.564	41.81
286.779	95.06
286.995	54.1
287.21	21.33
287.425	62.29
287.64	56.15
287.855	160.59
288.07	52.05
288.285	101.2
288.5	127.83
288.715	86.87
288.93	82.77
289.145	78.68
289.36	70.48
289.575	95.06
289.79	111.44
290.004	47.96
290.219	66.39
290.434	33.62
290.649	13.14
290.864	27.48
291.079	0.85
291.294	76.63
291.509	76.63
291.724	11.09
291.938	13.14
292.153	170.83
292.368	11.09
292.583	58.2
292.798	72.53
293.012	66.39
293.227	129.88
293.442	107.35
293.657	97.11
293.871	50
294.086	95.06
294.301	66.39
294.516	117.59
294.73	82.77
294.945	54.1
295.16	43.86
295.374	52.05
295.589	47.96
295.804	-42.15
296.018	56.15
296.233	82.77
296.447	50
296.662	105.3
296.877	119.64
297.091	27.48
297.306	2.9
297.52	27.48
297.735	125.78
297.949	72.53
298.164	88.92
298.378	43.86
298.593	4.95
298.807	121.68
299.022	43.86
299.236	93.01
299.451	80.72
299.665	31.57
299.88	70.48
300.094	-7.34
300.309	64.34
300.523	54.1
300.737	66.39
300.952	23.38
301.166	52.05
301.381	111.44
301.595	-17.58
301.809	54.1
302.024	86.87
302.238	56.15
302.452	93.01
302.667	54.1
302.881	95.06
303.095	82.77
303.309	78.68
303.524	52.05
303.738	117.59
303.952	27.48
304.166	-33.96
304.381	109.4
304.595	39.76
304.809	35.67
305.023	54.1
305.237	82.77
305.452	-25.77
305.666	82.77
305.88	54.1
306.094	113.49
306.308	27.48
306.522	66.39
306.736	99.16
306.95	72.53
307.164	45.91
307.379	-9.39
307.593	138.07
307.807	23.38
308.021	64.34
308.235	25.43
308.449	17.24
308.663	41.81
308.877	66.39
309.091	84.82
309.305	37.72
309.519	31.57
309.733	84.82
309.947	78.68
310.161	99.16
310.374	64.34
310.588	56.15
310.802	23.38
311.016	50
311.23	56.15
311.444	68.44
311.658	-13.48
311.872	88.92
312.085	117.59
312.299	140.12
312.513	80.72
312.727	88.92
312.941	-5.29
313.154	131.92
313.368	90.96
313.582	72.53
313.796	90.96
314.009	56.15
314.223	115.54
314.437	56.15
314.651	105.3
314.864	50
315.078	52.05
315.292	25.43
315.505	107.35
315.719	82.77
315.933	127.83
316.146	-9.39
316.36	54.1
316.573	78.68
316.787	37.72
317.001	33.62
317.214	19.29
317.428	11.09
317.641	-15.53
317.855	33.62
318.068	25.43
318.282	54.1
318.495	84.82
318.709	82.77
318.922	47.96
319.136	64.34
319.349	76.63
319.563	103.25
319.776	4.95
319.99	9.05
320.203	33.62
320.417	133.97
320.63	109.4
320.843	97.11
321.057	62.29
321.27	62.29
321.483	78.68
321.697	113.49
321.91	52.05
322.124	66.39
322.337	58.2
322.55	41.81
322.763	101.2
322.977	60.24
323.19	-15.53
323.403	68.44
323.617	84.82
323.83	23.38
324.043	109.4
324.256	60.24
324.469	76.63
324.683	127.83
324.896	68.44
325.109	95.06
325.322	70.48
325.535	66.39
325.748	41.81
325.962	41.81
326.175	50
326.388	150.36
326.601	74.58
326.814	17.24
327.027	66.39
327.24	80.72
327.453	50
327.666	119.64
327.879	66.39
328.092	129.88
328.305	136.02
328.518	88.92
328.731	-11.43
328.944	101.2
329.157	56.15
329.37	68.44
329.583	66.39
329.796	121.68
330.009	9.05
330.222	105.3
330.435	27.48
330.648	41.81
330.861	17.24
331.073	82.77
331.286	66.39
331.499	107.35
331.712	60.24
331.925	127.83
332.138	109.4
332.35	144.21
332.563	56.15
332.776	152.4
332.989	72.53
333.202	111.44
333.414	80.72
333.627	64.34
333.84	68.44
334.053	11.09
334.265	25.43
334.478	86.87
334.691	33.62
334.903	74.58
335.116	68.44
335.329	80.72
335.541	103.25
335.754	117.59
335.966	64.34
336.179	99.16
336.392	23.38
336.604	25.43
336.817	35.67
337.029	119.64
337.242	50
337.454	64.34
337.667	78.68
337.88	109.4
338.092	33.62
338.305	64.34
338.517	93.01
338.729	54.1
338.942	58.2
339.154	19.29
339.367	54.1
339.579	88.92
339.792	45.91
340.004	93.01
340.217	88.92
340.429	88.92
340.641	78.68
340.854	84.82
341.066	82.77
341.278	78.68
341.491	64.34
341.703	80.72
341.915	52.05
342.128	99.16
342.34	47.96
342.552	97.11
342.764	66.39
342.977	86.87
343.189	111.44
343.401	39.76
343.613	84.82
343.826	140.12
344.038	78.68
344.25	68.44
344.462	64.34
344.674	109.4
344.886	41.81
345.099	109.4
345.311	47.96
345.523	123.73
345.735	47.96
345.947	90.96
346.159	33.62
346.371	60.24
346.583	27.48
346.795	52.05
347.007	95.06
347.219	56.15
347.431	103.25
347.643	103.25
347.855	80.72
348.067	111.44
348.279	23.38
348.491	39.76
348.703	68.44
348.915	45.91
349.127	45.91
349.339	82.77
349.551	45.91
349.763	113.49
349.975	52.05
350.187	70.48
350.399	74.58
350.61	136.02
350.822	13.14
351.034	21.33
351.246	47.96
351.458	62.29
351.669	13.14
351.881	41.81
352.093	111.44
352.305	115.54
352.517	27.48
352.728	138.07
352.94	86.87
353.152	86.87
353.363	109.4
353.575	105.3
353.787	66.39
353.999	101.2
354.21	133.97
354.422	60.24
354.633	47.96
354.845	52.05
355.057	2.9
355.268	80.72
355.48	115.54
355.692	103.25
355.903	121.68
356.115	78.68
356.326	74.58
356.538	86.87
356.749	50
356.961	90.96
357.172	142.16
357.384	74.58
357.595	105.3
357.807	45.91
358.018	60.24
358.23	121.68
358.441	70.48
358.653	43.86
358.864	84.82
359.075	64.34
359.287	158.55
359.498	207.7
359.709	84.82
359.921	64.34
360.132	97.11
360.344	95.06
360.555	58.2
360.766	95.06
360.977	68.44
361.189	35.67
361.4	101.2
361.611	123.73
361.823	109.4
362.034	136.02
362.245	93.01
362.456	72.53
362.667	129.88
362.879	84.82
363.09	90.96
363.301	74.58
363.512	54.1
363.723	70.48
363.935	-52.39
364.146	88.92
364.357	80.72
364.568	80.72
364.779	117.59
364.99	97.11
365.201	45.91
365.412	62.29
365.623	27.48
365.834	121.68
366.045	109.4
366.256	113.49
366.467	39.76
366.678	95.06
366.889	72.53
367.1	158.55
367.311	70.48
367.522	43.86
367.733	150.36
367.944	105.3
368.155	97.11
368.366	76.63
368.577	142.16
368.788	78.68
368.999	58.2
369.209	146.26
369.42	111.44
369.631	93.01
369.842	72.53
370.053	39.76
370.264	121.68
370.474	115.54
370.685	117.59
370.896	37.72
371.107	52.05
371.317	105.3
371.528	74.58
371.739	103.25
371.95	37.72
372.16	88.92
372.371	66.39
372.582	64.34
372.792	70.48
373.003	174.93
373.214	54.1
373.424	64.34
373.635	56.15
373.846	125.78
374.056	54.1
374.267	125.78
374.477	105.3
374.688	115.54
374.898	23.38
375.109	133.97
375.319	152.4
375.53	119.64
375.74	86.87
375.951	164.69
376.161	43.86
376.372	170.83
376.582	84.82
376.793	93.01
377.003	123.73
377.214	119.64
377.424	148.31
377.635	52.05
377.845	93.01
378.055	41.81
378.266	54.1
378.476	82.77
378.686	72.53
378.897	39.76
379.107	88.92
379.317	35.67
379.528	127.83
379.738	111.44
379.948	90.96
380.158	84.82
380.369	121.68
380.579	95.06
380.789	19.29
380.999	123.73
381.21	56.15
381.42	144.21
381.63	140.12
381.84	152.4
382.05	84.82
382.261	179.03
382.471	82.77
382.681	119.64
382.891	107.35
383.101	160.59
383.311	138.07
383.521	78.68
383.731	107.35
383.941	189.27
384.151	95.06
384.361	80.72
384.571	125.78
384.781	62.29
384.991	90.96
385.201	93.01
385.411	82.77
385.621	21.33
385.831	129.88
386.041	50
386.251	90.96
386.461	93.01
386.671	158.55
386.881	109.4
387.091	129.88
387.301	99.16
387.511	189.27
387.72	60.24
387.93	101.2
388.14	58.2
388.35	136.02
388.56	99.16
388.769	109.4
388.979	41.81
389.189	66.39
389.399	99.16
389.609	109.4
389.818	166.74
390.028	162.64
390.238	158.55
390.447	127.83
390.657	54.1
390.867	66.39
391.076	70.48
391.286	88.92
391.496	97.11
391.705	60.24
391.915	183.12
392.125	138.07
392.334	166.74
392.544	105.3
392.753	123.73
392.963	138.07
393.172	146.26
393.382	115.54
393.591	97.11
393.801	99.16
394.01	152.4
394.22	99.16
394.429	111.44
394.639	64.34
394.848	172.88
395.058	78.68
395.267	138.07
395.477	150.36
395.686	191.31
395.895	119.64
396.105	168.79
396.314	68.44
396.524	174.93
396.733	181.07
396.942	174.93
397.152	207.7
397.361	152.4
397.57	131.92
397.78	162.64
397.989	172.88
398.198	117.59
398.407	172.88
398.617	213.84
398.826	90.96
399.035	176.98
399.244	185.17
399.453	160.59
399.663	195.41
399.872	168.79
400.081	187.22
400.29	195.41
400.499	84.82
400.708	197.46
400.917	176.98
401.127	150.36
401.336	262.99
401.545	224.08
401.754	136.02
401.963	205.65
402.172	176.98
402.381	185.17
402.59	240.47
402.799	158.55
403.008	142.16
403.217	246.61
403.426	232.27
403.635	127.83
403.844	183.12
404.053	189.27
404.262	222.03
404.471	258.9
404.68	156.5
404.888	199.51
405.097	176.98
405.306	189.27
405.515	244.56
405.724	219.99
405.933	262.99
406.142	170.83
406.35	275.28
406.559	320.34
406.768	269.14
406.977	295.76
407.185	336.72
407.394	244.56
407.603	318.29
407.812	349.01
408.02	385.87
408.229	318.29
408.438	312.14
408.646	306
408.855	381.78
409.064	365.39
409.272	336.72
409.481	355.15
409.69	365.39
409.898	435.02
410.107	521.04
410.315	500.56
410.524	385.87
410.733	500.56
410.941	363.34
411.15	559.95
411.358	596.81
411.567	615.24
411.775	537.42
411.984	621.39
412.192	670.54
412.401	631.63
412.609	643.92
412.818	656.2
413.026	672.59
413.234	746.31
413.443	713.55
413.651	789.32
413.86	807.75
414.068	828.23
414.276	883.53
414.485	940.87
414.693	942.92
414.901	1026.89
415.11	981.83
415.318	977.73
415.526	1084.23
415.734	1080.13
415.943	1100.61
416.151	1110.85
416.359	1143.62
416.567	1155.91
416.776	1243.97
416.984	1385.28
417.192	1461.06
417.4	1456.96
417.608	1327.94
417.817	1508.16
418.025	1555.26
418.233	1641.28
418.441	1624.89
418.649	1702.72
418.857	1741.63
419.065	1878.84
419.273	1782.59
419.481	1909.56
419.689	2073.4
419.897	2022.2
420.105	2095.93
420.313	2288.43
420.521	2265.91
420.729	2190.13
420.937	2298.67
421.145	2390.83
421.353	2444.08
421.561	2693.93
421.769	2796.33
421.977	2825
422.185	2894.63
422.393	2972.46
422.601	3136.29
422.809	3212.07
423.017	3078.95
423.224	3441.44
423.432	3390.24
423.64	3611.42
423.848	3805.98
424.056	3662.62
424.263	3941.15
424.471	3990.3
424.679	4057.88
424.887	4217.62
425.094	4340.5
425.302	4324.12
425.51	4453.14
425.718	4737.81
425.925	4944.65
426.133	4825.87
426.341	5169.93
426.548	5397.25
426.756	5333.76
426.964	5440.26
427.171	5802.75
427.379	5982.97
427.586	6021.88
427.794	6415.09
428.001	6576.88
428.209	6703.86
428.417	6834.93
428.624	7260.9
428.832	7142.12
429.039	7166.7
429.247	7342.82
429.454	7701.22
429.662	8319.7
429.869	7750.37
430.076	8516.31
430.284	7957.21
430.491	8458.96
430.699	8991.44
430.906	9179.85
431.114	8979.15
431.321	9630.4
431.528	9804.48
431.736	10259.13
431.943	10531.51
432.15	10318.52
432.358	10549.94
432.565	11223.72
432.772	10949.29
432.979	11719.33
433.187	11905.7
433.394	12024.48
433.601	12636.82
433.808	12741.27
434.016	12544.66
434.223	13306.51
434.43	13900.42
434.637	13697.67
434.844	14609.01
435.052	14592.63
435.259	14602.87
435.466	14918.26
435.673	14879.35
435.88	15770.21
436.087	16255.58
436.294	16814.68
436.501	16308.83
436.708	16503.39
436.915	17007.19
437.122	17906.24
437.329	17582.67
437.537	18584.12
437.743	18819.64
437.95	18455.1
438.157	19636.78
438.364	20224.54
438.571	20058.66
438.778	20458.01
438.985	21797.38
439.192	21234.19
439.399	21993.99
439.606	21436.94
439.813	22567.42
440.02	24109.54
440.227	23587.31
440.433	23036.41
440.64	24150.5
440.847	23904.74
441.054	24443.36
441.261	26040.78
441.467	25805.26
441.674	26622.4
441.881	27673.01
442.088	27017.66
442.294	26929.59
442.501	28217.77
442.708	28479.91
442.914	29467.03
443.121	30962.04
443.328	29960.59
443.534	32000.37
443.741	31359.35
443.948	30718.34
444.154	32889.18
444.361	32711.01
444.568	32770.4
444.774	32774.5
444.981	33499.48
445.187	34271.56
445.394	35838.26
445.6	35344.7
445.807	38607.11
446.013	37325.08
446.22	37947.67
446.426	39127.3
446.633	39473.4
446.839	40818.92
447.046	39627
447.252	41486.56
447.459	41656.54
447.665	41525.47
447.871	42862.79
448.078	45168.8
448.284	42584.27
448.491	43788.47
448.697	45619.36
448.903	46596.24
449.11	46426.26
449.316	45912.22
449.522	46815.37
449.728	47988.86
449.935	48281.72
450.141	48226.42
450.347	49338.47
450.553	47810.68
450.76	48449.65
450.966	50202.71
451.172	49320.04
451.378	50505.81
451.584	49967.19
451.791	50909.26
451.997	50927.69
452.203	51769.41
452.409	51705.92
452.615	51793.98
452.821	49754.21
453.027	48908.4
453.233	51607.62
453.44	49709.15
453.646	50225.24
453.852	50327.64
454.058	51595.33
454.264	49537.12
454.47	51069
454.676	49657.95
454.882	51578.95
455.088	47153.29
455.294	47751.29
455.5	48097.4
455.705	48509.04
455.911	46979.21
456.117	46657.68
456.323	45209.76
456.529	43288.77
456.735	44910.76
456.941	44118.2
457.147	43368.64
457.352	42107.09
457.558	41523.42
457.764	41492.7
457.97	41113.83
458.176	40052.98
458.381	39776.5
458.587	37992.72
458.793	38295.82
458.999	36288.81
459.204	38723.85
459.41	37409.05
459.616	34822.47
459.821	35066.17
460.027	35168.57
460.233	34337.1
460.438	32713.06
460.644	32725.35
460.85	31328.63
461.055	30751.1
461.261	30671.23
461.466	28838.3
461.672	27886
461.878	29677.97
462.083	27462.07
462.289	27320.76
462.494	27027.9
462.7	25647.57
462.905	25000.41
463.111	25864.65
463.316	26075.59
463.522	25711.05
463.727	25670.09
463.932	25283.03
464.138	25102.81
464.343	25514.45
464.549	24611.29
464.754	25457.1
464.959	25014.74
465.165	25043.42
465.37	23839.21
465.575	23216.63
465.781	24373.73
465.986	24275.43
466.191	23732.72
466.397	23151.09
466.602	22063.62
466.807	22608.38
467.012	22886.9
467.218	22419.97
467.423	22485.5
467.628	22534.65
467.833	23312.88
468.038	22909.43
468.244	22352.38
468.449	22839.8
468.654	22028.81
468.859	21957.13
469.064	21959.17
469.269	20963.86
469.474	21088.79
469.679	21604.88
469.885	21092.88
470.09	21549.58
470.295	21373.46
470.5	20593.18
470.705	20906.52
470.91	20363.81
471.115	20036.13
471.32	20431.39
471.525	20144.67
471.73	19935.78
471.935	19616.3
472.139	19016.24
472.344	19313.2
472.549	19202.61
472.754	18954.8
472.959	18444.86
473.164	18086.47
473.369	17928.77
473.574	18635.32
473.778	18364.99
473.983	18131.52
474.188	18172.48
474.393	17105.49
474.598	17312.33
474.802	17048.15
475.007	17261.13
475.212	17150.54
475.417	16513.63
475.621	16583.26
475.826	16507.48
476.031	16380.51
476.235	15895.14
476.44	16007.78
476.645	15962.72
476.849	15905.38
477.054	15557.22
477.259	15544.94
477.463	15489.64
477.668	14912.11
477.872	15155.82
478.077	15030.9
478.282	14590.58
478.486	14525.05
478.691	14375.55
478.895	14246.52
479.1	14340.73
479.304	14160.51
479.509	13947.52
479.713	14271.1
479.918	13732.48
480.122	13593.22
480.326	13787.78
480.531	13881.99
480.735	13689.48
480.94	13496.97
481.144	13875.84
481.348	13056.65
481.553	13503.11
481.757	13140.62
481.961	13431.43
482.166	13453.96
482.37	13544.07
482.574	13189.77
482.778	13220.49
482.983	13324.94
483.187	13220.49
483.391	13499.02
483.595	13390.47
483.8	13169.29
484.004	13140.62
484.208	13275.79
484.412	12884.62
484.616	13355.66
484.821	13259.4
485.025	12984.98
485.229	13259.4
485.433	13042.32
485.637	13318.79
485.841	13214.35
486.045	13165.2
486.249	13251.21
486.453	12855.95
486.657	13232.78
486.861	13259.4
487.065	12962.45
487.269	13177.48
487.473	13021.84
487.677	13415.05
487.881	13607.56
488.085	13066.89
488.289	13222.54
488.493	13120.14
488.697	13253.26
488.901	13083.28
489.105	13173.39
489.309	13300.36
489.512	13351.56
489.716	13525.64
489.92	13261.45
490.124	13372.04
490.328	13638.28
490.531	13605.51
490.735	13529.73
490.939	13683.33
491.143	13353.61
491.346	13322.89
491.55	13632.13
491.754	13793.92
491.958	13812.35
492.161	13619.85
492.365	13941.38
492.569	13812.35
492.772	14025.34
492.976	14062.21
493.18	14031.49
493.383	14398.07
493.587	14361.21
493.79	14512.76
493.994	14301.82
494.197	14350.97
494.401	14475.9
494.605	14477.94
494.808	14703.22
495.012	14897.78
495.215	14979.7
495.419	15055.47
495.622	15065.71
495.825	15469.16
496.029	15084.14
496.232	15612.52
496.436	15549.03
496.639	15845.99
496.843	15692.39
497.046	16075.36
497.249	16292.44
497.453	16372.32
497.656	16439.9
497.859	16429.66
498.063	16388.7
498.266	17130.06
498.469	16820.82
498.673	17164.88
498.876	17443.4
499.079	17488.46
499.282	17455.69
499.485	18166.34
499.689	18227.78
499.892	18256.45
500.095	18596.41
500.298	18944.56
500.501	18737.72
500.705	18997.81
500.908	19278.38
501.111	19575.34
501.314	19612.2
501.517	19946.02
501.72	20189.73
501.923	20122.15
502.126	20638.23
502.329	20795.93
502.532	21008.92
502.735	20834.84
502.938	21328.4
503.141	21707.27
503.344	21633.55
503.547	21740.04
503.75	22301.19
503.953	22858.23
504.156	22647.29
504.359	23099.89
504.562	23083.51
504.765	23511.53
504.968	23763.43
505.17	23892.46
505.373	24271.33
505.576	24799.71
505.779	24799.71
505.982	24779.23
506.185	25145.81
506.387	25401.81
506.59	25881.03
506.793	26599.87
506.996	26081.74
507.198	27095.48
507.401	26550.72
507.604	27169.21
507.807	27865.52
508.009	27736.49
508.212	27890.09
508.415	28209.57
508.617	28682.66
508.82	28666.27
509.022	28346.79
509.225	29475.22
509.428	29675.92
509.63	29798.8
509.833	29858.19
510.035	30669.19
510.238	30632.32
510.44	30972.28
510.643	31474.04
510.845	32151.91
511.048	31662.45
511.25	32115.05
511.453	32090.48
511.655	33356.12
511.858	33139.04
512.06	33134.94
512.262	33618.26
512.465	34005.33
512.667	34163.02
512.87	34545.99
513.072	34552.13
513.274	35463.48
513.477	35422.52
513.679	36317.48
513.881	36415.79
514.084	36534.57
514.286	36100.4
514.488	36882.72
514.69	38144.27
514.893	38023.44
515.095	38033.68
515.297	38426.89
515.499	38508.81
515.701	38926.6
515.904	39493.88
516.106	39469.31
516.308	39913.72
516.51	40497.39
516.712	40755.43
516.914	41058.53
517.116	41504.99
517.318	41715.93
517.52	41906.39
517.722	42455.25
517.925	42539.21
518.127	43043.01
518.329	43395.26
518.531	43280.58
518.733	44476.59
518.935	44310.71
519.136	44404.91
519.338	45418.66
519.54	45514.91
519.742	45719.71
519.944	46131.35
520.146	46657.68
520.348	46872.71
520.55	46911.63
520.752	47255.68
520.954	47693.95
521.155	47814.78
521.357	48814.19
521.559	48588.91
521.761	49516.64
521.963	49395.81
522.164	49481.83
522.366	49700.96
522.568	50137.18
522.77	50585.68
522.971	50978.89
523.173	50931.79
523.375	51302.47
523.576	51673.15
523.778	51427.4
523.98	52308.02
524.181	52566.07
524.383	52271.16
524.584	53162.03
524.786	53252.14
524.988	52527.16
525.189	53538.85
525.391	54044.7
525.592	54308.89
525.794	54407.19
525.995	54317.08
526.197	54229.02
526.398	54634.52
526.6	54986.77
526.801	55281.67
527.003	55353.35
527.204	55695.36
527.406	55803.91
527.607	55754.75
527.808	56303.61
528.01	55144.46
528.211	55652.36
528.412	56854.51
528.614	56469.5
528.815	56549.37
529.016	57120.75
529.218	57087.98
529.419	56915.95
529.62	57006.06
529.822	56965.1
530.023	57305.07
530.224	57335.79
530.425	57309.16
530.626	56860.66
530.828	56891.38
531.029	58185.69
531.23	57554.92
531.431	57468.9
531.632	57847.78
531.833	57878.5
532.035	57729
532.236	58038.24
532.437	58605.53
532.638	57528.3
532.839	58429.4
533.04	58220.51
533.241	57542.63
533.442	58609.62
533.643	58783.7
533.844	57993.18
534.045	58699.73
534.246	57858.02
534.447	58439.64
534.648	58062.82
534.849	58472.41
535.05	57806.82
535.251	58273.76
535.451	58157.02
535.652	58576.86
535.853	58613.72
536.054	58675.16
536.255	58683.35
536.456	58193.89
536.657	59121.62
536.857	58705.88
537.058	57925.6
537.259	58898.39
537.46	58470.36
537.66	58083.3
537.861	58359.77
538.062	58515.42
538.263	58447.83
538.463	57624.55
538.664	58419.16
538.865	58679.25
539.065	58787.8
539.266	58032.1
539.466	58591.19
539.667	57847.78
539.868	58777.56
540.068	57919.46
540.269	58374.11
540.469	58509.27
540.67	57808.87
540.87	58245.08
541.071	58255.32
541.271	58419.16
541.472	58544.09
541.672	57927.65
541.873	57913.31
542.073	57522.15
542.274	58402.78
542.474	58001.38
542.675	57743.33
542.875	58517.46
543.075	58232.8
543.276	57401.32
543.476	57954.27
543.676	57898.98
543.877	58126.3
544.077	57843.68
544.277	57518.06
544.478	57966.56
544.678	58476.51
544.878	57751.52
545.078	58056.67
545.279	57522.15
545.479	57849.83
545.679	57890.79
545.879	57946.08
546.079	57853.92
546.28	57737.19
546.48	57202.67
546.68	57378.79
546.88	57681.89
547.08	57796.58
547.28	57257.96
547.48	57352.17
547.68	57677.8
547.88	57194.48
548.081	58030.05
548.281	57677.8
548.481	57636.84
548.681	57972.7
548.881	57618.41
549.081	57901.03
549.28	57352.17
549.48	57628.65
549.68	57212.91
549.88	58124.25
550.08	57284.59
550.28	57491.43
550.48	56997.87
550.68	58189.79
550.88	56907.76
551.08	57661.41
551.279	57423.85
551.479	56690.68
551.679	57477.1
551.879	57429.99
552.079	57821.16
552.278	56915.95
552.478	57391.08
552.678	57110.51
552.878	57915.36
553.077	57042.93
553.277	56625.14
553.477	57667.56
553.676	57429.99
553.876	57159.66
554.076	56897.52
554.275	56805.36
554.475	56494.07
554.674	56842.23
554.874	56834.03
555.074	56866.8
555.273	56850.42
555.473	57212.91
555.672	56541.17
555.872	56680.44
556.071	56737.78
556.271	56961.01
556.47	56891.38
556.67	56285.18
556.869	56578.04
557.068	56172.54
557.268	56057.85
557.467	56520.69
557.667	56367.1
557.866	56285.18
558.065	56164.35
558.265	56174.59
558.464	55642.12
558.663	56387.58
558.863	55683.08
559.062	56428.54
559.261	55500.81
559.461	56113.15
559.66	55306.25
559.859	55658.5
560.058	55488.52
560.258	55836.67
560.457	55382.02
560.656	55779.33
560.855	55097.36
561.054	55900.16
561.253	55478.28
561.453	55402.5
561.652	55611.4
561.851	55416.84
562.05	55240.71
562.249	54792.21
562.448	55263.24
562.647	55050.25
562.846	54597.65
563.045	55113.74
563.244	54708.24
563.443	55044.11
563.642	53923.87
563.841	54577.17
564.04	54108.19
564.239	54798.35
564.438	54220.83
564.637	54061.08
564.836	54331.42
565.035	53571.62
565.234	54071.32
565.432	53553.19
565.631	53622.82
565.83	53956.64
566.029	53119.02
566.228	53524.52
566.427	53360.68
566.625	52965.42
566.824	52238.39
567.023	53385.25
567.222	52719.66
567.42	53508.13
567.619	52994.09
567.818	52779.06
568.016	52529.2
568.215	52883.5
568.414	52533.3
568.612	52719.66
568.811	52320.31
569.01	52557.88
569.208	51685.44
569.407	52449.33
569.605	51527.75
569.804	52078.65
570.002	51712.06
570.201	52181.05
570.4	51515.46
570.598	51447.88
570.797	51157.06
570.995	51587.14
571.193	50776.14
571.392	51456.07
571.59	50997.32
571.789	50847.82
571.987	50620.5
572.186	50333.78
572.384	50554.96
572.582	50415.7
572.781	50751.57
572.979	49862.75
573.177	50059.35
573.376	50505.81
573.574	49594.46
573.772	50149.46
573.971	49981.53
574.169	49070.18
574.367	49158.25
574.565	49428.58
574.763	49199.21
574.962	49084.52
575.16	48965.74
575.358	49047.66
575.556	48504.95
575.754	49066.09
575.952	48337.01
576.151	48611.44
576.349	48257.14
576.547	48390.26
576.745	48169.08
576.943	48242.81
577.141	48222.33
577.339	48134.26
577.537	47892.6
577.735	47614.08
577.933	47464.58
578.131	47417.47
578.329	47130.76
578.527	46958.73
578.725	47237.25
578.923	47138.95
579.121	46680.21
579.319	46456.98
579.516	47132.81
579.714	46821.51
579.912	46135.45
580.11	46239.89
580.308	46805.13
580.506	46278.8
580.704	45115.56
580.901	46094.49
581.099	46487.7
581.297	46035.09
581.495	45455.52
581.692	45897.88
581.89	45381.79
582.088	45306.02
582.285	45021.35
582.483	45451.42
582.681	45295.78
582.878	45023.4
583.076	44558.51
583.274	44812.46
583.471	44378.29
583.669	44253.36
583.866	44042.42
584.064	44329.14
584.262	43944.12
584.459	44378.29
584.657	44165.3
584.854	44124.34
585.052	43290.82
585.249	43821.24
585.447	43352.26
585.644	43045.06
585.841	43346.11
586.039	43604.16
586.236	42631.37
586.434	42782.92
586.631	42621.13
586.828	42653.9
587.026	42633.42
587.223	42502.35
587.42	42436.81
587.618	42256.59
587.815	41535.71
588.012	41976.02
588.21	41631.96
588.407	42105.04
588.604	41810.14
588.801	41474.27
588.999	41437.41
589.196	41312.48
589.393	41091.3
589.59	40990.95
589.787	40863.97
589.984	40767.72
590.182	40583.4
590.379	40788.2
590.576	40206.58
590.773	40280.3
590.97	40466.67
591.167	40304.88
591.364	39696.63
591.561	39844.09
591.758	39770.36
591.955	39639.29
592.152	39883
592.349	39315.71
592.546	39991.54
592.743	39293.18
592.94	38824.2
593.137	39039.23
593.334	39346.43
593.531	38531.34
593.727	38607.11
593.924	39082.24
594.121	38275.34
594.318	38709.51
594.515	38234.38
594.712	38510.86
594.908	38076.69
595.105	38478.09
595.302	37660.95
595.499	38043.92
595.696	37548.31
595.892	37613.85
596.089	37425.43
596.286	37388.57
596.482	37294.36
596.679	37386.52
596.876	37216.54
597.072	36981.03
597.269	36653.35
597.466	36262.19
597.662	36440.36
597.859	36342.06
598.055	36706.6
598.252	36376.87
598.448	36088.11
598.645	36163.89
598.841	36090.16
599.038	35817.78
599.234	35627.32
599.431	35473.72
599.627	35563.83
599.824	35539.26
600.02	35285.31
600.217	35502.39
600.413	34767.17
600.609	35068.22
600.806	34916.67
601.002	34890.05
601.198	34634.05
601.395	34539.85
601.591	34523.46
601.787	34523.46
601.984	34263.37
602.18	34652.48
602.376	34236.75
602.572	33628.5
602.769	34189.64
602.965	33663.32
603.161	33720.66
603.357	33605.97
603.553	33837.39
603.75	33626.45
603.946	33151.32
604.142	33452.37
604.338	33126.75
604.534	33147.23
604.73	32788.83
604.926	32901.47
605.122	32911.71
605.318	32637.28
605.514	32528.74
605.71	32495.97
605.906	32233.83
606.102	32313.7
606.298	32348.52
606.494	32096.62
606.69	31983.98
606.886	32149.87
607.082	31619.44
607.278	31922.54
607.474	31375.73
607.67	31943.02
607.866	31558
608.062	31709.55
608.257	31181.18
608.453	31232.38
608.649	31385.97
608.845	31097.21
609.041	31271.29
609.236	31310.2
609.432	31011.2
609.628	31117.69
609.824	30710.14
610.019	30949.76
610.215	30900.61
610.411	30486.92
610.606	30464.39
610.802	30437.76
610.998	30714.24
611.193	30769.54
611.389	30157.19
611.584	29991.31
611.78	29966.73
611.976	29927.82
612.171	29991.31
612.367	29858.19
612.562	30058.89
612.758	29415.83
612.953	29612.43
613.149	30278.02
613.344	29516.18
613.539	29936.01
613.735	29344.15
613.93	29884.81
614.126	29313.43
614.321	29755.79
614.517	29413.78
614.712	29260.18
614.907	28834.21
615.103	29147.54
615.298	29204.89
615.493	29366.68
615.688	28576.16
615.884	29579.67
616.079	28619.17
616.274	28928.41
616.47	28899.74
616.665	28791.2
616.86	28662.18
617.055	28641.7
617.25	28565.92
617.445	28490.15
617.641	27791.79
617.836	28328.36
618.031	27943.34
618.226	28041.64
618.421	27736.49
618.616	28137.9
618.811	27613.62
619.006	27994.54
619.201	27339.19
619.396	27586.99
619.591	27396.53
619.786	27132.34
619.981	26753.47
620.176	27398.58
620.371	26581.44
620.566	26827.2
620.761	26847.68
620.956	26884.54
621.151	26460.61
621.346	26821.05
621.541	25981.38
621.735	26290.63
621.93	26042.82
622.125	25809.36
622.32	25524.69
622.515	25666
622.709	25405.91
622.904	25491.92
623.099	25235.92
623.294	25225.68
623.488	24828.38
623.683	25147.86
623.878	24558.05
624.072	24773.08
624.267	24562.14
624.462	24238.56
624.656	23949.8
624.851	24111.59
625.046	23841.26
625.24	23949.8
625.435	23816.68
625.629	23593.45
625.824	23343.6
626.018	23218.68
626.213	22741.5
626.407	23312.88
626.602	22723.07
626.796	23091.7
626.991	22911.48
627.185	22927.86
627.38	22475.26
627.574	22292.99
627.768	22331.9
627.963	21946.89
628.157	22006.28
628.352	21961.22
628.546	21764.62
628.74	21846.54
628.935	21199.38
629.129	21737.99
629.323	21199.38
629.517	21027.35
629.712	21146.13
629.906	20703.77
630.1	20464.16
630.294	20736.54
630.489	20226.59
630.683	20754.97
630.877	20093.47
631.071	20156.96
631.265	20417.05
631.459	20228.64
631.653	19831.33
631.848	19929.64
632.042	19790.38
632.236	19788.33
632.43	19565.1
632.624	19454.51
632.818	19513.9
633.012	19157.55
633.206	18905.65
633.4	19130.93
633.594	18768.44
633.788	18752.06
633.982	18960.95
634.176	18876.98
634.369	18571.83
634.563	18713.14
634.757	18342.46
634.951	18324.03
635.145	18293.31
635.339	18287.17
635.533	17885.76
635.726	18061.89
635.92	17656.39
636.114	17584.71
636.308	17367.63
636.501	17484.36
636.695	17474.12
636.889	17177.17
637.083	17191.5
637.276	17072.72
637.47	17242.7
637.664	16835.16
637.857	16863.83
638.051	16779.86
638.244	16521.82
638.438	16593.5
638.632	16683.61
638.825	16407.13
639.019	16433.75
639.212	16116.32
639.406	16290.4
639.599	16071.26
639.793	16294.49
639.986	15827.56
640.18	15786.6
640.373	15786.6
640.567	15372.91
640.76	15665.77
640.954	15497.83
641.147	15315.56
641.34	15221.36
641.534	15268.46
641.727	15121.01
641.92	15188.59
642.114	15049.33
642.307	15176.3
642.5	14692.98
642.694	14551.67
642.887	14506.62
643.08	14729.84
643.273	14398.07
643.467	14277.24
643.66	14006.91
643.853	14391.93
644.046	14092.93
644.239	13892.23
644.432	14054.01
644.626	13947.52
644.819	14011.01
645.012	13822.59
645.205	13830.79
645.398	13580.93
645.591	13634.18
645.784	13621.89
645.977	13509.26
646.17	13447.82
646.363	13390.47
646.556	13009.55
646.749	13220.49
646.942	12993.17
647.135	13159.05
647.328	12804.75
647.521	12946.06
647.714	12696.21
647.907	12735.12
648.099	12745.36
648.292	12731.03
648.485	12575.38
648.678	12354.2
648.871	12208.8
649.064	12204.7
649.256	12159.64
649.449	12309.15
649.642	12231.32
649.835	12001.95
650.027	11936.42
650.22	12006.05
650.413	11715.23
650.605	11827.87
650.798	11870.88
650.991	11647.65
651.183	11831.97
651.376	11655.84
651.568	11641.51
651.761	11561.64
651.954	11410.09
652.146	11170.47
652.339	11297.45
652.531	11217.58
652.724	11121.32
652.916	10986.16
653.109	11002.54
653.301	10861.23
653.494	11102.89
653.686	10824.37
653.879	10951.34
654.071	10900.14
654.263	10857.14
654.456	10511.03
654.648	10658.48
654.84	10580.66
655.033	10283.7
655.225	10230.46
655.417	10533.56
655.61	10291.9
655.802	10285.75
655.994	10025.66
656.186	10173.11
656.379	10105.53
656.571	10066.62
656.763	10054.33
656.955	9923.26
657.148	9919.17
657.34	9986.75
657.532	9779.9
657.724	9722.56
657.916	9833.15
658.108	9552.58
658.3	9474.76
658.492	9499.33
658.684	9405.13
658.876	9407.17
659.068	9355.97
659.26	9245.38
659.452	9163.47
659.644	9345.73
659.836	9272.01
660.028	9235.14
660.22	8837.84
660.412	9128.65
660.604	8796.88
660.796	8870.61
660.988	8788.69
661.18	8938.19
661.372	8643.28
661.563	8833.74
661.755	8667.86
661.947	8790.74
662.139	8473.3
662.331	8469.2
662.522	8522.45
662.714	8450.77
662.906	8350.42
663.097	8663.76
663.289	8305.37
663.481	8370.9
663.673	8485.59
663.864	8266.46
664.056	8094.43
664.247	8239.83
664.439	7996.12
664.631	7822.05
664.822	7877.34
665.014	7928.54
665.205	7895.77
665.397	8080.09
665.588	7906.01
665.78	7842.53
665.971	7733.98
666.163	7797.47
666.354	7899.87
666.546	7629.54
666.737	7348.97
666.929	7631.58
667.12	7584.48
667.311	7594.72
667.503	7488.23
667.694	7512.8
667.885	7414.5
668.077	7400.16
668.268	7342.82
668.459	7203.56
668.651	7234.28
668.842	7250.66
669.033	7185.13
669.224	7197.42
669.416	7205.61
669.607	7156.46
669.798	7152.36
669.989	7254.76
670.18	7039.72
670.371	6957.8
670.563	6914.8
670.754	6800.11
670.945	6771.44
671.136	6859.5
671.327	6738.67
671.518	6755.05
671.709	6718.19
671.9	6804.21
672.091	6804.21
672.282	6666.99
672.473	6615.79
672.664	6834.93
672.855	6617.84
673.046	6607.6
673.237	6599.41
673.428	6714.09
673.619	6431.48
673.809	6546.16
674	6494.96
674.191	6511.35
674.382	6206.2
674.573	6255.35
674.764	6365.94
674.954	6361.84
675.145	6177.53
675.336	6361.84
675.527	6263.54
675.717	6220.53
675.908	6226.68
676.099	6142.71
676.289	6048.51
676.48	6071.03
676.671	6152.95
676.861	6093.56
677.052	6044.41
677.243	5995.26
677.433	5882.62
677.624	5980.92
677.814	5942.01
678.005	6058.74
678.195	5923.58
678.386	6017.79
678.576	5831.42
678.767	5853.95
678.957	5901.05
679.148	5972.73
679.338	5933.82
679.529	5778.17
679.719	5733.12
679.909	5753.6
680.1	5765.89
680.29	5714.69
680.481	5661.44
680.671	5821.18
680.861	5640.96
681.052	5739.26
681.242	5573.38
681.432	5708.54
681.622	5526.27
681.813	5686.01
682.003	5692.16
682.193	5612.29
682.383	5686.01
682.573	5628.67
682.764	5686.01
682.954	5583.62
683.144	5434.11
683.334	5483.27
683.524	5544.7
683.714	5399.3
683.904	5468.93
684.094	5561.09
684.284	5401.35
684.474	5569.28
684.664	5309.19
684.854	5335.81
685.044	5434.11
685.234	5335.81
685.424	5323.52
685.614	5290.76
685.804	5321.48
685.994	5184.26
686.184	5227.27
686.374	5190.41
686.564	5262.09
686.753	5221.13
686.943	5106.44
687.133	5047.05
687.323	5110.54
687.513	5094.15
687.702	5020.42
687.892	5059.34
688.082	5145.35
688.272	5081.86
688.461	4885.26
688.651	4911.88
688.841	4932.36
689.03	4872.97
689.22	4817.68
689.41	4895.5
689.599	4825.87
689.789	4942.6
689.979	4913.93
690.168	4791.05
690.358	4633.36
690.547	4582.16
690.737	4709.13
690.926	4799.24
691.116	4684.56
691.305	4748.04
691.495	4713.23
691.684	4537.1
691.874	4481.81
692.063	4586.26
692.252	4719.37
692.442	4516.62
692.631	4422.42
692.82	4416.27
693.01	4543.25
693.199	4420.37
693.388	4391.7
693.578	4395.79
693.767	4487.95
693.956	4324.12
694.146	4340.5
694.335	4256.53
694.524	4256.53
694.713	4283.16
694.902	4299.54
695.092	4446.99
695.281	4285.2
695.47	4236.05
695.659	4205.33
695.848	4201.24
696.037	4299.54
696.226	4246.29
696.415	4150.04
696.604	4170.52
696.793	4117.27
696.982	4193.05
697.171	4100.89
697.36	4199.19
697.549	4127.51
697.738	4000.54
697.927	4193.05
698.116	4191
698.305	4049.69
698.494	4049.69
698.683	4078.36
698.872	4078.36
699.061	4035.35
699.25	4041.5
699.438	4080.41
699.627	3918.62
699.816	4023.06
700.005	3924.76
700.193	4057.88
700.382	3969.82
700.571	3922.71
700.76	4070.17
700.948	3875.61
701.137	3924.76
701.326	4012.82
701.514	3896.09
701.703	3855.13
701.892	3883.8
702.08	3998.49
702.269	3861.27
702.457	3838.75
702.646	3875.61
702.834	3724.06
703.023	3742.49
703.212	3902.23
703.4	3732.25
703.589	3760.92
703.777	3705.63
703.965	3599.13
704.154	3668.77
704.342	3762.97
704.531	3765.02
704.719	3590.94
704.907	3736.35
705.096	3668.77
705.284	3756.83
705.472	3699.48
705.661	3584.8
705.849	3631.9
706.037	3738.4
706.226	3586.85
706.414	3652.38
706.602	3707.68
706.79	3535.65
706.979	3619.61
707.167	3601.18
707.355	3552.03
707.543	3599.13
707.731	3515.17
707.919	3506.98
708.107	3615.52
708.296	3504.93
708.484	3373.86
708.672	3617.57
708.86	3578.65
709.048	3517.22
709.236	3463.97
709.424	3429.15
709.612	3390.24
709.8	3509.02
709.988	3556.13
710.176	3406.63
710.364	3336.99
710.551	3384.1
710.739	3439.39
710.927	3476.26
711.115	3531.55
711.303	3398.43
711.491	3494.69
711.679	3332.9
711.866	3275.56
712.054	3341.09
712.242	3355.43
712.43	3240.74
712.617	3320.61
712.805	3349.28
712.993	3228.45
713.181	3128.1
713.368	3205.92
713.556	3293.99
713.744	3298.08
713.931	3406.63
714.119	3222.31
714.306	3255.08
714.494	3363.62
714.682	3158.82
714.869	3173.16
715.057	3191.59
715.244	3173.16
715.432	3363.62
715.619	3193.64
715.807	3216.16
715.994	3279.65
716.182	3183.4
716.369	3154.73
716.556	3201.83
716.744	3078.95
716.931	3109.67
717.119	3035.94
717.306	3062.57
717.493	3021.61
717.681	3177.25
717.868	3093.29
718.055	3214.12
718.242	3095.33
718.43	3062.57
718.617	3124.01
718.804	3011.37
718.991	2915.11
719.179	3142.44
719.366	3013.42
719.553	3154.73
719.74	3025.7
719.927	3005.22
720.114	2994.98
720.301	2994.98
720.488	2798.38
720.676	2927.4
720.863	2954.02
721.05	2943.78
721.237	2945.83
721.424	2865.96
721.611	2845.48
721.798	2882.35
721.985	2863.91
722.172	2771.76
722.358	2859.82
722.545	2972.46
722.732	2917.16
722.919	2861.87
723.106	2861.87
723.293	2818.86
723.48	2738.99
723.667	2859.82
723.853	2833.19
724.04	2896.68
724.227	2863.91
724.414	2698.03
724.6	2753.32
724.787	2874.15
724.974	2767.66
725.161	2790.19
725.347	2732.84
725.534	2894.63
725.72	2788.14
725.907	2839.34
726.094	2771.76
726.28	2736.94
726.467	2693.93
726.653	2624.3
726.84	2673.45
727.027	2796.33
727.213	2769.71
727.4	2630.45
727.586	2708.27
727.773	2634.54
727.959	2591.53
728.145	2659.12
728.332	2667.31
728.518	2599.73
728.705	2710.32
728.891	2603.82
729.077	2634.54
729.264	2577.2
729.45	2501.42
729.636	2540.33
729.823	2597.68
730.009	2628.4
730.195	2620.21
730.382	2569.01
730.568	2620.21
730.754	2747.18
730.94	2673.45
731.126	2534.19
731.313	2534.19
731.499	2513.71
731.685	2536.24
731.871	2448.18
732.057	2499.38
732.243	2532.14
732.429	2624.3
732.615	2454.32
732.801	2661.16
732.987	2552.62
733.173	2405.17
733.359	2442.03
733.545	2384.69
733.731	2458.42
733.917	2507.57
734.103	2497.33
734.289	2493.23
734.475	2376.5
734.661	2546.48
734.847	2499.38
735.033	2382.64
735.219	2476.85
735.404	2446.13
735.59	2386.74
735.776	2499.38
735.962	2396.98
736.148	2382.64
736.333	2427.7
736.519	2396.98
736.705	2368.31
736.89	2235.19
737.076	2343.73
737.262	2335.54
737.447	2278.19
737.633	2407.22
737.819	2280.24
738.004	2321.2
738.19	2267.95
738.375	2198.32
738.561	2245.43
738.747	2257.71
738.932	2321.2
739.118	2360.11
739.303	2310.96
739.489	2282.29
739.674	2218.8
739.859	2206.52
740.045	2231.09
740.23	2290.48
740.416	2128.69
740.601	2163.51
740.786	2163.51
740.972	2227
741.157	2241.33
741.342	2149.17
741.528	2179.89
741.713	2259.76
741.898	2050.87
742.084	2224.95
742.269	2110.26
742.454	2145.08
742.639	2032.44
742.824	2061.11
743.01	2212.66
743.195	2190.13
743.38	2063.16
743.565	2136.88
743.75	2097.97
743.935	1987.38
744.12	2067.25
744.305	1966.9
744.49	2009.91
744.675	2110.26
744.86	1989.43
745.045	2079.54
745.23	1940.28
745.415	1876.79
745.6	1968.95
745.785	1968.95
745.97	1911.61
746.155	2026.29
746.34	1882.94
746.525	1925.94
746.71	1925.94
746.895	1884.98
747.079	1876.79
747.264	1790.78
747.449	1846.07
747.634	1770.3
747.819	1819.45
748.003	1858.36
748.188	1786.68
748.373	1829.69
748.557	1823.55
748.742	1768.25
748.927	1913.66
749.111	1745.72
749.296	1798.97
749.481	1803.07
749.665	1696.57
749.85	1665.85
750.034	1674.04
750.219	1749.82
750.404	1688.38
750.588	1727.29
750.773	1581.89
750.957	1485.63
751.141	1600.32
751.326	1614.65
751.51	1608.51
751.695	1551.17
751.879	1569.6
752.064	1536.83
752.248	1413.95
752.432	1530.69
752.617	1516.35
752.801	1602.36
752.985	1448.77
753.17	1557.31
753.354	1440.58
753.538	1442.62
753.722	1547.07
753.907	1438.53
754.091	1422.14
754.275	1418.05
754.459	1366.85
754.643	1405.76
754.828	1420.1
755.012	1411.9
755.196	1483.58
755.38	1383.23
755.564	1268.55
755.748	1317.7
755.932	1399.62
756.116	1293.12
756.3	1440.58
756.484	1295.17
756.668	1262.4
756.852	1254.21
757.036	1364.8
757.22	1170.24
757.404	1262.4
757.588	1274.69
757.772	1350.46
757.956	1243.97
758.14	1192.77
758.323	1233.73
758.507	1282.88
758.691	1207.11
758.875	1233.73
759.059	1264.45
759.242	1141.57
759.426	1180.48
759.61	1168.2
759.794	1180.48
759.977	1190.72
760.161	1170.24
760.345	1205.06
760.528	1137.48
760.712	1151.81
760.895	1155.91
761.079	1119.04
761.263	1137.48
761.446	1092.42
761.63	1110.85
761.813	1137.48
761.997	1207.11
762.18	1063.75
762.364	1102.66
762.547	1002.31
762.731	924.49
762.914	1125.19
763.098	1088.32
763.281	1082.18
763.464	1033.03
763.648	1002.31
763.831	1112.9
764.015	1110.85
764.198	1057.61
764.381	1063.75
764.564	1026.89
764.748	1016.65
764.931	938.82
765.114	1106.76
765.297	1041.22
765.481	983.88
765.664	1000.26
765.847	1026.89
766.03	1022.79
766.213	981.83
766.397	994.12
766.58	973.64
766.763	1033.03
766.946	969.54
767.129	1059.65
767.312	963.4
767.495	869.19
767.678	930.63
767.861	987.97
768.044	873.29
768.227	920.39
768.41	971.59
768.593	1030.98
768.776	844.62
768.959	887.62
769.142	1006.41
769.324	912.2
769.507	934.73
769.69	904.01
769.873	852.81
770.056	963.4
770.239	910.15
770.421	863.05
770.604	824.14
770.787	871.24
770.97	932.68
771.152	879.43
771.335	930.63
771.518	908.1
771.7	842.57
771.883	871.24
772.066	815.94
772.248	891.72
772.431	863.05
772.613	965.45
772.796	832.33
772.978	809.8
773.161	904.01
773.343	815.94
773.526	885.58
773.708	836.42
773.891	779.08
774.073	725.83
774.256	803.66
774.438	801.61
774.621	828.23
774.803	820.04
774.985	731.98
775.168	781.13
775.35	770.89
775.532	623.44
775.715	760.65
775.897	697.16
776.079	705.35
776.261	764.75
776.444	725.83
776.626	691.02
776.808	678.73
776.99	731.98
777.173	717.64
777.355	729.93
777.537	713.55
777.719	736.07
777.901	641.87
778.083	684.87
778.265	652.11
778.447	678.73
778.629	668.49
778.811	701.26
778.993	705.35
779.175	656.2
779.357	639.82
779.539	619.34
779.721	631.63
779.903	635.72
780.085	578.38
780.267	670.54
780.449	547.66
780.631	666.44
780.812	680.78
780.994	662.35
781.176	715.59
781.358	590.67
781.54	525.13
781.721	564.04
781.903	602.96
782.085	555.85
782.267	551.76
782.448	578.38
782.63	549.71
782.812	566.09
782.993	551.76
783.175	535.37
783.357	535.37
783.538	506.7
783.72	525.13
783.901	650.06
784.083	584.52
784.264	502.61
784.446	508.75
784.627	484.17
784.809	568.14
784.99	518.99
785.172	578.38
785.353	453.45
785.535	484.17
785.716	467.79
785.897	486.22
786.079	529.23
786.26	508.75
786.441	465.74
786.623	410.45
786.804	453.45
786.985	451.41
787.167	459.6
787.348	498.51
787.529	392.02
787.71	469.84
787.891	453.45
788.073	383.82
788.254	459.6
788.435	400.21
788.616	389.97
788.797	392.02
788.978	473.93
789.159	383.82
789.34	453.45
789.522	463.69
789.703	355.15
789.884	383.82
790.065	385.87
790.246	416.59
790.427	334.67
790.607	398.16
790.788	361.3
790.969	346.96
791.15	426.83
791.331	422.73
791.512	367.44
791.693	326.48
791.874	451.41
792.054	346.96
792.235	445.26
792.416	355.15
792.597	375.63
792.778	349.01
792.958	349.01
793.139	369.49
793.32	437.07
793.5	351.06
793.681	279.38
793.862	394.06
794.042	342.86
794.223	236.37
794.404	289.62
794.584	334.67
794.765	285.52
794.945	267.09
795.126	359.25
795.306	314.19
795.487	328.53
795.667	312.14
795.848	349.01
796.028	287.57
796.209	310.1
796.389	346.96
796.57	316.24
796.75	314.19
796.93	330.58
797.111	314.19
797.291	285.52
797.471	248.66
797.652	287.57
797.832	275.28
798.012	273.23
798.192	170.83
798.373	197.46
798.553	271.19
798.733	205.65
798.913	365.39
799.093	318.29
799.274	336.72
799.454	238.42
799.634	242.51
799.814	369.49
799.994	285.52
800.174	275.28
800.354	293.71
800.534	228.18
800.714	273.23
800.894	291.66
801.074	181.07
801.254	283.47
801.434	228.18
801.614	303.95
801.794	230.23
801.974	600.91
802.154	203.6
802.334	306
802.514	222.03
802.693	154.45
802.873	185.17
803.053	281.43
803.233	222.03
803.413	226.13
803.592	248.66
803.772	224.08
803.952	277.33
804.131	252.75
804.311	271.19
804.491	191.31
804.67	181.07
804.85	285.52
805.03	273.23
805.209	297.81
805.389	291.66
805.568	187.22
805.748	164.69
805.928	193.36
806.107	234.32
806.287	207.7
806.466	260.95
806.646	232.27
806.825	181.07
807.004	252.75
807.184	273.23
807.363	199.51
807.543	238.42
807.722	207.7
807.901	185.17
808.081	248.66
808.26	121.68
808.439	224.08
808.619	164.69
808.798	211.79
808.977	205.65
809.156	219.99
809.336	187.22
809.515	224.08
809.694	197.46
809.873	228.18
810.052	240.47
810.231	246.61
810.411	238.42
810.59	197.46
810.769	207.7
810.948	168.79
811.127	152.4
811.306	162.64
811.485	234.32
811.664	215.89
811.843	142.16
812.022	299.86
812.201	199.51
812.38	213.84
812.559	181.07
812.737	158.55
812.916	172.88
813.095	140.12
813.274	146.26
813.453	240.47
813.632	146.26
813.811	217.94
813.989	174.93
814.168	144.21
814.347	224.08
814.526	168.79
814.704	211.79
814.883	101.2
815.062	168.79
815.24	267.09
815.419	156.5
815.598	129.88
815.776	103.25
815.955	162.64
816.133	174.93
816.312	168.79
816.49	162.64
816.669	115.54
816.847	160.59
817.026	148.31
817.204	215.89
817.383	123.73
817.561	84.82
817.74	156.5
817.918	150.36
818.097	156.5
818.275	217.94
818.453	150.36
818.632	193.36
818.81	160.59
818.988	140.12
819.167	97.11
819.345	129.88
819.523	183.12
819.701	152.4
819.879	115.54
820.058	99.16
820.236	179.03
820.414	138.07
820.592	86.87
820.77	109.4
820.948	148.31
821.127	60.24
821.305	152.4
821.483	144.21
821.661	242.51
821.839	146.26
822.017	95.06
822.195	90.96
822.373	148.31
822.551	117.59
822.729	121.68
822.907	170.83
823.085	90.96
823.262	183.12
823.44	142.16
823.618	101.2
823.796	113.49
823.974	103.25
824.152	117.59
824.329	107.35
824.507	133.97
824.685	133.97
824.863	43.86
825.04	76.63
825.218	146.26
825.396	115.54
825.574	140.12
825.751	58.2
825.929	121.68
826.107	84.82
826.284	115.54
826.462	86.87
826.639	123.73
826.817	58.2
826.994	70.48
827.172	80.72
827.349	160.59
827.527	142.16
827.704	109.4
827.882	82.77
828.059	138.07
828.237	129.88
828.414	111.44
828.591	123.73
828.769	107.35
828.946	86.87
829.124	140.12
829.301	191.31
829.478	158.55
829.655	90.96
829.833	127.83
830.01	56.15
830.187	107.35
830.364	140.12
830.542	181.07
830.719	138.07
830.896	142.16
831.073	86.87
831.25	113.49
831.427	78.68
831.604	56.15
831.782	68.44
831.959	99.16
832.136	97.11
832.313	58.2
832.49	174.93
832.667	70.48
832.844	45.91
833.021	58.2
833.198	95.06
833.374	140.12
833.551	31.57
833.728	43.86
833.905	193.36
834.082	31.57
834.259	78.68
834.436	117.59
834.612	52.05
834.789	111.44
834.966	68.44
835.143	146.26
835.319	9.05
835.496	138.07
835.673	90.96
835.85	136.02
836.026	138.07
836.203	80.72
836.38	107.35
836.556	191.31
836.733	84.82
836.909	80.72
837.086	115.54
837.262	43.86
837.439	70.48
837.616	84.82
837.792	86.87
837.968	58.2
838.145	76.63
838.321	50
838.498	119.64
838.674	148.31
838.851	129.88
839.027	58.2
839.203	101.2
839.38	88.92
839.556	127.83
839.732	64.34
839.909	54.1
840.085	109.4
840.261	58.2
840.437	123.73
840.614	50
840.79	74.58
840.966	54.1
841.142	56.15
841.318	107.35
841.494	109.4
841.671	56.15
841.847	66.39
842.023	78.68
842.199	74.58
842.375	90.96
842.551	90.96
842.727	37.72
842.903	129.88
843.079	109.4
843.255	23.38
843.431	54.1
843.607	60.24
843.783	103.25
843.959	52.05
844.134	33.62
844.31	148.31
844.486	80.72
844.662	27.48
844.838	19.29
845.013	39.76
845.189	39.76
845.365	58.2
845.541	66.39
845.716	111.44
845.892	47.96
846.068	39.76
846.244	25.43
846.419	111.44
846.595	23.38
846.77	35.67
846.946	74.58
847.122	101.2
847.297	2.9
847.473	-17.58
847.648	68.44
847.824	131.92
847.999	21.33
848.175	41.81
848.35	103.25
848.526	119.64
848.701	62.29
848.876	70.48
849.052	82.77
849.227	129.88
849.403	107.35
849.578	121.68
849.753	17.24
849.929	7
850.104	62.29
850.279	27.48
850.454	80.72
850.63	64.34
850.805	90.96
850.98	2.9
851.155	117.59
851.33	68.44
851.505	56.15
851.681	115.54
851.856	97.11
852.031	95.06
852.206	45.91
852.381	107.35
852.556	45.91
852.731	78.68
852.906	80.72
853.081	62.29
853.256	-3.24
853.431	82.77
853.606	0.85
853.781	-31.91
853.956	0.85
854.131	78.68
854.305	39.76
854.48	95.06
854.655	60.24
854.83	72.53
855.005	45.91
855.18	107.35
855.354	84.82
855.529	60.24
855.704	43.86
855.879	37.72
856.053	4.95
856.228	72.53
856.403	25.43
856.577	54.1
856.752	37.72
856.926	107.35
857.101	19.29
857.276	56.15
857.45	17.24
857.625	74.58
857.799	4.95
857.974	45.91
858.148	52.05
858.323	33.62
858.497	2.9
858.672	58.2
858.846	50
859.02	43.86
859.195	90.96
859.369	-15.53
859.543	19.29
859.718	74.58
859.892	2.9
860.066	9.05
860.241	33.62
860.415	-5.29
860.589	68.44
860.763	-11.43
860.938	74.58
861.112	86.87
861.286	80.72
861.46	84.82
861.634	-11.43
861.808	117.59
861.982	35.67
862.157	58.2
862.331	47.96
862.505	70.48
862.679	84.82
862.853	11.09
863.027	27.48
863.201	23.38
863.375	62.29
863.549	74.58
863.722	-1.19
863.896	56.15
864.07	60.24
864.244	25.43
864.418	90.96
864.592	66.39
864.766	-23.72
864.939	68.44
865.113	50
865.287	64.34
865.461	31.57
865.634	76.63
865.808	-3.24
865.982	58.2
866.156	37.72
866.329	11.09
866.503	76.63
866.676	25.43
866.85	43.86
867.024	39.76
867.197	11.09
867.371	74.58
867.544	2.9
867.718	-44.2
867.891	37.72
868.065	41.81
868.238	-19.63
868.412	56.15
868.585	107.35
868.759	7
868.932	23.38
869.105	103.25
869.279	82.77
869.452	125.78
869.625	17.24
869.799	35.67
869.972	-56.49
870.145	78.68
870.319	64.34
870.492	-13.48
870.665	13.14
870.838	25.43
871.011	-21.67
871.185	119.64
871.358	47.96
871.531	62.29
871.704	80.72
871.877	2.9
872.05	39.76
872.223	86.87
872.396	70.48
872.569	68.44
872.742	23.38
872.915	39.76
873.088	47.96
873.261	11.09
873.434	4.95
873.607	80.72
873.78	41.81
873.953	27.48
874.126	97.11
874.299	66.39
874.471	37.72
874.644	-38.06
874.817	7
874.99	105.3
875.163	-3.24
875.335	90.96
875.508	-38.06
875.681	27.48
875.853	52.05
876.026	56.15
876.199	80.72
876.371	62.29
876.544	2.9
876.717	52.05
876.889	66.39
877.062	37.72
877.234	29.52
877.407	2.9
877.579	35.67
877.752	37.72
877.924	84.82
878.097	47.96
878.269	50
878.442	23.38
878.614	72.53
878.786	33.62
878.959	33.62
879.131	60.24
879.303	47.96
879.476	43.86
879.648	4.95
879.82	35.67
879.993	33.62
880.165	68.44
880.337	-15.53
880.509	2.9
880.681	7
880.854	64.34
881.026	31.57
881.198	19.29
881.37	9.05
881.542	-9.39
881.714	11.09
881.886	-25.77
882.058	37.72
882.23	-17.58
882.402	9.05
882.574	127.83
882.746	41.81
882.918	43.86
883.09	103.25
883.262	54.1
883.434	80.72
883.606	-31.91
883.778	50
883.95	0.85
884.122	39.76
884.293	35.67
884.465	60.24
884.637	52.05
884.809	-17.58
884.98	-21.67
885.152	-15.53
885.324	31.57
885.496	50
885.667	33.62
885.839	54.1
886.011	62.29
886.182	23.38
886.354	13.14
886.525	-3.24
886.697	66.39
886.869	76.63
887.04	31.57
887.212	58.2
887.383	72.53
887.555	70.48
887.726	64.34
887.897	43.86
888.069	-23.72
888.24	78.68
888.412	35.67
888.583	41.81
888.754	4.95
888.926	2.9
889.097	-21.67
889.268	23.38
889.44	39.76
889.611	9.05
889.782	-64.68
889.953	27.48
890.125	47.96
890.296	11.09
890.467	39.76
890.638	39.76
890.809	50
890.98	52.05
891.151	43.86
891.323	-1.19
891.494	9.05
891.665	-54.44
891.836	60.24
892.007	111.44
892.178	9.05
892.349	-13.48
892.52	-21.67
892.691	-13.48
892.862	95.06
893.032	33.62
893.203	47.96
893.374	37.72
893.545	88.92
893.716	-9.39
893.887	-11.43
894.057	33.62
894.228	2.9
894.399	-25.77
894.57	78.68
894.74	37.72
894.911	31.57
895.082	-13.48
895.253	90.96
895.423	-46.25
895.594	56.15
895.764	115.54
895.935	4.95
896.106	23.38
896.276	15.19
896.447	4.95
896.617	64.34
896.788	13.14
896.958	25.43
897.129	62.29
897.299	9.05
897.47	19.29
897.64	33.62
897.81	29.52
897.981	39.76
898.151	-40.11
898.322	-79.02
898.492	39.76
898.662	-36.01
898.832	47.96
899.003	23.38
899.173	39.76
899.343	-64.68
899.513	84.82
