Data from USB4F104151__95__12-37-11-950.txt Node

Date: Fri Mar 14 12:37:11 EDT 2025
User: louis
Spectrometer: USB4F10415
Trigger mode: 4
Integration Time (sec): 2.000000E-2
Scans to average: 1
Electric dark correction enabled: true
Nonlinearity correction enabled: false
Boxcar width: 0
XAxis mode: Wavelengths
Number of Pixels in Spectrum: 3648
>>>>>Begin Spectral Data<<<<<
178.204	-99.84
178.424	-99.84
178.644	-99.84
178.864	-65.02
179.084	-71.17
179.304	20.99
179.524	-9.73
179.744	-3.58
179.964	-28.16
180.184	-54.78
180.404	25.09
180.624	41.47
180.844	14.85
181.064	-1.54
181.283	33.28
181.503	-54.78
181.723	16.9
181.943	-36.35
182.163	49.66
182.383	51.71
182.602	74.24
182.822	27.14
183.042	16.9
183.262	61.95
183.482	98.81
183.701	64
183.921	90.62
184.141	20.99
184.361	33.28
184.58	20.99
184.8	23.04
185.02	-26.11
185.239	131.58
185.459	14.85
185.679	43.52
185.898	39.42
186.118	37.38
186.338	-36.35
186.557	27.14
186.777	39.42
186.997	41.47
187.216	82.43
187.436	102.91
187.655	72.19
187.875	39.42
188.095	-32.26
188.314	47.62
188.534	-11.78
188.753	96.77
188.973	2.56
189.192	74.24
189.412	6.66
189.631	-5.63
189.851	53.76
190.07	72.19
190.29	29.18
190.509	-19.97
190.729	39.42
190.948	51.71
191.168	178.69
191.387	113.15
191.607	45.57
191.826	72.19
192.045	-1.54
192.265	25.09
192.484	82.43
192.704	45.57
192.923	6.66
193.142	84.48
193.362	18.94
193.581	51.71
193.8	49.66
194.02	25.09
194.239	49.66
194.458	12.8
194.678	14.85
194.897	10.75
195.116	29.18
195.335	8.7
195.555	78.33
195.774	-17.92
195.993	-19.97
196.212	-15.87
196.432	10.75
196.651	23.04
196.87	10.75
197.089	51.71
197.308	64
197.528	53.76
197.747	68.09
197.966	39.42
198.185	35.33
198.404	-26.11
198.623	2.56
198.842	10.75
199.062	49.66
199.281	64
199.5	18.94
199.719	12.8
199.938	31.23
200.157	59.9
200.376	70.14
200.595	18.94
200.814	-19.97
201.033	41.47
201.252	88.57
201.471	16.9
201.69	70.14
201.909	47.62
202.128	102.91
202.347	53.76
202.566	14.85
202.785	53.76
203.004	29.18
203.223	59.9
203.442	-38.4
203.661	6.66
203.879	70.14
204.098	100.86
204.317	-7.68
204.536	31.23
204.755	-28.16
204.974	0.51
205.193	18.94
205.411	72.19
205.63	27.14
205.849	-11.78
206.068	49.66
206.287	49.66
206.505	51.71
206.724	74.24
206.943	88.57
207.162	59.9
207.381	33.28
207.599	111.1
207.818	43.52
208.037	109.05
208.255	39.42
208.474	6.66
208.693	53.76
208.911	47.62
209.13	18.94
209.349	55.81
209.567	-11.78
209.786	64
210.005	43.52
210.223	-30.21
210.442	-42.5
210.661	31.23
210.879	-110.08
211.098	61.95
211.316	41.47
211.535	59.9
211.753	49.66
211.972	80.38
212.191	47.62
212.409	92.67
212.628	4.61
212.846	18.94
213.065	76.29
213.283	53.76
213.502	8.7
213.72	61.95
213.938	35.33
214.157	88.57
214.375	45.57
214.594	39.42
214.812	29.18
215.031	4.61
215.249	64
215.467	68.09
215.686	45.57
215.904	57.86
216.122	119.29
216.341	102.91
216.559	43.52
216.778	41.47
216.996	12.8
217.214	49.66
217.432	14.85
217.651	-22.02
217.869	64
218.087	47.62
218.306	-22.02
218.524	23.04
218.742	37.38
218.96	25.09
219.179	43.52
219.397	39.42
219.615	115.2
219.833	31.23
220.051	-26.11
220.27	74.24
220.488	23.04
220.706	68.09
220.924	-7.68
221.142	-17.92
221.36	96.77
221.578	64
221.796	39.42
222.015	68.09
222.233	8.7
222.451	55.81
222.669	72.19
222.887	27.14
223.105	8.7
223.323	4.61
223.541	-36.35
223.759	68.09
223.977	64
224.195	111.1
224.413	92.67
224.631	49.66
224.849	-3.58
225.067	84.48
225.285	-15.87
225.503	80.38
225.721	8.7
225.939	12.8
226.157	61.95
226.375	90.62
226.592	-19.97
226.81	14.85
227.028	68.09
227.246	39.42
227.464	33.28
227.682	27.14
227.9	45.57
228.117	45.57
228.335	43.52
228.553	20.99
228.771	59.9
228.989	86.53
229.206	-44.54
229.424	16.9
229.642	39.42
229.86	-17.92
230.077	45.57
230.295	-7.68
230.513	102.91
230.731	125.44
230.948	35.33
231.166	68.09
231.384	-7.68
231.601	18.94
231.819	-9.73
232.037	100.86
232.254	90.62
232.472	53.76
232.689	90.62
232.907	80.38
233.125	49.66
233.342	-22.02
233.56	96.77
233.777	18.94
233.995	27.14
234.213	35.33
234.43	2.56
234.648	31.23
234.865	78.33
235.083	55.81
235.3	-40.45
235.518	33.28
235.735	86.53
235.953	39.42
236.17	8.7
236.388	66.05
236.605	-36.35
236.822	70.14
237.04	20.99
237.257	25.09
237.475	-5.63
237.692	43.52
237.909	92.67
238.127	-5.63
238.344	33.28
238.562	6.66
238.779	47.62
238.996	37.38
239.214	90.62
239.431	-9.73
239.648	0.51
239.865	82.43
240.083	14.85
240.3	135.68
240.517	33.28
240.735	68.09
240.952	76.29
241.169	82.43
241.386	18.94
241.603	31.23
241.821	39.42
242.038	102.91
242.255	16.9
242.472	39.42
242.689	33.28
242.907	70.14
243.124	41.47
243.341	72.19
243.558	18.94
243.775	0.51
243.992	-19.97
244.209	47.62
244.426	57.86
244.643	104.96
244.86	29.18
245.078	55.81
245.295	53.76
245.512	31.23
245.729	100.86
245.946	64
246.163	55.81
246.38	143.87
246.597	45.57
246.814	59.9
247.031	49.66
247.248	72.19
247.464	51.71
247.681	27.14
247.898	74.24
248.115	74.24
248.332	12.8
248.549	57.86
248.766	80.38
248.983	102.91
249.2	123.39
249.417	14.85
249.633	-5.63
249.85	41.47
250.067	70.14
250.284	23.04
250.501	29.18
250.717	51.71
250.934	-42.5
251.151	37.38
251.368	20.99
251.585	0.51
251.801	55.81
252.018	43.52
252.235	64
252.451	18.94
252.668	25.09
252.885	39.42
253.102	117.25
253.318	109.05
253.535	74.24
253.752	68.09
253.968	49.66
254.185	55.81
254.401	-5.63
254.618	8.7
254.835	29.18
255.051	-42.5
255.268	104.96
255.484	45.57
255.701	-13.82
255.917	41.47
256.134	14.85
256.351	64
256.567	-7.68
256.784	111.1
257	57.86
257.217	74.24
257.433	68.09
257.65	18.94
257.866	45.57
258.082	37.38
258.299	16.9
258.515	64
258.732	-11.78
258.948	20.99
259.165	59.9
259.381	-7.68
259.597	57.86
259.814	27.14
260.03	29.18
260.246	64
260.463	82.43
260.679	18.94
260.895	29.18
261.112	68.09
261.328	76.29
261.544	-3.58
261.761	104.96
261.977	51.71
262.193	33.28
262.409	80.38
262.626	29.18
262.842	86.53
263.058	51.71
263.274	0.51
263.49	-13.82
263.707	25.09
263.923	74.24
264.139	55.81
264.355	64
264.571	131.58
264.787	107.01
265.004	61.95
265.22	51.71
265.436	-22.02
265.652	-7.68
265.868	-9.73
266.084	61.95
266.3	-9.73
266.516	14.85
266.732	57.86
266.948	33.28
267.164	45.57
267.38	37.38
267.596	96.77
267.812	139.77
268.028	29.18
268.244	18.94
268.46	31.23
268.676	-22.02
268.892	51.71
269.108	-52.74
269.324	33.28
269.54	-7.68
269.756	70.14
269.972	14.85
270.188	100.86
270.403	-1.54
270.619	82.43
270.835	98.81
271.051	74.24
271.267	92.67
271.483	-22.02
271.698	10.75
271.914	18.94
272.13	2.56
272.346	86.53
272.562	45.57
272.777	51.71
272.993	10.75
273.209	39.42
273.425	37.38
273.64	76.29
273.856	-1.54
274.072	14.85
274.287	51.71
274.503	-1.54
274.719	61.95
274.934	129.53
275.15	0.51
275.366	70.14
275.581	27.14
275.797	49.66
276.012	35.33
276.228	70.14
276.444	2.56
276.659	43.52
276.875	64
277.09	20.99
277.306	-5.63
277.521	104.96
277.737	14.85
277.952	76.29
278.168	12.8
278.383	57.86
278.599	59.9
278.814	47.62
279.03	20.99
279.245	137.73
279.461	-7.68
279.676	45.57
279.892	20.99
280.107	16.9
280.322	-34.3
280.538	41.47
280.753	-5.63
280.969	98.81
281.184	49.66
281.399	16.9
281.615	25.09
281.83	-36.35
282.045	18.94
282.26	-3.58
282.476	66.05
282.691	53.76
282.906	113.15
283.122	10.75
283.337	80.38
283.552	82.43
283.767	27.14
283.983	66.05
284.198	49.66
284.413	23.04
284.628	0.51
284.843	72.19
285.058	27.14
285.274	47.62
285.489	35.33
285.704	84.48
285.919	37.38
286.134	39.42
286.349	72.19
286.564	31.23
286.779	80.38
286.995	20.99
287.21	41.47
287.425	90.62
287.64	53.76
287.855	66.05
288.07	18.94
288.285	86.53
288.5	82.43
288.715	51.71
288.93	84.48
289.145	10.75
289.36	10.75
289.575	53.76
289.79	39.42
290.004	66.05
290.219	59.9
290.434	-7.68
290.649	61.95
290.864	31.23
291.079	-34.3
291.294	37.38
291.509	139.77
291.724	10.75
291.938	47.62
292.153	49.66
292.368	33.28
292.583	33.28
292.798	98.81
293.012	25.09
293.227	64
293.442	43.52
293.657	119.29
293.871	150.01
294.086	14.85
294.301	133.63
294.516	98.81
294.73	117.25
294.945	55.81
295.16	39.42
295.374	33.28
295.589	18.94
295.804	53.76
296.018	12.8
296.233	98.81
296.447	109.05
296.662	72.19
296.877	125.44
297.091	0.51
297.306	80.38
297.52	29.18
297.735	82.43
297.949	-17.92
298.164	8.7
298.378	25.09
298.593	-9.73
298.807	51.71
299.022	82.43
299.236	37.38
299.451	92.67
299.665	23.04
299.88	20.99
300.094	25.09
300.309	47.62
300.523	18.94
300.737	33.28
300.952	57.86
301.166	41.47
301.381	0.51
301.595	68.09
301.809	-17.92
302.024	57.86
302.238	14.85
302.452	102.91
302.667	68.09
302.881	76.29
303.095	35.33
303.309	80.38
303.524	-36.35
303.738	27.14
303.952	57.86
304.166	57.86
304.381	55.81
304.595	43.52
304.809	10.75
305.023	90.62
305.237	12.8
305.452	43.52
305.666	86.53
305.88	-19.97
306.094	-1.54
306.308	98.81
306.522	-11.78
306.736	102.91
306.95	41.47
307.164	45.57
307.379	55.81
307.593	94.72
307.807	107.01
308.021	72.19
308.235	70.14
308.449	111.1
308.663	14.85
308.877	121.34
309.091	80.38
309.305	102.91
309.519	39.42
309.733	59.9
309.947	49.66
310.161	41.47
310.374	-5.63
310.588	88.57
310.802	59.9
311.016	20.99
311.23	-9.73
311.444	4.61
311.658	-19.97
311.872	45.57
312.085	29.18
312.299	90.62
312.513	39.42
312.727	82.43
312.941	-5.63
313.154	33.28
313.368	96.77
313.582	72.19
313.796	23.04
314.009	102.91
314.223	16.9
314.437	72.19
314.651	29.18
314.864	100.86
315.078	49.66
315.292	37.38
315.505	20.99
315.719	10.75
315.933	92.67
316.146	43.52
316.36	100.86
316.573	131.58
316.787	-34.3
317.001	70.14
317.214	14.85
317.428	45.57
317.641	51.71
317.855	16.9
318.068	92.67
318.282	49.66
318.495	70.14
318.709	143.87
318.922	78.33
319.136	102.91
319.349	82.43
319.563	102.91
319.776	55.81
319.99	57.86
320.203	111.1
320.417	55.81
320.63	66.05
320.843	61.95
321.057	66.05
321.27	119.29
321.483	104.96
321.697	49.66
321.91	37.38
322.124	80.38
322.337	109.05
322.55	23.04
322.763	76.29
322.977	145.92
323.19	25.09
323.403	59.9
323.617	53.76
323.83	96.77
324.043	92.67
324.256	12.8
324.469	33.28
324.683	76.29
324.896	27.14
325.109	29.18
325.322	47.62
325.535	41.47
325.748	98.81
325.962	55.81
326.175	107.01
326.388	100.86
326.601	18.94
326.814	39.42
327.027	68.09
327.24	64
327.453	0.51
327.666	57.86
327.879	154.11
328.092	123.39
328.305	47.62
328.518	43.52
328.731	25.09
328.944	-52.74
329.157	61.95
329.37	68.09
329.583	100.86
329.796	8.7
330.009	10.75
330.222	14.85
330.435	20.99
330.648	80.38
330.861	10.75
331.073	57.86
331.286	55.81
331.499	55.81
331.712	20.99
331.925	-19.97
332.138	74.24
332.35	53.76
332.563	53.76
332.776	84.48
332.989	8.7
333.202	82.43
333.414	2.56
333.627	64
333.84	76.29
334.053	49.66
334.265	74.24
334.478	33.28
334.691	55.81
334.903	119.29
335.116	47.62
335.329	16.9
335.541	-22.02
335.754	107.01
335.966	10.75
336.179	55.81
336.392	33.28
336.604	94.72
336.817	49.66
337.029	41.47
337.242	53.76
337.454	41.47
337.667	68.09
337.88	115.2
338.092	27.14
338.305	33.28
338.517	-26.11
338.729	53.76
338.942	25.09
339.154	2.56
339.367	18.94
339.579	80.38
339.792	57.86
340.004	82.43
340.217	39.42
340.429	66.05
340.641	39.42
340.854	20.99
341.066	55.81
341.278	49.66
341.491	49.66
341.703	57.86
341.915	70.14
342.128	96.77
342.34	-7.68
342.552	57.86
342.764	88.57
342.977	20.99
343.189	78.33
343.401	0.51
343.613	82.43
343.826	25.09
344.038	29.18
344.25	-75.26
344.462	72.19
344.674	43.52
344.886	20.99
345.099	49.66
345.311	98.81
345.523	10.75
345.735	-56.83
345.947	76.29
346.159	39.42
346.371	92.67
346.583	29.18
346.795	135.68
347.007	109.05
347.219	82.43
347.431	74.24
347.643	80.38
347.855	70.14
348.067	64
348.279	39.42
348.491	55.81
348.703	72.19
348.915	70.14
349.127	41.47
349.339	49.66
349.551	57.86
349.763	109.05
349.975	53.76
350.187	111.1
350.399	59.9
350.61	68.09
350.822	80.38
351.034	94.72
351.246	-9.73
351.458	51.71
351.669	43.52
351.881	43.52
352.093	49.66
352.305	119.29
352.517	100.86
352.728	141.82
352.94	18.94
353.152	107.01
353.363	39.42
353.575	70.14
353.787	14.85
353.999	121.34
354.21	61.95
354.422	94.72
354.633	59.9
354.845	70.14
355.057	59.9
355.268	37.38
355.48	41.47
355.692	43.52
355.903	27.14
356.115	55.81
356.326	53.76
356.538	117.25
356.749	82.43
356.961	35.33
357.172	66.05
357.384	41.47
357.595	68.09
357.807	45.57
358.018	59.9
358.23	121.34
358.441	113.15
358.653	55.81
358.864	33.28
359.075	125.44
359.287	70.14
359.498	94.72
359.709	39.42
359.921	59.9
360.132	6.66
360.344	100.86
360.555	29.18
360.766	125.44
360.977	8.7
361.189	133.63
361.4	43.52
361.611	35.33
361.823	84.48
362.034	39.42
362.245	55.81
362.456	84.48
362.667	39.42
362.879	72.19
363.09	76.29
363.301	96.77
363.512	20.99
363.723	64
363.935	96.77
364.146	53.76
364.357	90.62
364.568	59.9
364.779	12.8
364.99	98.81
365.201	31.23
365.412	127.49
365.623	8.7
365.834	107.01
366.045	115.2
366.256	78.33
366.467	39.42
366.678	37.38
366.889	-1.54
367.1	23.04
367.311	37.38
367.522	4.61
367.733	47.62
367.944	43.52
368.155	39.42
368.366	53.76
368.577	76.29
368.788	80.38
368.999	84.48
369.209	100.86
369.42	14.85
369.631	170.49
369.842	68.09
370.053	61.95
370.264	14.85
370.474	94.72
370.685	49.66
370.896	35.33
371.107	61.95
371.317	119.29
371.528	4.61
371.739	53.76
371.95	29.18
372.16	100.86
372.371	49.66
372.582	68.09
372.792	25.09
373.003	57.86
373.214	35.33
373.424	102.91
373.635	117.25
373.846	123.39
374.056	82.43
374.267	117.25
374.477	23.04
374.688	94.72
374.898	117.25
375.109	45.57
375.319	55.81
375.53	96.77
375.74	86.53
375.951	78.33
376.161	59.9
376.372	61.95
376.582	143.87
376.793	41.47
377.003	33.28
377.214	82.43
377.424	92.67
377.635	133.63
377.845	8.7
378.055	102.91
378.266	80.38
378.476	143.87
378.686	33.28
378.897	78.33
379.107	113.15
379.317	70.14
379.528	76.29
379.738	59.9
379.948	64
380.158	64
380.369	45.57
380.579	82.43
380.789	104.96
380.999	64
381.21	78.33
381.42	184.83
381.63	113.15
381.84	160.25
382.05	45.57
382.261	51.71
382.471	102.91
382.681	41.47
382.891	133.63
383.101	74.24
383.311	23.04
383.521	25.09
383.731	64
383.941	117.25
384.151	90.62
384.361	111.1
384.571	117.25
384.781	113.15
384.991	154.11
385.201	88.57
385.411	123.39
385.621	109.05
385.831	68.09
386.041	168.45
386.251	80.38
386.461	98.81
386.671	90.62
386.881	98.81
387.091	115.2
387.301	145.92
387.511	127.49
387.72	84.48
387.93	164.35
388.14	119.29
388.35	57.86
388.56	150.01
388.769	100.86
388.979	96.77
389.189	78.33
389.399	145.92
389.609	41.47
389.818	123.39
390.028	94.72
390.238	90.62
390.447	43.52
390.657	160.25
390.867	113.15
391.076	123.39
391.286	98.81
391.496	82.43
391.705	121.34
391.915	76.29
392.125	119.29
392.334	57.86
392.544	100.86
392.753	82.43
392.963	37.38
393.172	35.33
393.382	115.2
393.591	121.34
393.801	141.82
394.01	195.07
394.22	152.06
394.429	111.1
394.639	98.81
394.848	111.1
395.058	166.4
395.267	82.43
395.477	127.49
395.686	117.25
395.895	84.48
396.105	176.64
396.314	64
396.524	186.88
396.733	174.59
396.942	135.68
397.152	131.58
397.361	166.4
397.57	127.49
397.78	115.2
397.989	156.16
398.198	197.12
398.407	86.53
398.617	86.53
398.826	133.63
399.035	98.81
399.244	131.58
399.453	168.45
399.663	129.53
399.872	199.16
400.081	184.83
400.29	195.07
400.499	78.33
400.708	145.92
400.917	115.2
401.127	205.31
401.336	90.62
401.545	139.77
401.754	123.39
401.963	221.69
402.172	100.86
402.381	203.26
402.59	158.21
402.799	193.02
403.008	197.12
403.217	215.55
403.426	113.15
403.635	127.49
403.844	184.83
404.053	184.83
404.262	176.64
404.471	197.12
404.68	184.83
404.888	133.63
405.097	197.12
405.306	170.49
405.515	143.87
405.724	201.21
405.933	250.36
406.142	199.16
406.35	147.97
406.559	297.47
406.768	211.45
406.977	309.76
407.185	285.18
407.394	256.51
407.603	223.74
407.812	307.71
408.02	363
408.229	195.07
408.438	330.23
408.646	356.86
408.855	293.37
409.064	383.48
409.272	383.48
409.481	344.57
409.69	475.64
409.898	371.19
410.107	436.73
410.315	465.4
410.524	416.25
410.733	473.59
410.941	377.34
411.15	506.36
411.358	528.89
411.567	530.94
411.775	573.94
411.984	522.74
412.192	596.47
412.401	623.09
412.609	655.86
412.818	674.29
413.026	700.92
413.234	666.1
413.443	737.78
413.651	672.25
413.86	756.21
414.068	858.61
414.276	829.94
414.485	809.46
414.693	836.08
414.901	1022.45
415.11	965.11
415.318	932.34
415.526	1057.26
415.734	932.34
415.943	1049.07
416.151	1159.66
416.359	1061.36
416.567	1155.57
416.776	1229.29
416.984	1274.35
417.192	1343.98
417.4	1376.75
417.608	1341.93
417.817	1319.4
418.025	1421.8
418.233	1624.55
418.441	1589.74
418.649	1622.5
418.857	1714.66
419.065	1776.1
419.273	1843.68
419.481	1827.3
419.689	1946.08
419.897	2050.53
420.105	2083.3
420.313	2093.54
420.521	2228.7
420.729	2109.92
420.937	2427.35
421.145	2396.64
421.353	2570.71
421.561	2656.73
421.769	2726.36
421.977	2738.65
422.185	2804.18
422.393	2871.76
422.601	3013.07
422.809	3107.28
423.017	3205.58
423.224	3228.11
423.432	3486.15
423.64	3402.19
423.848	3699.14
424.056	3539.4
424.263	3865.03
424.471	3944.9
424.679	4059.59
424.887	4233.66
425.094	4508.09
425.302	4407.74
425.51	4499.9
425.718	4719.03
425.925	4682.17
426.133	4831.67
426.341	5116.34
426.548	5464.49
426.756	5401.01
426.964	5542.32
427.171	5890.47
427.379	5837.22
427.586	6011.3
427.794	6261.15
428.001	6506.91
428.209	6787.48
428.417	6607.26
428.624	7149.97
428.832	7186.83
429.039	6982.04
429.247	7197.07
429.454	7803.27
429.662	8348.03
429.869	7723.4
430.076	8399.23
430.284	7958.92
430.491	8423.81
430.699	8767.87
430.906	8886.65
431.114	9038.2
431.321	9345.39
431.528	9525.61
431.736	10389.86
431.943	10652
432.15	10314.08
432.358	10402.15
432.565	11094.36
432.772	10961.24
432.979	11530.58
433.187	11600.21
433.394	11665.74
433.601	12749.12
433.808	12755.26
434.016	12431.68
434.223	13148.47
434.43	14027.05
434.637	13580.59
434.844	14346.53
435.052	14733.6
435.259	14752.03
435.466	14895.39
435.673	14756.13
435.88	15507.73
436.087	16513.28
436.294	16290.06
436.501	15982.86
436.708	16462.08
436.915	16992.51
437.122	17977.58
437.329	17813.74
437.537	18219.24
437.743	18733.28
437.95	18706.66
438.157	19402.97
438.364	20199.63
438.571	20213.96
438.778	20203.72
438.985	22331.56
439.192	20947.14
439.399	22132.91
439.606	21205.18
439.813	22632.61
440.02	23933.07
440.227	23240.86
440.433	23160.99
440.64	24156.3
440.847	23988.37
441.054	24516.75
441.261	26169.46
441.467	25731.19
441.674	26519.66
441.881	27279.46
442.088	27281.5
442.294	27007.08
442.501	27353.18
442.708	28305.49
442.914	29472.83
443.121	30697.52
443.328	29972.53
443.534	31664.16
443.741	31234.08
443.948	30896.17
444.154	32981
444.361	32628.75
444.568	32905.23
444.774	33210.37
444.981	33599.49
445.187	34306.04
445.394	35411.94
445.6	35229.67
445.807	38674.35
446.013	36872.14
446.22	37441.48
446.426	39446.44
446.633	39311.27
446.839	40910.74
447.046	38946.73
447.252	41129.87
447.459	40896.4
447.665	41449.35
447.871	42876.79
448.078	44898.13
448.284	42712.95
448.491	44060.51
448.697	45774.66
448.903	46602.04
449.11	46311.23
449.316	45533
449.522	46626.62
449.728	47939.36
449.935	47834.92
450.141	48195.36
450.347	49194.77
450.553	47761.19
450.76	48664.35
450.966	49854.22
451.172	49362.7
451.378	50718.46
451.584	49432.33
451.791	50751.23
451.997	50794.23
452.203	51394.29
452.409	51304.18
452.615	51074.8
452.821	49372.94
453.027	48787.22
453.233	51394.29
453.44	49876.74
453.646	49878.79
453.852	50407.17
454.058	50835.19
454.264	49190.67
454.47	50583.29
454.676	48973.59
454.882	51066.61
455.088	46741.3
455.294	47216.43
455.5	47861.54
455.705	48656.15
455.911	46444.35
456.117	45664.07
456.323	45078.35
456.529	43061.1
456.735	45014.87
456.941	43603.81
457.147	43022.19
457.352	41660.29
457.558	41273.23
457.764	41633.67
457.97	40630.16
458.176	39806.88
458.381	39708.58
458.587	38006.72
458.793	37752.77
458.999	35764.19
459.204	38666.16
459.41	37277.64
459.616	34605.04
459.821	35342.31
460.027	34981.87
460.233	33787.9
460.438	32725
460.644	32999.43
460.85	31131.68
461.055	30797.87
461.261	30777.39
461.466	28364.88
461.672	27406.43
461.878	29755.45
462.083	27492.44
462.289	27342.94
462.494	27070.56
462.7	25360.51
462.905	25092.23
463.111	25833.59
463.316	26126.45
463.522	25325.69
463.727	25438.33
463.932	25716.86
464.138	25051.27
464.343	25084.03
464.549	24451.21
464.754	25421.95
464.959	25129.09
465.165	24852.61
465.37	24002.71
465.575	23412.89
465.781	24049.81
465.986	24375.44
466.191	23617.69
466.397	23009.44
466.602	21571.77
466.807	22601.9
467.012	22790.31
467.218	22882.47
467.423	22270.12
467.628	22497.45
467.833	23492.76
468.038	22583.46
468.244	21815.48
468.449	22593.7
468.654	21909.68
468.859	21960.88
469.064	21672.12
469.269	21141.69
469.474	20967.62
469.679	21463.22
469.885	21186.75
470.09	21465.27
470.295	21190.84
470.5	20695.24
470.705	20771.01
470.91	20228.3
471.115	19894.48
471.32	20383.94
471.525	20062.41
471.73	19534.04
471.935	19419.35
472.139	18784.48
472.344	19097.82
472.549	19108.06
472.754	18874.59
472.959	18462.95
473.164	18002.16
473.369	17768.69
473.574	18782.43
473.778	18323.69
473.983	17942.77
474.188	17996.01
474.393	17522.93
474.598	17490.17
474.802	17004.8
475.007	17004.8
475.212	16961.79
475.417	16478.47
475.621	16644.35
475.826	16390.41
476.031	16331.01
476.235	15669.52
476.44	16263.43
476.645	15737.1
476.849	15743.25
477.054	15673.62
477.259	15640.85
477.463	15327.51
477.668	14895.39
477.872	15100.19
478.077	14815.52
478.282	14473.51
478.486	14577.95
478.691	14453.03
478.895	14405.92
479.1	14346.53
479.304	14162.22
479.509	14094.63
479.713	13895.98
479.918	13898.03
480.122	13412.66
480.326	13803.82
480.531	13902.12
480.735	13420.85
480.94	13476.15
481.144	13902.12
481.348	13244.73
481.553	13447.47
481.757	13160.76
481.961	13410.61
482.166	13302.07
482.37	13377.84
482.574	12992.83
482.778	13117.75
482.983	13472.05
483.187	13248.82
483.391	13197.62
483.595	13027.64
483.8	13048.12
484.004	13207.86
484.208	13482.29
484.412	13093.18
484.616	13146.42
484.821	13224.25
485.025	12953.91
485.229	13398.32
485.433	13039.93
485.637	13066.55
485.841	13056.31
486.045	13136.18
486.249	13041.98
486.453	12810.56
486.657	12996.92
486.861	13269.3
487.065	12882.24
487.269	13050.17
487.473	12857.66
487.677	13084.98
487.881	13177.14
488.085	13068.6
488.289	13211.96
488.493	13154.62
488.697	13058.36
488.901	13291.83
489.105	13252.92
489.309	13308.21
489.512	13220.15
489.716	13340.98
489.92	13510.96
490.124	13009.21
490.328	13474.1
490.531	13324.6
490.735	13588.78
490.939	13486.39
491.143	13302.07
491.346	13383.99
491.55	13812.01
491.754	13783.34
491.958	13789.49
492.161	13793.58
492.365	13824.3
492.569	13693.23
492.772	13633.84
492.976	13932.84
493.18	13769.01
493.383	14291.24
493.587	14291.24
493.79	14319.91
493.994	13953.32
494.197	14420.26
494.401	14407.97
494.605	14426.4
494.808	14729.5
495.012	15065.37
495.215	14883.1
495.419	15077.66
495.622	14932.25
495.825	15221.02
496.029	15108.38
496.232	15687.95
496.436	15515.92
496.639	15724.82
496.843	15833.36
497.046	16068.87
497.249	16191.75
497.453	16242.95
497.656	16417.03
497.859	16308.49
498.063	16685.31
498.266	17266.94
498.469	16736.51
498.673	17252.6
498.876	17328.38
499.079	17623.28
499.282	17350.9
499.485	18022.64
499.689	18116.84
499.892	18354.41
500.095	18122.99
500.298	18645.22
500.501	18727.14
500.705	19177.69
500.908	19038.43
501.111	19454.17
501.314	19683.54
501.517	19816.66
501.72	20150.48
501.923	20031.69
502.126	20558.02
502.329	21002.43
502.532	20725.96
502.735	20768.96
502.938	21248.19
503.141	21567.67
503.344	21954.74
503.547	22005.94
503.75	22298.8
503.953	22552.74
504.156	22571.18
504.359	23097.5
504.562	22907.04
504.765	23759
504.968	23754.9
505.17	23642.26
505.373	24000.66
505.576	24613
505.779	24455.31
505.982	25092.23
506.185	25376.89
506.387	25313.41
506.59	25532.54
506.793	25927.8
506.996	25985.14
507.198	26552.43
507.401	26712.17
507.604	26853.48
507.807	27531.36
508.009	27611.23
508.212	27691.1
508.415	28260.43
508.617	28168.27
508.82	28684.36
509.022	28547.15
509.225	29485.12
509.428	29368.38
509.63	30011.45
509.833	29843.51
510.035	30746.67
510.238	30439.47
510.44	30642.22
510.643	31254.56
510.845	31117.35
511.048	31397.92
511.25	31780.89
511.453	32337.94
511.655	33505.28
511.858	32790.54
512.06	33003.53
512.262	33531.9
512.465	33400.83
512.667	34035.7
512.87	34703.34
513.072	34682.86
513.274	35096.55
513.477	35563.49
513.679	35559.39
513.881	36501.46
514.084	36622.29
514.286	36153.3
514.488	37072.84
514.69	37859.26
514.893	37885.89
515.095	38045.63
515.297	38551.48
515.499	38326.2
515.701	38848.43
515.904	39497.64
516.106	39614.37
516.308	40026.01
516.51	40462.23
516.712	40689.56
516.914	40730.51
517.116	41588.61
517.318	41682.82
517.52	41908.1
517.722	42209.15
517.925	42413.94
518.127	43386.73
518.329	43323.24
518.531	43091.82
518.733	43913.06
518.935	44535.64
519.136	44506.97
519.338	45174.61
519.54	45139.79
519.742	45903.68
519.944	46155.58
520.146	46085.95
520.348	46774.07
520.55	46745.4
520.752	47171.38
520.954	47978.28
521.155	47615.79
521.357	48346.91
521.559	48666.39
521.761	49061.65
521.963	49309.46
522.164	49131.28
522.366	49538.83
522.568	49815.3
522.77	50222.85
522.971	50790.14
523.173	50599.68
523.375	50810.62
523.576	51390.19
523.778	51171.06
523.98	52025.06
524.181	52129.51
524.383	52338.4
524.584	52793.05
524.786	52936.41
524.988	52750.04
525.189	53257.94
525.391	53532.37
525.592	53792.46
525.794	53876.43
525.995	54408.9
526.197	53954.25
526.398	54609.6
526.6	54558.4
526.801	55054.01
527.003	55176.89
527.204	55006.9
527.406	55191.22
527.607	55424.69
527.808	55711.41
528.01	55457.46
528.211	55828.14
528.412	56690.33
528.614	56542.88
528.815	56637.09
529.016	57196.18
529.218	56383.14
529.419	57099.93
529.62	56764.06
529.822	56811.17
530.023	57157.27
530.224	57073.31
530.425	56759.97
530.626	56932
530.828	56716.96
531.029	57966.22
531.23	57425.56
531.431	57093.78
531.632	57742.99
531.833	57675.41
532.035	57683.6
532.236	57884.3
532.437	57986.7
532.638	57613.97
532.839	58300.04
533.04	58207.88
533.241	57654.93
533.442	58414.72
533.643	57869.96
533.844	57783.95
534.045	58046.09
534.246	57636.5
534.447	58406.53
534.648	57921.16
534.849	58293.89
535.05	57986.7
535.251	57839.25
535.451	57843.34
535.652	58431.11
535.853	58259.08
536.054	58277.51
536.255	58517.12
536.456	57738.89
536.657	58912.38
536.857	57966.22
537.058	58107.53
537.259	58644.1
537.46	58072.71
537.66	58451.59
537.861	58310.28
538.062	58148.49
538.263	58680.96
538.463	57927.31
538.664	58162.82
538.865	58424.96
539.065	58646.15
539.266	58056.33
539.466	58648.19
539.667	57822.86
539.868	58566.27
540.068	57796.24
540.269	57779.85
540.469	58410.63
540.67	57751.18
540.87	57554.58
541.071	57720.46
541.271	58246.79
541.472	57794.19
541.672	57861.77
541.873	57763.47
542.073	57161.37
542.274	58562.18
542.474	57745.04
542.675	57550.48
542.875	58285.7
543.075	57841.29
543.276	57327.25
543.476	58019.47
543.676	57783.95
543.877	57822.86
544.077	57900.68
544.277	57804.43
544.478	57476.75
544.678	57833.1
544.878	57534.1
545.078	57984.65
545.279	57290.39
545.479	57458.32
545.679	57745.04
545.879	57652.88
546.079	57630.35
546.28	57564.82
546.48	57486.99
546.68	57583.25
546.88	57726.61
547.08	57816.72
547.28	57620.11
547.48	57138.84
547.68	57675.41
547.88	56837.79
548.081	57587.35
548.281	57771.66
548.481	57204.38
548.681	58050.19
548.881	57710.22
549.081	57411.22
549.28	57323.16
549.48	57751.18
549.68	57323.16
549.88	57998.99
550.08	57351.83
550.28	57511.57
550.48	57335.45
550.68	57382.55
550.88	57247.38
551.08	57622.16
551.279	57357.97
551.479	56811.17
551.679	57091.74
551.879	57058.97
552.079	57443.99
552.278	57058.97
552.478	57136.79
552.678	57153.18
552.878	57073.31
553.077	56852.12
553.277	56848.03
553.477	57366.16
553.676	56407.72
553.876	57155.22
554.076	56952.47
554.275	56739.49
554.475	56354.47
554.674	56956.57
554.874	56975
555.074	56741.53
555.273	56559.26
555.473	56825.5
555.672	56555.17
555.872	56819.36
556.071	56321.7
556.271	56880.8
556.47	56395.43
556.67	56061.61
556.869	56700.57
557.068	56485.54
557.268	56200.87
557.467	56084.14
557.667	55883.44
557.866	56161.96
558.065	55897.77
558.265	55948.97
558.464	55518.9
558.663	56467.11
558.863	55522.99
559.062	56098.47
559.261	55498.42
559.461	56039.08
559.66	55494.32
559.859	55723.69
560.058	55619.25
560.258	55477.94
560.457	54806.2
560.656	55793.32
560.855	55240.37
561.054	55500.47
561.253	55119.54
561.453	55441.07
561.652	55168.69
561.851	55187.13
562.05	55015.1
562.249	54693.57
562.448	55391.92
562.647	54736.57
562.846	54685.37
563.045	54980.28
563.244	54312.64
563.443	54992.57
563.642	54060.74
563.841	54460.1
564.04	54103.75
564.239	54441.67
564.438	53991.11
564.637	53870.28
564.836	53997.26
565.035	53806.79
565.234	53968.58
565.432	53518.03
565.631	53444.3
565.83	53757.64
566.029	53243.6
566.228	53540.56
566.427	53337.81
566.625	52963.03
566.824	52633.31
567.023	53085.91
567.222	52254.43
567.42	53116.63
567.619	52629.21
567.818	53090.01
568.016	52479.71
568.215	52770.52
568.414	52174.56
568.612	52602.59
568.811	52135.65
569.01	52197.09
569.208	51672.81
569.407	52068.07
569.605	51750.63
569.804	51857.13
570.002	51574.51
570.201	51640.04
570.4	51486.45
570.598	51228.4
570.797	51123.96
570.995	51189.49
571.193	50796.28
571.392	51425.01
571.59	50845.43
571.789	50857.72
571.987	50251.52
572.186	50562.81
572.384	50462.46
572.582	50540.28
572.781	50814.71
572.979	49792.78
573.177	50075.4
573.376	50308.86
573.574	49155.86
573.772	49792.78
573.971	49131.28
574.169	49313.55
574.367	49061.65
574.565	49182.48
574.763	48768.79
574.962	49047.32
575.16	48748.31
575.358	48787.22
575.556	48264.99
575.754	49252.11
575.952	47982.37
576.151	48793.37
576.349	48011.04
576.547	48299.81
576.745	48287.52
576.943	48037.67
577.141	47685.42
577.339	47540.01
577.537	47597.35
577.735	47376.17
577.933	47169.33
578.131	47281.97
578.329	47165.23
578.527	47042.35
578.725	47277.87
578.923	46948.15
579.121	46735.16
579.319	46874.42
579.516	46847.8
579.714	46851.89
579.912	46229.31
580.11	46223.17
580.308	46446.4
580.506	46122.82
580.704	45471.56
580.901	45791.05
581.099	46024.51
581.297	45322.06
581.495	45451.08
581.692	45516.62
581.89	44812.12
582.088	45836.1
582.285	45121.36
582.483	45500.23
582.681	45088.59
582.878	44982.1
583.076	44412.76
583.274	44799.83
583.471	44160.86
583.669	44648.28
583.866	43900.77
584.064	44607.32
584.262	43360.11
584.459	44226.4
584.657	43587.43
584.854	44207.97
585.052	43472.74
585.249	43788.13
585.447	43310.96
585.644	42993.52
585.841	42964.85
586.039	43687.78
586.236	42667.89
586.434	42467.19
586.631	42319.74
586.828	42762.1
587.026	42715
587.223	42395.51
587.42	42254.2
587.618	42418.04
587.815	41551.75
588.012	41729.92
588.21	41697.16
588.407	41875.33
588.604	41664.39
588.801	40873.87
588.999	41320.33
589.196	41357.19
589.393	41004.94
589.59	41060.24
589.787	40384.41
589.984	40656.79
590.182	40363.93
590.379	40861.58
590.576	40349.59
590.773	40411.03
590.97	40214.43
591.167	40535.96
591.364	39911.33
591.561	40159.13
591.758	39364.52
591.955	39946.14
592.152	39808.93
592.349	39577.51
592.546	39385
592.743	39483.3
592.94	39016.36
593.137	39030.7
593.334	39305.13
593.531	38442.93
593.727	38805.42
593.924	38535.09
594.121	37978.04
594.318	38672.31
594.515	38113.21
594.712	38490.04
594.908	37750.72
595.105	38012.86
595.302	37795.78
595.499	37924.8
595.696	37767.1
595.892	37650.37
596.089	37021.64
596.286	37353.41
596.482	37257.16
596.679	37009.36
596.876	37232.58
597.072	36763.6
597.269	36882.38
597.466	36374.48
597.662	36462.55
597.859	36177.88
598.055	36530.13
598.252	36091.87
598.448	36263.89
598.645	35796.96
598.841	35991.51
599.038	35676.13
599.234	35764.19
599.431	35305.45
599.627	35274.73
599.824	35456.99
600.02	35133.42
600.217	35260.39
600.413	34979.82
600.609	34932.71
600.806	34136.06
601.002	34932.71
601.198	34674.67
601.395	34461.68
601.591	34240.5
601.787	34287.6
601.984	34117.62
602.18	34406.39
602.376	33839.1
602.572	33943.55
602.769	33812.48
602.965	33716.22
603.161	33671.17
603.357	33273.86
603.553	33622.01
603.75	33624.06
603.946	33013.77
604.142	33327.11
604.338	32835.59
604.534	33148.93
604.73	32849.93
604.926	32720.91
605.122	32745.48
605.318	32196.63
605.514	32270.36
605.71	32100.37
605.906	32313.36
606.102	32143.38
606.298	32090.13
606.494	31979.54
606.69	32122.9
606.886	31793.18
607.082	31684.64
607.278	31862.81
607.474	31074.34
607.67	31735.84
607.866	31268.9
608.062	31526.94
608.257	31438.88
608.453	31217.7
608.649	31490.08
608.845	30806.06
609.041	31006.76
609.236	30773.29
609.432	30742.57
609.628	31004.71
609.824	30566.45
610.019	30369.84
610.215	30197.81
610.411	30486.57
610.606	30380.08
610.802	30558.25
610.998	30541.87
611.193	30246.96
611.389	30203.96
611.584	30298.16
611.78	29745.21
611.976	29882.42
612.171	30017.59
612.367	29898.81
612.562	29671.48
612.758	29292.61
612.953	29567.04
613.149	29896.76
613.344	29231.17
613.539	29898.81
613.735	29728.83
613.93	29331.52
614.126	28825.67
614.321	29679.68
614.517	29444.16
614.712	29179.97
614.907	29059.14
615.103	29216.83
615.298	29091.91
615.493	29444.16
615.688	28698.7
615.884	29069.38
616.079	28495.95
616.274	28577.87
616.47	28555.34
616.665	28764.23
616.86	28483.66
617.055	28622.92
617.25	28409.93
617.445	28633.16
617.641	28031.06
617.836	28260.43
618.031	27555.93
618.226	28086.36
618.421	28012.63
618.616	28078.16
618.811	27676.76
619.006	27820.12
619.201	27412.57
619.396	27582.56
619.591	27045.99
619.786	27041.89
619.981	26839.14
620.176	27275.36
620.371	26304.62
620.566	26908.77
620.761	26652.78
620.956	26914.92
621.151	26198.13
621.346	26429.55
621.541	25954.42
621.735	26167.41
621.93	25620.6
622.125	26091.63
622.32	25479.29
622.515	25589.88
622.709	25559.16
622.904	25481.34
623.099	25223.3
623.294	25518.2
623.488	24893.57
623.683	24993.92
623.878	24508.55
624.072	24553.61
624.267	24553.61
624.462	24359.05
624.656	24117.39
624.851	24127.63
625.046	23836.82
625.24	23971.99
625.435	23449.75
625.629	23658.65
625.824	23312.54
626.018	23341.21
626.213	22853.8
626.407	22972.58
626.602	22575.27
626.796	23027.87
626.991	22827.17
627.185	22560.94
627.38	22337.71
627.574	22257.84
627.768	22241.45
627.963	22016.18
628.157	21725.36
628.352	21905.59
628.546	21608.63
628.74	21749.94
628.935	21280.96
629.129	21176.51
629.323	21074.11
629.517	20857.03
629.712	21074.11
629.906	20762.82
630.1	20494.54
630.294	20693.19
630.489	20570.31
630.683	20480.2
630.877	20361.42
631.071	20103.37
631.265	20213.96
631.459	19808.47
631.653	19970.26
631.848	19939.54
632.042	19689.68
632.236	19540.18
632.43	19636.44
632.624	19527.89
632.818	19339.48
633.012	19013.85
633.206	19005.66
633.4	19257.56
633.594	18856.16
633.788	18956.51
633.982	18823.39
634.176	18677.99
634.369	18465
634.563	18536.68
634.757	18182.38
634.951	18378.98
635.145	18147.56
635.339	18239.72
635.533	18063.6
635.726	17709.3
635.92	17668.34
636.114	17711.35
636.308	17555.7
636.501	17514.74
636.695	17611
636.889	17291.51
637.083	17080.57
637.276	16992.51
637.47	16892.16
637.664	16838.91
637.857	17105.15
638.051	16832.77
638.244	16619.78
638.438	16486.66
638.632	16519.43
638.825	16353.54
639.019	16085.26
639.212	16210.18
639.406	16007.44
639.599	16077.07
639.793	15941.9
639.986	15640.85
640.18	15915.28
640.373	15866.13
640.567	15761.68
640.76	15542.55
640.954	15261.98
641.147	15509.78
641.34	15126.81
641.534	15184.15
641.727	15020.31
641.92	15163.67
642.114	14477.6
642.307	14977.31
642.5	14663.97
642.694	14477.6
642.887	14514.47
643.08	14803.23
643.273	14467.36
643.467	14324.01
643.66	14428.45
643.853	14151.98
644.046	14037.29
644.239	14076.2
644.432	14063.91
644.626	13943.08
644.819	13773.1
645.012	13828.4
645.205	13668.66
645.398	13627.7
645.591	13488.43
645.784	13250.87
645.977	13244.73
646.17	13381.94
646.363	13361.46
646.556	13046.07
646.749	13267.25
646.942	13050.17
647.135	12933.43
647.328	13113.66
647.521	12779.84
647.714	12605.76
647.907	12740.93
648.099	12806.46
648.292	12536.13
648.485	12720.45
648.678	12306.76
648.871	12218.69
649.064	12433.73
649.256	12403.01
649.449	12212.55
649.642	12097.86
649.835	12097.86
650.027	11911.5
650.22	11671.89
650.413	11661.65
650.605	11868.49
650.798	11561.3
650.991	11508.05
651.183	11510.1
651.376	11422.03
651.568	11198.81
651.761	11356.5
651.954	11231.57
652.146	11278.68
652.339	11229.52
652.531	11028.82
652.724	11174.23
652.916	10934.62
653.109	11098.45
653.301	10959.19
653.494	10891.61
653.686	10641.76
653.879	10811.74
654.071	10535.26
654.263	10797.4
654.456	10482.02
654.648	10549.6
654.84	10371.43
655.033	10436.96
655.225	10396
655.417	10281.32
655.61	10203.49
655.802	10260.84
655.994	10164.58
656.186	10316.13
656.379	9986.41
656.571	9797.99
656.763	9892.2
656.955	9963.88
657.148	9750.89
657.34	9875.82
657.532	9548.14
657.724	9705.84
657.916	9570.67
658.108	9621.87
658.3	9453.94
658.492	9496.94
658.684	9240.95
658.876	9218.42
659.068	9437.55
659.26	9232.76
659.452	9261.43
659.644	9269.62
659.836	9036.15
660.028	9273.71
660.22	8923.51
660.412	8905.08
660.604	8864.12
660.796	8767.87
660.988	8907.13
661.18	8728.95
661.372	8597.88
661.563	8929.66
661.755	8524.16
661.947	8618.36
662.139	8456.57
662.331	8626.56
662.522	8405.38
662.714	8464.77
662.906	8317.31
663.097	8425.86
663.289	8165.76
663.481	8264.07
663.673	8206.72
663.864	8206.72
664.056	8102.28
664.247	8051.08
664.439	8165.76
664.631	8096.13
664.822	8046.98
665.014	7932.29
665.205	7930.25
665.397	7838.09
665.588	7958.92
665.78	7700.87
665.971	7645.58
666.163	7762.31
666.354	7643.53
666.546	7672.2
666.737	7496.08
666.929	7557.52
667.12	7625.1
667.311	7403.92
667.503	7578
667.694	7369.1
667.885	7231.89
668.077	7291.28
668.268	7354.77
668.459	7354.77
668.651	7086.48
668.842	7113.11
669.033	7094.68
669.224	7231.89
669.416	7235.99
669.607	6838.68
669.798	7010.71
669.989	6869.4
670.18	6922.65
670.371	6883.73
670.563	6902.17
670.754	6703.51
670.945	6760.86
671.136	6783.38
671.327	6889.88
671.518	6625.69
671.709	6703.51
671.9	6709.66
672.091	6683.03
672.282	6742.43
672.473	6461.85
672.664	6691.23
672.855	6285.73
673.046	6586.78
673.237	6613.4
673.428	6578.59
673.619	6449.57
673.809	6379.93
674	6463.9
674.191	6490.52
674.382	6285.73
674.573	6316.45
674.764	6443.42
674.954	6308.26
675.145	6392.22
675.336	6328.74
675.527	6183.33
675.717	6216.1
675.908	6076.84
676.099	6044.07
676.289	6134.18
676.48	6115.75
676.671	6074.79
676.861	6119.84
677.052	5990.82
677.243	5925.29
677.433	5976.48
677.624	6033.83
677.814	5958.05
678.005	5976.48
678.195	5962.15
678.386	6101.41
678.576	5837.22
678.767	5900.71
678.957	5835.17
679.148	5863.85
679.338	5847.46
679.529	5697.96
679.719	5878.18
679.909	5849.51
680.1	5812.65
680.29	5570.99
680.481	5816.74
680.671	5771.69
680.861	5788.07
681.052	5679.53
681.242	5628.33
681.432	5630.38
681.622	5613.99
681.813	5681.58
682.003	5564.84
682.193	5558.7
682.383	5515.69
682.573	5411.25
682.764	5544.36
682.954	5499.31
683.144	5427.63
683.334	5476.78
683.524	5296.56
683.714	5566.89
683.904	5489.07
684.094	5544.36
684.284	5425.58
684.474	5380.53
684.664	5474.73
684.854	5323.18
685.044	5298.61
685.234	5271.98
685.424	5163.44
685.614	5112.24
685.804	5175.73
685.994	5235.12
686.184	5018.04
686.374	5231.02
686.564	5241.26
686.753	4993.46
686.943	5022.13
687.133	4944.31
687.323	5003.7
687.513	5022.13
687.702	4956.6
687.892	4950.45
688.082	4968.88
688.272	4944.31
688.461	4882.87
688.651	4927.92
688.841	4759.99
689.03	4864.44
689.22	4979.12
689.41	4794.81
689.599	4749.75
689.789	4981.17
689.979	4749.75
690.168	4598.2
690.358	4551.1
690.547	4727.22
690.737	4696.5
690.926	4624.83
691.116	4544.95
691.305	4590.01
691.495	4633.02
691.684	4528.57
691.874	4579.77
692.063	4563.39
692.252	4493.76
692.442	4491.71
692.631	4413.88
692.82	4422.08
693.01	4284.86
693.199	4346.3
693.388	4432.32
693.578	4260.29
693.767	4276.67
693.956	4293.05
694.146	4272.57
694.335	4225.47
694.524	4274.62
694.713	4354.49
694.902	4243.9
695.092	4166.08
695.281	4295.1
695.47	4129.22
695.659	4129.22
695.848	4123.07
696.037	4192.7
696.226	4121.03
696.415	4090.31
696.604	4082.11
696.793	4102.59
696.982	4233.66
697.171	4116.93
697.36	4102.59
697.549	3998.15
697.738	4075.97
697.927	4088.26
698.116	4102.59
698.305	4016.58
698.494	3979.72
698.683	4129.22
698.872	4016.58
699.061	3998.15
699.25	3938.76
699.438	4014.53
699.627	3928.52
699.816	4022.72
700.005	4000.19
700.193	3940.8
700.382	3871.17
700.571	3949
700.76	3805.64
700.948	3848.65
701.137	3881.41
701.326	3922.37
701.514	3865.03
701.703	3801.54
701.892	3897.8
702.08	3832.26
702.269	3742.15
702.457	3719.62
702.646	3725.77
702.834	3654.09
703.023	3647.94
703.212	3766.73
703.4	3760.58
703.589	3799.49
703.777	3809.73
703.965	3713.48
704.154	3666.38
704.342	3721.67
704.531	3627.46
704.719	3529.16
704.907	3697.1
705.096	3578.31
705.284	3549.64
705.472	3490.25
705.661	3688.9
705.849	3574.22
706.037	3594.7
706.226	3674.57
706.414	3480.01
706.602	3693
706.79	3492.3
706.979	3566.03
707.167	3602.89
707.355	3557.83
707.543	3482.06
707.731	3754.44
707.919	3527.11
708.107	3486.15
708.296	3523.02
708.484	3363.28
708.672	3525.07
708.86	3418.57
709.048	3602.89
709.236	3580.36
709.424	3371.47
709.612	3535.31
709.8	3445.2
709.988	3342.8
710.176	3385.8
710.364	3324.37
710.551	3369.42
710.739	3394
710.927	3314.13
711.115	3312.08
711.303	3299.79
711.491	3342.8
711.679	3226.06
711.866	3316.17
712.054	3248.59
712.242	3307.98
712.43	3355.08
712.617	3408.33
712.805	3289.55
712.993	3418.57
713.181	3221.97
713.368	3273.17
713.556	3193.3
713.744	3248.59
713.931	3271.12
714.119	3344.84
714.306	3293.65
714.494	3203.54
714.682	3160.53
714.869	3170.77
715.057	3221.97
715.244	3191.25
715.432	3191.25
715.619	3185.1
715.807	3097.04
715.994	3064.27
716.182	3115.47
716.369	3195.34
716.556	3111.38
716.744	3113.42
716.931	3039.7
717.119	3092.94
717.306	3043.79
717.493	3000.79
717.681	3166.67
717.868	3047.89
718.055	3025.36
718.242	3015.12
718.43	3107.28
718.617	3072.47
718.804	3117.52
718.991	3004.88
719.179	2965.97
719.366	2920.92
719.553	3092.94
719.74	2918.87
719.927	3070.42
720.114	2914.77
720.301	2980.31
720.488	2949.59
720.676	2892.24
720.863	2871.76
721.05	2990.55
721.237	2843.09
721.424	2879.96
721.611	2890.2
721.798	2845.14
721.985	2824.66
722.172	2832.85
722.358	2660.82
722.545	2828.76
722.732	2693.59
722.919	2787.8
723.106	2767.32
723.293	2791.89
723.48	2783.7
723.667	2752.98
723.853	2744.79
724.04	2759.13
724.227	2812.37
724.414	2691.54
724.6	2865.62
724.787	2714.07
724.974	2755.03
725.161	2769.37
725.347	2716.12
725.534	2605.53
725.72	2814.42
725.907	2654.68
726.094	2679.26
726.28	2585.05
726.467	2626.01
726.653	2695.64
726.84	2599.38
727.027	2685.4
727.213	2566.62
727.4	2736.6
727.586	2662.87
727.773	2734.55
727.959	2531.8
728.145	2738.65
728.332	2634.2
728.518	2591.19
728.705	2671.06
728.891	2734.55
729.077	2554.33
729.264	2568.66
729.45	2607.58
729.636	2550.23
729.823	2537.95
730.009	2675.16
730.195	2519.51
730.382	2558.42
730.568	2546.14
730.754	2673.11
730.94	2478.55
731.126	2562.52
731.313	2599.38
731.499	2603.48
731.685	2533.85
731.871	2429.4
732.057	2439.64
732.243	2519.51
732.429	2556.38
732.615	2449.88
732.801	2384.35
732.987	2372.06
733.173	2365.92
733.359	2386.4
733.545	2384.35
733.731	2503.13
733.917	2456.03
734.103	2378.2
734.289	2437.59
734.475	2320.86
734.661	2453.98
734.847	2523.61
735.033	2449.88
735.219	2472.41
735.404	2488.79
735.59	2445.79
735.776	2384.35
735.962	2488.79
736.148	2394.59
736.333	2392.54
736.519	2327
736.705	2322.91
736.89	2290.14
737.076	2253.28
737.262	2275.81
737.447	2214.37
737.633	2253.28
737.819	2322.91
738.004	2273.76
738.19	2195.93
738.375	2406.88
738.561	2288.09
738.747	2271.71
738.932	2181.6
739.118	2185.69
739.303	2230.75
739.489	2175.45
739.674	2240.99
739.859	2249.18
740.045	2163.17
740.23	2152.93
740.416	2234.85
740.601	2277.85
740.786	2128.35
740.972	2134.5
741.157	2167.26
741.342	2003.43
741.528	2107.87
741.713	2091.49
741.898	2175.45
742.084	2030.05
742.269	2013.67
742.454	2171.36
742.639	2025.95
742.824	2062.82
743.01	2103.78
743.195	2167.26
743.38	2085.34
743.565	2060.77
743.75	2005.47
743.935	1935.84
744.12	1948.13
744.305	2081.25
744.49	2054.62
744.675	1915.36
744.86	1995.23
745.045	2005.47
745.23	1800.68
745.415	2036.19
745.6	1958.37
745.785	1788.39
745.97	1939.94
746.155	1901.03
746.34	1837.54
746.525	1853.92
746.71	1872.36
746.895	1896.93
747.079	1876.45
747.264	1845.73
747.449	1827.3
747.634	1788.39
747.819	1909.22
748.003	1794.53
748.188	1800.68
748.373	1716.71
748.557	1841.64
748.742	1694.18
748.927	1690.09
749.111	1724.9
749.296	1712.61
749.481	1759.72
749.665	1708.52
749.85	1767.91
750.034	1675.75
750.219	1667.56
750.404	1622.5
750.588	1716.71
750.773	1587.69
750.957	1624.55
751.141	1556.97
751.326	1657.32
751.51	1448.43
751.695	1546.73
751.879	1599.98
752.064	1538.54
752.248	1532.39
752.432	1542.63
752.617	1550.82
752.801	1548.78
752.985	1438.19
753.17	1409.51
753.354	1466.86
753.538	1516.01
753.722	1464.81
753.907	1440.23
754.091	1360.36
754.275	1460.71
754.459	1374.7
754.643	1380.84
754.828	1438.19
755.012	1442.28
755.196	1358.32
755.38	1391.08
755.564	1346.03
755.748	1294.83
755.932	1370.6
756.116	1335.79
756.3	1241.58
756.484	1272.3
756.668	1335.79
756.852	1317.36
757.036	1262.06
757.22	1327.6
757.404	1249.77
757.588	1233.39
757.772	1229.29
757.956	1223.15
758.14	1272.3
758.323	1214.96
758.507	1276.4
758.691	1270.25
758.875	1268.2
759.059	1229.29
759.242	1268.2
759.426	1161.71
759.61	1182.19
759.794	1092.08
759.977	1153.52
760.161	1178.09
760.345	1161.71
760.528	1233.39
760.712	1178.09
760.895	1135.09
761.079	1165.81
761.263	1065.46
761.446	1104.37
761.63	1016.3
761.813	1139.18
761.997	983.54
762.18	977.39
762.364	1217.01
762.547	1059.31
762.731	1055.22
762.914	1030.64
763.098	1065.46
763.281	1077.74
763.464	993.78
763.648	1067.5
763.831	1161.71
764.015	926.19
764.198	1016.3
764.381	983.54
764.564	993.78
764.748	965.11
764.931	905.71
765.114	1022.45
765.297	950.77
765.481	948.72
765.664	1053.17
765.847	942.58
766.03	1034.74
766.213	926.19
766.397	911.86
766.58	963.06
766.763	1028.59
766.946	928.24
767.129	899.57
767.312	932.34
767.495	901.62
767.678	942.58
767.861	979.44
768.044	989.68
768.227	868.85
768.41	901.62
768.593	954.87
768.776	840.18
768.959	909.81
769.142	991.73
769.324	842.23
769.507	831.99
769.69	954.87
769.873	899.57
770.056	846.32
770.239	831.99
770.421	889.33
770.604	879.09
770.787	883.19
770.97	844.28
771.152	778.74
771.335	741.88
771.518	901.62
771.7	797.17
771.883	815.6
772.066	862.71
772.248	739.83
772.431	838.13
772.613	811.51
772.796	829.94
772.978	768.5
773.161	809.46
773.343	782.84
773.526	776.69
773.708	713.21
773.891	797.17
774.073	754.16
774.256	690.68
774.438	817.65
774.621	674.29
774.803	745.97
774.985	756.21
775.168	799.22
775.35	684.53
775.532	786.93
775.715	657.91
775.897	778.74
776.079	745.97
776.261	723.44
776.444	694.77
776.626	737.78
776.808	694.77
776.99	629.24
777.173	625.14
777.355	621.05
777.537	684.53
777.719	670.2
777.901	641.53
778.083	590.33
778.265	633.33
778.447	678.39
778.629	582.14
778.811	600.57
778.993	643.57
779.175	639.48
779.357	682.49
779.539	651.77
779.721	590.33
779.903	592.37
780.085	621.05
780.267	506.36
780.449	545.27
780.631	653.81
780.812	602.61
780.994	549.37
781.176	504.31
781.358	489.98
781.54	578.04
781.721	621.05
781.903	647.67
782.085	608.76
782.267	512.5
782.448	569.85
782.63	580.09
782.812	580.09
782.993	524.79
783.175	559.61
783.357	502.26
783.538	483.83
783.72	516.6
783.901	473.59
784.083	518.65
784.264	408.06
784.446	426.49
784.627	487.93
784.809	494.07
784.99	436.73
785.172	430.59
785.353	465.4
785.535	418.3
785.716	512.5
785.897	399.87
786.079	469.5
786.26	471.54
786.441	440.83
786.623	487.93
786.804	489.98
786.985	393.72
787.167	410.11
787.348	373.24
787.529	473.59
787.71	494.07
787.891	385.53
788.073	391.67
788.254	442.87
788.435	408.06
788.616	406.01
788.797	381.43
788.978	375.29
789.159	315.9
789.34	391.67
789.522	360.95
789.703	334.33
789.884	379.39
790.065	453.11
790.246	381.43
790.427	387.58
790.607	420.35
790.788	379.39
790.969	377.34
791.15	309.76
791.331	360.95
791.512	424.44
791.693	420.35
791.874	420.35
792.054	418.3
792.235	299.52
792.416	293.37
792.597	338.43
792.778	346.62
792.958	406.01
793.139	336.38
793.32	309.76
793.5	322.04
793.681	336.38
793.862	379.39
794.042	334.33
794.223	307.71
794.404	270.84
794.584	242.17
794.765	317.95
794.945	283.13
795.126	291.32
795.306	391.67
795.487	328.19
795.667	240.12
795.848	334.33
796.028	264.7
796.209	375.29
796.389	291.32
796.57	322.04
796.75	213.5
796.93	266.75
797.111	248.32
797.291	266.75
797.471	293.37
797.652	221.69
797.832	307.71
798.012	295.42
798.192	279.04
798.373	272.89
798.553	324.09
798.733	193.02
798.913	283.13
799.093	244.22
799.274	254.46
799.454	242.17
799.634	252.41
799.814	272.89
799.994	221.69
800.174	305.66
800.354	256.51
800.534	317.95
800.714	256.51
800.894	254.46
801.074	233.98
801.254	195.07
801.434	287.23
801.614	301.56
801.794	221.69
801.974	596.47
802.154	170.49
802.334	248.32
802.514	236.03
802.693	213.5
802.873	244.22
803.053	281.08
803.233	244.22
803.413	162.3
803.592	248.32
803.772	176.64
803.952	215.55
804.131	293.37
804.311	252.41
804.491	240.12
804.67	201.21
804.85	217.6
805.03	272.89
805.209	184.83
805.389	211.45
805.568	168.45
805.748	172.54
805.928	229.88
806.107	221.69
806.287	238.08
806.466	229.88
806.646	129.53
806.825	236.03
807.004	182.78
807.184	244.22
807.363	215.55
807.543	154.11
807.722	72.19
807.901	242.17
808.081	207.36
808.26	166.4
808.439	270.84
808.619	152.06
808.798	201.21
808.977	199.16
809.156	152.06
809.336	193.02
809.515	80.38
809.694	137.73
809.873	158.21
810.052	156.16
810.231	215.55
810.411	217.6
810.59	197.12
810.769	147.97
810.948	166.4
811.127	152.06
811.306	129.53
811.485	147.97
811.664	160.25
811.843	186.88
812.022	211.45
812.201	152.06
812.38	162.3
812.559	135.68
812.737	141.82
812.916	139.77
813.095	133.63
813.274	225.79
813.453	182.78
813.632	111.1
813.811	215.55
813.989	197.12
814.168	201.21
814.347	150.01
814.526	88.57
814.704	213.5
814.883	207.36
815.062	154.11
815.24	227.84
815.419	158.21
815.598	227.84
815.776	162.3
815.955	152.06
816.133	135.68
816.312	86.53
816.49	127.49
816.669	176.64
816.847	141.82
817.026	117.25
817.204	78.33
817.383	113.15
817.561	57.86
817.74	131.58
817.918	152.06
818.097	180.73
818.275	133.63
818.453	250.36
818.632	115.2
818.81	168.45
818.988	100.86
819.167	98.81
819.345	111.1
819.523	152.06
819.701	109.05
819.879	127.49
820.058	123.39
820.236	137.73
820.414	121.34
820.592	143.87
820.77	137.73
820.948	92.67
821.127	211.45
821.305	145.92
821.483	135.68
821.661	96.77
821.839	125.44
822.017	76.29
822.195	123.39
822.373	172.54
822.551	154.11
822.729	170.49
822.907	68.09
823.085	182.78
823.262	178.69
823.44	154.11
823.618	139.77
823.796	102.91
823.974	109.05
824.152	94.72
824.329	88.57
824.507	98.81
824.685	186.88
824.863	66.05
825.04	209.4
825.218	135.68
825.396	86.53
825.574	133.63
825.751	188.93
825.929	123.39
826.107	158.21
826.284	74.24
826.462	135.68
826.639	90.62
826.817	23.04
826.994	123.39
827.172	129.53
827.349	154.11
827.527	66.05
827.704	117.25
827.882	88.57
828.059	111.1
828.237	104.96
828.414	53.76
828.591	88.57
828.769	98.81
828.946	33.28
829.124	90.62
829.301	160.25
829.478	72.19
829.655	164.35
829.833	117.25
830.01	37.38
830.187	137.73
830.364	90.62
830.542	76.29
830.719	102.91
830.896	121.34
831.073	53.76
831.25	102.91
831.427	92.67
831.604	104.96
831.782	82.43
831.959	113.15
832.136	86.53
832.313	43.52
832.49	53.76
832.667	152.06
832.844	76.29
833.021	121.34
833.198	158.21
833.374	68.09
833.551	29.18
833.728	80.38
833.905	64
834.082	18.94
834.259	115.2
834.436	102.91
834.612	55.81
834.789	152.06
834.966	59.9
835.143	119.29
835.319	84.48
835.496	68.09
835.673	119.29
835.85	84.48
836.026	18.94
836.203	102.91
836.38	96.77
836.556	94.72
836.733	-11.78
836.909	184.83
837.086	90.62
837.262	27.14
837.439	41.47
837.616	66.05
837.792	-9.73
837.968	84.48
838.145	29.18
838.321	84.48
838.498	96.77
838.674	51.71
838.851	90.62
839.027	61.95
839.203	49.66
839.38	70.14
839.556	70.14
839.732	37.38
839.909	-7.68
840.085	84.48
840.261	29.18
840.437	39.42
840.614	78.33
840.79	137.73
840.966	123.39
841.142	41.47
841.318	31.23
841.494	86.53
841.671	68.09
841.847	82.43
842.023	8.7
842.199	31.23
842.375	82.43
842.551	20.99
842.727	59.9
842.903	141.82
843.079	94.72
843.255	66.05
843.431	119.29
843.607	80.38
843.783	33.28
843.959	94.72
844.134	49.66
844.31	-3.58
844.486	68.09
844.662	51.71
844.838	84.48
845.013	80.38
845.189	59.9
845.365	37.38
845.541	41.47
845.716	-34.3
845.892	47.62
846.068	68.09
846.244	41.47
846.419	47.62
846.595	25.09
846.77	23.04
846.946	51.71
847.122	-38.4
847.297	0.51
847.473	80.38
847.648	14.85
847.824	121.34
847.999	0.51
848.175	72.19
848.35	-5.63
848.526	104.96
848.701	53.76
848.876	35.33
849.052	72.19
849.227	59.9
849.403	14.85
849.578	80.38
849.753	70.14
849.929	39.42
850.104	14.85
850.279	18.94
850.454	35.33
850.63	74.24
850.805	72.19
850.98	-9.73
851.155	39.42
851.33	49.66
851.505	31.23
851.681	59.9
851.856	39.42
852.031	29.18
852.206	57.86
852.381	104.96
852.556	-26.11
852.731	31.23
852.906	-26.11
853.081	98.81
853.256	170.49
853.431	37.38
853.606	-13.82
853.781	29.18
853.956	18.94
854.131	94.72
854.305	-9.73
854.48	29.18
854.655	47.62
854.83	14.85
855.005	109.05
855.18	27.14
855.354	25.09
855.529	47.62
855.704	33.28
855.879	31.23
856.053	6.66
856.228	51.71
856.403	61.95
856.577	-3.58
856.752	-17.92
856.926	33.28
857.101	29.18
857.276	45.57
857.45	23.04
857.625	16.9
857.799	90.62
857.974	2.56
858.148	-30.21
858.323	12.8
858.497	2.56
858.672	6.66
858.846	61.95
859.02	156.16
859.195	-1.54
859.369	-5.63
859.543	33.28
859.718	4.61
859.892	-11.78
860.066	70.14
860.241	18.94
860.415	51.71
860.589	16.9
860.763	39.42
860.938	41.47
861.112	49.66
861.286	0.51
861.46	59.9
861.634	20.99
861.808	41.47
861.982	2.56
862.157	90.62
862.331	88.57
862.505	2.56
862.679	29.18
862.853	23.04
863.027	-32.26
863.201	104.96
863.375	-19.97
863.549	18.94
863.722	-19.97
863.896	18.94
864.07	55.81
864.244	-17.92
864.418	-65.02
864.592	74.24
864.766	31.23
864.939	33.28
865.113	6.66
865.287	31.23
865.461	-71.17
865.634	115.2
865.808	43.52
865.982	33.28
866.156	27.14
866.329	53.76
866.503	41.47
866.676	53.76
866.85	76.29
867.024	31.23
867.197	4.61
867.371	37.38
867.544	47.62
867.718	6.66
867.891	-15.87
868.065	31.23
868.238	-13.82
868.412	2.56
868.585	12.8
868.759	-36.35
868.932	53.76
869.105	80.38
869.279	-22.02
869.452	78.33
869.625	-11.78
869.799	78.33
869.972	-48.64
870.145	55.81
870.319	16.9
870.492	37.38
870.665	12.8
870.838	23.04
871.011	51.71
871.185	37.38
871.358	61.95
871.531	16.9
871.704	49.66
871.877	84.48
872.05	113.15
872.223	-13.82
872.396	-44.54
872.569	2.56
872.742	6.66
872.915	45.57
873.088	72.19
873.261	-62.98
873.434	49.66
873.607	92.67
873.78	23.04
873.953	-11.78
874.126	107.01
874.299	-9.73
874.471	31.23
874.644	23.04
874.817	43.52
874.99	88.57
875.163	16.9
875.335	47.62
875.508	-48.64
875.681	4.61
875.853	27.14
876.026	27.14
876.199	43.52
876.371	45.57
876.544	39.42
876.717	-15.87
876.889	8.7
877.062	35.33
877.234	51.71
877.407	37.38
877.579	2.56
877.752	82.43
877.924	49.66
878.097	27.14
878.269	0.51
878.442	64
878.614	107.01
878.786	14.85
878.959	23.04
879.131	-11.78
879.303	-30.21
879.476	4.61
879.648	133.63
879.82	4.61
879.993	-50.69
880.165	-30.21
880.337	-7.68
880.509	-15.87
880.681	18.94
880.854	31.23
881.026	45.57
881.198	37.38
881.37	66.05
881.542	29.18
881.714	20.99
881.886	-42.5
882.058	4.61
882.23	2.56
882.402	23.04
882.574	43.52
882.746	109.05
882.918	-5.63
883.09	49.66
883.262	35.33
883.434	12.8
883.606	51.71
883.778	68.09
883.95	27.14
884.122	10.75
884.293	10.75
884.465	18.94
884.637	20.99
884.809	64
884.98	14.85
885.152	41.47
885.324	29.18
885.496	57.86
885.667	31.23
885.839	12.8
886.011	57.86
886.182	-81.41
886.354	20.99
886.525	2.56
886.697	-32.26
886.869	23.04
887.04	-30.21
887.212	37.38
887.383	51.71
887.555	-9.73
887.726	4.61
887.897	-7.68
888.069	35.33
888.24	29.18
888.412	-56.83
888.583	10.75
888.754	35.33
888.926	78.33
889.097	68.09
889.268	-17.92
889.44	-17.92
889.611	0.51
889.782	45.57
889.953	-26.11
890.125	-7.68
890.296	64
890.467	6.66
890.638	-48.64
890.809	-13.82
890.98	-24.06
891.151	47.62
891.323	39.42
891.494	57.86
891.665	20.99
891.836	23.04
892.007	-36.35
892.178	55.81
892.349	29.18
892.52	-24.06
892.691	16.9
892.862	-50.69
893.032	14.85
893.203	29.18
893.374	80.38
893.545	-11.78
893.716	18.94
893.887	-22.02
894.057	4.61
894.228	18.94
894.399	4.61
894.57	-30.21
894.74	49.66
894.911	37.38
895.082	4.61
895.253	-9.73
895.423	20.99
895.594	113.15
895.764	8.7
895.935	-28.16
896.106	53.76
896.276	-48.64
896.447	20.99
896.617	-17.92
896.788	-34.3
896.958	-9.73
897.129	31.23
897.299	8.7
897.47	55.81
897.64	102.91
897.81	23.04
897.981	27.14
898.151	-9.73
898.322	41.47
898.492	64
898.662	80.38
898.832	43.52
899.003	33.28
899.173	37.38
899.343	49.66
899.513	-28.16
