Data from USB4F104151__70__12-36-44-154.txt Node

Date: Fri Mar 14 12:36:44 EDT 2025
User: louis
Spectrometer: USB4F10415
Trigger mode: 4
Integration Time (sec): 2.000000E-2
Scans to average: 1
Electric dark correction enabled: true
Nonlinearity correction enabled: false
Boxcar width: 0
XAxis mode: Wavelengths
Number of Pixels in Spectrum: 3648
>>>>>Begin Spectral Data<<<<<
178.204	-21.67
178.424	-21.67
178.644	-21.67
178.864	-99.5
179.084	-74.92
179.304	4.95
179.524	-27.82
179.744	74.58
179.964	27.48
180.184	-62.63
180.404	21.33
180.624	-44.2
180.844	39.76
181.064	-40.11
181.283	-11.43
181.503	-1.19
181.723	19.29
181.943	11.09
182.163	15.19
182.383	43.86
182.602	62.29
182.822	25.43
183.042	41.81
183.262	-9.39
183.482	23.38
183.701	25.43
183.921	7
184.141	-17.58
184.361	21.33
184.58	78.68
184.8	17.24
185.02	25.43
185.239	31.57
185.459	41.81
185.679	72.53
185.898	-3.24
186.118	17.24
186.338	103.25
186.557	129.88
186.777	37.72
186.997	25.43
187.216	-25.77
187.436	105.3
187.655	90.96
187.875	37.72
188.095	2.9
188.314	7
188.534	-31.91
188.753	-50.35
188.973	39.76
189.192	56.15
189.412	11.09
189.631	78.68
189.851	-3.24
190.07	37.72
190.29	41.81
190.509	4.95
190.729	54.1
190.948	39.76
191.168	146.26
191.387	82.77
191.607	39.76
191.826	2.9
192.045	37.72
192.265	39.76
192.484	-21.67
192.704	72.53
192.923	54.1
193.142	-3.24
193.362	11.09
193.581	50
193.8	19.29
194.02	113.49
194.239	72.53
194.458	88.92
194.678	-52.39
194.897	68.44
195.116	66.39
195.335	15.19
195.555	-25.77
195.774	50
195.993	9.05
196.212	45.91
196.432	11.09
196.651	82.77
196.87	-38.06
197.089	35.67
197.308	50
197.528	88.92
197.747	0.85
197.966	11.09
198.185	101.2
198.404	-11.43
198.623	84.82
198.842	-46.25
199.062	62.29
199.281	43.86
199.5	21.33
199.719	-33.96
199.938	33.62
200.157	29.52
200.376	129.88
200.595	27.48
200.814	27.48
201.033	15.19
201.252	25.43
201.471	-7.34
201.69	13.14
201.909	35.67
202.128	43.86
202.347	15.19
202.566	19.29
202.785	21.33
203.004	-36.01
203.223	86.87
203.442	62.29
203.661	-7.34
203.879	23.38
204.098	64.34
204.317	-13.48
204.536	43.86
204.755	13.14
204.974	27.48
205.193	35.67
205.411	86.87
205.63	19.29
205.849	-21.67
206.068	13.14
206.287	37.72
206.505	-36.01
206.724	68.44
206.943	15.19
207.162	-7.34
207.381	88.92
207.599	-9.39
207.818	43.86
208.037	-31.91
208.255	29.52
208.474	101.2
208.693	80.72
208.911	29.52
209.13	37.72
209.349	56.15
209.567	142.16
209.786	37.72
210.005	45.91
210.223	58.2
210.442	0.85
210.661	66.39
210.879	107.35
211.098	-42.15
211.316	25.43
211.535	39.76
211.753	50
211.972	9.05
212.191	21.33
212.409	97.11
212.628	7
212.846	58.2
213.065	52.05
213.283	121.68
213.502	29.52
213.72	13.14
213.938	56.15
214.157	43.86
214.375	25.43
214.594	13.14
214.812	52.05
215.031	80.72
215.249	-48.3
215.467	-56.49
215.686	60.24
215.904	97.11
216.122	31.57
216.341	39.76
216.559	17.24
216.778	117.59
216.996	99.16
217.214	88.92
217.432	60.24
217.651	21.33
217.869	43.86
218.087	50
218.306	31.57
218.524	64.34
218.742	41.81
218.96	68.44
219.179	66.39
219.397	97.11
219.615	82.77
219.833	27.48
220.051	-7.34
220.27	27.48
220.488	88.92
220.706	0.85
220.924	-58.54
221.142	4.95
221.36	86.87
221.578	64.34
221.796	41.81
222.015	58.2
222.233	17.24
222.451	50
222.669	11.09
222.887	29.52
223.105	19.29
223.323	-7.34
223.541	54.1
223.759	-25.77
223.977	58.2
224.195	64.34
224.413	62.29
224.631	45.91
224.849	-31.91
225.067	50
225.285	43.86
225.503	-15.53
225.721	-60.59
225.939	64.34
226.157	33.62
226.375	70.48
226.592	2.9
226.81	35.67
227.028	101.2
227.246	93.01
227.464	21.33
227.682	23.38
227.9	23.38
228.117	47.96
228.335	78.68
228.553	43.86
228.771	-19.63
228.989	56.15
229.206	60.24
229.424	97.11
229.642	33.62
229.86	-9.39
230.077	74.58
230.295	13.14
230.513	68.44
230.731	64.34
230.948	56.15
231.166	76.63
231.384	80.72
231.601	72.53
231.819	58.2
232.037	-23.72
232.254	35.67
232.472	-40.11
232.689	66.39
232.907	33.62
233.125	66.39
233.342	-17.58
233.56	21.33
233.777	41.81
233.995	29.52
234.213	35.67
234.43	50
234.648	37.72
234.865	9.05
235.083	19.29
235.3	70.48
235.518	29.52
235.735	74.58
235.953	97.11
236.17	-21.67
236.388	43.86
236.605	33.62
236.822	88.92
237.04	-27.82
237.257	105.3
237.475	31.57
237.692	70.48
237.909	-25.77
238.127	45.91
238.344	60.24
238.562	-42.15
238.779	2.9
238.996	21.33
239.214	97.11
239.431	15.19
239.648	-3.24
239.865	66.39
240.083	0.85
240.3	52.05
240.517	74.58
240.735	43.86
240.952	-15.53
241.169	78.68
241.386	125.78
241.603	-15.53
241.821	-1.19
242.038	70.48
242.255	13.14
242.472	19.29
242.689	80.72
242.907	52.05
243.124	39.76
243.341	13.14
243.558	9.05
243.775	7
243.992	80.72
244.209	47.96
244.426	93.01
244.643	47.96
244.86	64.34
245.078	54.1
245.295	27.48
245.512	41.81
245.729	0.85
245.946	80.72
246.163	-64.68
246.38	41.81
246.597	50
246.814	9.05
247.031	84.82
247.248	25.43
247.464	-27.82
247.681	29.52
247.898	123.73
248.115	31.57
248.332	-29.87
248.549	47.96
248.766	97.11
248.983	72.53
249.2	33.62
249.417	86.87
249.633	105.3
249.85	-15.53
250.067	64.34
250.284	17.24
250.501	66.39
250.717	93.01
250.934	39.76
251.151	43.86
251.368	54.1
251.585	56.15
251.801	-15.53
252.018	15.19
252.235	72.53
252.451	84.82
252.668	-25.77
252.885	68.44
253.102	115.54
253.318	2.9
253.535	7
253.752	-3.24
253.968	35.67
254.185	21.33
254.401	29.52
254.618	52.05
254.835	21.33
255.051	37.72
255.268	27.48
255.484	93.01
255.701	60.24
255.917	33.62
256.134	11.09
256.351	21.33
256.567	17.24
256.784	58.2
257	19.29
257.217	50
257.433	74.58
257.65	23.38
257.866	11.09
258.082	-15.53
258.299	64.34
258.515	105.3
258.732	11.09
258.948	15.19
259.165	60.24
259.381	37.72
259.597	-13.48
259.814	99.16
260.03	21.33
260.246	43.86
260.463	101.2
260.679	43.86
260.895	37.72
261.112	7
261.328	-23.72
261.544	29.52
261.761	64.34
261.977	56.15
262.193	-29.87
262.409	82.77
262.626	95.06
262.842	72.53
263.058	-44.2
263.274	47.96
263.49	66.39
263.707	47.96
263.923	35.67
264.139	52.05
264.355	15.19
264.571	117.59
264.787	74.58
265.004	88.92
265.22	-38.06
265.436	62.29
265.652	39.76
265.868	58.2
266.084	72.53
266.3	62.29
266.516	37.72
266.732	99.16
266.948	37.72
267.164	84.82
267.38	150.36
267.596	41.81
267.812	4.95
268.028	76.63
268.244	31.57
268.46	31.57
268.676	52.05
268.892	88.92
269.108	15.19
269.324	-17.58
269.54	60.24
269.756	50
269.972	-48.3
270.188	39.76
270.403	23.38
270.619	-7.34
270.835	-5.29
271.051	17.24
271.267	-3.24
271.483	82.77
271.698	60.24
271.914	-13.48
272.13	-5.29
272.346	60.24
272.562	41.81
272.777	41.81
272.993	37.72
273.209	31.57
273.425	-1.19
273.64	-31.91
273.856	107.35
274.072	74.58
274.287	-36.01
274.503	68.44
274.719	27.48
274.934	72.53
275.15	72.53
275.366	21.33
275.581	54.1
275.797	13.14
276.012	2.9
276.228	82.77
276.444	39.76
276.659	72.53
276.875	21.33
277.09	-1.19
277.306	27.48
277.521	50
277.737	31.57
277.952	31.57
278.168	23.38
278.383	33.62
278.599	127.83
278.814	31.57
279.03	103.25
279.245	123.73
279.461	82.77
279.676	43.86
279.892	4.95
280.107	56.15
280.322	-60.59
280.538	9.05
280.753	31.57
280.969	17.24
281.184	82.77
281.399	33.62
281.615	97.11
281.83	107.35
282.045	21.33
282.26	17.24
282.476	-23.72
282.691	95.06
282.906	-48.3
283.122	43.86
283.337	27.48
283.552	115.54
283.767	58.2
283.983	138.07
284.198	35.67
284.413	41.81
284.628	-3.24
284.843	43.86
285.058	-21.67
285.274	52.05
285.489	93.01
285.704	11.09
285.919	19.29
286.134	-36.01
286.349	-5.29
286.564	54.1
286.779	97.11
286.995	15.19
287.21	-17.58
287.425	25.43
287.64	60.24
287.855	33.62
288.07	-25.77
288.285	9.05
288.5	72.53
288.715	113.49
288.93	43.86
289.145	31.57
289.36	64.34
289.575	29.52
289.79	95.06
290.004	31.57
290.219	0.85
290.434	37.72
290.649	133.97
290.864	50
291.079	7
291.294	33.62
291.509	-23.72
291.724	39.76
291.938	-79.02
292.153	2.9
292.368	76.63
292.583	37.72
292.798	54.1
293.012	129.88
293.227	29.52
293.442	60.24
293.657	52.05
293.871	70.48
294.086	80.72
294.301	113.49
294.516	62.29
294.73	17.24
294.945	-27.82
295.16	17.24
295.374	54.1
295.589	70.48
295.804	45.91
296.018	70.48
296.233	74.58
296.447	95.06
296.662	-21.67
296.877	56.15
297.091	11.09
297.306	50
297.52	56.15
297.735	37.72
297.949	78.68
298.164	56.15
298.378	29.52
298.593	33.62
298.807	0.85
299.022	72.53
299.236	72.53
299.451	64.34
299.665	150.36
299.88	68.44
300.094	47.96
300.309	50
300.523	78.68
300.737	66.39
300.952	29.52
301.166	93.01
301.381	113.49
301.595	45.91
301.809	17.24
302.024	11.09
302.238	21.33
302.452	136.02
302.667	90.96
302.881	109.4
303.095	2.9
303.309	74.58
303.524	37.72
303.738	56.15
303.952	-48.3
304.166	37.72
304.381	64.34
304.595	111.44
304.809	33.62
305.023	66.39
305.237	-11.43
305.452	56.15
305.666	125.78
305.88	90.96
306.094	86.87
306.308	-5.29
306.522	50
306.736	74.58
306.95	33.62
307.164	103.25
307.379	95.06
307.593	99.16
307.807	43.86
308.021	56.15
308.235	27.48
308.449	60.24
308.663	13.14
308.877	140.12
309.091	50
309.305	80.72
309.519	101.2
309.733	123.73
309.947	41.81
310.161	37.72
310.374	58.2
310.588	115.54
310.802	17.24
311.016	62.29
311.23	31.57
311.444	88.92
311.658	43.86
311.872	-7.34
312.085	78.68
312.299	50
312.513	68.44
312.727	50
312.941	4.95
313.154	66.39
313.368	72.53
313.582	56.15
313.796	45.91
314.009	66.39
314.223	25.43
314.437	45.91
314.651	58.2
314.864	107.35
315.078	17.24
315.292	11.09
315.505	29.52
315.719	117.59
315.933	80.72
316.146	39.76
316.36	21.33
316.573	88.92
316.787	13.14
317.001	21.33
317.214	47.96
317.428	84.82
317.641	54.1
317.855	45.91
318.068	56.15
318.282	37.72
318.495	-3.24
318.709	13.14
318.922	-1.19
319.136	50
319.349	13.14
319.563	43.86
319.776	50
319.99	-15.53
320.203	129.88
320.417	21.33
320.63	66.39
320.843	107.35
321.057	54.1
321.27	58.2
321.483	64.34
321.697	-7.34
321.91	93.01
322.124	33.62
322.337	86.87
322.55	62.29
322.763	15.19
322.977	78.68
323.19	9.05
323.403	148.31
323.617	-54.44
323.83	50
324.043	41.81
324.256	31.57
324.469	45.91
324.683	93.01
324.896	25.43
325.109	-11.43
325.322	68.44
325.535	43.86
325.748	31.57
325.962	72.53
326.175	105.3
326.388	9.05
326.601	35.67
326.814	144.21
327.027	-54.44
327.24	47.96
327.453	-13.48
327.666	115.54
327.879	107.35
328.092	84.82
328.305	21.33
328.518	43.86
328.731	84.82
328.944	45.91
329.157	76.63
329.37	95.06
329.583	47.96
329.796	66.39
330.009	15.19
330.222	50
330.435	105.3
330.648	84.82
330.861	93.01
331.073	52.05
331.286	76.63
331.499	66.39
331.712	25.43
331.925	-54.44
332.138	45.91
332.35	82.77
332.563	31.57
332.776	111.44
332.989	52.05
333.202	25.43
333.414	17.24
333.627	62.29
333.84	19.29
334.053	88.92
334.265	101.2
334.478	54.1
334.691	62.29
334.903	56.15
335.116	105.3
335.329	41.81
335.541	93.01
335.754	95.06
335.966	11.09
336.179	88.92
336.392	4.95
336.604	80.72
336.817	76.63
337.029	64.34
337.242	80.72
337.454	66.39
337.667	105.3
337.88	4.95
338.092	33.62
338.305	21.33
338.517	84.82
338.729	29.52
338.942	97.11
339.154	-13.48
339.367	17.24
339.579	70.48
339.792	17.24
340.004	35.67
340.217	78.68
340.429	50
340.641	52.05
340.854	56.15
341.066	62.29
341.278	123.73
341.491	84.82
341.703	82.77
341.915	-25.77
342.128	37.72
342.34	72.53
342.552	45.91
342.764	-21.67
342.977	9.05
343.189	37.72
343.401	50
343.613	25.43
343.826	33.62
344.038	35.67
344.25	138.07
344.462	84.82
344.674	82.77
344.886	-7.34
345.099	115.54
345.311	78.68
345.523	19.29
345.735	23.38
345.947	56.15
346.159	-29.87
346.371	50
346.583	74.58
346.795	90.96
347.007	60.24
347.219	74.58
347.431	39.76
347.643	21.33
347.855	86.87
348.067	47.96
348.279	2.9
348.491	45.91
348.703	129.88
348.915	33.62
349.127	4.95
349.339	-5.29
349.551	86.87
349.763	-15.53
349.975	25.43
350.187	68.44
350.399	93.01
350.61	68.44
350.822	72.53
351.034	109.4
351.246	72.53
351.458	52.05
351.669	72.53
351.881	60.24
352.093	119.64
352.305	45.91
352.517	84.82
352.728	80.72
352.94	35.67
353.152	58.2
353.363	-31.91
353.575	60.24
353.787	52.05
353.999	54.1
354.21	33.62
354.422	72.53
354.633	-17.58
354.845	25.43
355.057	121.68
355.268	93.01
355.48	35.67
355.692	35.67
355.903	29.52
356.115	-13.48
356.326	50
356.538	95.06
356.749	9.05
356.961	60.24
357.172	105.3
357.384	82.77
357.595	82.77
357.807	19.29
358.018	13.14
358.23	164.69
358.441	58.2
358.653	90.96
358.864	78.68
359.075	15.19
359.287	88.92
359.498	99.16
359.709	64.34
359.921	97.11
360.132	25.43
360.344	47.96
360.555	109.4
360.766	158.55
360.977	88.92
361.189	29.52
361.4	70.48
361.611	93.01
361.823	99.16
362.034	29.52
362.245	0.85
362.456	33.62
362.667	127.83
362.879	27.48
363.09	35.67
363.301	88.92
363.512	123.73
363.723	7
363.935	80.72
364.146	11.09
364.357	78.68
364.568	101.2
364.779	72.53
364.99	113.49
365.201	41.81
365.412	115.54
365.623	90.96
365.834	66.39
366.045	17.24
366.256	54.1
366.467	31.57
366.678	97.11
366.889	90.96
367.1	74.58
367.311	136.02
367.522	0.85
367.733	97.11
367.944	101.2
368.155	43.86
368.366	148.31
368.577	68.44
368.788	50
368.999	90.96
369.209	-15.53
369.42	78.68
369.631	121.68
369.842	13.14
370.053	33.62
370.264	74.58
370.474	88.92
370.685	23.38
370.896	45.91
371.107	52.05
371.317	84.82
371.528	54.1
371.739	156.5
371.95	64.34
372.16	52.05
372.371	31.57
372.582	62.29
372.792	17.24
373.003	88.92
373.214	133.97
373.424	47.96
373.635	-21.67
373.846	13.14
374.056	27.48
374.267	25.43
374.477	78.68
374.688	64.34
374.898	62.29
375.109	62.29
375.319	15.19
375.53	109.4
375.74	-17.58
375.951	56.15
376.161	64.34
376.372	19.29
376.582	23.38
376.793	142.16
377.003	66.39
377.214	74.58
377.424	56.15
377.635	82.77
377.845	54.1
378.055	72.53
378.266	144.21
378.476	93.01
378.686	78.68
378.897	62.29
379.107	86.87
379.317	70.48
379.528	78.68
379.738	101.2
379.948	7
380.158	90.96
380.369	84.82
380.579	74.58
380.789	19.29
380.999	95.06
381.21	131.92
381.42	181.07
381.63	58.2
381.84	93.01
382.05	76.63
382.261	160.59
382.471	127.83
382.681	47.96
382.891	82.77
383.101	17.24
383.311	78.68
383.521	68.44
383.731	152.4
383.941	29.52
384.151	119.64
384.361	101.2
384.571	80.72
384.781	138.07
384.991	97.11
385.201	68.44
385.411	80.72
385.621	101.2
385.831	129.88
386.041	47.96
386.251	68.44
386.461	136.02
386.671	54.1
386.881	95.06
387.091	60.24
387.301	66.39
387.511	58.2
387.72	64.34
387.93	52.05
388.14	-17.58
388.35	97.11
388.56	23.38
388.769	88.92
388.979	80.72
389.189	35.67
389.399	39.76
389.609	60.24
389.818	105.3
390.028	144.21
390.238	66.39
390.447	39.76
390.657	129.88
390.867	66.39
391.076	88.92
391.286	54.1
391.496	64.34
391.705	54.1
391.915	136.02
392.125	123.73
392.334	17.24
392.544	127.83
392.753	150.36
392.963	66.39
393.172	146.26
393.382	41.81
393.591	68.44
393.801	66.39
394.01	123.73
394.22	93.01
394.429	64.34
394.639	115.54
394.848	185.17
395.058	54.1
395.267	76.63
395.477	162.64
395.686	107.35
395.895	80.72
396.105	150.36
396.314	82.77
396.524	193.36
396.733	172.88
396.942	179.03
397.152	103.25
397.361	152.4
397.57	217.94
397.78	78.68
397.989	133.97
398.198	146.26
398.407	80.72
398.617	136.02
398.826	136.02
399.035	82.77
399.244	158.55
399.453	131.92
399.663	148.31
399.872	125.78
400.081	131.92
400.29	170.83
400.499	168.79
400.708	142.16
400.917	129.88
401.127	119.64
401.336	154.45
401.545	168.79
401.754	127.83
401.963	176.98
402.172	193.36
402.381	160.59
402.59	150.36
402.799	170.83
403.008	127.83
403.217	183.12
403.426	109.4
403.635	170.83
403.844	228.18
404.053	201.55
404.262	213.84
404.471	191.31
404.68	217.94
404.888	136.02
405.097	138.07
405.306	195.41
405.515	256.85
405.724	228.18
405.933	326.48
406.142	248.66
406.35	183.12
406.559	262.99
406.768	250.71
406.977	285.52
407.185	273.23
407.394	269.14
407.603	213.84
407.812	414.54
408.02	332.62
408.229	377.68
408.438	269.14
408.646	283.47
408.855	361.3
409.064	389.97
409.272	361.3
409.481	459.6
409.69	400.21
409.898	430.93
410.107	398.16
410.315	426.83
410.524	451.41
410.733	478.03
410.941	510.8
411.15	539.47
411.358	557.9
411.567	553.8
411.775	494.41
411.984	566.09
412.192	551.76
412.401	631.63
412.609	631.63
412.818	686.92
413.026	717.64
413.234	740.17
413.443	791.37
413.651	758.6
413.86	748.36
414.068	861
414.276	867.14
414.485	803.66
414.693	944.97
414.901	985.93
415.11	891.72
415.318	938.82
415.526	992.07
415.734	1078.08
415.943	1002.31
416.151	1121.09
416.359	1051.46
416.567	1145.67
416.776	1178.44
416.984	1377.09
417.192	1246.02
417.4	1358.66
417.608	1397.57
417.817	1356.61
418.025	1485.63
418.233	1520.45
418.441	1477.44
418.649	1751.87
418.857	1860.41
419.065	1755.96
419.273	1758.01
419.481	1907.51
419.689	1864.5
419.897	2001.72
420.105	2016.05
420.313	2095.93
420.521	2155.32
420.729	2442.03
420.937	2421.55
421.145	2507.57
421.353	2439.98
421.561	2626.35
421.769	2677.55
421.977	2818.86
422.185	2757.42
422.393	2966.31
422.601	3040.04
422.809	3134.25
423.017	3064.61
423.224	3119.91
423.432	3396.39
423.64	3431.2
423.848	3592.99
424.056	3724.06
424.263	3877.66
424.471	3996.44
424.679	4031.26
424.887	4174.61
425.094	4223.76
425.302	4434.71
425.51	4414.23
425.718	4623.12
425.925	4696.85
426.133	4903.69
426.341	5272.32
426.548	5391.11
426.756	5397.25
426.964	5495.55
427.171	5925.63
427.379	5892.86
427.586	6093.56
427.794	6187.77
428.001	6501.11
428.209	6710
428.417	6660.85
428.624	7138.02
428.832	7217.9
429.039	7090.92
429.247	7242.47
429.454	7881.44
429.662	8192.73
429.869	7826.14
430.076	8340.18
430.284	8190.68
430.491	8387.29
430.699	8997.58
430.906	8860.37
431.114	9114.31
431.321	9562.82
431.528	9601.73
431.736	10214.07
431.943	10549.94
432.15	10382.01
432.358	10351.29
432.565	11008.69
432.772	10887.86
432.979	11543.21
433.187	11821.73
433.394	11903.65
433.601	12731.03
433.808	12657.3
434.016	12608.15
434.223	13015.69
434.43	13795.97
434.637	13572.74
434.844	14469.75
435.052	14924.4
435.259	14617.21
435.466	14770.8
435.673	14750.32
435.88	15657.57
436.087	16263.77
436.294	16636.5
436.501	16144.99
436.708	16538.2
436.915	17136.21
437.122	17553.99
437.329	17689.16
437.537	18477.63
437.743	18663.99
437.95	18475.58
438.157	19509.8
438.364	19978.79
438.571	19958.31
438.778	20015.65
438.985	22004.23
439.192	21125.65
439.399	21914.12
439.606	21844.49
439.813	22659.58
440.02	23652.84
440.227	23454.19
440.433	23359.98
440.64	24199.65
440.847	23740.91
441.054	24635.87
441.261	26069.45
441.467	25852.36
441.674	26423.75
441.881	27406.77
442.088	27357.62
442.294	27265.46
442.501	27558.32
442.708	28445.09
442.914	29450.64
443.121	30669.19
443.328	29682.06
443.534	32311.66
443.741	31250.81
443.948	30775.68
444.154	32811.36
444.361	32676.19
444.568	32784.74
444.774	32743.78
444.981	33233.24
445.187	34396.49
445.394	35799.35
445.6	35133.76
445.807	38629.64
446.013	36708.65
446.22	37822.74
446.426	39104.77
446.633	39209.22
446.839	40560.87
447.046	39088.38
447.252	41212.13
447.459	41363.68
447.665	40980.71
447.871	43313.34
448.078	44601.52
448.284	42715.34
448.491	44079.28
448.697	45185.19
448.903	46047.38
449.11	46219.41
449.316	45521.05
449.522	46569.61
449.728	47708.29
449.935	47849.6
450.141	48232.57
450.347	49070.18
450.553	47595.65
450.76	47896.7
450.966	49571.94
451.172	48887.92
451.378	50301.01
451.584	49367.14
451.791	50661.46
451.997	50489.43
452.203	51327.05
452.409	51212.36
452.615	51314.76
452.821	49631.33
453.027	48613.49
453.233	51357.77
453.44	49234.02
453.646	49875.04
453.852	49954.91
454.058	51089.48
454.264	49391.72
454.47	50526.29
454.676	49049.7
454.882	50987.08
455.088	46846.09
455.294	47427.71
455.5	47609.98
455.705	48308.34
455.911	46672.01
456.117	45570.21
456.323	44939.43
456.529	42574.03
456.735	44529.84
456.941	43436.22
457.147	42746.06
457.352	41439.45
457.558	41232.61
457.764	41496.8
457.97	40204.53
458.176	39336.19
458.381	39803.13
458.587	37546.26
458.793	38074.64
458.999	35660.09
459.204	37984.53
459.41	37339.42
459.616	34871.62
459.821	34462.02
460.027	34748.74
460.233	33741.14
460.438	32264.55
460.644	32790.88
460.85	31011.2
461.055	30755.2
461.261	30773.63
461.466	28465.57
461.672	27533.75
461.878	29229.46
462.083	27511.22
462.289	27044.28
462.494	26683.84
462.7	25283.03
462.905	24725.98
463.111	25745.87
463.316	25891.27
463.522	25364.95
463.727	25332.18
463.932	25270.74
464.138	25201.11
464.343	24969.69
464.549	24312.29
464.754	25135.57
464.959	25211.35
465.165	24807.9
465.37	23851.5
465.575	23239.15
465.781	24287.71
465.986	24390.11
466.191	23206.39
466.397	22819.32
466.602	21641.74
466.807	22329.86
467.012	22512.13
467.218	22583.8
467.423	22020.61
467.628	22354.43
467.833	23333.36
468.038	22374.91
468.244	21555.72
468.449	22452.73
468.654	21891.59
468.859	21637.64
469.064	21289.49
469.269	20554.27
469.474	20800.02
469.679	21187.09
469.885	20523.55
470.09	20671
470.295	21107.22
470.5	20167.2
470.705	20503.07
470.91	20070.95
471.115	19685.93
471.32	20218.4
471.525	20025.89
471.73	19483.18
471.935	19491.37
472.139	18586.17
472.344	18889.27
472.549	18577.98
472.754	18598.46
472.959	18272.83
473.164	17711.69
473.369	17764.93
473.574	18293.31
473.778	18127.42
473.983	17781.32
474.188	17758.79
474.393	17261.13
474.598	16878.16
474.802	17031.76
475.007	16831.06
475.212	16808.53
475.417	16343.64
475.621	16321.12
475.826	16437.85
476.031	15899.23
476.235	15790.69
476.44	15719.01
476.645	15727.21
476.849	15882.85
477.054	15594.09
477.259	15186.54
477.463	15352.43
477.668	14639.73
477.872	14711.41
478.077	14908.02
478.282	14510.71
478.486	14324.35
478.691	14168.7
478.895	14162.56
479.1	14080.64
479.304	14221.95
479.509	13625.99
479.713	13961.86
479.918	13470.34
480.122	13441.67
480.326	13765.25
480.531	13671.04
480.735	13335.18
480.94	13525.64
481.144	13599.37
481.348	13138.57
481.553	13214.35
481.757	12780.18
481.961	13222.54
482.166	13212.3
482.37	13173.39
482.574	13048.46
482.778	13118.09
482.983	13357.71
483.187	13048.46
483.391	13056.65
483.595	12982.93
483.8	12944.02
484.004	12995.22
484.208	13085.33
484.412	12823.19
484.616	12991.12
484.821	12876.43
485.025	12837.52
485.229	13052.56
485.433	12812.95
485.637	12888.72
485.841	12814.99
486.045	12688.02
486.249	12876.43
486.453	12927.63
486.657	13230.73
486.861	12907.15
487.065	12819.09
487.269	12909.2
487.473	12681.88
487.677	13036.17
487.881	12976.78
488.085	12835.47
488.289	13169.29
488.493	13165.2
488.697	13064.85
488.901	13200.01
489.105	12890.77
489.309	13189.77
489.512	13109.9
489.716	12796.56
489.92	13494.92
490.124	13066.89
490.328	13386.38
490.531	13308.55
490.735	13263.5
490.939	13353.61
491.143	13304.46
491.346	13077.13
491.55	13406.86
491.754	13470.34
491.958	13724.29
492.161	13290.12
492.365	13501.06
492.569	13632.13
492.772	13716.1
492.976	13922.94
493.18	13748.87
493.383	14076.54
493.587	14000.77
493.79	14025.34
493.994	14019.2
494.197	14260.86
494.401	14273.15
494.605	14295.68
494.808	14742.13
495.012	14428.79
495.215	14445.18
495.419	14785.14
495.622	14463.61
495.825	14793.33
496.029	14924.4
496.232	15135.34
496.436	15184.49
496.639	15692.39
496.843	15602.28
497.046	15698.53
497.249	16091.74
497.453	15972.96
497.656	16265.82
497.859	16188
498.063	16235.1
498.266	16724.57
498.469	16800.34
498.673	16755.29
498.876	17187.41
499.079	17121.87
499.282	17445.45
499.485	17754.69
499.689	17771.08
499.892	17879.62
500.095	17928.77
500.298	18442.81
500.501	18432.57
500.705	18885.17
500.908	19182.13
501.111	19345.97
501.314	19206.7
501.517	19452.46
501.72	19819.05
501.923	19810.86
502.126	20169.25
502.329	20509.21
502.532	20558.36
502.735	20716.06
502.938	21201.43
503.141	21080.6
503.344	21621.26
503.547	21404.17
503.75	21924.36
503.953	22188.55
504.156	22753.79
504.359	22751.74
504.562	22688.25
504.765	23151.09
504.968	23489.01
505.17	23654.89
505.373	23677.42
505.576	24351.2
505.779	24553.95
505.982	24646.11
506.185	25186.77
506.387	25221.59
506.59	25328.08
506.793	25881.03
506.996	25567.7
507.198	26571.2
507.401	26184.13
507.604	26356.16
507.807	26786.24
508.009	27453.87
508.212	27808.17
508.415	28092.84
508.617	27929
508.82	28213.67
509.022	28238.25
509.225	28899.74
509.428	29112.73
509.63	29348.25
509.833	29381.01
510.035	29938.06
510.238	29704.59
510.44	30339.46
510.643	31054.2
510.845	31007.1
511.048	30658.95
511.25	31467.89
511.453	31474.04
511.655	32766.31
511.858	32405.86
512.06	32491.88
512.262	33038.69
512.465	32889.18
512.667	33581.4
512.87	33759.57
513.072	34111.82
513.274	34326.86
513.477	34787.65
513.679	35051.84
513.881	35586.36
514.084	35780.92
514.286	35776.82
514.488	36186.41
514.69	36931.87
514.893	36604.2
515.095	37116.19
515.297	37468.44
515.499	37433.63
515.701	37992.72
515.904	38584.58
516.106	38729.99
516.308	39166.21
516.51	39696.63
516.712	39510.27
516.914	40122.61
517.116	40769.77
517.318	40601.83
517.52	40976.61
517.722	40843.49
517.925	41597.15
518.127	42150.1
518.329	42340.56
518.531	42025.17
518.733	43067.59
518.935	43524.29
519.136	43415.74
519.338	44382.38
519.54	44314.8
519.742	44718.25
519.944	44796.07
520.146	45213.86
520.348	45717.66
520.55	45723.8
520.752	45975.7
520.954	46459.02
521.155	46147.73
521.357	47280.26
521.559	47460.48
521.761	48113.78
521.963	47915.13
522.164	48046.2
522.366	48263.28
522.568	49082.47
522.77	48922.73
522.971	49537.12
523.173	49375.33
523.375	49811.55
523.576	49565.79
523.778	50313.3
523.98	50835.53
524.181	50698.32
524.383	50794.57
524.584	51394.63
524.786	51163.21
524.988	51007.56
525.189	52002.88
525.391	52074.55
525.592	52496.44
525.794	52781.1
525.995	52668.47
526.197	52652.08
526.398	53084.2
526.6	53547.04
526.801	53381.16
527.003	53649.44
527.204	53553.19
527.406	54169.63
527.607	54265.88
527.808	54632.47
528.01	53598.24
528.211	54138.91
528.412	55396.36
528.614	55048.21
528.815	54937.62
529.016	55511.05
529.218	55085.07
529.419	55042.06
529.62	55371.78
529.822	54845.46
530.023	55255.05
530.224	55336.97
530.425	55459.85
530.626	55089.16
530.828	55355.4
531.029	56254.46
531.23	55924.74
531.431	55840.77
531.632	55791.62
531.833	56139.77
532.035	56256.51
532.236	56203.26
532.437	56348.67
532.638	55959.55
532.839	56514.55
533.04	56823.79
533.241	56203.26
533.442	56885.23
533.643	56729.59
533.844	56586.23
534.045	56115.2
534.246	55883.78
534.447	56645.62
534.648	56582.13
534.849	56684.53
535.05	56264.7
535.251	56889.33
535.451	56805.36
535.652	56813.55
535.853	56385.53
536.054	57110.51
536.255	57153.52
536.456	56158.2
536.657	57106.41
536.857	56332.28
537.058	56340.47
537.259	56506.36
537.46	56721.4
537.66	56416.25
537.861	56715.25
538.062	56432.63
538.263	56592.37
538.463	56600.57
538.664	56467.45
538.865	56860.66
539.065	57149.42
539.266	56113.15
539.466	56748.02
539.667	56152.06
539.868	57221.1
540.068	56717.3
540.269	56244.22
540.469	56375.29
540.67	56023.04
540.87	56244.22
541.071	56215.55
541.271	56698.87
541.472	56236.03
541.672	56498.17
541.873	55816.19
542.073	55457.8
542.274	56586.23
542.474	55875.58
542.675	55730.18
542.875	56829.94
543.075	55840.77
543.276	55441.42
543.476	56717.3
543.676	56190.97
543.877	56035.33
544.077	56074.24
544.277	56152.06
544.478	55568.39
544.678	55920.64
544.878	56551.41
545.078	56018.94
545.279	55607.3
545.479	55973.89
545.679	56166.4
545.879	55920.64
546.079	56233.98
546.28	55457.8
546.48	55502.85
546.68	55984.13
546.88	55928.83
547.08	55990.27
547.28	55719.94
547.48	55339.02
547.68	55803.91
547.88	55601.16
548.081	56172.54
548.281	55871.49
548.481	55744.51
548.681	56018.94
548.881	55707.65
549.081	55672.84
549.28	55322.63
549.48	55875.58
549.68	55482.37
549.88	56125.44
550.08	55203.85
550.28	55810.05
550.48	55386.12
550.68	55728.13
550.88	55148.56
551.08	55388.17
551.279	55521.29
551.479	55314.44
551.679	55375.88
551.879	55347.21
552.079	55617.54
552.278	55513.09
552.478	55562.25
552.678	55678.98
552.878	55939.07
553.077	55465.99
553.277	54636.56
553.477	56037.37
553.676	54994.96
553.876	55207.95
554.076	55013.39
554.275	54775.83
554.475	54466.58
554.674	55232.52
554.874	55040.01
555.074	54904.85
555.273	55138.32
555.473	55371.78
555.672	54822.93
555.872	54571.03
556.071	54913.04
556.271	54622.23
556.47	54315.03
556.67	54278.17
556.869	54329.37
557.068	54867.98
557.268	54046.75
557.467	54556.69
557.667	54384.66
557.866	54302.74
558.065	54487.06
558.265	53860.38
558.464	54163.48
558.663	54581.27
558.863	54095.9
559.062	54345.75
559.261	53792.8
559.461	54163.48
559.66	53196.84
559.859	53852.19
560.058	53489.7
560.258	54071.32
560.457	52858.93
560.656	53825.57
560.855	53506.08
561.054	53700.64
561.253	53321.77
561.453	53223.47
561.652	53338.15
561.851	53545
562.05	52844.59
562.249	52803.63
562.448	53428.26
562.647	52901.93
562.846	52873.26
563.045	52676.66
563.244	52521.01
563.443	53039.15
563.642	52328.5
563.841	52287.54
564.04	52181.05
564.239	53008.43
564.438	52426.81
564.637	52009.02
564.836	52211.77
565.035	52052.03
565.234	51986.49
565.432	51591.23
565.631	51818.56
565.83	51679.3
566.029	51468.36
566.228	51839.04
566.427	51568.71
566.625	50970.7
566.824	50942.03
567.023	51390.53
567.222	50612.31
567.42	51535.94
567.619	51017.8
567.818	50532.43
568.016	50651.22
568.215	51109.96
568.414	50731.09
568.612	50665.55
568.811	50075.74
569.01	50622.54
569.208	49877.08
569.407	50415.7
569.605	49526.88
569.804	50563.15
570.002	49440.87
570.201	49977.43
570.4	49199.21
570.598	49193.06
570.797	49395.81
570.995	49963.1
571.193	48885.87
571.392	49344.61
571.59	49031.27
571.789	48896.11
571.987	48822.38
572.186	48621.68
572.384	48382.07
572.582	48851.05
572.781	48623.73
572.979	47863.93
573.177	48152.69
573.376	48463.99
573.574	48281.72
573.772	48404.59
573.971	47702.14
574.169	47642.75
574.367	47360.13
574.565	47739
574.763	47315.08
574.962	47437.95
575.16	47095.94
575.358	47110.28
575.556	46819.47
575.754	47779.96
575.952	46647.44
576.151	47386.75
576.349	46114.97
576.547	46624.91
576.745	46416.02
576.943	46829.71
577.141	46141.59
577.339	46315.67
577.537	45775
577.735	46045.33
577.933	45842.59
578.131	45869.21
578.329	45238.44
578.527	45383.84
578.725	45490.34
578.923	45611.17
579.121	45174.95
579.319	44935.34
579.516	45424.8
579.714	45129.89
579.912	44830.89
580.11	44744.87
580.308	44820.65
580.506	44476.59
580.704	43892.92
580.901	44370.1
581.099	44232.88
581.297	44204.21
581.495	43978.93
581.692	44282.03
581.89	43653.31
582.088	44169.4
582.285	43507.9
582.483	43819.19
582.681	43499.71
582.878	43000.01
583.076	42975.43
583.274	43026.63
583.471	42713.29
583.669	43198.66
583.866	42782.92
584.064	42782.92
584.262	42363.09
584.459	42746.06
584.657	42186.96
584.854	42461.39
585.052	41662.68
585.249	42014.93
585.447	42449.1
585.644	41851.09
585.841	41652.44
586.039	42326.22
586.236	41404.64
586.434	41713.88
586.631	41150.69
586.828	41060.58
587.026	41386.21
587.223	41150.69
587.42	40726.76
587.618	40720.62
587.815	40483.05
588.012	40251.63
588.21	40288.49
588.407	40626.41
588.604	39930.1
588.801	40050.93
588.999	40130.8
589.196	39946.48
589.393	39878.9
589.59	40007.92
589.787	39495.93
589.984	39317.76
590.182	39233.79
590.379	39338.24
590.576	39090.43
590.773	39323.9
590.97	38902.02
591.167	38975.75
591.364	38633.74
591.561	38703.37
591.758	38164.75
591.955	38265.1
592.152	38686.98
592.349	38062.35
592.546	38314.25
592.743	38021.39
592.94	37533.98
593.137	37873.94
593.334	38195.47
593.531	37316.89
593.727	37933.33
593.924	37468.44
594.121	37525.78
594.318	37593.37
594.515	36612.39
594.712	37513.5
594.908	36632.87
595.105	37089.57
595.302	36479.27
595.499	36632.87
595.696	36446.51
595.892	36243.76
596.089	36413.74
596.286	36299.05
596.482	36391.21
596.679	36092.21
596.876	35983.66
597.072	35625.27
597.269	35561.78
597.466	35453.24
597.662	35418.42
597.859	35365.18
598.055	35526.97
598.252	35055.93
598.448	35219.77
598.645	34949.44
598.841	34820.42
599.038	34664.77
599.234	35012.93
599.431	34156.88
599.627	34124.11
599.824	34566.47
600.02	34160.97
600.217	34355.53
600.413	33794.39
600.609	33728.85
600.806	33720.66
601.002	33866.06
601.198	33839.44
601.395	33306.97
601.591	33573.21
601.787	33376.6
601.984	33157.47
602.18	33642.84
602.376	32985.44
602.572	32913.76
602.769	32964.96
602.965	32788.83
603.161	32778.59
603.357	32457.06
603.553	32528.74
603.75	32233.83
603.946	32088.43
604.142	32655.72
604.338	31928.69
604.534	32131.44
604.73	31768.94
604.926	31785.33
605.122	31975.79
605.318	31551.86
605.514	31242.62
605.71	31318.39
605.906	31259
606.102	31289.72
606.298	31535.48
606.494	31127.93
606.69	31154.55
606.886	31246.71
607.082	30400.9
607.278	31109.5
607.474	30429.57
607.67	30771.58
607.866	30212.49
608.062	30716.29
608.257	30316.93
608.453	30523.78
608.649	30708.1
608.845	30019.98
609.041	30103.95
609.236	30275.98
609.432	30210.44
609.628	30077.32
609.824	29970.83
610.019	29708.69
610.215	30120.33
610.411	29878.67
610.606	29684.11
610.802	29716.88
610.998	29307.29
611.193	29200.79
611.389	29440.4
611.584	29610.39
611.78	29127.06
611.976	29299.09
612.171	29467.03
612.367	29110.68
612.562	29096.35
612.758	28805.53
612.953	29108.63
613.149	29020.57
613.344	28236.2
613.539	29155.74
613.735	28971.42
613.93	28840.35
614.126	28623.26
614.321	28946.84
614.517	28672.42
614.712	28725.66
614.907	28316.07
615.103	28484
615.298	28400.04
615.493	28656.03
615.688	28017.07
615.884	28563.87
616.079	27759.02
616.274	28361.12
616.47	27857.32
616.665	28164.52
616.86	27713.97
617.055	27355.57
617.25	27584.94
617.445	27984.3
617.641	27599.28
617.836	27802.03
618.031	27101.62
618.226	27527.6
618.421	27185.59
618.616	27589.04
618.811	27140.54
619.006	27425.2
619.201	26773.95
619.396	27156.92
619.591	26454.47
619.786	26687.93
619.981	26048.97
620.176	26835.39
620.371	26114.5
620.566	26526.14
620.761	26028.49
620.956	26272.2
621.151	25690.57
621.346	26089.93
621.541	25328.08
621.735	25840.08
621.93	25278.93
622.125	25547.22
622.32	25047.51
622.515	25020.89
622.709	24869.34
622.904	24459.74
623.099	24801.75
623.294	24582.62
623.488	24457.7
623.683	24646.11
623.878	24072.68
624.072	24097.25
624.267	24218.08
624.462	24103.4
624.656	23749.1
624.851	23847.4
625.046	23411.18
625.24	23235.06
625.435	23155.19
625.629	23362.03
625.824	23077.37
626.018	22901.24
626.213	22440.45
626.407	22458.88
626.602	22256.13
626.796	22350.34
626.991	22477.31
627.185	22102.53
627.38	22067.72
627.574	21803.53
627.768	21428.75
627.963	21588.49
628.157	21170.71
628.352	21690.89
628.546	21373.46
628.74	21457.42
628.935	21178.9
629.129	21412.37
629.323	20849.18
629.517	20836.89
629.712	20759.06
629.906	20560.41
630.1	20202.02
630.294	20369.95
630.489	20285.98
630.683	20367.9
630.877	19796.52
631.071	19671.59
631.265	19909.16
631.459	19759.66
631.653	19747.37
631.848	19345.97
632.042	19202.61
632.236	19362.35
632.43	19241.52
632.624	19323.44
632.818	19245.62
633.012	19067.44
633.206	18494.01
633.4	18676.28
633.594	18745.91
633.788	18582.07
633.982	18639.42
634.176	18317.89
634.369	18276.93
634.563	18205.25
634.757	17949.25
634.951	18072.13
635.145	17887.81
635.339	17867.33
635.533	17785.41
635.726	17246.8
635.92	17441.36
636.114	17480.27
636.308	17527.37
636.501	17424.97
636.695	17388.11
636.889	17015.38
637.083	16892.5
637.276	16831.06
637.47	16867.92
637.664	16706.13
637.857	16806.48
638.051	16747.09
638.244	16478.81
638.438	16450.14
638.632	16204.38
638.825	16218.72
639.019	16104.03
639.212	16116.32
639.406	16116.32
639.599	15749.73
639.793	15841.89
639.986	15598.18
640.18	15639.14
640.373	15784.55
640.567	15241.84
640.76	15643.24
640.954	15305.32
641.147	15075.95
641.34	15030.9
641.534	15053.42
641.727	15075.95
641.92	14883.44
642.114	14785.14
642.307	14961.27
642.5	14465.66
642.694	14551.67
642.887	14434.94
643.08	14531.19
643.273	14606.97
643.467	14549.62
643.66	14350.97
643.853	13996.67
644.046	13949.57
644.239	14097.02
644.432	13822.59
644.626	13841.03
644.819	13638.28
645.012	13703.81
645.205	13775.49
645.398	13810.31
645.591	13464.2
645.784	13564.55
645.977	13318.79
646.17	13124.24
646.363	13267.59
646.556	13060.75
646.749	13003.41
646.942	13271.69
647.135	13079.18
647.328	12980.88
647.521	12690.07
647.714	12608.15
647.907	12663.44
648.099	12614.29
648.292	12634.77
648.485	12677.78
648.678	12393.11
648.871	12354.2
649.064	12262.04
649.256	12264.09
649.449	12374.68
649.642	11922.08
649.835	12010.14
650.027	12018.33
650.22	11827.87
650.413	11979.42
650.605	11844.26
650.798	11723.43
650.991	11551.4
651.183	11561.64
651.376	11635.36
651.568	11707.04
651.761	11776.67
651.954	11279.02
652.146	11303.59
652.339	11276.97
652.531	11205.29
652.724	11166.38
652.916	11145.9
653.109	11016.88
653.301	10891.95
653.494	10848.94
653.686	10748.59
653.879	11070.12
654.071	10652.34
654.263	10918.57
654.456	10517.17
654.648	10570.42
654.84	10865.33
655.033	10533.56
655.225	10539.7
655.417	10156.73
655.61	10312.38
655.802	10355.38
655.994	10130.11
656.186	10318.52
656.379	10078.91
656.571	10220.22
656.763	9890.49
656.955	9751.23
657.148	9845.44
657.34	9749.18
657.532	9857.73
657.724	9677.51
657.916	9697.99
658.108	9665.22
658.3	9497.28
658.492	9538.24
658.684	9472.71
658.876	9341.64
659.068	9441.99
659.26	9321.16
659.452	9151.18
659.644	9407.17
659.836	9169.61
660.028	9263.82
660.22	8835.79
660.412	9077.45
660.604	8848.08
660.796	9026.25
660.988	8944.33
661.18	8858.32
661.372	8850.13
661.563	8762.06
661.755	8870.61
661.947	8803.02
662.139	8788.69
662.331	8544.98
662.522	8473.3
662.714	8600.27
662.906	8458.96
663.097	8420.05
663.289	8389.33
663.481	8348.37
663.673	8391.38
663.864	8098.52
664.056	8262.36
664.247	8239.83
664.439	8182.49
664.631	8225.5
664.822	8110.81
665.014	7934.68
665.205	8018.65
665.397	7924.44
665.588	7799.52
665.78	7779.04
665.971	7840.48
666.163	7916.25
666.354	7787.23
666.546	7697.12
666.737	7686.88
666.929	7598.82
667.12	7619.3
667.311	7641.82
667.503	7652.06
667.694	7490.28
667.885	7377.64
668.077	7359.21
668.268	7301.86
668.459	7467.75
668.651	7375.59
668.842	7232.23
669.033	7291.62
669.224	7103.21
669.416	7207.66
669.607	7002.86
669.798	7056.11
669.989	7189.22
670.18	7154.41
670.371	6859.5
670.563	6892.27
670.754	6900.46
670.945	7043.82
671.136	6912.75
671.327	7011.05
671.518	6775.53
671.709	6730.48
671.9	6992.62
672.091	6791.92
672.282	6796.01
672.473	6517.49
672.664	6800.11
672.855	6593.26
673.046	6636.27
673.237	6564.59
673.428	6564.59
673.619	6691.57
673.809	6445.81
674	6378.23
674.191	6464.24
674.382	6245.11
674.573	6531.83
674.764	6331.12
674.954	6462.19
675.145	6382.32
675.336	6427.38
675.527	6384.37
675.717	6429.43
675.908	6249.21
676.099	6259.45
676.289	6267.64
676.48	6179.58
676.671	6030.07
676.861	6124.28
677.052	5968.63
677.243	6085.37
677.433	6021.88
677.624	6081.27
677.814	6009.59
678.005	6050.55
678.195	5864.19
678.386	5782.27
678.576	5956.35
678.767	5878.52
678.957	5872.38
679.148	5942.01
679.338	5636.86
679.529	5792.51
679.719	5714.69
679.909	5931.77
680.1	5802.75
680.29	5722.88
680.481	5653.25
680.671	5849.85
680.861	5655.3
681.052	5729.02
681.242	5559.04
681.432	5690.11
681.622	5602.05
681.813	5581.57
682.003	5653.25
682.193	5372.68
682.383	5495.55
682.573	5550.85
682.764	5520.13
682.954	5681.92
683.144	5550.85
683.334	5460.74
683.524	5274.37
683.714	5616.38
683.904	5360.39
684.094	5563.14
684.284	5423.87
684.474	5436.16
684.664	5434.11
684.854	5376.77
685.044	5255.94
685.234	5298.95
685.424	5198.6
685.614	5145.35
685.804	5296.9
685.994	5278.47
686.184	5257.99
686.374	5188.36
686.564	5210.89
686.753	5124.87
686.943	5051.14
687.133	5069.58
687.323	5030.66
687.513	5073.67
687.702	4944.65
687.892	4936.46
688.082	4963.08
688.272	4958.99
688.461	4956.94
688.651	4956.94
688.841	4686.61
689.03	4969.23
689.22	4748.04
689.41	4862.73
689.599	4621.07
689.789	4702.99
689.979	4807.44
690.168	4729.61
690.358	4780.81
690.547	4594.45
690.737	4686.61
690.926	4682.51
691.116	4610.83
691.305	4875.02
691.495	4502.29
691.684	4438.8
691.874	4569.87
692.063	4510.48
692.252	4446.99
692.442	4434.71
692.631	4422.42
692.82	4408.08
693.01	4332.31
693.199	4535.06
693.388	4326.16
693.578	4285.2
693.767	4274.96
693.956	4340.5
694.146	4307.73
694.335	4336.4
694.524	4127.51
694.713	4279.06
694.902	4340.5
695.092	4188.95
695.281	4205.33
695.47	4123.41
695.659	4244.24
695.848	4090.65
696.037	4076.31
696.226	4008.73
696.415	4018.97
696.604	4274.96
696.793	3973.91
696.982	4014.87
697.171	4082.46
697.36	4059.93
697.549	4047.64
697.738	3949.34
697.927	4043.54
698.116	4029.21
698.305	3965.72
698.494	4082.46
698.683	4016.92
698.872	4043.54
699.061	3978.01
699.25	3971.86
699.438	3980.06
699.627	3953.43
699.816	3894.04
700.005	3853.08
700.193	3842.84
700.382	3930.91
700.571	3867.42
700.76	3836.7
700.948	4104.98
701.137	3879.71
701.326	3828.51
701.514	3840.79
701.703	3744.54
701.892	3832.6
702.08	3937.05
702.269	3668.77
702.457	3709.72
702.646	3748.64
702.834	3701.53
703.023	3732.25
703.212	3642.14
703.4	3687.2
703.589	3785.5
703.777	3736.35
703.965	3605.28
704.154	3683.1
704.342	3709.72
704.531	3685.15
704.719	3597.09
704.907	3681.05
705.096	3533.6
705.284	3592.99
705.472	3633.95
705.661	3601.18
705.849	3613.47
706.037	3496.74
706.226	3504.93
706.414	3586.85
706.602	3597.09
706.79	3519.26
706.979	3427.11
707.167	3668.77
707.355	3480.35
707.543	3451.68
707.731	3570.46
707.919	3504.93
708.107	3498.78
708.296	3371.81
708.484	3441.44
708.672	3371.81
708.86	3549.98
709.048	3476.26
709.236	3439.39
709.424	3459.87
709.612	3459.87
709.8	3302.18
709.988	3390.24
710.176	3332.9
710.364	3394.34
710.551	3494.69
710.739	3396.39
710.927	3449.63
711.115	3388.19
711.303	3398.43
711.491	3322.66
711.679	3275.56
711.866	3365.67
712.054	3349.28
712.242	3222.31
712.43	3314.47
712.617	3371.81
712.805	3414.82
712.993	3238.69
713.181	3324.71
713.368	3232.55
713.556	3336.99
713.744	3269.41
713.931	3314.47
714.119	3220.26
714.306	3181.35
714.494	3181.35
714.682	3095.33
714.869	3228.45
715.057	3205.92
715.244	3212.07
715.432	3101.48
715.619	3111.72
715.807	3089.19
715.994	3156.77
716.182	3103.53
716.369	3162.92
716.556	3078.95
716.744	3081
716.931	3083.05
717.119	3191.59
717.306	3160.87
717.493	3132.2
717.681	3144.49
717.868	3115.81
718.055	3169.06
718.242	3031.85
718.43	3050.28
718.617	3083.05
718.804	2970.41
718.991	3078.95
719.179	2968.36
719.366	2876.2
719.553	3140.39
719.74	3040.04
719.927	2964.26
720.114	2958.12
720.301	2962.22
720.488	2913.06
720.676	2949.93
720.863	2966.31
721.05	3009.32
721.237	2915.11
721.424	2941.74
721.611	2968.36
721.798	2839.34
721.985	2874.15
722.172	2825
722.358	2874.15
722.545	2892.59
722.732	3003.18
722.919	2974.5
723.106	3017.51
723.293	2831.15
723.48	2761.52
723.667	2835.24
723.853	2843.43
724.04	2915.11
724.227	3015.46
724.414	2810.67
724.6	2812.71
724.787	2882.35
724.974	2835.24
725.161	2763.56
725.347	2818.86
725.534	2921.26
725.72	2868.01
725.907	2695.98
726.094	2812.71
726.28	2857.77
726.467	2908.97
726.653	2902.83
726.84	2792.23
727.027	2736.94
727.213	2655.02
727.4	2765.61
727.586	2853.67
727.773	2693.93
727.959	2810.67
728.145	2781.99
728.332	2753.32
728.518	2773.8
728.705	2757.42
728.891	2720.56
729.077	2683.69
729.264	2698.03
729.45	2659.12
729.636	2720.56
729.823	2706.22
730.009	2689.84
730.195	2759.47
730.382	2695.98
730.568	2650.92
730.754	2675.5
730.94	2757.42
731.126	2683.69
731.313	2640.69
731.499	2636.59
731.685	2685.74
731.871	2734.89
732.057	2673.45
732.243	2612.01
732.429	2575.15
732.615	2587.44
732.801	2648.88
732.987	2706.22
733.173	2616.11
733.359	2519.85
733.545	2599.73
733.731	2659.12
733.917	2569.01
734.103	2597.68
734.289	2597.68
734.475	2560.81
734.661	2482.99
734.847	2624.3
735.033	2503.47
735.219	2579.25
735.404	2464.56
735.59	2482.99
735.776	2460.46
735.962	2622.25
736.148	2515.76
736.333	2523.95
736.519	2382.64
736.705	2468.66
736.89	2386.74
737.076	2562.86
737.262	2263.86
737.447	2476.85
737.633	2446.13
737.819	2380.59
738.004	2382.64
738.19	2452.27
738.375	2446.13
738.561	2444.08
738.747	2478.9
738.932	2425.65
739.118	2405.17
739.303	2374.45
739.489	2382.64
739.674	2374.45
739.859	2431.79
740.045	2394.93
740.23	2331.44
740.416	2310.96
740.601	2308.91
740.786	2298.67
740.972	2251.57
741.157	2337.59
741.342	2208.56
741.528	2337.59
741.713	2183.99
741.898	2290.48
742.084	2159.41
742.269	2171.7
742.454	2155.32
742.639	2282.29
742.824	2126.64
743.01	2190.13
743.195	2231.09
743.38	2163.51
743.565	2126.64
743.75	2173.75
743.935	2071.35
744.12	2224.95
744.305	2030.39
744.49	2095.93
744.675	2171.7
744.86	2128.69
745.045	2077.49
745.23	2120.5
745.415	2124.6
745.6	2112.31
745.785	2036.53
745.97	2128.69
746.155	2173.75
746.34	2026.29
746.525	2108.21
746.71	2042.68
746.895	2030.39
747.079	1989.43
747.264	2001.72
747.449	2032.44
747.634	1956.66
747.819	1930.04
748.003	1905.46
748.188	1848.12
748.373	1835.83
748.557	1887.03
748.742	1930.04
748.927	1964.86
749.111	1862.46
749.296	1755.96
749.481	1907.51
749.665	1829.69
749.85	1762.11
750.034	1801.02
750.219	1835.83
750.404	1786.68
750.588	1661.76
750.773	1725.24
750.957	1753.91
751.141	1702.72
751.326	1749.82
751.51	1628.99
751.695	1712.96
751.879	1792.83
752.064	1676.09
752.248	1583.93
752.432	1696.57
752.617	1655.61
752.801	1631.04
752.985	1594.17
753.17	1592.13
753.354	1585.98
753.538	1600.32
753.722	1491.77
753.907	1516.35
754.091	1579.84
754.275	1579.84
754.459	1469.25
754.643	1430.34
754.828	1528.64
755.012	1602.36
755.196	1454.91
755.38	1497.92
755.564	1479.49
755.748	1459.01
755.932	1526.59
756.116	1491.77
756.3	1432.38
756.484	1399.62
756.668	1430.34
756.852	1321.79
757.036	1389.38
757.22	1366.85
757.404	1329.99
757.588	1342.27
757.772	1387.33
757.956	1319.75
758.14	1360.7
758.323	1395.52
758.507	1391.42
758.691	1207.11
758.875	1237.83
759.059	1393.47
759.242	1264.45
759.426	1217.35
759.61	1192.77
759.794	1192.77
759.977	1235.78
760.161	1295.17
760.345	1282.88
760.528	1182.53
760.712	1225.54
760.895	1243.97
761.079	1211.2
761.263	1162.05
761.446	1200.96
761.63	1137.48
761.813	1106.76
761.997	1203.01
762.18	1104.71
762.364	1172.29
762.547	1100.61
762.731	1213.25
762.914	1178.44
763.098	1094.47
763.281	1082.18
763.464	1043.27
763.648	1190.72
763.831	1069.89
764.015	1078.08
764.198	1043.27
764.381	1090.37
764.564	1073.99
764.748	1004.36
764.931	1053.51
765.114	1067.85
765.297	1043.27
765.481	944.97
765.664	1014.6
765.847	1014.6
766.03	1028.93
766.213	1045.32
766.397	1061.7
766.58	1010.5
766.763	881.48
766.946	965.45
767.129	934.73
767.312	1076.04
767.495	951.11
767.678	936.78
767.861	973.64
768.044	1086.28
768.227	975.69
768.41	977.73
768.593	1016.65
768.776	916.3
768.959	895.82
769.142	965.45
769.324	901.96
769.507	969.54
769.69	928.58
769.873	871.24
770.056	1014.6
770.239	844.62
770.421	930.63
770.604	965.45
770.787	850.76
770.97	969.54
771.152	899.91
771.335	901.96
771.518	904.01
771.7	944.97
771.883	885.58
772.066	840.52
772.248	908.1
772.431	949.06
772.613	836.42
772.796	848.71
772.978	785.23
773.161	795.47
773.343	863.05
773.526	772.94
773.708	799.56
773.891	772.94
774.073	875.34
774.256	824.14
774.438	861
774.621	791.37
774.803	918.34
774.985	777.03
775.168	783.18
775.35	750.41
775.532	799.56
775.715	772.94
775.897	797.51
776.079	715.59
776.261	750.41
776.444	815.94
776.626	713.55
776.808	742.22
776.99	723.79
777.173	766.79
777.355	719.69
777.537	701.26
777.719	764.75
777.901	668.49
778.083	719.69
778.265	633.68
778.447	631.63
778.629	750.41
778.811	723.79
778.993	645.96
779.175	656.2
779.357	668.49
779.539	701.26
779.721	686.92
779.903	713.55
780.085	680.78
780.267	623.44
780.449	617.29
780.631	684.87
780.812	643.92
780.994	605
781.176	510.8
781.358	602.96
781.54	578.38
781.721	568.14
781.903	594.76
782.085	508.75
782.267	537.42
782.448	617.29
782.63	582.48
782.812	547.66
782.993	645.96
783.175	523.09
783.357	568.14
783.538	523.09
783.72	453.45
783.901	537.42
784.083	492.37
784.264	535.37
784.446	564.04
784.627	527.18
784.809	537.42
784.99	555.85
785.172	506.7
785.353	506.7
785.535	478.03
785.716	498.51
785.897	502.61
786.079	478.03
786.26	453.45
786.441	568.14
786.623	451.41
786.804	465.74
786.985	488.27
787.167	439.12
787.348	443.21
787.529	410.45
787.71	484.17
787.891	369.49
788.073	414.54
788.254	453.45
788.435	498.51
788.616	473.93
788.797	412.5
788.978	443.21
789.159	365.39
789.34	426.83
789.522	445.26
789.703	432.97
789.884	410.45
790.065	449.36
790.246	432.97
790.427	398.16
790.607	389.97
790.788	363.34
790.969	406.35
791.15	445.26
791.331	310.1
791.512	316.24
791.693	367.44
791.874	361.3
792.054	412.5
792.235	314.19
792.416	361.3
792.597	420.69
792.778	336.72
792.958	369.49
793.139	408.4
793.32	367.44
793.5	250.71
793.681	494.41
793.862	344.91
794.042	377.68
794.223	316.24
794.404	371.54
794.584	308.05
794.765	326.48
794.945	287.57
795.126	250.71
795.306	287.57
795.487	289.62
795.667	346.96
795.848	332.62
796.028	301.9
796.209	275.28
796.389	363.34
796.57	306
796.75	332.62
796.93	310.1
797.111	318.29
797.291	355.15
797.471	301.9
797.652	402.26
797.832	318.29
798.012	334.67
798.192	310.1
798.373	258.9
798.553	277.33
798.733	269.14
798.913	385.87
799.093	299.86
799.274	262.99
799.454	275.28
799.634	213.84
799.814	240.47
799.994	328.53
800.174	234.32
800.354	258.9
800.534	306
800.714	258.9
800.894	250.71
801.074	158.55
801.254	224.08
801.434	273.23
801.614	232.27
801.794	174.93
801.974	598.86
802.154	297.81
802.334	301.9
802.514	224.08
802.693	213.84
802.873	265.04
803.053	308.05
803.233	203.6
803.413	215.89
803.592	136.02
803.772	256.85
803.952	271.19
804.131	262.99
804.311	207.7
804.491	246.61
804.67	256.85
804.85	205.65
805.03	193.36
805.209	168.79
805.389	224.08
805.568	230.23
805.748	203.6
805.928	189.27
806.107	285.52
806.287	230.23
806.466	164.69
806.646	224.08
806.825	187.22
807.004	187.22
807.184	271.19
807.363	168.79
807.543	136.02
807.722	258.9
807.901	228.18
808.081	224.08
808.26	254.8
808.439	199.51
808.619	234.32
808.798	197.46
808.977	217.94
809.156	215.89
809.336	176.98
809.515	330.58
809.694	203.6
809.873	267.09
810.052	236.37
810.231	267.09
810.411	267.09
810.59	201.55
810.769	107.35
810.948	240.47
811.127	136.02
811.306	209.75
811.485	129.88
811.664	174.93
811.843	172.88
812.022	205.65
812.201	152.4
812.38	162.64
812.559	129.88
812.737	248.66
812.916	142.16
813.095	183.12
813.274	197.46
813.453	187.22
813.632	209.75
813.811	205.65
813.989	215.89
814.168	127.83
814.347	215.89
814.526	99.16
814.704	152.4
814.883	172.88
815.062	179.03
815.24	164.69
815.419	195.41
815.598	156.5
815.776	88.92
815.955	88.92
816.133	117.59
816.312	129.88
816.49	111.44
816.669	131.92
816.847	168.79
817.026	187.22
817.204	174.93
817.383	164.69
817.561	99.16
817.74	158.55
817.918	111.44
818.097	176.98
818.275	156.5
818.453	179.03
818.632	172.88
818.81	172.88
818.988	172.88
819.167	152.4
819.345	138.07
819.523	129.88
819.701	174.93
819.879	189.27
820.058	160.59
820.236	222.03
820.414	105.3
820.592	150.36
820.77	115.54
820.948	131.92
821.127	191.31
821.305	129.88
821.483	131.92
821.661	142.16
821.839	60.24
822.017	138.07
822.195	191.31
822.373	105.3
822.551	148.31
822.729	181.07
822.907	125.78
823.085	162.64
823.262	72.53
823.44	162.64
823.618	115.54
823.796	131.92
823.974	105.3
824.152	162.64
824.329	76.63
824.507	230.23
824.685	117.59
824.863	107.35
825.04	76.63
825.218	154.45
825.396	156.5
825.574	123.73
825.751	115.54
825.929	146.26
826.107	88.92
826.284	168.79
826.462	66.39
826.639	129.88
826.817	78.68
826.994	140.12
827.172	86.87
827.349	160.59
827.527	156.5
827.704	140.12
827.882	95.06
828.059	125.78
828.237	127.83
828.414	33.62
828.591	105.3
828.769	97.11
828.946	76.63
829.124	37.72
829.301	195.41
829.478	90.96
829.655	19.29
829.833	129.88
830.01	29.52
830.187	76.63
830.364	27.48
830.542	144.21
830.719	123.73
830.896	43.86
831.073	52.05
831.25	95.06
831.427	154.45
831.604	58.2
831.782	52.05
831.959	82.77
832.136	68.44
832.313	115.54
832.49	52.05
832.667	111.44
832.844	52.05
833.021	105.3
833.198	105.3
833.374	129.88
833.551	105.3
833.728	117.59
833.905	158.55
834.082	80.72
834.259	70.48
834.436	119.64
834.612	64.34
834.789	115.54
834.966	95.06
835.143	54.1
835.319	158.55
835.496	43.86
835.673	93.01
835.85	43.86
836.026	82.77
836.203	78.68
836.38	127.83
836.556	25.43
836.733	99.16
836.909	119.64
837.086	78.68
837.262	29.52
837.439	39.76
837.616	136.02
837.792	50
837.968	140.12
838.145	-3.24
838.321	33.62
838.498	76.63
838.674	105.3
838.851	99.16
839.027	45.91
839.203	78.68
839.38	39.76
839.556	99.16
839.732	52.05
839.909	82.77
840.085	113.49
840.261	37.72
840.437	80.72
840.614	60.24
840.79	52.05
840.966	66.39
841.142	93.01
841.318	31.57
841.494	84.82
841.671	103.25
841.847	37.72
842.023	66.39
842.199	58.2
842.375	72.53
842.551	39.76
842.727	7
842.903	68.44
843.079	2.9
843.255	21.33
843.431	107.35
843.607	9.05
843.783	35.67
843.959	47.96
844.134	43.86
844.31	88.92
844.486	107.35
844.662	93.01
844.838	127.83
845.013	56.15
845.189	47.96
845.365	76.63
845.541	70.48
845.716	52.05
845.892	99.16
846.068	17.24
846.244	66.39
846.419	99.16
846.595	56.15
846.77	70.48
846.946	56.15
847.122	146.26
847.297	35.67
847.473	47.96
847.648	9.05
847.824	47.96
847.999	-1.19
848.175	80.72
848.35	-9.39
848.526	37.72
848.701	39.76
848.876	80.72
849.052	105.3
849.227	84.82
849.403	62.29
849.578	78.68
849.753	52.05
849.929	142.16
850.104	80.72
850.279	4.95
850.454	58.2
850.63	33.62
850.805	60.24
850.98	29.52
851.155	7
851.33	56.15
851.505	93.01
851.681	-1.19
851.856	-5.29
852.031	62.29
852.206	33.62
852.381	90.96
852.556	78.68
852.731	41.81
852.906	64.34
853.081	58.2
853.256	66.39
853.431	-7.34
853.606	21.33
853.781	58.2
853.956	9.05
854.131	101.2
854.305	4.95
854.48	43.86
854.655	101.2
854.83	11.09
855.005	72.53
855.18	78.68
855.354	21.33
855.529	88.92
855.704	-19.63
855.879	76.63
856.053	74.58
856.228	72.53
856.403	54.1
856.577	68.44
856.752	60.24
856.926	2.9
857.101	68.44
857.276	27.48
857.45	19.29
857.625	25.43
857.799	72.53
857.974	33.62
858.148	45.91
858.323	60.24
858.497	101.2
858.672	-46.25
858.846	31.57
859.02	52.05
859.195	62.29
859.369	7
859.543	93.01
859.718	29.52
859.892	101.2
860.066	121.68
860.241	29.52
860.415	33.62
860.589	-3.24
860.763	78.68
860.938	-25.77
861.112	52.05
861.286	-17.58
861.46	70.48
861.634	27.48
861.808	23.38
861.982	-3.24
862.157	-23.72
862.331	-42.15
862.505	35.67
862.679	-21.67
862.853	-5.29
863.027	-9.39
863.201	66.39
863.375	58.2
863.549	25.43
863.722	9.05
863.896	52.05
864.07	-5.29
864.244	56.15
864.418	80.72
864.592	50
864.766	39.76
864.939	37.72
865.113	9.05
865.287	23.38
865.461	-9.39
865.634	25.43
865.808	-31.91
865.982	41.81
866.156	54.1
866.329	-46.25
866.503	56.15
866.676	4.95
866.85	4.95
867.024	19.29
867.197	37.72
867.371	23.38
867.544	-29.87
867.718	-9.39
867.891	-21.67
868.065	43.86
868.238	-25.77
868.412	47.96
868.585	-11.43
868.759	86.87
868.932	52.05
869.105	-52.39
869.279	-3.24
869.452	103.25
869.625	37.72
869.799	-13.48
869.972	21.33
870.145	15.19
870.319	7
870.492	70.48
870.665	-62.63
870.838	19.29
871.011	-56.49
871.185	88.92
871.358	74.58
871.531	68.44
871.704	25.43
871.877	33.62
872.05	2.9
872.223	25.43
872.396	2.9
872.569	-17.58
872.742	-1.19
872.915	95.06
873.088	-36.01
873.261	84.82
873.434	29.52
873.607	33.62
873.78	9.05
873.953	99.16
874.126	66.39
874.299	-9.39
874.471	-23.72
874.644	97.11
874.817	60.24
874.99	62.29
875.163	86.87
875.335	25.43
875.508	17.24
875.681	105.3
875.853	-62.63
876.026	35.67
876.199	15.19
876.371	68.44
876.544	29.52
876.717	0.85
876.889	13.14
877.062	82.77
877.234	-38.06
877.407	52.05
877.579	43.86
877.752	54.1
877.924	-17.58
878.097	97.11
878.269	-1.19
878.442	88.92
878.614	19.29
878.786	13.14
878.959	-31.91
879.131	-52.39
879.303	-36.01
879.476	15.19
879.648	17.24
879.82	0.85
879.993	17.24
880.165	-31.91
880.337	62.29
880.509	33.62
880.681	-60.59
880.854	11.09
881.026	-13.48
881.198	-15.53
881.37	60.24
881.542	62.29
881.714	33.62
881.886	35.67
882.058	31.57
882.23	21.33
882.402	-3.24
882.574	-38.06
882.746	39.76
882.918	43.86
883.09	74.58
883.262	0.85
883.434	97.11
883.606	-89.26
883.778	29.52
883.95	66.39
884.122	-23.72
884.293	21.33
884.465	99.16
884.637	43.86
884.809	72.53
884.98	-48.3
885.152	72.53
885.324	25.43
885.496	35.67
885.667	45.91
885.839	11.09
886.011	35.67
886.182	15.19
886.354	76.63
886.525	39.76
886.697	4.95
886.869	-19.63
887.04	-11.43
887.212	7
887.383	2.9
887.555	27.48
887.726	45.91
887.897	45.91
888.069	17.24
888.24	82.77
888.412	52.05
888.583	-13.48
888.754	-25.77
888.926	-9.39
889.097	17.24
889.268	80.72
889.44	84.82
889.611	-1.19
889.782	-3.24
889.953	-15.53
890.125	-23.72
890.296	39.76
890.467	15.19
890.638	23.38
890.809	45.91
890.98	0.85
891.151	25.43
891.323	50
891.494	11.09
891.665	52.05
891.836	25.43
892.007	11.09
892.178	0.85
892.349	60.24
892.52	-19.63
892.691	15.19
892.862	21.33
893.032	-1.19
893.203	-1.19
893.374	0.85
893.545	27.48
893.716	-40.11
893.887	95.06
894.057	43.86
894.228	47.96
894.399	35.67
894.57	39.76
894.74	-1.19
894.911	13.14
895.082	9.05
895.253	31.57
895.423	-3.24
895.594	107.35
895.764	70.48
895.935	39.76
896.106	37.72
896.276	88.92
896.447	21.33
896.617	-54.44
896.788	-48.3
896.958	27.48
897.129	-15.53
897.299	7
897.47	25.43
897.64	-83.11
897.81	-36.01
897.981	-21.67
898.151	-42.15
898.322	52.05
898.492	17.24
898.662	37.72
898.832	-13.48
899.003	-5.29
899.173	11.09
899.343	66.39
899.513	25.43
