Data from USB4F104151__89__12-37-06-512.txt Node

Date: Fri Mar 14 12:37:06 EDT 2025
User: louis
Spectrometer: USB4F10415
Trigger mode: 4
Integration Time (sec): 2.000000E-2
Scans to average: 1
Electric dark correction enabled: true
Nonlinearity correction enabled: false
Boxcar width: 0
XAxis mode: Wavelengths
Number of Pixels in Spectrum: 3648
>>>>>Begin Spectral Data<<<<<
178.204	-94.72
178.424	-94.72
178.644	-94.72
178.864	-76.29
179.084	-100.86
179.304	-14.85
179.524	-53.76
179.744	9.73
179.964	30.21
180.184	7.68
180.404	1.54
180.624	24.06
180.844	-14.85
181.064	15.87
181.283	19.97
181.503	-47.62
181.723	22.02
181.943	-12.8
182.163	75.26
182.383	40.45
182.602	26.11
182.822	75.26
183.042	75.26
183.262	17.92
183.482	3.58
183.701	-16.9
183.921	36.35
184.141	-49.66
184.361	19.97
184.58	83.45
184.8	50.69
185.02	26.11
185.239	17.92
185.459	38.4
185.679	99.84
185.898	42.5
186.118	81.41
186.338	19.97
186.557	73.21
186.777	38.4
186.997	71.17
187.216	15.87
187.436	69.12
187.655	75.26
187.875	17.92
188.095	56.83
188.314	95.74
188.534	67.07
188.753	52.74
188.973	22.02
189.192	71.17
189.412	50.69
189.631	85.5
189.851	28.16
190.07	36.35
190.29	13.82
190.509	-31.23
190.729	24.06
190.948	65.02
191.168	7.68
191.387	52.74
191.607	73.21
191.826	5.63
192.045	32.26
192.265	73.21
192.484	-8.7
192.704	71.17
192.923	-59.9
193.142	52.74
193.362	81.41
193.581	-18.94
193.8	65.02
194.02	34.3
194.239	11.78
194.458	36.35
194.678	5.63
194.897	1.54
195.116	5.63
195.335	69.12
195.555	-4.61
195.774	44.54
195.993	52.74
196.212	73.21
196.432	-2.56
196.651	3.58
196.87	1.54
197.089	42.5
197.308	83.45
197.528	30.21
197.747	-8.7
197.966	71.17
198.185	44.54
198.404	-33.28
198.623	1.54
198.842	19.97
199.062	52.74
199.281	75.26
199.5	34.3
199.719	79.36
199.938	65.02
200.157	38.4
200.376	34.3
200.595	116.22
200.814	28.16
201.033	-31.23
201.252	30.21
201.471	36.35
201.69	32.26
201.909	95.74
202.128	24.06
202.347	17.92
202.566	19.97
202.785	15.87
203.004	-8.7
203.223	67.07
203.442	-2.56
203.661	-20.99
203.879	50.69
204.098	58.88
204.317	1.54
204.536	56.83
204.755	122.37
204.974	28.16
205.193	28.16
205.411	108.03
205.63	-10.75
205.849	32.26
206.068	28.16
206.287	15.87
206.505	50.69
206.724	105.98
206.943	44.54
207.162	38.4
207.381	13.82
207.599	40.45
207.818	-0.51
208.037	60.93
208.255	40.45
208.474	56.83
208.693	24.06
208.911	-14.85
209.13	36.35
209.349	103.93
209.567	13.82
209.786	44.54
210.005	73.21
210.223	22.02
210.442	15.87
210.661	58.88
210.879	-0.51
211.098	56.83
211.316	50.69
211.535	48.64
211.753	9.73
211.972	44.54
212.191	-14.85
212.409	-27.14
212.628	-45.57
212.846	38.4
213.065	50.69
213.283	46.59
213.502	50.69
213.72	50.69
213.938	36.35
214.157	46.59
214.375	15.87
214.594	40.45
214.812	69.12
215.031	38.4
215.249	85.5
215.467	42.5
215.686	3.58
215.904	101.89
216.122	-6.66
216.341	108.03
216.559	24.06
216.778	73.21
216.996	122.37
217.214	30.21
217.432	44.54
217.651	11.78
217.869	56.83
218.087	44.54
218.306	67.07
218.524	-0.51
218.742	13.82
218.96	34.3
219.179	-25.09
219.397	42.5
219.615	73.21
219.833	71.17
220.051	-14.85
220.27	46.59
220.488	28.16
220.706	38.4
220.924	62.98
221.142	69.12
221.36	26.11
221.578	-10.75
221.796	34.3
222.015	105.98
222.233	93.69
222.451	99.84
222.669	17.92
222.887	26.11
223.105	62.98
223.323	52.74
223.541	46.59
223.759	3.58
223.977	73.21
224.195	62.98
224.413	17.92
224.631	17.92
224.849	87.55
225.067	-12.8
225.285	7.68
225.503	26.11
225.721	-25.09
225.939	112.13
226.157	116.22
226.375	132.61
226.592	24.06
226.81	-16.9
227.028	42.5
227.246	101.89
227.464	67.07
227.682	60.93
227.9	54.78
228.117	67.07
228.335	19.97
228.553	50.69
228.771	52.74
228.989	34.3
229.206	42.5
229.424	48.64
229.642	9.73
229.86	-31.23
230.077	50.69
230.295	26.11
230.513	38.4
230.731	36.35
230.948	34.3
231.166	50.69
231.384	40.45
231.601	-12.8
231.819	46.59
232.037	50.69
232.254	54.78
232.472	24.06
232.689	-27.14
232.907	56.83
233.125	40.45
233.342	-20.99
233.56	-0.51
233.777	32.26
233.995	5.63
234.213	56.83
234.43	50.69
234.648	65.02
234.865	32.26
235.083	15.87
235.3	15.87
235.518	69.12
235.735	42.5
235.953	83.45
236.17	-10.75
236.388	13.82
236.605	40.45
236.822	15.87
237.04	34.3
237.257	36.35
237.475	-0.51
237.692	73.21
237.909	34.3
238.127	11.78
238.344	69.12
238.562	93.69
238.779	28.16
238.996	73.21
239.214	5.63
239.431	71.17
239.648	-25.09
239.865	60.93
240.083	75.26
240.3	58.88
240.517	-35.33
240.735	73.21
240.952	60.93
241.169	58.88
241.386	-41.47
241.603	44.54
241.821	-25.09
242.038	89.6
242.255	34.3
242.472	58.88
242.689	93.69
242.907	24.06
243.124	-14.85
243.341	112.13
243.558	83.45
243.775	97.79
243.992	-49.66
244.209	67.07
244.426	17.92
244.643	65.02
244.86	-33.28
245.078	77.31
245.295	46.59
245.512	-23.04
245.729	24.06
245.946	89.6
246.163	-2.56
246.38	17.92
246.597	1.54
246.814	46.59
247.031	62.98
247.248	-39.42
247.464	34.3
247.681	-35.33
247.898	11.78
248.115	52.74
248.332	5.63
248.549	95.74
248.766	50.69
248.983	48.64
249.2	62.98
249.417	89.6
249.633	24.06
249.85	56.83
250.067	-27.14
250.284	114.17
250.501	71.17
250.717	50.69
250.934	-14.85
251.151	58.88
251.368	24.06
251.585	81.41
251.801	17.92
252.018	-29.18
252.235	65.02
252.451	77.31
252.668	-49.66
252.885	114.17
253.102	17.92
253.318	91.65
253.535	30.21
253.752	65.02
253.968	24.06
254.185	22.02
254.401	50.69
254.618	73.21
254.835	9.73
255.051	95.74
255.268	69.12
255.484	42.5
255.701	83.45
255.917	60.93
256.134	32.26
256.351	108.03
256.567	7.68
256.784	50.69
257	77.31
257.217	110.08
257.433	60.93
257.65	-10.75
257.866	99.84
258.082	-35.33
258.299	48.64
258.515	60.93
258.732	-20.99
258.948	15.87
259.165	30.21
259.381	-14.85
259.597	44.54
259.814	1.54
260.03	-55.81
260.246	-2.56
260.463	-41.47
260.679	62.98
260.895	19.97
261.112	128.51
261.328	56.83
261.544	56.83
261.761	75.26
261.977	-29.18
262.193	1.54
262.409	26.11
262.626	28.16
262.842	24.06
263.058	22.02
263.274	146.94
263.49	44.54
263.707	144.89
263.923	62.98
264.139	97.79
264.355	42.5
264.571	110.08
264.787	62.98
265.004	48.64
265.22	9.73
265.436	36.35
265.652	-45.57
265.868	89.6
266.084	11.78
266.3	62.98
266.516	44.54
266.732	44.54
266.948	26.11
267.164	38.4
267.38	28.16
267.596	85.5
267.812	85.5
268.028	26.11
268.244	75.26
268.46	32.26
268.676	19.97
268.892	52.74
269.108	1.54
269.324	-27.14
269.54	56.83
269.756	46.59
269.972	32.26
270.188	22.02
270.403	46.59
270.619	22.02
270.835	5.63
271.051	22.02
271.267	60.93
271.483	62.98
271.698	99.84
271.914	7.68
272.13	40.45
272.346	50.69
272.562	-23.04
272.777	56.83
272.993	-53.76
273.209	22.02
273.425	28.16
273.64	44.54
273.856	79.36
274.072	52.74
274.287	58.88
274.503	50.69
274.719	30.21
274.934	46.59
275.15	28.16
275.366	44.54
275.581	38.4
275.797	38.4
276.012	11.78
276.228	40.45
276.444	38.4
276.659	77.31
276.875	-55.81
277.09	75.26
277.306	-31.23
277.521	15.87
277.737	-16.9
277.952	140.8
278.168	71.17
278.383	7.68
278.599	15.87
278.814	116.22
279.03	26.11
279.245	30.21
279.461	89.6
279.676	79.36
279.892	-8.7
280.107	60.93
280.322	9.73
280.538	13.82
280.753	-0.51
280.969	73.21
281.184	15.87
281.399	85.5
281.615	36.35
281.83	50.69
282.045	-0.51
282.26	15.87
282.476	56.83
282.691	99.84
282.906	52.74
283.122	24.06
283.337	-53.76
283.552	36.35
283.767	24.06
283.983	50.69
284.198	87.55
284.413	36.35
284.628	-0.51
284.843	71.17
285.058	58.88
285.274	11.78
285.489	-2.56
285.704	79.36
285.919	30.21
286.134	77.31
286.349	81.41
286.564	7.68
286.779	54.78
286.995	34.3
287.21	9.73
287.425	142.85
287.64	-47.62
287.855	77.31
288.07	-23.04
288.285	97.79
288.5	99.84
288.715	60.93
288.93	-2.56
289.145	60.93
289.36	-68.09
289.575	99.84
289.79	112.13
290.004	40.45
290.219	3.58
290.434	81.41
290.649	40.45
290.864	60.93
291.079	83.45
291.294	60.93
291.509	28.16
291.724	30.21
291.938	-14.85
292.153	52.74
292.368	56.83
292.583	22.02
292.798	89.6
293.012	26.11
293.227	34.3
293.442	28.16
293.657	79.36
293.871	-0.51
294.086	77.31
294.301	83.45
294.516	46.59
294.73	56.83
294.945	-27.14
295.16	32.26
295.374	69.12
295.589	34.3
295.804	-37.38
296.018	79.36
296.233	-29.18
296.447	97.79
296.662	40.45
296.877	30.21
297.091	85.5
297.306	83.45
297.52	-10.75
297.735	38.4
297.949	13.82
298.164	28.16
298.378	62.98
298.593	42.5
298.807	1.54
299.022	17.92
299.236	30.21
299.451	26.11
299.665	-18.94
299.88	65.02
300.094	52.74
300.309	62.98
300.523	38.4
300.737	101.89
300.952	67.07
301.166	11.78
301.381	-16.9
301.595	40.45
301.809	93.69
302.024	1.54
302.238	48.64
302.452	62.98
302.667	17.92
302.881	19.97
303.095	81.41
303.309	32.26
303.524	-16.9
303.738	48.64
303.952	30.21
304.166	69.12
304.381	-16.9
304.595	83.45
304.809	54.78
305.023	67.07
305.237	134.65
305.452	24.06
305.666	40.45
305.88	105.98
306.094	75.26
306.308	40.45
306.522	-8.7
306.736	114.17
306.95	93.69
307.164	7.68
307.379	-23.04
307.593	85.5
307.807	67.07
308.021	56.83
308.235	75.26
308.449	28.16
308.663	97.79
308.877	-35.33
309.091	-4.61
309.305	30.21
309.519	60.93
309.733	40.45
309.947	5.63
310.161	-12.8
310.374	60.93
310.588	17.92
310.802	-33.28
311.016	22.02
311.23	67.07
311.444	17.92
311.658	-2.56
311.872	56.83
312.085	99.84
312.299	62.98
312.513	77.31
312.727	34.3
312.941	9.73
313.154	101.89
313.368	42.5
313.582	28.16
313.796	161.28
314.009	36.35
314.223	62.98
314.437	48.64
314.651	101.89
314.864	71.17
315.078	7.68
315.292	93.69
315.505	-8.7
315.719	83.45
315.933	52.74
316.146	83.45
316.36	81.41
316.573	75.26
316.787	83.45
317.001	91.65
317.214	65.02
317.428	60.93
317.641	110.08
317.855	62.98
318.068	60.93
318.282	103.93
318.495	67.07
318.709	13.82
318.922	22.02
319.136	40.45
319.349	48.64
319.563	28.16
319.776	95.74
319.99	30.21
320.203	28.16
320.417	56.83
320.63	95.74
320.843	60.93
321.057	-31.23
321.27	44.54
321.483	67.07
321.697	95.74
321.91	116.22
322.124	40.45
322.337	50.69
322.55	17.92
322.763	36.35
322.977	48.64
323.19	-2.56
323.403	22.02
323.617	30.21
323.83	46.59
324.043	97.79
324.256	89.6
324.469	11.78
324.683	65.02
324.896	28.16
325.109	50.69
325.322	73.21
325.535	73.21
325.748	7.68
325.962	22.02
326.175	-35.33
326.388	56.83
326.601	19.97
326.814	50.69
327.027	1.54
327.24	17.92
327.453	13.82
327.666	56.83
327.879	50.69
328.092	17.92
328.305	62.98
328.518	83.45
328.731	30.21
328.944	-27.14
329.157	75.26
329.37	-94.72
329.583	36.35
329.796	93.69
330.009	30.21
330.222	81.41
330.435	34.3
330.648	24.06
330.861	75.26
331.073	101.89
331.286	19.97
331.499	103.93
331.712	26.11
331.925	-4.61
332.138	73.21
332.35	50.69
332.563	-2.56
332.776	32.26
332.989	60.93
333.202	-14.85
333.414	73.21
333.627	58.88
333.84	13.82
334.053	50.69
334.265	87.55
334.478	75.26
334.691	56.83
334.903	79.36
335.116	17.92
335.329	42.5
335.541	15.87
335.754	118.27
335.966	122.37
336.179	42.5
336.392	1.54
336.604	42.5
336.817	-33.28
337.029	97.79
337.242	32.26
337.454	40.45
337.667	-8.7
337.88	75.26
338.092	54.78
338.305	11.78
338.517	5.63
338.729	54.78
338.942	34.3
339.154	15.87
339.367	1.54
339.579	73.21
339.792	91.65
340.004	75.26
340.217	85.5
340.429	91.65
340.641	13.82
340.854	46.59
341.066	108.03
341.278	75.26
341.491	73.21
341.703	56.83
341.915	-37.38
342.128	30.21
342.34	34.3
342.552	32.26
342.764	67.07
342.977	26.11
343.189	36.35
343.401	116.22
343.613	40.45
343.826	40.45
344.038	73.21
344.25	1.54
344.462	116.22
344.674	67.07
344.886	140.8
345.099	42.5
345.311	34.3
345.523	103.93
345.735	-2.56
345.947	-6.66
346.159	42.5
346.371	54.78
346.583	44.54
346.795	132.61
347.007	44.54
347.219	24.06
347.431	79.36
347.643	17.92
347.855	-4.61
348.067	108.03
348.279	24.06
348.491	75.26
348.703	7.68
348.915	30.21
349.127	34.3
349.339	44.54
349.551	42.5
349.763	34.3
349.975	36.35
350.187	60.93
350.399	73.21
350.61	60.93
350.822	22.02
351.034	132.61
351.246	89.6
351.458	67.07
351.669	11.78
351.881	138.75
352.093	110.08
352.305	52.74
352.517	142.85
352.728	65.02
352.94	-20.99
353.152	30.21
353.363	32.26
353.575	75.26
353.787	73.21
353.999	71.17
354.21	60.93
354.422	30.21
354.633	79.36
354.845	130.56
355.057	75.26
355.268	101.89
355.48	56.83
355.692	40.45
355.903	52.74
356.115	24.06
356.326	9.73
356.538	44.54
356.749	38.4
356.961	99.84
357.172	28.16
357.384	54.78
357.595	40.45
357.807	110.08
358.018	19.97
358.23	58.88
358.441	81.41
358.653	87.55
358.864	75.26
359.075	28.16
359.287	58.88
359.498	130.56
359.709	52.74
359.921	7.68
360.132	79.36
360.344	93.69
360.555	132.61
360.766	67.07
360.977	87.55
361.189	71.17
361.4	108.03
361.611	46.59
361.823	62.98
362.034	34.3
362.245	28.16
362.456	73.21
362.667	34.3
362.879	11.78
363.09	60.93
363.301	42.5
363.512	73.21
363.723	-10.75
363.935	34.3
364.146	67.07
364.357	28.16
364.568	65.02
364.779	81.41
364.99	118.27
365.201	48.64
365.412	50.69
365.623	-18.94
365.834	50.69
366.045	73.21
366.256	116.22
366.467	89.6
366.678	56.83
366.889	22.02
367.1	46.59
367.311	93.69
367.522	52.74
367.733	81.41
367.944	48.64
368.155	60.93
368.366	87.55
368.577	130.56
368.788	99.84
368.999	19.97
369.209	58.88
369.42	101.89
369.631	148.99
369.842	138.75
370.053	13.82
370.264	83.45
370.474	50.69
370.685	52.74
370.896	30.21
371.107	73.21
371.317	108.03
371.528	69.12
371.739	87.55
371.95	30.21
372.16	-0.51
372.371	99.84
372.582	75.26
372.792	1.54
373.003	85.5
373.214	83.45
373.424	103.93
373.635	32.26
373.846	77.31
374.056	71.17
374.267	46.59
374.477	38.4
374.688	114.17
374.898	65.02
375.109	118.27
375.319	126.46
375.53	67.07
375.74	99.84
375.951	38.4
376.161	95.74
376.372	93.69
376.582	-0.51
376.793	103.93
377.003	40.45
377.214	30.21
377.424	130.56
377.635	3.58
377.845	32.26
378.055	95.74
378.266	77.31
378.476	81.41
378.686	52.74
378.897	17.92
379.107	46.59
379.317	65.02
379.528	50.69
379.738	38.4
379.948	42.5
380.158	97.79
380.369	28.16
380.579	208.38
380.789	79.36
380.999	124.41
381.21	112.13
381.42	93.69
381.63	22.02
381.84	52.74
382.05	44.54
382.261	97.79
382.471	153.09
382.681	91.65
382.891	40.45
383.101	114.17
383.311	97.79
383.521	9.73
383.731	52.74
383.941	58.88
384.151	79.36
384.361	105.98
384.571	120.32
384.781	67.07
384.991	91.65
385.201	89.6
385.411	124.41
385.621	87.55
385.831	65.02
386.041	85.5
386.251	73.21
386.461	140.8
386.671	79.36
386.881	91.65
387.091	81.41
387.301	62.98
387.511	54.78
387.72	44.54
387.93	44.54
388.14	91.65
388.35	116.22
388.56	105.98
388.769	69.12
388.979	108.03
389.189	71.17
389.399	93.69
389.609	71.17
389.818	122.37
390.028	77.31
390.238	67.07
390.447	81.41
390.657	95.74
390.867	144.89
391.076	73.21
391.286	34.3
391.496	91.65
391.705	69.12
391.915	56.83
392.125	87.55
392.334	114.17
392.544	81.41
392.753	-2.56
392.963	91.65
393.172	97.79
393.382	36.35
393.591	132.61
393.801	58.88
394.01	118.27
394.22	50.69
394.429	124.41
394.639	40.45
394.848	114.17
395.058	134.65
395.267	60.93
395.477	173.57
395.686	116.22
395.895	73.21
396.105	165.37
396.314	77.31
396.524	89.6
396.733	132.61
396.942	132.61
397.152	128.51
397.361	93.69
397.57	99.84
397.78	177.66
397.989	60.93
398.198	230.91
398.407	30.21
398.617	177.66
398.826	87.55
399.035	146.94
399.244	105.98
399.453	73.21
399.663	183.81
399.872	144.89
400.081	132.61
400.29	175.61
400.499	122.37
400.708	267.77
400.917	132.61
401.127	105.98
401.336	142.85
401.545	165.37
401.754	142.85
401.963	140.8
402.172	144.89
402.381	114.17
402.59	124.41
402.799	144.89
403.008	177.66
403.217	204.28
403.426	105.98
403.635	132.61
403.844	202.24
404.053	228.86
404.262	214.52
404.471	173.57
404.68	192
404.888	183.81
405.097	93.69
405.306	192
405.515	189.95
405.724	187.9
405.933	265.72
406.142	192
406.35	189.95
406.559	126.46
406.768	271.87
406.977	214.52
407.185	296.44
407.394	263.68
407.603	230.91
407.812	316.92
408.02	351.74
408.229	247.29
408.438	306.68
408.646	343.55
408.855	282.11
409.064	400.89
409.272	306.68
409.481	370.17
409.69	355.83
409.898	378.36
410.107	374.27
410.315	484.86
410.524	400.89
410.733	388.6
410.941	419.32
411.15	474.62
411.358	495.1
411.567	466.42
411.775	493.05
411.984	566.78
412.192	517.62
412.401	525.82
412.609	617.97
412.818	572.92
413.026	585.21
413.234	585.21
413.443	681.46
413.651	726.52
413.86	722.42
414.068	712.18
414.276	787.96
414.485	812.53
414.693	849.4
414.901	900.59
415.11	808.44
415.318	900.59
415.526	941.55
415.734	921.07
415.943	968.18
416.151	1025.52
416.359	1035.76
416.567	1142.25
416.776	1123.82
416.984	1263.08
417.192	1207.79
417.4	1222.13
417.608	1314.28
417.817	1287.66
418.025	1396.2
418.233	1455.59
418.441	1525.22
418.649	1449.45
418.857	1660.39
419.065	1658.34
419.273	1555.94
419.481	1658.34
419.689	1709.54
419.897	1854.95
420.105	1955.3
420.313	1910.24
420.521	1957.35
420.729	2098.66
420.937	2174.43
421.145	2172.38
421.353	2256.35
421.561	2489.82
421.769	2385.37
421.977	2641.37
422.185	2553.31
422.393	2596.31
422.601	2985.43
422.809	2813.4
423.017	2872.79
423.224	2852.31
423.432	3061.2
423.64	3206.61
423.848	3481.03
424.056	3317.2
424.263	3544.52
424.471	3511.75
424.679	3673.54
424.887	3857.86
425.094	3802.57
425.302	4060.61
425.51	4179.39
425.718	4320.7
425.925	4292.03
426.133	4500.92
426.341	4672.95
426.548	4982.2
426.756	5068.21
426.964	4988.34
427.171	5135.79
427.379	5512.62
427.586	5580.2
427.794	5701.03
428.001	5903.78
428.209	6194.59
428.417	6174.11
428.624	6509.98
428.832	6571.42
429.039	6446.49
429.247	6581.66
429.454	7210.39
429.662	7450
429.869	7150.99
430.076	7636.36
430.284	7357.84
430.491	7802.25
430.699	8162.69
430.906	8033.67
431.114	8328.58
431.321	8625.53
431.528	8873.34
431.736	9405.81
431.943	9645.42
432.15	9422.19
432.358	9700.72
432.565	10163.56
432.772	9936.23
432.979	10581.34
433.187	10810.72
433.394	11019.61
433.601	11652.43
433.808	11584.85
434.016	11449.68
434.223	12080.46
434.43	12723.52
434.637	12324.16
434.844	13296.95
435.052	13536.56
435.259	13401.4
435.466	13614.38
435.673	13581.62
435.88	14249.25
436.087	14859.55
436.294	15023.39
436.501	14808.35
436.708	15199.51
436.915	15590.67
437.122	16174.35
437.329	16436.49
437.537	16780.54
437.743	17081.6
437.95	16809.22
438.157	17888.5
438.364	18472.17
438.571	18066.67
438.778	18466.02
438.985	20301
439.192	19293.4
439.399	19870.93
439.606	19715.28
439.813	20516.04
440.02	21882.03
440.227	21384.38
440.433	21210.3
440.64	21830.83
440.847	21726.39
441.054	22381.74
441.261	24020.11
441.467	23309.47
441.674	24120.46
441.881	25007.23
442.088	24710.28
442.294	24845.44
442.501	25339.01
442.708	25681.02
442.914	26772.58
443.121	28071
443.328	27317.34
443.534	29275.2
443.741	28286.03
443.948	27860.05
444.154	30061.62
444.361	30088.24
444.568	29897.78
444.774	30143.54
444.981	30268.47
445.187	31341.6
445.394	32975.88
445.6	32039.96
445.807	35097.58
446.013	33924.09
446.22	34339.83
446.426	35691.49
446.633	35851.23
446.839	37053.39
447.046	36002.78
447.252	37602.24
447.459	37829.57
447.665	37903.29
447.871	39093.16
448.078	40778.64
448.284	38785.97
448.491	39846.82
448.697	41687.94
448.903	42496.89
449.11	42326.91
449.316	41470.86
449.522	42521.46
449.728	43789.16
449.935	44122.97
450.141	43930.47
450.347	44276.57
450.553	43531.11
450.76	44145.5
450.966	45738.82
451.172	45050.7
451.378	45980.48
451.584	45146.96
451.791	46357.31
451.997	46496.57
452.203	47012.66
452.409	47037.23
452.615	46758.71
452.821	45302.6
453.027	44682.07
453.233	46900.02
453.44	45237.07
453.646	45421.39
453.852	45828.93
454.058	46764.85
454.264	45075.28
454.47	46304.06
454.676	44796.76
454.882	46736.18
455.088	42425.21
455.294	43174.77
455.5	43570.02
455.705	44047.2
455.911	42392.44
456.117	41450.38
456.323	41493.38
456.529	39109.55
456.735	40692.63
456.941	39740.32
457.147	39115.69
457.352	37927.87
457.558	37409.73
457.764	38138.81
457.97	36926.41
458.176	36160.47
458.381	36070.36
458.587	34270.2
458.793	34128.89
458.999	32406.55
459.204	35214.31
459.41	33969.15
459.616	31276.07
459.821	31896.6
460.027	31931.42
460.233	30829.61
460.438	29686.84
460.644	29817.91
460.85	28578.89
461.055	27882.58
461.261	28177.49
461.466	26049.65
461.672	24992.9
461.878	26883.17
462.083	24978.56
462.289	24372.36
462.494	24669.32
462.7	23536.79
462.905	22715.56
463.111	23522.46
463.316	23553.18
463.522	22938.79
463.727	23366.81
463.932	23162.01
464.138	22643.88
464.343	22799.52
464.549	22152.37
464.754	22666.41
464.959	22889.63
465.165	22602.92
465.37	21585.08
465.575	21425.34
465.781	21773.49
465.986	22019.25
466.191	21290.17
466.397	20856
466.602	19627.22
466.807	20665.54
467.012	20679.88
467.218	20589.77
467.423	20102.35
467.628	20440.26
467.833	21181.63
468.038	20436.17
468.244	19637.46
468.449	20626.63
468.654	19897.55
468.859	19938.51
469.064	19848.4
469.269	18822.37
469.474	19092.7
469.679	19545.3
469.885	18969.82
470.09	19520.73
470.295	18851.04
470.5	18629.86
470.705	18746.59
470.91	18533.61
471.115	18011.37
471.32	18341.1
471.525	18183.4
471.73	17767.66
471.935	17583.35
472.139	17378.55
472.344	17411.32
472.549	17276.15
472.754	16844.03
472.959	16729.34
473.164	16248.07
473.369	16045.32
473.574	16743.68
473.778	16676.1
473.983	16297.22
474.188	16370.95
474.393	15840.53
474.598	15633.68
474.802	15432.98
475.007	15432.98
475.212	15471.89
475.417	14904.6
475.621	14851.36
475.826	14886.17
476.031	14425.38
476.235	14148.9
476.44	14449.96
476.645	14359.84
476.849	14415.14
477.054	13856.04
477.259	13962.54
477.463	14034.22
477.668	13557.04
477.872	13673.78
478.077	13436.21
478.282	13288.76
478.486	13131.06
478.691	12938.55
478.895	13245.75
479.1	12979.51
479.304	12965.18
479.509	12336.45
479.713	12657.98
479.918	12471.62
480.122	12459.33
480.326	12412.23
480.531	12676.41
480.735	12205.38
480.94	12213.57
481.144	12512.58
481.348	11996.49
481.553	12250.44
481.757	11947.34
481.961	12332.36
482.166	12066.12
482.37	12172.61
482.574	11896.14
482.778	11789.64
482.983	12135.75
483.187	11898.19
483.391	12113.22
483.595	11898.19
483.8	11697.49
484.004	11879.75
484.208	11871.56
484.412	11742.54
484.616	12105.03
484.821	11814.22
485.025	11726.16
485.229	11992.39
485.433	11844.94
485.637	11840.84
485.841	11797.84
486.045	11715.92
486.249	11980.11
486.453	11879.75
486.657	11883.85
486.861	12068.17
487.065	11810.12
487.269	12041.54
487.473	11797.84
487.677	11939.15
487.881	11973.96
488.085	11646.29
488.289	11920.71
488.493	11758.92
488.697	12113.22
488.901	11982.15
489.105	11945.29
489.309	11920.71
489.512	12150.09
489.716	12057.93
489.92	11955.53
490.124	12008.78
490.328	12395.84
490.531	12084.55
490.735	12105.03
490.939	12252.49
491.143	12205.38
491.346	12229.96
491.55	12449.09
491.754	12318.02
491.958	12318.02
492.161	12428.61
492.365	12553.54
492.569	12387.65
492.772	12387.65
492.976	12782.91
493.18	12760.38
493.383	12801.34
493.587	12952.89
493.79	13104.44
493.994	12905.79
494.197	13116.73
494.401	13198.65
494.605	13272.37
494.808	13528.37
495.012	13370.68
495.215	13286.71
495.419	13438.26
495.622	13528.37
495.825	13727.02
496.029	13802.8
496.232	14191.91
496.436	14073.13
496.639	14372.13
496.843	14363.94
497.046	14626.08
497.249	14810.4
497.453	14851.36
497.656	15119.64
497.859	14810.4
498.063	14959.9
498.266	15287.57
498.469	15463.7
498.673	15656.21
498.876	15924.49
499.079	15865.1
499.282	15922.45
499.485	16479.49
499.689	16522.5
499.892	16577.8
500.095	16860.41
500.298	16850.17
500.501	16942.33
500.705	17446.13
500.908	17665.27
501.111	17571.06
501.314	17655.03
501.517	18031.85
501.72	18283.75
501.923	18230.51
502.126	18717.92
502.329	18885.86
502.532	18832.61
502.735	18793.7
502.938	19395.8
503.141	19526.87
503.344	19993.81
503.547	19920.08
503.75	20163.79
503.953	20612.29
504.156	20561.09
504.359	20804.8
504.562	20755.65
504.765	21183.68
504.968	21238.97
505.17	21761.2
505.373	21955.76
505.576	22105.26
505.779	22615.21
505.982	22621.35
506.185	23153.82
506.387	23137.44
506.59	23442.59
506.793	23899.28
506.996	23551.13
507.198	24403.08
507.401	24282.25
507.604	24351.88
507.807	25113.73
508.009	25216.13
508.212	25154.69
508.415	25549.95
508.617	26129.52
508.82	26205.3
509.022	26049.65
509.225	26596.46
509.428	26735.72
509.63	26977.38
509.833	27323.49
510.035	27896.92
510.238	27640.92
510.44	28060.76
510.643	28394.57
510.845	28650.57
511.048	28329.04
511.25	29187.14
511.453	29576.25
511.655	30508.08
511.858	29697.08
512.06	30233.65
512.262	30708.78
512.465	30473.26
512.667	30960.68
512.87	31163.43
513.072	31523.87
513.274	32160.79
513.477	32250.9
513.679	32554
513.881	33020.94
514.084	32850.95
514.286	33418.24
514.488	33565.7
514.69	34706.41
514.893	34370.55
515.095	34210.81
515.297	35361.76
515.499	34819.05
515.701	35476.45
515.904	35595.23
516.106	36197.34
516.308	36172.76
516.51	36645.84
516.712	36811.73
516.914	37010.38
517.116	37792.7
517.318	38222.78
517.52	37895.1
517.722	38411.19
517.925	38998.96
518.127	39596.96
518.329	39619.49
518.531	39205.8
518.733	40070.04
518.935	40844.18
519.136	40571.8
519.338	41294.73
519.54	40803.22
519.742	41634.69
519.944	41515.91
520.146	42619.77
520.348	42531.7
520.55	42949.49
520.752	43225.96
520.954	43752.29
521.155	43185.01
521.357	44348.25
521.559	44061.54
521.761	44860.24
521.963	45083.47
522.164	44718.93
522.366	45235.02
522.568	45642.57
522.77	45863.75
522.971	46584.63
523.173	46353.21
523.375	46359.36
523.576	46537.53
523.778	46779.19
523.98	47475.5
524.181	47555.37
524.383	47821.61
524.584	47962.92
524.786	48483.1
524.988	48016.16
525.189	48675.61
525.391	49367.82
525.592	49652.49
525.794	49363.73
525.995	49562.38
526.197	49472.27
526.398	49949.45
526.6	50223.87
526.801	50072.32
527.003	50359.04
527.204	50752.25
527.406	51063.54
527.607	50858.74
527.808	51444.46
528.01	50404.09
528.211	51235.57
528.412	51854.06
528.614	51577.58
528.815	51464.94
529.016	51757.8
529.218	51510
529.419	51886.82
529.62	52220.64
529.822	52290.27
530.023	52316.9
530.224	51899.11
530.425	52335.33
530.626	51729.13
530.828	51964.65
531.029	53226.2
531.23	52796.12
531.431	52349.67
531.632	52388.58
531.833	52464.35
532.035	53050.07
532.236	52775.64
532.437	53232.34
532.638	52415.2
532.839	53105.37
533.04	53134.04
533.241	52851.42
533.442	53637.84
533.643	53123.8
533.844	53312.21
534.045	53455.57
534.246	52710.11
534.447	53713.61
534.648	52749.02
534.849	53398.23
535.05	53023.45
535.251	53146.33
535.451	52835.03
535.652	53308.11
535.853	52837.08
536.054	53465.81
536.255	52851.42
536.456	52593.37
536.657	53846.73
536.857	53398.23
537.058	53365.46
537.259	53914.31
537.46	53148.37
537.66	53172.95
537.861	53304.02
538.062	53185.24
538.263	53351.12
538.463	53043.93
538.664	53299.92
538.865	53084.89
539.065	53777.1
539.266	53017.3
539.466	53355.22
539.667	53152.47
539.868	53840.59
540.068	53103.32
540.269	53072.6
540.469	53543.63
540.67	52861.66
540.87	52964.06
541.071	53238.48
541.271	53582.54
541.472	53201.62
541.672	52804.31
541.873	52828.89
542.073	52626.14
542.274	53027.54
542.474	53136.09
542.675	52624.09
542.875	53152.47
543.075	53101.27
543.276	52466.4
543.476	53361.36
543.676	52871.9
543.877	53021.4
544.077	52828.89
544.277	52658.91
544.478	52820.7
544.678	53134.04
544.878	52906.71
545.078	53162.71
545.279	52652.76
545.479	52677.34
545.679	52853.47
545.879	52863.71
546.079	52953.82
546.28	52415.2
546.48	52783.83
546.68	52710.11
546.88	52855.51
547.08	52345.57
547.28	52663
547.48	52226.79
547.68	52589.28
547.88	52284.13
548.081	52550.37
548.281	52755.16
548.481	52499.17
548.681	52865.75
548.881	52251.36
549.081	52562.65
549.28	52456.16
549.48	52663
549.68	52214.5
549.88	53056.21
550.08	52243.17
550.28	52488.93
550.48	52364
550.68	52894.42
550.88	52382.43
551.08	52650.72
551.279	52722.4
551.479	52345.57
551.679	52241.12
551.879	52226.79
552.079	52546.27
552.278	52048.61
552.478	52196.07
552.678	52234.98
552.878	52304.61
553.077	52069.09
553.277	51829.48
553.477	52675.29
553.676	52040.42
553.876	52062.95
554.076	52013.8
554.275	51800.81
554.475	51227.38
554.674	52169.44
554.874	52017.89
555.074	51280.63
555.273	51905.26
555.473	52124.39
555.672	51598.06
555.872	51710.7
556.071	51395.31
556.271	51655.4
556.47	51647.21
556.67	51405.55
556.869	51354.35
557.068	51587.82
557.268	51133.17
557.467	51460.85
557.667	51311.35
557.866	51270.39
558.065	51104.5
558.265	51292.91
558.464	50617.08
558.663	51088.12
558.863	50553.6
559.062	51624.68
559.261	50686.71
559.461	51591.92
559.66	50725.63
559.859	50500.35
560.058	50508.54
560.258	50582.27
560.457	50318.08
560.656	50850.55
560.855	50133.76
561.054	50608.89
561.253	50107.14
561.453	50277.12
561.652	50449.15
561.851	50604.8
562.05	49720.07
562.249	50055.94
562.448	50313.98
562.647	50062.08
562.846	49728.27
563.045	49654.54
563.244	49484.56
563.443	50119.43
563.642	49249.04
563.841	49451.79
564.04	49142.55
564.239	49931.01
564.438	49058.58
564.637	49445.65
564.836	49074.96
565.035	48859.93
565.234	49146.64
565.432	48679.71
565.631	48376.61
565.83	48991
566.029	48335.65
566.228	48605.98
566.427	48536.35
566.625	47848.23
566.824	47883.05
567.023	48210.72
567.222	47622.95
567.42	48180
567.619	47917.86
567.818	47401.77
568.016	47330.09
568.215	48519.96
568.414	47508.27
568.612	47768.36
568.811	47749.93
569.01	47463.21
569.208	46930.74
569.407	47205.17
569.605	47115.06
569.804	47354.67
570.002	46988.08
570.201	47233.84
570.4	46224.19
570.598	46480.19
570.797	46119.74
570.995	46213.95
571.193	45708.1
571.392	46242.62
571.59	45710.15
571.789	46338.88
571.987	46052.16
572.186	45577.03
572.384	45654.86
572.582	45984.58
572.781	45790.02
572.979	45054.8
573.177	45753.16
573.376	45538.12
573.574	44243.8
573.772	45232.97
573.971	44974.93
574.169	44573.53
574.367	44557.14
574.565	45235.02
574.763	44448.6
574.962	44331.87
575.16	44172.13
575.358	44358.49
575.556	43957.09
575.754	44694.36
575.952	43639.65
576.151	43797.35
576.349	43719.52
576.547	43832.16
576.745	43707.24
576.943	43582.31
577.141	43150.19
577.339	43060.08
577.537	43060.08
577.735	43033.46
577.933	42603.38
578.131	43043.7
578.329	42795.89
578.527	42646.39
578.725	42359.67
578.923	42531.7
579.121	42064.77
579.319	42165.12
579.516	42543.99
579.714	42236.8
579.912	41935.74
580.11	41595.78
580.308	41694.08
580.506	41915.26
580.704	40874.9
580.901	41487.24
581.099	41702.28
581.297	40922
581.495	41180.04
581.692	41540.49
581.89	40786.83
582.088	41091.98
582.285	40680.34
582.483	40827.79
582.681	40766.35
582.878	40143.77
583.076	39977.89
583.274	40692.63
583.471	40033.18
583.669	39986.08
583.866	39631.78
584.064	39969.69
584.262	39633.83
584.459	39687.07
584.657	39257
584.854	39658.4
585.052	39093.16
585.249	39418.79
585.447	39406.5
585.644	38919.09
585.841	39105.45
586.039	39199.66
586.236	38431.67
586.434	38593.46
586.631	38435.77
586.828	37964.73
587.026	38452.15
587.223	37817.28
587.42	37993.4
587.618	38140.86
587.815	37338.05
588.012	37878.72
588.21	37821.37
588.407	37839.81
588.604	37618.63
588.801	37086.15
588.999	37123.02
589.196	36922.32
589.393	36758.48
589.59	37182.41
589.787	36926.41
589.984	36731.86
590.182	36258.77
590.379	36778.96
590.576	36688.85
590.773	36051.93
590.97	36211.67
591.167	36219.86
591.364	35535.84
591.561	35881.95
591.758	35480.55
591.955	35826.65
592.152	35861.47
592.349	35521.51
592.546	35142.63
592.743	35113.96
592.94	35054.57
593.137	35224.55
593.334	35159.02
593.531	34368.5
593.727	34704.37
593.924	34972.65
594.121	34169.85
594.318	34665.46
594.515	34358.26
594.712	34681.84
594.908	34364.4
595.105	34309.11
595.302	33788.92
595.499	34116.6
595.696	33598.46
595.892	33418.24
596.089	33518.59
596.286	33917.95
596.482	33694.72
596.679	33743.87
596.876	33405.95
597.072	33020.94
597.269	33149.96
597.466	32623.63
597.662	32637.97
597.859	32803.85
598.055	32556.05
598.252	32429.07
598.448	32365.59
598.645	32640.01
598.841	32005.14
599.038	32201.75
599.234	32107.54
599.431	31890.46
599.627	31544.35
599.824	32158.74
600.02	31403.04
600.217	32101.4
600.413	31308.83
600.609	31151.14
600.806	31538.21
601.002	31441.95
601.198	31245.35
601.395	30719.02
601.591	31237.16
601.787	30977.06
601.984	30530.61
602.18	30823.47
602.376	30616.62
602.572	30573.61
602.769	30782.51
602.965	29959.22
603.161	30327.86
603.357	30106.68
603.553	30174.26
603.75	30274.61
603.946	29869.11
604.142	30014.52
604.338	29484.09
604.534	29719.61
604.73	29342.78
604.926	29396.03
605.122	29502.53
605.318	28994.63
605.514	29273.15
605.71	28845.13
605.906	29299.78
606.102	29119.56
606.298	28929.09
606.494	28492.88
606.69	28814.41
606.886	28855.37
607.082	28636.24
607.278	28589.13
607.474	28007.51
607.67	28458.06
607.866	27876.44
608.062	28361.81
608.257	28216.4
608.453	28204.11
608.649	28152.91
608.845	28169.3
609.041	27817.05
609.236	28136.53
609.432	27860.05
609.628	27579.48
609.824	27769.94
610.019	27642.97
610.215	27536.48
610.411	27675.74
610.606	27083.87
610.802	27391.07
610.998	27526.24
611.193	27276.38
611.389	27038.82
611.584	26813.54
611.78	26920.04
611.976	26922.09
612.171	27165.79
612.367	26735.72
612.562	26756.2
612.758	26723.43
612.953	26580.07
613.149	27004
613.344	26487.92
613.539	26578.03
613.735	26692.71
613.93	26668.14
614.126	26244.21
614.321	26721.38
614.517	26270.83
614.712	26070.13
614.907	26260.59
615.103	26252.4
615.298	26221.68
615.493	26352.75
615.688	25932.92
615.884	26219.63
616.079	25818.23
616.274	26233.97
616.47	25709.69
616.665	25969.78
616.86	25687.16
617.055	25746.55
617.25	25482.36
617.445	25865.33
617.641	25461.88
617.836	25212.03
618.031	24878.21
618.226	25560.19
618.421	25023.62
618.616	25420.92
618.811	24949.89
619.006	25470.08
619.201	24388.75
619.396	25111.68
619.591	24728.71
619.786	24558.73
619.981	24630.41
620.176	24611.98
620.371	23968.91
620.566	24249.49
620.761	23993.49
620.956	24274.06
621.151	23538.84
621.346	23950.48
621.541	23600.28
621.735	23536.79
621.93	23129.25
622.125	23645.34
622.32	23032.99
622.515	23186.59
622.709	22906.02
622.904	23114.91
623.099	22809.76
623.294	23022.75
623.488	22586.54
623.683	22457.51
623.878	22160.56
624.072	22156.46
624.267	22203.57
624.462	22164.65
624.656	21687.48
624.851	21976.24
625.046	21755.06
625.24	21501.11
625.435	21052.61
625.629	20978.88
625.824	21189.82
626.018	21277.88
626.213	20550.85
626.407	20729.03
626.602	20788.42
626.796	20724.93
626.991	20702.4
627.185	20513.99
627.38	20200.65
627.574	20022.48
627.768	19944.66
627.963	20296.91
628.157	19625.17
628.352	19782.87
628.546	19453.14
628.74	19791.06
628.935	19430.62
629.129	19178.72
629.323	19111.13
629.517	19260.63
629.712	18758.88
629.906	19043.55
630.1	18912.48
630.294	18838.75
630.489	18433.25
630.683	18746.59
630.877	18400.49
631.071	18148.59
631.265	18613.48
631.459	17968.37
631.653	17994.99
631.848	18236.65
632.042	17863.92
632.236	17958.13
632.43	17476.85
632.624	17816.82
632.818	17775.86
633.012	17274.1
633.206	17390.84
633.4	17491.19
633.594	17229.05
633.788	17204.47
633.982	17194.23
634.176	17018.11
634.369	16803.07
634.563	16655.62
634.757	16848.13
634.951	16710.91
635.145	16710.91
635.339	16545.03
635.533	16284.94
635.726	16446.73
635.92	16157.96
636.114	16504.07
636.308	15951.12
636.501	16028.94
636.695	15879.44
636.889	15797.52
637.083	15633.68
637.276	15719.7
637.47	15592.72
637.664	15248.66
637.857	15523.09
638.051	15318.29
638.244	15205.66
638.438	15127.83
638.632	15047.96
638.825	14851.36
639.019	14834.97
639.212	14773.53
639.406	14777.63
639.599	14636.32
639.793	14632.22
639.986	14406.95
640.18	14445.86
640.373	14361.89
640.567	14105.9
640.76	14376.23
640.954	14087.47
641.147	14069.03
641.34	13966.63
641.534	14046.51
641.727	13915.44
641.92	13890.86
642.114	13643.06
642.307	13796.65
642.5	13581.62
642.694	13436.21
642.887	13509.94
643.08	13604.14
643.273	13350.2
643.467	13192.5
643.66	13272.37
643.853	12977.47
644.046	13147.45
644.239	12961.08
644.432	12848.44
644.626	12918.07
644.819	12692.8
645.012	12637.5
645.205	12664.13
645.398	12600.64
645.591	12541.25
645.784	12447.04
645.977	12232.01
646.17	12295.49
646.363	12098.89
646.556	11982.15
646.749	12127.56
646.942	11965.77
647.135	11889.99
647.328	11904.33
647.521	11939.15
647.714	11535.7
647.907	11795.79
648.099	11543.89
648.292	11566.42
648.485	11492.69
648.678	11339.09
648.871	11380.05
649.064	11296.08
649.256	11240.79
649.449	11122.01
649.642	11175.25
649.835	11171.16
650.027	10900.83
650.22	10956.12
650.413	10759.52
650.605	10937.69
650.798	10837.34
650.991	10816.86
651.183	10708.32
651.376	10708.32
651.568	10626.4
651.761	10487.14
651.954	10409.31
652.146	10411.36
652.339	10427.74
652.531	10218.85
652.724	10315.11
652.916	10089.83
653.109	10214.76
653.301	10069.35
653.494	10145.13
653.686	9831.79
653.879	10075.49
654.071	9938.28
654.263	9991.53
654.456	9796.97
654.648	9647.47
654.84	9534.83
655.033	9538.93
655.225	9549.17
655.417	9645.42
655.61	9520.49
655.802	9551.21
655.994	9532.78
656.186	9276.79
656.379	9252.21
656.571	9350.51
656.763	9403.76
656.955	9137.52
657.148	9182.58
657.34	9207.16
657.532	9022.84
657.724	8998.26
657.916	9389.42
658.108	9006.45
658.3	8760.7
658.492	8908.15
658.684	8615.29
658.876	8719.74
659.068	8754.55
659.26	8598.91
659.452	8650.11
659.644	8492.41
659.836	8480.13
660.028	8445.31
660.22	8361.34
660.412	8375.68
660.604	8213.89
660.796	8248.71
660.988	8232.32
661.18	8125.83
661.372	8101.25
661.563	8250.75
661.755	8115.59
661.947	8183.17
662.139	7964.04
662.331	7830.92
662.522	7949.7
662.714	7859.59
662.906	7826.82
663.097	7609.74
663.289	7720.33
663.481	7501.2
663.673	7722.38
663.864	7636.36
664.056	7462.29
664.247	7517.58
664.439	7505.29
664.631	7423.37
664.822	7501.2
665.014	7378.32
665.205	7232.91
665.397	7267.73
665.588	7300.5
665.78	7292.3
665.971	7144.85
666.163	6968.73
666.354	7130.52
666.546	7091.6
666.737	7056.79
666.929	6985.11
667.12	6909.33
667.311	6950.29
667.503	6858.14
667.694	7079.32
667.885	6759.83
668.077	6987.16
668.268	6813.08
668.459	6806.94
668.651	6659.48
668.842	6673.82
669.033	6653.34
669.224	6618.52
669.416	6534.56
669.607	6565.28
669.798	6403.49
669.989	6464.93
670.18	6419.87
670.371	6542.75
670.563	6591.9
670.754	6399.39
670.945	6264.22
671.136	6385.05
671.327	6432.16
671.518	6172.07
671.709	6331.81
671.9	6274.46
672.091	6296.99
672.282	6303.14
672.473	6127.01
672.664	6137.25
672.855	6014.37
673.046	6049.19
673.237	6106.53
673.428	6086.05
673.619	6045.09
673.809	6008.23
674	5975.46
674.191	6061.48
674.382	5959.08
674.573	5952.93
674.764	5866.92
674.954	5858.73
675.145	5750.18
675.336	5885.35
675.527	5856.68
675.717	5723.56
675.908	5729.7
676.099	5871.01
676.289	5520.81
676.48	5574.06
676.671	5539.24
676.861	5748.14
677.052	5590.44
677.243	5649.83
677.433	5586.35
677.624	5735.85
677.814	5653.93
678.005	5508.52
678.195	5332.4
678.386	5352.88
678.576	5580.2
678.767	5492.14
678.957	5463.47
679.148	5481.9
679.338	5545.39
679.529	5363.12
679.719	5332.4
679.909	5592.49
680.1	5422.51
680.29	5404.08
680.481	5287.34
680.671	5238.19
680.861	5371.31
681.052	5270.96
681.242	5238.19
681.432	5346.73
681.622	5193.14
681.813	5176.75
682.003	5203.38
682.193	5221.81
682.383	5125.55
682.573	5221.81
682.764	5166.51
682.954	5211.57
683.144	5152.18
683.334	5008.82
683.524	5232.05
683.714	5039.54
683.904	5184.94
684.094	5105.07
684.284	4992.44
684.474	5107.12
684.664	4974
684.854	5098.93
685.044	5019.06
685.234	4945.33
685.424	4869.56
685.614	4806.07
685.804	5088.69
685.994	4898.23
686.184	4914.61
686.374	4818.36
686.564	4644.28
686.753	4914.61
686.943	4638.14
687.133	4703.67
687.323	4634.04
687.513	4728.25
687.702	4650.43
687.892	4679.1
688.082	4609.47
688.272	4642.23
688.461	4550.07
688.651	4636.09
688.841	4535.74
689.03	4648.38
689.22	4484.54
689.41	4711.86
689.599	4617.66
689.789	4494.78
689.979	4382.14
690.168	4445.63
690.358	4300.22
690.547	4412.86
690.737	4287.93
690.926	4429.24
691.116	4287.93
691.305	4361.66
691.495	4283.84
691.684	4318.65
691.874	4191.68
692.063	4197.82
692.252	4218.3
692.442	4206.02
692.631	4056.51
692.82	4074.95
693.01	4040.13
693.199	4044.23
693.388	4015.55
693.578	4191.68
693.767	4066.75
693.956	4058.56
694.146	3900.87
694.335	4050.37
694.524	3982.79
694.713	3960.26
694.902	3980.74
695.092	3917.25
695.281	4132.29
695.47	4046.27
695.659	3751.37
695.848	3866.05
696.037	3794.37
696.226	3919.3
696.415	3823.05
696.604	3802.57
696.793	3784.13
696.982	3816.9
697.171	3821
697.36	3784.13
697.549	3874.24
697.738	3804.61
697.927	3755.46
698.116	3874.24
698.305	3790.28
698.494	3796.42
698.683	3685.83
698.872	3753.41
699.061	3835.33
699.25	3722.7
699.438	3687.88
699.627	3642.82
699.816	3689.93
700.005	3616.2
700.193	3538.38
700.382	3565
700.571	3581.39
700.76	3521.99
700.948	3636.68
701.137	3706.31
701.326	3689.93
701.514	3573.19
701.703	3540.43
701.892	3685.83
702.08	3624.39
702.269	3571.15
702.457	3487.18
702.646	3700.17
702.834	3671.5
703.023	3458.51
703.212	3565
703.4	3528.14
703.589	3407.31
703.777	3562.95
703.965	3433.93
704.154	3536.33
704.342	3542.47
704.531	3478.99
704.719	3333.58
704.907	3573.19
705.096	3352.01
705.284	3319.25
705.472	3378.64
705.661	3384.78
705.849	3427.79
706.037	3395.02
706.226	3395.02
706.414	3306.96
706.602	3401.16
706.79	3245.52
706.979	3237.33
707.167	3249.61
707.355	3300.81
707.543	3202.51
707.731	3376.59
707.919	3352.01
708.107	3263.95
708.296	3222.99
708.484	3218.89
708.672	3278.29
708.86	3276.24
709.048	3251.66
709.236	3282.38
709.424	3206.61
709.612	3352.01
709.8	3175.89
709.988	3091.92
710.176	3286.48
710.364	3151.31
710.551	3182.03
710.739	3202.51
710.927	3188.18
711.115	3028.43
711.303	3065.3
711.491	3196.37
711.679	3012.05
711.866	3108.3
712.054	3177.94
712.242	3040.72
712.43	3065.3
712.617	3044.82
712.805	3245.52
712.993	3012.05
713.181	3040.72
713.368	3057.11
713.556	3026.39
713.744	3001.81
713.931	3069.39
714.119	3075.54
714.306	3016.15
714.494	2876.88
714.682	3028.43
714.869	2999.76
715.057	2997.71
715.244	2981.33
715.432	2938.32
715.619	2915.8
715.807	2870.74
715.994	2983.38
716.182	2870.74
716.369	2889.17
716.556	2977.23
716.744	3073.49
716.931	2983.38
717.119	2913.75
717.306	2913.75
717.493	2899.41
717.681	2969.04
717.868	2874.84
718.055	2850.26
718.242	2813.4
718.43	2952.66
718.617	2809.3
718.804	2852.31
718.991	2739.67
719.179	2837.97
719.366	2825.68
719.553	2784.73
719.74	2725.33
719.927	2768.34
720.114	2846.16
720.301	2772.44
720.488	2733.53
720.676	2807.25
720.863	2797.01
721.05	2774.49
721.237	2590.17
721.424	2764.25
721.611	2743.77
721.798	2674.14
721.985	2672.09
722.172	2760.15
722.358	2629.08
722.545	2799.06
722.732	2733.53
722.919	2819.54
723.106	2727.38
723.293	2573.78
723.48	2708.95
723.667	2672.09
723.853	2686.42
724.04	2651.61
724.227	2678.23
724.414	2690.52
724.6	2667.99
724.787	2618.84
724.974	2688.47
725.161	2641.37
725.347	2520.54
725.534	2629.08
725.72	2512.35
725.907	2670.04
726.094	2620.89
726.28	2541.02
726.467	2522.59
726.653	2520.54
726.84	2577.88
727.027	2667.99
727.213	2530.78
727.4	2584.02
727.586	2387.42
727.773	2547.16
727.959	2536.92
728.145	2516.44
728.332	2637.27
728.518	2491.87
728.705	2553.31
728.891	2510.3
729.077	2596.31
729.264	2477.53
729.45	2522.59
729.636	2524.63
729.823	2389.47
730.009	2409.95
730.195	2479.58
730.382	2395.61
730.568	2491.87
730.754	2485.72
730.94	2528.73
731.126	2405.85
731.313	2473.43
731.499	2432.47
731.685	2430.43
731.871	2414.04
732.057	2338.27
732.243	2426.33
732.429	2375.13
732.615	2459.1
732.801	2473.43
732.987	2354.65
733.173	2485.72
733.359	2444.76
733.545	2309.6
733.731	2350.56
733.917	2387.42
734.103	2358.75
734.289	2371.04
734.475	2301.4
734.661	2559.45
734.847	2225.63
735.033	2426.33
735.219	2289.12
735.404	2313.69
735.59	2285.02
735.776	2229.73
735.962	2389.47
736.148	2393.56
736.333	2311.64
736.519	2295.26
736.705	2358.75
736.89	2207.2
737.076	2287.07
737.262	2360.8
737.447	2225.63
737.633	2338.27
737.819	2123.23
738.004	2262.49
738.19	2166.24
738.375	2209.25
738.561	2246.11
738.747	2074.08
738.932	2133.47
739.118	2237.92
739.303	2166.24
739.489	2098.66
739.674	2262.49
739.859	2211.29
740.045	2192.86
740.23	2115.04
740.416	2041.31
740.601	2164.19
740.786	2205.15
740.972	2104.8
741.157	1992.16
741.342	2072.03
741.528	2057.7
741.713	2112.99
741.898	2002.4
742.084	2094.56
742.269	2006.5
742.454	2104.8
742.639	2035.17
742.824	2057.7
743.01	2063.84
743.195	1998.31
743.38	1967.59
743.565	2018.79
743.75	2031.07
743.935	2133.47
744.12	2069.98
744.305	1971.68
744.49	1902.05
744.675	1826.28
744.86	1971.68
745.045	2002.4
745.23	1885.67
745.415	1932.77
745.6	1922.53
745.785	1889.76
745.97	1836.52
746.155	1820.13
746.34	1773.03
746.525	1818.08
746.71	1840.61
746.895	1844.71
747.079	1820.13
747.264	1736.17
747.449	1730.02
747.634	1781.22
747.819	1789.41
748.003	1715.69
748.188	1775.08
748.373	1807.84
748.557	1668.58
748.742	1596.9
748.927	1678.82
749.111	1721.83
749.296	1689.06
749.481	1545.7
749.665	1596.9
749.85	1578.47
750.034	1644.01
750.219	1535.46
750.404	1555.94
750.588	1560.04
750.773	1541.61
750.957	1435.11
751.141	1514.98
751.326	1517.03
751.51	1517.03
751.695	1445.35
751.879	1449.45
752.064	1463.79
752.248	1572.33
752.432	1478.12
752.617	1496.55
752.801	1428.97
752.985	1439.21
753.17	1451.5
753.354	1369.58
753.538	1459.69
753.722	1283.56
753.907	1328.62
754.091	1347.05
754.275	1365.48
754.459	1426.92
754.643	1328.62
754.828	1328.62
755.012	1375.72
755.196	1359.34
755.38	1398.25
755.564	1328.62
755.748	1250.8
755.932	1361.39
756.116	1254.89
756.3	1234.41
756.484	1310.19
756.668	1289.71
756.852	1211.89
757.036	1273.32
757.22	1185.26
757.404	1195.5
757.588	1181.17
757.772	1285.61
757.956	1250.8
758.14	1246.7
758.323	1195.5
758.507	1138.16
758.691	1238.51
758.875	1091.06
759.059	1093.1
759.242	1125.87
759.426	1123.82
759.61	1117.68
759.794	1150.45
759.977	1039.86
760.161	1213.93
760.345	1123.82
760.528	1080.82
760.712	1082.86
760.895	1052.14
761.079	1056.24
761.263	1070.58
761.446	1023.47
761.63	1099.25
761.813	1093.1
761.997	1007.09
762.18	1150.45
762.364	1127.92
762.547	1035.76
762.731	966.13
762.914	876.02
763.098	1023.47
763.281	1050.1
763.464	1017.33
763.648	978.42
763.831	896.5
764.015	935.41
764.198	964.08
764.381	984.56
764.564	1043.95
764.748	984.56
764.931	937.46
765.114	984.56
765.297	900.59
765.481	904.69
765.664	974.32
765.847	833.01
766.03	927.22
766.213	943.6
766.397	951.79
766.58	880.11
766.763	923.12
766.946	894.45
767.129	1025.52
767.312	882.16
767.495	964.08
767.678	867.83
767.861	919.03
768.044	871.92
768.227	814.58
768.41	871.92
768.593	867.83
768.776	859.63
768.959	1017.33
769.142	787.96
769.324	904.69
769.507	835.06
769.69	871.92
769.873	820.72
770.056	884.21
770.239	810.48
770.421	828.92
770.604	747
770.787	767.48
770.97	843.25
771.152	720.37
771.335	849.4
771.518	849.4
771.7	919.03
771.883	853.49
772.066	824.82
772.248	792.05
772.431	802.29
772.613	880.11
772.796	812.53
772.978	841.2
773.161	654.84
773.343	849.4
773.526	783.86
773.708	730.61
773.891	685.56
774.073	732.66
774.256	714.23
774.438	736.76
774.621	671.22
774.803	747
774.985	671.22
775.168	767.48
775.35	644.6
775.532	640.5
775.715	697.85
775.897	724.47
776.079	703.99
776.261	654.84
776.444	751.09
776.626	677.37
776.808	667.13
776.99	726.52
777.173	640.5
777.355	673.27
777.537	607.73
777.719	628.21
777.901	638.45
778.083	640.5
778.265	579.06
778.447	579.06
778.629	640.5
778.811	613.88
778.993	677.37
779.175	577.02
779.357	581.11
779.539	603.64
779.721	613.88
779.903	607.73
780.085	636.41
780.267	568.82
780.449	591.35
780.631	605.69
780.812	581.11
780.994	544.25
781.176	468.47
781.358	550.39
781.54	480.76
781.721	597.49
781.903	509.43
782.085	554.49
782.267	542.2
782.448	486.9
782.63	587.26
782.812	484.86
782.993	495.1
783.175	460.28
783.357	523.77
783.538	499.19
783.72	529.91
783.901	460.28
784.083	558.58
784.264	437.75
784.446	507.38
784.627	462.33
784.809	433.66
784.99	507.38
785.172	505.34
785.353	478.71
785.535	384.51
785.716	447.99
785.897	441.85
786.079	493.05
786.26	503.29
786.441	427.51
786.623	345.59
786.804	314.88
786.985	450.04
787.167	443.9
787.348	427.51
787.529	443.9
787.71	439.8
787.891	466.42
788.073	347.64
788.254	380.41
788.435	421.37
788.616	294.4
788.797	316.92
788.978	361.98
789.159	398.84
789.34	394.75
789.522	456.19
789.703	372.22
789.884	400.89
790.065	343.55
790.246	298.49
790.427	390.65
790.607	431.61
790.788	359.93
790.969	318.97
791.15	400.89
791.331	269.82
791.512	298.49
791.693	341.5
791.874	273.92
792.054	351.74
792.235	376.31
792.416	294.4
792.597	296.44
792.778	417.27
792.958	368.12
793.139	339.45
793.32	278.01
793.5	245.24
793.681	353.79
793.862	255.48
794.042	257.53
794.223	300.54
794.404	257.53
794.584	296.44
794.765	296.44
794.945	284.16
795.126	280.06
795.306	333.31
795.487	300.54
795.667	251.39
795.848	261.63
796.028	355.83
796.209	306.68
796.389	331.26
796.57	355.83
796.75	302.59
796.93	337.4
797.111	292.35
797.291	235
797.471	257.53
797.652	329.21
797.832	230.91
798.012	237.05
798.192	282.11
798.373	327.16
798.553	278.01
798.733	187.9
798.913	255.48
799.093	288.25
799.274	255.48
799.454	208.38
799.634	222.72
799.814	249.34
799.994	245.24
800.174	247.29
800.354	243.2
800.534	177.66
800.714	226.81
800.894	265.72
801.074	228.86
801.254	204.28
801.434	327.16
801.614	253.44
801.794	202.24
801.974	615.93
802.154	214.52
802.334	179.71
802.514	183.81
802.693	183.81
802.873	306.68
803.053	220.67
803.233	206.33
803.413	224.76
803.592	194.05
803.772	239.1
803.952	275.96
804.131	212.48
804.311	296.44
804.491	167.42
804.67	151.04
804.85	222.72
805.03	222.72
805.209	261.63
805.389	161.28
805.568	245.24
805.748	155.13
805.928	183.81
806.107	224.76
806.287	251.39
806.466	212.48
806.646	196.09
806.825	181.76
807.004	214.52
807.184	220.67
807.363	226.81
807.543	165.37
807.722	245.24
807.901	214.52
808.081	265.72
808.26	173.57
808.439	177.66
808.619	155.13
808.798	192
808.977	198.14
809.156	230.91
809.336	183.81
809.515	226.81
809.694	196.09
809.873	144.89
810.052	185.85
810.231	177.66
810.411	118.27
810.59	280.06
810.769	132.61
810.948	159.23
811.127	99.84
811.306	83.45
811.485	128.51
811.664	179.71
811.843	140.8
812.022	157.18
812.201	138.75
812.38	167.42
812.559	130.56
812.737	132.61
812.916	212.48
813.095	222.72
813.274	165.37
813.453	185.85
813.632	177.66
813.811	198.14
813.989	138.75
814.168	124.41
814.347	189.95
814.526	202.24
814.704	132.61
814.883	171.52
815.062	146.94
815.24	218.62
815.419	112.13
815.598	159.23
815.776	179.71
815.955	167.42
816.133	105.98
816.312	112.13
816.49	222.72
816.669	118.27
816.847	134.65
817.026	241.15
817.204	101.89
817.383	132.61
817.561	173.57
817.74	138.75
817.918	87.55
818.097	128.51
818.275	189.95
818.453	148.99
818.632	140.8
818.81	153.09
818.988	128.51
819.167	130.56
819.345	116.22
819.523	155.13
819.701	34.3
819.879	81.41
820.058	110.08
820.236	151.04
820.414	93.69
820.592	175.61
820.77	148.99
820.948	159.23
821.127	19.97
821.305	126.46
821.483	153.09
821.661	114.17
821.839	216.57
822.017	110.08
822.195	136.7
822.373	177.66
822.551	38.4
822.729	134.65
822.907	81.41
823.085	142.85
823.262	99.84
823.44	73.21
823.618	103.93
823.796	130.56
823.974	65.02
824.152	97.79
824.329	81.41
824.507	138.75
824.685	114.17
824.863	73.21
825.04	99.84
825.218	105.98
825.396	85.5
825.574	101.89
825.751	83.45
825.929	89.6
826.107	130.56
826.284	136.7
826.462	142.85
826.639	75.26
826.817	28.16
826.994	97.79
827.172	17.92
827.349	112.13
827.527	112.13
827.704	56.83
827.882	110.08
828.059	122.37
828.237	40.45
828.414	56.83
828.591	34.3
828.769	93.69
828.946	110.08
829.124	110.08
829.301	91.65
829.478	40.45
829.655	103.93
829.833	34.3
830.01	159.23
830.187	34.3
830.364	85.5
830.542	134.65
830.719	54.78
830.896	153.09
831.073	13.82
831.25	93.69
831.427	105.98
831.604	105.98
831.782	73.21
831.959	62.98
832.136	1.54
832.313	136.7
832.49	71.17
832.667	122.37
832.844	97.79
833.021	134.65
833.198	132.61
833.374	97.79
833.551	89.6
833.728	81.41
833.905	48.64
834.082	56.83
834.259	15.87
834.436	36.35
834.612	52.74
834.789	134.65
834.966	30.21
835.143	116.22
835.319	56.83
835.496	69.12
835.673	87.55
835.85	101.89
836.026	42.5
836.203	85.5
836.38	67.07
836.556	130.56
836.733	26.11
836.909	75.26
837.086	34.3
837.262	48.64
837.439	79.36
837.616	50.69
837.792	-39.42
837.968	58.88
838.145	5.63
838.321	93.69
838.498	79.36
838.674	26.11
838.851	34.3
839.027	40.45
839.203	105.98
839.38	54.78
839.556	77.31
839.732	75.26
839.909	67.07
840.085	48.64
840.261	99.84
840.437	122.37
840.614	89.6
840.79	87.55
840.966	93.69
841.142	44.54
841.318	7.68
841.494	38.4
841.671	67.07
841.847	11.78
842.023	15.87
842.199	103.93
842.375	87.55
842.551	42.5
842.727	-12.8
842.903	71.17
843.079	-10.75
843.255	24.06
843.431	9.73
843.607	136.7
843.783	5.63
843.959	79.36
844.134	116.22
844.31	126.46
844.486	46.59
844.662	28.16
844.838	105.98
845.013	116.22
845.189	146.94
845.365	91.65
845.541	5.63
845.716	97.79
845.892	67.07
846.068	40.45
846.244	73.21
846.419	89.6
846.595	48.64
846.77	89.6
846.946	60.93
847.122	-4.61
847.297	73.21
847.473	60.93
847.648	-8.7
847.824	83.45
847.999	62.98
848.175	91.65
848.35	44.54
848.526	79.36
848.701	67.07
848.876	-29.18
849.052	24.06
849.227	118.27
849.403	22.02
849.578	122.37
849.753	97.79
849.929	48.64
850.104	19.97
850.279	26.11
850.454	17.92
850.63	26.11
850.805	40.45
850.98	40.45
851.155	105.98
851.33	46.59
851.505	50.69
851.681	65.02
851.856	22.02
852.031	71.17
852.206	26.11
852.381	44.54
852.556	24.06
852.731	-16.9
852.906	22.02
853.081	71.17
853.256	50.69
853.431	48.64
853.606	69.12
853.781	-12.8
853.956	17.92
854.131	40.45
854.305	19.97
854.48	28.16
854.655	24.06
854.83	-41.47
855.005	13.82
855.18	93.69
855.354	34.3
855.529	91.65
855.704	73.21
855.879	-27.14
856.053	5.63
856.228	52.74
856.403	58.88
856.577	69.12
856.752	-18.94
856.926	110.08
857.101	38.4
857.276	19.97
857.45	103.93
857.625	17.92
857.799	105.98
857.974	-10.75
858.148	42.5
858.323	34.3
858.497	75.26
858.672	99.84
858.846	-127.49
859.02	42.5
859.195	-10.75
859.369	40.45
859.543	22.02
859.718	44.54
859.892	-18.94
860.066	60.93
860.241	38.4
860.415	42.5
860.589	71.17
860.763	42.5
860.938	-2.56
861.112	34.3
861.286	46.59
861.46	79.36
861.634	34.3
861.808	42.5
861.982	32.26
862.157	-25.09
862.331	67.07
862.505	-14.85
862.679	32.26
862.853	67.07
863.027	34.3
863.201	89.6
863.375	26.11
863.549	22.02
863.722	-16.9
863.896	36.35
864.07	-66.05
864.244	79.36
864.418	42.5
864.592	81.41
864.766	54.78
864.939	60.93
865.113	58.88
865.287	58.88
865.461	3.58
865.634	40.45
865.808	34.3
865.982	79.36
866.156	-14.85
866.329	3.58
866.503	62.98
866.676	34.3
866.85	71.17
867.024	5.63
867.197	42.5
867.371	-2.56
867.544	-16.9
867.718	-10.75
867.891	-0.51
868.065	-0.51
868.238	-16.9
868.412	-18.94
868.585	38.4
868.759	-14.85
868.932	58.88
869.105	24.06
869.279	17.92
869.452	124.41
869.625	15.87
869.799	52.74
869.972	30.21
870.145	-27.14
870.319	73.21
870.492	46.59
870.665	-51.71
870.838	-31.23
871.011	38.4
871.185	38.4
871.358	36.35
871.531	32.26
871.704	1.54
871.877	30.21
872.05	-12.8
872.223	11.78
872.396	62.98
872.569	24.06
872.742	-18.94
872.915	22.02
873.088	19.97
873.261	-66.05
873.434	-35.33
873.607	19.97
873.78	9.73
873.953	-16.9
874.126	9.73
874.299	11.78
874.471	-12.8
874.644	-6.66
874.817	71.17
874.99	120.32
875.163	67.07
875.335	11.78
875.508	36.35
875.681	-25.09
875.853	-43.52
876.026	65.02
876.199	30.21
876.371	19.97
876.544	-37.38
876.717	22.02
876.889	-107.01
877.062	48.64
877.234	22.02
877.407	13.82
877.579	65.02
877.752	38.4
877.924	58.88
878.097	32.26
878.269	28.16
878.442	79.36
878.614	-37.38
878.786	36.35
878.959	-14.85
879.131	67.07
879.303	-82.43
879.476	-20.99
879.648	-57.86
879.82	48.64
879.993	13.82
880.165	7.68
880.337	3.58
880.509	13.82
880.681	-27.14
880.854	54.78
881.026	38.4
881.198	44.54
881.37	118.27
881.542	97.79
881.714	50.69
881.886	30.21
882.058	19.97
882.23	15.87
882.402	17.92
882.574	-55.81
882.746	-20.99
882.918	-12.8
883.09	28.16
883.262	19.97
883.434	54.78
883.606	22.02
883.778	26.11
883.95	3.58
884.122	99.84
884.293	24.06
884.465	3.58
884.637	73.21
884.809	-0.51
884.98	-31.23
885.152	-29.18
885.324	34.3
885.496	-64
885.667	-51.71
885.839	15.87
886.011	75.26
886.182	28.16
886.354	17.92
886.525	1.54
886.697	48.64
886.869	-8.7
887.04	116.22
887.212	97.79
887.383	73.21
887.555	5.63
887.726	50.69
887.897	7.68
888.069	28.16
888.24	-35.33
888.412	-0.51
888.583	69.12
888.754	77.31
888.926	-51.71
889.097	-6.66
889.268	-41.47
889.44	-39.42
889.611	-23.04
889.782	3.58
889.953	9.73
890.125	42.5
890.296	-0.51
890.467	13.82
890.638	22.02
890.809	-16.9
890.98	34.3
891.151	52.74
891.323	13.82
891.494	11.78
891.665	9.73
891.836	-0.51
892.007	30.21
892.178	46.59
892.349	5.63
892.52	-31.23
892.691	-8.7
892.862	52.74
893.032	-14.85
893.203	30.21
893.374	32.26
893.545	75.26
893.716	-39.42
893.887	7.68
894.057	52.74
894.228	1.54
894.399	32.26
894.57	60.93
894.74	-27.14
894.911	30.21
895.082	56.83
895.253	30.21
895.423	38.4
895.594	24.06
895.764	-37.38
895.935	-66.05
896.106	7.68
896.276	-6.66
896.447	-12.8
896.617	11.78
896.788	-14.85
896.958	7.68
897.129	50.69
897.299	-31.23
897.47	95.74
897.64	9.73
897.81	-78.33
897.981	60.93
898.151	-27.14
898.322	50.69
898.492	28.16
898.662	-6.66
898.832	3.58
899.003	50.69
899.173	26.11
899.343	-20.99
899.513	24.06
