Data from USB4F104151__68__12-36-36-534.txt Node

Date: Fri Mar 14 12:36:36 EDT 2025
User: louis
Spectrometer: USB4F10415
Trigger mode: 4
Integration Time (sec): 2.000000E-2
Scans to average: 1
Electric dark correction enabled: true
Nonlinearity correction enabled: false
Boxcar width: 0
XAxis mode: Wavelengths
Number of Pixels in Spectrum: 3648
>>>>>Begin Spectral Data<<<<<
178.204	-68.95
178.424	-68.95
178.644	-68.95
178.864	-34.13
179.084	-95.57
179.304	-7.51
179.524	-81.24
179.744	33.45
179.964	68.27
180.184	-27.99
180.404	-3.41
180.624	-23.89
180.844	55.98
181.064	-36.18
181.283	0.68
181.503	27.31
181.723	-5.46
181.943	-3.41
182.163	47.79
182.383	27.31
182.602	27.31
182.822	35.5
183.042	-7.51
183.262	19.11
183.482	74.41
183.701	29.35
183.921	-19.8
184.141	-38.23
184.361	53.93
184.58	64.17
184.8	53.93
185.02	58.03
185.239	76.46
185.459	19.11
185.679	82.6
185.898	33.45
186.118	66.22
186.338	68.27
186.557	58.03
186.777	43.69
186.997	47.79
187.216	-15.7
187.436	51.88
187.655	88.75
187.875	17.07
188.095	27.31
188.314	78.51
188.534	60.07
188.753	47.79
188.973	39.59
189.192	-13.65
189.412	0.68
189.631	72.36
189.851	-15.7
190.07	8.87
190.29	29.35
190.509	4.78
190.729	45.74
190.948	19.11
191.168	109.22
191.387	17.07
191.607	62.12
191.826	12.97
192.045	117.42
192.265	103.08
192.484	-32.08
192.704	55.98
192.923	31.4
193.142	70.31
193.362	64.17
193.581	76.46
193.8	37.55
194.02	80.55
194.239	45.74
194.458	-1.37
194.678	68.27
194.897	-1.37
195.116	78.51
195.335	23.21
195.555	133.8
195.774	31.4
195.993	68.27
196.212	17.07
196.432	88.75
196.651	31.4
196.87	55.98
197.089	17.07
197.308	60.07
197.528	21.16
197.747	23.21
197.966	82.6
198.185	31.4
198.404	21.16
198.623	-21.85
198.842	47.79
199.062	53.93
199.281	43.69
199.5	47.79
199.719	-23.89
199.938	37.55
200.157	66.22
200.376	47.79
200.595	66.22
200.814	31.4
201.033	86.7
201.252	74.41
201.471	60.07
201.69	19.11
201.909	39.59
202.128	21.16
202.347	62.12
202.566	12.97
202.785	17.07
203.004	33.45
203.223	86.7
203.442	49.83
203.661	-21.85
203.879	82.6
204.098	103.08
204.317	51.88
204.536	21.16
204.755	15.02
204.974	47.79
205.193	51.88
205.411	107.18
205.63	53.93
205.849	78.51
206.068	35.5
206.287	49.83
206.505	-3.41
206.724	72.36
206.943	12.97
207.162	88.75
207.381	21.16
207.599	49.83
207.818	15.02
208.037	90.79
208.255	-30.04
208.474	74.41
208.693	-17.75
208.911	4.78
209.13	37.55
209.349	70.31
209.567	80.55
209.786	84.65
210.005	58.03
210.223	8.87
210.442	35.5
210.661	10.92
210.879	10.92
211.098	-5.46
211.316	15.02
211.535	49.83
211.753	23.21
211.972	80.55
212.191	21.16
212.409	-48.47
212.628	10.92
212.846	64.17
213.065	-30.04
213.283	127.66
213.502	119.46
213.72	10.92
213.938	-21.85
214.157	19.11
214.375	49.83
214.594	43.69
214.812	23.21
215.031	-3.41
215.249	58.03
215.467	72.36
215.686	-36.18
215.904	60.07
216.122	55.98
216.341	43.69
216.559	119.46
216.778	74.41
216.996	55.98
217.214	21.16
217.432	64.17
217.651	-30.04
217.869	-13.65
218.087	121.51
218.306	-27.99
218.524	10.92
218.742	2.73
218.96	47.79
219.179	47.79
219.397	66.22
219.615	55.98
219.833	72.36
220.051	-17.75
220.27	78.51
220.488	25.26
220.706	19.11
220.924	45.74
221.142	-5.46
221.36	103.08
221.578	103.08
221.796	84.65
222.015	27.31
222.233	23.21
222.451	131.75
222.669	-5.46
222.887	39.59
223.105	-34.13
223.323	78.51
223.541	-64.85
223.759	41.64
223.977	72.36
224.195	27.31
224.413	74.41
224.631	66.22
224.849	86.7
225.067	70.31
225.285	51.88
225.503	62.12
225.721	45.74
225.939	4.78
226.157	78.51
226.375	146.09
226.592	39.59
226.81	78.51
227.028	62.12
227.246	60.07
227.464	31.4
227.682	78.51
227.9	129.7
228.117	47.79
228.335	31.4
228.553	-27.99
228.771	96.94
228.989	86.7
229.206	58.03
229.424	58.03
229.642	-13.65
229.86	0.68
230.077	103.08
230.295	66.22
230.513	53.93
230.731	19.11
230.948	27.31
231.166	33.45
231.384	47.79
231.601	-7.51
231.819	55.98
232.037	-1.37
232.254	-9.56
232.472	94.89
232.689	-9.56
232.907	101.03
233.125	8.87
233.342	19.11
233.56	-5.46
233.777	74.41
233.995	80.55
234.213	74.41
234.43	27.31
234.648	135.85
234.865	35.5
235.083	74.41
235.3	74.41
235.518	66.22
235.735	88.75
235.953	105.13
236.17	72.36
236.388	86.7
236.605	-58.71
236.822	88.75
237.04	25.26
237.257	88.75
237.475	-7.51
237.692	-27.99
237.909	-5.46
238.127	21.16
238.344	78.51
238.562	62.12
238.779	-1.37
238.996	76.46
239.214	39.59
239.431	27.31
239.648	88.75
239.865	60.07
240.083	109.22
240.3	19.11
240.517	2.73
240.735	-32.08
240.952	68.27
241.169	-34.13
241.386	103.08
241.603	45.74
241.821	-52.56
242.038	111.27
242.255	58.03
242.472	-5.46
242.689	4.78
242.907	43.69
243.124	6.83
243.341	72.36
243.558	70.31
243.775	96.94
243.992	-1.37
244.209	80.55
244.426	21.16
244.643	47.79
244.86	51.88
245.078	98.99
245.295	23.21
245.512	70.31
245.729	-40.28
245.946	43.69
246.163	21.16
246.38	98.99
246.597	51.88
246.814	27.31
247.031	72.36
247.248	55.98
247.464	0.68
247.681	37.55
247.898	23.21
248.115	12.97
248.332	-11.61
248.549	72.36
248.766	55.98
248.983	53.93
249.2	-11.61
249.417	8.87
249.633	12.97
249.85	70.31
250.067	55.98
250.284	92.84
250.501	45.74
250.717	105.13
250.934	29.35
251.151	-7.51
251.368	21.16
251.585	-27.99
251.801	-15.7
252.018	80.55
252.235	62.12
252.451	-68.95
252.668	-11.61
252.885	0.68
253.102	27.31
253.318	49.83
253.535	-3.41
253.752	37.55
253.968	-19.8
254.185	37.55
254.401	70.31
254.618	92.84
254.835	-13.65
255.051	43.69
255.268	105.13
255.484	43.69
255.701	31.4
255.917	154.28
256.134	-19.8
256.351	109.22
256.567	2.73
256.784	35.5
257	-54.61
257.217	70.31
257.433	88.75
257.65	55.98
257.866	105.13
258.082	55.98
258.299	-15.7
258.515	96.94
258.732	37.55
258.948	51.88
259.165	-1.37
259.381	68.27
259.597	6.83
259.814	107.18
260.03	27.31
260.246	109.22
260.463	64.17
260.679	-7.51
260.895	33.45
261.112	-3.41
261.328	8.87
261.544	4.78
261.761	107.18
261.977	62.12
262.193	58.03
262.409	158.38
262.626	37.55
262.842	-11.61
263.058	39.59
263.274	37.55
263.49	47.79
263.707	90.79
263.923	90.79
264.139	41.64
264.355	119.46
264.571	78.51
264.787	21.16
265.004	82.6
265.22	80.55
265.436	29.35
265.652	43.69
265.868	109.22
266.084	33.45
266.3	125.61
266.516	35.5
266.732	33.45
266.948	49.83
267.164	29.35
267.38	25.26
267.596	35.5
267.812	-58.71
268.028	15.02
268.244	47.79
268.46	152.23
268.676	37.55
268.892	12.97
269.108	47.79
269.324	23.21
269.54	-15.7
269.756	45.74
269.972	21.16
270.188	62.12
270.403	15.02
270.619	70.31
270.835	74.41
271.051	94.89
271.267	10.92
271.483	17.07
271.698	148.14
271.914	12.97
272.13	-46.42
272.346	-56.66
272.562	47.79
272.777	82.6
272.993	103.08
273.209	55.98
273.425	82.6
273.64	49.83
273.856	109.22
274.072	41.64
274.287	29.35
274.503	94.89
274.719	47.79
274.934	23.21
275.15	15.02
275.366	23.21
275.581	17.07
275.797	12.97
276.012	70.31
276.228	92.84
276.444	-1.37
276.659	101.03
276.875	-40.28
277.09	84.65
277.306	33.45
277.521	47.79
277.737	0.68
277.952	-5.46
278.168	107.18
278.383	82.6
278.599	43.69
278.814	78.51
279.03	66.22
279.245	35.5
279.461	72.36
279.676	4.78
279.892	6.83
280.107	15.02
280.322	55.98
280.538	76.46
280.753	15.02
280.969	41.64
281.184	115.37
281.399	113.32
281.615	19.11
281.83	90.79
282.045	-3.41
282.26	76.46
282.476	37.55
282.691	51.88
282.906	53.93
283.122	2.73
283.337	51.88
283.552	39.59
283.767	55.98
283.983	82.6
284.198	-9.56
284.413	113.32
284.628	55.98
284.843	70.31
285.058	33.45
285.274	53.93
285.489	41.64
285.704	43.69
285.919	129.7
286.134	60.07
286.349	70.31
286.564	-13.65
286.779	64.17
286.995	70.31
287.21	6.83
287.425	51.88
287.64	60.07
287.855	27.31
288.07	62.12
288.285	68.27
288.5	29.35
288.715	103.08
288.93	80.55
289.145	53.93
289.36	66.22
289.575	12.97
289.79	58.03
290.004	33.45
290.219	131.75
290.434	51.88
290.649	51.88
290.864	10.92
291.079	23.21
291.294	74.41
291.509	88.75
291.724	80.55
291.938	15.02
292.153	27.31
292.368	49.83
292.583	25.26
292.798	-9.56
293.012	166.57
293.227	98.99
293.442	76.46
293.657	90.79
293.871	68.27
294.086	6.83
294.301	37.55
294.516	133.8
294.73	12.97
294.945	8.87
295.16	10.92
295.374	78.51
295.589	72.36
295.804	21.16
296.018	78.51
296.233	51.88
296.447	31.4
296.662	-15.7
296.877	64.17
297.091	139.94
297.306	21.16
297.52	8.87
297.735	60.07
297.949	94.89
298.164	17.07
298.378	43.69
298.593	66.22
298.807	2.73
299.022	6.83
299.236	25.26
299.451	70.31
299.665	-13.65
299.88	101.03
300.094	60.07
300.309	111.27
300.523	68.27
300.737	41.64
300.952	60.07
301.166	19.11
301.381	53.93
301.595	47.79
301.809	37.55
302.024	78.51
302.238	-44.37
302.452	49.83
302.667	98.99
302.881	19.11
303.095	101.03
303.309	4.78
303.524	43.69
303.738	25.26
303.952	31.4
304.166	76.46
304.381	62.12
304.595	43.69
304.809	33.45
305.023	84.65
305.237	39.59
305.452	72.36
305.666	64.17
305.88	88.75
306.094	25.26
306.308	68.27
306.522	68.27
306.736	78.51
306.95	58.03
307.164	92.84
307.379	41.64
307.593	119.46
307.807	-17.75
308.021	68.27
308.235	35.5
308.449	21.16
308.663	70.31
308.877	43.69
309.091	72.36
309.305	8.87
309.519	6.83
309.733	4.78
309.947	-9.56
310.161	78.51
310.374	43.69
310.588	80.55
310.802	72.36
311.016	64.17
311.23	37.55
311.444	80.55
311.658	76.46
311.872	68.27
312.085	88.75
312.299	66.22
312.513	39.59
312.727	33.45
312.941	27.31
313.154	43.69
313.368	-1.37
313.582	117.42
313.796	58.03
314.009	101.03
314.223	31.4
314.437	58.03
314.651	27.31
314.864	35.5
315.078	33.45
315.292	21.16
315.505	98.99
315.719	109.22
315.933	39.59
316.146	33.45
316.36	72.36
316.573	64.17
316.787	94.89
317.001	25.26
317.214	76.46
317.428	98.99
317.641	10.92
317.855	90.79
318.068	88.75
318.282	64.17
318.495	35.5
318.709	4.78
318.922	72.36
319.136	74.41
319.349	47.79
319.563	96.94
319.776	27.31
319.99	53.93
320.203	60.07
320.417	4.78
320.63	41.64
320.843	109.22
321.057	27.31
321.27	88.75
321.483	60.07
321.697	10.92
321.91	31.4
322.124	27.31
322.337	51.88
322.55	19.11
322.763	29.35
322.977	68.27
323.19	88.75
323.403	86.7
323.617	29.35
323.83	31.4
324.043	10.92
324.256	-15.7
324.469	80.55
324.683	78.51
324.896	60.07
325.109	29.35
325.322	37.55
325.535	70.31
325.748	33.45
325.962	76.46
326.175	12.97
326.388	37.55
326.601	-11.61
326.814	74.41
327.027	88.75
327.24	92.84
327.453	131.75
327.666	72.36
327.879	84.65
328.092	96.94
328.305	90.79
328.518	21.16
328.731	60.07
328.944	58.03
329.157	-40.28
329.37	74.41
329.583	80.55
329.796	80.55
330.009	49.83
330.222	111.27
330.435	115.37
330.648	53.93
330.861	66.22
331.073	94.89
331.286	98.99
331.499	86.7
331.712	39.59
331.925	92.84
332.138	74.41
332.35	37.55
332.563	33.45
332.776	125.61
332.989	53.93
333.202	78.51
333.414	12.97
333.627	62.12
333.84	90.79
334.053	82.6
334.265	27.31
334.478	41.64
334.691	-40.28
334.903	23.21
335.116	74.41
335.329	19.11
335.541	78.51
335.754	86.7
335.966	15.02
336.179	139.94
336.392	33.45
336.604	19.11
336.817	146.09
337.029	27.31
337.242	2.73
337.454	33.45
337.667	15.02
337.88	109.22
338.092	84.65
338.305	58.03
338.517	70.31
338.729	101.03
338.942	139.94
339.154	98.99
339.367	53.93
339.579	185
339.792	82.6
340.004	101.03
340.217	41.64
340.429	31.4
340.641	25.26
340.854	72.36
341.066	-1.37
341.278	45.74
341.491	127.66
341.703	107.18
341.915	29.35
342.128	80.55
342.34	43.69
342.552	27.31
342.764	84.65
342.977	39.59
343.189	25.26
343.401	101.03
343.613	107.18
343.826	78.51
344.038	8.87
344.25	135.85
344.462	92.84
344.674	6.83
344.886	37.55
345.099	129.7
345.311	62.12
345.523	10.92
345.735	-5.46
345.947	152.23
346.159	86.7
346.371	127.66
346.583	39.59
346.795	55.98
347.007	41.64
347.219	25.26
347.431	107.18
347.643	41.64
347.855	12.97
348.067	94.89
348.279	15.02
348.491	76.46
348.703	33.45
348.915	17.07
349.127	43.69
349.339	115.37
349.551	-1.37
349.763	62.12
349.975	84.65
350.187	90.79
350.399	92.84
350.61	96.94
350.822	96.94
351.034	88.75
351.246	98.99
351.458	86.7
351.669	105.13
351.881	80.55
352.093	41.64
352.305	150.18
352.517	51.88
352.728	113.32
352.94	23.21
353.152	113.32
353.363	6.83
353.575	60.07
353.787	66.22
353.999	47.79
354.21	172.71
354.422	49.83
354.633	31.4
354.845	107.18
355.057	19.11
355.268	72.36
355.48	45.74
355.692	49.83
355.903	55.98
356.115	78.51
356.326	103.08
356.538	62.12
356.749	66.22
356.961	125.61
357.172	-1.37
357.384	-1.37
357.595	76.46
357.807	94.89
358.018	37.55
358.23	111.27
358.441	109.22
358.653	55.98
358.864	51.88
359.075	144.04
359.287	82.6
359.498	125.61
359.709	109.22
359.921	39.59
360.132	72.36
360.344	51.88
360.555	-13.65
360.766	55.98
360.977	23.21
361.189	51.88
361.4	105.13
361.611	55.98
361.823	-7.51
362.034	96.94
362.245	21.16
362.456	45.74
362.667	72.36
362.879	-1.37
363.09	78.51
363.301	66.22
363.512	98.99
363.723	64.17
363.935	51.88
364.146	58.03
364.357	37.55
364.568	76.46
364.779	64.17
364.99	84.65
365.201	92.84
365.412	68.27
365.623	86.7
365.834	115.37
366.045	78.51
366.256	84.65
366.467	156.33
366.678	76.46
366.889	41.64
367.1	107.18
367.311	84.65
367.522	-13.65
367.733	55.98
367.944	92.84
368.155	55.98
368.366	115.37
368.577	117.42
368.788	47.79
368.999	76.46
369.209	121.51
369.42	86.7
369.631	127.66
369.842	35.5
370.053	88.75
370.264	135.85
370.474	72.36
370.685	109.22
370.896	80.55
371.107	86.7
371.317	72.36
371.528	123.56
371.739	84.65
371.95	133.8
372.16	68.27
372.371	55.98
372.582	60.07
372.792	98.99
373.003	144.04
373.214	47.79
373.424	90.79
373.635	170.66
373.846	76.46
374.056	53.93
374.267	94.89
374.477	82.6
374.688	84.65
374.898	45.74
375.109	21.16
375.319	107.18
375.53	125.61
375.74	109.22
375.951	98.99
376.161	98.99
376.372	31.4
376.582	82.6
376.793	123.56
377.003	96.94
377.214	88.75
377.424	107.18
377.635	94.89
377.845	94.89
378.055	94.89
378.266	49.83
378.476	94.89
378.686	41.64
378.897	129.7
379.107	78.51
379.317	82.6
379.528	139.94
379.738	111.27
379.948	109.22
380.158	76.46
380.369	76.46
380.579	72.36
380.789	101.03
380.999	-27.99
381.21	94.89
381.42	72.36
381.63	27.31
381.84	103.08
382.05	66.22
382.261	115.37
382.471	105.13
382.681	137.9
382.891	98.99
383.101	150.18
383.311	47.79
383.521	25.26
383.731	129.7
383.941	133.8
384.151	72.36
384.361	113.32
384.571	31.4
384.781	150.18
384.991	82.6
385.201	76.46
385.411	27.31
385.621	55.98
385.831	8.87
386.041	23.21
386.251	125.61
386.461	78.51
386.671	76.46
386.881	60.07
387.091	131.75
387.301	131.75
387.511	94.89
387.72	76.46
387.93	49.83
388.14	92.84
388.35	125.61
388.56	113.32
388.769	141.99
388.979	6.83
389.189	86.7
389.399	78.51
389.609	123.56
389.818	84.65
390.028	96.94
390.238	78.51
390.447	51.88
390.657	129.7
390.867	86.7
391.076	6.83
391.286	166.57
391.496	121.51
391.705	137.9
391.915	103.08
392.125	64.17
392.334	96.94
392.544	105.13
392.753	121.51
392.963	162.47
393.172	131.75
393.382	62.12
393.591	201.38
393.801	92.84
394.01	178.86
394.22	162.47
394.429	43.69
394.639	66.22
394.848	148.14
395.058	139.94
395.267	98.99
395.477	170.66
395.686	125.61
395.895	174.76
396.105	201.38
396.314	70.31
396.524	123.56
396.733	107.18
396.942	217.77
397.152	162.47
397.361	86.7
397.57	148.14
397.78	174.76
397.989	189.1
398.198	248.49
398.407	123.56
398.617	176.81
398.826	137.9
399.035	162.47
399.244	121.51
399.453	213.67
399.663	88.75
399.872	182.95
400.081	123.56
400.29	158.38
400.499	221.86
400.708	205.48
400.917	164.52
401.127	170.66
401.336	137.9
401.545	168.62
401.754	236.2
401.963	271.01
402.172	150.18
402.381	162.47
402.59	230.06
402.799	195.24
403.008	205.48
403.217	146.09
403.426	180.9
403.635	228.01
403.844	195.24
404.053	158.38
404.262	170.66
404.471	244.39
404.68	240.29
404.888	205.48
405.097	225.96
405.306	297.64
405.515	266.92
405.724	273.06
405.933	299.69
406.142	260.77
406.35	309.93
406.559	307.88
406.768	340.65
406.977	301.73
407.185	287.4
407.394	244.39
407.603	236.2
407.812	309.93
408.02	426.66
408.229	381.6
408.438	279.21
408.646	330.41
408.855	309.93
409.064	385.7
409.272	391.84
409.481	395.94
409.69	453.28
409.898	451.24
410.107	565.92
410.315	475.81
410.524	496.29
410.733	520.87
410.941	580.26
411.15	563.87
411.358	504.48
411.567	617.12
411.775	619.17
411.984	682.66
412.192	658.08
412.401	717.47
412.609	617.12
412.818	690.85
413.026	793.25
413.234	746.14
413.443	672.42
413.651	707.23
413.86	803.49
414.068	848.54
414.276	952.99
414.485	899.74
414.693	952.99
414.901	1018.52
415.11	1022.62
415.318	934.56
415.526	1133.21
415.734	1141.4
415.943	1198.74
416.151	1145.5
416.359	1198.74
416.567	1276.57
416.776	1469.08
416.984	1370.77
417.192	1430.16
417.4	1430.16
417.608	1479.32
417.817	1538.71
418.025	1563.28
418.233	1639.06
418.441	1843.85
418.649	1729.17
418.857	1929.87
419.065	1833.61
419.273	1790.61
419.481	1931.92
419.689	2187.91
419.897	2134.67
420.105	2192.01
420.313	2386.57
420.521	2368.13
420.729	2405
420.937	2542.21
421.145	2718.34
421.353	2716.29
421.561	2863.74
421.769	2873.98
421.977	3013.24
422.185	3078.78
422.393	3193.47
422.601	3431.03
422.809	3445.37
423.017	3498.61
423.224	3480.18
423.432	3785.33
423.64	3775.09
423.848	3983.98
424.056	3943.02
424.263	4211.31
424.471	4246.12
424.679	4246.12
424.887	4590.18
425.094	4692.58
425.302	4676.2
425.51	4969.05
425.718	5065.31
425.925	5032.54
426.133	5253.72
426.341	5456.47
426.548	5767.76
426.756	5605.97
426.964	5818.96
427.171	6206.03
427.379	6470.22
427.586	6470.22
427.794	6742.6
428.001	7068.22
428.209	7383.61
428.417	7187.01
428.624	7756.34
428.832	7674.42
429.039	7735.86
429.247	7678.52
429.454	8542.76
429.662	8997.41
429.869	8454.7
430.076	9130.53
430.284	8751.65
430.491	9067.04
430.699	9542.17
430.906	9718.29
431.114	9816.6
431.321	10258.96
431.528	10430.99
431.736	10832.39
431.943	11547.13
432.15	11129.34
432.358	11360.77
432.565	11850.23
432.772	11993.59
432.979	12483.05
433.187	12538.35
433.394	12620.27
433.601	13621.72
433.808	13486.56
434.016	13597.15
434.223	14139.86
434.43	15135.17
434.637	14809.54
434.844	15630.78
435.052	15974.84
435.259	15651.26
435.466	16011.7
435.673	15841.72
435.88	16685.48
436.087	17818.01
436.294	17674.65
436.501	17478.05
436.708	17764.76
436.915	18422.16
437.122	19231.11
437.329	19267.97
437.537	19714.43
437.743	20302.2
437.95	19732.86
438.157	20584.82
438.364	21750.11
438.571	21453.16
438.778	21719.39
438.985	23961.92
439.192	22901.07
439.399	23509.32
439.606	22993.23
439.813	24254.78
440.02	25827.62
440.227	25565.48
440.433	25067.82
440.64	25983.26
440.847	25667.87
441.054	26448.15
441.261	27977.98
441.467	27617.54
441.674	28160.25
441.881	29751.52
442.088	29176.05
442.294	29075.69
442.501	29755.62
442.708	30580.95
442.914	31838.4
443.121	32800.95
443.328	32389.31
443.534	34261.15
443.741	33573.03
443.948	32923.83
444.154	35197.07
444.361	35047.57
444.568	35350.67
444.774	35238.03
444.981	35532.94
445.187	36659.32
445.394	38348.9
445.6	37845.1
445.807	41539.63
446.013	39450.7
446.22	40403.01
446.426	41842.73
446.633	42119.21
446.839	43534.35
447.046	41936.94
447.252	44214.28
447.459	44296.2
447.665	44259.34
447.871	46000.11
448.078	48109.52
448.284	45434.87
448.491	47085.53
448.697	48510.92
448.903	49754.04
449.11	49620.92
449.316	48799.68
449.522	50177.96
449.728	50870.18
449.935	51312.54
450.141	51371.93
450.347	52514.7
450.553	50720.68
450.76	51369.88
450.966	53016.45
451.172	52582.28
451.378	54011.76
451.584	52955.01
451.791	54028.15
451.997	53718.9
452.203	55144.29
452.409	55021.41
452.615	54507.37
452.821	52881.28
453.027	52330.38
453.233	54660.97
453.44	52739.97
453.646	53428.09
453.852	53933.94
454.058	54153.07
454.264	52723.59
454.47	53585.78
454.676	52545.42
454.882	54585.19
455.088	49639.35
455.294	50503.59
455.5	51003.3
455.705	51459.99
455.911	49838
456.117	48721.86
456.323	48580.55
456.529	45893.61
456.735	47683.54
456.941	46694.37
457.147	45897.71
457.352	44558.34
457.558	43925.52
457.764	43745.3
457.97	43128.86
458.176	42395.68
458.381	42301.48
458.587	40007.75
458.793	40476.74
458.999	38578.27
459.204	41650.22
459.41	40073.29
459.616	37003.38
459.821	37441.65
460.027	36896.89
460.233	36214.91
460.438	34717.85
460.644	35051.67
460.85	33372.33
461.055	33020.08
461.261	32860.34
461.466	30265.56
461.672	29448.43
461.878	31643.85
462.083	29495.53
462.289	28727.54
462.494	28721.4
462.7	27562.25
462.905	26661.14
463.111	27584.77
463.316	27934.98
463.522	26814.74
463.727	27216.14
463.932	26833.17
464.138	26870.03
464.343	27072.78
464.549	26136.86
464.754	27076.88
464.959	26362.14
465.165	26499.35
465.37	25334.06
465.575	24817.97
465.781	25874.72
465.986	25790.75
466.191	24647.99
466.397	24617.27
466.602	22962.51
466.807	24166.71
467.012	23990.59
467.218	23941.44
467.423	23576.9
467.628	23796.03
467.833	24783.15
468.038	23660.87
468.244	23249.22
468.449	24041.79
468.654	23474.5
468.859	23521.6
469.064	23325
469.269	22133.08
469.474	22182.23
469.679	22620.5
469.885	22196.57
470.09	22415.7
470.295	22188.38
470.5	21662.05
470.705	22198.62
470.91	21584.23
471.115	21639.52
471.32	21715.3
471.525	21258.6
471.73	20881.77
471.935	20797.81
472.139	20459.89
472.344	20404.6
472.549	20033.91
472.754	20148.6
472.959	19452.29
473.164	19204.49
473.369	19020.17
473.574	19519.87
473.778	19206.53
473.983	19294.6
474.188	18956.68
474.393	18149.78
474.598	18403.73
474.802	18483.6
475.007	18018.71
475.212	17910.17
475.417	17471.9
475.621	17736.09
475.826	17523.1
476.031	17287.59
476.235	16734.64
476.44	17201.57
476.645	16413.1
476.849	16658.86
477.054	16697.77
477.259	16460.21
477.463	16318.9
477.668	15634.88
477.872	16015.8
478.077	15878.58
478.282	15688.12
478.486	15299.01
478.691	15186.37
478.895	15313.34
479.1	15229.38
479.304	15075.78
479.509	14621.13
479.713	15100.36
479.918	14721.48
480.122	14475.73
480.326	14537.16
480.531	14553.55
480.735	14299.6
480.94	14438.86
481.144	14821.83
481.348	14078.42
481.553	14266.83
481.757	13887.96
481.961	14199.25
482.166	14412.24
482.37	14258.64
482.574	13998.55
482.778	14082.52
482.983	14197.2
483.187	13992.41
483.391	14049.75
483.595	13961.69
483.8	13808.09
484.004	13922.77
484.208	14141.91
484.412	13986.26
484.616	14072.28
484.821	14098.9
485.025	13736.41
485.229	13953.49
485.433	13822.42
485.637	13853.14
485.841	13781.46
486.045	13783.51
486.249	13947.35
486.453	13664.73
486.657	13959.64
486.861	14033.36
487.065	13664.73
487.269	13783.51
487.473	13748.7
487.677	13910.49
487.881	14049.75
488.085	13908.44
488.289	14041.56
488.493	13926.87
488.697	13992.41
488.901	14029.27
489.105	13910.49
489.309	13988.31
489.512	14088.66
489.716	14025.17
489.92	14062.04
490.124	13834.71
490.328	14424.53
490.531	14213.59
490.735	14354.9
490.939	14457.29
491.143	14025.17
491.346	14346.7
491.55	14916.04
491.754	14803.4
491.958	14825.93
492.161	14701
492.365	14805.45
492.569	14678.47
492.772	14414.29
492.976	14762.44
493.18	14957
493.383	15174.08
493.587	14948.81
493.79	15503.81
493.994	15333.82
494.197	15169.99
494.401	15419.84
494.605	15198.66
494.808	15890.87
495.012	15612.35
495.215	15874.49
495.419	15856.06
495.622	15747.51
495.825	15913.4
496.029	16110
496.232	16611.76
496.436	16548.27
496.639	16880.04
496.843	16781.74
497.046	17136.04
497.249	17097.13
497.453	17256.87
497.656	17476
497.859	17643.93
498.063	17607.07
498.266	17887.64
498.469	17762.72
498.673	18192.79
498.876	18145.69
499.079	18964.87
499.282	18659.73
499.485	19249.54
499.689	19218.82
499.892	19700.09
500.095	19480.96
500.298	19992.95
500.501	20042.1
500.705	20443.51
500.908	20812.14
501.111	20728.17
501.314	20730.22
501.517	21141.86
501.72	21438.82
501.923	21115.24
502.126	21795.17
502.329	22106.46
502.532	22384.98
502.735	22184.28
502.938	22634.83
503.141	22946.12
503.344	23220.55
503.547	23271.75
503.75	23501.12
503.953	24146.23
504.156	24088.89
504.359	24387.89
504.562	24422.71
504.765	24852.78
504.968	25250.09
505.17	25340.2
505.373	25645.35
505.576	25987.36
505.779	26339.61
505.982	26343.7
506.185	27011.34
506.387	27105.55
506.59	27191.56
506.793	27937.02
506.996	27859.2
507.198	28688.63
507.401	28326.14
507.604	28635.38
507.807	29524.2
508.009	29479.14
508.212	29442.28
508.415	30007.52
508.617	29935.84
508.82	30570.71
509.022	30335.2
509.225	30951.63
509.428	31299.79
509.63	31414.48
509.833	31887.56
510.035	32358.59
510.238	31967.43
510.44	32647.35
510.643	33075.38
510.845	33347.76
511.048	33392.81
511.25	33738.92
511.453	33931.43
511.655	35031.19
511.858	34842.77
512.06	35336.34
512.262	35453.07
512.465	35618.96
512.667	36036.74
512.87	36362.37
513.072	36372.61
513.274	36974.71
513.477	37675.12
513.679	37861.48
513.881	38264.93
514.084	38541.41
514.286	38242.4
514.488	38760.54
514.69	39655.5
514.893	39675.98
515.095	40030.28
515.297	40464.45
515.499	40325.19
515.701	41175.09
515.904	41496.63
516.106	41373.75
516.308	41959.47
516.51	42350.63
516.712	42266.66
516.914	42465.31
517.116	43677.71
517.318	43671.57
517.52	44136.46
517.722	44009.48
517.925	44417.03
518.127	45232.12
518.329	45498.36
518.531	44951.55
518.733	45975.53
518.935	46530.53
519.136	46731.23
519.338	47290.33
519.54	47232.99
519.742	47673.3
519.944	47839.18
520.146	48711.62
520.348	49043.39
520.55	48807.87
520.752	48621.51
520.954	50044.85
521.155	49518.52
521.357	50370.47
521.559	50853.79
521.761	50925.47
521.963	51128.22
522.164	51648.41
522.366	51867.54
522.568	52041.62
522.77	52287.37
522.971	52795.27
523.173	52631.43
523.375	53155.71
523.576	52770.69
523.778	53184.38
523.98	54177.65
524.181	54198.13
524.383	53845.88
524.584	54605.67
524.786	55144.29
524.988	54613.87
525.189	55132
525.391	55600.99
525.592	56166.23
525.794	56049.49
525.995	56125.27
526.197	56287.06
526.398	56373.07
526.6	56821.58
526.801	56786.76
527.003	57358.14
527.204	57241.41
527.406	57583.42
527.607	57190.21
527.808	57964.34
528.01	57349.95
528.211	57610.04
528.412	58722.09
528.614	58298.16
528.815	58156.85
529.016	58767.15
529.218	58271.54
529.419	58482.48
529.62	58484.53
529.822	58824.49
530.023	58992.42
530.224	59012.9
530.425	59121.44
530.626	58588.97
530.828	58877.74
531.029	59666.2
531.23	58935.08
531.431	59483.93
531.632	59381.54
531.833	59666.2
532.035	59508.51
532.236	59637.53
532.437	59864.86
532.638	59418.4
532.839	59750.17
533.04	59780.89
533.241	59352.86
533.442	60350.23
533.643	60038.93
533.844	59356.96
534.045	59975.45
534.246	59297.57
534.447	60165.91
534.648	59553.57
534.849	60196.63
535.05	59619.1
535.251	59901.72
535.451	59563.81
535.652	60440.34
535.853	60020.5
536.054	60014.36
536.255	60114.71
536.456	59414.3
536.657	61069.06
536.857	59805.47
537.058	59830.04
537.259	60217.11
537.46	59703.07
537.66	59512.61
537.861	60292.88
538.062	59621.15
538.263	60108.57
538.463	59541.28
538.664	59336.48
538.865	59473.7
539.065	60348.18
539.266	59645.72
539.466	60159.76
539.667	59432.74
539.868	60497.68
540.068	59516.7
540.269	59821.85
540.469	60131.09
540.67	59356.96
540.87	59653.92
541.071	59668.25
541.271	59901.72
541.472	59402.02
541.672	59651.87
541.873	59076.39
542.073	59057.96
542.274	60081.94
542.474	59313.95
542.675	59592.48
542.875	60043.03
543.075	59983.64
543.276	59420.45
543.476	59959.06
543.676	59322.15
543.877	59836.19
544.077	59172.64
544.277	59438.88
544.478	59371.3
544.678	59991.83
544.878	59592.48
545.078	59408.16
545.279	59545.37
545.479	59197.22
545.679	59354.91
545.879	59082.53
546.079	59148.07
546.28	59121.44
546.48	58593.07
546.68	59115.3
546.88	59391.78
547.08	59279.14
547.28	58998.57
547.48	58818.35
547.68	59256.61
547.88	58861.35
548.081	59258.66
548.281	59088.68
548.481	59146.02
548.681	59326.24
548.881	59057.96
549.081	58992.42
549.28	58586.92
549.48	59080.49
549.68	58681.13
549.88	59856.67
550.08	58390.32
550.28	59090.72
550.48	58863.4
550.68	59344.67
550.88	58578.73
551.08	58832.68
551.279	58615.6
551.479	58595.12
551.679	59008.81
551.879	58885.93
552.079	59201.32
552.278	58414.9
552.478	58576.68
552.678	58349.36
552.878	58711.85
553.077	58277.68
553.277	58355.5
553.477	58941.22
553.676	58496.81
553.876	58277.68
554.076	58189.62
554.275	58414.9
554.475	57804.6
554.674	58382.13
554.874	58375.98
555.074	58414.9
555.273	58269.49
555.473	58898.22
555.672	57907
555.872	58242.87
556.071	57827.13
556.271	57947.96
556.47	57995.06
556.67	57122.63
556.869	57345.86
557.068	58173.23
557.268	57556.8
557.467	57612.09
557.667	57552.7
557.866	57577.28
558.065	57454.4
558.265	57440.06
558.464	57288.51
558.663	57939.77
558.863	56698.7
559.062	58054.45
559.261	56948.55
559.461	57714.49
559.66	56993.6
559.859	57368.38
560.058	56608.59
560.258	57075.52
560.457	56506.19
560.656	57388.86
560.855	56964.93
561.054	57005.89
561.253	56233.81
561.453	56547.15
561.652	56973.13
561.851	56612.68
562.05	56147.79
562.249	55988.05
562.448	56627.02
562.647	55936.85
562.846	56104.79
563.045	56123.22
563.244	55795.54
563.443	56141.65
563.642	55496.54
563.841	55883.61
564.04	55809.88
564.239	56194.9
564.438	55283.55
564.637	55785.3
564.836	55445.34
565.035	54855.53
565.234	55263.07
565.432	55129.95
565.631	54689.64
565.83	55236.45
566.029	54896.48
566.228	55070.56
566.427	54830.95
566.625	54370.16
566.824	54478.7
567.023	54812.52
567.222	54050.67
567.42	54777.7
567.619	54341.49
567.818	54601.58
568.016	54290.29
568.215	54359.92
568.414	53974.9
568.612	54292.33
568.811	53731.19
569.01	54054.77
569.208	53157.76
569.407	53643.13
569.605	53094.27
569.804	53915.51
570.002	53464.95
570.201	53106.56
570.4	52537.22
570.598	53016.45
570.797	53073.79
570.995	53147.52
571.193	52096.91
571.392	52690.82
571.59	52270.99
571.789	52172.69
571.987	52010.9
572.186	52432.78
572.384	51556.25
572.582	52486.03
572.781	52504.46
572.979	51312.54
573.177	51736.47
573.376	51736.47
573.574	51038.11
573.772	51951.51
573.971	51249.05
574.169	51279.77
574.367	50349.99
574.565	51263.39
574.763	50761.64
574.962	50911.14
575.16	49932.21
575.358	50614.18
575.556	49792.95
575.754	51091.36
575.952	50243.5
576.151	50454.44
576.349	49969.07
576.547	50276.27
576.745	49825.71
576.943	49911.73
577.141	49354.68
577.339	50079.66
577.537	49315.77
577.735	49788.85
577.933	49141.69
578.131	49272.76
578.329	48691.14
578.527	48940.99
578.725	48857.03
578.923	48996.29
579.121	48666.56
579.319	48465.86
579.516	48496.58
579.714	48361.42
579.912	48244.68
580.11	47806.42
580.308	48177.1
580.506	47742.93
580.704	47325.14
580.901	47798.23
581.099	47943.63
581.297	46958.56
581.495	47402.97
581.692	47370.2
581.89	46817.25
582.088	47409.11
582.285	46895.07
582.483	47048.67
582.681	47007.71
582.878	46657.51
583.076	46421.99
583.274	46778.34
583.471	45930.48
583.669	46041.07
583.866	45740.02
584.064	45850.61
584.262	45459.44
584.459	46340.07
584.657	45481.97
584.854	45604.85
585.052	44804.09
585.249	45574.13
585.447	45422.58
585.644	45111.29
585.841	45021.18
586.039	45242.36
586.236	44392.45
586.434	44619.78
586.631	44290.05
586.828	44404.74
587.026	44306.44
587.223	44273.67
587.42	43933.71
587.618	44185.61
587.815	43808.78
588.012	43491.35
588.21	43620.37
588.407	43960.33
588.604	43816.97
588.801	43438.1
588.999	43112.47
589.196	43067.42
589.393	43298.84
589.59	42483.75
589.787	42485.79
589.984	42493.99
590.182	42393.64
590.379	42518.56
590.576	42020.91
590.773	42342.44
590.97	41986.09
591.167	42117.16
591.364	41789.48
591.561	41895.98
591.758	41295.92
591.955	41576.5
592.152	41814.06
592.349	41310.26
592.546	41289.78
592.743	41240.63
592.94	40745.02
593.137	40722.49
593.334	40857.66
593.531	40319.04
593.727	40368.19
593.924	40448.07
594.121	39989.32
594.318	40667.2
594.515	39817.29
594.712	40292.42
594.908	39583.82
595.105	40267.84
595.302	39405.65
595.499	39796.81
595.696	39258.2
595.892	39014.49
596.089	39202.9
596.286	39139.41
596.482	38985.82
596.679	38944.86
596.876	38883.42
597.072	38443.1
597.269	38291.55
597.466	37980.26
597.662	38109.29
597.859	38404.19
598.055	38140
598.252	37916.78
598.448	38068.33
598.645	37732.46
598.841	37595.24
599.038	37408.88
599.234	37533.81
599.431	37005.43
599.627	37087.35
599.824	37300.34
600.02	37089.4
600.217	37077.11
600.413	37120.12
600.609	36784.25
600.806	36714.62
601.002	36620.41
601.198	36053.12
601.395	36049.03
601.591	36026.5
601.787	36354.18
601.984	35803.27
602.18	36192.39
602.376	35866.76
602.572	35707.02
602.769	35610.76
602.965	35213.46
603.161	35360.91
603.357	35479.69
603.553	35643.53
603.75	34941.08
603.946	34711.7
604.142	35088.53
604.338	34527.39
604.534	35033.24
604.73	34533.53
604.926	34472.09
605.122	34451.61
605.318	34343.07
605.514	34193.57
605.71	33724.58
605.906	34156.71
606.102	34091.17
606.298	34117.79
606.494	33822.89
606.69	33593.51
606.886	33714.34
607.082	33366.19
607.278	33499.31
607.474	33015.99
607.67	33697.96
607.866	33022.13
608.062	33593.51
608.257	32784.57
608.453	32993.46
608.649	32792.76
608.845	32555.19
609.041	32759.99
609.236	32782.52
609.432	32712.89
609.628	32452.8
609.824	32757.94
610.019	32280.77
610.215	32241.85
610.411	32422.08
610.606	32086.21
610.802	32139.46
610.998	31809.73
611.193	32225.47
611.389	31860.93
611.584	31432.91
611.78	32035.01
611.976	31891.65
612.171	31631.56
612.367	31744.2
612.562	31482.06
612.758	31316.17
612.953	31527.11
613.149	31705.29
613.344	31539.4
613.539	31760.58
613.735	31199.44
613.93	31676.62
614.126	31086.8
614.321	31154.38
614.517	30822.61
614.712	31279.31
614.907	30742.74
615.103	30980.31
615.298	30716.12
615.493	30607.58
615.688	30556.38
615.884	30996.69
616.079	30384.35
616.274	30697.69
616.47	30742.74
616.665	30431.45
616.86	30236.89
617.055	30167.26
617.25	30353.63
617.445	30296.28
617.641	29638.89
617.836	30277.85
618.031	29917.41
618.226	30017.76
618.421	29475.05
618.616	30058.72
618.811	29518.06
619.006	29843.68
619.201	28766.45
619.396	29485.29
619.591	28932.34
619.786	29090.03
619.981	28440.82
620.176	28909.81
620.371	28455.16
620.566	28606.71
620.761	28107.01
620.956	28455.16
621.151	28100.86
621.346	28662.01
621.541	27607.3
621.735	28147.97
621.93	27511.05
622.125	27398.41
622.32	27074.83
622.515	27713.8
622.709	27072.78
622.904	27314.44
623.099	27191.56
623.294	26945.81
623.488	26272.03
623.683	26544.41
623.878	26399
624.072	26366.23
624.267	25968.93
624.462	26120.48
624.656	25874.72
624.851	25870.62
625.046	25583.91
625.24	25401.64
625.435	25411.88
625.629	25282.86
625.824	24977.71
626.018	24912.17
626.213	24371.51
626.407	24666.42
626.602	24420.66
626.796	24660.27
626.991	24234.3
627.185	24070.46
627.38	23750.98
627.574	23748.93
627.768	23791.94
627.963	23640.39
628.157	23271.75
628.352	23462.21
628.546	22896.97
628.74	23302.47
628.935	22788.43
629.129	22954.32
629.323	22573.39
629.517	22501.72
629.712	22368.6
629.906	22460.76
630.1	21979.48
630.294	22311.25
630.489	21741.92
630.683	22186.33
630.877	21557.6
631.071	21530.98
631.265	21729.63
631.459	21408.1
631.653	21471.59
631.848	21102.95
632.042	21088.62
632.236	21111.14
632.43	20861.29
632.624	21160.3
632.818	20799.85
633.012	20240.76
633.206	20453.75
633.4	20490.61
633.594	19982.71
633.788	20042.1
633.982	20029.82
634.176	20033.91
634.369	19876.22
634.563	19755.39
634.757	19573.12
634.951	19427.71
635.145	19374.47
635.339	19466.63
635.533	19302.79
635.726	19247.49
635.92	19069.32
636.114	19298.69
636.308	18864.52
636.501	18854.28
636.695	18719.12
636.889	18708.88
637.083	18491.79
637.276	18553.23
637.47	18207.12
637.664	18166.17
637.857	18278.8
638.051	18426.26
638.244	17779.1
638.438	17719.71
638.632	17781.15
638.825	17592.73
639.019	17633.69
639.212	17512.86
639.406	17551.77
639.599	17398.18
639.793	17158.56
639.986	17000.87
640.18	17185.19
640.373	16695.72
640.567	16613.81
640.76	16904.62
640.954	16480.69
641.147	16390.58
641.34	16495.02
641.534	16443.82
641.727	16220.6
641.92	16126.39
642.114	16124.34
642.307	16060.85
642.5	16148.92
642.694	15780.28
642.887	15483.33
643.08	15989.17
643.273	15681.98
643.467	15624.64
643.66	15395.26
643.853	15464.89
644.046	15059.4
644.239	15387.07
644.432	15192.51
644.626	15176.13
644.819	15086.02
645.012	14840.26
645.205	15030.73
645.398	14895.56
645.591	14715.34
645.784	14717.39
645.977	14494.16
646.17	14475.73
646.363	14434.77
646.556	14297.55
646.749	14201.3
646.942	14162.39
647.135	13963.73
647.328	13900.25
647.521	13955.54
647.714	13879.77
647.907	13881.81
648.099	13748.7
648.292	13941.21
648.485	13578.72
648.678	13476.32
648.871	13496.8
649.064	13169.12
649.256	13332.96
649.449	13324.77
649.642	13398.49
649.835	13013.48
650.027	13191.65
650.22	12894.69
650.413	12906.98
650.605	12691.94
650.798	12749.29
650.991	12530.16
651.183	12792.3
651.376	12376.56
651.568	12491.24
651.761	12263.92
651.954	12302.83
652.146	12198.38
652.339	12171.76
652.531	12349.93
652.724	12005.88
652.916	11958.77
653.109	12003.83
653.301	11985.4
653.494	12100.08
653.686	11803.13
653.879	11940.34
654.071	11522.55
654.263	11530.75
654.456	11426.3
654.648	11596.28
654.84	11493.88
655.033	11209.22
655.225	11313.66
655.417	11188.74
655.61	11352.57
655.802	11266.56
655.994	11037.19
656.186	11221.5
656.379	11086.34
656.571	10918.4
656.763	10705.42
656.955	10828.29
657.148	10736.13
657.34	10643.98
657.532	10527.24
657.724	10381.84
657.916	10662.41
658.108	10451.47
658.3	10486.28
658.492	10473.99
658.684	10271.25
658.876	10322.45
659.068	9929.24
659.26	10103.31
659.452	10086.93
659.644	10123.79
659.836	10039.83
660.028	9949.71
660.22	9767.45
660.412	9824.79
660.604	9783.83
660.796	9761.3
660.988	9581.08
661.18	9515.55
661.372	9482.78
661.563	9550.36
661.755	9390.62
661.947	9337.37
662.139	9364
662.331	9292.32
662.522	9024.03
662.714	9093.66
662.906	9015.84
663.097	9136.67
663.289	8954.4
663.481	8903.2
663.673	8999.46
663.864	8960.55
664.056	8671.78
664.247	8919.59
664.439	8571.43
664.631	8878.63
664.822	8591.91
665.014	8710.69
665.205	8636.97
665.397	8696.36
665.588	8526.38
665.78	8540.71
665.971	8585.77
666.163	8546.86
666.354	8460.84
666.546	8553
666.737	8239.66
666.929	8325.68
667.12	8231.47
667.311	8313.39
667.503	8024.62
667.694	8141.36
667.885	8155.69
668.077	8061.49
668.268	7944.75
668.459	7895.6
668.651	7883.31
668.842	7965.23
669.033	7815.73
669.224	7621.17
669.416	7846.45
669.607	7672.37
669.798	7729.72
669.989	7838.26
670.18	7707.19
670.371	7574.07
670.563	7557.69
670.754	7612.98
670.945	7483.96
671.136	7430.71
671.327	7408.19
671.518	7445.05
671.709	7311.93
671.9	7502.39
672.091	7436.86
672.282	7178.81
672.473	7209.53
672.664	7174.72
672.855	6988.35
673.046	7012.93
673.237	7002.69
673.428	7010.88
673.619	7113.28
673.809	6974.02
674	6750.79
674.191	6994.5
674.382	6853.19
674.573	6957.63
674.764	6949.44
674.954	6851.14
675.145	6869.57
675.336	6881.86
675.527	6662.72
675.717	6646.34
675.908	6578.76
676.099	6693.44
676.289	6607.43
676.48	6382.15
676.671	6543.94
676.861	6582.85
677.052	6601.29
677.243	6490.7
677.433	6492.74
677.624	6525.51
677.814	6363.72
678.005	6335.05
678.195	6435.4
678.386	6543.94
678.576	6482.5
678.767	6318.67
678.957	6298.19
679.148	6355.53
679.338	6236.75
679.529	6230.6
679.719	6179.4
679.909	6246.99
680.1	6267.47
680.29	6132.3
680.481	6087.25
680.671	6060.62
680.861	6093.39
681.052	6191.69
681.242	5956.18
681.432	6093.39
681.622	5804.63
681.813	6107.73
682.003	6070.86
682.193	5857.87
682.383	5958.22
682.573	5954.13
682.764	5890.64
682.954	5913.17
683.144	6015.57
683.334	5898.83
683.524	5954.13
683.714	5804.63
683.904	5706.32
684.094	5839.44
684.284	5640.79
684.474	5878.35
684.664	5679.7
684.854	5657.17
685.044	5569.11
685.234	5634.64
685.424	5532.25
685.614	5458.52
685.804	5487.19
685.994	5421.66
686.184	5448.28
686.374	5599.83
686.564	5448.28
686.753	5614.16
686.943	5208.67
687.133	5464.66
687.323	5124.7
687.513	5331.55
687.702	5429.85
687.892	5415.51
688.082	5235.29
688.272	5227.1
688.461	5306.97
688.651	5220.95
688.841	5075.55
689.03	5206.62
689.22	5081.69
689.41	5149.28
689.599	5108.32
689.789	4940.38
689.979	4985.44
690.168	5036.64
690.358	4809.31
690.547	4924
690.737	4991.58
690.926	5083.74
691.116	4866.66
691.305	4889.18
691.495	4840.03
691.684	4749.92
691.874	4770.4
692.063	4639.33
692.252	4788.83
692.442	4704.87
692.631	4575.84
692.82	4606.56
693.01	4657.76
693.199	4577.89
693.388	4631.14
693.578	4536.93
693.767	4557.41
693.956	4528.74
694.146	4465.25
694.335	4538.98
694.524	4444.77
694.713	4424.3
694.902	4446.82
695.092	4444.77
695.281	4371.05
695.47	4352.62
695.659	4432.49
695.848	4342.38
696.037	4455.01
696.226	4282.99
696.415	4266.6
696.604	4412.01
696.793	4342.38
696.982	4221.55
697.171	4033.13
697.36	4348.52
697.549	4227.69
697.738	4194.92
697.927	4199.02
698.116	4262.51
698.305	4192.87
698.494	4268.65
698.683	4031.09
698.872	4297.32
699.061	4115.05
699.25	4086.38
699.438	4045.42
699.627	4215.4
699.816	4194.92
700.005	4219.5
700.193	4059.76
700.382	4125.29
700.571	4020.85
700.76	4151.92
700.948	4190.83
701.137	4100.72
701.326	4074.09
701.514	4012.65
701.703	4088.43
701.892	4084.33
702.08	3969.65
702.269	3932.78
702.457	3918.45
702.646	3916.4
702.834	3910.26
703.023	3953.26
703.212	3799.66
703.4	3869.3
703.589	3887.73
703.777	3834.48
703.965	3844.72
704.154	3961.45
704.342	3791.47
704.531	3826.29
704.719	3852.91
704.907	3791.47
705.096	3820.14
705.284	3684.98
705.472	3877.49
705.661	3773.04
705.849	3695.22
706.037	3756.66
706.226	3582.58
706.414	3721.84
706.602	3672.69
706.79	3816.05
706.979	3697.27
707.167	3822.19
707.355	3652.21
707.543	3641.97
707.731	3770.99
707.919	3525.24
708.107	3701.36
708.296	3727.99
708.484	3644.02
708.672	3658.35
708.86	3611.25
709.048	3619.44
709.236	3506.81
709.424	3633.78
709.612	3560.05
709.8	3445.37
709.988	3502.71
710.176	3570.29
710.364	3447.41
710.551	3531.38
710.739	3508.85
710.927	3515
711.115	3488.37
711.303	3568.24
711.491	3443.32
711.679	3259
711.866	3457.65
712.054	3588.72
712.242	3482.23
712.43	3377.78
712.617	3459.7
712.805	3383.93
712.993	3455.61
713.181	3367.54
713.368	3375.74
713.556	3449.46
713.744	3318.39
713.931	3453.56
714.119	3340.92
714.306	3381.88
714.494	3394.17
714.682	3318.39
714.869	3281.53
715.057	3299.96
715.244	3267.19
715.432	3281.53
715.619	3230.33
715.807	3312.25
715.994	3213.95
716.182	3203.71
716.369	3297.91
716.556	3367.54
716.744	3416.69
716.931	3248.76
717.119	3342.97
717.306	3213.95
717.493	3312.25
717.681	3277.43
717.868	3224.19
718.055	3213.95
718.242	3154.55
718.43	3115.64
718.617	3228.28
718.804	3109.5
718.991	3236.47
719.179	3144.31
719.366	2929.28
719.553	3172.99
719.74	3142.27
719.927	3093.12
720.114	3132.03
720.301	3162.75
720.488	3011.2
720.676	2982.53
720.863	3191.42
721.05	3125.88
721.237	3101.31
721.424	3025.53
721.611	3203.71
721.798	3148.41
721.985	3050.11
722.172	2974.33
722.358	3129.98
722.545	3095.16
722.732	3007.1
722.919	3066.49
723.106	2894.46
723.293	2927.23
723.48	3009.15
723.667	2824.83
723.853	2939.52
724.04	2976.38
724.227	2974.33
724.414	2853.5
724.6	2996.86
724.787	2943.61
724.974	3048.06
725.161	2912.89
725.347	2904.7
725.534	2937.47
725.72	2947.71
725.907	2873.98
726.094	2886.27
726.28	2830.98
726.467	2839.17
726.653	2798.21
726.84	2910.85
727.027	2947.71
727.213	2851.46
727.4	2806.4
727.586	2851.46
727.773	2898.56
727.959	2890.37
728.145	2861.69
728.332	2888.32
728.518	2828.93
728.705	2927.23
728.891	2667.14
729.077	2841.22
729.264	2757.25
729.45	2806.4
729.636	2820.74
729.823	2812.54
730.009	2775.68
730.195	2747.01
730.382	2800.26
730.568	2730.62
730.754	2814.59
730.94	2650.75
731.126	2792.06
731.313	2806.4
731.499	2785.92
731.685	2734.72
731.871	2679.43
732.057	2667.14
732.243	2757.25
732.429	2724.48
732.615	2732.67
732.801	2738.82
732.987	2701.95
733.173	2671.23
733.359	2644.61
733.545	2646.66
733.731	2601.6
733.917	2654.85
734.103	2663.04
734.289	2634.37
734.475	2507.4
734.661	2583.17
734.847	2665.09
735.033	2579.08
735.219	2644.61
735.404	2615.94
735.59	2706.05
735.776	2628.23
735.962	2609.79
736.148	2527.88
736.333	2564.74
736.519	2462.34
736.705	2613.89
736.89	2548.36
737.076	2595.46
737.262	2525.83
737.447	2484.87
737.633	2581.12
737.819	2519.68
738.004	2372.23
738.19	2433.67
738.375	2435.72
738.561	2525.83
738.747	2380.42
738.932	2355.85
739.118	2546.31
739.303	2499.2
739.489	2429.57
739.674	2423.43
739.859	2468.48
740.045	2335.37
740.23	2499.2
740.416	2318.98
740.601	2343.56
740.786	2425.48
740.972	2263.69
741.157	2312.84
741.342	2255.5
741.528	2329.22
741.713	2210.44
741.898	2388.61
742.084	2302.6
742.269	2450.05
742.454	2376.33
742.639	2341.51
742.824	2345.61
743.01	2241.16
743.195	2278.02
743.38	2257.54
743.565	2216.58
743.75	2251.4
743.935	2232.97
744.12	2353.8
744.305	2310.79
744.49	2149
744.675	2161.29
744.86	2114.19
745.045	2116.23
745.23	2179.72
745.415	2149
745.6	2013.84
745.785	2126.47
745.97	2159.24
746.155	2155.15
746.34	2087.56
746.525	2149
746.71	2062.99
746.895	2075.27
747.079	1976.97
747.264	1915.53
747.449	2024.08
747.634	2060.94
747.819	2024.08
748.003	1987.21
748.188	1878.67
748.373	1970.83
748.557	1948.3
748.742	1944.2
748.927	1925.77
749.111	1872.53
749.296	2017.93
749.481	1921.68
749.665	1850
749.85	1772.18
750.034	1893.01
750.219	1811.09
750.404	1958.54
750.588	1786.51
750.773	1747.6
750.957	1780.37
751.141	1641.11
751.326	1804.94
751.51	1714.83
751.695	1706.64
751.879	1755.79
752.064	1720.98
752.248	1696.4
752.432	1669.78
752.617	1567.38
752.801	1675.92
752.985	1583.76
753.17	1610.39
753.354	1669.78
753.538	1587.86
753.722	1612.43
753.907	1594
754.091	1587.86
754.275	1499.8
754.459	1544.85
754.643	1567.38
754.828	1559.19
755.012	1565.33
755.196	1497.75
755.38	1579.67
755.564	1397.4
755.748	1487.51
755.932	1536.66
756.116	1495.7
756.3	1632.91
756.484	1475.22
756.668	1432.21
756.852	1417.88
757.036	1446.55
757.22	1428.12
757.404	1503.89
757.588	1323.67
757.772	1368.73
757.956	1356.44
758.14	1356.44
758.323	1370.77
758.507	1352.34
758.691	1331.86
758.875	1249.94
759.059	1419.92
759.242	1383.06
759.426	1309.33
759.61	1307.29
759.794	1262.23
759.977	1274.52
760.161	1374.87
760.345	1180.31
760.528	1278.62
760.712	1272.47
760.895	1182.36
761.079	1282.71
761.263	1262.23
761.446	1241.75
761.63	1147.55
761.813	1233.56
761.997	1196.7
762.18	1192.6
762.364	1190.55
762.547	1106.59
762.731	1094.3
762.914	1122.97
763.098	1182.36
763.281	1286.81
763.464	1194.65
763.648	1172.12
763.831	1125.02
764.015	1223.32
764.198	1157.78
764.381	1137.31
764.564	1079.96
764.748	1122.97
764.931	1057.43
765.114	1024.67
765.297	1129.11
765.481	1100.44
765.664	1049.24
765.847	1149.59
766.03	1143.45
766.213	1018.52
766.397	1118.87
766.58	1069.72
766.763	1077.91
766.946	1071.77
767.129	1084.06
767.312	1069.72
767.495	1020.57
767.678	989.85
767.861	1069.72
768.044	952.99
768.227	1010.33
768.41	1020.57
768.593	1006.24
768.776	926.36
768.959	938.65
769.142	1036.95
769.324	977.56
769.507	971.42
769.69	1018.52
769.873	957.08
770.056	1026.71
770.239	877.21
770.421	998.04
770.604	895.64
770.787	936.6
770.97	914.08
771.152	1002.14
771.335	985.76
771.518	971.42
771.7	907.93
771.883	926.36
772.066	944.8
772.248	955.04
772.431	957.08
772.613	903.84
772.796	930.46
772.978	854.69
773.161	1043.1
773.343	871.07
773.526	965.28
773.708	873.12
773.891	821.92
774.073	963.23
774.256	832.16
774.438	907.93
774.621	881.31
774.803	856.73
774.985	746.14
775.168	912.03
775.35	780.96
775.532	778.91
775.715	791.2
775.897	770.72
776.079	848.54
776.261	828.06
776.444	740
776.626	817.82
776.808	760.48
776.99	742.05
777.173	785.05
777.355	656.03
777.537	719.52
777.719	772.77
777.901	754.34
778.083	746.14
778.265	692.9
778.447	699.04
778.629	778.91
778.811	762.53
778.993	742.05
779.175	729.76
779.357	789.15
779.539	643.74
779.721	676.51
779.903	711.33
780.085	606.88
780.267	756.38
780.449	672.42
780.631	678.56
780.812	723.62
780.994	633.51
781.176	633.51
781.358	662.18
781.54	631.46
781.721	649.89
781.903	651.94
782.085	740
782.267	641.7
782.448	547.49
782.63	553.63
782.812	553.63
782.993	580.26
783.175	660.13
783.357	584.35
783.538	567.97
783.72	557.73
783.901	565.92
784.083	506.53
784.264	574.11
784.446	545.44
784.627	520.87
784.809	512.67
784.99	592.55
785.172	518.82
785.353	551.59
785.535	465.57
785.716	516.77
785.897	522.91
786.079	522.91
786.26	547.49
786.441	473.76
786.623	502.43
786.804	436.9
786.985	473.76
787.167	531.11
787.348	455.33
787.529	543.39
787.71	486.05
787.891	467.62
788.073	424.61
788.254	369.32
788.435	496.29
788.616	414.37
788.797	445.09
788.978	453.28
789.159	449.19
789.34	434.85
789.522	449.19
789.703	426.66
789.884	416.42
790.065	455.33
790.246	447.14
790.427	393.89
790.607	461.48
790.788	389.8
790.969	422.56
791.15	455.33
791.331	383.65
791.512	457.38
791.693	367.27
791.874	371.37
792.054	420.52
792.235	383.65
792.416	369.32
792.597	387.75
792.778	361.13
792.958	277.16
793.139	373.41
793.32	340.65
793.5	332.45
793.681	338.6
793.862	367.27
794.042	354.98
794.223	311.97
794.404	297.64
794.584	326.31
794.765	352.93
794.945	332.45
795.126	408.23
795.306	346.79
795.487	334.5
795.667	311.97
795.848	359.08
796.028	309.93
796.209	391.84
796.389	342.69
796.57	336.55
796.75	268.97
796.93	352.93
797.111	266.92
797.291	357.03
797.471	328.36
797.652	336.55
797.832	273.06
798.012	393.89
798.192	283.3
798.373	297.64
798.553	330.41
798.733	330.41
798.913	281.25
799.093	332.45
799.274	289.45
799.454	281.25
799.634	293.54
799.814	234.15
799.994	223.91
800.174	275.11
800.354	297.64
800.534	260.77
800.714	299.69
800.894	234.15
801.074	264.87
801.254	273.06
801.434	268.97
801.614	289.45
801.794	228.01
801.974	670.37
802.154	299.69
802.334	281.25
802.514	187.05
802.693	279.21
802.873	203.43
803.053	314.02
803.233	240.29
803.413	328.36
803.592	172.71
803.772	268.97
803.952	225.96
804.131	330.41
804.311	232.1
804.491	281.25
804.67	236.2
804.85	232.1
805.03	266.92
805.209	232.1
805.389	219.82
805.568	180.9
805.748	219.82
805.928	236.2
806.107	266.92
806.287	207.53
806.466	203.43
806.646	244.39
806.825	203.43
807.004	268.97
807.184	160.42
807.363	273.06
807.543	228.01
807.722	187.05
807.901	260.77
808.081	203.43
808.26	197.29
808.439	213.67
808.619	166.57
808.798	211.62
808.977	225.96
809.156	240.29
809.336	209.58
809.515	199.34
809.694	176.81
809.873	166.57
810.052	174.76
810.231	230.06
810.411	246.44
810.59	121.51
810.769	197.29
810.948	195.24
811.127	141.99
811.306	156.33
811.485	168.62
811.664	172.71
811.843	191.14
812.022	182.95
812.201	213.67
812.38	207.53
812.559	144.04
812.737	199.34
812.916	213.67
813.095	160.42
813.274	144.04
813.453	254.63
813.632	125.61
813.811	260.77
813.989	172.71
814.168	117.42
814.347	160.42
814.526	217.77
814.704	250.53
814.883	191.14
815.062	221.86
815.24	185
815.419	156.33
815.598	189.1
815.776	82.6
815.955	189.1
816.133	148.14
816.312	129.7
816.49	113.32
816.669	86.7
816.847	123.56
817.026	199.34
817.204	131.75
817.383	189.1
817.561	150.18
817.74	209.58
817.918	174.76
818.097	146.09
818.275	101.03
818.453	221.86
818.632	98.99
818.81	217.77
818.988	209.58
819.167	133.8
819.345	172.71
819.523	154.28
819.701	64.17
819.879	211.62
820.058	195.24
820.236	76.46
820.414	156.33
820.592	144.04
820.77	152.23
820.948	195.24
821.127	115.37
821.305	68.27
821.483	123.56
821.661	133.8
821.839	203.43
822.017	27.31
822.195	111.27
822.373	182.95
822.551	96.94
822.729	127.66
822.907	41.64
823.085	35.5
823.262	158.38
823.44	123.56
823.618	117.42
823.796	78.51
823.974	86.7
824.152	68.27
824.329	156.33
824.507	178.86
824.685	96.94
824.863	115.37
825.04	156.33
825.218	103.08
825.396	92.84
825.574	221.86
825.751	92.84
825.929	90.79
826.107	162.47
826.284	133.8
826.462	172.71
826.639	148.14
826.817	70.31
826.994	162.47
827.172	92.84
827.349	98.99
827.527	166.57
827.704	185
827.882	121.51
828.059	168.62
828.237	113.32
828.414	119.46
828.591	139.94
828.769	119.46
828.946	113.32
829.124	139.94
829.301	76.46
829.478	166.57
829.655	66.22
829.833	123.56
830.01	45.74
830.187	146.09
830.364	144.04
830.542	51.88
830.719	172.71
830.896	92.84
831.073	152.23
831.25	127.66
831.427	31.4
831.604	109.22
831.782	68.27
831.959	43.69
832.136	64.17
832.313	127.66
832.49	17.07
832.667	125.61
832.844	125.61
833.021	162.47
833.198	105.13
833.374	123.56
833.551	39.59
833.728	131.75
833.905	158.38
834.082	103.08
834.259	70.31
834.436	113.32
834.612	90.79
834.789	135.85
834.966	90.79
835.143	113.32
835.319	92.84
835.496	84.65
835.673	111.27
835.85	88.75
836.026	166.57
836.203	51.88
836.38	68.27
836.556	29.35
836.733	72.36
836.909	146.09
837.086	62.12
837.262	92.84
837.439	88.75
837.616	121.51
837.792	123.56
837.968	141.99
838.145	29.35
838.321	105.13
838.498	76.46
838.674	78.51
838.851	41.64
839.027	8.87
839.203	90.79
839.38	82.6
839.556	92.84
839.732	31.4
839.909	68.27
840.085	123.56
840.261	74.41
840.437	74.41
840.614	121.51
840.79	86.7
840.966	74.41
841.142	125.61
841.318	70.31
841.494	78.51
841.671	84.65
841.847	4.78
842.023	37.55
842.199	64.17
842.375	39.59
842.551	31.4
842.727	76.46
842.903	82.6
843.079	23.21
843.255	53.93
843.431	135.85
843.607	109.22
843.783	37.55
843.959	90.79
844.134	72.36
844.31	156.33
844.486	12.97
844.662	31.4
844.838	101.03
845.013	60.07
845.189	78.51
845.365	119.46
845.541	88.75
845.716	127.66
845.892	107.18
846.068	60.07
846.244	29.35
846.419	119.46
846.595	66.22
846.77	-1.37
846.946	31.4
847.122	62.12
847.297	58.03
847.473	146.09
847.648	47.79
847.824	172.71
847.999	0.68
848.175	60.07
848.35	111.27
848.526	72.36
848.701	41.64
848.876	92.84
849.052	86.7
849.227	17.07
849.403	72.36
849.578	103.08
849.753	53.93
849.929	70.31
850.104	4.78
850.279	37.55
850.454	55.98
850.63	64.17
850.805	98.99
850.98	96.94
851.155	55.98
851.33	107.18
851.505	37.55
851.681	160.42
851.856	60.07
852.031	51.88
852.206	49.83
852.381	80.55
852.556	58.03
852.731	80.55
852.906	74.41
853.081	62.12
853.256	101.03
853.431	64.17
853.606	27.31
853.781	29.35
853.956	10.92
854.131	29.35
854.305	58.03
854.48	41.64
854.655	90.79
854.83	27.31
855.005	72.36
855.18	84.65
855.354	45.74
855.529	25.26
855.704	72.36
855.879	37.55
856.053	0.68
856.228	62.12
856.403	105.13
856.577	113.32
856.752	45.74
856.926	78.51
857.101	35.5
857.276	-17.75
857.45	35.5
857.625	25.26
857.799	121.51
857.974	29.35
858.148	6.83
858.323	49.83
858.497	41.64
858.672	94.89
858.846	45.74
859.02	39.59
859.195	-46.42
859.369	43.69
859.543	33.45
859.718	113.32
859.892	78.51
860.066	94.89
860.241	74.41
860.415	86.7
860.589	-1.37
860.763	43.69
860.938	49.83
861.112	-38.23
861.286	8.87
861.46	76.46
861.634	39.59
861.808	41.64
861.982	74.41
862.157	74.41
862.331	41.64
862.505	15.02
862.679	-7.51
862.853	64.17
863.027	-19.8
863.201	80.55
863.375	12.97
863.549	74.41
863.722	6.83
863.896	39.59
864.07	0.68
864.244	82.6
864.418	45.74
864.592	74.41
864.766	-38.23
864.939	17.07
865.113	43.69
865.287	111.27
865.461	12.97
865.634	103.08
865.808	74.41
865.982	92.84
866.156	66.22
866.329	17.07
866.503	55.98
866.676	107.18
866.85	47.79
867.024	39.59
867.197	55.98
867.371	121.51
867.544	39.59
867.718	84.65
867.891	47.79
868.065	70.31
868.238	74.41
868.412	-1.37
868.585	55.98
868.759	58.03
868.932	41.64
869.105	6.83
869.279	-15.7
869.452	33.45
869.625	148.14
869.799	33.45
869.972	19.11
870.145	103.08
870.319	47.79
870.492	21.16
870.665	-32.08
870.838	21.16
871.011	35.5
871.185	45.74
871.358	6.83
871.531	-27.99
871.704	-15.7
871.877	27.31
872.05	86.7
872.223	-17.75
872.396	90.79
872.569	-36.18
872.742	37.55
872.915	86.7
873.088	62.12
873.261	-1.37
873.434	68.27
873.607	58.03
873.78	43.69
873.953	-1.37
874.126	15.02
874.299	27.31
874.471	-52.56
874.644	62.12
874.817	-1.37
874.99	-19.8
875.163	86.7
875.335	17.07
875.508	0.68
875.681	60.07
875.853	23.21
876.026	17.07
876.199	-19.8
876.371	33.45
876.544	41.64
876.717	47.79
876.889	21.16
877.062	51.88
877.234	43.69
877.407	98.99
877.579	25.26
877.752	-7.51
877.924	43.69
878.097	60.07
878.269	86.7
878.442	25.26
878.614	-21.85
878.786	-15.7
878.959	47.79
879.131	35.5
879.303	12.97
879.476	31.4
879.648	41.64
879.82	60.07
879.993	-27.99
880.165	17.07
880.337	19.11
880.509	74.41
880.681	0.68
880.854	-9.56
881.026	58.03
881.198	80.55
881.37	51.88
881.542	-3.41
881.714	84.65
881.886	4.78
882.058	88.75
882.23	49.83
882.402	74.41
882.574	8.87
882.746	74.41
882.918	68.27
883.09	55.98
883.262	-5.46
883.434	70.31
883.606	6.83
883.778	8.87
883.95	92.84
884.122	33.45
884.293	-7.51
884.465	-32.08
884.637	31.4
884.809	-40.28
884.98	62.12
885.152	60.07
885.324	49.83
885.496	72.36
885.667	2.73
885.839	-23.89
886.011	193.19
886.182	-44.37
886.354	-3.41
886.525	15.02
886.697	27.31
886.869	-13.65
887.04	29.35
887.212	17.07
887.383	68.27
887.555	23.21
887.726	35.5
887.897	-40.28
888.069	78.51
888.24	111.27
888.412	-19.8
888.583	88.75
888.754	84.65
888.926	-23.89
889.097	-68.95
889.268	-11.61
889.44	17.07
889.611	49.83
889.782	-48.47
889.953	15.02
890.125	4.78
890.296	8.87
890.467	15.02
890.638	-11.61
890.809	-9.56
890.98	60.07
891.151	33.45
891.323	60.07
891.494	70.31
891.665	-11.61
891.836	-15.7
892.007	8.87
892.178	27.31
892.349	47.79
892.52	-11.61
892.691	-3.41
892.862	21.16
893.032	4.78
893.203	6.83
893.374	64.17
893.545	25.26
893.716	35.5
893.887	41.64
894.057	35.5
894.228	6.83
894.399	-3.41
894.57	19.11
894.74	25.26
894.911	68.27
895.082	-11.61
895.253	25.26
895.423	25.26
895.594	37.55
895.764	27.31
895.935	-48.47
896.106	58.03
896.276	-11.61
896.447	25.26
896.617	27.31
896.788	29.35
896.958	58.03
897.129	62.12
897.299	-5.46
897.47	43.69
897.64	55.98
897.81	35.5
897.981	-11.61
898.151	27.31
898.322	2.73
898.492	-13.65
898.662	23.21
898.832	-1.37
899.003	47.79
899.173	47.79
899.343	-95.57
899.513	-40.28
