Data from USB4F104151__52__12-36-16-396.txt Node

Date: Fri Mar 14 12:36:16 EDT 2025
User: louis
Spectrometer: USB4F10415
Trigger mode: 4
Integration Time (sec): 2.000000E-2
Scans to average: 1
Electric dark correction enabled: true
Nonlinearity correction enabled: false
Boxcar width: 0
XAxis mode: Wavelengths
Number of Pixels in Spectrum: 3648
>>>>>Begin Spectral Data<<<<<
178.204	-81.92
178.424	-81.92
178.644	-81.92
178.864	-98.3
179.084	-102.4
179.304	-55.3
179.524	32.77
179.744	16.38
179.964	67.58
180.184	8.19
180.404	8.19
180.624	-4.1
180.844	49.15
181.064	-88.06
181.283	-30.72
181.503	-57.34
181.723	53.25
181.943	14.34
182.163	-10.24
182.383	32.77
182.602	30.72
182.822	12.29
183.042	43.01
183.262	-8.19
183.482	36.86
183.701	53.25
183.921	-20.48
184.141	-36.86
184.361	122.88
184.58	18.43
184.8	20.48
185.02	-34.82
185.239	32.77
185.459	-20.48
185.679	65.53
185.898	-10.24
186.118	-10.24
186.338	-10.24
186.557	24.58
186.777	0
186.997	-14.34
187.216	20.48
187.436	-18.43
187.655	-57.34
187.875	57.34
188.095	30.72
188.314	122.88
188.534	96.25
188.753	0
188.973	18.43
189.192	165.89
189.412	45.06
189.631	12.29
189.851	-18.43
190.07	-26.62
190.29	-16.38
190.509	38.91
190.729	-30.72
190.948	59.39
191.168	38.91
191.387	-10.24
191.607	14.34
191.826	4.1
192.045	6.14
192.265	-16.38
192.484	32.77
192.704	20.48
192.923	10.24
193.142	38.91
193.362	6.14
193.581	86.01
193.8	88.06
194.02	16.38
194.239	-30.72
194.458	-28.67
194.678	-6.14
194.897	36.86
195.116	8.19
195.335	-14.34
195.555	57.34
195.774	28.67
195.993	-12.29
196.212	-28.67
196.432	28.67
196.651	-45.06
196.87	24.58
197.089	86.01
197.308	55.3
197.528	49.15
197.747	88.06
197.966	-63.49
198.185	94.21
198.404	2.05
198.623	55.3
198.842	36.86
199.062	38.91
199.281	79.87
199.5	57.34
199.719	38.91
199.938	47.1
200.157	110.59
200.376	30.72
200.595	45.06
200.814	14.34
201.033	2.05
201.252	8.19
201.471	75.77
201.69	36.86
201.909	40.96
202.128	-14.34
202.347	63.49
202.566	49.15
202.785	32.77
203.004	-53.25
203.223	51.2
203.442	2.05
203.661	14.34
203.879	10.24
204.098	96.25
204.317	-14.34
204.536	-16.38
204.755	53.25
204.974	53.25
205.193	22.53
205.411	32.77
205.63	36.86
205.849	57.34
206.068	83.97
206.287	-28.67
206.505	86.01
206.724	-34.82
206.943	-51.2
207.162	18.43
207.381	30.72
207.599	10.24
207.818	-14.34
208.037	47.1
208.255	106.49
208.474	-16.38
208.693	81.92
208.911	61.44
209.13	24.58
209.349	-10.24
209.567	40.96
209.786	24.58
210.005	0
210.223	-6.14
210.442	14.34
210.661	43.01
210.879	-16.38
211.098	24.58
211.316	26.62
211.535	30.72
211.753	18.43
211.972	63.49
212.191	-20.48
212.409	4.1
212.628	22.53
212.846	4.1
213.065	38.91
213.283	-8.19
213.502	16.38
213.72	20.48
213.938	36.86
214.157	55.3
214.375	-4.1
214.594	28.67
214.812	61.44
215.031	40.96
215.249	-2.05
215.467	30.72
215.686	36.86
215.904	34.82
216.122	49.15
216.341	10.24
216.559	-22.53
216.778	10.24
216.996	20.48
217.214	-4.1
217.432	-10.24
217.651	16.38
217.869	-12.29
218.087	-34.82
218.306	53.25
218.524	-28.67
218.742	4.1
218.96	-18.43
219.179	-6.14
219.397	47.1
219.615	30.72
219.833	-2.05
220.051	-38.91
220.27	-36.86
220.488	45.06
220.706	43.01
220.924	38.91
221.142	-4.1
221.36	-14.34
221.578	12.29
221.796	65.53
222.015	4.1
222.233	83.97
222.451	34.82
222.669	55.3
222.887	63.49
223.105	10.24
223.323	32.77
223.541	-10.24
223.759	100.35
223.977	-14.34
224.195	47.1
224.413	24.58
224.631	63.49
224.849	-14.34
225.067	-18.43
225.285	0
225.503	71.68
225.721	-24.58
225.939	-65.54
226.157	73.73
226.375	102.4
226.592	30.72
226.81	-22.53
227.028	-4.1
227.246	83.97
227.464	38.91
227.682	22.53
227.9	6.14
228.117	-8.19
228.335	2.05
228.553	-6.14
228.771	59.39
228.989	32.77
229.206	57.34
229.424	51.2
229.642	-12.29
229.86	22.53
230.077	45.06
230.295	10.24
230.513	69.63
230.731	0
230.948	51.2
231.166	10.24
231.384	30.72
231.601	-38.91
231.819	26.62
232.037	34.82
232.254	10.24
232.472	20.48
232.689	2.05
232.907	2.05
233.125	8.19
233.342	-20.48
233.56	-16.38
233.777	-47.1
233.995	86.01
234.213	18.43
234.43	0
234.648	-12.29
234.865	6.14
235.083	18.43
235.3	12.29
235.518	38.91
235.735	-32.77
235.953	65.53
236.17	-4.1
236.388	59.39
236.605	55.3
236.822	71.68
237.04	26.62
237.257	30.72
237.475	-4.1
237.692	-18.43
237.909	57.34
238.127	32.77
238.344	43.01
238.562	20.48
238.779	38.91
238.996	83.97
239.214	36.86
239.431	28.67
239.648	-67.58
239.865	67.58
240.083	126.97
240.3	-36.86
240.517	-43.01
240.735	94.21
240.952	88.06
241.169	8.19
241.386	47.1
241.603	12.29
241.821	-4.1
242.038	47.1
242.255	-47.1
242.472	10.24
242.689	-36.86
242.907	34.82
243.124	2.05
243.341	-53.25
243.558	26.62
243.775	0
243.992	20.48
244.209	8.19
244.426	51.2
244.643	49.15
244.86	12.29
245.078	26.62
245.295	67.58
245.512	-53.25
245.729	-32.77
245.946	2.05
246.163	69.63
246.38	92.16
246.597	24.58
246.814	36.86
247.031	-24.58
247.248	106.49
247.464	-2.05
247.681	0
247.898	16.38
248.115	40.96
248.332	-26.62
248.549	67.58
248.766	16.38
248.983	24.58
249.2	-34.82
249.417	88.06
249.633	-6.14
249.85	22.53
250.067	67.58
250.284	22.53
250.501	-4.1
250.717	81.92
250.934	16.38
251.151	47.1
251.368	10.24
251.585	18.43
251.801	-20.48
252.018	0
252.235	-2.05
252.451	-12.29
252.668	-6.14
252.885	49.15
253.102	10.24
253.318	-45.06
253.535	-6.14
253.752	-8.19
253.968	53.25
254.185	30.72
254.401	38.91
254.618	34.82
254.835	-16.38
255.051	53.25
255.268	34.82
255.484	32.77
255.701	-16.38
255.917	63.49
256.134	-32.77
256.351	47.1
256.567	34.82
256.784	-22.53
257	-2.05
257.217	43.01
257.433	6.14
257.65	22.53
257.866	20.48
258.082	20.48
258.299	-28.67
258.515	6.14
258.732	-12.29
258.948	59.39
259.165	12.29
259.381	38.91
259.597	43.01
259.814	20.48
260.03	47.1
260.246	-2.05
260.463	8.19
260.679	67.58
260.895	32.77
261.112	98.3
261.328	16.38
261.544	-20.48
261.761	94.21
261.977	67.58
262.193	38.91
262.409	18.43
262.626	90.11
262.842	16.38
263.058	18.43
263.274	38.91
263.49	8.19
263.707	10.24
263.923	38.91
264.139	73.73
264.355	2.05
264.571	61.44
264.787	20.48
265.004	24.58
265.22	-53.25
265.436	38.91
265.652	0
265.868	10.24
266.084	6.14
266.3	75.77
266.516	-8.19
266.732	-8.19
266.948	0
267.164	65.53
267.38	14.34
267.596	2.05
267.812	63.49
268.028	57.34
268.244	18.43
268.46	0
268.676	28.67
268.892	40.96
269.108	57.34
269.324	-24.58
269.54	92.16
269.756	49.15
269.972	14.34
270.188	30.72
270.403	-18.43
270.619	92.16
270.835	6.14
271.051	34.82
271.267	12.29
271.483	6.14
271.698	20.48
271.914	43.01
272.13	12.29
272.346	65.53
272.562	45.06
272.777	-12.29
272.993	-16.38
273.209	61.44
273.425	45.06
273.64	16.38
273.856	20.48
274.072	6.14
274.287	-8.19
274.503	0
274.719	88.06
274.934	-22.53
275.15	-8.19
275.366	63.49
275.581	-28.67
275.797	14.34
276.012	-63.49
276.228	59.39
276.444	-8.19
276.659	10.24
276.875	6.14
277.09	-2.05
277.306	-45.06
277.521	86.01
277.737	79.87
277.952	-43.01
278.168	79.87
278.383	53.25
278.599	47.1
278.814	38.91
279.03	16.38
279.245	45.06
279.461	8.19
279.676	49.15
279.892	-16.38
280.107	-10.24
280.322	-8.19
280.538	18.43
280.753	36.86
280.969	-8.19
281.184	71.68
281.399	92.16
281.615	75.77
281.83	47.1
282.045	-24.58
282.26	-20.48
282.476	55.3
282.691	81.92
282.906	-12.29
283.122	69.63
283.337	67.58
283.552	-8.19
283.767	53.25
283.983	49.15
284.198	-47.1
284.413	-30.72
284.628	6.14
284.843	-8.19
285.058	12.29
285.274	77.82
285.489	4.1
285.704	30.72
285.919	20.48
286.134	-8.19
286.349	8.19
286.564	20.48
286.779	71.68
286.995	43.01
287.21	-47.1
287.425	59.39
287.64	43.01
287.855	61.44
288.07	92.16
288.285	112.64
288.5	4.1
288.715	28.67
288.93	-26.62
289.145	6.14
289.36	67.58
289.575	30.72
289.79	73.73
290.004	-2.05
290.219	30.72
290.434	26.62
290.649	88.06
290.864	83.97
291.079	18.43
291.294	96.25
291.509	65.53
291.724	30.72
291.938	4.1
292.153	4.1
292.368	22.53
292.583	6.14
292.798	53.25
293.012	79.87
293.227	102.4
293.442	43.01
293.657	28.67
293.871	49.15
294.086	53.25
294.301	-2.05
294.516	106.49
294.73	-8.19
294.945	40.96
295.16	83.97
295.374	75.77
295.589	57.34
295.804	-34.82
296.018	-30.72
296.233	26.62
296.447	59.39
296.662	22.53
296.877	51.2
297.091	12.29
297.306	-4.1
297.52	53.25
297.735	112.64
297.949	14.34
298.164	24.58
298.378	63.49
298.593	20.48
298.807	30.72
299.022	-24.58
299.236	26.62
299.451	67.58
299.665	26.62
299.88	63.49
300.094	69.63
300.309	-8.19
300.523	-10.24
300.737	10.24
300.952	22.53
301.166	0
301.381	16.38
301.595	-26.62
301.809	51.2
302.024	0
302.238	-18.43
302.452	51.2
302.667	-16.38
302.881	-26.62
303.095	51.2
303.309	28.67
303.524	-34.82
303.738	49.15
303.952	51.2
304.166	24.58
304.381	18.43
304.595	108.54
304.809	65.53
305.023	26.62
305.237	14.34
305.452	57.34
305.666	-30.72
305.88	22.53
306.094	40.96
306.308	8.19
306.522	75.77
306.736	61.44
306.95	26.62
307.164	59.39
307.379	-45.06
307.593	96.25
307.807	59.39
308.021	65.53
308.235	4.1
308.449	-8.19
308.663	0
308.877	32.77
309.091	32.77
309.305	-12.29
309.519	16.38
309.733	-16.38
309.947	-18.43
310.161	106.49
310.374	47.1
310.588	100.35
310.802	-53.25
311.016	53.25
311.23	-8.19
311.444	16.38
311.658	57.34
311.872	47.1
312.085	24.58
312.299	-2.05
312.513	49.15
312.727	-36.86
312.941	30.72
313.154	40.96
313.368	-47.1
313.582	88.06
313.796	14.34
314.009	-16.38
314.223	59.39
314.437	51.2
314.651	51.2
314.864	49.15
315.078	34.82
315.292	-28.67
315.505	90.11
315.719	45.06
315.933	32.77
316.146	34.82
316.36	-14.34
316.573	30.72
316.787	18.43
317.001	32.77
317.214	-22.53
317.428	63.49
317.641	24.58
317.855	12.29
318.068	100.35
318.282	112.64
318.495	61.44
318.709	28.67
318.922	0
319.136	43.01
319.349	55.3
319.563	12.29
319.776	-12.29
319.99	-75.77
320.203	106.49
320.417	-12.29
320.63	22.53
320.843	38.91
321.057	147.45
321.27	55.3
321.483	10.24
321.697	92.16
321.91	43.01
322.124	26.62
322.337	14.34
322.55	45.06
322.763	83.97
322.977	55.3
323.19	-14.34
323.403	59.39
323.617	-12.29
323.83	81.92
324.043	55.3
324.256	-16.38
324.469	53.25
324.683	61.44
324.896	-14.34
325.109	-4.1
325.322	14.34
325.535	65.53
325.748	94.21
325.962	61.44
326.175	18.43
326.388	47.1
326.601	0
326.814	18.43
327.027	75.77
327.24	104.45
327.453	36.86
327.666	24.58
327.879	86.01
328.092	36.86
328.305	98.3
328.518	40.96
328.731	-12.29
328.944	45.06
329.157	-2.05
329.37	57.34
329.583	94.21
329.796	38.91
330.009	26.62
330.222	24.58
330.435	53.25
330.648	61.44
330.861	65.53
331.073	-16.38
331.286	4.1
331.499	90.11
331.712	-18.43
331.925	92.16
332.138	16.38
332.35	57.34
332.563	77.82
332.776	-2.05
332.989	100.35
333.202	-16.38
333.414	43.01
333.627	51.2
333.84	20.48
334.053	43.01
334.265	22.53
334.478	-6.14
334.691	16.38
334.903	8.19
335.116	77.82
335.329	94.21
335.541	49.15
335.754	124.93
335.966	10.24
336.179	20.48
336.392	14.34
336.604	100.35
336.817	71.68
337.029	10.24
337.242	51.2
337.454	55.3
337.667	-30.72
337.88	6.14
338.092	-4.1
338.305	65.53
338.517	81.92
338.729	61.44
338.942	40.96
339.154	51.2
339.367	-18.43
339.579	8.19
339.792	-16.38
340.004	28.67
340.217	-8.19
340.429	122.88
340.641	18.43
340.854	12.29
341.066	22.53
341.278	88.06
341.491	22.53
341.703	6.14
341.915	22.53
342.128	24.58
342.34	-20.48
342.552	-22.53
342.764	51.2
342.977	67.58
343.189	110.59
343.401	51.2
343.613	-24.58
343.826	-18.43
344.038	96.25
344.25	38.91
344.462	59.39
344.674	28.67
344.886	2.05
345.099	126.97
345.311	47.1
345.523	36.86
345.735	65.53
345.947	61.44
346.159	57.34
346.371	96.25
346.583	28.67
346.795	16.38
347.007	40.96
347.219	73.73
347.431	0
347.643	8.19
347.855	51.2
348.067	22.53
348.279	-14.34
348.491	96.25
348.703	26.62
348.915	38.91
349.127	-8.19
349.339	18.43
349.551	-22.53
349.763	22.53
349.975	-14.34
350.187	49.15
350.399	126.97
350.61	57.34
350.822	4.1
351.034	40.96
351.246	53.25
351.458	38.91
351.669	79.87
351.881	69.63
352.093	92.16
352.305	61.44
352.517	43.01
352.728	67.58
352.94	45.06
353.152	28.67
353.363	-22.53
353.575	102.4
353.787	79.87
353.999	139.26
354.21	92.16
354.422	122.88
354.633	-24.58
354.845	-26.62
355.057	28.67
355.268	38.91
355.48	79.87
355.692	10.24
355.903	18.43
356.115	26.62
356.326	-22.53
356.538	63.49
356.749	65.53
356.961	81.92
357.172	-38.91
357.384	-30.72
357.595	22.53
357.807	12.29
358.018	10.24
358.23	14.34
358.441	83.97
358.653	53.25
358.864	36.86
359.075	32.77
359.287	16.38
359.498	16.38
359.709	10.24
359.921	86.01
360.132	26.62
360.344	-30.72
360.555	45.06
360.766	100.35
360.977	-38.91
361.189	145.41
361.4	126.97
361.611	6.14
361.823	-2.05
362.034	38.91
362.245	4.1
362.456	10.24
362.667	12.29
362.879	-8.19
363.09	104.45
363.301	57.34
363.512	102.4
363.723	26.62
363.935	40.96
364.146	67.58
364.357	8.19
364.568	-12.29
364.779	10.24
364.99	86.01
365.201	10.24
365.412	47.1
365.623	-4.1
365.834	65.53
366.045	81.92
366.256	69.63
366.467	63.49
366.678	90.11
366.889	61.44
367.1	20.48
367.311	45.06
367.522	-34.82
367.733	102.4
367.944	40.96
368.155	65.53
368.366	38.91
368.577	67.58
368.788	-14.34
368.999	38.91
369.209	49.15
369.42	106.49
369.631	14.34
369.842	59.39
370.053	20.48
370.264	12.29
370.474	67.58
370.685	22.53
370.896	16.38
371.107	61.44
371.317	102.4
371.528	57.34
371.739	96.25
371.95	61.44
372.16	-10.24
372.371	77.82
372.582	45.06
372.792	88.06
373.003	-32.77
373.214	-6.14
373.424	92.16
373.635	10.24
373.846	79.87
374.056	34.82
374.267	63.49
374.477	6.14
374.688	79.87
374.898	102.4
375.109	102.4
375.319	88.06
375.53	63.49
375.74	36.86
375.951	14.34
376.161	55.3
376.372	47.1
376.582	55.3
376.793	-10.24
377.003	-6.14
377.214	65.53
377.424	18.43
377.635	30.72
377.845	14.34
378.055	90.11
378.266	-2.05
378.476	43.01
378.686	98.3
378.897	94.21
379.107	106.49
379.317	45.06
379.528	-18.43
379.738	120.83
379.948	12.29
380.158	88.06
380.369	51.2
380.579	55.3
380.789	57.34
380.999	79.87
381.21	49.15
381.42	77.82
381.63	12.29
381.84	16.38
382.05	51.2
382.261	83.97
382.471	63.49
382.681	73.73
382.891	90.11
383.101	30.72
383.311	-45.06
383.521	-24.58
383.731	22.53
383.941	108.54
384.151	116.73
384.361	24.58
384.571	75.77
384.781	200.7
384.991	22.53
385.201	147.45
385.411	14.34
385.621	79.87
385.831	-14.34
386.041	63.49
386.251	32.77
386.461	45.06
386.671	83.97
386.881	112.64
387.091	-6.14
387.301	108.54
387.511	69.63
387.72	12.29
387.93	47.1
388.14	20.48
388.35	198.65
388.56	100.35
388.769	71.68
388.979	61.44
389.189	-4.1
389.399	26.62
389.609	26.62
389.818	69.63
390.028	-2.05
390.238	88.06
390.447	49.15
390.657	79.87
390.867	53.25
391.076	22.53
391.286	-30.72
391.496	98.3
391.705	30.72
391.915	96.25
392.125	122.88
392.334	63.49
392.544	124.93
392.753	102.4
392.963	59.39
393.172	88.06
393.382	24.58
393.591	86.01
393.801	71.68
394.01	116.73
394.22	51.2
394.429	28.67
394.639	83.97
394.848	147.45
395.058	133.12
395.267	102.4
395.477	32.77
395.686	40.96
395.895	176.13
396.105	120.83
396.314	20.48
396.524	131.07
396.733	79.87
396.942	79.87
397.152	51.2
397.361	92.16
397.57	38.91
397.78	96.25
397.989	90.11
398.198	147.45
398.407	45.06
398.617	98.3
398.826	20.48
399.035	71.68
399.244	180.22
399.453	114.69
399.663	53.25
399.872	122.88
400.081	34.82
400.29	96.25
400.499	122.88
400.708	104.45
400.917	118.78
401.127	149.5
401.336	110.59
401.545	135.17
401.754	165.89
401.963	182.27
402.172	147.45
402.381	112.64
402.59	149.5
402.799	126.97
403.008	151.55
403.217	194.56
403.426	256
403.635	83.97
403.844	114.69
404.053	180.22
404.262	147.45
404.471	169.98
404.68	155.65
404.888	180.22
405.097	139.26
405.306	231.42
405.515	192.51
405.724	157.69
405.933	217.08
406.142	188.41
406.35	178.17
406.559	188.41
406.768	200.7
406.977	237.56
407.185	227.32
407.394	270.33
407.603	104.45
407.812	229.37
408.02	241.66
408.229	270.33
408.438	319.48
408.646	251.9
408.855	241.66
409.064	274.43
409.272	284.67
409.481	305.15
409.69	370.68
409.898	317.44
410.107	380.92
410.315	374.78
410.524	417.79
410.733	319.48
410.941	376.83
411.15	462.84
411.358	337.91
411.567	423.93
411.775	448.51
411.984	561.14
412.192	522.23
412.401	382.97
412.609	583.67
412.818	585.72
413.026	559.1
413.234	612.34
413.443	628.73
413.651	598.01
413.86	571.38
414.068	708.6
414.276	628.73
414.485	657.4
414.693	679.93
414.901	731.12
415.11	796.66
415.318	784.37
415.526	870.39
415.734	882.67
415.943	892.91
416.151	952.31
416.359	997.36
416.567	1036.27
416.776	1023.98
416.984	1112.05
417.192	1155.05
417.4	1077.23
417.608	1177.58
417.817	1163.25
418.025	1136.62
418.233	1255.4
418.441	1300.46
418.649	1388.52
418.857	1589.22
419.065	1474.54
419.273	1503.21
419.481	1628.14
419.689	1560.55
419.897	1652.71
420.105	1722.34
420.313	1816.55
420.521	1849.32
420.729	1869.8
420.937	1880.04
421.145	1964
421.353	2101.22
421.561	2127.84
421.769	2213.85
421.977	2351.07
422.185	2387.93
422.393	2488.28
422.601	2643.93
422.809	2559.96
423.017	2766.81
423.224	2762.71
423.432	2793.43
423.64	2869.2
423.848	3028.95
424.056	3010.51
424.263	3203.02
424.471	3282.89
424.679	3295.18
424.887	3514.31
425.094	3680.2
425.302	3600.33
425.51	3686.34
425.718	3819.46
425.925	3923.91
426.133	4048.83
426.341	4251.58
426.548	4401.08
426.756	4460.48
426.964	4591.55
427.171	4829.11
427.379	4890.55
427.586	4878.26
427.794	5136.31
428.001	5357.49
428.209	5506.99
428.417	5377.97
428.624	5789.61
428.832	5828.52
429.039	6061.99
429.247	5982.12
429.454	6248.35
429.662	6715.29
429.869	6404
430.076	6793.11
430.284	6541.21
430.491	6866.84
430.699	7280.53
430.906	7206.8
431.114	7481.23
431.321	7681.93
431.528	7720.84
431.736	8472.45
431.943	8578.94
432.15	8316.8
432.358	8601.47
432.565	9070.45
432.772	9107.32
432.979	9408.37
433.187	9506.67
433.394	9555.82
433.601	10166.12
433.808	10190.69
434.016	10266.47
434.223	10878.81
434.43	11437.91
434.637	11093.85
434.844	11779.92
435.052	12128.07
435.259	11890.51
435.466	11845.45
435.673	11781.96
435.88	12869.44
436.087	13295.41
436.294	13315.89
436.501	13119.29
436.708	13057.85
436.915	13766.45
437.122	14122.79
437.329	14561.06
437.537	14821.15
437.743	14935.84
437.95	14946.08
438.157	15879.95
438.364	16144.14
438.571	16176.91
438.778	16297.74
438.985	17716.98
439.192	17018.62
439.399	17790.7
439.606	17211.13
439.813	17925.87
440.02	19306.2
440.227	18867.94
440.433	18874.08
440.64	19676.88
440.847	19146.46
441.054	19912.4
441.261	20887.23
441.467	20698.82
441.674	21388.99
441.881	21765.81
442.088	21849.78
442.294	21450.42
442.501	22238.89
442.708	23043.74
442.914	23740.05
443.121	24477.32
443.328	23907.99
443.534	25577.08
443.741	24856.2
443.948	24561.29
444.154	26429.04
444.361	26211.95
444.568	26404.46
444.774	26453.61
444.981	26871.4
445.187	27502.17
445.394	28507.72
445.6	28255.82
445.807	31122.98
446.013	29681.21
446.22	30004.79
446.426	31020.58
446.633	31669.79
446.839	32867.85
447.046	31247.91
447.252	33666.56
447.459	33211.91
447.665	32943.63
447.871	34483.7
448.078	36249.05
448.284	34119.16
448.491	35059.18
448.697	36316.63
448.903	37094.86
449.11	37330.37
449.316	36931.02
449.522	37422.53
449.728	38317.5
449.935	39044.52
450.141	38630.83
450.347	39613.86
450.553	38473.14
450.76	38464.95
450.966	40287.64
451.172	39402.92
451.378	40752.53
451.584	40000.93
451.791	40662.42
451.997	40897.94
452.203	41698.69
452.409	41790.85
452.615	41506.18
452.821	39720.35
453.027	39437.73
453.233	41381.26
453.44	39857.57
453.646	40353.18
453.852	40549.78
454.058	41274.76
454.264	39794.08
454.47	40949.14
454.676	39603.62
454.882	41145.74
455.088	37543.36
455.294	38444.47
455.5	38608.31
455.705	39187.88
455.911	37594.56
456.117	36767.18
456.323	36165.08
456.529	34504.18
456.735	36365.78
456.941	35290.6
457.147	34471.41
457.352	33254.92
457.558	33115.65
457.764	33189.38
457.97	32742.92
458.176	32083.48
458.381	31770.14
458.587	30281.27
458.793	30832.17
458.999	28843.59
459.204	30733.87
459.41	30096.95
459.616	28145.23
459.821	28048.98
460.027	27817.56
460.233	27432.54
460.438	26011.25
460.644	26320.49
460.85	25304.7
461.055	24839.81
461.261	24757.89
461.466	22697.64
461.672	22161.07
461.878	23838.36
462.083	22208.17
462.289	21731
462.494	21808.82
462.7	20573.89
462.905	20246.22
463.111	20860.61
463.316	20969.15
463.522	20408.01
463.727	20375.24
463.932	20510.41
464.138	19998.41
464.343	20344.52
464.549	19717.84
464.754	20461.26
464.959	20109.01
465.165	20172.49
465.37	19128.03
465.575	18511.59
465.781	19359.45
465.986	19605.2
466.191	18874.08
466.397	18708.19
466.602	17698.55
466.807	18306.79
467.012	18523.88
467.218	18151.15
467.423	18022.12
467.628	18261.74
467.833	18302.7
468.038	18183.91
468.244	17633.01
468.449	18269.93
468.654	17805.04
468.859	17817.33
469.064	17415.93
469.269	16850.69
469.474	16887.55
469.679	17434.36
469.885	16742.14
470.09	17032.96
470.295	16875.26
470.5	16672.51
470.705	16633.6
470.91	16244.49
471.115	16092.94
471.32	16369.41
471.525	16023.31
471.73	16051.98
471.935	15847.18
472.139	15208.22
472.344	15345.43
472.549	15169.3
472.754	15095.58
472.959	14671.65
473.164	14593.83
473.369	14432.04
473.574	14835.49
473.778	14892.83
473.983	14520.1
474.188	14626.59
474.393	13844.27
474.598	14231.33
474.802	13764.4
475.007	13967.15
475.212	13915.95
475.417	13272.89
475.621	13166.39
475.826	13440.82
476.031	13195.06
476.235	12865.34
476.44	13074.23
476.645	12619.58
476.849	12678.97
477.054	12541.76
477.259	12678.97
477.463	12330.82
477.668	12123.97
477.872	12355.4
478.077	12015.43
478.282	11734.86
478.486	11818.83
478.691	11607.89
478.895	11720.53
479.1	11532.11
479.304	11661.13
479.509	11210.58
479.713	11472.72
479.918	11040.6
480.122	11013.98
480.326	11214.68
480.531	11198.29
480.735	11181.91
480.94	10907.48
481.144	11425.62
481.348	10735.45
481.553	10979.16
481.757	10614.62
481.961	10911.58
482.166	10997.59
482.37	10747.74
482.574	10653.53
482.778	10846.04
482.983	10768.22
483.187	10749.79
483.391	10852.19
483.595	10702.68
483.8	10614.62
484.004	10635.1
484.208	11136.85
484.412	10669.92
484.616	10856.28
484.821	10942.3
485.025	10547.04
485.229	10839.9
485.433	10841.95
485.637	10544.99
485.841	10803.04
486.045	10698.59
486.249	10821.47
486.453	10739.55
486.657	10837.85
486.861	10954.58
487.065	10563.42
487.269	10678.11
487.473	10674.01
487.677	10891.1
487.881	10714.97
488.085	10731.36
488.289	10905.43
488.493	10678.11
488.697	10745.69
488.901	10889.05
489.105	10909.53
489.309	10825.56
489.512	11032.41
489.716	10794.84
489.92	10983.26
490.124	10944.34
490.328	11093.85
490.531	10901.34
490.735	11360.08
490.939	11143
491.143	11147.09
491.346	11140.95
491.55	11425.62
491.754	11159.38
491.958	11327.32
492.161	11202.39
492.365	11298.64
492.569	11312.98
492.772	11487.06
492.976	11474.77
493.18	11646.8
493.383	11675.47
493.587	11941.71
493.79	11726.67
493.994	11779.92
494.197	11947.85
494.401	12126.02
494.605	12113.74
494.808	12214.09
495.012	12232.52
495.215	12289.86
495.419	12343.11
495.622	12517.18
495.825	12539.71
496.029	12623.68
496.232	12896.06
496.436	12595.01
496.639	12967.74
496.843	12951.35
497.046	13297.46
497.249	13377.33
497.453	13426.48
497.656	13745.97
497.859	13754.16
498.063	13786.93
498.266	14128.94
498.469	14286.63
498.673	14364.45
498.876	14567.2
499.079	14606.11
499.282	14393.12
499.485	14896.92
499.689	15048.47
499.892	15044.38
500.095	15230.74
500.298	15707.92
500.501	15316.76
500.705	16023.31
500.908	16209.67
501.111	16123.66
501.314	16363.27
501.517	16592.64
501.72	17075.96
501.923	16848.64
502.126	17086.2
502.329	17235.71
502.532	17686.26
502.735	17686.26
502.938	18099.95
503.141	17927.92
503.344	18214.63
503.547	18366.18
503.75	18560.74
503.953	18792.16
504.156	19031.77
504.359	19388.12
504.562	19328.73
504.765	20190.92
504.968	19957.46
505.17	20313.8
505.373	20254.41
505.576	20938.43
505.779	20821.7
505.982	21128.89
506.185	21507.77
506.387	21173.95
506.59	21720.76
506.793	22169.26
506.996	22089.39
507.198	22720.17
507.401	22656.68
507.604	22988.45
507.807	23215.77
508.009	23338.65
508.212	23371.42
508.415	24039.06
508.617	24284.81
508.82	24753.8
509.022	24209.04
509.225	24764.04
509.428	25034.37
509.63	25556.6
509.833	25316.99
510.035	26383.98
510.238	26138.23
510.44	26437.23
510.643	26685.03
510.845	27117.15
511.048	26984.04
511.25	27555.42
511.453	27377.25
511.655	28640.84
511.858	28077.65
512.06	28214.87
512.262	28718.67
512.465	29095.49
512.667	29597.24
512.87	29517.37
513.072	29888.06
513.274	30391.86
513.477	30301.75
513.679	30617.13
513.881	31299.11
514.084	31462.94
514.286	31428.13
514.488	31938.07
514.69	32482.83
514.893	32507.41
515.095	32658.96
515.297	33254.92
515.499	33388.03
515.701	33885.69
515.904	34239.99
516.106	34387.44
516.308	34788.85
516.51	34799.08
516.712	35046.89
516.914	35558.88
517.116	36156.89
517.318	35935.71
517.52	36263.38
517.722	36525.52
517.925	37117.39
518.127	37742.02
518.329	37776.83
518.531	37940.67
518.733	38393.27
518.935	38516.15
519.136	38897.07
519.338	39171.5
519.54	39378.34
519.742	39876
519.944	39847.33
520.146	40539.54
520.348	40643.99
520.55	40361.37
520.752	41106.83
520.954	41612.68
521.155	41366.92
521.357	42405.24
521.559	42452.34
521.761	42765.68
521.963	42722.68
522.164	42651
522.366	43111.79
522.568	43480.42
522.77	43644.26
522.971	44606.81
523.173	43836.77
523.375	44209.5
523.576	44488.03
523.778	44664.15
523.98	45618.5
524.181	45339.98
524.383	45432.14
524.584	45612.36
524.786	45940.03
524.988	45614.41
525.189	46144.83
525.391	46329.15
525.592	46695.74
525.794	46814.52
525.995	46992.69
526.197	46935.35
526.398	47060.27
526.6	47717.67
526.801	47736.1
527.003	48149.79
527.204	47390
527.406	48438.56
527.607	48258.34
527.808	48749.85
528.01	47834.41
528.211	48125.22
528.412	49186.07
528.614	48747.8
528.815	48768.28
529.016	49267.98
529.218	48622.87
529.419	48768.28
529.62	49257.74
529.822	49347.85
530.023	49024.28
530.224	49186.07
530.425	49413.39
530.626	49184.02
530.828	48723.22
531.029	49532.17
531.23	49319.18
531.431	49259.79
531.632	49628.43
531.833	49388.81
532.035	49448.21
532.236	49341.71
532.437	49536.27
532.638	49077.52
532.839	49509.64
533.04	49882.37
533.241	48903.45
533.442	50066.69
533.643	49343.76
533.844	49952.01
534.045	49378.57
534.246	49044.76
534.447	49577.23
534.648	49466.64
534.849	49517.84
535.05	49106.19
535.251	49407.25
535.451	49210.64
535.652	49349.9
535.853	48981.27
536.054	49493.26
536.255	49214.74
536.456	48743.7
536.657	49669.39
536.857	48813.34
537.058	49069.33
537.259	49380.62
537.46	49005.84
537.66	48882.97
537.861	48661.79
538.062	48622.87
538.263	48956.69
538.463	48448.8
538.664	48223.52
538.865	49061.14
539.065	48866.58
539.266	48497.95
539.466	48997.65
539.667	48463.13
539.868	48796.95
540.068	48796.95
540.269	48481.56
540.469	48651.55
540.67	48184.61
540.87	48102.69
541.071	48631.07
541.271	48096.55
541.472	48770.33
541.672	48121.12
541.873	48057.63
542.073	47889.7
542.274	48739.61
542.474	48002.34
542.675	47834.41
542.875	48297.25
543.075	47945
543.276	47551.79
543.476	48063.78
543.676	48123.17
543.877	48031.01
544.077	47533.35
544.277	47682.86
544.478	47908.13
544.678	48213.28
544.878	47521.07
545.078	47785.25
545.279	47394.09
545.479	47394.09
545.679	47471.92
545.879	47570.22
546.079	47275.31
546.28	47945
546.48	46935.35
546.68	47756.58
546.88	47566.12
547.08	47889.7
547.28	47539.5
547.48	46943.54
547.68	47359.28
547.88	47217.97
548.081	47719.72
548.281	47412.52
548.481	46886.2
548.681	47596.84
548.881	47107.38
549.081	47047.99
549.28	47060.27
549.48	47797.54
549.68	47101.23
549.88	48133.41
550.08	47549.74
550.28	47562.03
550.48	47170.86
550.68	47787.3
550.88	46945.59
551.08	46976.31
551.279	47228.21
551.479	47177.01
551.679	47672.62
551.879	47021.36
552.079	47453.48
552.278	46753.08
552.478	47017.27
552.678	47244.59
552.878	47084.85
553.077	47260.97
553.277	46839.09
553.477	47346.99
553.676	47326.51
553.876	46884.15
554.076	47224.11
554.275	46609.72
554.475	46755.13
554.674	47074.61
554.874	46916.92
555.074	46527.8
555.273	46492.99
555.473	47164.72
555.672	46935.35
555.872	46710.07
556.071	46714.17
556.271	47000.88
556.47	46972.21
556.67	46015.81
556.869	46497.08
557.068	46873.91
557.268	46081.34
557.467	46392.64
557.667	46587.19
557.866	46519.61
558.065	46101.82
558.265	46101.82
558.464	45786.44
558.663	46359.87
558.863	46183.74
559.062	46683.45
559.261	46183.74
559.461	46679.35
559.66	45778.25
559.859	45837.64
560.058	45903.17
560.258	46153.02
560.457	45763.91
560.656	45964.61
560.855	45561.16
561.054	46077.25
561.253	45532.49
561.453	45845.83
561.652	45512.01
561.851	45880.64
562.05	45425.99
562.249	45266.25
562.448	45903.17
562.647	45589.83
562.846	45239.63
563.045	45636.94
563.244	45081.94
563.443	45872.45
563.642	44549.46
563.841	45086.03
564.04	44842.32
564.239	45495.63
564.438	44901.71
564.637	44932.43
564.836	44662.1
565.035	44262.75
565.234	44729.69
565.432	44473.69
565.631	43922.79
565.83	44399.96
566.029	44541.27
566.228	44236.12
566.427	43887.97
566.625	43943.27
566.824	43439.47
567.023	44088.67
567.222	43380.07
567.42	44012.9
567.619	43367.79
567.818	43687.27
568.016	43306.35
568.215	43672.93
568.414	43298.16
568.612	43380.07
568.811	43025.78
569.01	43189.61
569.208	42462.58
569.407	43027.82
569.605	42190.2
569.804	42655.09
570.002	42372.47
570.201	42843.51
570.4	41964.93
570.598	42186.11
570.797	42241.4
570.995	42087.81
571.193	41680.26
571.392	41993.6
571.59	41788.8
571.789	41553.29
571.987	41575.81
572.186	41641.35
572.384	41358.73
572.582	41528.71
572.781	41448.84
572.979	41057.68
573.177	40840.59
573.376	41213.32
573.574	40859.02
573.772	41280.91
573.971	40600.98
574.169	40832.4
574.367	40304.03
574.565	40476.05
574.763	40045.98
574.962	40228.25
575.16	39835.04
575.358	40111.52
575.556	39779.75
575.754	39832.99
575.952	39712.16
576.151	39691.68
576.349	39007.66
576.547	38966.7
576.745	39243.18
576.943	39359.91
577.141	39214.51
577.339	39001.52
577.537	38892.97
577.735	38917.55
577.933	38708.66
578.131	38557.11
578.329	38335.93
578.527	38135.23
578.725	38129.08
578.923	38479.28
579.121	37877.18
579.319	37569.99
579.516	37928.38
579.714	38174.14
579.912	37625.28
580.11	37721.54
580.308	37629.38
580.506	37242.31
580.704	36795.85
580.901	37612.99
581.099	37744.06
581.297	37008.84
581.495	36982.22
581.692	36974.03
581.89	36949.45
582.088	36830.67
582.285	36543.95
582.483	36652.5
582.681	36445.65
582.878	36318.68
583.076	35933.66
583.274	36507.09
583.471	35481.06
583.669	36042.2
583.866	35558.88
584.064	35825.12
584.262	35139.05
584.459	35896.8
584.657	35483.11
584.854	35753.44
585.052	35038.7
585.249	35628.51
585.447	35622.37
585.644	34776.56
585.841	34788.85
586.039	35448.29
586.236	34639.34
586.434	34653.68
586.631	34311.67
586.828	34655.73
587.026	34641.39
587.223	34543.09
587.42	34592.24
587.618	34508.27
587.815	33994.23
588.012	34110.97
588.21	33740.29
588.407	34379.25
588.604	33723.9
588.801	33682.94
588.999	33224.2
589.196	33369.6
589.393	33687.04
589.59	33474.05
589.787	32900.62
589.984	33250.82
590.182	33048.07
590.379	33156.61
590.576	33138.18
590.773	32861.71
590.97	32822.8
591.167	33121.8
591.364	32667.15
591.561	32607.76
591.758	32486.93
591.955	32685.58
592.152	32482.83
592.349	31999.51
592.546	32194.07
592.743	32331.28
592.94	31733.28
593.137	31952.41
593.334	32073.24
593.531	31866.39
593.727	31526.43
593.924	32192.02
594.121	31579.68
594.318	31350.31
594.515	31241.76
594.712	31847.96
594.908	31303.2
595.105	31618.59
595.302	30959.14
595.499	31254.05
595.696	31041.06
595.892	30690.86
596.089	30864.94
596.286	30754.35
596.482	30682.67
596.679	30967.34
596.876	30721.58
597.072	30479.92
597.269	30803.5
597.466	30088.76
597.662	30326.32
597.859	30340.66
598.055	30225.97
598.252	29998.65
598.448	30154.29
598.645	30010.93
598.841	29818.42
599.038	29673.02
599.234	29795.9
599.431	29394.5
599.627	29408.83
599.824	29654.59
600.02	29173.31
600.217	29576.76
600.413	29261.38
600.609	29167.17
600.806	29040.2
601.002	29132.36
601.198	29171.27
601.395	28728.91
601.591	28970.57
601.787	28890.7
601.984	28739.15
602.18	28821.06
602.376	28833.35
602.572	28362.32
602.769	28390.99
602.965	28249.68
603.161	28102.23
603.357	27981.4
603.553	27932.25
603.75	28198.48
603.946	27977.3
604.142	28087.89
604.338	27772.5
604.534	27688.54
604.73	27608.67
604.926	27555.42
605.122	27835.99
605.318	27584.09
605.514	27364.96
605.71	26998.37
605.906	27223.65
606.102	27520.6
606.298	27104.87
606.494	27047.52
606.69	27088.48
606.886	27125.35
607.082	26433.13
607.278	27094.63
607.474	26697.32
607.67	27018.85
607.866	26723.94
608.062	27055.72
608.257	26338.93
608.453	26748.52
608.649	26689.13
608.845	26377.84
609.041	26463.85
609.236	26377.84
609.432	26404.46
609.628	26041.97
609.824	26115.7
610.019	25904.76
610.215	26148.47
610.411	26353.26
610.606	25788.02
610.802	26257.01
610.998	25794.17
611.193	25931.38
611.389	25788.02
611.584	25679.48
611.78	25681.53
611.976	25839.22
612.171	25763.45
612.367	25484.92
612.562	25728.63
612.758	25226.88
612.953	25290.37
613.149	25695.86
613.344	25187.97
613.539	25650.81
613.735	25280.13
613.93	25343.61
614.126	25073.28
614.321	25366.14
614.517	25110.14
614.712	25126.53
614.907	25104
615.103	25187.97
615.298	24809.09
615.493	25179.78
615.688	24696.46
615.884	25140.86
616.079	24651.4
616.274	24753.8
616.47	24718.98
616.665	24927.88
616.86	24151.7
617.055	24278.67
617.25	24151.7
617.445	24643.21
617.641	23879.32
617.836	24362.64
618.031	23950.99
618.226	24362.64
618.421	24051.35
618.616	24071.82
618.811	23496.35
619.006	24114.83
619.201	23654.04
619.396	23502.49
619.591	23500.44
619.786	23518.87
619.981	23156.38
620.176	23436.95
620.371	22951.59
620.566	22728.36
620.761	23119.52
620.956	23529.11
621.151	22646.44
621.346	22498.98
621.541	22656.68
621.735	22564.52
621.93	22236.84
622.125	22382.25
622.32	21993.14
622.515	21825.2
622.709	22091.44
622.904	21784.24
623.099	21581.49
623.294	21464.76
623.488	21540.54
623.683	21630.65
623.878	21251.77
624.072	21436.09
624.267	21241.53
624.462	20946.62
624.656	20838.08
624.851	20694.72
625.046	20629.19
625.24	20276.94
625.435	20233.93
625.629	20299.47
625.824	20330.19
626.018	20160.2
626.213	19400.41
626.407	20010.7
626.602	19441.37
626.796	19769.04
626.991	19535.57
627.185	19726.03
627.38	19431.13
627.574	19451.61
627.768	19228.38
627.963	19054.3
628.157	18808.55
628.352	19017.44
628.546	18435.81
628.74	19085.02
628.935	18458.34
629.129	18648.8
629.323	18140.91
629.517	18245.35
629.712	18331.37
629.906	18241.26
630.1	17852.14
630.294	17999.6
630.489	17972.97
630.683	17729.27
630.877	17590
631.071	17454.84
631.265	17522.42
631.459	17444.6
631.653	17422.07
631.848	17374.97
632.042	17313.53
632.236	17067.77
632.43	17020.67
632.624	16854.78
632.818	16850.69
633.012	16625.41
633.206	16594.69
633.4	16609.03
633.594	16193.29
633.788	16396.04
633.982	16254.73
634.176	16094.99
634.369	15855.37
634.563	15982.35
634.757	15814.41
634.951	15705.87
635.145	15816.46
635.339	15765.26
635.533	15535.89
635.726	15595.28
635.92	15111.96
636.114	15353.62
636.308	15222.55
636.501	15429.4
636.695	15185.69
636.889	14954.27
637.083	14866.21
637.276	14657.31
637.47	14704.42
637.664	14417.7
637.857	14853.92
638.051	14509.86
638.244	14309.16
638.438	14419.75
638.632	14262.05
638.825	14176.04
639.019	14018.35
639.212	13860.65
639.406	13780.78
639.599	13766.45
639.793	14057.26
639.986	13748.01
640.18	13614.9
640.373	13610.8
640.567	13596.46
640.76	13467.44
640.954	13266.74
641.147	13084.47
641.34	13076.28
641.534	13193.01
641.727	13061.94
641.92	12984.12
642.114	12611.39
642.307	12715.84
642.5	12676.93
642.694	12601.15
642.887	12410.69
643.08	12502.85
643.273	12310.34
643.467	12447.55
643.66	12160.84
643.853	12054.34
644.046	12105.54
644.239	11927.37
644.432	11898.7
644.626	11904.84
644.819	11622.22
645.012	11741
645.205	11857.74
645.398	11652.94
645.591	11499.34
645.784	11298.64
645.977	11284.31
646.17	11331.41
646.363	11054.94
646.556	11071.32
646.749	11253.59
646.942	11329.36
647.135	10919.77
647.328	11054.94
647.521	10862.43
647.714	10880.86
647.907	10712.92
648.099	10676.06
648.292	10444.64
648.485	10559.33
648.678	10397.54
648.871	10254.18
649.064	10360.67
649.256	10332
649.449	10147.69
649.642	10286.95
649.835	10041.19
650.027	10026.85
650.22	9910.12
650.413	10166.12
650.605	9887.59
650.798	9881.45
650.991	9826.15
651.183	9711.47
651.376	9555.82
651.568	9641.84
651.761	9680.75
651.954	9424.75
652.146	9342.83
652.339	9629.55
652.531	8988.53
652.724	9250.67
652.916	9123.7
653.109	9246.58
653.301	9256.82
653.494	9133.94
653.686	8951.67
653.879	9209.72
654.071	8738.68
654.263	8767.35
654.456	8884.09
654.648	8769.4
654.84	8720.25
655.033	8540.03
655.225	8691.58
655.417	8413.06
655.61	8593.28
655.802	8580.99
655.994	8155.01
656.186	8490.88
656.379	8361.86
656.571	8241.03
656.763	8224.64
656.955	8302.47
657.148	8261.51
657.34	8157.06
657.532	8021.89
657.724	7929.73
657.916	7946.12
658.108	7792.52
658.3	7819.14
658.492	7952.26
658.684	7843.72
658.876	7821.19
659.068	7802.76
659.26	7710.6
659.452	7677.83
659.644	7655.31
659.836	7769.99
660.028	7616.4
660.22	7274.38
660.412	7536.53
660.604	7321.49
660.796	7301.01
660.988	7370.64
661.18	7346.06
661.372	7401.36
661.563	7122.84
661.755	7178.13
661.947	7116.69
662.139	6965.14
662.331	6959
662.522	7075.73
662.714	6948.76
662.906	6766.49
663.097	7036.82
663.289	6864.79
663.481	6752.15
663.673	6721.43
663.864	6619.03
664.056	6678.43
664.247	6616.99
664.439	6576.03
664.631	6631.32
664.822	6690.71
665.014	6571.93
665.205	6240.16
665.397	6571.93
665.588	6283.17
665.78	6281.12
665.971	6334.37
666.163	6453.15
666.354	6272.93
666.546	6117.28
666.737	6176.67
666.929	6135.71
667.12	6168.48
667.311	6199.2
667.503	6021.03
667.694	6123.43
667.885	6016.93
668.077	6031.27
668.268	5914.53
668.459	5853.09
668.651	5826.47
668.842	5693.35
669.033	5797.8
669.224	5689.26
669.416	5853.09
669.607	5746.6
669.798	5783.46
669.989	5859.24
670.18	5527.47
670.371	5693.35
670.563	5625.77
670.754	5648.3
670.945	5607.34
671.136	5523.37
671.327	5521.32
671.518	5384.11
671.709	5466.03
671.9	5627.82
672.091	5353.39
672.282	5457.84
672.473	5337.01
672.664	5451.69
672.855	5320.62
673.046	5369.77
673.237	5334.96
673.428	5353.39
673.619	5236.66
673.809	5232.56
674	5289.9
674.191	5314.48
674.382	5261.23
674.573	5273.52
674.764	5068.72
674.954	5130.16
675.145	5224.37
675.336	5066.67
675.527	5046.19
675.717	5218.22
675.908	4980.66
676.099	5173.17
676.289	5210.03
676.48	5050.29
676.671	5050.29
676.861	4980.66
677.052	4982.71
677.243	4980.66
677.433	4800.44
677.624	4890.55
677.814	4978.61
678.005	5042.1
678.195	4874.17
678.386	4974.52
678.576	4880.31
678.767	4908.98
678.957	4898.74
679.148	4876.21
679.338	4794.29
679.529	4808.63
679.719	4831.16
679.909	4890.55
680.1	4767.67
680.29	4798.39
680.481	4958.13
680.671	4761.53
680.861	4728.76
681.052	4726.71
681.242	4765.62
681.432	4822.97
681.622	4693.94
681.813	4751.29
682.003	4710.33
682.193	4777.91
682.383	4667.32
682.573	4693.94
682.764	4716.47
682.954	4646.84
683.144	4550.59
683.334	4536.25
683.524	4661.18
683.714	4566.97
683.904	4530.11
684.094	4573.11
684.284	4681.66
684.474	4652.98
684.664	4583.35
684.854	4644.79
685.044	4515.77
685.234	4659.13
685.424	4450.24
685.614	4519.87
685.804	4456.38
685.994	4446.14
686.184	4519.87
686.374	4472.76
686.564	4591.55
686.753	4417.47
686.943	4292.54
687.133	4437.95
687.323	4493.24
687.513	4317.12
687.702	4319.17
687.892	4392.89
688.082	4343.74
688.272	4489.15
688.461	4239.3
688.651	4317.12
688.841	4460.48
689.03	4241.34
689.22	4222.91
689.41	4239.3
689.599	4200.38
689.789	4257.73
689.979	4241.34
690.168	4280.25
690.358	4243.39
690.547	4159.42
690.737	4024.26
690.926	4147.14
691.116	4167.62
691.305	4128.7
691.495	4204.48
691.684	4126.66
691.874	4138.94
692.063	4009.92
692.252	3897.28
692.442	4116.42
692.631	4054.98
692.82	4095.94
693.01	3952.58
693.199	3944.39
693.388	3930.05
693.578	4093.89
693.767	4018.11
693.956	3905.48
694.146	3991.49
694.335	3934.15
694.524	3997.64
694.713	3938.24
694.902	4030.4
695.092	3835.85
695.281	4042.69
695.47	3919.81
695.659	4059.07
695.848	3923.91
696.037	3794.89
696.226	3915.72
696.415	3839.94
696.604	3958.72
696.793	3856.33
696.982	3749.83
697.171	3798.98
697.36	3798.98
697.549	3729.35
697.738	3782.6
697.927	3700.68
698.116	3817.41
698.305	3784.65
698.494	3913.67
698.683	3825.61
698.872	3819.46
699.061	3717.06
699.25	3635.14
699.438	3737.54
699.627	3647.43
699.816	3772.36
700.005	3620.81
700.193	3766.21
700.382	3696.58
700.571	3708.87
700.76	3594.19
700.948	3725.26
701.137	3739.59
701.326	3684.3
701.514	3651.53
701.703	3753.93
701.892	3461.07
702.08	3528.65
702.269	3581.9
702.457	3612.62
702.646	3577.8
702.834	3567.56
703.023	3528.65
703.212	3479.5
703.4	3663.82
703.589	3514.31
703.777	3528.65
703.965	3481.55
704.154	3489.74
704.342	3469.26
704.531	3590.09
704.719	3463.12
704.907	3446.73
705.096	3446.73
705.284	3432.4
705.472	3375.05
705.661	3424.2
705.849	3305.42
706.037	3393.48
706.226	3246.03
706.414	3364.81
706.602	3284.94
706.79	3323.85
706.979	3420.11
707.167	3286.99
707.355	3368.91
707.543	3319.76
707.731	3348.43
707.919	3262.41
708.107	3221.45
708.296	3254.22
708.484	3059.67
708.672	3272.65
708.86	3192.78
709.048	3184.59
709.236	3104.72
709.424	3227.6
709.612	3145.68
709.8	3123.15
709.988	3104.72
710.176	3186.64
710.364	3006.42
710.551	3074
710.739	3104.72
710.927	3098.58
711.115	3069.91
711.303	3119.06
711.491	2983.89
711.679	3049.43
711.866	3045.33
712.054	3063.76
712.242	3000.27
712.43	2983.89
712.617	2963.41
712.805	3004.37
712.993	2861.01
713.181	2934.74
713.368	2861.01
713.556	2938.84
713.744	2867.16
713.931	3002.32
714.119	2973.65
714.306	2861.01
714.494	2879.44
714.682	2889.68
714.869	2738.13
715.057	2758.61
715.244	2811.86
715.432	2869.2
715.619	2820.05
715.807	2779.09
715.994	2854.87
716.182	2744.28
716.369	2758.61
716.556	2695.13
716.744	2578.39
716.931	2664.41
717.119	2738.13
717.306	2852.82
717.493	2770.9
717.681	2715.61
717.868	2586.58
718.055	2756.57
718.242	2496.47
718.43	2688.98
718.617	2668.5
718.804	2617.3
718.991	2641.88
719.179	2539.48
719.366	2648.02
719.553	2703.32
719.74	2637.78
719.927	2529.24
720.114	2582.49
720.301	2637.78
720.488	2504.67
720.676	2529.24
720.863	2430.94
721.05	2580.44
721.237	2406.36
721.424	2430.94
721.611	2529.24
721.798	2369.5
721.985	2389.98
722.172	2488.28
722.358	2353.12
722.545	2420.7
722.732	2375.64
722.919	2504.67
723.106	2531.29
723.293	2467.8
723.48	2363.36
723.667	2250.72
723.853	2371.55
724.04	2424.8
724.227	2402.27
724.414	2353.12
724.6	2328.54
724.787	2326.49
724.974	2267.1
725.161	2248.67
725.347	2289.63
725.534	2312.16
725.72	2119.65
725.907	2256.86
726.094	2252.77
726.28	2293.72
726.467	2127.84
726.653	2197.47
726.84	2303.96
727.027	2213.85
727.213	2289.63
727.4	2193.37
727.586	2185.18
727.773	2172.89
727.959	2152.42
728.145	2318.3
728.332	2113.5
728.518	2183.13
728.705	2033.63
728.891	2138.08
729.077	2207.71
729.264	2031.58
729.45	2054.11
729.636	2158.56
729.823	2115.55
730.009	2041.82
730.195	2115.55
730.382	2072.54
730.568	2045.92
730.754	2154.46
730.94	2050.02
731.126	1992.67
731.313	2056.16
731.499	2027.49
731.685	2123.74
731.871	2050.02
732.057	1957.86
732.243	2045.92
732.429	1990.63
732.615	2123.74
732.801	2074.59
732.987	2074.59
733.173	1998.82
733.359	1990.63
733.545	1966.05
733.731	1953.76
733.917	2007.01
734.103	2017.25
734.289	1888.23
734.475	2027.49
734.661	1855.46
734.847	1957.86
735.033	1974.24
735.219	1906.66
735.404	1943.52
735.59	1953.76
735.776	1880.04
735.962	1908.71
736.148	1918.95
736.333	1892.32
736.519	1920.99
736.705	1845.22
736.89	1857.51
737.076	1824.74
737.262	1781.73
737.447	1804.26
737.633	1769.44
737.819	1841.12
738.004	1751.01
738.19	1802.21
738.375	1826.79
738.561	1658.85
738.747	1824.74
738.932	1714.15
739.118	1849.32
739.303	1808.36
739.489	1753.06
739.674	1710.05
739.859	1720.29
740.045	1804.26
740.23	1728.49
740.416	1796.07
740.601	1781.73
740.786	1621.99
740.972	1763.3
741.157	1769.44
741.342	1656.81
741.528	1662.95
741.713	1759.21
741.898	1630.18
742.084	1589.22
742.269	1621.99
742.454	1632.23
742.639	1697.77
742.824	1552.36
743.01	1581.03
743.195	1681.38
743.38	1558.5
743.565	1544.17
743.75	1538.02
743.935	1585.13
744.12	1533.93
744.305	1529.83
744.49	1574.89
744.675	1480.68
744.86	1533.93
745.045	1546.22
745.23	1525.74
745.415	1535.98
745.6	1562.6
745.785	1433.58
745.97	1495.02
746.155	1398.76
746.34	1439.72
746.525	1372.14
746.71	1411.05
746.895	1411.05
747.079	1460.2
747.264	1458.15
747.449	1413.1
747.634	1363.95
747.819	1445.87
748.003	1306.6
748.188	1341.42
748.373	1267.69
748.557	1353.71
748.742	1306.6
748.927	1320.94
749.111	1277.93
749.296	1415.15
749.481	1366
749.665	1337.32
749.85	1294.32
750.034	1300.46
750.219	1230.83
750.404	1341.42
750.588	1218.54
750.773	1241.07
750.957	1275.88
751.141	1179.63
751.326	1136.62
751.51	1218.54
751.695	1247.21
751.879	1177.58
752.064	1269.74
752.248	1091.57
752.432	1206.25
752.617	1241.07
752.801	1155.05
752.985	1171.44
753.17	1120.24
753.354	1187.82
753.538	1148.91
753.722	1107.95
753.907	1085.42
754.091	1073.14
754.275	1122.29
754.459	1146.86
754.643	1032.18
754.828	1116.14
755.012	1064.94
755.196	985.07
755.38	1058.8
755.564	1026.03
755.748	1097.71
755.932	1058.8
756.116	946.16
756.3	929.78
756.484	1036.27
756.668	970.74
756.852	991.22
757.036	927.73
757.22	962.55
757.404	878.58
757.588	970.74
757.772	913.39
757.956	864.24
758.14	925.68
758.323	882.67
758.507	970.74
758.691	894.96
758.875	976.88
759.059	870.39
759.242	835.57
759.426	935.92
759.61	843.76
759.794	833.52
759.977	909.3
760.161	890.87
760.345	925.68
760.528	817.14
760.712	854
760.895	915.44
761.079	782.32
761.263	849.91
761.446	739.32
761.63	886.77
761.813	860.15
761.997	876.53
762.18	796.66
762.364	794.61
762.547	759.8
762.731	784.37
762.914	759.8
763.098	784.37
763.281	763.89
763.464	792.56
763.648	739.32
763.831	813.04
764.015	727.03
764.198	759.8
764.381	782.32
764.564	772.08
764.748	714.74
764.931	753.65
765.114	806.9
765.297	724.98
765.481	675.83
765.664	772.08
765.847	716.79
766.03	661.49
766.213	765.94
766.397	643.06
766.58	718.84
766.763	778.23
766.946	763.89
767.129	657.4
767.312	665.59
767.495	684.02
767.678	645.11
767.861	745.46
768.044	753.65
768.227	776.18
768.41	720.88
768.593	657.4
768.776	684.02
768.959	595.96
769.142	720.88
769.324	692.21
769.507	671.73
769.69	684.02
769.873	673.78
770.056	712.69
770.239	655.35
770.421	624.63
770.604	667.64
770.787	718.84
770.97	614.39
771.152	718.84
771.335	653.3
771.518	634.87
771.7	708.6
771.883	731.12
772.066	620.53
772.248	540.66
772.431	569.34
772.613	624.63
772.796	641.01
772.978	620.53
773.161	653.3
773.343	614.39
773.526	557.05
773.708	606.2
773.891	542.71
774.073	581.62
774.256	600.05
774.438	677.88
774.621	524.28
774.803	671.73
774.985	514.04
775.168	540.66
775.35	585.72
775.532	495.61
775.715	534.52
775.897	481.27
776.079	530.42
776.261	475.13
776.444	514.04
776.626	589.81
776.808	493.56
776.99	522.23
777.173	524.28
777.355	538.62
777.537	569.34
777.719	571.38
777.901	438.27
778.083	511.99
778.265	344.06
778.447	505.85
778.629	516.09
778.811	448.51
778.993	452.6
779.175	514.04
779.357	487.42
779.539	518.14
779.721	544.76
779.903	460.79
780.085	432.12
780.267	440.31
780.449	483.32
780.631	444.41
780.812	468.98
780.994	425.98
781.176	479.22
781.358	446.46
781.54	471.03
781.721	419.83
781.903	454.65
782.085	460.79
782.267	475.13
782.448	374.78
782.63	342.01
782.812	364.54
782.993	362.49
783.175	423.93
783.357	401.4
783.538	366.59
783.72	339.96
783.901	385.02
784.083	364.54
784.264	325.63
784.446	286.72
784.627	344.06
784.809	397.31
784.99	342.01
785.172	374.78
785.353	288.76
785.535	321.53
785.716	391.16
785.897	317.44
786.079	319.48
786.26	387.07
786.441	352.25
786.623	346.11
786.804	319.48
786.985	323.58
787.167	319.48
787.348	315.39
787.529	280.57
787.71	391.16
787.891	227.32
788.073	274.43
788.254	276.48
788.435	333.82
788.616	346.11
788.797	266.24
788.978	253.95
789.159	339.96
789.34	344.06
789.522	253.95
789.703	282.62
789.884	272.38
790.065	344.06
790.246	333.82
790.427	317.44
790.607	278.52
790.788	299
790.969	274.43
791.15	270.33
791.331	256
791.512	292.86
791.693	256
791.874	309.24
792.054	362.49
792.235	272.38
792.416	217.08
792.597	241.66
792.778	180.22
792.958	270.33
793.139	245.76
793.32	305.15
793.5	241.66
793.681	309.24
793.862	247.8
794.042	262.14
794.223	292.86
794.404	311.29
794.584	143.36
794.765	198.65
794.945	239.61
795.126	210.94
795.306	233.47
795.487	256
795.667	245.76
795.848	247.8
796.028	169.98
796.209	221.18
796.389	225.28
796.57	276.48
796.75	172.03
796.93	258.04
797.111	180.22
797.291	215.04
797.471	178.17
797.652	264.19
797.832	155.65
798.012	274.43
798.192	174.08
798.373	112.64
798.553	159.74
798.733	180.22
798.913	165.89
799.093	196.61
799.274	182.27
799.454	231.42
799.634	249.85
799.814	245.76
799.994	200.7
800.174	176.13
800.354	192.51
800.534	149.5
800.714	161.79
800.894	182.27
801.074	184.32
801.254	159.74
801.434	149.5
801.614	174.08
801.794	176.13
801.974	563.19
802.154	155.65
802.334	135.17
802.514	212.99
802.693	196.61
802.873	169.98
803.053	178.17
803.233	186.37
803.413	149.5
803.592	155.65
803.772	143.36
803.952	202.75
804.131	225.28
804.311	180.22
804.491	180.22
804.67	86.01
804.85	92.16
805.03	192.51
805.209	172.03
805.389	94.21
805.568	147.45
805.748	88.06
805.928	157.69
806.107	143.36
806.287	227.32
806.466	135.17
806.646	223.23
806.825	73.73
807.004	106.49
807.184	149.5
807.363	208.89
807.543	196.61
807.722	106.49
807.901	57.34
808.081	188.41
808.26	100.35
808.439	202.75
808.619	167.93
808.798	120.83
808.977	135.17
809.156	145.41
809.336	188.41
809.515	163.84
809.694	106.49
809.873	118.78
810.052	118.78
810.231	120.83
810.411	2.05
810.59	151.55
810.769	122.88
810.948	147.45
811.127	100.35
811.306	112.64
811.485	104.45
811.664	188.41
811.843	116.73
812.022	40.96
812.201	116.73
812.38	155.65
812.559	112.64
812.737	129.02
812.916	114.69
813.095	112.64
813.274	69.63
813.453	155.65
813.632	67.58
813.811	112.64
813.989	45.06
814.168	104.45
814.347	32.77
814.526	120.83
814.704	178.17
814.883	96.25
815.062	108.54
815.24	129.02
815.419	81.92
815.598	110.59
815.776	49.15
815.955	102.4
816.133	34.82
816.312	135.17
816.49	73.73
816.669	69.63
816.847	110.59
817.026	151.55
817.204	100.35
817.383	122.88
817.561	90.11
817.74	88.06
817.918	40.96
818.097	65.53
818.275	75.77
818.453	67.58
818.632	86.01
818.81	40.96
818.988	126.97
819.167	151.55
819.345	59.39
819.523	172.03
819.701	71.68
819.879	38.91
820.058	-10.24
820.236	143.36
820.414	100.35
820.592	88.06
820.77	90.11
820.948	88.06
821.127	59.39
821.305	161.79
821.483	69.63
821.661	129.02
821.839	59.39
822.017	71.68
822.195	69.63
822.373	100.35
822.551	83.97
822.729	104.45
822.907	81.92
823.085	45.06
823.262	83.97
823.44	106.49
823.618	116.73
823.796	32.77
823.974	-8.19
824.152	20.48
824.329	79.87
824.507	67.58
824.685	61.44
824.863	77.82
825.04	108.54
825.218	106.49
825.396	69.63
825.574	55.3
825.751	28.67
825.929	157.69
826.107	59.39
826.284	75.77
826.462	38.91
826.639	49.15
826.817	126.97
826.994	73.73
827.172	65.53
827.349	90.11
827.527	24.58
827.704	75.77
827.882	69.63
828.059	98.3
828.237	-4.1
828.414	55.3
828.591	75.77
828.769	114.69
828.946	28.67
829.124	169.98
829.301	34.82
829.478	51.2
829.655	43.01
829.833	67.58
830.01	-20.48
830.187	55.3
830.364	96.25
830.542	147.45
830.719	110.59
830.896	184.32
831.073	79.87
831.25	14.34
831.427	63.49
831.604	100.35
831.782	-14.34
831.959	36.86
832.136	45.06
832.313	55.3
832.49	61.44
832.667	-28.67
832.844	83.97
833.021	83.97
833.198	90.11
833.374	88.06
833.551	63.49
833.728	75.77
833.905	40.96
834.082	51.2
834.259	67.58
834.436	55.3
834.612	53.25
834.789	38.91
834.966	-12.29
835.143	-8.19
835.319	6.14
835.496	16.38
835.673	51.2
835.85	145.41
836.026	61.44
836.203	108.54
836.38	71.68
836.556	6.14
836.733	18.43
836.909	151.55
837.086	18.43
837.262	67.58
837.439	28.67
837.616	18.43
837.792	2.05
837.968	126.97
838.145	-2.05
838.321	-55.3
838.498	0
838.674	30.72
838.851	-2.05
839.027	-6.14
839.203	88.06
839.38	-34.82
839.556	47.1
839.732	61.44
839.909	55.3
840.085	18.43
840.261	8.19
840.437	43.01
840.614	0
840.79	28.67
840.966	30.72
841.142	10.24
841.318	88.06
841.494	83.97
841.671	57.34
841.847	-16.38
842.023	57.34
842.199	63.49
842.375	77.82
842.551	10.24
842.727	81.92
842.903	30.72
843.079	57.34
843.255	65.53
843.431	67.58
843.607	57.34
843.783	28.67
843.959	-2.05
844.134	55.3
844.31	28.67
844.486	112.64
844.662	10.24
844.838	81.92
845.013	12.29
845.189	-12.29
845.365	-14.34
845.541	47.1
845.716	34.82
845.892	51.2
846.068	69.63
846.244	49.15
846.419	8.19
846.595	24.58
846.77	-6.14
846.946	10.24
847.122	59.39
847.297	28.67
847.473	-18.43
847.648	0
847.824	59.39
847.999	2.05
848.175	24.58
848.35	69.63
848.526	108.54
848.701	45.06
848.876	30.72
849.052	47.1
849.227	47.1
849.403	-30.72
849.578	14.34
849.753	71.68
849.929	47.1
850.104	88.06
850.279	69.63
850.454	30.72
850.63	10.24
850.805	73.73
850.98	32.77
851.155	-30.72
851.33	-2.05
851.505	18.43
851.681	20.48
851.856	73.73
852.031	71.68
852.206	-20.48
852.381	-34.82
852.556	59.39
852.731	65.53
852.906	38.91
853.081	51.2
853.256	65.53
853.431	36.86
853.606	4.1
853.781	75.77
853.956	24.58
854.131	73.73
854.305	83.97
854.48	-4.1
854.655	20.48
854.83	-16.38
855.005	2.05
855.18	-16.38
855.354	0
855.529	43.01
855.704	75.77
855.879	-2.05
856.053	43.01
856.228	-32.77
856.403	0
856.577	10.24
856.752	-55.3
856.926	20.48
857.101	71.68
857.276	8.19
857.45	57.34
857.625	96.25
857.799	43.01
857.974	43.01
858.148	-40.96
858.323	71.68
858.497	34.82
858.672	106.49
858.846	22.53
859.02	-4.1
859.195	2.05
859.369	38.91
859.543	14.34
859.718	14.34
859.892	-20.48
860.066	86.01
860.241	8.19
860.415	22.53
860.589	-18.43
860.763	-2.05
860.938	-10.24
861.112	73.73
861.286	71.68
861.46	-8.19
861.634	-30.72
861.808	-4.1
861.982	-88.06
862.157	51.2
862.331	-30.72
862.505	-18.43
862.679	10.24
862.853	18.43
863.027	22.53
863.201	34.82
863.375	-2.05
863.549	43.01
863.722	26.62
863.896	20.48
864.07	8.19
864.244	12.29
864.418	51.2
864.592	53.25
864.766	-28.67
864.939	-90.11
865.113	40.96
865.287	108.54
865.461	-4.1
865.634	77.82
865.808	34.82
865.982	-20.48
866.156	34.82
866.329	12.29
866.503	-28.67
866.676	-2.05
866.85	24.58
867.024	79.87
867.197	22.53
867.371	40.96
867.544	73.73
867.718	8.19
867.891	36.86
868.065	-49.15
868.238	-36.86
868.412	73.73
868.585	-2.05
868.759	-18.43
868.932	32.77
869.105	-24.58
869.279	22.53
869.452	-30.72
869.625	106.49
869.799	22.53
869.972	73.73
870.145	2.05
870.319	83.97
870.492	-61.44
870.665	65.53
870.838	2.05
871.011	-36.86
871.185	12.29
871.358	-18.43
871.531	10.24
871.704	-12.29
871.877	16.38
872.05	100.35
872.223	8.19
872.396	-4.1
872.569	59.39
872.742	-10.24
872.915	40.96
873.088	-4.1
873.261	30.72
873.434	-4.1
873.607	2.05
873.78	75.77
873.953	6.14
874.126	-32.77
874.299	30.72
874.471	-8.19
874.644	69.63
874.817	26.62
874.99	-12.29
875.163	-38.91
875.335	51.2
875.508	86.01
875.681	40.96
875.853	-53.25
876.026	61.44
876.199	40.96
876.371	-8.19
876.544	-30.72
876.717	18.43
876.889	57.34
877.062	0
877.234	34.82
877.407	36.86
877.579	-16.38
877.752	61.44
877.924	86.01
878.097	-34.82
878.269	34.82
878.442	-4.1
878.614	16.38
878.786	-4.1
878.959	-4.1
879.131	0
879.303	-96.25
879.476	43.01
879.648	-10.24
879.82	14.34
879.993	14.34
880.165	18.43
880.337	49.15
880.509	12.29
880.681	-20.48
880.854	16.38
881.026	2.05
881.198	40.96
881.37	-14.34
881.542	6.14
881.714	-12.29
881.886	49.15
882.058	94.21
882.23	14.34
882.402	36.86
882.574	-26.62
882.746	53.25
882.918	18.43
883.09	40.96
883.262	30.72
883.434	-34.82
883.606	-30.72
883.778	20.48
883.95	-24.58
884.122	4.1
884.293	-10.24
884.465	-43.01
884.637	-18.43
884.809	-55.3
884.98	-24.58
885.152	-12.29
885.324	6.14
885.496	-18.43
885.667	-47.1
885.839	65.53
886.011	-14.34
886.182	-6.14
886.354	34.82
886.525	18.43
886.697	30.72
886.869	8.19
887.04	-12.29
887.212	36.86
887.383	112.64
887.555	8.19
887.726	16.38
887.897	18.43
888.069	-2.05
888.24	-18.43
888.412	-2.05
888.583	-59.39
888.754	-2.05
888.926	-32.77
889.097	-24.58
889.268	-43.01
889.44	-16.38
889.611	55.3
889.782	-14.34
889.953	51.2
890.125	43.01
890.296	-8.19
890.467	-2.05
890.638	-63.49
890.809	67.58
890.98	-20.48
891.151	59.39
891.323	30.72
891.494	-40.96
891.665	36.86
891.836	-40.96
892.007	-26.62
892.178	4.1
892.349	32.77
892.52	-16.38
892.691	22.53
892.862	-32.77
893.032	63.49
893.203	-14.34
893.374	34.82
893.545	61.44
893.716	-47.1
893.887	32.77
894.057	-63.49
894.228	16.38
894.399	30.72
894.57	-10.24
894.74	22.53
894.911	-43.01
895.082	-24.58
895.253	63.49
895.423	63.49
895.594	40.96
895.764	22.53
895.935	-69.63
896.106	96.25
896.276	34.82
896.447	4.1
896.617	-24.58
896.788	-65.54
896.958	-51.2
897.129	-65.54
897.299	-67.58
897.47	-20.48
897.64	-90.11
897.81	-6.14
897.981	-32.77
898.151	-40.96
898.322	-32.77
898.492	26.62
898.662	24.58
898.832	67.58
899.003	59.39
899.173	24.58
899.343	32.77
899.513	-34.82
