Data from USB4F104151__60__12-36-29-875.txt Node

Date: Fri Mar 14 12:36:29 EDT 2025
User: louis
Spectrometer: USB4F10415
Trigger mode: 4
Integration Time (sec): 2.000000E-2
Scans to average: 1
Electric dark correction enabled: true
Nonlinearity correction enabled: false
Boxcar width: 0
XAxis mode: Wavelengths
Number of Pixels in Spectrum: 3648
>>>>>Begin Spectral Data<<<<<
178.204	-78.33
178.424	-78.33
178.644	-78.33
178.864	-160.25
179.084	1.54
179.304	26.11
179.524	-8.7
179.744	15.87
179.964	44.54
180.184	-4.61
180.404	-45.57
180.624	-6.66
180.844	28.16
181.064	-18.94
181.283	11.78
181.503	-61.95
181.723	19.97
181.943	-43.52
182.163	48.64
182.383	71.17
182.602	81.41
182.822	155.13
183.042	58.88
183.262	34.3
183.482	26.11
183.701	46.59
183.921	58.88
184.141	48.64
184.361	-27.14
184.58	-2.56
184.8	9.73
185.02	-18.94
185.239	17.92
185.459	3.58
185.679	58.88
185.898	-86.53
186.118	91.65
186.338	17.92
186.557	28.16
186.777	34.3
186.997	93.69
187.216	56.83
187.436	9.73
187.655	120.32
187.875	-4.61
188.095	36.35
188.314	15.87
188.534	65.02
188.753	48.64
188.973	11.78
189.192	97.79
189.412	7.68
189.631	-2.56
189.851	87.55
190.07	24.06
190.29	19.97
190.509	17.92
190.729	24.06
190.948	34.3
191.168	58.88
191.387	5.63
191.607	24.06
191.826	17.92
192.045	-8.7
192.265	24.06
192.484	11.78
192.704	93.69
192.923	22.02
193.142	83.45
193.362	75.26
193.581	46.59
193.8	42.5
194.02	40.45
194.239	3.58
194.458	81.41
194.678	38.4
194.897	13.82
195.116	-37.38
195.335	46.59
195.555	5.63
195.774	-6.66
195.993	65.02
196.212	7.68
196.432	28.16
196.651	-2.56
196.87	22.02
197.089	26.11
197.308	71.17
197.528	34.3
197.747	11.78
197.966	116.22
198.185	42.5
198.404	40.45
198.623	30.21
198.842	54.78
199.062	56.83
199.281	5.63
199.5	28.16
199.719	34.3
199.938	-4.61
200.157	13.82
200.376	17.92
200.595	7.68
200.814	28.16
201.033	-29.18
201.252	48.64
201.471	77.31
201.69	67.07
201.909	-29.18
202.128	50.69
202.347	34.3
202.566	-51.71
202.785	62.98
203.004	-8.7
203.223	62.98
203.442	17.92
203.661	3.58
203.879	40.45
204.098	-0.51
204.317	19.97
204.536	26.11
204.755	130.56
204.974	32.26
205.193	-6.66
205.411	91.65
205.63	77.31
205.849	65.02
206.068	19.97
206.287	-12.8
206.505	40.45
206.724	11.78
206.943	13.82
207.162	22.02
207.381	28.16
207.599	30.21
207.818	-41.47
208.037	69.12
208.255	67.07
208.474	36.35
208.693	-23.04
208.911	-6.66
209.13	77.31
209.349	-0.51
209.567	15.87
209.786	40.45
210.005	46.59
210.223	93.69
210.442	65.02
210.661	22.02
210.879	-31.23
211.098	-117.25
211.316	50.69
211.535	17.92
211.753	28.16
211.972	81.41
212.191	77.31
212.409	89.6
212.628	91.65
212.846	-12.8
213.065	67.07
213.283	24.06
213.502	15.87
213.72	-16.9
213.938	26.11
214.157	24.06
214.375	24.06
214.594	54.78
214.812	42.5
215.031	-23.04
215.249	32.26
215.467	1.54
215.686	3.58
215.904	24.06
216.122	40.45
216.341	83.45
216.559	-57.86
216.778	130.56
216.996	30.21
217.214	1.54
217.432	11.78
217.651	-25.09
217.869	-57.86
218.087	-25.09
218.306	-23.04
218.524	22.02
218.742	-37.38
218.96	-12.8
219.179	17.92
219.397	19.97
219.615	9.73
219.833	60.93
220.051	1.54
220.27	-27.14
220.488	30.21
220.706	36.35
220.924	-14.85
221.142	1.54
221.36	22.02
221.578	17.92
221.796	44.54
222.015	5.63
222.233	52.74
222.451	138.75
222.669	13.82
222.887	44.54
223.105	-4.61
223.323	73.21
223.541	-37.38
223.759	-31.23
223.977	22.02
224.195	62.98
224.413	52.74
224.631	19.97
224.849	11.78
225.067	114.17
225.285	-20.99
225.503	-61.95
225.721	26.11
225.939	58.88
226.157	28.16
226.375	36.35
226.592	26.11
226.81	40.45
227.028	24.06
227.246	40.45
227.464	17.92
227.682	-37.38
227.9	60.93
228.117	101.89
228.335	-16.9
228.553	-55.81
228.771	22.02
228.989	112.13
229.206	46.59
229.424	22.02
229.642	103.93
229.86	50.69
230.077	75.26
230.295	-10.75
230.513	34.3
230.731	34.3
230.948	-39.42
231.166	75.26
231.384	-31.23
231.601	-12.8
231.819	-23.04
232.037	67.07
232.254	-0.51
232.472	56.83
232.689	-80.38
232.907	38.4
233.125	58.88
233.342	-18.94
233.56	26.11
233.777	-23.04
233.995	-2.56
234.213	1.54
234.43	9.73
234.648	-4.61
234.865	58.88
235.083	-16.9
235.3	-41.47
235.518	30.21
235.735	50.69
235.953	-4.61
236.17	22.02
236.388	30.21
236.605	-72.19
236.822	40.45
237.04	24.06
237.257	22.02
237.475	9.73
237.692	50.69
237.909	42.5
238.127	54.78
238.344	-6.66
238.562	42.5
238.779	-16.9
238.996	-18.94
239.214	24.06
239.431	50.69
239.648	-33.28
239.865	83.45
240.083	22.02
240.3	83.45
240.517	30.21
240.735	46.59
240.952	-8.7
241.169	-2.56
241.386	9.73
241.603	17.92
241.821	56.83
242.038	83.45
242.255	19.97
242.472	-25.09
242.689	-14.85
242.907	95.74
243.124	22.02
243.341	69.12
243.558	3.58
243.775	-16.9
243.992	44.54
244.209	11.78
244.426	62.98
244.643	38.4
244.86	-2.56
245.078	28.16
245.295	69.12
245.512	-29.18
245.729	-37.38
245.946	58.88
246.163	-29.18
246.38	19.97
246.597	-16.9
246.814	-18.94
247.031	60.93
247.248	22.02
247.464	30.21
247.681	26.11
247.898	81.41
248.115	-29.18
248.332	87.55
248.549	67.07
248.766	15.87
248.983	32.26
249.2	83.45
249.417	-6.66
249.633	-4.61
249.85	128.51
250.067	5.63
250.284	22.02
250.501	67.07
250.717	28.16
250.934	-6.66
251.151	93.69
251.368	36.35
251.585	9.73
251.801	-4.61
252.018	7.68
252.235	42.5
252.451	-41.47
252.668	52.74
252.885	-29.18
253.102	19.97
253.318	44.54
253.535	50.69
253.752	24.06
253.968	48.64
254.185	-6.66
254.401	54.78
254.618	48.64
254.835	-18.94
255.051	11.78
255.268	42.5
255.484	77.31
255.701	42.5
255.917	5.63
256.134	75.26
256.351	60.93
256.567	11.78
256.784	30.21
257	-10.75
257.217	69.12
257.433	5.63
257.65	1.54
257.866	34.3
258.082	-31.23
258.299	46.59
258.515	19.97
258.732	-2.56
258.948	101.89
259.165	-51.71
259.381	-12.8
259.597	69.12
259.814	22.02
260.03	101.89
260.246	9.73
260.463	79.36
260.679	83.45
260.895	-8.7
261.112	42.5
261.328	17.92
261.544	62.98
261.761	22.02
261.977	24.06
262.193	-37.38
262.409	-14.85
262.626	89.6
262.842	48.64
263.058	75.26
263.274	-45.57
263.49	67.07
263.707	97.79
263.923	69.12
264.139	22.02
264.355	87.55
264.571	42.5
264.787	7.68
265.004	17.92
265.22	32.26
265.436	19.97
265.652	89.6
265.868	19.97
266.084	-43.52
266.3	28.16
266.516	-76.29
266.732	-6.66
266.948	44.54
267.164	71.17
267.38	-0.51
267.596	116.22
267.812	3.58
268.028	73.21
268.244	-53.76
268.46	58.88
268.676	34.3
268.892	-2.56
269.108	9.73
269.324	126.46
269.54	-18.94
269.756	103.93
269.972	52.74
270.188	-20.99
270.403	60.93
270.619	91.65
270.835	75.26
271.051	48.64
271.267	54.78
271.483	-18.94
271.698	85.5
271.914	97.79
272.13	-10.75
272.346	79.36
272.562	73.21
272.777	73.21
272.993	73.21
273.209	60.93
273.425	24.06
273.64	132.61
273.856	17.92
274.072	-10.75
274.287	-0.51
274.503	56.83
274.719	62.98
274.934	30.21
275.15	11.78
275.366	19.97
275.581	36.35
275.797	30.21
276.012	5.63
276.228	17.92
276.444	40.45
276.659	73.21
276.875	103.93
277.09	7.68
277.306	5.63
277.521	87.55
277.737	-6.66
277.952	22.02
278.168	19.97
278.383	52.74
278.599	26.11
278.814	56.83
279.03	-41.47
279.245	24.06
279.461	34.3
279.676	17.92
279.892	28.16
280.107	126.46
280.322	17.92
280.538	97.79
280.753	-6.66
280.969	52.74
281.184	50.69
281.399	79.36
281.615	65.02
281.83	13.82
282.045	-45.57
282.26	5.63
282.476	32.26
282.691	71.17
282.906	-6.66
283.122	83.45
283.337	54.78
283.552	-96.77
283.767	-2.56
283.983	108.03
284.198	38.4
284.413	-10.75
284.628	-41.47
284.843	97.79
285.058	58.88
285.274	128.51
285.489	-18.94
285.704	1.54
285.919	71.17
286.134	48.64
286.349	30.21
286.564	40.45
286.779	108.03
286.995	3.58
287.21	26.11
287.425	44.54
287.64	75.26
287.855	81.41
288.07	44.54
288.285	122.37
288.5	60.93
288.715	36.35
288.93	30.21
289.145	7.68
289.36	67.07
289.575	62.98
289.79	116.22
290.004	32.26
290.219	42.5
290.434	-4.61
290.649	1.54
290.864	22.02
291.079	15.87
291.294	-20.99
291.509	85.5
291.724	69.12
291.938	19.97
292.153	69.12
292.368	62.98
292.583	56.83
292.798	54.78
293.012	-0.51
293.227	38.4
293.442	-23.04
293.657	38.4
293.871	89.6
294.086	62.98
294.301	48.64
294.516	26.11
294.73	75.26
294.945	-27.14
295.16	24.06
295.374	38.4
295.589	122.37
295.804	22.02
296.018	-14.85
296.233	65.02
296.447	36.35
296.662	-10.75
296.877	60.93
297.091	71.17
297.306	56.83
297.52	11.78
297.735	50.69
297.949	13.82
298.164	17.92
298.378	42.5
298.593	103.93
298.807	-12.8
299.022	44.54
299.236	77.31
299.451	67.07
299.665	46.59
299.88	32.26
300.094	71.17
300.309	40.45
300.523	-0.51
300.737	89.6
300.952	-10.75
301.166	52.74
301.381	67.07
301.595	3.58
301.809	89.6
302.024	101.89
302.238	56.83
302.452	-29.18
302.667	48.64
302.881	36.35
303.095	103.93
303.309	56.83
303.524	-43.52
303.738	3.58
303.952	-23.04
304.166	28.16
304.381	44.54
304.595	48.64
304.809	-4.61
305.023	7.68
305.237	-0.51
305.452	22.02
305.666	105.98
305.88	7.68
306.094	62.98
306.308	32.26
306.522	38.4
306.736	52.74
306.95	56.83
307.164	67.07
307.379	-8.7
307.593	124.41
307.807	28.16
308.021	73.21
308.235	85.5
308.449	58.88
308.663	-43.52
308.877	93.69
309.091	93.69
309.305	24.06
309.519	48.64
309.733	69.12
309.947	-68.09
310.161	34.3
310.374	91.65
310.588	79.36
310.802	46.59
311.016	97.79
311.23	9.73
311.444	24.06
311.658	11.78
311.872	-0.51
312.085	58.88
312.299	79.36
312.513	67.07
312.727	87.55
312.941	73.21
313.154	81.41
313.368	124.41
313.582	52.74
313.796	9.73
314.009	32.26
314.223	52.74
314.437	67.07
314.651	108.03
314.864	75.26
315.078	-16.9
315.292	52.74
315.505	40.45
315.719	81.41
315.933	-20.99
316.146	50.69
316.36	-27.14
316.573	87.55
316.787	67.07
317.001	85.5
317.214	58.88
317.428	85.5
317.641	46.59
317.855	36.35
318.068	58.88
318.282	38.4
318.495	85.5
318.709	75.26
318.922	95.74
319.136	24.06
319.349	50.69
319.563	19.97
319.776	-49.66
319.99	44.54
320.203	-16.9
320.417	28.16
320.63	19.97
320.843	134.65
321.057	87.55
321.27	-35.33
321.483	38.4
321.697	50.69
321.91	32.26
322.124	73.21
322.337	19.97
322.55	42.5
322.763	-49.66
322.977	42.5
323.19	-41.47
323.403	-0.51
323.617	89.6
323.83	22.02
324.043	62.98
324.256	46.59
324.469	50.69
324.683	52.74
324.896	46.59
325.109	99.84
325.322	-61.95
325.535	52.74
325.748	32.26
325.962	58.88
326.175	32.26
326.388	-0.51
326.601	56.83
326.814	30.21
327.027	40.45
327.24	65.02
327.453	5.63
327.666	69.12
327.879	44.54
328.092	24.06
328.305	65.02
328.518	48.64
328.731	85.5
328.944	67.07
329.157	122.37
329.37	50.69
329.583	56.83
329.796	36.35
330.009	-43.52
330.222	50.69
330.435	46.59
330.648	17.92
330.861	50.69
331.073	50.69
331.286	36.35
331.499	40.45
331.712	65.02
331.925	50.69
332.138	67.07
332.35	101.89
332.563	-27.14
332.776	87.55
332.989	26.11
333.202	46.59
333.414	34.3
333.627	34.3
333.84	65.02
334.053	-8.7
334.265	28.16
334.478	54.78
334.691	22.02
334.903	62.98
335.116	-35.33
335.329	77.31
335.541	60.93
335.754	69.12
335.966	32.26
336.179	46.59
336.392	108.03
336.604	-8.7
336.817	34.3
337.029	40.45
337.242	-8.7
337.454	89.6
337.667	50.69
337.88	48.64
338.092	28.16
338.305	48.64
338.517	28.16
338.729	48.64
338.942	58.88
339.154	73.21
339.367	1.54
339.579	36.35
339.792	-6.66
340.004	-2.56
340.217	-4.61
340.429	89.6
340.641	42.5
340.854	81.41
341.066	83.45
341.278	69.12
341.491	48.64
341.703	-27.14
341.915	-4.61
342.128	34.3
342.34	15.87
342.552	130.56
342.764	52.74
342.977	13.82
343.189	17.92
343.401	83.45
343.613	38.4
343.826	-27.14
344.038	3.58
344.25	65.02
344.462	83.45
344.674	77.31
344.886	40.45
345.099	19.97
345.311	17.92
345.523	81.41
345.735	99.84
345.947	11.78
346.159	-25.09
346.371	114.17
346.583	-35.33
346.795	103.93
347.007	73.21
347.219	65.02
347.431	36.35
347.643	124.41
347.855	19.97
348.067	7.68
348.279	60.93
348.491	13.82
348.703	-4.61
348.915	-20.99
349.127	-2.56
349.339	54.78
349.551	48.64
349.763	54.78
349.975	17.92
350.187	97.79
350.399	91.65
350.61	-8.7
350.822	-4.61
351.034	60.93
351.246	38.4
351.458	52.74
351.669	69.12
351.881	58.88
352.093	81.41
352.305	93.69
352.517	58.88
352.728	13.82
352.94	75.26
353.152	146.94
353.363	-16.9
353.575	38.4
353.787	89.6
353.999	32.26
354.21	54.78
354.422	36.35
354.633	93.69
354.845	42.5
355.057	120.32
355.268	52.74
355.48	46.59
355.692	46.59
355.903	42.5
356.115	144.89
356.326	28.16
356.538	91.65
356.749	40.45
356.961	40.45
357.172	79.36
357.384	13.82
357.595	52.74
357.807	67.07
358.018	36.35
358.23	32.26
358.441	13.82
358.653	58.88
358.864	42.5
359.075	105.98
359.287	17.92
359.498	42.5
359.709	7.68
359.921	85.5
360.132	114.17
360.344	40.45
360.555	54.78
360.766	42.5
360.977	93.69
361.189	73.21
361.4	71.17
361.611	60.93
361.823	56.83
362.034	83.45
362.245	60.93
362.456	7.68
362.667	85.5
362.879	124.41
363.09	103.93
363.301	22.02
363.512	7.68
363.723	48.64
363.935	34.3
364.146	95.74
364.357	30.21
364.568	67.07
364.779	32.26
364.99	36.35
365.201	56.83
365.412	19.97
365.623	19.97
365.834	108.03
366.045	124.41
366.256	91.65
366.467	77.31
366.678	93.69
366.889	97.79
367.1	73.21
367.311	99.84
367.522	67.07
367.733	91.65
367.944	36.35
368.155	46.59
368.366	97.79
368.577	-33.28
368.788	85.5
368.999	91.65
369.209	15.87
369.42	120.32
369.631	52.74
369.842	50.69
370.053	69.12
370.264	-2.56
370.474	-14.85
370.685	54.78
370.896	91.65
371.107	112.13
371.317	75.26
371.528	19.97
371.739	87.55
371.95	13.82
372.16	85.5
372.371	11.78
372.582	112.13
372.792	26.11
373.003	48.64
373.214	19.97
373.424	75.26
373.635	79.36
373.846	108.03
374.056	118.27
374.267	32.26
374.477	79.36
374.688	42.5
374.898	105.98
375.109	124.41
375.319	95.74
375.53	42.5
375.74	77.31
375.951	48.64
376.161	48.64
376.372	19.97
376.582	54.78
376.793	-8.7
377.003	95.74
377.214	26.11
377.424	30.21
377.635	36.35
377.845	1.54
378.055	81.41
378.266	22.02
378.476	32.26
378.686	58.88
378.897	95.74
379.107	-29.18
379.317	44.54
379.528	62.98
379.738	62.98
379.948	65.02
380.158	67.07
380.369	34.3
380.579	81.41
380.789	62.98
380.999	142.85
381.21	87.55
381.42	40.45
381.63	60.93
381.84	83.45
382.05	112.13
382.261	83.45
382.471	-2.56
382.681	81.41
382.891	126.46
383.101	77.31
383.311	24.06
383.521	83.45
383.731	22.02
383.941	22.02
384.151	67.07
384.361	81.41
384.571	73.21
384.781	73.21
384.991	120.32
385.201	101.89
385.411	105.98
385.621	75.26
385.831	58.88
386.041	56.83
386.251	58.88
386.461	91.65
386.671	17.92
386.881	130.56
387.091	65.02
387.301	71.17
387.511	54.78
387.72	75.26
387.93	52.74
388.14	114.17
388.35	93.69
388.56	93.69
388.769	132.61
388.979	-4.61
389.189	9.73
389.399	71.17
389.609	40.45
389.818	108.03
390.028	62.98
390.238	140.8
390.447	42.5
390.657	46.59
390.867	58.88
391.076	-23.04
391.286	122.37
391.496	75.26
391.705	1.54
391.915	62.98
392.125	65.02
392.334	189.95
392.544	99.84
392.753	124.41
392.963	155.13
393.172	93.69
393.382	95.74
393.591	116.22
393.801	58.88
394.01	173.57
394.22	69.12
394.429	118.27
394.639	95.74
394.848	151.04
395.058	163.33
395.267	95.74
395.477	163.33
395.686	89.6
395.895	179.71
396.105	126.46
396.314	101.89
396.524	71.17
396.733	103.93
396.942	151.04
397.152	157.18
397.361	161.28
397.57	181.76
397.78	198.14
397.989	200.19
398.198	161.28
398.407	83.45
398.617	171.52
398.826	153.09
399.035	114.17
399.244	81.41
399.453	126.46
399.663	85.5
399.872	112.13
400.081	114.17
400.29	189.95
400.499	136.7
400.708	91.65
400.917	134.65
401.127	192
401.336	140.8
401.545	99.84
401.754	165.37
401.963	128.51
402.172	126.46
402.381	187.9
402.59	173.57
402.799	153.09
403.008	134.65
403.217	155.13
403.426	181.76
403.635	138.75
403.844	226.81
404.053	101.89
404.262	140.8
404.471	212.48
404.68	171.52
404.888	136.7
405.097	126.46
405.306	183.81
405.515	169.47
405.724	177.66
405.933	251.39
406.142	251.39
406.35	257.53
406.559	312.83
406.768	210.43
406.977	224.76
407.185	288.25
407.394	386.55
407.603	269.82
407.812	273.92
408.02	347.64
408.229	339.45
408.438	318.97
408.646	329.21
408.855	353.79
409.064	349.69
409.272	392.7
409.481	419.32
409.69	374.27
409.898	402.94
410.107	443.9
410.315	472.57
410.524	429.56
410.733	511.48
410.941	519.67
411.15	517.62
411.358	538.1
411.567	513.53
411.775	470.52
411.984	511.48
412.192	622.07
412.401	632.31
412.609	634.36
412.818	720.37
413.026	712.18
413.234	708.09
413.443	787.96
413.651	804.34
413.86	761.33
414.068	777.72
414.276	871.92
414.485	957.94
414.693	861.68
414.901	892.4
415.11	955.89
415.318	998.9
415.526	923.12
415.734	1134.06
415.943	1089.01
416.151	1158.64
416.359	1097.2
416.567	1060.34
416.776	1261.04
416.984	1320.43
417.192	1394.15
417.4	1302
417.608	1367.53
417.817	1461.74
418.025	1492.46
418.233	1703.4
418.441	1658.34
418.649	1668.58
418.857	1773.03
419.065	1805.8
419.273	1721.83
419.481	1922.53
419.689	1957.35
419.897	2166.24
420.105	2125.28
420.313	2139.62
420.521	2199.01
420.729	2328.03
420.937	2364.89
421.145	2395.61
421.353	2661.85
421.561	2661.85
421.769	2727.38
421.977	2962.9
422.185	2743.77
422.393	3143.12
422.601	3231.18
422.809	3151.31
423.017	3284.43
423.224	3382.73
423.432	3665.35
423.64	3558.86
423.848	3800.52
424.056	3737.03
424.263	4023.75
424.471	4109.76
424.679	4107.71
424.887	4179.39
425.094	4373.95
425.302	4505.02
425.51	4535.74
425.718	4752.82
425.925	4838.84
426.133	5074.35
426.341	5434.8
426.548	5545.39
426.756	5506.48
426.964	5760.42
427.171	5836.2
427.379	6104.48
427.586	6227.36
427.794	6301.09
428.001	6788.5
428.209	6792.6
428.417	6942.1
428.624	7429.52
428.832	7392.66
429.039	7341.46
429.247	7357.84
429.454	7990.66
429.662	8553.85
429.869	8078.72
430.076	8676.73
430.284	8281.47
430.491	8639.87
430.699	9145.72
430.906	9227.64
431.114	9442.67
431.321	9766.25
431.528	9887.08
431.736	10378.59
431.943	11001.18
432.15	10642.78
432.358	10851.67
432.565	11554.13
432.772	11279.7
432.979	11883.85
433.187	12264.77
433.394	12086.6
433.601	13022.52
433.808	13057.34
434.016	12748.09
434.223	13489.46
434.43	14449.96
434.637	14130.47
434.844	15201.56
435.052	15240.47
435.259	15080.73
435.466	15432.98
435.673	14996.76
435.88	16131.34
436.087	17014.01
436.294	17005.82
436.501	16723.2
436.708	16762.11
436.915	17169.66
437.122	18371.82
437.329	18199.79
437.537	18967.77
437.743	19066.08
437.95	18955.49
438.157	20118.73
438.364	20743.36
438.571	20444.36
438.778	20772.04
438.985	22529.19
439.192	21580.98
439.399	22807.72
439.606	22000.82
439.813	23135.39
440.02	24556.68
440.227	23829.65
440.433	24083.6
440.64	24925.32
440.847	24446.09
441.054	25441.4
441.261	26819.69
441.467	26422.38
441.674	27245.66
441.881	27993.17
442.088	27737.18
442.294	27663.45
442.501	28669
442.708	29078.6
442.914	30467.12
443.121	31441.95
443.328	30565.42
443.534	32769.04
443.741	31638.56
443.948	31437.86
444.154	33618.94
444.361	33418.24
444.568	33704.96
444.774	33840.12
444.981	34006.01
445.187	35093.48
445.394	36660.18
445.6	36074.46
445.807	39664.55
446.013	37825.47
446.22	38458.29
446.426	40090.52
446.633	40094.62
446.839	41653.12
447.046	39682.98
447.252	41685.89
447.459	42648.44
447.665	42228.6
447.871	44102.5
448.078	46156.61
448.284	43385.71
448.491	44610.39
448.697	46781.24
448.903	47172.4
449.11	47395.63
449.316	46684.98
449.522	47973.16
449.728	48700.18
449.935	49117.97
450.141	49328.91
450.347	49965.83
450.553	48847.64
450.76	49345.3
450.966	51149.56
451.172	50459.39
451.378	51639.02
451.584	50955
451.791	51876.58
451.997	51821.29
452.203	52675.29
452.409	52148.96
452.615	51649.26
452.821	50158.34
453.027	49945.35
453.233	52380.38
453.44	50266.88
453.646	51335.92
453.852	51163.89
454.058	52181.73
454.264	50258.69
454.47	51426.03
454.676	50617.08
454.882	51800.81
455.088	47397.68
455.294	48374.56
455.5	48761.62
455.705	49836.81
455.911	47686.44
456.117	46971.7
456.323	46000.96
456.529	43866.98
456.735	45402.96
456.941	44374.87
457.147	43385.71
457.352	42257.28
457.558	41880.45
457.764	42158.97
457.97	41081.74
458.176	40565.65
458.381	40577.94
458.587	38167.48
458.793	38640.56
458.999	36512.72
459.204	38966.19
459.41	37993.4
459.616	35945.44
459.821	35304.42
460.027	35591.14
460.233	34657.26
460.438	33088.52
460.644	33582.08
460.85	31562.78
461.055	31294.5
461.261	31321.12
461.466	29097.03
461.672	27737.18
461.878	29948.98
462.083	28134.48
462.289	27817.05
462.494	27370.59
462.7	25855.09
462.905	25369.72
463.111	26135.67
463.316	26350.7
463.522	26004.6
463.727	25977.97
463.932	26205.3
464.138	25361.53
464.343	25418.88
464.549	25080.96
464.754	25517.18
464.959	25529.47
465.165	25283.71
465.37	24319.12
465.575	23551.13
465.781	24675.46
465.986	24511.63
466.191	23964.82
466.397	23280.8
466.602	21931.19
466.807	23014.56
467.012	23305.37
467.218	22764.71
467.423	22701.22
467.628	22844.58
467.833	23751.83
468.038	22717.61
468.244	22238.38
468.449	23157.92
468.654	22240.43
468.859	22041.78
469.064	22224.04
469.269	21132.48
469.474	21132.48
469.679	21685.43
469.885	21290.17
470.09	21589.17
470.295	21257.4
470.5	20837.57
470.705	20827.33
470.91	20540.61
471.115	20214.99
471.32	20262.09
471.525	20575.43
471.73	20032.72
471.935	19799.25
472.139	19295.45
472.344	19670.23
472.549	19387.61
472.754	19168.48
472.959	18595.04
473.164	18046.19
473.369	18105.58
473.574	18552.04
473.778	18498.79
473.983	18287.85
474.188	18099.44
474.393	17444.09
474.598	17444.09
474.802	17300.73
475.007	17442.04
475.212	17370.36
475.417	16760.06
475.621	16639.23
475.826	16884.99
476.031	16250.12
476.235	16295.18
476.44	16387.33
476.645	15844.62
476.849	15869.2
477.054	15846.67
477.259	15570.19
477.463	15781.14
477.668	15166.74
477.872	15164.7
478.077	15088.92
478.282	14630.18
478.486	14894.36
478.691	14572.83
478.895	14601.51
479.1	14357.8
479.304	14564.64
479.509	14011.69
479.713	14230.82
479.918	13960.49
480.122	13743.41
480.326	13913.39
480.531	13905.2
480.735	13829.42
480.94	13800.75
481.144	13870.38
481.348	13423.92
481.553	13550.9
481.757	13151.54
481.961	13712.69
482.166	13585.71
482.37	13696.3
482.574	13182.26
482.778	13229.37
482.983	13600.05
483.187	13499.7
483.391	13700.4
483.595	13471.03
483.8	13157.69
484.004	13286.71
484.208	13415.73
484.412	13141.3
484.616	13493.55
484.821	13356.34
485.025	13423.92
485.229	13413.68
485.433	13247.8
485.637	13405.49
485.841	13204.79
486.045	13237.56
486.249	13299
486.453	13360.44
486.657	13321.52
486.861	13593.9
487.065	13034.81
487.269	13299
487.473	13348.15
487.677	13460.79
487.881	13352.24
488.085	13333.81
488.289	13493.55
488.493	13192.5
488.697	13567.28
488.901	13458.74
489.105	13501.75
489.309	13507.89
489.512	13776.17
489.716	13602.1
489.92	13499.7
490.124	13702.45
490.328	13843.76
490.531	13339.96
490.735	13518.13
490.939	13784.37
491.143	13440.31
491.346	13684.02
491.55	13862.19
491.754	13917.48
491.958	14114.09
492.161	13956.4
492.365	13956.4
492.569	13847.85
492.772	14028.07
492.976	14034.22
493.18	14347.56
493.383	14574.88
493.587	14628.13
493.79	14691.62
493.994	14269.73
494.197	14751.01
494.401	14691.62
494.605	14660.9
494.808	14984.48
495.012	14933.28
495.215	15174.94
495.419	15357.21
495.622	15127.83
495.825	15568.15
496.029	15478.04
496.232	15895.82
496.436	15451.41
496.639	15967.5
496.843	16125.19
497.046	16248.07
497.249	16557.32
497.453	16356.61
497.656	16694.53
497.859	16803.07
498.063	16813.31
498.266	17190.14
498.469	17030.4
498.673	17431.8
498.876	17806.58
499.079	17884.4
499.282	17646.83
499.485	18138.35
499.689	18281.71
499.892	18681.06
500.095	18607.33
500.298	19240.15
500.501	18971.87
500.705	19451.1
500.908	19690.71
501.111	19541.21
501.314	19969.23
501.517	20088.01
501.72	20399.3
501.923	20378.83
502.126	20704.45
502.329	21535.93
502.532	21357.75
502.735	21519.54
502.938	21888.18
503.141	22056.11
503.344	22434.99
503.547	22056.11
503.75	22617.25
503.953	22897.83
504.156	23139.49
504.359	23422.11
504.562	23426.2
504.765	24018.07
504.968	23919.76
505.17	24329.36
505.373	24396.94
505.576	25160.83
505.779	25173.12
505.982	25123.97
506.185	25717.88
506.387	25695.35
506.59	25975.92
506.793	26555.5
506.996	26768.49
507.198	26883.17
507.401	27065.44
507.604	27356.25
507.807	27837.53
508.009	28040.28
508.212	28138.58
508.415	28505.17
508.617	28851.27
508.82	29148.23
509.022	29019.21
509.225	29488.19
509.428	29912.12
509.63	29709.37
509.833	30172.21
510.035	30635.05
510.238	30798.89
510.44	31194.15
510.643	31321.12
510.845	31857.69
511.048	31697.95
511.25	32234.52
511.453	32302.1
511.655	33582.08
511.858	33139.72
512.06	33582.08
512.262	33815.55
512.465	33788.92
512.667	34372.6
512.87	34348.02
513.072	34487.28
513.274	35564.51
513.477	35767.26
513.679	36002.78
513.881	36623.31
514.084	36590.55
514.286	36871.12
514.488	37034.95
514.69	37522.37
514.893	37671.87
515.095	37962.68
515.297	38898.61
515.499	38615.99
515.701	39025.58
515.904	39463.85
516.106	39406.5
516.308	40313.75
516.51	40237.98
516.712	40827.79
516.914	41206.67
517.116	41399.18
517.318	41454.47
517.52	41980.8
517.722	41956.22
517.925	42836.85
518.127	43209.58
518.329	43178.86
518.531	43334.51
518.733	44292.96
518.935	44090.21
519.136	44202.85
519.338	44843.86
519.54	44997.46
519.742	45222.73
519.944	45613.9
520.146	46105.41
520.348	46203.71
520.55	46805.81
520.752	47047.47
520.954	47581.99
521.155	47409.96
521.357	48157.47
521.559	48524.06
521.761	48917.27
521.963	48970.52
522.164	48663.32
522.366	49001.24
522.568	49627.91
522.77	49726.22
522.971	50275.07
523.173	50418.43
523.375	50461.44
523.576	50877.18
523.778	50918.14
523.98	51897.06
524.181	51405.55
524.383	51788.52
524.584	52292.32
524.786	52179.68
524.988	51792.62
525.189	53238.48
525.391	53191.38
525.592	53144.28
525.794	53424.85
525.995	53619.41
526.197	53652.17
526.398	54000.33
526.6	54106.82
526.801	54153.93
527.003	54696.64
527.204	54282.95
527.406	55014.07
527.607	55368.37
527.808	55360.18
528.01	54473.41
528.211	55046.84
528.412	55919.27
528.614	55470.77
528.815	55716.53
529.016	56427.17
529.218	55476.91
529.419	56246.95
529.62	55960.23
529.822	55816.88
530.023	56306.34
530.224	56441.51
530.425	56353.44
530.626	56050.34
530.828	55882.41
531.029	57217.69
531.23	56433.31
531.431	56261.29
531.632	56310.44
531.833	57047.71
532.035	56744.61
532.236	56875.68
532.437	57332.37
532.638	56695.45
532.839	57260.69
533.04	57074.33
533.241	56437.41
533.442	57535.12
533.643	57256.6
533.844	56998.55
534.045	57270.93
534.246	56933.02
534.447	57389.72
534.648	56625.82
534.849	57625.23
535.05	57053.85
535.251	57451.16
535.451	57121.43
535.652	57506.45
535.853	56998.55
536.054	57834.13
536.255	57643.66
536.456	57131.67
536.657	57367.19
536.857	57436.82
537.058	57084.57
537.259	57782.93
537.46	57842.32
537.66	56939.16
537.861	57463.44
538.062	57156.25
538.263	57471.64
538.463	57195.16
538.664	57180.82
538.865	57328.28
539.065	57606.8
539.266	56994.46
539.466	57535.12
539.667	56537.76
539.868	57410.2
540.068	57344.66
540.269	57201.3
540.469	57326.23
540.67	56973.98
540.87	57182.87
541.071	57043.61
541.271	57481.87
541.472	57651.86
541.672	57080.47
541.873	57025.18
542.073	56316.58
542.274	57418.39
542.474	56902.3
542.675	56793.76
542.875	57393.81
543.075	56810.14
543.276	56631.97
543.476	57203.35
543.676	57059.99
543.877	57481.87
544.077	56949.4
544.277	56795.81
544.478	57008.79
544.678	56967.83
544.878	56765.09
545.078	56887.96
545.279	56470.18
545.479	56351.4
545.679	57135.77
545.879	57000.6
546.079	56457.89
546.28	56748.7
546.48	56093.35
546.68	57051.8
546.88	56908.44
547.08	56416.93
547.28	56388.26
547.48	56246.95
547.68	56617.63
547.88	56527.52
548.081	56720.03
548.281	56797.85
548.481	56304.29
548.681	56812.19
548.881	56285.86
549.081	56283.81
549.28	56451.75
549.48	56726.17
549.68	56492.71
549.88	56953.5
550.08	56175.27
550.28	56744.61
550.48	56062.63
550.68	56752.8
550.88	56083.11
551.08	56191.65
551.279	56201.89
551.479	56052.39
551.679	56122.02
551.879	56122.02
552.079	56365.73
552.278	55687.85
552.478	56238.76
552.678	56392.36
552.878	56482.47
553.077	56031.91
553.277	55982.76
553.477	56441.51
553.676	55886.51
553.876	55829.16
554.076	55863.98
554.275	55722.67
554.475	55075.51
554.674	55831.21
554.874	55855.79
555.074	55452.34
555.273	55722.67
555.473	55587.5
555.672	55188.15
555.872	55306.93
556.071	55544.5
556.271	55667.37
556.47	55386.8
556.67	54983.35
556.869	55610.03
557.068	55581.36
557.268	54868.67
557.467	55134.9
557.667	55329.46
557.866	55151.29
558.065	54926.01
558.265	55177.91
558.464	54395.59
558.663	54817.47
558.863	54471.36
559.062	55085.75
559.261	54366.91
559.461	55345.84
559.66	54510.27
559.859	54684.35
560.058	54115.01
560.258	54790.84
560.457	53883.59
560.656	54463.17
560.855	53979.85
561.054	54381.25
561.253	53523.15
561.453	54393.54
561.652	53885.64
561.851	54545.09
562.05	53719.76
562.249	53476.05
562.448	53983.94
562.647	53852.87
562.846	53600.97
563.045	53682.89
563.244	53215.96
563.443	53637.84
563.642	53086.93
563.841	53248.72
564.04	53353.17
564.239	53545.68
564.438	52693.72
564.637	52916.95
564.836	53078.74
565.035	52775.64
565.234	52884.19
565.432	52706.01
565.631	52634.33
565.83	52474.59
566.029	52325.09
566.228	52343.52
566.427	51952.36
566.625	51895.02
566.824	51544.81
567.023	52187.88
567.222	51235.57
567.42	52181.73
567.619	51866.34
567.818	51901.16
568.016	51088.12
568.215	51806.95
568.414	51548.91
568.612	51643.12
568.811	51239.67
569.01	50948.85
569.208	50946.81
569.407	50901.75
569.605	50277.12
569.804	51147.51
570.002	50483.97
570.201	50987.77
570.4	50227.97
570.598	50248.45
570.797	50199.3
570.995	50246.4
571.193	49849.1
571.392	50141.95
571.59	49965.83
571.789	49658.63
571.987	49451.79
572.186	49918.73
572.384	49306.38
572.582	49859.34
572.781	49533.71
572.979	48720.66
573.177	48839.45
573.376	49261.33
573.574	49025.81
573.772	49363.73
573.971	48708.38
574.169	48499.48
574.367	48274.21
574.565	48546.59
574.763	47915.81
574.962	48128.8
575.16	47729.45
575.358	48450.33
575.556	47881
575.754	48073.51
575.952	47684.39
576.151	47837.99
576.349	46932.79
576.547	47403.82
576.745	47749.93
576.943	47387.44
577.141	46863.16
577.339	46904.12
577.537	47178.54
577.735	46877.49
577.933	46775.09
578.131	46773.05
578.329	46471.99
578.527	45982.53
578.725	46172.99
578.923	46912.31
579.121	46402.36
579.319	46082.88
579.516	46064.45
579.714	45853.51
579.912	45501.26
580.11	45583.18
580.308	45400.91
580.506	45534.03
580.704	44981.07
580.901	45314.89
581.099	45212.49
581.297	44710.74
581.495	44833.62
581.692	45077.33
581.89	44782.42
582.088	44850
582.285	44313.44
582.483	44780.37
582.681	44000.1
582.878	44213.09
583.076	43543.4
583.274	44264.28
583.471	43551.59
583.669	44010.34
583.866	43840.36
584.064	43805.54
584.262	43109.23
584.459	43436.91
584.657	43101.04
584.854	43731.81
585.052	42720.12
585.249	42947.44
585.447	43078.51
585.644	42451.83
585.841	42367.87
586.039	42818.42
586.236	41921.41
586.434	42290.04
586.631	41902.98
586.828	41833.35
587.026	42148.73
587.223	41716.61
587.42	41585.54
587.618	41792.39
587.815	41472.9
588.012	41411.46
588.21	41606.02
588.407	41327.5
588.604	41268.11
588.801	40895.38
588.999	41089.93
589.196	40659.86
589.393	40655.76
589.59	40645.52
589.787	40147.87
589.984	40362.9
590.182	39787.42
590.379	40176.54
590.576	40000.41
590.773	40002.46
590.97	40197.02
591.167	39633.83
591.364	39226.28
591.561	39517.09
591.758	38919.09
591.955	38904.75
592.152	39324.58
592.349	38906.8
592.546	38958
592.743	39058.35
592.94	38419.38
593.137	38554.55
593.334	39185.32
593.531	38003.64
593.727	38403
593.924	38411.19
594.121	38030.27
594.318	38112.19
594.515	37829.57
594.712	38001.6
594.908	37483.46
595.105	37657.54
595.302	37389.25
595.499	37549
595.696	36928.46
595.892	37196.74
596.089	37178.31
596.286	37100.49
596.482	36815.82
596.679	36901.84
596.876	36942.8
597.072	36199.38
597.269	36266.97
597.466	36318.17
597.662	35683.3
597.859	36625.36
598.055	36146.14
598.252	35441.64
598.448	35771.36
598.645	35857.37
598.841	35587.04
599.038	35546.08
599.234	35249.13
599.431	35091.43
599.627	35068.9
599.824	35122.15
600.02	34892.78
600.217	35056.62
600.413	35083.24
600.609	34823.15
600.806	34694.13
601.002	34737.13
601.198	34077.69
601.395	34014.2
601.591	33807.36
601.787	34276.34
601.984	33963
602.18	34096.12
602.376	33645.57
602.572	33614.85
602.769	33723.39
602.965	33119.24
603.161	33418.24
603.357	33207.3
603.553	33082.38
603.75	33160.2
603.946	33119.24
604.142	33049.61
604.338	32828.43
604.534	32680.97
604.73	32259.09
604.926	32324.63
605.122	32504.85
605.318	32226.32
605.514	32136.21
605.71	32144.41
605.906	32101.4
606.102	31790.11
606.298	31786.01
606.494	31716.38
606.69	31685.66
606.886	31638.56
607.082	31386.66
607.278	31874.07
607.474	31126.57
607.67	31575.07
607.866	30719.02
608.062	31437.86
608.257	30970.92
608.453	31237.16
608.649	31140.9
608.845	30966.82
609.041	30686.25
609.236	30676.01
609.432	30716.97
609.628	30733.36
609.824	30377.01
610.019	30592.05
610.215	30540.85
610.411	30614.57
610.606	30092.34
610.802	30391.34
610.998	30393.39
611.193	30383.15
611.389	30252.08
611.584	29965.37
611.78	29766.71
611.976	29633.6
612.171	29975.61
612.367	29897.78
612.562	29625.4
612.758	29580.35
612.953	29480
613.149	29779
613.344	29424.7
613.539	29897.78
613.735	29535.29
613.93	29615.16
614.126	29226.05
614.321	29613.12
614.517	29162.56
614.712	28980.29
614.907	29127.75
615.103	29166.66
615.298	28728.39
615.493	29291.59
615.688	28740.68
615.884	29699.13
616.079	28582.99
616.274	28927.05
616.47	28838.98
616.665	28664.91
616.86	28433.49
617.055	28496.97
617.25	28103.76
617.445	28400.72
617.641	28099.67
617.836	28320.85
618.031	27819.1
618.226	28365.9
618.421	28042.32
618.616	28253.26
618.811	27556.96
619.006	28181.59
619.201	27067.49
619.396	27683.93
619.591	27235.42
619.786	27468.89
619.981	27202.66
620.176	27319.39
620.371	27034.72
620.566	27010.15
620.761	26715.24
620.956	26938.47
621.151	26387.57
621.346	26549.35
621.541	26082.42
621.735	26219.63
621.93	25672.82
622.125	26162.29
622.32	25539.71
622.515	25687.16
622.709	25607.29
622.904	25709.69
623.099	25443.45
623.294	25361.53
623.488	24931.46
623.683	24913.03
623.878	24525.96
624.072	24820.87
624.267	24702.09
624.462	24360.08
624.656	24333.45
624.851	24442
625.046	23915.67
625.24	23866.52
625.435	23800.98
625.629	23948.43
625.824	23387.29
626.018	23504.03
626.213	22883.49
626.407	23151.77
626.602	22826.15
626.796	22762.66
626.991	23039.14
627.185	22711.46
627.38	22379.69
627.574	22318.25
627.768	22334.64
627.963	22191.28
628.157	21869.75
628.352	22029.49
628.546	21804.21
628.74	21499.06
628.935	21685.43
629.129	21466.3
629.323	21068.99
629.517	20989.12
629.712	21046.46
629.906	20894.91
630.1	20980.93
630.294	20888.77
630.489	20774.08
630.683	20739.27
630.877	20268.23
631.071	20321.48
631.265	20301
631.459	19981.52
631.653	19924.18
631.848	20004.05
632.042	20098.25
632.236	19805.39
632.43	19653.84
632.624	19651.8
632.818	19403.99
633.012	19381.46
633.206	19191
633.4	19172.57
633.594	18939.1
633.788	18920.67
633.982	19344.6
634.176	18988.25
634.369	18646.24
634.563	18423.01
634.757	18308.33
634.951	18623.72
635.145	18253.03
635.339	18304.23
635.533	18185.45
635.726	18302.18
635.92	17861.87
636.114	17933.55
636.308	17845.49
636.501	17908.97
636.695	17685.75
636.889	17421.56
637.083	17376.5
637.276	17452.28
637.47	17435.89
637.664	17204.47
637.857	17112.31
638.051	17140.99
638.244	16995.58
638.438	16762.11
638.632	16643.33
638.825	16731.39
639.019	16276.74
639.212	16581.89
639.406	16231.69
639.599	16459.01
639.793	16303.37
639.986	15731.98
640.18	16112.91
640.373	15910.16
640.567	15873.29
640.76	16004.36
640.954	15965.45
641.147	15539.47
641.34	15607.06
641.534	15326.49
641.727	15301.91
641.92	15504.66
642.114	15080.73
642.307	15127.83
642.5	15095.07
642.694	14910.75
642.887	14945.56
643.08	14955.8
643.273	14839.07
643.467	14855.45
643.66	14429.48
643.853	14388.52
644.046	14339.37
644.239	14476.58
644.432	14292.26
644.626	13944.11
644.819	13860.14
645.012	14046.51
645.205	13872.43
645.398	14021.93
645.591	14005.55
645.784	13690.16
645.977	13722.93
646.17	13628.72
646.363	13528.37
646.556	13722.93
646.749	13442.35
646.942	13520.18
647.135	13376.82
647.328	13133.11
647.521	13034.81
647.714	13155.64
647.907	13202.74
648.099	12860.73
648.292	13038.91
648.485	12940.6
648.678	12576.06
648.871	12543.3
649.064	12528.96
649.256	12678.46
649.449	12340.55
649.642	12494.15
649.835	12221.77
650.027	12516.67
650.22	12246.34
650.413	12111.18
650.605	12064.07
650.798	12076.36
650.991	11783.5
651.183	12002.63
651.376	11711.82
651.568	11701.58
651.761	11634
651.954	11791.69
652.146	11541.84
652.339	11478.35
652.531	11672.91
652.724	11431.25
652.916	11384.15
653.109	11267.41
653.301	11238.74
653.494	11421.01
653.686	11099.48
653.879	11177.3
654.071	10898.78
654.263	10982.74
654.456	11003.22
654.648	10859.87
654.84	10757.47
655.033	10538.34
655.225	10685.79
655.417	10513.76
655.61	10607.97
655.802	10339.68
655.994	10311.01
656.186	10505.57
656.379	10288.48
656.571	10343.78
656.763	10118.5
656.955	10218.85
657.148	10368.35
657.34	10118.5
657.532	9899.37
657.724	9842.03
657.916	9885.03
658.108	9860.46
658.3	9889.13
658.492	9766.25
658.684	9809.26
658.876	9633.13
659.068	9721.2
659.26	9477.49
659.452	9577.84
659.644	9561.45
659.836	9633.13
660.028	9641.32
660.22	9250.16
660.412	9190.77
660.604	9112.95
660.796	9434.48
660.988	9221.49
661.18	9131.38
661.372	9104.76
661.563	9039.22
661.755	8840.57
661.947	8893.82
662.139	8893.82
662.331	8754.55
662.522	8797.56
662.714	8770.94
662.906	8543.61
663.097	8613.24
663.289	8578.43
663.481	8541.57
663.673	8433.02
663.864	8379.78
664.056	8445.31
664.247	8351.1
664.439	8273.28
664.631	8129.92
664.822	8256.9
665.014	8197.51
665.205	8068.48
665.397	8187.27
665.588	8125.83
665.78	8062.34
665.971	7933.32
666.163	7984.52
666.354	8172.93
666.546	7845.26
666.737	7798.15
666.929	7800.2
667.12	7884.17
667.311	7843.21
667.503	7705.99
667.694	7691.66
667.885	7640.46
668.077	7560.59
668.268	7626.12
668.459	7560.59
668.651	7331.22
668.842	7552.4
669.033	7472.53
669.224	7474.57
669.416	7607.69
669.607	7273.87
669.798	7234.96
669.989	7384.46
670.18	7376.27
670.371	7138.71
670.563	7150.99
670.754	7142.8
670.945	7044.5
671.136	6976.92
671.327	7128.47
671.518	7026.07
671.709	7085.46
671.9	7069.08
672.091	6794.65
672.282	6991.25
672.473	6862.23
672.664	7011.73
672.855	6737.31
673.046	6679.96
673.237	6821.27
673.428	6808.98
673.619	6659.48
673.809	6577.56
674	6667.67
674.191	6749.59
674.382	6364.57
674.573	6512.03
674.764	6587.8
674.954	6557.08
675.145	6370.72
675.336	6401.44
675.527	6340
675.717	6557.08
675.908	6243.74
676.099	6276.51
676.289	6243.74
676.48	6413.73
676.671	6159.78
676.861	6327.71
677.052	6108.58
677.243	6272.42
677.433	6290.85
677.624	6079.91
677.814	6098.34
678.005	6192.55
678.195	6049.19
678.386	5969.32
678.576	5911.97
678.767	6077.86
678.957	5911.97
679.148	5981.6
679.338	5973.41
679.529	5987.75
679.719	6012.32
679.909	5934.5
680.1	6049.19
680.29	5914.02
680.481	5701.03
680.671	5832.1
680.861	5762.47
681.052	5936.55
681.242	5686.7
681.432	5647.79
681.622	5651.88
681.813	5799.34
682.003	5629.35
682.193	5549.48
682.383	5725.61
682.573	5666.22
682.764	5701.03
682.954	5787.05
683.144	5563.82
683.334	5619.11
683.524	5610.92
683.714	5467.56
683.904	5612.97
684.094	5572.01
684.284	5432.75
684.474	5553.58
684.664	5399.98
684.854	5350.83
685.044	5545.39
685.234	5412.27
685.424	5412.27
685.614	5354.93
685.804	5324.21
685.994	5295.54
686.184	5344.69
686.374	5313.97
686.564	5287.34
686.753	5264.82
686.943	5197.23
687.133	5252.53
687.323	5119.41
687.513	5109.17
687.702	5084.59
687.892	4941.24
688.082	5064.11
688.272	5072.31
688.461	5064.11
688.651	5039.54
688.841	4894.13
689.03	4947.38
689.22	4967.86
689.41	4873.65
689.599	4795.83
689.789	4801.97
689.979	4724.15
690.168	4697.53
690.358	4763.06
690.547	4871.61
690.737	4910.52
690.926	4701.62
691.116	4586.94
691.305	4758.97
691.495	4406.72
691.684	4552.12
691.874	4640.19
692.063	4724.15
692.252	4627.9
692.442	4332.99
692.631	4550.07
692.82	4564.41
693.01	4332.99
693.199	4416.96
693.388	4177.34
693.578	4484.54
693.767	4441.53
693.956	4478.4
694.146	4414.91
694.335	4406.72
694.524	4427.2
694.713	4281.79
694.902	4218.3
695.092	4396.48
695.281	4128.19
695.47	4093.38
695.659	4154.82
695.848	4285.89
696.037	4232.64
696.226	4185.54
696.415	4212.16
696.604	4144.58
696.793	4076.99
696.982	4048.32
697.171	4072.9
697.36	4085.19
697.549	4066.75
697.738	4031.94
697.927	3909.06
698.116	4023.75
698.305	4148.67
698.494	3939.78
698.683	3888.58
698.872	3904.96
699.061	3952.07
699.25	3833.29
699.438	3933.64
699.627	3964.36
699.816	3751.37
700.005	3855.81
700.193	4003.27
700.382	3810.76
700.571	3829.19
700.76	3933.64
700.948	3921.35
701.137	3976.64
701.326	3802.57
701.514	3843.53
701.703	3866.05
701.892	3765.7
702.08	3833.29
702.269	3876.29
702.457	3651.02
702.646	3808.71
702.834	3694.02
703.023	3691.98
703.212	3712.46
703.4	3749.32
703.589	3616.2
703.777	3704.26
703.965	3528.14
704.154	3618.25
704.342	3714.5
704.531	3497.42
704.719	3681.74
704.907	3694.02
705.096	3542.47
705.284	3777.99
705.472	3685.83
705.661	3605.96
705.849	3646.92
706.037	3571.15
706.226	3532.23
706.414	3569.1
706.602	3556.81
706.79	3521.99
706.979	3485.13
707.167	3528.14
707.355	3352.01
707.543	3427.79
707.731	3448.27
707.919	3485.13
708.107	3462.6
708.296	3405.26
708.484	3552.71
708.672	3530.19
708.86	3405.26
709.048	3413.45
709.236	3462.6
709.424	3421.64
709.612	3483.08
709.8	3382.73
709.988	3450.32
710.176	3421.64
710.364	3227.09
710.551	3429.84
710.739	3323.34
710.927	3276.24
711.115	3311.05
711.303	3339.73
711.491	3405.26
711.679	3311.05
711.866	3309.01
712.054	3433.93
712.242	3372.49
712.43	3364.3
712.617	3261.9
712.805	3102.16
712.993	3294.67
713.181	3237.33
713.368	3270.09
713.556	3227.09
713.744	3124.69
713.931	3235.28
714.119	3276.24
714.306	3200.46
714.494	3241.42
714.682	3114.45
714.869	3163.6
715.057	3188.18
715.244	3079.63
715.432	3220.94
715.619	3225.04
715.807	3083.73
715.994	3194.32
716.182	3038.67
716.369	3153.36
716.556	3184.08
716.744	3106.26
716.931	2964.95
717.119	3141.07
717.306	3188.18
717.493	3048.91
717.681	3075.54
717.868	3010
718.055	3022.29
718.242	3079.63
718.43	3003.86
718.617	2911.7
718.804	2997.71
718.991	2936.28
719.179	3085.78
719.366	2977.23
719.553	3024.34
719.74	3057.11
719.927	2960.85
720.114	2893.27
720.301	3040.72
720.488	2923.99
720.676	2895.32
720.863	2981.33
721.05	2969.04
721.237	2995.67
721.424	2983.38
721.611	2930.13
721.798	2815.45
721.985	2956.75
722.172	2885.08
722.358	2948.56
722.545	2797.01
722.732	2864.6
722.919	2768.34
723.106	2893.27
723.293	2913.75
723.48	2928.08
723.667	2797.01
723.853	2790.87
724.04	2856.4
724.227	2622.94
724.414	2895.32
724.6	2901.46
724.787	2803.16
724.974	2745.81
725.161	2837.97
725.347	2864.6
725.534	2766.29
725.72	2846.16
725.907	2815.45
726.094	2919.89
726.28	2864.6
726.467	2756.05
726.653	2807.25
726.84	2794.97
727.027	2907.6
727.213	2665.94
727.4	2829.78
727.586	2737.62
727.773	2850.26
727.959	2731.48
728.145	2831.83
728.332	2731.48
728.518	2667.99
728.705	2676.18
728.891	2704.85
729.077	2713.05
729.264	2717.14
729.45	2772.44
729.636	2817.49
729.823	2590.17
730.009	2557.4
730.195	2667.99
730.382	2641.37
730.568	2663.9
730.754	2633.18
730.94	2579.93
731.126	2799.06
731.313	2608.6
731.499	2606.55
731.685	2594.26
731.871	2684.38
732.057	2663.9
732.243	2657.75
732.429	2680.28
732.615	2678.23
732.801	2684.38
732.987	2481.63
733.173	2514.39
733.359	2631.13
733.545	2596.31
733.731	2620.89
733.917	2581.98
734.103	2567.64
734.289	2657.75
734.475	2467.29
734.661	2520.54
734.847	2516.44
735.033	2565.59
735.219	2422.24
735.404	2543.07
735.59	2551.26
735.776	2498.01
735.962	2530.78
736.148	2502.11
736.333	2565.59
736.519	2495.96
736.705	2436.57
736.89	2397.66
737.076	2383.32
737.262	2311.64
737.447	2436.57
737.633	2346.46
737.819	2516.44
738.004	2383.32
738.19	2463.19
738.375	2473.43
738.561	2444.76
738.747	2450.91
738.932	2426.33
739.118	2407.9
739.303	2403.8
739.489	2272.73
739.674	2373.08
739.859	2391.52
740.045	2340.32
740.23	2317.79
740.416	2285.02
740.601	2416.09
740.786	2315.74
740.972	2358.75
741.157	2377.18
741.342	2268.64
741.528	2213.34
741.713	2278.88
741.898	2262.49
742.084	2332.12
742.269	2256.35
742.454	2188.77
742.639	2299.36
742.824	2172.38
743.01	2151.9
743.195	2338.27
743.38	2325.98
743.565	2194.91
743.75	2051.55
743.935	2092.51
744.12	2309.6
744.305	2137.57
744.49	2090.46
744.675	2201.05
744.86	2082.27
745.045	2112.99
745.23	2084.32
745.415	2069.98
745.6	2133.47
745.785	2069.98
745.97	2119.14
746.155	2178.53
746.34	2006.5
746.525	1959.39
746.71	2043.36
746.895	2074.08
747.079	1936.87
747.264	1961.44
747.449	2051.55
747.634	1883.62
747.819	1928.67
748.003	1906.15
748.188	1904.1
748.373	1957.35
748.557	1869.28
748.742	1844.71
748.927	1887.72
749.111	1756.65
749.296	1895.91
749.481	1785.32
749.665	1828.32
749.85	1744.36
750.034	1828.32
750.219	1676.77
750.404	1703.4
750.588	1742.31
750.773	1684.97
750.957	1785.32
751.141	1705.45
751.326	1680.87
751.51	1709.54
751.695	1801.7
751.879	1693.16
752.064	1754.6
752.248	1660.39
752.432	1721.83
752.617	1656.29
752.801	1605.1
752.985	1592.81
753.17	1592.81
753.354	1613.29
753.538	1631.72
753.722	1488.36
753.907	1539.56
754.091	1555.94
754.275	1605.1
754.459	1541.61
754.643	1490.41
754.828	1455.59
755.012	1435.11
755.196	1447.4
755.38	1488.36
755.564	1514.98
755.748	1416.68
755.932	1408.49
756.116	1408.49
756.3	1494.51
756.484	1361.39
756.668	1467.88
756.852	1351.15
757.036	1330.67
757.22	1355.24
757.404	1302
757.588	1324.52
757.772	1275.37
757.956	1308.14
758.14	1175.02
758.323	1265.13
758.507	1426.92
758.691	1320.43
758.875	1261.04
759.059	1359.34
759.242	1205.74
759.426	1263.08
759.61	1148.4
759.794	1322.48
759.977	1150.45
760.161	1177.07
760.345	1201.65
760.528	1209.84
760.712	1326.57
760.895	1322.48
761.079	1070.58
761.263	1115.63
761.446	1127.92
761.63	1132.01
761.813	1193.45
761.997	1146.35
762.18	1162.73
762.364	1052.14
762.547	1166.83
762.731	1129.97
762.914	1080.82
763.098	1158.64
763.281	1097.2
763.464	1129.97
763.648	1160.69
763.831	1105.39
764.015	1082.86
764.198	1154.54
764.381	1093.1
764.564	1035.76
764.748	1154.54
764.931	1189.36
765.114	1132.01
765.297	1099.25
765.481	1007.09
765.664	1058.29
765.847	1009.14
766.03	1113.58
766.213	916.98
766.397	1107.44
766.58	1002.99
766.763	1002.99
766.946	1019.38
767.129	1007.09
767.312	1050.1
767.495	935.41
767.678	996.85
767.861	1031.66
768.044	970.23
768.227	937.46
768.41	1023.47
768.593	962.03
768.776	1058.29
768.959	1035.76
769.142	1013.23
769.324	974.32
769.507	968.18
769.69	949.75
769.873	900.59
770.056	966.13
770.239	929.27
770.421	947.7
770.604	849.4
770.787	886.26
770.97	904.69
771.152	906.74
771.335	945.65
771.518	898.55
771.7	841.2
771.883	865.78
772.066	869.87
772.248	820.72
772.431	777.72
772.613	871.92
772.796	904.69
772.978	894.45
773.161	865.78
773.343	841.2
773.526	894.45
773.708	765.43
773.891	902.64
774.073	810.48
774.256	861.68
774.438	855.54
774.621	810.48
774.803	765.43
774.985	749.04
775.168	792.05
775.35	706.04
775.532	773.62
775.715	693.75
775.897	728.56
776.079	798.2
776.261	808.44
776.444	761.33
776.626	673.27
776.808	730.61
776.99	722.42
777.173	691.7
777.355	640.5
777.537	718.33
777.719	722.42
777.901	667.13
778.083	669.17
778.265	734.71
778.447	769.52
778.629	687.61
778.811	660.98
778.993	777.72
779.175	660.98
779.357	677.37
779.539	675.32
779.721	708.09
779.903	757.24
780.085	730.61
780.267	679.41
780.449	613.88
780.631	681.46
780.812	671.22
780.994	558.58
781.176	591.35
781.358	601.59
781.54	675.32
781.721	566.78
781.903	638.45
782.085	544.25
782.267	552.44
782.448	597.49
782.63	613.88
782.812	560.63
782.993	572.92
783.175	591.35
783.357	587.26
783.538	568.82
783.72	546.3
783.901	501.24
784.083	574.97
784.264	558.58
784.446	523.77
784.627	511.48
784.809	542.2
784.99	538.1
785.172	577.02
785.353	497.14
785.535	511.48
785.716	529.91
785.897	419.32
786.079	488.95
786.26	495.1
786.441	476.66
786.623	441.85
786.804	464.38
786.985	464.38
787.167	470.52
787.348	470.52
787.529	484.86
787.71	491
787.891	464.38
788.073	433.66
788.254	433.66
788.435	456.19
788.616	474.62
788.797	474.62
788.978	357.88
789.159	390.65
789.34	458.23
789.522	439.8
789.703	296.44
789.884	366.07
790.065	429.56
790.246	433.66
790.427	376.31
790.607	421.37
790.788	372.22
790.969	427.51
791.15	359.93
791.331	382.46
791.512	353.79
791.693	335.35
791.874	411.13
792.054	357.88
792.235	376.31
792.416	343.55
792.597	312.83
792.778	384.51
792.958	376.31
793.139	370.17
793.32	355.83
793.5	345.59
793.681	329.21
793.862	343.55
794.042	413.18
794.223	318.97
794.404	370.17
794.584	335.35
794.765	318.97
794.945	333.31
795.126	310.78
795.306	364.03
795.487	292.35
795.667	271.87
795.848	310.78
796.028	366.07
796.209	327.16
796.389	271.87
796.57	329.21
796.75	310.78
796.93	259.58
797.111	284.16
797.291	331.26
797.471	302.59
797.652	269.82
797.832	323.07
798.012	353.79
798.192	200.19
798.373	306.68
798.553	212.48
798.733	278.01
798.913	249.34
799.093	318.97
799.274	273.92
799.454	288.25
799.634	271.87
799.814	300.54
799.994	251.39
800.174	288.25
800.354	280.06
800.534	308.73
800.714	267.77
800.894	331.26
801.074	323.07
801.254	228.86
801.434	220.67
801.614	216.57
801.794	230.91
801.974	617.97
802.154	218.62
802.334	280.06
802.514	218.62
802.693	216.57
802.873	241.15
803.053	235
803.233	251.39
803.413	245.24
803.592	175.61
803.772	189.95
803.952	263.68
804.131	259.58
804.311	255.48
804.491	222.72
804.67	163.33
804.85	218.62
805.03	232.96
805.209	267.77
805.389	212.48
805.568	253.44
805.748	261.63
805.928	243.2
806.107	216.57
806.287	157.18
806.466	210.43
806.646	251.39
806.825	175.61
807.004	185.85
807.184	222.72
807.363	181.76
807.543	216.57
807.722	210.43
807.901	185.85
808.081	151.04
808.26	212.48
808.439	142.85
808.619	187.9
808.798	206.33
808.977	189.95
809.156	112.13
809.336	183.81
809.515	226.81
809.694	167.42
809.873	132.61
810.052	187.9
810.231	292.35
810.411	200.19
810.59	140.8
810.769	120.32
810.948	142.85
811.127	167.42
811.306	241.15
811.485	169.47
811.664	226.81
811.843	151.04
812.022	155.13
812.201	181.76
812.38	161.28
812.559	196.09
812.737	167.42
812.916	148.99
813.095	91.65
813.274	220.67
813.453	148.99
813.632	275.96
813.811	183.81
813.989	103.93
814.168	263.68
814.347	138.75
814.526	183.81
814.704	108.03
814.883	157.18
815.062	65.02
815.24	173.57
815.419	151.04
815.598	142.85
815.776	79.36
815.955	187.9
816.133	81.41
816.312	148.99
816.49	151.04
816.669	130.56
816.847	159.23
817.026	85.5
817.204	110.08
817.383	171.52
817.561	120.32
817.74	112.13
817.918	89.6
818.097	101.89
818.275	83.45
818.453	183.81
818.632	159.23
818.81	165.37
818.988	128.51
819.167	128.51
819.345	44.54
819.523	97.79
819.701	130.56
819.879	116.22
820.058	101.89
820.236	130.56
820.414	89.6
820.592	194.05
820.77	185.85
820.948	183.81
821.127	110.08
821.305	159.23
821.483	95.74
821.661	179.71
821.839	116.22
822.017	126.46
822.195	165.37
822.373	105.98
822.551	54.78
822.729	75.26
822.907	134.65
823.085	142.85
823.262	101.89
823.44	140.8
823.618	136.7
823.796	58.88
823.974	65.02
824.152	56.83
824.329	85.5
824.507	216.57
824.685	130.56
824.863	142.85
825.04	105.98
825.218	116.22
825.396	165.37
825.574	91.65
825.751	101.89
825.929	155.13
826.107	44.54
826.284	108.03
826.462	163.33
826.639	97.79
826.817	128.51
826.994	130.56
827.172	181.76
827.349	108.03
827.527	140.8
827.704	58.88
827.882	120.32
828.059	101.89
828.237	30.21
828.414	138.75
828.591	73.21
828.769	89.6
828.946	97.79
829.124	114.17
829.301	81.41
829.478	122.37
829.655	91.65
829.833	50.69
830.01	65.02
830.187	146.94
830.364	69.12
830.542	122.37
830.719	183.81
830.896	97.79
831.073	138.75
831.25	95.74
831.427	110.08
831.604	62.98
831.782	13.82
831.959	128.51
832.136	48.64
832.313	163.33
832.49	52.74
832.667	79.36
832.844	34.3
833.021	101.89
833.198	46.59
833.374	73.21
833.551	103.93
833.728	114.17
833.905	69.12
834.082	50.69
834.259	50.69
834.436	24.06
834.612	15.87
834.789	93.69
834.966	79.36
835.143	112.13
835.319	22.02
835.496	65.02
835.673	71.17
835.85	73.21
836.026	34.3
836.203	114.17
836.38	132.61
836.556	67.07
836.733	46.59
836.909	159.23
837.086	32.26
837.262	36.35
837.439	-27.14
837.616	73.21
837.792	52.74
837.968	56.83
838.145	17.92
838.321	97.79
838.498	17.92
838.674	7.68
838.851	52.74
839.027	83.45
839.203	3.58
839.38	15.87
839.556	85.5
839.732	120.32
839.909	19.97
840.085	46.59
840.261	26.11
840.437	46.59
840.614	85.5
840.79	34.3
840.966	81.41
841.142	48.64
841.318	89.6
841.494	-45.57
841.671	99.84
841.847	69.12
842.023	56.83
842.199	69.12
842.375	134.65
842.551	62.98
842.727	75.26
842.903	67.07
843.079	19.97
843.255	101.89
843.431	-27.14
843.607	62.98
843.783	7.68
843.959	71.17
844.134	77.31
844.31	105.98
844.486	34.3
844.662	71.17
844.838	-18.94
845.013	110.08
845.189	81.41
845.365	65.02
845.541	146.94
845.716	17.92
845.892	62.98
846.068	-20.99
846.244	-0.51
846.419	13.82
846.595	26.11
846.77	-31.23
846.946	9.73
847.122	99.84
847.297	22.02
847.473	120.32
847.648	75.26
847.824	-8.7
847.999	26.11
848.175	24.06
848.35	11.78
848.526	60.93
848.701	48.64
848.876	38.4
849.052	-20.99
849.227	101.89
849.403	24.06
849.578	42.5
849.753	-12.8
849.929	46.59
850.104	54.78
850.279	40.45
850.454	36.35
850.63	22.02
850.805	69.12
850.98	87.55
851.155	11.78
851.33	56.83
851.505	-4.61
851.681	110.08
851.856	-72.19
852.031	34.3
852.206	44.54
852.381	52.74
852.556	-39.42
852.731	42.5
852.906	-23.04
853.081	103.93
853.256	46.59
853.431	79.36
853.606	85.5
853.781	54.78
853.956	-25.09
854.131	69.12
854.305	-45.57
854.48	1.54
854.655	-76.29
854.83	40.45
855.005	9.73
855.18	36.35
855.354	-18.94
855.529	24.06
855.704	130.56
855.879	32.26
856.053	7.68
856.228	-33.28
856.403	-2.56
856.577	101.89
856.752	3.58
856.926	1.54
857.101	22.02
857.276	77.31
857.45	-10.75
857.625	67.07
857.799	-20.99
857.974	-49.66
858.148	36.35
858.323	48.64
858.497	-0.51
858.672	40.45
858.846	34.3
859.02	58.88
859.195	24.06
859.369	-6.66
859.543	30.21
859.718	42.5
859.892	28.16
860.066	9.73
860.241	24.06
860.415	-37.38
860.589	50.69
860.763	-2.56
860.938	46.59
861.112	89.6
861.286	-12.8
861.46	114.17
861.634	60.93
861.808	-29.18
861.982	67.07
862.157	9.73
862.331	42.5
862.505	7.68
862.679	-8.7
862.853	17.92
863.027	87.55
863.201	67.07
863.375	24.06
863.549	32.26
863.722	-6.66
863.896	105.98
864.07	9.73
864.244	-10.75
864.418	19.97
864.592	-10.75
864.766	28.16
864.939	-23.04
865.113	-6.66
865.287	58.88
865.461	1.54
865.634	-25.09
865.808	-25.09
865.982	52.74
866.156	75.26
866.329	-47.62
866.503	-33.28
866.676	-8.7
866.85	24.06
867.024	15.87
867.197	34.3
867.371	91.65
867.544	65.02
867.718	-47.62
867.891	13.82
868.065	73.21
868.238	81.41
868.412	-25.09
868.585	93.69
868.759	-29.18
868.932	-25.09
869.105	15.87
869.279	-31.23
869.452	26.11
869.625	69.12
869.799	11.78
869.972	38.4
870.145	5.63
870.319	75.26
870.492	-12.8
870.665	46.59
870.838	11.78
871.011	5.63
871.185	73.21
871.358	11.78
871.531	83.45
871.704	-39.42
871.877	-18.94
872.05	15.87
872.223	24.06
872.396	22.02
872.569	62.98
872.742	-18.94
872.915	56.83
873.088	-4.61
873.261	32.26
873.434	42.5
873.607	38.4
873.78	7.68
873.953	1.54
874.126	-8.7
874.299	11.78
874.471	-18.94
874.644	15.87
874.817	38.4
874.99	62.98
875.163	34.3
875.335	71.17
875.508	-31.23
875.681	56.83
875.853	-16.9
876.026	-14.85
876.199	-18.94
876.371	-35.33
876.544	-61.95
876.717	99.84
876.889	-18.94
877.062	-0.51
877.234	-29.18
877.407	-64
877.579	13.82
877.752	42.5
877.924	60.93
878.097	-53.76
878.269	-8.7
878.442	28.16
878.614	65.02
878.786	-16.9
878.959	-0.51
879.131	11.78
879.303	28.16
879.476	15.87
879.648	73.21
879.82	36.35
879.993	5.63
880.165	28.16
880.337	-90.62
880.509	-20.99
880.681	-39.42
880.854	9.73
881.026	1.54
881.198	52.74
881.37	44.54
881.542	28.16
881.714	9.73
881.886	110.08
882.058	-41.47
882.23	-0.51
882.402	22.02
882.574	-12.8
882.746	46.59
882.918	-31.23
883.09	-18.94
883.262	-14.85
883.434	-39.42
883.606	46.59
883.778	17.92
883.95	7.68
884.122	60.93
884.293	-6.66
884.465	-37.38
884.637	3.58
884.809	32.26
884.98	3.58
885.152	-47.62
885.324	62.98
885.496	9.73
885.667	130.56
885.839	-8.7
886.011	3.58
886.182	112.13
886.354	34.3
886.525	81.41
886.697	-10.75
886.869	-72.19
887.04	-27.14
887.212	83.45
887.383	48.64
887.555	50.69
887.726	-20.99
887.897	48.64
888.069	-8.7
888.24	34.3
888.412	-4.61
888.583	-16.9
888.754	28.16
888.926	26.11
889.097	5.63
889.268	-10.75
889.44	-31.23
889.611	-14.85
889.782	5.63
889.953	58.88
890.125	89.6
890.296	-64
890.467	34.3
890.638	30.21
890.809	3.58
890.98	71.17
891.151	67.07
891.323	-0.51
891.494	58.88
891.665	15.87
891.836	7.68
892.007	-92.67
892.178	-2.56
892.349	-4.61
892.52	-29.18
892.691	-18.94
892.862	-8.7
893.032	-53.76
893.203	17.92
893.374	-45.57
893.545	-45.57
893.716	-8.7
893.887	28.16
894.057	-47.62
894.228	19.97
894.399	-23.04
894.57	44.54
894.74	42.5
894.911	58.88
895.082	17.92
895.253	-12.8
895.423	-41.47
895.594	9.73
895.764	44.54
895.935	-0.51
896.106	65.02
896.276	-18.94
896.447	67.07
896.617	-12.8
896.788	-2.56
896.958	-14.85
897.129	-74.24
897.299	1.54
897.47	7.68
897.64	-14.85
897.81	-12.8
897.981	22.02
898.151	-0.51
898.322	50.69
898.492	65.02
898.662	17.92
898.832	24.06
899.003	24.06
899.173	13.82
899.343	36.35
899.513	-0.51
