Data from USB4F104151__16__12-35-19-702.txt Node

Date: Fri Mar 14 12:35:19 EDT 2025
User: louis
Spectrometer: USB4F10415
Trigger mode: 4
Integration Time (sec): 2.000000E-2
Scans to average: 1
Electric dark correction enabled: true
Nonlinearity correction enabled: false
Boxcar width: 0
XAxis mode: Wavelengths
Number of Pixels in Spectrum: 3648
>>>>>Begin Spectral Data<<<<<
178.204	-137.73
178.424	-137.73
178.644	-137.73
178.864	-82.43
179.084	-68.09
179.304	-45.57
179.524	-4.61
179.744	28.16
179.964	26.11
180.184	48.64
180.404	-8.7
180.624	5.63
180.844	-4.61
181.064	-57.86
181.283	7.68
181.503	15.87
181.723	-10.75
181.943	-59.9
182.163	99.84
182.383	36.35
182.602	-12.8
182.822	9.73
183.042	83.45
183.262	77.31
183.482	-39.42
183.701	19.97
183.921	30.21
184.141	-49.66
184.361	48.64
184.58	38.4
184.8	40.45
185.02	-6.66
185.239	48.64
185.459	-0.51
185.679	44.54
185.898	-6.66
186.118	60.93
186.338	83.45
186.557	38.4
186.777	81.41
186.997	32.26
187.216	42.5
187.436	71.17
187.655	58.88
187.875	54.78
188.095	42.5
188.314	15.87
188.534	32.26
188.753	5.63
188.973	30.21
189.192	75.26
189.412	15.87
189.631	-49.66
189.851	30.21
190.07	77.31
190.29	17.92
190.509	24.06
190.729	65.02
190.948	28.16
191.168	97.79
191.387	7.68
191.607	22.02
191.826	44.54
192.045	75.26
192.265	26.11
192.484	9.73
192.704	44.54
192.923	-25.09
193.142	99.84
193.362	44.54
193.581	85.5
193.8	-2.56
194.02	7.68
194.239	163.33
194.458	-12.8
194.678	-23.04
194.897	22.02
195.116	24.06
195.335	13.82
195.555	15.87
195.774	24.06
195.993	48.64
196.212	1.54
196.432	-61.95
196.651	28.16
196.87	101.89
197.089	62.98
197.308	46.59
197.528	-29.18
197.747	15.87
197.966	77.31
198.185	103.93
198.404	24.06
198.623	22.02
198.842	-39.42
199.062	46.59
199.281	-0.51
199.5	-0.51
199.719	56.83
199.938	79.36
200.157	105.98
200.376	11.78
200.595	40.45
200.814	42.5
201.033	36.35
201.252	24.06
201.471	-47.62
201.69	81.41
201.909	-57.86
202.128	26.11
202.347	44.54
202.566	48.64
202.785	22.02
203.004	5.63
203.223	120.32
203.442	81.41
203.661	-0.51
203.879	32.26
204.098	77.31
204.317	38.4
204.536	89.6
204.755	-10.75
204.974	79.36
205.193	7.68
205.411	105.98
205.63	50.69
205.849	5.63
206.068	19.97
206.287	42.5
206.505	65.02
206.724	36.35
206.943	15.87
207.162	50.69
207.381	87.55
207.599	-14.85
207.818	110.08
208.037	95.74
208.255	-14.85
208.474	42.5
208.693	73.21
208.911	56.83
209.13	50.69
209.349	71.17
209.567	26.11
209.786	42.5
210.005	36.35
210.223	-33.28
210.442	24.06
210.661	26.11
210.879	114.17
211.098	50.69
211.316	32.26
211.535	62.98
211.753	3.58
211.972	-37.38
212.191	52.74
212.409	-2.56
212.628	13.82
212.846	97.79
213.065	48.64
213.283	71.17
213.502	67.07
213.72	40.45
213.938	40.45
214.157	26.11
214.375	11.78
214.594	38.4
214.812	-16.9
215.031	-8.7
215.249	36.35
215.467	15.87
215.686	5.63
215.904	65.02
216.122	34.3
216.341	50.69
216.559	26.11
216.778	73.21
216.996	58.88
217.214	87.55
217.432	13.82
217.651	50.69
217.869	13.82
218.087	-8.7
218.306	28.16
218.524	24.06
218.742	62.98
218.96	3.58
219.179	71.17
219.397	32.26
219.615	85.5
219.833	7.68
220.051	-33.28
220.27	-4.61
220.488	79.36
220.706	5.63
220.924	-4.61
221.142	95.74
221.36	-0.51
221.578	93.69
221.796	58.88
222.015	22.02
222.233	101.89
222.451	89.6
222.669	58.88
222.887	108.03
223.105	44.54
223.323	-27.14
223.541	-43.52
223.759	71.17
223.977	26.11
224.195	83.45
224.413	89.6
224.631	79.36
224.849	108.03
225.067	19.97
225.285	26.11
225.503	58.88
225.721	-14.85
225.939	15.87
226.157	-16.9
226.375	99.84
226.592	-20.99
226.81	-2.56
227.028	17.92
227.246	32.26
227.464	38.4
227.682	60.93
227.9	36.35
228.117	95.74
228.335	24.06
228.553	-0.51
228.771	30.21
228.989	-6.66
229.206	71.17
229.424	-8.7
229.642	32.26
229.86	65.02
230.077	48.64
230.295	60.93
230.513	101.89
230.731	67.07
230.948	50.69
231.166	24.06
231.384	-14.85
231.601	34.3
231.819	89.6
232.037	58.88
232.254	11.78
232.472	-14.85
232.689	32.26
232.907	118.27
233.125	19.97
233.342	52.74
233.56	22.02
233.777	71.17
233.995	85.5
234.213	108.03
234.43	38.4
234.648	52.74
234.865	48.64
235.083	-2.56
235.3	28.16
235.518	7.68
235.735	85.5
235.953	77.31
236.17	-72.19
236.388	1.54
236.605	77.31
236.822	52.74
237.04	58.88
237.257	140.8
237.475	-29.18
237.692	22.02
237.909	7.68
238.127	85.5
238.344	34.3
238.562	44.54
238.779	48.64
238.996	58.88
239.214	-47.62
239.431	19.97
239.648	-8.7
239.865	-12.8
240.083	103.93
240.3	-2.56
240.517	28.16
240.735	77.31
240.952	11.78
241.169	73.21
241.386	40.45
241.603	52.74
241.821	79.36
242.038	7.68
242.255	-12.8
242.472	1.54
242.689	93.69
242.907	48.64
243.124	19.97
243.341	11.78
243.558	-25.09
243.775	-25.09
243.992	32.26
244.209	36.35
244.426	77.31
244.643	38.4
244.86	32.26
245.078	79.36
245.295	-29.18
245.512	60.93
245.729	-25.09
245.946	101.89
246.163	48.64
246.38	60.93
246.597	44.54
246.814	24.06
247.031	38.4
247.248	42.5
247.464	60.93
247.681	3.58
247.898	24.06
248.115	97.79
248.332	50.69
248.549	65.02
248.766	110.08
248.983	116.22
249.2	13.82
249.417	62.98
249.633	46.59
249.85	128.51
250.067	93.69
250.284	58.88
250.501	-6.66
250.717	153.09
250.934	19.97
251.151	5.63
251.368	93.69
251.585	34.3
251.801	97.79
252.018	81.41
252.235	67.07
252.451	7.68
252.668	116.22
252.885	24.06
253.102	79.36
253.318	34.3
253.535	-23.04
253.752	24.06
253.968	56.83
254.185	30.21
254.401	69.12
254.618	95.74
254.835	58.88
255.051	30.21
255.268	67.07
255.484	22.02
255.701	22.02
255.917	62.98
256.134	95.74
256.351	-27.14
256.567	-35.33
256.784	87.55
257	-0.51
257.217	105.98
257.433	65.02
257.65	26.11
257.866	-4.61
258.082	9.73
258.299	34.3
258.515	75.26
258.732	50.69
258.948	44.54
259.165	58.88
259.381	7.68
259.597	13.82
259.814	75.26
260.03	50.69
260.246	38.4
260.463	36.35
260.679	5.63
260.895	13.82
261.112	40.45
261.328	38.4
261.544	67.07
261.761	122.37
261.977	58.88
262.193	-4.61
262.409	22.02
262.626	65.02
262.842	126.46
263.058	58.88
263.274	-74.24
263.49	99.84
263.707	67.07
263.923	34.3
264.139	1.54
264.355	67.07
264.571	83.45
264.787	50.69
265.004	75.26
265.22	34.3
265.436	79.36
265.652	73.21
265.868	81.41
266.084	30.21
266.3	38.4
266.516	-6.66
266.732	79.36
266.948	-4.61
267.164	26.11
267.38	71.17
267.596	42.5
267.812	32.26
268.028	95.74
268.244	28.16
268.46	58.88
268.676	62.98
268.892	128.51
269.108	75.26
269.324	11.78
269.54	-0.51
269.756	56.83
269.972	-0.51
270.188	38.4
270.403	-55.81
270.619	85.5
270.835	83.45
271.051	75.26
271.267	36.35
271.483	114.17
271.698	65.02
271.914	28.16
272.13	40.45
272.346	93.69
272.562	34.3
272.777	-12.8
272.993	15.87
273.209	13.82
273.425	19.97
273.64	48.64
273.856	116.22
274.072	40.45
274.287	13.82
274.503	38.4
274.719	3.58
274.934	65.02
275.15	65.02
275.366	17.92
275.581	3.58
275.797	26.11
276.012	36.35
276.228	44.54
276.444	7.68
276.659	54.78
276.875	30.21
277.09	54.78
277.306	50.69
277.521	54.78
277.737	40.45
277.952	40.45
278.168	17.92
278.383	-45.57
278.599	58.88
278.814	9.73
279.03	30.21
279.245	97.79
279.461	15.87
279.676	44.54
279.892	95.74
280.107	-100.86
280.322	103.93
280.538	44.54
280.753	36.35
280.969	71.17
281.184	-23.04
281.399	-2.56
281.615	19.97
281.83	65.02
282.045	-12.8
282.26	38.4
282.476	56.83
282.691	81.41
282.906	67.07
283.122	52.74
283.337	54.78
283.552	114.17
283.767	105.98
283.983	62.98
284.198	15.87
284.413	28.16
284.628	36.35
284.843	36.35
285.058	13.82
285.274	71.17
285.489	-31.23
285.704	46.59
285.919	44.54
286.134	62.98
286.349	44.54
286.564	13.82
286.779	38.4
286.995	79.36
287.21	85.5
287.425	81.41
287.64	32.26
287.855	36.35
288.07	67.07
288.285	114.17
288.5	56.83
288.715	36.35
288.93	52.74
289.145	108.03
289.36	7.68
289.575	105.98
289.79	50.69
290.004	54.78
290.219	38.4
290.434	7.68
290.649	36.35
290.864	-20.99
291.079	62.98
291.294	75.26
291.509	54.78
291.724	58.88
291.938	50.69
292.153	71.17
292.368	62.98
292.583	110.08
292.798	5.63
293.012	85.5
293.227	13.82
293.442	95.74
293.657	38.4
293.871	105.98
294.086	40.45
294.301	38.4
294.516	-2.56
294.73	110.08
294.945	3.58
295.16	1.54
295.374	99.84
295.589	69.12
295.804	52.74
296.018	81.41
296.233	116.22
296.447	38.4
296.662	75.26
296.877	128.51
297.091	105.98
297.306	52.74
297.52	67.07
297.735	38.4
297.949	83.45
298.164	136.7
298.378	83.45
298.593	87.55
298.807	73.21
299.022	73.21
299.236	65.02
299.451	13.82
299.665	81.41
299.88	-0.51
300.094	50.69
300.309	46.59
300.523	89.6
300.737	120.32
300.952	116.22
301.166	62.98
301.381	-23.04
301.595	40.45
301.809	13.82
302.024	103.93
302.238	32.26
302.452	116.22
302.667	42.5
302.881	79.36
303.095	128.51
303.309	48.64
303.524	83.45
303.738	48.64
303.952	75.26
304.166	62.98
304.381	13.82
304.595	60.93
304.809	56.83
305.023	122.37
305.237	83.45
305.452	97.79
305.666	56.83
305.88	46.59
306.094	81.41
306.308	5.63
306.522	116.22
306.736	52.74
306.95	40.45
307.164	54.78
307.379	44.54
307.593	110.08
307.807	-8.7
308.021	122.37
308.235	60.93
308.449	17.92
308.663	-18.94
308.877	99.84
309.091	13.82
309.305	105.98
309.519	7.68
309.733	46.59
309.947	99.84
310.161	67.07
310.374	19.97
310.588	132.61
310.802	60.93
311.016	65.02
311.23	103.93
311.444	-10.75
311.658	62.98
311.872	22.02
312.085	69.12
312.299	-2.56
312.513	73.21
312.727	97.79
312.941	95.74
313.154	28.16
313.368	36.35
313.582	103.93
313.796	81.41
314.009	-10.75
314.223	44.54
314.437	95.74
314.651	44.54
314.864	65.02
315.078	44.54
315.292	9.73
315.505	65.02
315.719	103.93
315.933	87.55
316.146	30.21
316.36	60.93
316.573	58.88
316.787	40.45
317.001	153.09
317.214	13.82
317.428	44.54
317.641	11.78
317.855	-4.61
318.068	5.63
318.282	120.32
318.495	85.5
318.709	73.21
318.922	26.11
319.136	110.08
319.349	36.35
319.563	83.45
319.776	17.92
319.99	58.88
320.203	44.54
320.417	36.35
320.63	22.02
320.843	163.33
321.057	60.93
321.27	42.5
321.483	52.74
321.697	44.54
321.91	46.59
322.124	44.54
322.337	-20.99
322.55	60.93
322.763	71.17
322.977	54.78
323.19	112.13
323.403	69.12
323.617	77.31
323.83	83.45
324.043	-33.28
324.256	93.69
324.469	22.02
324.683	173.57
324.896	11.78
325.109	110.08
325.322	50.69
325.535	108.03
325.748	32.26
325.962	40.45
326.175	85.5
326.388	130.56
326.601	79.36
326.814	91.65
327.027	-0.51
327.24	73.21
327.453	-4.61
327.666	99.84
327.879	32.26
328.092	69.12
328.305	32.26
328.518	-12.8
328.731	46.59
328.944	101.89
329.157	75.26
329.37	36.35
329.583	85.5
329.796	36.35
330.009	22.02
330.222	62.98
330.435	101.89
330.648	36.35
330.861	36.35
331.073	30.21
331.286	9.73
331.499	-0.51
331.712	-47.62
331.925	19.97
332.138	97.79
332.35	69.12
332.563	60.93
332.776	93.69
332.989	13.82
333.202	52.74
333.414	56.83
333.627	52.74
333.84	58.88
334.053	56.83
334.265	26.11
334.478	44.54
334.691	50.69
334.903	34.3
335.116	69.12
335.329	56.83
335.541	77.31
335.754	48.64
335.966	46.59
336.179	93.69
336.392	38.4
336.604	126.46
336.817	89.6
337.029	52.74
337.242	116.22
337.454	42.5
337.667	60.93
337.88	103.93
338.092	17.92
338.305	38.4
338.517	67.07
338.729	-6.66
338.942	97.79
339.154	67.07
339.367	85.5
339.579	7.68
339.792	17.92
340.004	114.17
340.217	105.98
340.429	-4.61
340.641	48.64
340.854	58.88
341.066	9.73
341.278	77.31
341.491	50.69
341.703	103.93
341.915	38.4
342.128	122.37
342.34	62.98
342.552	28.16
342.764	52.74
342.977	138.75
343.189	46.59
343.401	65.02
343.613	-0.51
343.826	81.41
344.038	-8.7
344.25	71.17
344.462	60.93
344.674	38.4
344.886	44.54
345.099	91.65
345.311	24.06
345.523	1.54
345.735	52.74
345.947	52.74
346.159	-14.85
346.371	99.84
346.583	54.78
346.795	108.03
347.007	67.07
347.219	71.17
347.431	17.92
347.643	87.55
347.855	50.69
348.067	36.35
348.279	28.16
348.491	52.74
348.703	46.59
348.915	130.56
349.127	32.26
349.339	99.84
349.551	101.89
349.763	101.89
349.975	-8.7
350.187	165.37
350.399	167.42
350.61	65.02
350.822	-39.42
351.034	89.6
351.246	48.64
351.458	36.35
351.669	91.65
351.881	69.12
352.093	91.65
352.305	132.61
352.517	91.65
352.728	67.07
352.94	56.83
353.152	83.45
353.363	38.4
353.575	-10.75
353.787	75.26
353.999	85.5
354.21	91.65
354.422	-33.28
354.633	124.41
354.845	60.93
355.057	73.21
355.268	69.12
355.48	36.35
355.692	83.45
355.903	44.54
356.115	46.59
356.326	56.83
356.538	105.98
356.749	38.4
356.961	114.17
357.172	71.17
357.384	9.73
357.595	132.61
357.807	95.74
358.018	89.6
358.23	77.31
358.441	40.45
358.653	140.8
358.864	26.11
359.075	79.36
359.287	36.35
359.498	46.59
359.709	40.45
359.921	136.7
360.132	83.45
360.344	22.02
360.555	95.74
360.766	124.41
360.977	62.98
361.189	103.93
361.4	19.97
361.611	15.87
361.823	11.78
362.034	97.79
362.245	-41.47
362.456	52.74
362.667	-39.42
362.879	28.16
363.09	58.88
363.301	146.94
363.512	60.93
363.723	32.26
363.935	77.31
364.146	77.31
364.357	46.59
364.568	60.93
364.779	38.4
364.99	120.32
365.201	91.65
365.412	97.79
365.623	13.82
365.834	54.78
366.045	79.36
366.256	97.79
366.467	65.02
366.678	36.35
366.889	38.4
367.1	52.74
367.311	34.3
367.522	13.82
367.733	120.32
367.944	146.94
368.155	58.88
368.366	65.02
368.577	87.55
368.788	73.21
368.999	40.45
369.209	71.17
369.42	163.33
369.631	75.26
369.842	67.07
370.053	65.02
370.264	108.03
370.474	101.89
370.685	95.74
370.896	22.02
371.107	93.69
371.317	163.33
371.528	22.02
371.739	48.64
371.95	34.3
372.16	32.26
372.371	22.02
372.582	46.59
372.792	-6.66
373.003	91.65
373.214	73.21
373.424	101.89
373.635	73.21
373.846	128.51
374.056	97.79
374.267	34.3
374.477	15.87
374.688	85.5
374.898	114.17
375.109	62.98
375.319	58.88
375.53	142.85
375.74	89.6
375.951	48.64
376.161	79.36
376.372	79.36
376.582	69.12
376.793	101.89
377.003	85.5
377.214	138.75
377.424	97.79
377.635	118.27
377.845	71.17
378.055	134.65
378.266	83.45
378.476	116.22
378.686	132.61
378.897	54.78
379.107	7.68
379.317	103.93
379.528	50.69
379.738	105.98
379.948	132.61
380.158	97.79
380.369	54.78
380.579	134.65
380.789	128.51
380.999	69.12
381.21	97.79
381.42	110.08
381.63	126.46
381.84	77.31
382.05	77.31
382.261	97.79
382.471	83.45
382.681	110.08
382.891	73.21
383.101	56.83
383.311	7.68
383.521	136.7
383.731	93.69
383.941	52.74
384.151	87.55
384.361	103.93
384.571	81.41
384.781	91.65
384.991	167.42
385.201	136.7
385.411	95.74
385.621	138.75
385.831	122.37
386.041	153.09
386.251	130.56
386.461	83.45
386.671	52.74
386.881	128.51
387.091	17.92
387.301	114.17
387.511	81.41
387.72	95.74
387.93	50.69
388.14	44.54
388.35	67.07
388.56	95.74
388.769	71.17
388.979	52.74
389.189	140.8
389.399	118.27
389.609	122.37
389.818	99.84
390.028	77.31
390.238	126.46
390.447	30.21
390.657	108.03
390.867	103.93
391.076	58.88
391.286	116.22
391.496	87.55
391.705	56.83
391.915	138.75
392.125	122.37
392.334	48.64
392.544	120.32
392.753	128.51
392.963	34.3
393.172	130.56
393.382	85.5
393.591	62.98
393.801	101.89
394.01	144.89
394.22	95.74
394.429	124.41
394.639	99.84
394.848	163.33
395.058	93.69
395.267	69.12
395.477	116.22
395.686	148.99
395.895	103.93
396.105	155.13
396.314	142.85
396.524	134.65
396.733	185.85
396.942	140.8
397.152	132.61
397.361	120.32
397.57	151.04
397.78	148.99
397.989	171.52
398.198	212.48
398.407	58.88
398.617	185.85
398.826	95.74
399.035	198.14
399.244	175.61
399.453	202.24
399.663	99.84
399.872	163.33
400.081	148.99
400.29	185.85
400.499	187.9
400.708	138.75
400.917	146.94
401.127	202.24
401.336	91.65
401.545	226.81
401.754	196.09
401.963	202.24
402.172	159.23
402.381	134.65
402.59	163.33
402.799	163.33
403.008	230.91
403.217	112.13
403.426	173.57
403.635	196.09
403.844	196.09
404.053	247.29
404.262	282.11
404.471	290.3
404.68	192
404.888	171.52
405.097	177.66
405.306	179.71
405.515	284.16
405.724	228.86
405.933	241.15
406.142	255.48
406.35	226.81
406.559	237.05
406.768	290.3
406.977	407.03
407.185	327.16
407.394	339.45
407.603	310.78
407.812	329.21
408.02	357.88
408.229	349.69
408.438	376.31
408.646	366.07
408.855	278.01
409.064	306.68
409.272	361.98
409.481	466.42
409.69	454.14
409.898	368.12
410.107	374.27
410.315	495.1
410.524	398.84
410.733	486.9
410.941	566.78
411.15	515.58
411.358	579.06
411.567	503.29
411.775	546.3
411.984	587.26
412.192	597.49
412.401	626.17
412.609	656.89
412.818	755.19
413.026	673.27
413.234	747
413.443	687.61
413.651	740.85
413.86	822.77
414.068	896.5
414.276	904.69
414.485	898.55
414.693	974.32
414.901	898.55
415.11	1037.81
415.318	1017.33
415.526	1078.77
415.734	1129.97
415.943	1117.68
416.151	1127.92
416.359	1256.94
416.567	1285.61
416.776	1379.82
416.984	1396.2
417.192	1404.39
417.4	1463.79
417.608	1396.2
417.817	1381.87
418.025	1523.18
418.233	1658.34
418.441	1660.39
418.649	1705.45
418.857	1869.28
419.065	1857
419.273	1826.28
419.481	1930.72
419.689	2020.83
419.897	2182.62
420.105	2178.53
420.313	2289.12
420.521	2280.93
420.729	2375.13
420.937	2412
421.145	2516.44
421.353	2692.57
421.561	2737.62
421.769	2790.87
421.977	2954.71
422.185	2870.74
422.393	3091.92
422.601	3233.23
422.809	3272.14
423.017	3388.88
423.224	3247.57
423.432	3485.13
423.64	3608.01
423.848	4009.41
424.056	3810.76
424.263	4083.14
424.471	4056.51
424.679	4144.58
424.887	4371.9
425.094	4586.94
425.302	4588.99
425.51	4877.75
425.718	5006.77
425.925	4982.2
426.133	5139.89
426.341	5424.56
426.548	5551.53
426.756	5721.51
426.964	5774.76
427.171	6016.42
427.379	6268.32
427.586	6292.9
427.794	6487.45
428.001	6657.43
428.209	7054.74
428.417	6792.6
428.624	7484.81
428.832	7452.05
429.039	7466.38
429.247	7353.74
429.454	8101.25
429.662	8695.16
429.869	8091.01
430.076	8519.04
430.284	8529.28
430.491	8762.75
430.699	9217.4
430.906	9387.38
431.114	9540.97
431.321	9665.9
431.528	9858.41
431.736	10489.18
431.943	11076.95
432.15	10771.8
432.358	10749.28
432.565	11427.15
432.772	11613.52
432.979	11973.96
433.187	12483.91
433.394	12406.08
433.601	13157.69
433.808	13342
434.016	13086.01
434.223	13462.83
434.43	14359.84
434.637	14357.8
434.844	15168.79
435.052	15189.27
435.259	15398.17
435.466	15422.74
435.673	15349.01
435.88	16231.69
436.087	17167.61
436.294	17130.75
436.501	16719.1
436.708	17169.66
436.915	17788.14
437.122	18476.26
437.329	18031.85
437.537	18824.42
437.743	19014.88
437.95	19258.59
438.157	20182.22
438.364	20786.37
438.571	20933.82
438.778	20925.63
438.985	22529.19
439.192	21757.11
439.399	22490.28
439.606	22199.47
439.813	23444.63
440.02	24927.36
440.227	24136.85
440.433	24106.13
440.64	24685.7
440.847	24640.65
441.054	24894.6
441.261	26971.24
441.467	26623.08
441.674	27159.65
441.881	28054.61
442.088	28161.11
442.294	27991.12
442.501	28277.84
442.708	28785.74
442.914	30508.08
443.121	31689.76
443.328	30348.34
443.534	32990.22
443.741	32103.45
443.948	31249.44
444.154	33680.38
444.361	33287.17
444.568	33963
444.774	33983.48
444.981	34145.27
445.187	34986.99
445.394	36910.03
445.6	36312.02
445.807	39601.06
446.013	38054.84
446.22	38855.6
446.426	39969.69
446.633	40635.28
446.839	41642.88
447.046	39879.58
447.252	42470.26
447.459	42650.49
447.665	42353.53
447.871	44213.09
448.078	45529.93
448.284	43783.01
448.491	44667.73
448.697	46758.71
448.903	47428.4
449.11	47070
449.316	46414.65
449.522	47274.8
449.728	48907.03
449.935	49154.83
450.141	48890.65
450.347	50125.57
450.553	48700.18
450.76	49203.99
450.966	50402.05
451.172	50311.94
451.378	51923.69
451.584	50305.79
451.791	52120.29
451.997	51491.57
452.203	52325.09
452.409	52288.23
452.615	51956.46
452.821	50017.03
453.027	49507.08
453.233	52257.51
453.44	50248.45
453.646	51579.63
453.852	51157.75
454.058	51966.7
454.264	50348.8
454.47	51208.95
454.676	50025.22
454.882	51786.47
455.088	47280.94
455.294	48132.9
455.5	48833.3
455.705	48896.79
455.911	47442.73
456.117	46920.5
456.323	46224.19
456.529	43604.84
456.735	45589.32
456.941	44131.17
457.147	43688.81
457.352	41831.3
457.558	41864.07
457.764	41845.63
457.97	41044.88
458.176	40037.28
458.381	40135.58
458.587	37989.31
458.793	38542.26
458.999	36594.64
459.204	38828.98
459.41	37891.01
459.616	35191.78
459.821	35589.09
460.027	35425.25
460.233	34880.49
460.438	32807.95
460.644	33102.85
460.85	31747.1
461.055	31400.99
461.261	31142.95
461.466	29107.27
461.672	27708.51
461.878	30198.84
462.083	27843.67
462.289	27673.69
462.494	27036.77
462.7	25977.97
462.905	25343.1
463.111	25844.85
463.316	25982.07
463.522	25535.61
463.727	25748.6
463.932	25676.92
464.138	25447.55
464.343	25570.43
464.549	24577.16
464.754	25627.77
464.959	25150.59
465.165	25212.03
465.37	24040.59
465.575	23379.1
465.781	24325.26
465.986	24501.39
466.191	23749.78
466.397	23090.34
466.602	21902.51
466.807	22918.31
467.012	22793.38
467.218	22455.47
467.423	22078.64
467.628	22607.02
467.833	23346.33
468.038	22686.89
468.244	21982.38
468.449	22611.11
468.654	22033.58
468.859	21759.16
469.064	21890.23
469.269	21114.05
469.474	21025.98
469.679	21537.98
469.885	20763.84
470.09	21224.64
470.295	21060.8
470.5	20214.99
470.705	20671.68
470.91	20294.86
471.115	20124.88
471.32	20344.01
471.525	20135.12
471.73	19653.84
471.935	19508.44
472.139	19119.32
472.344	19248.35
472.549	18998.49
472.754	19023.07
472.959	18513.13
473.164	18156.78
473.369	17779.95
473.574	18627.81
473.778	18130.16
473.983	18164.97
474.188	18066.67
474.393	16962.81
474.598	17501.43
474.802	17151.23
475.007	17100.03
475.212	17159.42
475.417	16559.36
475.621	16592.13
475.826	16452.87
476.031	16053.52
476.235	15852.81
476.44	16088.33
476.645	15580.43
476.849	15930.64
477.054	15725.84
477.259	15670.54
477.463	15271.19
477.668	14955.8
477.872	15080.73
478.077	14818.59
478.282	14472.48
478.486	14259.49
478.691	14415.14
478.895	14406.95
479.1	14468.39
479.304	14085.42
479.509	13638.96
479.713	14189.86
479.918	13591.86
480.122	13706.54
480.326	13530.42
480.531	13776.17
480.735	13561.14
480.94	13567.28
481.144	13790.51
481.348	13106.49
481.553	13436.21
481.757	13053.24
481.961	13335.86
482.166	13503.79
482.37	13294.9
482.574	13079.86
482.778	12905.79
482.983	13411.64
483.187	13186.36
483.391	13337.91
483.595	12971.32
483.8	13139.26
484.004	12959.03
484.208	13292.85
484.412	13262.13
484.616	12940.6
484.821	13268.28
485.025	12846.4
485.229	13178.17
485.433	13133.11
485.637	13325.62
485.841	13083.96
486.045	12926.27
486.249	13159.74
486.453	12954.94
486.657	13077.82
486.861	13296.95
487.065	12756.29
487.269	13020.47
487.473	12848.44
487.677	13210.93
487.881	13163.83
488.085	12989.75
488.289	12987.71
488.493	13192.5
488.697	13323.57
488.901	13163.83
489.105	13462.83
489.309	13208.89
489.512	13202.74
489.716	13305.14
489.92	13421.88
490.124	13155.64
490.328	13450.55
490.531	13368.63
490.735	13452.59
490.939	13477.17
491.143	13321.52
491.346	13436.21
491.55	13720.88
491.754	13415.73
491.958	13993.26
492.161	13487.41
492.365	13901.1
492.569	13554.99
492.772	13724.97
492.976	13862.19
493.18	13948.2
493.383	13987.11
493.587	14042.41
493.79	14279.97
493.994	14155.05
494.197	14640.42
494.401	14435.62
494.605	14355.75
494.808	14617.89
495.012	14970.14
495.215	14753.05
495.419	14746.91
495.622	15062.3
495.825	15117.59
496.029	15328.53
496.232	15459.6
496.436	15473.94
496.639	15760.66
496.843	15734.03
497.046	16164.11
497.249	16022.8
497.453	16104.71
497.656	16491.78
497.859	16497.92
498.063	16608.51
498.266	16999.68
498.469	17044.73
498.673	17089.79
498.876	17100.03
499.079	17794.29
499.282	17378.55
499.485	17921.26
499.689	17937.65
499.892	18193.64
500.095	18380.01
500.298	18912.48
500.501	18625.76
500.705	19057.89
500.908	19528.92
501.111	19709.14
501.314	19510.49
501.517	19768.53
501.72	19971.28
501.923	20063.44
502.126	20608.2
502.329	20872.39
502.532	20776.13
502.735	21054.65
502.938	21482.68
503.141	21757.11
503.344	21974.19
503.547	22125.74
503.75	22052.02
503.953	22617.25
504.156	22656.17
504.359	22989.99
504.562	22955.17
504.765	23735.45
504.968	23780.5
505.17	24374.41
505.373	24059.02
505.576	24716.42
505.779	24913.03
505.982	25033.86
506.185	25408.64
506.387	25726.07
506.59	25744.5
506.793	26389.61
506.996	26442.86
507.198	26883.17
507.401	26973.28
507.604	27196.51
507.807	27530.33
508.009	28046.42
508.212	28128.34
508.415	28294.22
508.617	28671.05
508.82	28841.03
509.022	28691.53
509.225	29490.24
509.428	29666.36
509.63	29973.56
509.833	29922.36
510.035	30962.73
510.238	30626.86
510.44	31196.2
510.643	31321.12
510.845	31562.78
511.048	31687.71
511.25	32148.5
511.453	32467.98
511.655	33594.37
511.858	33178.63
512.06	33580.03
512.262	34262.01
512.465	33700.86
512.667	34728.94
512.87	34624.5
513.072	34743.28
513.274	35650.53
513.477	35376.1
513.679	36174.81
513.881	36602.83
514.084	36916.17
514.286	36660.18
514.488	36889.55
514.69	38190.01
514.893	37948.35
515.095	38413.24
515.297	38998.96
515.499	38886.32
515.701	39654.31
515.904	39967.65
516.106	40313.75
516.308	40928.14
516.51	40969.1
516.712	40817.55
516.914	41132.94
517.116	42173.31
517.318	42189.69
517.52	42269.56
517.722	42560.37
517.925	43357.03
518.127	43912.03
518.329	43944.8
518.531	43823.97
518.733	44704.6
518.935	44714.84
519.136	45120.34
519.338	45849.41
519.54	45980.48
519.742	46394.17
519.944	46564.15
520.146	47045.43
520.348	47354.67
520.55	47563.56
520.752	47694.63
520.954	48567.07
521.155	47883.05
521.357	48917.27
521.559	49429.26
521.761	50105.09
521.963	49996.55
522.164	50457.34
522.366	50240.26
522.568	50746.11
522.77	51041.01
522.971	51516.14
523.173	51190.51
523.375	51579.63
523.576	51794.67
523.778	51741.42
523.98	52968.15
524.181	52726.49
524.383	52962.01
524.584	53316.31
524.786	53652.17
524.988	53297.87
525.189	54168.26
525.391	54188.74
525.592	54512.32
525.794	54723.26
525.995	55005.88
526.197	54936.25
526.398	55018.17
526.6	55466.67
526.801	55739.05
527.003	56124.07
527.204	56021.67
527.406	56558.24
527.607	55986.86
527.808	56488.61
528.01	56044.2
528.211	56654.5
528.412	57356.95
528.614	56900.25
528.815	57137.82
529.016	58198.66
529.218	57111.19
529.419	57242.26
529.62	57494.16
529.822	57836.17
530.023	57617.04
530.224	57848.46
530.425	57404.05
530.626	57412.24
530.828	57240.21
531.029	58663.55
531.23	57891.47
531.431	57643.66
531.632	57696.91
531.833	58448.52
532.035	57997.96
532.236	58305.16
532.437	58231.43
532.638	57981.58
532.839	58493.57
533.04	58919.55
533.241	58401.41
533.442	58798.72
533.643	58665.6
533.844	58387.08
534.045	58481.28
534.246	58286.73
534.447	59026.04
534.648	58333.83
534.849	58501.76
535.05	58256.01
535.251	58552.96
535.451	58305.16
535.652	58538.63
535.853	58479.24
536.054	58327.69
536.255	58520.2
536.456	57569.94
536.657	58989.18
536.857	58286.73
537.058	58243.72
537.259	58841.73
537.46	58460.8
537.66	58499.72
537.861	58509.96
538.062	58102.41
538.263	58090.12
538.463	58008.2
538.664	58368.65
538.865	58329.73
539.065	58462.85
539.266	57682.58
539.466	59005.56
539.667	58004.11
539.868	58743.42
540.068	58344.07
540.269	57985.68
540.469	58288.77
540.67	57870.99
540.87	57801.36
541.071	58247.82
541.271	57916.04
541.472	58208.9
541.672	57686.67
541.873	57741.97
542.073	57658
542.274	58309.25
542.474	57983.63
542.675	57248.41
542.875	58010.25
543.075	57701.01
543.276	56935.07
543.476	58038.92
543.676	57338.52
543.877	57522.83
544.077	57623.18
544.277	57676.43
544.478	57260.69
544.678	57819.79
544.878	57260.69
545.078	57270.93
545.279	57485.97
545.479	57547.41
545.679	57588.37
545.879	57367.19
546.079	57418.39
546.28	57617.04
546.48	57197.21
546.68	57406.1
546.88	57150.1
547.08	57135.77
547.28	57248.41
547.48	56711.84
547.68	57647.76
547.88	56504.99
548.081	57180.82
548.281	57127.58
548.481	57119.38
548.681	57729.68
548.881	57326.23
549.081	57272.98
549.28	56662.69
549.48	57162.39
549.68	56842.91
549.88	57780.88
550.08	56918.68
550.28	57354.9
550.48	56933.02
550.68	57080.47
550.88	56365.73
551.08	56947.36
551.279	56853.15
551.479	56545.95
551.679	56627.87
551.879	56740.51
552.079	56838.81
552.278	56371.88
552.478	56912.54
552.678	56537.76
552.878	57088.66
553.077	56406.69
553.277	56091.3
553.477	56877.72
553.676	56791.71
553.876	56599.2
554.076	56300.2
554.275	56179.37
554.475	55708.33
554.674	56748.7
554.874	56316.58
555.074	56234.66
555.273	56187.56
555.473	56402.6
555.672	55849.64
555.872	55737.01
556.071	56011.43
556.271	56605.34
556.47	55935.66
556.67	55603.89
556.869	55861.93
557.068	55937.71
557.268	55515.82
557.467	55931.56
557.667	55831.21
557.866	55548.59
558.065	55839.4
558.265	55259.83
558.464	55237.3
558.663	55911.08
558.863	54657.73
559.062	56259.24
559.261	54958.78
559.461	55388.85
559.66	54655.68
559.859	55048.89
560.058	54930.11
560.258	55220.92
560.457	54241.99
560.656	55044.79
560.855	54371.01
561.054	54858.43
561.253	54256.32
561.453	54293.19
561.652	54340.29
561.851	54629.05
562.05	54100.68
562.249	54016.71
562.448	54405.83
562.647	54387.39
562.846	53873.35
563.045	54108.87
563.244	53756.62
563.443	54389.44
563.642	53283.54
563.841	53533.39
564.04	53283.54
564.239	53557.97
564.438	52998.87
564.637	53590.73
564.836	53654.22
565.035	52777.69
565.234	53205.72
565.432	52998.87
565.631	52673.24
565.83	52744.92
566.029	52603.61
566.228	52685.53
566.427	52714.2
566.625	52183.78
566.824	51866.34
567.023	52509.41
567.222	51301.11
567.42	52640.48
567.619	51989.22
567.818	51610.35
568.016	51714.79
568.215	51946.22
568.414	51239.67
568.612	51710.7
568.811	51258.1
569.01	51501.81
569.208	51043.06
569.407	51034.87
569.605	50885.37
569.804	51102.45
570.002	50453.25
570.201	50682.62
570.4	50248.45
570.598	49967.88
570.797	49834.76
570.995	50176.77
571.193	49511.18
571.392	50445.05
571.59	50146.05
571.789	49511.18
571.987	49480.46
572.186	49175.31
572.384	48991
572.582	49373.97
572.781	49308.43
572.979	48532.25
573.177	49212.18
573.376	48757.53
573.574	48644.89
573.772	48843.54
573.971	48253.73
574.169	48186.14
574.367	48282.4
574.565	48407.33
574.763	48130.85
574.962	47837.99
575.16	47147.82
575.358	47825.7
575.556	47092.53
575.754	47993.64
575.952	47598.38
576.151	47633.19
576.349	46570.3
576.547	47035.19
576.745	46981.94
576.943	46828.34
577.141	46670.65
577.339	46082.88
577.537	46416.7
577.735	46476.09
577.933	45669.19
578.131	46232.38
578.329	45882.18
578.527	45738.82
578.725	46127.94
578.923	45986.63
579.121	45372.24
579.319	45415.24
579.516	45972.29
579.714	45515.59
579.912	45153.1
580.11	44792.66
580.308	44755.8
580.506	45144.91
580.704	44231.52
580.901	44716.89
581.099	44974.93
581.297	44315.48
581.495	43801.44
581.692	44438.36
581.89	43963.23
582.088	44256.09
582.285	43594.6
582.483	44030.82
582.681	43930.47
582.878	43742.05
583.076	43238.25
583.274	43340.65
583.471	42806.13
583.669	42953.58
583.866	42650.49
584.064	42634.1
584.262	42281.85
584.459	42871.67
584.657	42095.49
584.854	42412.92
585.052	41724.8
585.249	42091.39
585.447	42075.01
585.644	41587.59
585.841	41974.66
586.039	41907.07
586.236	41831.3
586.434	41646.98
586.631	41659.27
586.828	41536.39
587.026	41317.26
587.223	41470.86
587.42	40973.2
587.618	40827.79
587.815	40645.52
588.012	40842.13
588.21	40266.65
588.407	40717.2
588.604	40414.1
588.801	39879.58
588.999	40117.15
589.196	40100.76
589.393	39814.05
589.59	39953.31
589.787	39803.81
589.984	39230.38
590.182	39222.19
590.379	39551.91
590.576	38966.19
590.773	38937.52
590.97	38980.53
591.167	38722.48
591.364	38222.78
591.561	39013.29
591.758	38085.56
591.955	38255.54
592.152	38683.57
592.349	37962.68
592.546	38155.19
592.743	38398.9
592.94	37237.7
593.137	37696.45
593.334	37966.78
593.531	37311.43
593.727	37444.55
593.924	37622.72
594.121	37086.15
594.318	37587.91
594.515	36604.88
594.712	37006.28
594.908	37055.43
595.105	36871.12
595.302	36727.76
595.499	36778.96
595.696	36217.82
595.892	36193.24
596.089	36352.98
596.286	36336.6
596.482	35728.35
596.679	36123.61
596.876	35650.53
597.072	35978.2
597.269	35705.82
597.466	35445.73
597.662	35283.94
597.859	35458.02
598.055	35421.16
598.252	35372
598.448	35232.74
598.645	35191.78
598.841	34309.11
599.038	34886.64
599.234	34565.1
599.431	34655.22
599.627	34567.15
599.824	34378.74
600.02	34188.28
600.217	34175.99
600.413	33788.92
600.609	33852.41
600.806	33508.35
601.002	33985.53
601.198	33483.78
601.395	33483.78
601.591	33494.02
601.787	33573.89
601.984	33422.34
602.18	33620.99
602.376	33182.73
602.572	32554
602.769	32781.32
602.965	32478.22
603.161	32558.1
603.357	32603.15
603.553	32398.35
603.75	32404.5
603.946	32168.98
604.142	31966.23
604.338	31599.65
604.534	31945.75
604.73	31775.77
604.926	31833.11
605.122	31652.89
605.318	31738.91
605.514	31466.53
605.71	31419.42
605.906	31155.24
606.102	31200.29
606.298	31292.45
606.494	31069.22
606.69	31364.13
606.886	31134.76
607.082	30735.4
607.278	30661.68
607.474	30319.67
607.67	30604.33
607.866	30372.91
608.062	30835.75
608.257	30022.71
608.453	30559.28
608.649	30590
608.845	29965.37
609.041	30112.82
609.236	30497.84
609.432	29850.68
609.628	30049.33
609.824	29916.22
610.019	29846.58
610.215	29830.2
610.411	29785.15
610.606	29350.98
610.802	29668.41
610.998	29666.36
611.193	29803.58
611.389	29535.29
611.584	29267.01
611.78	29158.47
611.976	29228.1
612.171	29248.58
612.367	29043.78
612.562	28881.99
612.758	28660.81
612.953	28511.31
613.149	29086.79
613.344	28705.87
613.539	29142.08
613.735	28664.91
613.93	28601.42
614.126	28431.44
614.321	28843.08
614.517	28423.25
614.712	28193.87
614.907	28116.05
615.103	28585.04
615.298	28292.18
615.493	28335.18
615.688	27751.51
615.884	28568.65
616.079	27886.68
616.274	27923.54
616.47	27794.52
616.665	27747.42
616.86	27864.15
617.055	27458.65
617.25	26942.56
617.445	27651.16
617.641	26983.52
617.836	27343.97
618.031	26909.8
618.226	27608.15
618.421	27157.6
618.616	27260
618.811	26459.24
619.006	27040.87
619.201	26475.63
619.396	26561.64
619.591	26256.5
619.786	26850.41
619.981	25853.05
620.176	26647.66
620.371	25953.4
620.566	25975.92
620.761	26037.36
620.956	25898.1
621.151	25406.59
621.346	25590.91
621.541	25029.76
621.735	25271.42
621.93	24988.8
622.125	25341.05
622.32	24372.36
622.515	24728.71
622.709	24419.47
622.904	24435.85
623.099	24517.77
623.294	24532.11
623.488	24056.98
623.683	24003.73
623.878	23823.51
624.072	23868.56
624.267	23784.6
624.462	23708.82
624.656	23116.96
624.851	23202.97
625.046	23084.19
625.24	22932.64
625.435	22989.99
625.629	22564.01
625.824	22797.48
626.018	22439.08
626.213	22154.41
626.407	22285.48
626.602	22101.17
626.796	22119.6
626.991	21882.03
627.185	21879.99
627.38	21431.48
627.574	21603.51
627.768	21365.95
627.963	21583.03
628.157	20999.36
628.352	21335.23
628.546	20878.53
628.74	20978.88
628.935	20894.91
629.129	20749.51
629.323	20298.95
629.517	20251.85
629.712	20417.74
629.906	20356.3
630.1	20065.49
630.294	20071.63
630.489	19834.07
630.683	19940.56
630.877	19471.57
631.071	19451.1
631.265	19692.76
631.459	19360.98
631.653	19465.43
631.848	19399.9
632.042	19254.49
632.236	19346.65
632.43	18844.9
632.624	19039.45
632.818	18820.32
633.012	18568.42
633.206	18345.19
633.4	18691.3
633.594	18232.55
633.788	18058.48
633.982	18169.07
634.176	18013.42
634.369	17847.54
634.563	17935.6
634.757	17710.32
634.951	17970.41
635.145	17466.61
635.339	17577.2
635.533	17360.12
635.726	17071.36
635.92	17218.81
636.114	17409.27
636.308	16764.16
636.501	16999.68
636.695	16674.05
636.889	16510.21
637.083	16573.7
637.276	16438.53
637.47	16581.89
637.664	16389.38
637.857	16307.46
638.051	15953.16
638.244	15932.68
638.438	15797.52
638.632	15848.72
638.825	15615.25
639.019	15693.07
639.212	15572.24
639.406	15308.05
639.599	15265.05
639.793	15256.86
639.986	15129.88
640.18	14980.38
640.373	15258.9
640.567	14802.21
640.76	14837.02
640.954	14691.62
641.147	14740.77
641.34	14501.15
641.534	14599.46
641.727	14605.6
641.92	14501.15
642.114	14275.88
642.307	14267.69
642.5	14224.68
642.694	14052.65
642.887	14087.47
643.08	13882.67
643.273	13665.58
643.467	13776.17
643.66	13663.54
643.853	13503.79
644.046	13245.75
644.239	13491.51
644.432	13217.08
644.626	13215.03
644.819	13196.6
645.012	13139.26
645.205	13120.82
645.398	13151.54
645.591	12893.5
645.784	12838.2
645.977	12768.57
646.17	12694.85
646.363	12598.59
646.556	12311.88
646.749	12600.64
646.942	12367.17
647.135	12494.15
647.328	12129.61
647.521	12189
647.714	11900.23
647.907	12193.09
648.099	11818.32
648.292	11851.08
648.485	12080.46
648.678	11740.49
648.871	11867.47
649.064	11558.22
649.256	11697.49
649.449	11726.16
649.642	11382.1
649.835	11277.65
650.027	11273.56
650.22	11326.8
650.413	11011.42
650.605	11267.41
650.798	11058.52
650.991	11076.95
651.183	11050.33
651.376	10767.71
651.568	11015.51
651.761	11011.42
651.954	10730.84
652.146	10704.22
652.339	10683.74
652.531	10663.26
652.724	10456.42
652.916	10351.97
653.109	10390.88
653.301	10435.94
653.494	10343.78
653.686	10044.77
653.879	10153.32
654.071	10095.97
654.263	9977.19
654.456	10026.34
654.648	9973.1
654.84	9915.75
655.033	9794.92
655.225	9719.15
655.417	9620.85
655.61	9811.31
655.802	9729.39
655.994	9672.04
656.186	9379.18
656.379	9397.62
656.571	9338.23
656.763	9383.28
656.955	9254.26
657.148	9397.62
657.34	9272.69
657.532	9002.36
657.724	9180.53
657.916	8981.88
658.108	9071.99
658.3	8949.11
658.492	8920.44
658.684	8621.44
658.876	8609.15
659.068	8643.96
659.26	8738.17
659.452	8627.58
659.644	8795.51
659.836	8463.74
660.028	8422.78
660.22	8539.52
660.412	8275.33
660.604	8420.74
660.796	8238.47
660.988	8394.11
661.18	8357.25
661.372	8076.68
661.563	8316.29
661.755	8045.96
661.947	8105.35
662.139	7976.33
662.331	7966.09
662.522	7794.06
662.714	7914.89
662.906	7832.97
663.097	7640.46
663.289	7742.86
663.481	7695.75
663.673	7720.33
663.864	7615.88
664.056	7638.41
664.247	7736.71
664.439	7357.84
664.631	7523.73
664.822	7753.1
665.014	7415.18
665.205	7261.59
665.397	7191.95
665.588	7339.41
665.78	7345.55
665.971	7261.59
666.163	7284.11
666.354	7204.24
666.546	7046.55
666.737	6966.68
666.929	7208.34
667.12	7089.56
667.311	7064.98
667.503	6776.22
667.694	6935.96
667.885	6997.4
668.077	6792.6
668.268	6630.81
668.459	6856.09
668.651	6696.35
668.842	6725.02
669.033	6876.57
669.224	6712.73
669.416	6634.91
669.607	6550.94
669.798	6581.66
669.989	6524.32
670.18	6645.15
670.371	6364.57
670.563	6299.04
670.754	6555.04
670.945	6356.38
671.136	6350.24
671.327	6319.52
671.518	6327.71
671.709	6405.53
671.9	6346.14
672.091	6206.88
672.282	6063.52
672.473	6239.65
672.664	6290.85
672.855	6200.74
673.046	6104.48
673.237	6149.54
673.428	6145.44
673.619	5782.95
673.809	6008.23
674	6155.68
674.191	6000.04
674.382	6073.76
674.573	6079.91
674.764	5967.27
674.954	6051.24
675.145	5899.69
675.336	5911.97
675.527	5846.44
675.717	5842.34
675.908	5692.84
676.099	5942.69
676.289	5694.89
676.48	5793.19
676.671	5662.12
676.861	5760.42
677.052	5854.63
677.243	5529
677.433	5758.38
677.624	5868.97
677.814	5705.13
678.005	5604.78
678.195	5668.27
678.386	5592.49
678.576	5412.27
678.767	5633.45
678.957	5637.55
679.148	5567.92
679.338	5518.76
679.529	5469.61
679.719	5574.06
679.909	5522.86
680.1	5385.65
680.29	5387.69
680.481	5416.37
680.671	5440.94
680.861	5563.82
681.052	5490.09
681.242	5377.45
681.432	5455.28
681.622	5344.69
681.813	5475.76
682.003	5303.73
682.193	5426.61
682.383	5424.56
682.573	5250.48
682.764	5268.91
682.954	5352.88
683.144	5285.3
683.334	5135.79
683.524	5240.24
683.714	5154.23
683.904	5297.58
684.094	5242.29
684.284	5166.51
684.474	5316.01
684.664	5143.99
684.854	5318.06
685.044	5129.65
685.234	5070.26
685.424	5094.83
685.614	5053.87
685.804	5121.46
685.994	4996.53
686.184	5148.08
686.374	5115.31
686.564	5070.26
686.753	5082.55
686.943	5045.68
687.133	4906.42
687.323	5004.72
687.513	5053.87
687.702	4943.28
687.892	4920.76
688.082	4957.62
688.272	4914.61
688.461	4875.7
688.651	4638.14
688.841	4881.85
689.03	4974
689.22	4631.99
689.41	4636.09
689.599	4861.37
689.789	4740.54
689.979	4910.52
690.168	4660.66
690.358	4763.06
690.547	4617.66
690.737	4679.1
690.926	4646.33
691.116	4591.03
691.305	4681.14
691.495	4447.68
691.684	4666.81
691.874	4533.69
692.063	4554.17
692.252	4537.79
692.442	4515.26
692.631	4480.44
692.82	4470.2
693.01	4378.05
693.199	4472.25
693.388	4476.35
693.578	4447.68
693.767	4457.92
693.956	4332.99
694.146	4443.58
694.335	4206.02
694.524	4425.15
694.713	4437.44
694.902	4357.57
695.092	4318.65
695.281	4367.81
695.47	4253.12
695.659	4349.37
695.848	4298.17
696.037	4273.6
696.226	4355.52
696.415	4271.55
696.604	4203.97
696.793	4156.86
696.982	4232.64
697.171	4019.65
697.36	4296.13
697.549	4240.83
697.738	4193.73
697.927	4228.54
698.116	4216.26
698.305	4128.19
698.494	4064.71
698.683	4201.92
698.872	4091.33
699.061	4115.91
699.25	4101.57
699.438	4060.61
699.627	4052.42
699.816	4015.55
700.005	4255.17
700.193	4081.09
700.382	4158.91
700.571	4031.94
700.76	4095.43
700.948	3990.98
701.137	3917.25
701.326	4111.81
701.514	3911.11
701.703	3980.74
701.892	3966.4
702.08	3999.17
702.269	3896.77
702.457	3939.78
702.646	3997.12
702.834	3749.32
703.023	3853.77
703.212	3995.08
703.4	3917.25
703.589	3966.4
703.777	3886.53
703.965	3845.57
704.154	3761.61
704.342	3888.58
704.531	3919.3
704.719	3859.91
704.907	3927.49
705.096	3821
705.284	3818.95
705.472	3861.96
705.661	3962.31
705.849	3757.51
706.037	3837.38
706.226	3739.08
706.414	3745.22
706.602	3691.98
706.79	3886.53
706.979	3667.4
707.167	3757.51
707.355	3700.17
707.543	3728.84
707.731	3681.74
707.919	3651.02
708.107	3558.86
708.296	3573.19
708.484	3575.24
708.672	3540.43
708.86	3616.2
709.048	3624.39
709.236	3601.87
709.424	3698.12
709.612	3556.81
709.8	3571.15
709.988	3464.65
710.176	3612.1
710.364	3558.86
710.551	3562.95
710.739	3628.49
710.927	3532.23
711.115	3546.57
711.303	3505.61
711.491	3454.41
711.679	3476.94
711.866	3374.54
712.054	3554.76
712.242	3544.52
712.43	3405.26
712.617	3386.83
712.805	3452.36
712.993	3435.98
713.181	3309.01
713.368	3364.3
713.556	3323.34
713.744	3489.23
713.931	3440.08
714.119	3370.44
714.306	3278.29
714.494	3306.96
714.682	3229.13
714.869	3263.95
715.057	3356.11
715.244	3222.99
715.432	3335.63
715.619	3335.63
715.807	3253.71
715.994	3141.07
716.182	3233.23
716.369	3237.33
716.556	3333.58
716.744	3311.05
716.931	3032.53
717.119	3231.18
717.306	3134.93
717.493	3157.46
717.681	3161.55
717.868	3171.79
718.055	3210.7
718.242	3229.13
718.43	3024.34
718.617	3147.22
718.804	3175.89
718.991	3175.89
719.179	3155.41
719.366	2995.67
719.553	3114.45
719.74	3149.26
719.927	3083.73
720.114	3075.54
720.301	3069.39
720.488	2944.47
720.676	2934.23
720.863	3091.92
721.05	2854.36
721.237	3065.3
721.424	2987.47
721.611	3034.58
721.798	2878.93
721.985	3020.24
722.172	2895.32
722.358	2915.8
722.545	3042.77
722.732	2956.75
722.919	2950.61
723.106	2936.28
723.293	2930.13
723.48	2819.54
723.667	2862.55
723.853	2856.4
724.04	2837.97
724.227	2887.12
724.414	2952.66
724.6	2784.73
724.787	2864.6
724.974	2913.75
725.161	2754.01
725.347	2743.77
725.534	2756.05
725.72	2782.68
725.907	2932.18
726.094	2737.62
726.28	2817.49
726.467	2794.97
726.653	2711
726.84	2852.31
727.027	2737.62
727.213	2717.14
727.4	2833.88
727.586	2715.09
727.773	2803.16
727.959	2747.86
728.145	2694.61
728.332	2633.18
728.518	2694.61
728.705	2702.81
728.891	2651.61
729.077	2711
729.264	2696.66
729.45	2665.94
729.636	2653.66
729.823	2651.61
730.009	2659.8
730.195	2735.57
730.382	2676.18
730.568	2633.18
730.754	2672.09
730.94	2567.64
731.126	2618.84
731.313	2538.97
731.499	2590.17
731.685	2530.78
731.871	2573.78
732.057	2590.17
732.243	2543.07
732.429	2545.11
732.615	2475.48
732.801	2530.78
732.987	2600.41
733.173	2545.11
733.359	2487.77
733.545	2624.98
733.731	2522.59
733.917	2553.31
734.103	2475.48
734.289	2498.01
734.475	2495.96
734.661	2424.28
734.847	2424.28
735.033	2420.19
735.219	2463.19
735.404	2633.18
735.59	2297.31
735.776	2442.71
735.962	2452.95
736.148	2528.73
736.333	2244.06
736.519	2287.07
736.705	2418.14
736.89	2426.33
737.076	2403.8
737.262	2387.42
737.447	2440.67
737.633	2436.57
737.819	2401.76
738.004	2379.23
738.19	2348.51
738.375	2407.9
738.561	2346.46
738.747	2256.35
738.932	2379.23
739.118	2346.46
739.303	2330.08
739.489	2317.79
739.674	2151.9
739.859	2264.54
740.045	2305.5
740.23	2213.34
740.416	2178.53
740.601	2303.45
740.786	2301.4
740.972	2196.96
741.157	2151.9
741.342	2119.14
741.528	2178.53
741.713	2172.38
741.898	2170.33
742.084	2084.32
742.269	2229.73
742.454	2112.99
742.639	2164.19
742.824	2078.18
743.01	2072.03
743.195	2104.8
743.38	2092.51
743.565	2069.98
743.75	2139.62
743.935	1986.02
744.12	2145.76
744.305	2008.55
744.49	1981.92
744.675	2047.46
744.86	2010.59
745.045	1969.63
745.23	1971.68
745.415	1875.43
745.6	2102.75
745.785	1979.87
745.97	1965.54
746.155	2012.64
746.34	1916.39
746.525	1852.9
746.71	1992.16
746.895	1762.79
747.079	1932.77
747.264	1846.76
747.449	1846.76
747.634	1857
747.819	1818.08
748.003	1816.04
748.188	1838.56
748.373	1832.42
748.557	1732.07
748.742	1830.37
748.927	1803.75
749.111	1807.84
749.296	1793.51
749.481	1748.45
749.665	1828.32
749.85	1660.39
750.034	1678.82
750.219	1701.35
750.404	1635.82
750.588	1594.86
750.773	1664.49
750.957	1596.9
751.141	1615.34
751.326	1590.76
751.51	1621.48
751.695	1523.18
751.879	1541.61
752.064	1562.09
752.248	1512.94
752.432	1631.72
752.617	1512.94
752.801	1601
752.985	1502.7
753.17	1560.04
753.354	1551.85
753.538	1435.11
753.722	1478.12
753.907	1443.31
754.091	1498.6
754.275	1474.03
754.459	1465.83
754.643	1412.59
754.828	1377.77
755.012	1381.87
755.196	1351.15
755.38	1385.96
755.564	1388.01
755.748	1371.63
755.932	1330.67
756.116	1345
756.3	1406.44
756.484	1299.95
756.668	1299.95
756.852	1302
757.036	1254.89
757.22	1342.96
757.404	1328.62
757.588	1320.43
757.772	1238.51
757.956	1277.42
758.14	1269.23
758.323	1224.17
758.507	1248.75
758.691	1201.65
758.875	1162.73
759.059	1228.27
759.242	1244.65
759.426	1150.45
759.61	1197.55
759.794	1039.86
759.977	1134.06
760.161	1123.82
760.345	1207.79
760.528	1136.11
760.712	1132.01
760.895	1074.67
761.079	1164.78
761.263	1089.01
761.446	1035.76
761.63	1207.79
761.813	1117.68
761.997	1160.69
762.18	1091.06
762.364	1058.29
762.547	1082.86
762.731	1142.25
762.914	1021.42
763.098	1140.21
763.281	996.85
763.464	1007.09
763.648	951.79
763.831	1099.25
764.015	1027.57
764.198	1052.14
764.381	935.41
764.564	1046
764.748	949.75
764.931	990.7
765.114	972.27
765.297	1031.66
765.481	1043.95
765.664	1046
765.847	980.47
766.03	980.47
766.213	988.66
766.397	986.61
766.58	910.83
766.763	996.85
766.946	1033.71
767.129	953.84
767.312	957.94
767.495	888.31
767.678	878.07
767.861	839.16
768.044	992.75
768.227	851.44
768.41	900.59
768.593	851.44
768.776	888.31
768.959	853.49
769.142	980.47
769.324	982.51
769.507	916.98
769.69	929.27
769.873	847.35
770.056	978.42
770.239	886.26
770.421	886.26
770.604	884.21
770.787	806.39
770.97	867.83
771.152	871.92
771.335	845.3
771.518	882.16
771.7	871.92
771.883	851.44
772.066	923.12
772.248	873.97
772.431	871.92
772.613	830.96
772.796	736.76
772.978	845.3
773.161	806.39
773.343	833.01
773.526	818.68
773.708	847.35
773.891	617.97
774.073	869.87
774.256	771.57
774.438	685.56
774.621	744.95
774.803	833.01
774.985	648.69
775.168	835.06
775.35	747
775.532	771.57
775.715	738.8
775.897	738.8
776.079	714.23
776.261	736.76
776.444	742.9
776.626	689.65
776.808	648.69
776.99	648.69
777.173	720.37
777.355	753.14
777.537	710.13
777.719	701.94
777.901	624.12
778.083	630.26
778.265	589.3
778.447	599.54
778.629	671.22
778.811	652.79
778.993	558.58
779.175	632.31
779.357	611.83
779.539	620.02
779.721	574.97
779.903	615.93
780.085	566.78
780.267	568.82
780.449	632.31
780.631	646.65
780.812	587.26
780.994	642.55
781.176	646.65
781.358	542.2
781.54	581.11
781.721	568.82
781.903	574.97
782.085	558.58
782.267	540.15
782.448	599.54
782.63	548.34
782.812	589.3
782.993	447.99
783.175	503.29
783.357	394.75
783.538	536.06
783.72	501.24
783.901	462.33
784.083	564.73
784.264	511.48
784.446	491
784.627	411.13
784.809	486.9
784.99	474.62
785.172	476.66
785.353	431.61
785.535	513.53
785.716	396.79
785.897	419.32
786.079	472.57
786.26	468.47
786.441	527.86
786.623	382.46
786.804	454.14
786.985	441.85
787.167	359.93
787.348	456.19
787.529	548.34
787.71	441.85
787.891	388.6
788.073	482.81
788.254	474.62
788.435	429.56
788.616	470.52
788.797	396.79
788.978	404.99
789.159	429.56
789.34	433.66
789.522	341.5
789.703	396.79
789.884	421.37
790.065	419.32
790.246	435.71
790.427	400.89
790.607	470.52
790.788	445.95
790.969	359.93
791.15	325.12
791.331	337.4
791.512	396.79
791.693	376.31
791.874	398.84
792.054	407.03
792.235	302.59
792.416	267.77
792.597	329.21
792.778	366.07
792.958	343.55
793.139	357.88
793.32	366.07
793.5	349.69
793.681	314.88
793.862	378.36
794.042	321.02
794.223	368.12
794.404	286.2
794.584	308.73
794.765	337.4
794.945	241.15
795.126	312.83
795.306	341.5
795.487	333.31
795.667	290.3
795.848	374.27
796.028	351.74
796.209	275.96
796.389	306.68
796.57	245.24
796.75	335.35
796.93	292.35
797.111	212.48
797.291	419.32
797.471	235
797.652	286.2
797.832	210.43
798.012	341.5
798.192	249.34
798.373	245.24
798.553	300.54
798.733	351.74
798.913	290.3
799.093	265.72
799.274	167.42
799.454	314.88
799.634	261.63
799.814	216.57
799.994	255.48
800.174	269.82
800.354	275.96
800.534	282.11
800.714	263.68
800.894	204.28
801.074	187.9
801.254	271.87
801.434	253.44
801.614	200.19
801.794	220.67
801.974	691.7
802.154	245.24
802.334	202.24
802.514	222.72
802.693	261.63
802.873	226.81
803.053	218.62
803.233	173.57
803.413	298.49
803.592	173.57
803.772	163.33
803.952	239.1
804.131	196.09
804.311	194.05
804.491	216.57
804.67	226.81
804.85	224.76
805.03	183.81
805.209	108.03
805.389	226.81
805.568	278.01
805.748	179.71
805.928	228.86
806.107	232.96
806.287	189.95
806.466	194.05
806.646	183.81
806.825	167.42
807.004	200.19
807.184	192
807.363	316.92
807.543	153.09
807.722	202.24
807.901	271.87
808.081	224.76
808.26	165.37
808.439	239.1
808.619	161.28
808.798	235
808.977	167.42
809.156	218.62
809.336	202.24
809.515	192
809.694	179.71
809.873	183.81
810.052	185.85
810.231	249.34
810.411	165.37
810.59	220.67
810.769	189.95
810.948	124.41
811.127	97.79
811.306	185.85
811.485	194.05
811.664	202.24
811.843	140.8
812.022	173.57
812.201	183.81
812.38	194.05
812.559	138.75
812.737	179.71
812.916	183.81
813.095	157.18
813.274	130.56
813.453	220.67
813.632	245.24
813.811	151.04
813.989	144.89
814.168	132.61
814.347	85.5
814.526	167.42
814.704	148.99
814.883	169.47
815.062	134.65
815.24	105.98
815.419	93.69
815.598	124.41
815.776	89.6
815.955	87.55
816.133	159.23
816.312	144.89
816.49	103.93
816.669	120.32
816.847	83.45
817.026	169.47
817.204	175.61
817.383	134.65
817.561	97.79
817.74	153.09
817.918	198.14
818.097	128.51
818.275	208.38
818.453	153.09
818.632	171.52
818.81	95.74
818.988	101.89
819.167	110.08
819.345	216.57
819.523	134.65
819.701	132.61
819.879	138.75
820.058	124.41
820.236	116.22
820.414	179.71
820.592	140.8
820.77	122.37
820.948	136.7
821.127	151.04
821.305	159.23
821.483	130.56
821.661	216.57
821.839	118.27
822.017	142.85
822.195	142.85
822.373	140.8
822.551	175.61
822.729	167.42
822.907	155.13
823.085	138.75
823.262	112.13
823.44	83.45
823.618	89.6
823.796	83.45
823.974	101.89
824.152	89.6
824.329	165.37
824.507	62.98
824.685	99.84
824.863	99.84
825.04	122.37
825.218	130.56
825.396	132.61
825.574	97.79
825.751	91.65
825.929	95.74
826.107	52.74
826.284	79.36
826.462	173.57
826.639	101.89
826.817	46.59
826.994	85.5
827.172	99.84
827.349	122.37
827.527	46.59
827.704	110.08
827.882	198.14
828.059	38.4
828.237	58.88
828.414	112.13
828.591	75.26
828.769	79.36
828.946	93.69
829.124	110.08
829.301	77.31
829.478	159.23
829.655	87.55
829.833	118.27
830.01	89.6
830.187	116.22
830.364	128.51
830.542	58.88
830.719	138.75
830.896	126.46
831.073	155.13
831.25	118.27
831.427	50.69
831.604	65.02
831.782	58.88
831.959	-0.51
832.136	48.64
832.313	87.55
832.49	38.4
832.667	112.13
832.844	87.55
833.021	134.65
833.198	58.88
833.374	99.84
833.551	67.07
833.728	187.9
833.905	122.37
834.082	62.98
834.259	79.36
834.436	60.93
834.612	54.78
834.789	75.26
834.966	103.93
835.143	13.82
835.319	77.31
835.496	81.41
835.673	91.65
835.85	163.33
836.026	163.33
836.203	54.78
836.38	46.59
836.556	9.73
836.733	73.21
836.909	69.12
837.086	30.21
837.262	67.07
837.439	155.13
837.616	103.93
837.792	122.37
837.968	126.46
838.145	62.98
838.321	87.55
838.498	118.27
838.674	50.69
838.851	73.21
839.027	26.11
839.203	151.04
839.38	124.41
839.556	134.65
839.732	52.74
839.909	116.22
840.085	108.03
840.261	89.6
840.437	95.74
840.614	85.5
840.79	46.59
840.966	71.17
841.142	93.69
841.318	99.84
841.494	54.78
841.671	-16.9
841.847	95.74
842.023	56.83
842.199	24.06
842.375	54.78
842.551	58.88
842.727	62.98
842.903	83.45
843.079	73.21
843.255	32.26
843.431	112.13
843.607	69.12
843.783	42.5
843.959	99.84
844.134	46.59
844.31	32.26
844.486	65.02
844.662	32.26
844.838	73.21
845.013	28.16
845.189	62.98
845.365	101.89
845.541	-10.75
845.716	60.93
845.892	26.11
846.068	85.5
846.244	15.87
846.419	1.54
846.595	-2.56
846.77	11.78
846.946	52.74
847.122	-16.9
847.297	17.92
847.473	114.17
847.648	46.59
847.824	19.97
847.999	34.3
848.175	44.54
848.35	42.5
848.526	75.26
848.701	99.84
848.876	62.98
849.052	75.26
849.227	-2.56
849.403	62.98
849.578	60.93
849.753	22.02
849.929	83.45
850.104	-31.23
850.279	60.93
850.454	-33.28
850.63	22.02
850.805	-25.09
850.98	81.41
851.155	118.27
851.33	81.41
851.505	-6.66
851.681	7.68
851.856	44.54
852.031	42.5
852.206	5.63
852.381	40.45
852.556	103.93
852.731	75.26
852.906	42.5
853.081	15.87
853.256	108.03
853.431	87.55
853.606	-41.47
853.781	65.02
853.956	26.11
854.131	54.78
854.305	60.93
854.48	11.78
854.655	54.78
854.83	40.45
855.005	42.5
855.18	134.65
855.354	62.98
855.529	71.17
855.704	81.41
855.879	77.31
856.053	30.21
856.228	26.11
856.403	108.03
856.577	56.83
856.752	40.45
856.926	50.69
857.101	-18.94
857.276	24.06
857.45	-25.09
857.625	69.12
857.799	40.45
857.974	60.93
858.148	38.4
858.323	30.21
858.497	-47.62
858.672	60.93
858.846	-47.62
859.02	40.45
859.195	13.82
859.369	73.21
859.543	69.12
859.718	3.58
859.892	79.36
860.066	83.45
860.241	19.97
860.415	67.07
860.589	62.98
860.763	60.93
860.938	11.78
861.112	77.31
861.286	11.78
861.46	83.45
861.634	-4.61
861.808	-51.71
861.982	56.83
862.157	38.4
862.331	17.92
862.505	22.02
862.679	11.78
862.853	52.74
863.027	-10.75
863.201	95.74
863.375	-20.99
863.549	56.83
863.722	58.88
863.896	130.56
864.07	42.5
864.244	38.4
864.418	-27.14
864.592	67.07
864.766	30.21
864.939	83.45
865.113	-61.95
865.287	73.21
865.461	9.73
865.634	62.98
865.808	-20.99
865.982	30.21
866.156	42.5
866.329	40.45
866.503	19.97
866.676	30.21
866.85	9.73
867.024	60.93
867.197	-6.66
867.371	46.59
867.544	-12.8
867.718	11.78
867.891	89.6
868.065	-4.61
868.238	-12.8
868.412	85.5
868.585	-8.7
868.759	30.21
868.932	15.87
869.105	-16.9
869.279	-14.85
869.452	40.45
869.625	22.02
869.799	38.4
869.972	5.63
870.145	-25.09
870.319	-16.9
870.492	1.54
870.665	-27.14
870.838	-23.04
871.011	30.21
871.185	7.68
871.358	32.26
871.531	34.3
871.704	-12.8
871.877	9.73
872.05	79.36
872.223	5.63
872.396	24.06
872.569	44.54
872.742	30.21
872.915	-6.66
873.088	44.54
873.261	54.78
873.434	17.92
873.607	28.16
873.78	114.17
873.953	44.54
874.126	38.4
874.299	46.59
874.471	95.74
874.644	-25.09
874.817	110.08
874.99	58.88
875.163	87.55
875.335	-12.8
875.508	62.98
875.681	38.4
875.853	-31.23
876.026	13.82
876.199	114.17
876.371	22.02
876.544	75.26
876.717	36.35
876.889	38.4
877.062	36.35
877.234	-59.9
877.407	50.69
877.579	-10.75
877.752	24.06
877.924	-8.7
878.097	11.78
878.269	34.3
878.442	77.31
878.614	95.74
878.786	32.26
878.959	56.83
879.131	44.54
879.303	-74.24
879.476	-25.09
879.648	17.92
879.82	-6.66
879.993	11.78
880.165	-2.56
880.337	-35.33
880.509	5.63
880.681	13.82
880.854	56.83
881.026	15.87
881.198	19.97
881.37	34.3
881.542	44.54
881.714	40.45
881.886	-16.9
882.058	3.58
882.23	54.78
882.402	26.11
882.574	1.54
882.746	52.74
882.918	36.35
883.09	50.69
883.262	-20.99
883.434	-2.56
883.606	44.54
883.778	42.5
883.95	101.89
884.122	52.74
884.293	-16.9
884.465	50.69
884.637	24.06
884.809	-18.94
884.98	65.02
885.152	69.12
885.324	95.74
885.496	42.5
885.667	-10.75
885.839	-16.9
886.011	7.68
886.182	-8.7
886.354	38.4
886.525	-8.7
886.697	5.63
886.869	-39.42
887.04	38.4
887.212	28.16
887.383	-4.61
887.555	-6.66
887.726	32.26
887.897	32.26
888.069	60.93
888.24	11.78
888.412	32.26
888.583	-18.94
888.754	-2.56
888.926	-39.42
889.097	58.88
889.268	-4.61
889.44	71.17
889.611	-4.61
889.782	-14.85
889.953	-41.47
890.125	103.93
890.296	5.63
890.467	38.4
890.638	22.02
890.809	32.26
890.98	-0.51
891.151	89.6
891.323	62.98
891.494	77.31
891.665	46.59
891.836	17.92
892.007	-37.38
892.178	73.21
892.349	32.26
892.52	24.06
892.691	17.92
892.862	-2.56
893.032	-82.43
893.203	-47.62
893.374	11.78
893.545	-18.94
893.716	40.45
893.887	-66.05
894.057	3.58
894.228	9.73
894.399	-20.99
894.57	24.06
894.74	7.68
894.911	26.11
895.082	-53.76
895.253	-20.99
895.423	3.58
895.594	103.93
895.764	32.26
895.935	-2.56
896.106	-2.56
896.276	11.78
896.447	-25.09
896.617	40.45
896.788	9.73
896.958	7.68
897.129	32.26
897.299	-25.09
897.47	22.02
897.64	-27.14
897.81	13.82
897.981	58.88
898.151	9.73
898.322	24.06
898.492	44.54
898.662	26.11
898.832	24.06
899.003	-6.66
899.173	30.21
899.343	-27.14
899.513	-2.56
