Data from USB4F104151__59__11-52-27-784.txt Node

Date: Fri Mar 14 11:52:27 EDT 2025
User: louis
Spectrometer: USB4F10415
Trigger mode: 4
Integration Time (sec): 2.000000E-2
Scans to average: 1
Electric dark correction enabled: true
Nonlinearity correction enabled: false
Boxcar width: 0
XAxis mode: Wavelengths
Number of Pixels in Spectrum: 3648
>>>>>Begin Spectral Data<<<<<
178.204	-126.63
178.424	-126.63
178.644	-126.63
178.864	-48.81
179.084	-18.09
179.304	-26.28
179.524	-83.63
179.744	-18.09
179.964	39.25
180.184	45.4
180.404	-36.52
180.624	18.77
180.844	47.44
181.064	-30.38
181.283	39.25
181.503	-32.43
181.723	37.2
181.943	-28.33
182.163	67.92
182.383	96.6
182.602	14.68
182.822	45.4
183.042	8.53
183.262	-24.23
183.482	0.34
183.701	31.06
183.921	6.49
184.141	-30.38
184.361	-46.76
184.58	6.49
184.8	8.53
185.02	51.54
185.239	110.93
185.459	-13.99
185.679	26.96
185.898	-30.38
186.118	61.78
186.338	31.06
186.557	8.53
186.777	-9.9
186.997	-13.99
187.216	37.2
187.436	74.07
187.655	26.96
187.875	-38.57
188.095	-5.8
188.314	55.64
188.534	20.82
188.753	29.01
188.973	22.87
189.192	51.54
189.412	6.49
189.631	43.35
189.851	110.93
190.07	41.3
190.29	65.88
190.509	26.96
190.729	59.73
190.948	29.01
191.168	57.68
191.387	53.59
191.607	20.82
191.826	53.59
192.045	129.36
192.265	-1.71
192.484	-28.33
192.704	2.39
192.923	-11.95
193.142	121.17
193.362	45.4
193.581	84.31
193.8	-38.57
194.02	55.64
194.239	-11.95
194.458	37.2
194.678	-13.99
194.897	-32.43
195.116	125.27
195.335	63.83
195.555	53.59
195.774	84.31
195.993	37.2
196.212	26.96
196.432	-13.99
196.651	10.58
196.87	2.39
197.089	45.4
197.308	51.54
197.528	14.68
197.747	26.96
197.966	18.77
198.185	35.16
198.404	63.83
198.623	84.31
198.842	78.16
199.062	51.54
199.281	106.84
199.5	10.58
199.719	6.49
199.938	26.96
200.157	43.35
200.376	51.54
200.595	-3.75
200.814	31.06
201.033	59.73
201.252	6.49
201.471	-73.39
201.69	20.82
201.909	31.06
202.128	78.16
202.347	-13.99
202.566	125.27
202.785	-16.04
203.004	-16.04
203.223	45.4
203.442	-22.19
203.661	35.16
203.879	18.77
204.098	69.97
204.317	67.92
204.536	41.3
204.755	67.92
204.974	80.21
205.193	69.97
205.411	-1.71
205.63	67.92
205.849	57.68
206.068	10.58
206.287	-16.04
206.505	51.54
206.724	10.58
206.943	35.16
207.162	74.07
207.381	117.08
207.599	-3.75
207.818	65.88
208.037	39.25
208.255	45.4
208.474	65.88
208.693	72.02
208.911	12.63
209.13	65.88
209.349	16.73
209.567	37.2
209.786	39.25
210.005	57.68
210.223	53.59
210.442	-16.04
210.661	18.77
210.879	22.87
211.098	80.21
211.316	45.4
211.535	76.12
211.753	67.92
211.972	106.84
212.191	-32.43
212.409	86.36
212.628	74.07
212.846	2.39
213.065	22.87
213.283	6.49
213.502	55.64
213.72	24.92
213.938	6.49
214.157	-22.19
214.375	24.92
214.594	18.77
214.812	61.78
215.031	61.78
215.249	26.96
215.467	53.59
215.686	0.34
215.904	69.97
216.122	-5.8
216.341	90.45
216.559	84.31
216.778	51.54
216.996	53.59
217.214	18.77
217.432	12.63
217.651	-7.85
217.869	-36.52
218.087	-34.47
218.306	94.55
218.524	35.16
218.742	37.2
218.96	31.06
219.179	24.92
219.397	51.54
219.615	100.69
219.833	84.31
220.051	43.35
220.27	86.36
220.488	-7.85
220.706	29.01
220.924	80.21
221.142	-3.75
221.36	-3.75
221.578	-34.47
221.796	22.87
222.015	-3.75
222.233	61.78
222.451	24.92
222.669	41.3
222.887	57.68
223.105	-18.09
223.323	74.07
223.541	-38.57
223.759	72.02
223.977	-16.04
224.195	-16.04
224.413	78.16
224.631	41.3
224.849	-32.43
225.067	22.87
225.285	76.12
225.503	112.98
225.721	-7.85
225.939	59.73
226.157	26.96
226.375	39.25
226.592	31.06
226.81	43.35
227.028	96.6
227.246	29.01
227.464	10.58
227.682	90.45
227.9	20.82
228.117	-5.8
228.335	72.02
228.553	8.53
228.771	37.2
228.989	55.64
229.206	65.88
229.424	-18.09
229.642	84.31
229.86	69.97
230.077	-26.28
230.295	53.59
230.513	47.44
230.731	41.3
230.948	47.44
231.166	82.26
231.384	39.25
231.601	92.5
231.819	65.88
232.037	20.82
232.254	76.12
232.472	39.25
232.689	61.78
232.907	47.44
233.125	72.02
233.342	45.4
233.56	-7.85
233.777	14.68
233.995	-26.28
234.213	57.68
234.43	74.07
234.648	-28.33
234.865	41.3
235.083	20.82
235.3	10.58
235.518	47.44
235.735	16.73
235.953	125.27
236.17	14.68
236.388	4.44
236.605	-3.75
236.822	117.08
237.04	57.68
237.257	67.92
237.475	45.4
237.692	67.92
237.909	16.73
238.127	45.4
238.344	49.49
238.562	26.96
238.779	6.49
238.996	76.12
239.214	-9.9
239.431	125.27
239.648	55.64
239.865	112.98
240.083	16.73
240.3	-75.43
240.517	37.2
240.735	53.59
240.952	47.44
241.169	-42.67
241.386	4.44
241.603	20.82
241.821	-50.86
242.038	90.45
242.255	49.49
242.472	-20.14
242.689	84.31
242.907	-9.9
243.124	26.96
243.341	63.83
243.558	45.4
243.775	31.06
243.992	-5.8
244.209	53.59
244.426	80.21
244.643	37.2
244.86	65.88
245.078	57.68
245.295	-9.9
245.512	-18.09
245.729	49.49
245.946	84.31
246.163	53.59
246.38	76.12
246.597	22.87
246.814	16.73
247.031	2.39
247.248	26.96
247.464	26.96
247.681	69.97
247.898	-79.53
248.115	35.16
248.332	-16.04
248.549	76.12
248.766	106.84
248.983	55.64
249.2	37.2
249.417	41.3
249.633	10.58
249.85	31.06
250.067	41.3
250.284	112.98
250.501	96.6
250.717	29.01
250.934	67.92
251.151	84.31
251.368	37.2
251.585	-7.85
251.801	-61.1
252.018	-26.28
252.235	55.64
252.451	12.63
252.668	-26.28
252.885	20.82
253.102	31.06
253.318	45.4
253.535	57.68
253.752	74.07
253.968	69.97
254.185	74.07
254.401	-16.04
254.618	18.77
254.835	-13.99
255.051	35.16
255.268	92.5
255.484	61.78
255.701	88.4
255.917	88.4
256.134	12.63
256.351	65.88
256.567	-3.75
256.784	16.73
257	-26.28
257.217	16.73
257.433	65.88
257.65	92.5
257.866	45.4
258.082	10.58
258.299	41.3
258.515	41.3
258.732	-32.43
258.948	24.92
259.165	84.31
259.381	-9.9
259.597	43.35
259.814	24.92
260.03	80.21
260.246	90.45
260.463	63.83
260.679	112.98
260.895	69.97
261.112	55.64
261.328	59.73
261.544	39.25
261.761	162.13
261.977	4.44
262.193	-7.85
262.409	31.06
262.626	108.88
262.842	-75.43
263.058	-34.47
263.274	125.27
263.49	80.21
263.707	63.83
263.923	45.4
264.139	22.87
264.355	12.63
264.571	117.08
264.787	65.88
265.004	57.68
265.22	80.21
265.436	67.92
265.652	8.53
265.868	92.5
266.084	61.78
266.3	43.35
266.516	14.68
266.732	72.02
266.948	29.01
267.164	57.68
267.38	-61.1
267.596	18.77
267.812	82.26
268.028	49.49
268.244	-16.04
268.46	20.82
268.676	49.49
268.892	74.07
269.108	16.73
269.324	16.73
269.54	16.73
269.756	69.97
269.972	41.3
270.188	49.49
270.403	35.16
270.619	22.87
270.835	43.35
271.051	35.16
271.267	59.73
271.483	65.88
271.698	43.35
271.914	55.64
272.13	35.16
272.346	6.49
272.562	-24.23
272.777	98.64
272.993	61.78
273.209	39.25
273.425	78.16
273.64	39.25
273.856	22.87
274.072	-9.9
274.287	55.64
274.503	49.49
274.719	39.25
274.934	2.39
275.15	43.35
275.366	98.64
275.581	96.6
275.797	115.03
276.012	18.77
276.228	24.92
276.444	43.35
276.659	49.49
276.875	26.96
277.09	47.44
277.306	22.87
277.521	41.3
277.737	92.5
277.952	69.97
278.168	26.96
278.383	-20.14
278.599	6.49
278.814	59.73
279.03	-28.33
279.245	39.25
279.461	35.16
279.676	112.98
279.892	6.49
280.107	104.79
280.322	18.77
280.538	61.78
280.753	37.2
280.969	0.34
281.184	72.02
281.399	61.78
281.615	16.73
281.83	16.73
282.045	16.73
282.26	80.21
282.476	74.07
282.691	31.06
282.906	-34.47
283.122	104.79
283.337	20.82
283.552	47.44
283.767	-69.29
283.983	94.55
284.198	26.96
284.413	86.36
284.628	-38.57
284.843	61.78
285.058	82.26
285.274	84.31
285.489	65.88
285.704	29.01
285.919	61.78
286.134	47.44
286.349	37.2
286.564	53.59
286.779	55.64
286.995	45.4
287.21	33.11
287.425	82.26
287.64	-38.57
287.855	67.92
288.07	-11.95
288.285	2.39
288.5	41.3
288.715	6.49
288.93	31.06
289.145	69.97
289.36	26.96
289.575	63.83
289.79	-26.28
290.004	-34.47
290.219	94.55
290.434	53.59
290.649	-18.09
290.864	55.64
291.079	12.63
291.294	29.01
291.509	-71.34
291.724	4.44
291.938	57.68
292.153	76.12
292.368	18.77
292.583	106.84
292.798	63.83
293.012	26.96
293.227	61.78
293.442	90.45
293.657	63.83
293.871	69.97
294.086	-22.19
294.301	37.2
294.516	53.59
294.73	-44.71
294.945	16.73
295.16	4.44
295.374	53.59
295.589	100.69
295.804	49.49
296.018	41.3
296.233	92.5
296.447	51.54
296.662	-16.04
296.877	18.77
297.091	35.16
297.306	96.6
297.52	39.25
297.735	10.58
297.949	115.03
298.164	98.64
298.378	117.08
298.593	-73.39
298.807	-3.75
299.022	55.64
299.236	67.92
299.451	18.77
299.665	-26.28
299.88	4.44
300.094	-18.09
300.309	90.45
300.523	67.92
300.737	45.4
300.952	49.49
301.166	33.11
301.381	20.82
301.595	63.83
301.809	26.96
302.024	88.4
302.238	24.92
302.452	100.69
302.667	63.83
302.881	-1.71
303.095	51.54
303.309	53.59
303.524	35.16
303.738	51.54
303.952	31.06
304.166	24.92
304.381	-50.86
304.595	45.4
304.809	53.59
305.023	47.44
305.237	53.59
305.452	33.11
305.666	24.92
305.88	100.69
306.094	57.68
306.308	63.83
306.522	35.16
306.736	0.34
306.95	104.79
307.164	45.4
307.379	-48.81
307.593	135.51
307.807	137.56
308.021	80.21
308.235	24.92
308.449	47.44
308.663	57.68
308.877	72.02
309.091	61.78
309.305	88.4
309.519	12.63
309.733	96.6
309.947	-18.09
310.161	12.63
310.374	39.25
310.588	37.2
310.802	31.06
311.016	-5.8
311.23	92.5
311.444	57.68
311.658	82.26
311.872	141.65
312.085	35.16
312.299	49.49
312.513	4.44
312.727	82.26
312.941	94.55
313.154	51.54
313.368	80.21
313.582	-20.14
313.796	55.64
314.009	74.07
314.223	59.73
314.437	59.73
314.651	22.87
314.864	45.4
315.078	51.54
315.292	4.44
315.505	49.49
315.719	106.84
315.933	53.59
316.146	51.54
316.36	18.77
316.573	57.68
316.787	33.11
317.001	74.07
317.214	-46.76
317.428	22.87
317.641	-34.47
317.855	-3.75
318.068	65.88
318.282	90.45
318.495	63.83
318.709	61.78
318.922	18.77
319.136	108.88
319.349	14.68
319.563	-24.23
319.776	6.49
319.99	2.39
320.203	59.73
320.417	90.45
320.63	43.35
320.843	2.39
321.057	84.31
321.27	67.92
321.483	33.11
321.697	119.12
321.91	24.92
322.124	-7.85
322.337	160.08
322.55	12.63
322.763	39.25
322.977	18.77
323.19	37.2
323.403	41.3
323.617	51.54
323.83	78.16
324.043	39.25
324.256	67.92
324.469	8.53
324.683	135.51
324.896	53.59
325.109	92.5
325.322	45.4
325.535	51.54
325.748	80.21
325.962	74.07
326.175	90.45
326.388	102.74
326.601	26.96
326.814	78.16
327.027	63.83
327.24	53.59
327.453	39.25
327.666	61.78
327.879	63.83
328.092	22.87
328.305	41.3
328.518	31.06
328.731	10.58
328.944	59.73
329.157	51.54
329.37	4.44
329.583	47.44
329.796	59.73
330.009	8.53
330.222	18.77
330.435	39.25
330.648	20.82
330.861	31.06
331.073	92.5
331.286	112.98
331.499	61.78
331.712	-36.52
331.925	43.35
332.138	22.87
332.35	76.12
332.563	115.03
332.776	51.54
332.989	39.25
333.202	131.41
333.414	37.2
333.627	18.77
333.84	-1.71
334.053	26.96
334.265	63.83
334.478	88.4
334.691	-26.28
334.903	33.11
335.116	43.35
335.329	47.44
335.541	35.16
335.754	12.63
335.966	6.49
336.179	14.68
336.392	14.68
336.604	43.35
336.817	43.35
337.029	131.41
337.242	4.44
337.454	65.88
337.667	57.68
337.88	88.4
338.092	20.82
338.305	59.73
338.517	10.58
338.729	80.21
338.942	106.84
339.154	49.49
339.367	45.4
339.579	74.07
339.792	117.08
340.004	63.83
340.217	51.54
340.429	61.78
340.641	-1.71
340.854	-22.19
341.066	45.4
341.278	72.02
341.491	76.12
341.703	110.93
341.915	18.77
342.128	41.3
342.34	4.44
342.552	24.92
342.764	100.69
342.977	39.25
343.189	123.22
343.401	72.02
343.613	69.97
343.826	151.89
344.038	-22.19
344.25	98.64
344.462	-22.19
344.674	-16.04
344.886	121.17
345.099	49.49
345.311	63.83
345.523	94.55
345.735	37.2
345.947	18.77
346.159	49.49
346.371	110.93
346.583	100.69
346.795	88.4
347.007	10.58
347.219	37.2
347.431	22.87
347.643	67.92
347.855	74.07
348.067	90.45
348.279	20.82
348.491	39.25
348.703	18.77
348.915	123.22
349.127	57.68
349.339	39.25
349.551	43.35
349.763	102.74
349.975	-3.75
350.187	100.69
350.399	-5.8
350.61	59.73
350.822	78.16
351.034	106.84
351.246	24.92
351.458	86.36
351.669	74.07
351.881	84.31
352.093	125.27
352.305	100.69
352.517	65.88
352.728	45.4
352.94	22.87
353.152	-38.57
353.363	90.45
353.575	14.68
353.787	57.68
353.999	4.44
354.21	18.77
354.422	31.06
354.633	67.92
354.845	-5.8
355.057	76.12
355.268	90.45
355.48	90.45
355.692	16.73
355.903	2.39
356.115	59.73
356.326	-44.71
356.538	135.51
356.749	18.77
356.961	2.39
357.172	96.6
357.384	-13.99
357.595	96.6
357.807	80.21
358.018	47.44
358.23	57.68
358.441	102.74
358.653	88.4
358.864	-24.23
359.075	-30.38
359.287	76.12
359.498	125.27
359.709	35.16
359.921	59.73
360.132	88.4
360.344	6.49
360.555	96.6
360.766	147.8
360.977	-34.47
361.189	153.94
361.4	49.49
361.611	20.82
361.823	117.08
362.034	31.06
362.245	45.4
362.456	80.21
362.667	26.96
362.879	37.2
363.09	12.63
363.301	102.74
363.512	14.68
363.723	80.21
363.935	8.53
364.146	115.03
364.357	96.6
364.568	80.21
364.779	-48.81
364.99	74.07
365.201	98.64
365.412	160.08
365.623	-9.9
365.834	84.31
366.045	29.01
366.256	35.16
366.467	57.68
366.678	84.31
366.889	129.36
367.1	63.83
367.311	-3.75
367.522	63.83
367.733	4.44
367.944	20.82
368.155	-1.71
368.366	57.68
368.577	45.4
368.788	61.78
368.999	41.3
369.209	80.21
369.42	125.27
369.631	92.5
369.842	8.53
370.053	127.32
370.264	14.68
370.474	41.3
370.685	149.84
370.896	14.68
371.107	41.3
371.317	31.06
371.528	106.84
371.739	51.54
371.95	10.58
372.16	51.54
372.371	49.49
372.582	53.59
372.792	-16.04
373.003	4.44
373.214	37.2
373.424	18.77
373.635	59.73
373.846	174.42
374.056	112.98
374.267	88.4
374.477	78.16
374.688	31.06
374.898	88.4
375.109	102.74
375.319	6.49
375.53	14.68
375.74	39.25
375.951	41.3
376.161	94.55
376.372	100.69
376.582	67.92
376.793	63.83
377.003	41.3
377.214	49.49
377.424	108.88
377.635	31.06
377.845	80.21
378.055	119.12
378.266	104.79
378.476	29.01
378.686	82.26
378.897	53.59
379.107	90.45
379.317	119.12
379.528	41.3
379.738	135.51
379.948	59.73
380.158	119.12
380.369	160.08
380.579	39.25
380.789	18.77
380.999	78.16
381.21	96.6
381.42	104.79
381.63	14.68
381.84	80.21
382.05	104.79
382.261	74.07
382.471	43.35
382.681	37.2
382.891	37.2
383.101	31.06
383.311	45.4
383.521	22.87
383.731	51.54
383.941	102.74
384.151	49.49
384.361	63.83
384.571	14.68
384.781	147.8
384.991	119.12
385.201	84.31
385.411	74.07
385.621	94.55
385.831	90.45
386.041	39.25
386.251	12.63
386.461	57.68
386.671	63.83
386.881	41.3
387.091	6.49
387.301	106.84
387.511	53.59
387.72	57.68
387.93	63.83
388.14	26.96
388.35	31.06
388.56	86.36
388.769	131.41
388.979	76.12
389.189	94.55
389.399	16.73
389.609	41.3
389.818	65.88
390.028	51.54
390.238	80.21
390.447	22.87
390.657	53.59
390.867	51.54
391.076	63.83
391.286	57.68
391.496	86.36
391.705	35.16
391.915	-11.95
392.125	0.34
392.334	61.78
392.544	151.89
392.753	112.98
392.963	14.68
393.172	76.12
393.382	0.34
393.591	145.75
393.801	55.64
394.01	74.07
394.22	80.21
394.429	31.06
394.639	72.02
394.848	96.6
395.058	37.2
395.267	149.84
395.477	43.35
395.686	84.31
395.895	63.83
396.105	160.08
396.314	108.88
396.524	96.6
396.733	135.51
396.942	172.37
397.152	59.73
397.361	100.69
397.57	104.79
397.78	119.12
397.989	65.88
398.198	145.75
398.407	170.32
398.617	67.92
398.826	63.83
399.035	121.17
399.244	127.32
399.453	59.73
399.663	137.56
399.872	135.51
400.081	158.03
400.29	135.51
400.499	76.12
400.708	188.75
400.917	119.12
401.127	92.5
401.336	127.32
401.545	119.12
401.754	192.85
401.963	160.08
402.172	112.98
402.381	153.94
402.59	104.79
402.799	115.03
403.008	131.41
403.217	141.65
403.426	72.02
403.635	100.69
403.844	96.6
404.053	174.42
404.262	49.49
404.471	186.71
404.68	121.17
404.888	61.78
405.097	119.12
405.306	133.46
405.515	143.7
405.724	209.23
405.933	190.8
406.142	121.17
406.35	153.94
406.559	205.14
406.768	170.32
406.977	213.33
407.185	153.94
407.394	178.51
407.603	186.71
407.812	225.62
408.02	235.86
408.229	110.93
408.438	147.8
408.646	209.23
408.855	254.29
409.064	311.63
409.272	225.62
409.481	272.72
409.69	274.77
409.898	190.8
410.107	311.63
410.315	338.26
410.524	262.48
410.733	303.44
410.941	301.39
411.15	334.16
411.358	237.91
411.567	375.12
411.775	409.94
411.984	381.26
412.192	395.6
412.401	448.85
412.609	481.61
412.818	440.65
413.026	549.2
413.234	450.89
413.443	467.28
413.651	475.47
413.86	485.71
414.068	592.2
414.276	559.44
414.485	541.01
414.693	493.9
414.901	631.12
415.11	653.64
415.318	588.11
415.526	721.23
415.734	717.13
415.943	612.68
416.151	745.8
416.359	702.79
416.567	725.32
416.776	805.19
416.984	883.02
417.192	966.98
417.4	885.06
417.608	860.49
417.817	1001.8
418.025	1018.18
418.233	983.37
418.441	1069.38
418.649	1093.96
418.857	1065.29
419.065	1159.49
419.273	1120.58
419.481	1259.84
419.689	1319.23
419.897	1349.95
420.105	1368.38
420.313	1478.97
420.521	1364.29
420.729	1601.85
420.937	1485.12
421.145	1554.75
421.353	1622.33
421.561	1775.93
421.769	1820.99
421.977	1765.69
422.185	1802.55
422.393	1917.24
422.601	2105.65
422.809	2076.98
423.017	2048.31
423.224	2234.68
423.432	2232.63
423.64	2230.58
423.848	2466.1
424.056	2361.65
424.263	2513.2
424.471	2627.89
424.679	2494.77
424.887	2722.09
425.094	2898.22
425.302	2847.02
425.51	3000.62
425.718	3057.96
425.925	2926.89
426.133	3248.42
426.341	3348.77
426.548	3436.83
426.756	3512.61
426.964	3580.19
427.171	3854.62
427.379	3793.18
427.586	4040.98
427.794	4090.13
428.001	4247.83
428.209	4430.1
428.417	4444.43
428.624	4661.52
428.832	4698.38
429.039	4610.32
429.247	4692.24
429.454	5110.02
429.662	5368.07
429.869	4993.29
430.076	5304.58
430.284	5386.5
430.491	5505.28
430.699	5785.85
430.906	5675.26
431.114	5964.03
431.321	6142.2
431.528	6291.7
431.736	6553.84
431.943	6699.25
432.15	6742.25
432.358	6813.93
432.565	7151.85
432.772	7086.31
432.979	7569.63
433.187	7487.72
433.394	7577.83
433.601	8122.59
433.808	8212.7
434.016	8321.24
434.223	8689.87
434.43	9162.95
434.637	8870.09
434.844	9507.01
435.052	9474.24
435.259	9613.51
435.466	9605.31
435.673	9523.4
435.88	10221.75
436.087	10588.34
436.294	10629.3
436.501	10260.66
436.708	10703.03
436.915	11065.52
437.122	11440.29
437.329	11501.73
437.537	11833.5
437.743	12099.74
437.95	11911.33
438.157	12345.5
438.364	12978.32
438.571	12779.67
438.778	12949.65
438.985	14397.56
439.192	13580.42
439.399	14252.16
439.606	13891.71
439.813	14456.95
440.02	15628.39
440.227	15202.41
440.433	15106.16
440.64	15337.58
440.847	15353.96
441.054	15923.3
441.261	16914.52
441.467	16466.01
441.674	16939.09
441.881	17715.27
442.088	17598.54
442.294	17332.3
442.501	17893.44
442.708	18063.43
442.914	18884.66
443.121	19976.23
443.328	19220.53
443.534	20465.69
443.741	19894.31
443.948	19810.34
444.154	21112.85
444.361	20924.44
444.568	21000.21
444.774	21268.5
444.981	21450.77
445.187	21889.03
445.394	22609.92
445.6	22990.84
445.807	24803.29
446.013	23859.18
446.22	24424.42
446.426	25130.97
446.633	25325.52
446.839	26337.22
447.046	25014.23
447.252	26601.41
447.459	26820.54
447.665	26380.23
447.871	27322.29
448.078	28751.77
448.284	27326.39
448.491	28080.04
448.697	29548.43
448.903	29894.54
449.11	29708.18
449.316	29431.7
449.522	29908.88
449.728	30832.51
449.935	30713.73
450.141	30814.08
450.347	31616.88
450.553	30472.07
450.76	31303.54
450.966	32243.56
451.172	31575.92
451.378	32421.73
451.584	31551.35
451.791	32716.64
451.997	32505.7
452.203	33019.74
452.409	33179.48
452.615	32608.1
452.821	31797.1
453.027	31481.72
453.233	32880.48
453.44	31991.66
453.646	32094.06
453.852	32280.42
454.058	32980.83
454.264	31704.95
454.47	32073.58
454.676	31551.35
454.882	32724.83
455.088	29876.11
455.294	30414.73
455.5	30988.16
455.705	31215.48
455.911	29616.02
456.117	29237.14
456.323	28985.24
456.529	27695.02
456.735	28311.46
456.941	27922.35
457.147	27320.24
457.352	26431.43
457.558	26357.7
457.764	26537.92
457.97	25831.37
458.176	25325.52
458.381	25554.9
458.587	23990.25
458.793	24338.4
458.999	22824.95
459.204	24270.82
459.41	23527.41
459.616	22255.62
459.821	22345.73
460.027	22077.44
460.233	21721.1
460.438	20625.43
460.644	20592.67
460.85	20076.58
461.055	19509.29
461.261	19415.09
461.466	17776.71
461.672	17608.78
461.878	18745.4
462.083	17750.09
462.289	17193.04
462.494	17035.35
462.7	16277.6
462.905	15876.2
463.111	16386.14
463.316	16406.62
463.522	15972.45
463.727	16097.38
463.932	15820.9
464.138	15939.68
464.343	15855.72
464.549	15429.74
464.754	16050.27
464.959	15689.83
465.165	15706.21
465.37	14981.23
465.575	14622.84
465.781	15325.29
465.986	15343.72
466.191	15032.43
466.397	14624.89
466.602	13807.75
466.807	14485.62
467.012	14504.06
467.218	14239.87
467.423	14377.08
467.628	14243.96
467.833	14821.49
468.038	14162.05
468.244	13932.67
468.449	14459
468.654	13643.91
468.859	13779.08
469.064	13920.38
469.269	13209.74
469.474	13426.82
469.679	13699.2
469.885	13133.96
470.09	13179.02
470.295	13381.77
470.5	12892.3
470.705	12994.7
470.91	12599.45
471.115	12470.42
471.32	12871.82
471.525	12617.88
471.73	12368.02
471.935	12349.59
472.139	11903.14
472.344	12013.73
472.549	11958.43
472.754	12079.26
472.959	11477.16
473.164	11446.44
473.369	11434.15
473.574	11645.09
473.778	11497.64
473.983	11331.75
474.188	11235.5
474.393	10827.95
474.598	10864.82
474.802	10664.11
475.007	10776.75
475.212	10735.79
475.417	10318.01
475.621	10389.69
475.826	10328.25
476.031	10141.88
476.235	9836.74
476.44	10324.15
476.645	9969.85
476.849	9863.36
477.054	9867.45
477.259	9812.16
477.463	9853.12
477.668	9289.93
477.872	9406.66
478.077	9476.29
478.282	9029.84
478.486	9121.99
478.691	9083.08
478.895	8972.49
479.1	8921.29
479.304	9021.64
479.509	8704.21
479.713	9033.93
479.918	8788.18
480.122	8706.26
480.326	8720.59
480.531	8612.05
480.735	8775.89
480.94	8472.79
481.144	8730.83
481.348	8282.33
481.553	8579.28
481.757	8196.31
481.961	8333.53
482.166	8603.86
482.37	8493.27
482.574	8308.95
482.778	8249.56
482.983	8474.84
483.187	8323.29
483.391	8270.04
483.595	8087.77
483.8	8470.74
484.004	8296.66
484.208	8413.4
484.412	8280.28
484.616	8149.21
484.821	8192.22
485.025	8161.5
485.229	8337.62
485.433	8251.61
485.637	8278.23
485.841	8351.96
486.045	8253.66
486.249	8181.98
486.453	8147.16
486.657	8274.14
486.861	8241.37
487.065	8141.02
487.269	8274.14
487.473	8263.9
487.677	8554.71
487.881	8509.65
488.085	8282.33
488.289	8302.81
488.493	8315.09
488.697	8511.7
488.901	8368.34
489.105	8251.61
489.309	8405.21
489.512	8376.53
489.716	8378.58
489.92	8526.04
490.124	8351.96
490.328	8546.51
490.531	8593.62
490.735	8622.29
490.939	8466.64
491.143	8601.81
491.346	8650.96
491.55	8716.5
491.754	8571.09
491.958	8679.63
492.161	8755.41
492.365	8745.17
492.569	8702.16
492.772	8765.65
492.976	8849.61
493.18	9064.65
493.383	9058.51
493.587	8988.88
493.79	8997.07
493.994	8775.89
494.197	9048.27
494.401	9355.46
494.605	9326.79
494.808	9433.29
495.012	9384.13
495.215	9392.33
495.419	9533.64
495.622	9535.68
495.825	9625.79
496.029	9734.34
496.232	9820.35
496.436	9818.3
496.639	9889.98
496.843	10025.15
497.046	10260.66
497.249	10244.28
497.453	10266.81
497.656	10369.21
497.859	10375.35
498.063	10592.44
498.266	10641.59
498.469	10817.71
498.673	10899.63
498.876	10805.42
499.079	10995.89
499.282	11251.88
499.485	11565.22
499.689	11499.69
499.892	11708.58
500.095	11507.88
500.298	11942.05
500.501	11980.96
500.705	12013.73
500.908	12118.17
501.111	12337.31
501.314	12486.81
501.517	12476.57
501.72	12841.11
501.923	12617.88
502.126	12974.22
502.329	13185.16
502.532	13363.34
502.735	13293.71
502.938	13691.01
503.141	13682.82
503.344	13990.02
503.547	14215.29
503.75	14071.93
503.953	14166.14
504.156	14422.14
504.359	14708.85
504.562	14481.53
504.765	14979.18
504.968	15044.72
505.17	15296.62
505.373	15235.18
505.576	15558.76
505.779	15835.24
505.982	15732.84
506.185	16167.01
506.387	16119.9
506.59	16291.93
506.793	16427.1
506.996	16597.08
507.198	16947.28
507.401	16955.47
507.604	17047.63
507.807	17389.64
508.009	17596.49
508.212	17653.83
508.415	17852.48
508.617	17813.57
508.82	18049.09
509.022	18128.96
509.225	18470.97
509.428	19054.64
509.63	19003.44
509.833	18946.1
510.035	19480.62
510.238	19327.02
510.44	19666.99
510.643	19851.3
510.845	20099.11
511.048	19765.29
511.25	20092.96
511.453	20269.09
511.655	21035.03
511.858	20910.1
512.06	21305.36
512.262	21348.37
512.465	21020.69
512.667	21448.72
512.87	21690.38
513.072	21815.3
513.274	21878.79
513.477	22579.2
513.679	22566.91
513.881	22702.07
514.084	22958.07
514.286	23138.29
514.488	23209.97
514.69	23812.07
514.893	23939.05
515.095	23906.28
515.297	24657.89
515.499	24082.41
515.701	24827.87
515.904	25065.43
516.106	25102.29
516.308	25409.49
516.51	25657.29
516.712	25612.24
516.914	26306.5
517.116	26202.05
517.318	26099.66
517.52	26808.25
517.722	26771.39
517.925	27068.34
518.127	27502.51
518.329	27584.43
518.531	27535.28
518.733	28241.83
518.935	28278.69
519.136	27899.82
519.338	28663.71
519.54	28886.94
519.742	28927.9
519.944	29001.63
520.146	29593.49
520.348	29939.6
520.55	29945.74
520.752	30091.15
520.954	30738.3
521.155	30451.59
521.357	31053.69
521.559	31086.46
521.761	31436.66
521.963	31479.67
522.164	31313.78
522.366	31811.44
522.568	32077.68
522.77	32161.64
522.971	32587.62
523.173	32423.78
523.375	32923.49
523.576	32925.53
523.778	32780.13
523.98	33316.7
524.181	33634.13
524.383	33724.24
524.584	33507.16
524.786	34301.77
524.988	34275.15
525.189	34590.53
525.391	34582.34
525.592	34647.88
525.794	35180.35
525.995	34737.99
526.197	35288.89
526.398	35309.37
526.6	35452.73
526.801	35546.93
527.003	35471.16
527.204	35977.01
527.406	35966.77
527.607	36249.39
527.808	36562.73
528.01	35966.77
528.211	35827.51
528.412	36960.03
528.614	36738.85
528.815	36673.32
529.016	36931.36
529.218	36765.48
529.419	37113.63
529.62	36855.59
529.822	37170.97
530.023	36828.96
530.224	37515.03
530.425	37375.77
530.626	37193.5
530.828	37314.33
531.029	37469.98
531.23	37527.32
531.431	37674.77
531.632	37752.6
531.833	37805.84
532.035	37736.21
532.236	38194.96
532.437	37697.3
532.638	38129.42
532.839	38043.41
533.04	38262.54
533.241	37433.11
533.442	38584.07
533.643	38342.41
533.844	38295.31
534.045	38561.54
534.246	37803.8
534.447	38506.25
534.648	38254.35
534.849	38256.4
535.05	37988.11
535.251	38485.77
535.451	38280.97
535.652	38737.67
535.853	38686.47
536.054	38285.07
536.255	38362.89
536.456	38057.74
536.657	38909.7
536.857	38481.67
537.058	38209.29
537.259	38586.12
537.46	38584.07
537.66	38131.47
537.861	38383.37
538.062	38326.03
538.263	38315.79
538.463	38047.5
538.664	38567.69
538.865	38297.36
539.065	38805.25
539.266	38104.85
539.466	38926.08
539.667	37900.05
539.868	38240.01
540.068	38356.75
540.269	38262.54
540.469	38805.25
540.67	38342.41
540.87	38215.44
541.071	38379.28
541.271	38285.07
541.472	38410
541.672	38706.95
541.873	38166.29
542.073	37603.1
542.274	38319.88
542.474	38045.46
542.675	37949.2
542.875	38465.29
543.075	38375.18
543.276	37863.19
543.476	38749.96
543.676	38323.98
543.877	38491.91
544.077	38082.32
544.277	37914.39
544.478	38244.11
544.678	38158.1
544.878	37971.73
545.078	37998.35
545.279	37981.97
545.479	37750.55
545.679	38498.06
545.879	38414.09
546.079	38528.78
546.28	38199.05
546.48	37728.02
546.68	38176.53
546.88	38285.07
547.08	38053.65
547.28	37775.12
547.48	37670.68
547.68	38526.73
547.88	38076.18
548.081	38407.95
548.281	37977.87
548.481	37807.89
548.681	38334.22
548.881	38098.7
549.081	38188.81
549.28	38110.99
549.48	38268.69
549.68	38016.79
549.88	38377.23
550.08	38117.14
550.28	38199.05
550.48	37654.29
550.68	38117.14
550.88	37689.11
551.08	38348.56
551.279	37893.91
551.479	37601.05
551.679	37898
551.879	37928.72
552.079	37846.8
552.278	37687.06
552.478	37830.42
552.678	37811.99
552.878	37973.78
553.077	37783.32
553.277	37420.83
553.477	38115.09
553.676	38016.79
553.876	37705.49
554.076	37359.39
554.275	37457.69
554.475	37279.52
554.674	37580.57
554.874	37506.84
555.074	37267.23
555.273	37474.07
555.473	37838.61
555.672	37033.76
555.872	37478.17
556.071	37390.11
556.271	37459.74
556.47	37285.66
556.67	37179.17
556.869	36986.66
557.068	37285.66
557.268	36949.79
557.467	37189.41
557.667	36996.9
557.866	37078.82
558.065	37031.71
558.265	37119.77
558.464	36691.75
558.663	36753.19
558.863	36419.37
559.062	36790.05
559.261	36419.37
559.461	36874.02
559.66	36144.94
559.859	36595.49
560.058	36263.72
560.258	36114.22
560.457	36228.91
560.656	36482.86
560.855	36306.73
561.054	36456.23
561.253	36003.63
561.453	35862.32
561.652	35929.91
561.851	35940.14
562.05	36198.19
562.249	35856.18
562.448	36192.05
562.647	35749.68
562.846	36005.68
563.045	35876.66
563.244	35110.72
563.443	35895.09
563.642	35442.49
563.841	35766.07
564.04	35499.83
564.239	35684.15
564.438	34983.74
564.637	35579.7
564.836	35286.84
565.035	35022.65
565.234	35026.75
565.432	34647.88
565.631	34584.39
565.83	34840.39
566.029	34639.68
566.228	34488.14
566.427	34430.79
566.625	34269
566.824	34160.46
567.023	34604.87
567.222	33793.87
567.42	34381.64
567.619	33982.29
567.818	33980.24
568.016	34316.11
568.215	34307.91
568.414	33716.05
568.612	34205.52
568.811	33568.6
569.01	33898.32
569.208	33146.72
569.407	33374.04
569.605	33075.04
569.804	33527.64
570.002	33099.61
570.201	33570.65
570.4	33107.8
570.598	32673.63
570.797	32819.04
570.995	32999.26
571.193	32419.69
571.392	32948.06
571.59	32333.67
571.789	32255.85
571.987	32628.58
572.186	32489.32
572.384	32128.88
572.582	32350.06
572.781	32280.42
572.979	32020.33
573.177	32024.43
573.376	32077.68
573.574	31813.49
573.772	31860.59
573.971	31905.65
574.169	31438.71
574.367	31340.41
574.565	31661.94
574.763	31440.76
574.962	31160.19
575.16	31391.61
575.358	31387.51
575.556	30656.39
575.754	31100.79
575.952	30719.87
576.151	31051.64
576.349	30693.25
576.547	30777.22
576.745	30537.6
576.943	30594.95
577.141	30574.47
577.339	30144.39
577.537	30154.63
577.735	30474.12
577.933	30371.72
578.131	30074.76
578.329	29876.11
578.527	29984.65
578.725	30015.37
578.923	29824.91
579.121	29781.9
579.319	29425.56
579.516	29822.86
579.714	29669.26
579.912	29327.25
580.11	29335.45
580.308	29282.2
580.506	29042.59
580.704	28757.92
580.901	29032.35
581.099	29413.27
581.297	28966.81
581.495	28694.43
581.692	28751.77
581.89	28424.1
582.088	28827.55
582.285	28442.53
582.483	28960.67
582.681	28483.49
582.878	28379.04
583.076	27903.92
583.274	28430.24
583.471	27738.03
583.669	28059.56
583.866	27695.02
584.064	27641.78
584.262	27629.49
584.459	27967.4
584.657	27723.69
584.854	27850.67
585.052	27240.37
585.249	27168.69
585.447	27666.35
585.644	27119.54
585.841	27170.74
586.039	27459.51
586.236	26861.5
586.434	26804.16
586.631	26820.54
586.828	26763.2
587.026	27117.5
587.223	26660.8
587.42	26767.29
587.618	26677.18
587.815	26103.75
588.012	26130.37
588.21	26259.4
588.407	26576.83
588.604	26230.73
588.801	25688.01
588.999	26165.19
589.196	25515.98
589.393	25788.36
589.59	25933.77
589.787	25923.53
589.984	25591.76
590.182	25579.47
590.379	25616.33
590.576	25391.06
590.773	25597.9
590.97	24975.32
591.167	25442.26
591.364	25049.05
591.561	25305.04
591.758	25022.42
591.955	24764.38
592.152	25061.33
592.349	24700.89
592.546	25022.42
592.743	24823.77
592.94	24352.74
593.137	24604.64
593.334	24758.24
593.531	23891.94
593.727	24317.92
593.924	24436.7
594.121	24023.01
594.318	24115.17
594.515	23838.7
594.712	24270.82
594.908	23965.67
595.105	24041.45
595.302	23664.62
595.499	23582.7
595.696	23629.8
595.892	23515.12
596.089	23703.53
596.286	23584.75
596.482	23480.3
596.679	23140.34
596.876	23154.68
597.072	23388.14
597.269	23091.19
597.466	22988.79
597.662	22890.49
597.859	22562.81
598.055	23021.56
598.252	22925.3
598.448	23007.22
598.645	22480.89
598.841	22317.06
599.038	22906.87
599.234	22609.92
599.431	22280.19
599.627	22044.68
599.824	22427.65
600.02	22190.08
600.217	22308.86
600.413	21637.13
600.609	21874.7
600.806	21686.28
601.002	21751.82
601.198	21663.75
601.395	21487.63
601.591	21592.08
601.787	21620.75
601.984	21526.54
602.18	21469.2
602.376	21493.77
602.572	21362.7
602.769	21149.71
602.965	21149.71
603.161	21139.47
603.357	20967.45
603.553	21051.41
603.75	21121.04
603.946	20764.7
604.142	20885.53
604.338	20604.95
604.534	20875.29
604.73	20533.28
604.926	20428.83
605.122	20607
605.318	20422.69
605.514	20340.77
605.71	20353.05
605.906	20088.87
606.102	20086.82
606.298	20068.39
606.494	20201.51
606.69	20082.72
606.886	19961.89
607.082	19892.26
607.278	19974.18
607.474	19679.27
607.67	19918.89
607.866	19396.65
608.062	19585.07
608.257	19787.82
608.453	19458.09
608.649	19787.82
608.845	19544.11
609.041	19439.66
609.236	19441.71
609.432	19281.97
609.628	19382.32
609.824	19241.01
610.019	19171.38
610.215	19142.71
610.411	19171.38
610.606	19095.6
610.802	19230.77
610.998	19241.01
611.193	18874.42
611.389	18917.43
611.584	18720.82
611.78	18649.14
611.976	18763.83
612.171	19052.59
612.367	18765.88
612.562	18618.43
612.758	18313.28
612.953	18331.71
613.149	18649.14
613.344	18470.97
613.539	18731.06
613.735	18632.76
613.93	18585.66
614.126	18448.44
614.321	18503.74
614.517	18323.52
614.712	18321.47
614.907	18214.98
615.103	18356.29
615.298	18049.09
615.493	18112.58
615.688	17956.93
615.884	18298.94
616.079	17541.19
616.274	18124.86
616.47	17813.57
616.665	18036.8
616.86	17688.65
617.055	17791.05
617.25	17621.06
617.445	17846.34
617.641	17367.12
617.836	17813.57
618.031	17446.99
618.226	17662.02
618.421	17655.88
618.616	17631.3
618.811	17342.54
619.006	17668.17
619.201	17045.59
619.396	17236.05
619.591	17080.4
619.786	17047.63
619.981	16937.04
620.176	17205.33
620.371	16736.34
620.566	16656.47
620.761	16588.89
620.956	16998.48
621.151	16523.35
621.346	16402.52
621.541	16414.81
621.735	16533.59
621.93	16136.29
622.125	16205.92
622.32	15954.02
622.515	16056.42
622.709	16013.41
622.904	16015.46
623.099	15822.95
623.294	15695.97
623.488	15503.46
623.683	15732.84
623.878	15345.77
624.072	15444.07
624.267	15388.78
624.462	15321.2
624.656	15001.71
624.851	15245.42
625.046	14915.7
625.24	14934.13
625.435	14776.44
625.629	14706.8
625.824	14585.97
626.018	14663.8
626.213	14403.71
626.407	14536.82
626.602	14141.57
626.796	14442.62
626.991	14213.24
627.185	14178.43
627.38	14153.85
627.574	14080.13
627.768	13891.71
627.963	13711.49
628.157	13940.86
628.352	13609.09
628.546	13510.79
628.74	13564.04
628.935	13392.01
629.129	13572.23
629.323	13170.83
629.517	13326.47
629.712	13285.51
629.906	13004.94
630.1	12861.59
630.294	12980.37
630.489	12841.11
630.683	12978.32
630.877	12564.63
631.071	12660.88
631.265	12834.96
631.459	12796.05
631.653	12712.08
631.848	12609.68
632.042	12521.62
632.236	12437.66
632.43	12066.97
632.624	12378.26
632.818	12312.73
633.012	12120.22
633.206	11894.94
633.4	12138.65
633.594	11837.6
633.788	11903.14
633.982	11892.9
634.176	11833.5
634.369	11563.17
634.563	11839.65
634.757	11608.23
634.951	11593.89
635.145	11579.56
635.339	11649.19
635.533	11311.27
635.726	11307.18
635.92	11301.03
636.114	11419.82
636.308	10860.72
636.501	11077.8
636.695	10836.14
636.889	10989.74
637.083	10840.24
637.276	10918.06
637.47	10713.27
637.664	10805.42
637.857	10623.16
638.051	10428.6
638.244	10490.04
638.438	10485.94
638.632	10434.74
638.825	10188.99
639.019	10514.61
639.212	10168.51
639.406	10229.95
639.599	10213.56
639.793	10297.53
639.986	9971.9
640.18	10098.88
640.373	10035.39
640.567	9879.74
640.76	9916.61
640.954	9681.09
641.147	9568.45
641.34	9656.51
641.534	9636.03
641.727	9578.69
641.92	9638.08
642.114	9429.19
642.307	9423.05
642.5	9384.13
642.694	9453.77
642.887	9136.33
643.08	9373.89
643.273	9316.55
643.467	9320.65
643.66	9154.76
643.853	8974.54
644.046	9023.69
644.239	8988.88
644.432	8954.06
644.626	8939.72
644.819	8900.81
645.012	9038.03
645.205	8648.91
645.398	8683.73
645.591	8560.85
645.784	8579.28
645.977	8378.58
646.17	8599.76
646.363	8618.19
646.556	8302.81
646.749	8329.43
646.942	8575.19
647.135	8282.33
647.328	8253.66
647.521	8155.35
647.714	8048.86
647.907	8161.5
648.099	8005.85
648.292	8196.31
648.485	7985.37
648.678	7901.4
648.871	7870.69
649.064	7706.85
649.256	7936.22
649.449	7786.72
649.642	7651.55
649.835	7837.92
650.027	7592.16
650.22	7393.51
650.413	7471.33
650.605	7416.04
650.798	7563.49
650.991	7426.28
651.183	7346.41
651.376	7332.07
651.568	7342.31
651.761	7213.29
651.954	7348.45
652.146	7276.77
652.339	7127.27
652.531	7147.75
652.724	7123.18
652.916	6940.91
653.109	7045.35
653.301	6848.75
653.494	6891.76
653.686	6787.31
653.879	6963.44
654.071	6705.39
654.263	6740.21
654.456	6834.41
654.648	6832.37
654.84	6725.87
655.033	6801.65
655.225	6584.56
655.417	6602.99
655.61	6682.86
655.802	6600.94
655.994	6598.9
656.186	6447.35
656.379	6467.83
656.571	6514.93
656.763	6459.63
656.955	6357.24
657.148	6312.18
657.34	6279.41
657.532	6322.42
657.724	6217.97
657.916	6267.13
658.108	6127.86
658.3	6123.77
658.492	6125.82
658.684	6109.43
658.876	6017.27
659.068	6127.86
659.26	5900.54
659.452	6043.9
659.644	6011.13
659.836	5914.88
660.028	5937.4
660.22	5787.9
660.412	5767.42
660.604	5763.33
660.796	5722.37
660.988	5740.8
661.18	5619.97
661.372	5538.05
661.563	5574.91
661.755	5519.62
661.947	5560.58
662.139	5525.76
662.331	5468.42
662.522	5331.2
662.714	5370.12
662.906	5384.45
663.097	5427.46
663.289	5421.31
663.481	5296.39
663.673	5333.25
663.864	5329.16
664.056	5265.67
664.247	5257.48
664.439	5136.65
664.631	5288.2
664.822	5142.79
665.014	5095.69
665.205	5079.3
665.397	5019.91
665.588	5085.45
665.78	5169.41
665.971	4989.19
666.163	5064.97
666.354	4987.15
666.546	5032.2
666.737	4772.11
666.929	4948.23
667.12	4808.97
667.311	4972.81
667.503	4868.36
667.694	4712.72
667.885	4935.95
668.077	4925.71
668.268	4649.23
668.459	4843.79
668.651	4839.69
668.842	4806.92
669.033	4600.08
669.224	4450.58
669.416	4610.32
669.607	4645.13
669.798	4628.75
669.989	4550.93
670.18	4620.56
670.371	4602.13
670.563	4522.26
670.754	4557.07
670.945	4413.71
671.136	4530.45
671.327	4391.19
671.518	4475.15
671.709	4436.24
671.9	4598.03
672.091	4323.6
672.282	4366.61
672.473	4313.36
672.664	4276.5
672.855	4305.17
673.046	4278.55
673.237	4370.71
673.428	4239.64
673.619	4290.84
673.809	4180.25
674	4137.24
674.191	4225.3
674.382	4215.06
674.573	4083.99
674.764	4137.24
674.954	4215.06
675.145	4090.13
675.336	4086.04
675.527	3940.63
675.717	4038.94
675.908	4124.95
676.099	4077.85
676.289	3981.59
676.48	4106.52
676.671	4047.13
676.861	4149.53
677.052	4098.33
677.243	3938.59
677.433	3922.2
677.624	4149.53
677.814	3844.38
678.005	4079.9
678.195	3830.04
678.386	4014.36
678.576	3975.45
678.767	3997.98
678.957	3975.45
679.148	3864.86
679.338	3930.39
679.529	3694.88
679.719	3967.26
679.909	4006.17
680.1	3854.62
680.29	3928.35
680.481	3823.9
680.671	3848.47
680.861	3838.23
681.052	4026.65
681.242	3873.05
681.432	3766.56
681.622	3793.18
681.813	3756.32
682.003	3694.88
682.193	3803.42
682.383	3856.67
682.573	3821.85
682.764	3713.31
682.954	3750.17
683.144	3694.88
683.334	3664.16
683.524	3660.06
683.714	3584.29
683.904	3645.73
684.094	3688.73
684.284	3682.59
684.474	3633.44
684.664	3584.29
684.854	3608.86
685.044	3649.82
685.234	3539.23
685.424	3729.69
685.614	3559.71
685.804	3352.87
685.994	3496.22
686.184	3547.42
686.374	3488.03
686.564	3485.98
686.753	3485.98
686.943	3416.35
687.133	3445.02
687.323	3502.37
687.513	3412.26
687.702	3504.42
687.892	3471.65
688.082	3365.15
688.272	3430.69
688.461	3377.44
688.651	3348.77
688.841	3275.04
689.03	3289.38
689.22	3311.91
689.41	3295.52
689.599	3250.47
689.789	3365.15
689.979	3295.52
690.168	3289.38
690.358	3264.8
690.547	3170.6
690.737	3182.88
690.926	3186.98
691.116	3103.01
691.305	3105.06
691.495	3078.44
691.684	3137.83
691.874	3141.93
692.063	3275.04
692.252	3004.71
692.442	3146.02
692.631	3066.15
692.82	3021.1
693.01	3115.3
693.199	3031.34
693.388	3037.48
693.578	3025.19
693.767	2941.22
693.956	2998.57
694.146	2937.13
694.335	2877.74
694.524	2904.36
694.713	2945.32
694.902	2924.84
695.092	2994.47
695.281	2881.83
695.47	2978.09
695.659	2818.35
695.848	2945.32
696.037	2896.17
696.226	2947.37
696.415	2707.76
696.604	2908.46
696.793	2801.96
696.982	2832.68
697.171	2947.37
697.36	2973.99
697.549	2718
697.738	2818.35
697.927	2722.09
698.116	2789.67
698.305	2857.26
698.494	2687.28
698.683	2887.98
698.872	2922.79
699.061	2859.31
699.25	2775.34
699.438	2941.22
699.627	2844.97
699.816	2890.03
700.005	2722.09
700.193	2797.87
700.382	2695.47
700.571	2720.04
700.76	2883.88
700.948	2793.77
701.137	2885.93
701.326	2609.45
701.514	2656.56
701.703	2748.72
701.892	2695.47
702.08	2783.53
702.269	2754.86
702.457	2697.52
702.646	2713.9
702.834	2679.08
703.023	2824.49
703.212	2748.72
703.4	2666.8
703.589	2697.52
703.777	2799.91
703.965	2611.5
704.154	2689.32
704.342	2656.56
704.531	2672.94
704.719	2720.04
704.907	2683.18
705.096	2701.61
705.284	2582.83
705.472	2707.76
705.661	2668.84
705.849	2640.17
706.037	2554.16
706.226	2629.93
706.414	2713.9
706.602	2599.21
706.79	2726.19
706.979	2699.56
707.167	2640.17
707.355	2654.51
707.543	2689.32
707.731	2801.96
707.919	2656.56
708.107	2734.38
708.296	2691.37
708.484	2568.49
708.672	2629.93
708.86	2742.57
709.048	2744.62
709.236	2609.45
709.424	2779.43
709.612	2779.43
709.8	2537.77
709.988	2683.18
710.176	2644.27
710.364	2789.67
710.551	2744.62
710.739	2636.08
710.927	2623.79
711.115	2705.71
711.303	2736.43
711.491	2664.75
711.679	2611.5
711.866	2638.13
712.054	2718
712.242	2634.03
712.43	2640.17
712.617	2660.65
712.805	2693.42
712.993	2679.08
713.181	2658.6
713.368	2619.69
713.556	2550.06
713.744	2660.65
713.931	2750.76
714.119	2605.36
714.306	2658.6
714.494	2623.79
714.682	2761
714.869	2648.36
715.057	2599.21
715.244	2740.52
715.432	2677.04
715.619	2625.84
715.807	2713.9
715.994	2642.22
716.182	2670.89
716.369	2783.53
716.556	2718
716.744	2605.36
716.931	2672.94
717.119	2677.04
717.306	2718
717.493	2699.56
717.681	2668.84
717.868	2668.84
718.055	2701.61
718.242	2631.98
718.43	2701.61
718.617	2662.7
718.804	2644.27
718.991	2619.69
719.179	2638.13
719.366	2674.99
719.553	2640.17
719.74	2654.51
719.927	2623.79
720.114	2664.75
720.301	2627.89
720.488	2580.78
720.676	2576.69
720.863	2591.02
721.05	2605.36
721.237	2625.84
721.424	2715.95
721.611	2677.04
721.798	2689.32
721.985	2666.8
722.172	2631.98
722.358	2752.81
722.545	2511.15
722.732	2644.27
722.919	2754.86
723.106	2658.6
723.293	2562.35
723.48	2623.79
723.667	2634.03
723.853	2785.58
724.04	2652.46
724.227	2742.57
724.414	2666.8
724.6	2472.24
724.787	2625.84
724.974	2627.89
725.161	2752.81
725.347	2664.75
725.534	2652.46
725.72	2566.45
725.907	2666.8
726.094	2539.82
726.28	2732.33
726.467	2576.69
726.653	2791.72
726.84	2677.04
727.027	2779.43
727.213	2662.7
727.4	2638.13
727.586	2777.39
727.773	2674.99
727.959	2738.48
728.145	2664.75
728.332	2593.07
728.518	2697.52
728.705	2691.37
728.891	2638.13
729.077	2705.71
729.264	2564.4
729.45	2582.83
729.636	2621.74
729.823	2701.61
730.009	2607.41
730.195	2679.08
730.382	2638.13
730.568	2515.25
730.754	2683.18
730.94	2687.28
731.126	2636.08
731.313	2625.84
731.499	2625.84
731.685	2740.52
731.871	2619.69
732.057	2689.32
732.243	2619.69
732.429	2588.97
732.615	2758.96
732.801	2674.99
732.987	2707.76
733.173	2648.36
733.359	2470.19
733.545	2566.45
733.731	2578.73
733.917	2603.31
734.103	2601.26
734.289	2599.21
734.475	2584.88
734.661	2627.89
734.847	2605.36
735.033	2560.3
735.219	2634.03
735.404	2521.39
735.59	2599.21
735.776	2619.69
735.962	2603.31
736.148	2597.17
736.333	2570.54
736.519	2619.69
736.705	2701.61
736.89	2541.87
737.076	2511.15
737.262	2638.13
737.447	2486.58
737.633	2582.83
737.819	2507.06
738.004	2537.77
738.19	2584.88
738.375	2525.49
738.561	2533.68
738.747	2582.83
738.932	2437.42
739.118	2507.06
739.303	2580.78
739.489	2476.34
739.674	2539.82
739.859	2439.47
740.045	2519.34
740.23	2470.19
740.416	2312.5
740.601	2533.68
740.786	2470.19
740.972	2373.94
741.157	2359.6
741.342	2423.09
741.528	2359.6
741.713	2468.14
741.898	2421.04
742.084	2404.66
742.269	2351.41
742.454	2398.51
742.639	2462
742.824	2328.88
743.01	2320.69
743.195	2390.32
743.38	2304.31
743.565	2210.1
743.75	2414.9
743.935	2343.22
744.12	2281.78
744.305	2228.53
744.49	2281.78
744.675	2294.07
744.86	2234.68
745.045	2339.12
745.23	2238.77
745.415	2195.76
745.6	2251.06
745.785	2249.01
745.97	2066.74
746.155	2150.71
746.34	2206
746.525	2216.24
746.71	2169.14
746.895	2089.27
747.079	2175.28
747.264	2128.18
747.449	2156.85
747.634	2122.04
747.819	2027.83
748.003	2042.17
748.188	2117.94
748.373	2042.17
748.557	1945.91
748.742	1962.3
748.927	1952.06
749.111	2038.07
749.296	2042.17
749.481	1853.75
749.665	1886.52
749.85	2033.97
750.034	1859.9
750.219	1790.27
750.404	1935.67
750.588	1900.86
750.773	1882.42
750.957	2009.4
751.141	1775.93
751.326	1855.8
751.51	1814.84
751.695	1808.7
751.879	1806.65
752.064	1859.9
752.248	1794.36
752.432	1743.16
752.617	1898.81
752.801	1718.59
752.985	1696.06
753.17	1679.68
753.354	1737.02
753.538	1634.62
753.722	1685.82
753.907	1673.53
754.091	1610.04
754.275	1630.52
754.459	1593.66
754.643	1620.28
754.828	1706.3
755.012	1618.24
755.196	1517.89
755.38	1589.57
755.564	1513.79
755.748	1577.28
755.932	1534.27
756.116	1577.28
756.3	1509.69
756.484	1405.25
756.668	1560.89
756.852	1337.66
757.036	1472.83
757.22	1372.48
757.404	1485.12
757.588	1472.83
757.772	1466.69
757.956	1362.24
758.14	1448.26
758.323	1407.3
758.507	1429.82
758.691	1306.95
758.875	1431.87
759.059	1456.45
759.242	1384.77
759.426	1331.52
759.61	1308.99
759.794	1339.71
759.977	1403.2
760.161	1372.48
760.345	1354.05
760.528	1356.1
760.712	1296.71
760.895	1329.47
761.079	1390.91
761.263	1237.31
761.446	1220.93
761.63	1300.8
761.813	1257.79
761.997	1206.59
762.18	1233.22
762.364	1286.47
762.547	1308.99
762.731	1177.92
762.914	1245.51
763.098	1190.21
763.281	1251.65
763.464	1112.39
763.648	1251.65
763.831	1104.2
764.015	1077.57
764.198	1079.62
764.381	1161.54
764.564	1184.07
764.748	1237.31
764.931	1077.57
765.114	1069.38
765.297	1214.79
765.481	1130.82
765.664	1130.82
765.847	1159.49
766.03	1104.2
766.213	1087.81
766.397	1053
766.58	1057.09
766.763	1136.96
766.946	1104.2
767.129	1114.44
767.312	1069.38
767.495	987.46
767.678	1079.62
767.861	1093.96
768.044	1091.91
768.227	1038.66
768.41	1075.52
768.593	1059.14
768.776	964.93
768.959	1108.29
769.142	1108.29
769.324	983.37
769.507	1083.72
769.69	1007.94
769.873	969.03
770.056	985.41
770.239	966.98
770.421	1126.72
770.604	870.73
770.787	919.88
770.97	1024.33
771.152	962.89
771.335	1079.62
771.518	866.63
771.7	1024.33
771.883	907.59
772.066	930.12
772.248	936.26
772.431	973.13
772.613	954.69
772.796	876.87
772.978	934.22
773.161	934.22
773.343	866.63
773.526	907.59
773.708	850.25
773.891	876.87
774.073	874.82
774.256	848.2
774.438	893.26
774.621	833.86
774.803	915.78
774.985	850.25
775.168	876.87
775.35	784.71
775.532	880.97
775.715	764.23
775.897	788.81
776.079	842.06
776.261	891.21
776.444	811.34
776.626	801.1
776.808	637.26
776.99	735.56
777.173	713.03
777.355	702.79
777.537	790.86
777.719	768.33
777.901	745.8
778.083	743.75
778.265	674.12
778.447	690.51
778.629	780.62
778.811	700.75
778.993	743.75
779.175	670.03
779.357	667.98
779.539	708.94
779.721	688.46
779.903	813.38
780.085	672.08
780.267	620.88
780.449	725.32
780.631	610.64
780.812	680.27
780.994	657.74
781.176	690.51
781.358	715.08
781.54	659.79
781.721	680.27
781.903	588.11
782.085	526.67
782.267	565.58
782.448	534.86
782.63	608.59
782.812	616.78
782.993	670.03
783.175	608.59
783.357	498
783.538	545.1
783.72	602.44
783.901	616.78
784.083	633.16
784.264	565.58
784.446	594.25
784.627	469.33
784.809	559.44
784.99	471.37
785.172	549.2
785.353	541.01
785.535	553.29
785.716	577.87
785.897	491.85
786.079	512.33
786.26	518.48
786.441	518.48
786.623	473.42
786.804	530.77
786.985	465.23
787.167	551.24
787.348	543.05
787.529	493.9
787.71	504.14
787.891	518.48
788.073	485.71
788.254	438.61
788.435	387.41
788.616	397.65
788.797	485.71
788.978	426.32
789.159	473.42
789.34	426.32
789.522	428.37
789.703	510.29
789.884	436.56
790.065	438.61
790.246	498
790.427	344.4
790.607	444.75
790.788	420.17
790.969	391.5
791.15	450.89
791.331	420.17
791.512	469.33
791.693	348.5
791.874	403.79
792.054	489.81
792.235	356.69
792.416	385.36
792.597	321.87
792.778	387.41
792.958	397.65
793.139	393.55
793.32	438.61
793.5	340.3
793.681	473.42
793.862	340.3
794.042	307.54
794.223	319.82
794.404	235.86
794.584	309.58
794.765	364.88
794.945	381.26
795.126	362.83
795.306	328.02
795.487	373.07
795.667	399.7
795.848	379.22
796.028	270.67
796.209	295.25
796.389	403.79
796.57	285.01
796.75	358.74
796.93	373.07
797.111	321.87
797.291	328.02
797.471	364.88
797.652	321.87
797.832	411.98
798.012	293.2
798.192	295.25
798.373	289.1
798.553	237.91
798.733	242
798.913	278.87
799.093	285.01
799.274	272.72
799.454	293.2
799.634	250.19
799.814	328.02
799.994	272.72
800.174	315.73
800.354	358.74
800.534	254.29
800.714	248.15
800.894	272.72
801.074	242
801.254	252.24
801.434	270.67
801.614	293.2
801.794	276.82
801.974	645.45
802.154	237.91
802.334	321.87
802.514	258.39
802.693	266.58
802.873	223.57
803.053	268.63
803.233	305.49
803.413	313.68
803.592	266.58
803.772	291.15
803.952	280.91
804.131	227.67
804.311	289.1
804.491	291.15
804.67	235.86
804.85	264.53
805.03	313.68
805.209	258.39
805.389	158.03
805.568	254.29
805.748	225.62
805.928	215.38
806.107	274.77
806.287	280.91
806.466	196.95
806.646	270.67
806.825	188.75
807.004	264.53
807.184	188.75
807.363	248.15
807.543	203.09
807.722	280.91
807.901	178.51
808.081	282.96
808.26	145.75
808.439	147.8
808.619	174.42
808.798	256.34
808.977	266.58
809.156	256.34
809.336	203.09
809.515	254.29
809.694	194.9
809.873	174.42
810.052	211.28
810.231	252.24
810.411	190.8
810.59	196.95
810.769	182.61
810.948	158.03
811.127	211.28
811.306	248.15
811.485	149.84
811.664	250.19
811.843	190.8
812.022	203.09
812.201	151.89
812.38	176.47
812.559	121.17
812.737	250.19
812.916	184.66
813.095	127.32
813.274	117.08
813.453	264.53
813.632	137.56
813.811	172.37
813.989	135.51
814.168	235.86
814.347	256.34
814.526	121.17
814.704	139.6
814.883	174.42
815.062	196.95
815.24	244.05
815.419	143.7
815.598	164.18
815.776	162.13
815.955	201.04
816.133	201.04
816.312	160.08
816.49	166.23
816.669	203.09
816.847	133.46
817.026	125.27
817.204	137.56
817.383	164.18
817.561	149.84
817.74	196.95
817.918	137.56
818.097	227.67
818.275	135.51
818.453	207.19
818.632	80.21
818.81	158.03
818.988	203.09
819.167	121.17
819.345	96.6
819.523	125.27
819.701	180.56
819.879	96.6
820.058	239.95
820.236	143.7
820.414	147.8
820.592	172.37
820.77	151.89
820.948	186.71
821.127	149.84
821.305	160.08
821.483	170.32
821.661	129.36
821.839	160.08
822.017	168.27
822.195	160.08
822.373	135.51
822.551	143.7
822.729	235.86
822.907	123.22
823.085	184.66
823.262	90.45
823.44	164.18
823.618	20.82
823.796	162.13
823.974	96.6
824.152	125.27
824.329	117.08
824.507	155.99
824.685	180.56
824.863	168.27
825.04	84.31
825.218	170.32
825.396	104.79
825.574	90.45
825.751	112.98
825.929	168.27
826.107	65.88
826.284	90.45
826.462	155.99
826.639	41.3
826.817	55.64
826.994	84.31
827.172	37.2
827.349	145.75
827.527	143.7
827.704	135.51
827.882	145.75
828.059	78.16
828.237	80.21
828.414	170.32
828.591	135.51
828.769	90.45
828.946	119.12
829.124	92.5
829.301	131.41
829.478	164.18
829.655	69.97
829.833	84.31
830.01	24.92
830.187	102.74
830.364	117.08
830.542	121.17
830.719	166.23
830.896	41.3
831.073	110.93
831.25	174.42
831.427	129.36
831.604	72.02
831.782	158.03
831.959	153.94
832.136	94.55
832.313	160.08
832.49	129.36
832.667	139.6
832.844	160.08
833.021	121.17
833.198	145.75
833.374	108.88
833.551	80.21
833.728	80.21
833.905	129.36
834.082	49.49
834.259	137.56
834.436	100.69
834.612	61.78
834.789	143.7
834.966	41.3
835.143	125.27
835.319	112.98
835.496	174.42
835.673	86.36
835.85	98.64
836.026	129.36
836.203	24.92
836.38	53.59
836.556	55.64
836.733	67.92
836.909	102.74
837.086	59.73
837.262	119.12
837.439	6.49
837.616	43.35
837.792	69.97
837.968	115.03
838.145	53.59
838.321	121.17
838.498	133.46
838.674	69.97
838.851	172.37
839.027	80.21
839.203	78.16
839.38	47.44
839.556	53.59
839.732	117.08
839.909	137.56
840.085	78.16
840.261	6.49
840.437	110.93
840.614	61.78
840.79	211.28
840.966	102.74
841.142	0.34
841.318	31.06
841.494	131.41
841.671	119.12
841.847	119.12
842.023	94.55
842.199	61.78
842.375	127.32
842.551	16.73
842.727	98.64
842.903	141.65
843.079	65.88
843.255	127.32
843.431	96.6
843.607	45.4
843.783	57.68
843.959	59.73
844.134	49.49
844.31	88.4
844.486	41.3
844.662	53.59
844.838	67.92
845.013	129.36
845.189	69.97
845.365	37.2
845.541	82.26
845.716	47.44
845.892	61.78
846.068	67.92
846.244	88.4
846.419	20.82
846.595	43.35
846.77	49.49
846.946	51.54
847.122	78.16
847.297	8.53
847.473	133.46
847.648	69.97
847.824	72.02
847.999	10.58
848.175	96.6
848.35	119.12
848.526	108.88
848.701	96.6
848.876	55.64
849.052	127.32
849.227	18.77
849.403	96.6
849.578	49.49
849.753	37.2
849.929	31.06
850.104	92.5
850.279	8.53
850.454	47.44
850.63	88.4
850.805	47.44
850.98	26.96
851.155	61.78
851.33	127.32
851.505	8.53
851.681	53.59
851.856	-7.85
852.031	35.16
852.206	31.06
852.381	29.01
852.556	127.32
852.731	59.73
852.906	74.07
853.081	86.36
853.256	90.45
853.431	51.54
853.606	47.44
853.781	29.01
853.956	-26.28
854.131	22.87
854.305	16.73
854.48	137.56
854.655	53.59
854.83	8.53
855.005	24.92
855.18	80.21
855.354	20.82
855.529	110.93
855.704	98.64
855.879	-1.71
856.053	69.97
856.228	92.5
856.403	90.45
856.577	10.58
856.752	55.64
856.926	35.16
857.101	41.3
857.276	49.49
857.45	90.45
857.625	65.88
857.799	-34.47
857.974	104.79
858.148	-32.43
858.323	10.58
858.497	53.59
858.672	6.49
858.846	-42.67
859.02	20.82
859.195	53.59
859.369	33.11
859.543	43.35
859.718	45.4
859.892	-1.71
860.066	47.44
860.241	49.49
860.415	6.49
860.589	-69.29
860.763	78.16
860.938	59.73
861.112	39.25
861.286	26.96
861.46	108.88
861.634	-54.95
861.808	4.44
861.982	45.4
862.157	-24.23
862.331	-44.71
862.505	18.77
862.679	65.88
862.853	106.84
863.027	43.35
863.201	108.88
863.375	0.34
863.549	-34.47
863.722	33.11
863.896	47.44
864.07	49.49
864.244	37.2
864.418	82.26
864.592	6.49
864.766	18.77
864.939	14.68
865.113	10.58
865.287	37.2
865.461	-28.33
865.634	92.5
865.808	-63.15
865.982	-13.99
866.156	-22.19
866.329	43.35
866.503	-1.71
866.676	33.11
866.85	129.36
867.024	-3.75
867.197	41.3
867.371	57.68
867.544	76.12
867.718	37.2
867.891	-24.23
868.065	2.39
868.238	10.58
868.412	37.2
868.585	74.07
868.759	-20.14
868.932	24.92
869.105	88.4
869.279	35.16
869.452	-40.62
869.625	104.79
869.799	-18.09
869.972	12.63
870.145	88.4
870.319	47.44
870.492	41.3
870.665	41.3
870.838	61.78
871.011	41.3
871.185	57.68
871.358	37.2
871.531	43.35
871.704	63.83
871.877	131.41
872.05	45.4
872.223	22.87
872.396	14.68
872.569	39.25
872.742	-34.47
872.915	96.6
873.088	-26.28
873.261	55.64
873.434	-28.33
873.607	53.59
873.78	49.49
873.953	0.34
874.126	45.4
874.299	47.44
874.471	31.06
874.644	18.77
874.817	37.2
874.99	-30.38
875.163	8.53
875.335	-30.38
875.508	-54.95
875.681	39.25
875.853	2.39
876.026	-24.23
876.199	24.92
876.371	51.54
876.544	14.68
876.717	57.68
876.889	26.96
877.062	47.44
877.234	-46.76
877.407	10.58
877.579	45.4
877.752	67.92
877.924	43.35
878.097	45.4
878.269	4.44
878.442	20.82
878.614	63.83
878.786	-5.8
878.959	63.83
879.131	43.35
879.303	-65.19
879.476	20.82
879.648	16.73
879.82	20.82
879.993	51.54
880.165	49.49
880.337	35.16
880.509	41.3
880.681	78.16
880.854	55.64
881.026	49.49
881.198	76.12
881.37	86.36
881.542	6.49
881.714	22.87
881.886	-40.62
882.058	63.83
882.23	49.49
882.402	-9.9
882.574	76.12
882.746	41.3
882.918	69.97
883.09	78.16
883.262	6.49
883.434	-18.09
883.606	35.16
883.778	61.78
883.95	43.35
884.122	-59.05
884.293	76.12
884.465	26.96
884.637	39.25
884.809	59.73
884.98	16.73
885.152	39.25
885.324	49.49
885.496	61.78
885.667	-42.67
885.839	26.96
886.011	43.35
886.182	14.68
886.354	59.73
886.525	47.44
886.697	22.87
886.869	4.44
887.04	82.26
887.212	-5.8
887.383	61.78
887.555	80.21
887.726	31.06
887.897	69.97
888.069	61.78
888.24	84.31
888.412	72.02
888.583	-22.19
888.754	72.02
888.926	-26.28
889.097	10.58
889.268	14.68
889.44	-36.52
889.611	24.92
889.782	67.92
889.953	-7.85
890.125	33.11
890.296	18.77
890.467	41.3
890.638	-28.33
890.809	61.78
890.98	-61.1
891.151	-3.75
891.323	63.83
891.494	51.54
891.665	26.96
891.836	20.82
892.007	90.45
892.178	57.68
892.349	12.63
892.52	6.49
892.691	18.77
892.862	29.01
893.032	10.58
893.203	-34.47
893.374	16.73
893.545	43.35
893.716	18.77
893.887	29.01
894.057	16.73
894.228	57.68
894.399	-20.14
894.57	53.59
894.74	67.92
894.911	49.49
895.082	-11.95
895.253	14.68
895.423	-13.99
895.594	0.34
895.764	57.68
895.935	20.82
896.106	-13.99
896.276	-9.9
896.447	33.11
896.617	-54.95
896.788	51.54
896.958	61.78
897.129	6.49
897.299	-20.14
897.47	41.3
897.64	67.92
897.81	-36.52
897.981	45.4
898.151	47.44
898.322	22.87
898.492	-5.8
898.662	-28.33
898.832	-7.85
899.003	26.96
899.173	-3.75
899.343	-5.8
899.513	10.58
