Data from USB4F104151__67__11-52-36-221.txt Node

Date: Fri Mar 14 11:52:36 EDT 2025
User: louis
Spectrometer: USB4F10415
Trigger mode: 4
Integration Time (sec): 2.000000E-2
Scans to average: 1
Electric dark correction enabled: true
Nonlinearity correction enabled: false
Boxcar width: 0
XAxis mode: Wavelengths
Number of Pixels in Spectrum: 3648
>>>>>Begin Spectral Data<<<<<
178.204	-89.94
178.424	-89.94
178.644	-89.94
178.864	-145.24
179.084	-91.99
179.304	-14.17
179.524	-20.31
179.744	-26.45
179.964	30.89
180.184	-42.84
180.404	-20.31
180.624	30.89
180.844	-32.6
181.064	-22.36
181.283	75.95
181.503	12.46
181.723	28.84
181.943	-55.12
182.163	80.04
182.383	6.31
182.602	2.22
182.822	39.08
183.042	-38.74
183.262	-22.36
183.482	-30.55
183.701	43.18
183.921	63.66
184.141	61.61
184.361	71.85
184.58	-3.93
184.8	88.23
185.02	12.46
185.239	-22.36
185.459	-57.17
185.679	2.22
185.898	0.17
186.118	-3.93
186.338	-42.84
186.557	53.42
186.777	-20.31
186.997	41.13
187.216	0.17
187.436	-12.12
187.655	61.61
187.875	6.31
188.095	20.65
188.314	10.41
188.534	2.22
188.753	-3.93
188.973	28.84
189.192	-36.69
189.412	0.17
189.631	75.95
189.851	-14.17
190.07	24.75
190.29	32.94
190.509	0.17
190.729	-12.12
190.948	-16.21
191.168	168.1
191.387	49.32
191.607	-69.46
191.826	61.61
192.045	61.61
192.265	26.79
192.484	22.7
192.704	30.89
192.923	6.31
193.142	41.13
193.362	77.99
193.581	61.61
193.8	51.37
194.02	41.13
194.239	32.94
194.458	37.03
194.678	16.55
194.897	30.89
195.116	12.46
195.335	65.71
195.555	30.89
195.774	49.32
195.993	53.42
196.212	22.7
196.432	-14.17
196.651	6.31
196.87	-63.32
197.089	32.94
197.308	-36.69
197.528	4.27
197.747	-14.17
197.966	2.22
198.185	12.46
198.404	22.7
198.623	-18.26
198.842	-20.31
199.062	77.99
199.281	28.84
199.5	73.9
199.719	-16.21
199.938	98.47
200.157	14.51
200.376	-8.02
200.595	45.23
200.814	-28.5
201.033	51.37
201.252	24.75
201.471	41.13
201.69	-34.64
201.909	57.51
202.128	10.41
202.347	55.47
202.566	18.6
202.785	-28.5
203.004	41.13
203.223	84.14
203.442	4.27
203.661	-55.12
203.879	-40.79
204.098	37.03
204.317	-73.56
204.536	8.36
204.755	-57.17
204.974	-5.97
205.193	18.6
205.411	-26.45
205.63	-55.12
205.849	-24.4
206.068	4.27
206.287	-28.5
206.505	49.32
206.724	65.71
206.943	-16.21
207.162	-28.5
207.381	-14.17
207.599	24.75
207.818	37.03
208.037	55.47
208.255	6.31
208.474	4.27
208.693	12.46
208.911	10.41
209.13	26.79
209.349	16.55
209.567	-87.89
209.786	22.7
210.005	-3.93
210.223	-38.74
210.442	8.36
210.661	20.65
210.879	37.03
211.098	10.41
211.316	65.71
211.535	32.94
211.753	-48.98
211.972	55.47
212.191	10.41
212.409	49.32
212.628	24.75
212.846	80.04
213.065	71.85
213.283	-26.45
213.502	-30.55
213.72	16.55
213.938	-65.36
214.157	-77.65
214.375	63.66
214.594	61.61
214.812	98.47
215.031	-14.17
215.249	-12.12
215.467	0.17
215.686	26.79
215.904	18.6
216.122	20.65
216.341	26.79
216.559	-14.17
216.778	43.18
216.996	4.27
217.214	77.99
217.432	-36.69
217.651	2.22
217.869	14.51
218.087	39.08
218.306	-16.21
218.524	28.84
218.742	18.6
218.96	55.47
219.179	37.03
219.397	6.31
219.615	104.62
219.833	57.51
220.051	4.27
220.27	12.46
220.488	32.94
220.706	26.79
220.924	14.51
221.142	-34.64
221.36	-24.4
221.578	-3.93
221.796	37.03
222.015	-53.08
222.233	-57.17
222.451	63.66
222.669	12.46
222.887	32.94
223.105	26.79
223.323	-10.07
223.541	4.27
223.759	-63.32
223.977	28.84
224.195	96.43
224.413	57.51
224.631	18.6
224.849	-18.26
225.067	71.85
225.285	2.22
225.503	41.13
225.721	8.36
225.939	8.36
226.157	28.84
226.375	59.56
226.592	-53.08
226.81	4.27
227.028	73.9
227.246	6.31
227.464	-32.6
227.682	71.85
227.9	12.46
228.117	53.42
228.335	-26.45
228.553	8.36
228.771	47.27
228.989	65.71
229.206	98.47
229.424	69.8
229.642	10.41
229.86	-3.93
230.077	41.13
230.295	-51.03
230.513	41.13
230.731	-14.17
230.948	73.9
231.166	-12.12
231.384	34.99
231.601	10.41
231.819	20.65
232.037	8.36
232.254	-38.74
232.472	-67.41
232.689	37.03
232.907	10.41
233.125	-30.55
233.342	4.27
233.56	43.18
233.777	-22.36
233.995	10.41
234.213	28.84
234.43	-14.17
234.648	-14.17
234.865	16.55
235.083	88.23
235.3	63.66
235.518	24.75
235.735	28.84
235.953	73.9
236.17	-36.69
236.388	-48.98
236.605	57.51
236.822	10.41
237.04	55.47
237.257	-14.17
237.475	-18.26
237.692	8.36
237.909	51.37
238.127	-1.88
238.344	22.7
238.562	104.62
238.779	0.17
238.996	-38.74
239.214	16.55
239.431	45.23
239.648	-30.55
239.865	6.31
240.083	55.47
240.3	30.89
240.517	0.17
240.735	55.47
240.952	34.99
241.169	80.04
241.386	59.56
241.603	18.6
241.821	2.22
242.038	96.43
242.255	-12.12
242.472	28.84
242.689	-20.31
242.907	-30.55
243.124	28.84
243.341	-12.12
243.558	20.65
243.775	69.8
243.992	-57.17
244.209	-26.45
244.426	22.7
244.643	57.51
244.86	57.51
245.078	84.14
245.295	10.41
245.512	24.75
245.729	37.03
245.946	-34.64
246.163	71.85
246.38	61.61
246.597	55.47
246.814	34.99
247.031	22.7
247.248	45.23
247.464	-30.55
247.681	24.75
247.898	41.13
248.115	22.7
248.332	22.7
248.549	71.85
248.766	108.71
248.983	8.36
249.2	6.31
249.417	34.99
249.633	-42.84
249.85	-48.98
250.067	-1.88
250.284	37.03
250.501	-18.26
250.717	34.99
250.934	14.51
251.151	51.37
251.368	57.51
251.585	-10.07
251.801	16.55
252.018	51.37
252.235	39.08
252.451	49.32
252.668	8.36
252.885	125.1
253.102	51.37
253.318	-3.93
253.535	49.32
253.752	12.46
253.968	75.95
254.185	0.17
254.401	-18.26
254.618	88.23
254.835	-22.36
255.051	16.55
255.268	39.08
255.484	32.94
255.701	61.61
255.917	4.27
256.134	-24.4
256.351	32.94
256.567	16.55
256.784	-36.69
257	125.1
257.217	96.43
257.433	6.31
257.65	28.84
257.866	45.23
258.082	41.13
258.299	-57.17
258.515	14.51
258.732	45.23
258.948	39.08
259.165	63.66
259.381	-3.93
259.597	6.31
259.814	18.6
260.03	47.27
260.246	18.6
260.463	30.89
260.679	67.75
260.895	24.75
261.112	69.8
261.328	-3.93
261.544	32.94
261.761	90.28
261.977	53.42
262.193	-55.12
262.409	41.13
262.626	-12.12
262.842	14.51
263.058	-79.7
263.274	51.37
263.49	10.41
263.707	82.09
263.923	2.22
264.139	18.6
264.355	110.76
264.571	47.27
264.787	51.37
265.004	65.71
265.22	32.94
265.436	22.7
265.652	10.41
265.868	28.84
266.084	12.46
266.3	2.22
266.516	-16.21
266.732	28.84
266.948	4.27
267.164	30.89
267.38	-18.26
267.596	-14.17
267.812	24.75
268.028	26.79
268.244	20.65
268.46	123.05
268.676	24.75
268.892	24.75
269.108	-28.5
269.324	22.7
269.54	-14.17
269.756	10.41
269.972	-10.07
270.188	8.36
270.403	88.23
270.619	28.84
270.835	14.51
271.051	75.95
271.267	-14.17
271.483	-46.93
271.698	32.94
271.914	34.99
272.13	73.9
272.346	-63.32
272.562	34.99
272.777	6.31
272.993	-32.6
273.209	65.71
273.425	14.51
273.64	43.18
273.856	98.47
274.072	4.27
274.287	-28.5
274.503	61.61
274.719	84.14
274.934	6.31
275.15	-12.12
275.366	-5.97
275.581	49.32
275.797	-1.88
276.012	-40.79
276.228	12.46
276.444	-44.88
276.659	-8.02
276.875	-22.36
277.09	10.41
277.306	30.89
277.521	73.9
277.737	6.31
277.952	45.23
278.168	41.13
278.383	82.09
278.599	-10.07
278.814	30.89
279.03	-1.88
279.245	-10.07
279.461	34.99
279.676	57.51
279.892	-69.46
280.107	-53.08
280.322	0.17
280.538	34.99
280.753	-32.6
280.969	47.27
281.184	-10.07
281.399	32.94
281.615	32.94
281.83	30.89
282.045	39.08
282.26	-30.55
282.476	37.03
282.691	22.7
282.906	18.6
283.122	22.7
283.337	10.41
283.552	-16.21
283.767	2.22
283.983	-12.12
284.198	-5.97
284.413	14.51
284.628	39.08
284.843	10.41
285.058	-5.97
285.274	51.37
285.489	-8.02
285.704	67.75
285.919	30.89
286.134	82.09
286.349	-34.64
286.564	88.23
286.779	18.6
286.995	82.09
287.21	-12.12
287.425	28.84
287.64	-5.97
287.855	51.37
288.07	-59.22
288.285	22.7
288.5	22.7
288.715	37.03
288.93	-18.26
289.145	-18.26
289.36	30.89
289.575	12.46
289.79	47.27
290.004	45.23
290.219	61.61
290.434	92.33
290.649	-18.26
290.864	43.18
291.079	-8.02
291.294	34.99
291.509	2.22
291.724	32.94
291.938	57.51
292.153	61.61
292.368	41.13
292.583	57.51
292.798	86.19
293.012	86.19
293.227	24.75
293.442	-22.36
293.657	84.14
293.871	16.55
294.086	59.56
294.301	114.86
294.516	30.89
294.73	12.46
294.945	-30.55
295.16	49.32
295.374	18.6
295.589	8.36
295.804	-51.03
296.018	59.56
296.233	28.84
296.447	47.27
296.662	67.75
296.877	80.04
297.091	69.8
297.306	20.65
297.52	-65.36
297.735	82.09
297.949	-5.97
298.164	86.19
298.378	24.75
298.593	45.23
298.807	-48.98
299.022	-5.97
299.236	26.79
299.451	80.04
299.665	34.99
299.88	57.51
300.094	100.52
300.309	10.41
300.523	77.99
300.737	51.37
300.952	28.84
301.166	14.51
301.381	135.34
301.595	41.13
301.809	80.04
302.024	84.14
302.238	-1.88
302.452	-14.17
302.667	41.13
302.881	22.7
303.095	22.7
303.309	86.19
303.524	73.9
303.738	14.51
303.952	12.46
304.166	8.36
304.381	30.89
304.595	51.37
304.809	73.9
305.023	12.46
305.237	65.71
305.452	39.08
305.666	90.28
305.88	59.56
306.094	98.47
306.308	63.66
306.522	43.18
306.736	6.31
306.95	71.85
307.164	12.46
307.379	53.42
307.593	65.71
307.807	100.52
308.021	34.99
308.235	-42.84
308.449	-10.07
308.663	-26.45
308.877	43.18
309.091	-32.6
309.305	4.27
309.519	-44.88
309.733	59.56
309.947	-30.55
310.161	16.55
310.374	45.23
310.588	69.8
310.802	-57.17
311.016	26.79
311.23	32.94
311.444	53.42
311.658	22.7
311.872	84.14
312.085	32.94
312.299	73.9
312.513	-32.6
312.727	12.46
312.941	55.47
313.154	28.84
313.368	59.56
313.582	39.08
313.796	14.51
314.009	0.17
314.223	37.03
314.437	63.66
314.651	-28.5
314.864	39.08
315.078	-20.31
315.292	67.75
315.505	-8.02
315.719	45.23
315.933	-38.74
316.146	104.62
316.36	18.6
316.573	18.6
316.787	53.42
317.001	69.8
317.214	10.41
317.428	34.99
317.641	-3.93
317.855	-22.36
318.068	75.95
318.282	-14.17
318.495	84.14
318.709	61.61
318.922	73.9
319.136	34.99
319.349	18.6
319.563	-30.55
319.776	14.51
319.99	-16.21
320.203	47.27
320.417	30.89
320.63	88.23
320.843	77.99
321.057	20.65
321.27	16.55
321.483	47.27
321.697	26.79
321.91	-10.07
322.124	-3.93
322.337	43.18
322.55	-20.31
322.763	41.13
322.977	84.14
323.19	-28.5
323.403	26.79
323.617	90.28
323.83	-10.07
324.043	16.55
324.256	125.1
324.469	-8.02
324.683	24.75
324.896	51.37
325.109	43.18
325.322	2.22
325.535	-48.98
325.748	16.55
325.962	20.65
326.175	37.03
326.388	8.36
326.601	30.89
326.814	43.18
327.027	55.47
327.24	22.7
327.453	34.99
327.666	73.9
327.879	22.7
328.092	39.08
328.305	49.32
328.518	-8.02
328.731	-30.55
328.944	-38.74
329.157	57.51
329.37	-3.93
329.583	55.47
329.796	16.55
330.009	-5.97
330.222	24.75
330.435	-73.56
330.648	90.28
330.861	10.41
331.073	61.61
331.286	77.99
331.499	12.46
331.712	-40.79
331.925	41.13
332.138	73.9
332.35	39.08
332.563	37.03
332.776	37.03
332.989	-12.12
333.202	12.46
333.414	49.32
333.627	104.62
333.84	51.37
334.053	55.47
334.265	6.31
334.478	-18.26
334.691	-20.31
334.903	104.62
335.116	28.84
335.329	41.13
335.541	61.61
335.754	20.65
335.966	39.08
336.179	30.89
336.392	55.47
336.604	4.27
336.817	41.13
337.029	-32.6
337.242	16.55
337.454	59.56
337.667	14.51
337.88	77.99
338.092	49.32
338.305	49.32
338.517	65.71
338.729	12.46
338.942	61.61
339.154	67.75
339.367	22.7
339.579	-12.12
339.792	-8.02
340.004	24.75
340.217	28.84
340.429	86.19
340.641	-14.17
340.854	51.37
341.066	-32.6
341.278	131.24
341.491	106.67
341.703	20.65
341.915	8.36
342.128	116.9
342.34	59.56
342.552	-3.93
342.764	45.23
342.977	10.41
343.189	-12.12
343.401	110.76
343.613	-32.6
343.826	4.27
344.038	-26.45
344.25	6.31
344.462	41.13
344.674	61.61
344.886	51.37
345.099	57.51
345.311	45.23
345.523	41.13
345.735	22.7
345.947	61.61
346.159	-3.93
346.371	-36.69
346.583	43.18
346.795	69.8
347.007	28.84
347.219	57.51
347.431	32.94
347.643	100.52
347.855	65.71
348.067	75.95
348.279	55.47
348.491	-36.69
348.703	14.51
348.915	61.61
349.127	22.7
349.339	20.65
349.551	41.13
349.763	16.55
349.975	34.99
350.187	49.32
350.399	86.19
350.61	22.7
350.822	61.61
351.034	34.99
351.246	6.31
351.458	34.99
351.669	65.71
351.881	-3.93
352.093	0.17
352.305	34.99
352.517	-30.55
352.728	34.99
352.94	26.79
353.152	-34.64
353.363	28.84
353.575	47.27
353.787	80.04
353.999	59.56
354.21	65.71
354.422	-8.02
354.633	43.18
354.845	2.22
355.057	-83.8
355.268	-12.12
355.48	63.66
355.692	-18.26
355.903	16.55
356.115	32.94
356.326	39.08
356.538	28.84
356.749	2.22
356.961	8.36
357.172	51.37
357.384	28.84
357.595	96.43
357.807	18.6
358.018	84.14
358.23	100.52
358.441	41.13
358.653	18.6
358.864	12.46
359.075	45.23
359.287	47.27
359.498	71.85
359.709	55.47
359.921	82.09
360.132	51.37
360.344	26.79
360.555	63.66
360.766	8.36
360.977	61.61
361.189	63.66
361.4	32.94
361.611	-36.69
361.823	94.38
362.034	49.32
362.245	63.66
362.456	84.14
362.667	10.41
362.879	-46.93
363.09	80.04
363.301	121
363.512	63.66
363.723	14.51
363.935	43.18
364.146	41.13
364.357	71.85
364.568	-14.17
364.779	14.51
364.99	106.67
365.201	22.7
365.412	110.76
365.623	-3.93
365.834	-53.08
366.045	-5.97
366.256	82.09
366.467	96.43
366.678	49.32
366.889	53.42
367.1	88.23
367.311	45.23
367.522	-10.07
367.733	-14.17
367.944	24.75
368.155	53.42
368.366	112.81
368.577	80.04
368.788	-3.93
368.999	28.84
369.209	20.65
369.42	135.34
369.631	106.67
369.842	34.99
370.053	2.22
370.264	88.23
370.474	10.41
370.685	94.38
370.896	51.37
371.107	77.99
371.317	34.99
371.528	32.94
371.739	84.14
371.95	0.17
372.16	139.43
372.371	10.41
372.582	10.41
372.792	-32.6
373.003	49.32
373.214	59.56
373.424	71.85
373.635	-24.4
373.846	18.6
374.056	55.47
374.267	51.37
374.477	-5.97
374.688	22.7
374.898	49.32
375.109	49.32
375.319	32.94
375.53	32.94
375.74	14.51
375.951	37.03
376.161	32.94
376.372	20.65
376.582	39.08
376.793	2.22
377.003	61.61
377.214	4.27
377.424	-22.36
377.635	43.18
377.845	8.36
378.055	90.28
378.266	26.79
378.476	28.84
378.686	80.04
378.897	57.51
379.107	90.28
379.317	-46.93
379.528	-16.21
379.738	73.9
379.948	-3.93
380.158	82.09
380.369	-32.6
380.579	10.41
380.789	16.55
380.999	71.85
381.21	34.99
381.42	77.99
381.63	90.28
381.84	43.18
382.05	-1.88
382.261	47.27
382.471	65.71
382.681	94.38
382.891	41.13
383.101	90.28
383.311	73.9
383.521	110.76
383.731	34.99
383.941	57.51
384.151	90.28
384.361	0.17
384.571	41.13
384.781	75.95
384.991	82.09
385.201	94.38
385.411	2.22
385.621	90.28
385.831	98.47
386.041	41.13
386.251	96.43
386.461	37.03
386.671	2.22
386.881	18.6
387.091	28.84
387.301	88.23
387.511	106.67
387.72	82.09
387.93	8.36
388.14	67.75
388.35	88.23
388.56	53.42
388.769	-22.36
388.979	6.31
389.189	2.22
389.399	30.89
389.609	61.61
389.818	127.14
390.028	37.03
390.238	41.13
390.447	47.27
390.657	-16.21
390.867	37.03
391.076	2.22
391.286	198.82
391.496	116.9
391.705	102.57
391.915	69.8
392.125	69.8
392.334	49.32
392.544	26.79
392.753	34.99
392.963	92.33
393.172	26.79
393.382	2.22
393.591	61.61
393.801	104.62
394.01	137.38
394.22	61.61
394.429	80.04
394.639	84.14
394.848	45.23
395.058	32.94
395.267	127.14
395.477	41.13
395.686	92.33
395.895	168.1
396.105	106.67
396.314	92.33
396.524	69.8
396.733	-10.07
396.942	145.58
397.152	141.48
397.361	45.23
397.57	129.19
397.78	110.76
397.989	84.14
398.198	112.81
398.407	112.81
398.617	121
398.826	108.71
399.035	145.58
399.244	133.29
399.453	123.05
399.663	129.19
399.872	69.8
400.081	121
400.29	164.01
400.499	112.81
400.708	153.77
400.917	129.19
401.127	118.95
401.336	110.76
401.545	133.29
401.754	135.34
401.963	108.71
402.172	108.71
402.381	86.19
402.59	147.62
402.799	67.75
403.008	80.04
403.217	155.82
403.426	157.86
403.635	129.19
403.844	106.67
404.053	135.34
404.262	69.8
404.471	211.11
404.68	133.29
404.888	131.24
405.097	127.14
405.306	145.58
405.515	133.29
405.724	227.5
405.933	170.15
406.142	204.97
406.35	178.34
406.559	239.78
406.768	192.68
406.977	196.78
407.185	231.59
407.394	172.2
407.603	125.1
407.812	207.02
408.02	207.02
408.229	262.31
408.438	305.32
408.646	264.36
408.855	323.75
409.064	268.45
409.272	264.36
409.481	266.41
409.69	192.68
409.898	286.89
410.107	338.09
410.315	340.13
410.524	372.9
410.733	381.09
410.941	256.17
411.15	350.37
411.358	454.82
411.567	444.58
411.775	501.92
411.984	389.28
412.192	471.2
412.401	456.87
412.609	499.88
412.818	567.46
413.026	569.51
413.234	592.03
413.443	585.89
413.651	563.36
413.86	571.55
414.068	606.37
414.276	632.99
414.485	733.34
414.693	710.82
414.901	753.82
415.11	762.02
415.318	735.39
415.526	852.13
415.734	839.84
415.943	866.46
416.151	891.04
416.359	854.17
416.567	907.42
416.776	970.91
416.984	1048.73
417.192	1153.18
417.4	1011.87
417.608	1061.02
417.817	1058.97
418.025	1134.75
418.233	1241.24
418.441	1187.99
418.649	1312.92
418.857	1386.65
419.065	1413.27
419.273	1398.93
419.481	1552.53
419.689	1521.81
419.897	1626.26
420.105	1720.46
420.313	1779.86
420.521	1837.2
420.729	1818.77
420.937	1847.44
421.145	1953.93
421.353	2019.47
421.561	2076.81
421.769	2113.67
421.977	2259.08
422.185	2240.65
422.393	2277.51
422.601	2488.45
422.809	2539.65
423.017	2465.93
423.224	2619.52
423.432	2611.33
423.64	2777.22
423.848	2994.3
424.056	2787.46
424.263	3059.84
424.471	3147.9
424.679	3164.28
424.887	3401.85
425.094	3455.09
425.302	3467.38
425.51	3467.38
425.718	3616.88
425.925	3762.29
426.133	3944.56
426.341	3965.04
426.548	4341.86
426.756	4198.51
426.964	4257.9
427.171	4558.95
427.379	4778.08
427.586	4802.66
427.794	4991.07
428.001	5087.33
428.209	5544.02
428.417	5290.07
428.624	5689.43
428.832	5683.28
429.039	5566.55
429.247	5527.64
429.454	6299.72
429.662	6492.23
429.869	6058.06
430.076	6531.14
430.284	6391.88
430.491	6697.03
430.699	7180.35
430.906	7059.52
431.114	7149.63
431.321	7479.35
431.528	7622.71
431.736	8052.78
431.943	8329.26
432.15	8120.37
432.358	8310.83
432.565	8761.38
432.772	8716.33
432.979	9185.31
433.187	9224.22
433.394	9375.77
433.601	9887.76
433.808	10164.24
434.016	9930.77
434.223	10364.94
434.43	11085.83
434.637	10610.7
434.844	11333.63
435.052	11679.74
435.259	11505.66
435.466	11814.9
435.673	11511.8
435.88	12457.96
436.087	12658.67
436.294	13017.06
436.501	12699.62
436.708	12830.69
436.915	13529.05
437.122	13873.11
437.329	13916.12
437.537	14315.47
437.743	14796.74
437.95	14591.95
438.157	15310.79
438.364	15695.8
438.571	15730.62
438.778	15855.54
438.985	17520.54
439.192	16381.87
439.399	17282.98
439.606	16926.63
439.813	17883.03
440.02	18749.32
440.227	18368.4
440.433	18218.9
440.64	18941.83
440.847	18769.8
441.054	19210.12
441.261	20344.69
441.467	20156.28
441.674	20780.91
441.881	21376.87
442.088	21417.83
442.294	21256.04
442.501	21974.88
442.708	22202.2
442.914	23183.18
443.121	24244.02
443.328	23273.29
443.534	24999.73
443.741	24254.26
443.948	23934.78
444.154	25777.95
444.361	25675.55
444.568	25974.56
444.774	26083.1
444.981	26191.64
445.187	26855.18
445.394	27850.5
445.6	27440.9
445.807	30684.89
446.013	28794.61
446.22	29732.58
446.426	30584.54
446.633	30951.12
446.839	31878.85
447.046	30367.45
447.252	32526.01
447.459	32386.75
447.665	32343.74
447.871	33756.84
448.078	35274.38
448.284	33291.95
448.491	34619.03
448.697	35370.64
448.903	36128.39
449.11	36523.65
449.316	35876.49
449.522	36202.11
449.728	37275.25
449.935	37418.61
450.141	37584.49
450.347	38745.69
450.553	37287.54
450.76	37785.19
450.966	39325.27
451.172	38428.26
451.378	39431.76
451.584	38690.4
451.791	39800.4
451.997	39769.68
452.203	40345.16
452.409	40502.85
452.615	39931.47
452.821	38913.62
453.027	38202.98
453.233	40302.15
453.44	38833.75
453.646	39104.09
453.852	39589.45
454.058	40005.19
454.264	38653.53
454.47	39454.29
454.676	38370.91
454.882	39953.99
455.088	36505.21
455.294	37131.89
455.5	37568.11
455.705	37766.76
455.911	36499.07
456.117	35876.49
456.323	34983.57
456.529	33283.76
456.735	34571.93
456.941	34074.27
457.147	33302.19
457.352	32134.85
457.558	32214.72
457.764	32020.16
457.97	31309.52
458.176	30916.31
458.381	31076.05
458.587	29392.62
458.793	29261.55
458.999	27778.82
459.204	30093.02
459.41	28784.37
459.616	27043.6
459.821	27012.88
460.027	27125.52
460.233	26396.44
460.438	25169.71
460.644	25458.47
460.85	24547.12
461.055	23887.68
461.261	24158.01
461.466	22173.53
461.672	21575.52
461.878	23240.52
462.083	21514.08
462.289	20893.55
462.494	20819.82
462.7	19896.19
462.905	19451.78
463.111	20262.77
463.316	19980.15
463.522	19580.8
463.727	19761.02
463.932	19517.31
464.138	19523.46
464.343	19474.31
464.549	18837.39
464.754	19693.44
464.959	19462.02
465.165	19384.19
465.37	18472.85
465.575	17876.89
465.781	18812.81
465.986	18980.75
466.191	17913.75
466.397	17788.83
466.602	16949.16
466.807	17459.1
467.012	17500.06
467.218	17217.44
467.423	17399.71
467.628	17291.17
467.833	17903.51
468.038	17352.61
468.244	16947.11
468.449	17579.93
468.654	16768.94
468.859	16977.83
469.064	16615.34
469.269	15980.47
469.474	16132.02
469.679	16279.47
469.885	15894.46
470.09	16140.21
470.295	16089.01
470.5	15892.41
470.705	15886.26
470.91	15417.28
471.115	15462.33
471.32	15527.87
471.525	15493.05
471.73	15359.94
471.935	15075.27
472.139	14446.54
472.344	14696.39
472.549	14274.51
472.754	14530.51
472.959	14256.08
473.164	13856.73
473.369	13711.32
473.574	14249.94
473.778	14120.92
473.983	13715.42
474.188	13780.95
474.393	13426.65
474.598	13348.83
474.802	13180.9
475.007	13037.54
475.212	13103.07
475.417	12582.89
475.621	12425.2
475.826	12466.16
476.031	12451.82
476.235	12353.52
476.44	12038.13
476.645	12247.02
476.849	12318.7
477.054	11896.82
477.259	11515.9
477.463	11786.23
477.668	11493.37
477.872	11827.19
478.077	11552.76
478.282	11094.02
478.486	11139.07
478.691	10987.52
478.895	11012.1
479.1	10821.64
479.304	10803.21
479.509	10635.27
479.713	10893.32
479.918	10559.5
480.122	10424.33
480.326	10614.79
480.531	10620.94
480.735	10326.03
480.94	10391.56
481.144	10375.18
481.348	9949.2
481.553	10270.73
481.757	9992.21
481.961	10301.45
482.166	10498.06
482.37	10199.06
482.574	10035.22
482.778	10012.69
482.983	10276.88
483.187	10098.7
483.391	10162.19
483.595	10063.89
483.8	10024.98
484.004	10088.46
484.208	10215.44
484.412	10014.74
484.616	10065.94
484.821	10131.47
485.025	9996.31
485.229	10061.84
485.433	9965.59
485.637	10016.79
485.841	10029.07
486.045	9824.28
486.249	10145.81
486.453	9998.35
486.657	10020.88
486.861	10082.32
487.065	9805.85
487.269	10000.4
487.473	9801.75
487.677	10145.81
487.881	10027.03
488.085	9981.97
488.289	9910.29
488.493	10078.22
488.697	10059.79
488.901	9930.77
489.105	10371.08
489.309	10127.38
489.512	10151.95
489.716	10135.57
489.92	10192.91
490.124	9994.26
490.328	10168.34
490.531	10207.25
490.735	10233.87
490.939	10567.69
491.143	10233.87
491.346	10295.31
491.55	10530.83
491.754	10453
491.958	10469.39
492.161	10569.74
492.365	10620.94
492.569	10694.66
492.772	10584.07
492.976	10686.47
493.18	10641.42
493.383	10813.45
493.587	10885.12
493.79	11012.1
493.994	10864.64
494.197	10874.88
494.401	11102.21
494.605	11073.54
494.808	11360.25
495.012	11540.47
495.215	11220.99
495.419	11458.56
495.622	11372.54
495.825	11638.78
496.029	11634.68
496.232	11898.87
496.436	11681.78
496.639	12058.61
496.843	12109.81
497.046	12193.78
497.249	12238.83
497.453	12320.75
497.656	12535.79
497.859	12584.94
498.063	12773.35
498.266	13008.87
498.469	12990.44
498.673	13006.82
498.876	13314.02
499.079	13594.59
499.282	13141.99
499.485	13846.49
499.689	13739.99
499.892	13987.8
500.095	14000.09
500.298	14258.13
500.501	14200.79
500.705	14415.82
500.908	14675.91
501.111	14933.96
501.314	15140.8
501.517	15007.69
501.72	15165.38
501.923	15169.48
502.126	15798.2
502.329	15542.21
502.532	16113.59
502.735	16172.98
502.938	16443.31
503.141	16441.26
503.344	16560.05
503.547	16906.15
503.75	17004.46
503.953	17108.9
504.156	17485.73
504.359	17522.59
504.562	17803.16
504.765	18028.44
504.968	18167.7
505.17	18235.28
505.373	18235.28
505.576	18802.57
505.779	19081.1
505.982	18845.58
506.185	19060.62
506.387	19330.95
506.59	19310.47
506.793	19572.61
506.996	19795.84
507.198	20346.74
507.401	20297.59
507.604	20338.55
507.807	20760.43
508.009	20942.7
508.212	21233.51
508.415	21534.56
508.617	21907.29
508.82	21559.14
509.022	21694.3
509.225	22245.21
509.428	22290.26
509.63	22572.88
509.833	22640.47
510.035	23050.06
510.238	23058.25
510.44	23496.52
510.643	24082.24
510.845	24024.89
511.048	24115
511.25	24272.7
511.453	24377.14
511.655	25354.02
511.858	24641.33
512.06	25136.94
512.262	25677.6
512.465	25370.41
512.667	25810.72
512.87	26185.5
513.072	26375.96
513.274	26322.71
513.477	26609.43
513.679	26877.71
513.881	27260.68
514.084	27705.09
514.286	27371.27
514.488	27760.39
514.69	28862.19
514.893	28622.58
515.095	28593.91
515.297	29019.89
515.499	29134.57
515.701	29626.09
515.904	29974.24
516.106	30123.74
516.308	30166.75
516.51	30484.19
516.712	30519
516.914	30826.2
517.116	31774.41
517.318	31622.86
517.52	31504.07
517.722	31893.19
517.925	32476.86
518.127	32693.94
518.329	32919.22
518.531	32736.95
518.733	33406.64
518.935	33525.42
519.136	33822.37
519.338	34076.32
519.54	34250.4
519.742	34819.74
519.944	34588.31
520.146	35303.06
520.348	35337.87
520.55	35530.38
520.752	35747.47
520.954	36112
521.155	35813
521.357	36755.07
521.559	36638.33
521.761	37441.14
521.963	37256.82
522.164	37072.5
522.366	37500.53
522.568	38069.86
522.77	37877.35
522.971	38555.23
523.173	38084.2
523.375	38577.76
523.576	38710.88
523.778	39042.65
523.98	39243.35
524.181	39722.57
524.383	39382.61
524.584	40076.87
524.786	40048.2
524.988	40363.59
525.189	40289.86
525.391	40924.73
525.592	40891.96
525.794	40844.86
525.995	41008.7
526.197	41350.71
526.398	41287.22
526.6	41309.75
526.801	41756.21
527.003	41842.22
527.204	41823.79
527.406	42409.51
527.607	42153.51
527.808	42577.44
528.01	41365.04
528.211	42374.69
528.412	43132.44
528.614	42778.14
528.815	42858.01
529.016	42956.32
529.218	43441.68
529.419	43261.46
529.62	43226.65
529.822	43370
530.023	43597.33
530.224	43554.32
530.425	43175.45
530.626	43298.33
530.828	43398.68
531.029	44287.49
531.23	44127.75
531.431	44000.78
531.632	44023.31
531.833	44105.23
532.035	44092.94
532.236	43974.16
532.437	44611.07
532.638	44115.47
532.839	44137.99
533.04	44334.6
533.241	44432.9
533.442	45082.11
533.643	44592.64
533.844	44635.65
534.045	44641.79
534.246	44531.2
534.447	44504.58
534.648	44381.7
534.849	44727.81
535.05	44609.03
535.251	44525.06
535.451	44371.46
535.652	44928.51
535.853	44647.94
536.054	44484.1
536.255	44760.58
536.456	44031.5
536.657	45073.91
536.857	44281.35
537.058	44332.55
537.259	45030.91
537.46	44883.45
537.66	44361.22
537.861	44971.52
538.062	44658.18
538.263	44692.99
538.463	44643.84
538.664	44645.89
538.865	44672.51
539.065	44738.05
539.266	44420.61
539.466	45286.9
539.667	44412.42
539.868	45006.33
540.068	44496.39
540.269	44772.86
540.469	44957.18
540.67	44414.47
540.87	44723.71
541.071	44359.17
541.271	44615.17
541.472	44647.94
541.672	44402.18
541.873	44461.57
542.073	44023.31
542.274	45094.39
542.474	44410.37
542.675	44291.59
542.875	44926.46
543.075	44844.54
543.276	43853.33
543.476	44766.72
543.676	44598.79
543.877	44529.16
544.077	44234.25
544.277	44381.7
544.478	44473.86
544.678	44418.56
544.878	43972.11
545.078	44303.88
545.279	43826.7
545.479	44240.39
545.679	44393.99
545.879	44312.07
546.079	44201.48
546.28	44031.5
546.48	44258.82
546.68	44275.21
546.88	44299.78
547.08	44492.29
547.28	44367.37
547.48	43484.69
547.68	44242.44
547.88	43763.21
548.081	44213.77
548.281	44164.62
548.481	44060.17
548.681	44361.22
548.881	43902.48
549.081	43965.96
549.28	43867.66
549.48	44289.54
549.68	44181
549.88	44488.2
550.08	44203.53
550.28	43499.03
550.48	44232.2
550.68	44070.41
550.88	43892.24
551.08	43699.73
551.279	44090.89
551.479	43699.73
551.679	43959.82
551.879	43761.17
552.079	44115.47
552.278	44107.27
552.478	43879.95
552.678	44015.12
552.878	44561.92
553.077	43626
553.277	43593.23
553.477	44103.18
553.676	43873.81
553.876	43650.58
554.076	43482.64
554.275	43531.79
554.475	43003.42
554.674	43712.02
554.874	43451.92
555.074	43558.42
555.273	43648.53
555.473	43458.07
555.672	43279.89
555.872	43476.5
556.071	43574.8
556.271	43824.65
556.47	43324.95
556.67	42858.01
556.869	43376.15
557.068	43345.43
557.268	42696.22
557.467	42919.45
557.667	43005.47
557.866	42864.16
558.065	42976.79
558.265	42618.4
558.464	42798.62
558.663	43165.21
558.863	42380.84
559.062	42927.64
559.261	42161.7
559.461	43087.39
559.66	42268.2
559.859	42128.94
560.058	42331.68
560.258	42061.35
560.457	41915.95
560.656	42229.29
560.855	42100.26
561.054	42544.67
561.253	41891.37
561.453	42075.69
561.652	42085.93
561.851	42055.21
562.05	41567.79
562.249	41725.49
562.448	42001.96
562.647	41610.8
562.846	41492.02
563.045	41629.23
563.244	41330.23
563.443	41631.28
563.642	41211.45
563.841	41236.02
564.04	40955.45
564.239	41319.99
564.438	40853.05
564.637	41066.04
564.836	41094.71
565.035	40191.56
565.234	40818.24
565.432	40683.07
565.631	40670.78
565.83	40449.6
566.029	40603.2
566.228	40470.08
566.427	40152.65
566.625	40005.19
566.824	39845.45
567.023	40259.14
567.222	39519.82
567.42	40134.21
567.619	39579.21
567.818	39888.46
568.016	39745.1
568.215	40052.3
568.414	39476.82
568.612	39908.94
568.811	39405.14
569.01	39124.57
569.208	38757.98
569.407	39198.29
569.605	38706.78
569.804	39042.65
570.002	38581.85
570.201	39091.8
570.4	38473.31
570.598	38350.43
570.797	38583.9
570.995	38497.89
571.193	38059.62
571.392	38426.21
571.59	38190.69
571.789	38213.22
571.987	37944.94
572.186	38014.57
572.384	37639.79
572.582	37906.02
572.781	37955.18
572.979	37023.35
573.177	37938.79
573.376	37703.28
573.574	37099.12
573.772	37445.23
573.971	37242.48
574.169	36992.63
574.367	36785.79
574.565	36894.33
574.763	36968.05
574.962	36804.22
575.16	36509.31
575.358	36712.06
575.556	36263.55
575.754	36970.1
575.952	36046.47
576.151	36556.41
576.349	35763.85
576.547	36017.8
576.745	36198.02
576.943	36273.79
577.141	35737.23
577.339	35591.82
577.537	35524.24
577.735	35466.89
577.933	35217.04
578.131	35364.5
578.329	35317.39
578.527	35004.05
578.725	35219.09
578.923	34838.17
579.121	35284.62
579.319	34948.76
579.516	35063.44
579.714	34573.98
579.912	34666.14
580.11	34657.95
580.308	34627.23
580.506	34477.72
580.704	33838.76
580.901	34285.22
581.099	34514.59
581.297	33703.59
581.495	33656.49
581.692	34096.8
581.89	33732.26
582.088	33994.4
582.285	33511.08
582.483	33982.12
582.681	33392.3
582.878	33261.23
583.076	33121.97
583.274	33359.53
583.471	32933.56
583.669	33279.66
583.866	33107.63
584.064	33038
584.262	32331.45
584.459	32704.18
584.657	32603.83
584.854	32818.87
585.052	31956.68
585.249	32462.52
585.447	32739
585.644	32237.25
585.841	31821.51
586.039	32462.52
586.236	31510.22
586.434	31844.04
586.631	31434.44
586.828	31571.66
587.026	31690.44
587.223	31459.02
587.42	31280.85
587.618	31375.05
587.815	31291.09
588.012	31104.72
588.21	31231.69
588.407	31012.56
588.604	30899.92
588.801	30502.62
588.999	30836.44
589.196	30826.2
589.393	30547.67
589.59	30781.14
589.787	30162.65
589.984	30199.52
590.182	30076.64
590.379	30238.43
590.576	30148.32
590.773	30217.95
590.97	29757.16
591.167	29953.76
591.364	29503.21
591.561	29941.47
591.758	29636.33
591.955	29322.99
592.152	29509.35
592.349	29097.71
592.546	29529.83
592.743	29060.85
592.94	28860.15
593.137	29060.85
593.334	29073.14
593.531	28688.12
593.727	28606.2
593.924	28833.52
594.121	28212.99
594.318	28612.34
594.515	28284.67
594.712	28491.51
594.908	28143.36
595.105	28262.14
595.302	28124.93
595.499	28247.8
595.696	28190.46
595.892	27977.47
596.089	28079.87
596.286	27449.1
596.482	27680.52
596.679	27393.8
596.876	27608.84
597.072	27088.65
597.269	27285.26
597.466	27055.89
597.662	27033.36
597.859	27229.96
598.055	27047.69
598.252	26879.76
598.448	26998.54
598.645	26591
598.841	26464.02
599.038	26773.27
599.234	26746.64
599.431	26384.15
599.627	26539.8
599.824	26459.93
600.02	26089.24
600.217	26040.09
600.413	25974.56
600.609	26031.9
600.806	25679.65
601.002	25990.94
601.198	26056.48
601.395	25585.44
601.591	25466.66
601.787	25741.09
601.984	25765.67
602.18	25503.53
602.376	25304.87
602.572	24981.29
602.769	25216.81
602.965	24950.57
603.161	24897.33
603.357	24899.37
603.553	25151.27
603.75	24637.23
603.946	24608.56
604.142	24620.85
604.338	24500.02
604.534	24385.33
604.73	24483.64
604.926	24158.01
605.122	24188.73
605.318	24209.21
605.514	23856.96
605.71	23959.36
605.906	24018.75
606.102	23906.11
606.298	24096.57
606.494	23775.04
606.69	24078.14
606.886	23752.51
607.082	23643.97
607.278	23719.74
607.474	22959.95
607.67	23570.24
607.866	23117.64
608.062	23678.79
608.257	23371.59
608.453	23439.17
608.649	23150.41
608.845	23007.05
609.041	22884.17
609.236	23213.9
609.432	22859.6
609.628	22929.23
609.824	22916.94
610.019	22482.77
610.215	22814.54
610.411	22746.96
610.606	22427.48
610.802	22771.54
610.998	22474.58
611.193	22699.86
611.389	22269.78
611.584	22142.81
611.78	22372.18
611.976	22218.58
612.171	22445.91
612.367	22417.24
612.562	22212.44
612.758	22013.79
612.953	22177.62
613.149	22128.47
613.344	21847.9
613.539	21901.15
613.735	21835.61
613.93	22105.95
614.126	21659.49
614.321	21931.87
614.517	21782.37
614.712	21495.65
614.907	21276.52
615.103	21983.07
615.298	21563.23
615.493	21636.96
615.688	21383.01
615.884	21768.03
616.079	21163.88
616.274	21505.89
616.47	21524.32
616.665	21272.42
616.86	20942.7
617.055	21116.78
617.25	21047.15
617.445	20989.8
617.641	20844.4
617.836	21303.14
618.031	21127.02
618.226	20883.31
618.421	20629.36
618.616	20932.46
618.811	20416.37
619.006	20897.64
619.201	20410.23
619.396	20649.84
619.591	20252.53
619.786	20424.56
619.981	20217.72
620.176	20135.8
620.371	19912.57
620.566	19908.47
620.761	19711.87
620.956	19658.62
621.151	19580.8
621.346	19515.26
621.541	19046.28
621.735	19498.88
621.93	19230.6
622.125	19373.96
622.32	19085.19
622.515	19167.11
622.709	19023.75
622.904	18773.9
623.099	18804.62
623.294	18859.91
623.488	18386.83
623.683	18651.02
623.878	18284.44
624.072	18456.47
624.267	18104.21
624.462	18151.32
624.656	17987.48
624.851	18048.92
625.046	17807.26
625.24	17807.26
625.435	17684.38
625.629	17715.1
625.824	17473.44
626.018	17620.89
626.213	17096.61
626.407	17323.94
626.602	16738.22
626.796	17106.85
626.991	16926.63
627.185	16834.47
627.38	16953.26
627.574	16416.69
627.768	16605.1
627.963	16596.91
628.157	16320.43
628.352	16562.09
628.546	16359.35
628.74	16330.67
628.935	15828.92
629.129	15783.87
629.323	15869.88
629.517	15732.67
629.712	15847.35
629.906	15646.65
630.1	15292.35
630.294	15419.33
630.489	15316.93
630.683	15388.61
630.877	15142.85
631.071	15259.59
631.265	15208.39
631.459	14976.97
631.653	14669.77
631.848	14632.91
632.042	14718.92
632.236	14745.55
632.43	14696.39
632.624	14528.46
632.818	14403.53
633.012	14364.62
633.206	14385.1
633.4	14354.38
633.594	14110.68
633.788	14292.94
633.982	14116.82
634.176	14073.81
634.369	13924.31
634.563	13869.02
634.757	13764.57
634.951	13885.4
635.145	13641.69
635.339	13688.79
635.533	13404.13
635.726	13506.52
635.92	13184.99
636.114	13156.32
636.308	13236.19
636.501	13174.75
636.695	13070.31
636.889	12922.85
637.083	12924.9
637.276	13084.64
637.47	12658.67
637.664	12795.88
637.857	12644.33
638.051	12740.58
638.244	12615.66
638.438	12564.46
638.632	12447.72
638.825	12220.4
639.019	12156.91
639.212	12173.3
639.406	12038.13
639.599	12130.29
639.793	11845.62
639.986	11724.79
640.18	11925.49
640.373	11954.16
640.567	11808.76
640.76	11663.35
640.954	11626.49
641.147	11577.34
641.34	11651.06
641.534	11309.05
641.727	11468.8
641.92	11321.34
642.114	11149.31
642.307	11194.37
642.5	11264
642.694	10936.32
642.887	11038.72
643.08	11012.1
643.273	10948.61
643.467	10930.18
643.66	10827.78
643.853	10807.3
644.046	10637.32
644.239	10614.79
644.432	10549.26
644.626	10631.18
644.819	10541.07
645.012	10522.63
645.205	10526.73
645.398	10334.22
645.591	10235.92
645.784	10410
645.977	10119.18
646.17	10092.56
646.363	9910.29
646.556	9818.13
646.749	9922.58
646.942	10039.31
647.135	9695.25
647.328	9941.01
647.521	9707.54
647.714	9678.87
647.907	9816.08
648.099	9586.71
648.292	9584.66
648.485	9478.17
648.678	9369.63
648.871	9482.27
649.064	9347.1
649.256	9379.87
649.449	9334.81
649.642	9324.57
649.835	9259.04
650.027	8992.8
650.22	8876.07
650.413	8925.22
650.605	8902.69
650.798	8951.84
650.991	8687.65
651.183	8851.49
651.376	8814.63
651.568	8624.17
651.761	8407.08
651.954	8519.72
652.146	8663.08
652.339	8724.52
652.531	8400.94
652.724	8439.85
652.916	8222.77
653.109	8341.55
653.301	8273.96
653.494	8335.4
653.686	8220.72
653.879	8310.83
654.071	8224.81
654.263	8038.45
654.456	8095.79
654.648	8177.71
654.84	7882.8
655.033	7809.08
655.225	8005.68
655.417	7858.23
655.61	7981.1
655.802	7946.29
655.994	7743.54
656.186	7827.51
656.379	7741.49
656.571	7641.14
656.763	7581.75
656.955	7542.84
657.148	7485.5
657.34	7579.7
657.532	7419.96
657.724	7368.76
657.916	7331.9
658.108	7460.92
658.3	7241.79
658.492	7385.15
658.684	7172.16
658.876	7209.02
659.068	7135.29
659.26	7026.75
659.452	7116.86
659.644	7120.96
659.836	7112.77
660.028	6985.79
660.22	6832.19
660.412	6922.31
660.604	6758.47
660.796	6832.19
660.988	6897.73
661.18	6854.72
661.372	6592.58
661.563	6721.6
661.755	6578.25
661.947	6694.98
662.139	6584.39
662.331	6328.39
662.522	6670.4
662.714	6289.48
662.906	6481.99
663.097	6508.62
663.289	6359.11
663.481	6330.44
663.673	6324.3
663.864	6193.23
664.056	6170.7
664.247	6299.72
664.439	6193.23
664.631	6266.96
664.822	5984.34
665.014	6256.72
665.205	6180.94
665.397	6195.28
665.588	6105.17
665.78	5972.05
665.971	5976.14
666.163	5945.42
666.354	5918.8
666.546	5943.38
666.737	5812.31
666.929	5687.38
667.12	5871.7
667.311	5736.53
667.503	5679.19
667.694	5650.52
667.885	5677.14
668.077	5857.36
668.268	5673.04
668.459	5539.93
668.651	5671
668.842	5525.59
669.033	5578.84
669.224	5531.73
669.416	5515.35
669.607	5412.95
669.798	5236.83
669.989	5478.49
670.18	5419.1
670.371	5365.85
670.563	5234.78
670.754	5275.74
670.945	5388.38
671.136	5408.86
671.327	5273.69
671.518	5257.31
671.709	5279.83
671.9	5183.58
672.091	5064.8
672.282	5085.28
672.473	5093.47
672.664	5023.84
672.855	5087.33
673.046	5220.44
673.237	5189.72
673.428	5109.85
673.619	5032.03
673.809	4950.11
674	4872.29
674.191	4950.11
674.382	4952.16
674.573	5040.22
674.764	4874.34
674.954	5038.17
675.145	4724.83
675.336	4800.61
675.527	4653.16
675.717	5003.36
675.908	4870.24
676.099	4823.14
676.289	4860
676.48	4710.5
676.671	4741.22
676.861	4773.99
677.052	4606.05
677.243	4667.49
677.433	4610.15
677.624	4671.59
677.814	4718.69
678.005	4667.49
678.195	4663.4
678.386	4579.43
678.576	4587.62
678.767	4534.37
678.957	4487.27
679.148	4571.24
679.338	4579.43
679.529	4534.37
679.719	4565.09
679.909	4470.89
680.1	4526.18
680.29	4546.66
680.481	4399.21
680.671	4542.57
680.861	4382.82
681.052	4419.69
681.242	4515.94
681.432	4413.54
681.622	4321.38
681.813	4352.1
682.003	4378.73
682.193	4456.55
682.383	4438.12
682.573	4360.3
682.764	4284.52
682.954	4245.61
683.144	4403.3
683.334	4294.76
683.524	4290.67
683.714	4331.62
683.904	4294.76
684.094	4184.17
684.284	4106.35
684.474	4290.67
684.664	4257.9
684.854	4204.65
685.044	4173.93
685.234	4221.03
685.424	4147.31
685.614	4075.63
685.804	4227.18
685.994	4175.98
686.184	4059.24
686.374	3997.81
686.564	4030.57
686.753	3934.32
686.943	3932.27
687.133	3905.65
687.323	4028.53
687.513	3858.54
687.702	3981.42
687.892	3919.98
688.082	3985.52
688.272	3917.93
688.461	3885.17
688.651	3797.1
688.841	3782.77
689.03	3848.3
689.22	3866.74
689.41	3919.98
689.599	3768.43
689.789	3721.33
689.979	3817.58
690.168	3680.37
690.358	3674.23
690.547	3633.27
690.737	3729.52
690.926	3586.16
691.116	3563.64
691.305	3684.47
691.495	3573.88
691.684	3557.49
691.874	3584.12
692.063	3596.4
692.252	3594.36
692.442	3584.12
692.631	3645.56
692.82	3471.48
693.01	3553.4
693.199	3471.48
693.388	3418.23
693.578	3424.37
693.767	3391.61
693.956	3377.27
694.146	3342.46
694.335	3321.98
694.524	3354.74
694.713	3385.46
694.902	3356.79
695.092	3268.73
695.281	3348.6
695.47	3233.91
695.659	3293.3
695.848	3281.02
696.037	3231.87
696.226	3250.3
696.415	3334.26
696.604	3250.3
696.793	3256.44
696.982	3281.02
697.171	3287.16
697.36	3266.68
697.549	3182.71
697.738	3188.86
697.927	3055.74
698.116	3305.59
698.305	3039.36
698.494	3174.52
698.683	3106.94
698.872	3174.52
699.061	3186.81
699.25	3119.23
699.438	3111.04
699.627	3188.86
699.816	3197.05
700.005	3074.17
700.193	3080.32
700.382	3090.56
700.571	3184.76
700.76	3147.9
700.948	3160.19
701.137	3018.88
701.326	3063.93
701.514	3014.78
701.703	3035.26
701.892	3055.74
702.08	3192.95
702.269	3076.22
702.457	3025.02
702.646	3125.37
702.834	2943.1
703.023	3084.41
703.212	3137.66
703.4	3084.41
703.589	3041.4
703.777	3037.31
703.965	3006.59
704.154	2961.53
704.342	2984.06
704.531	3006.59
704.719	2979.97
704.907	2947.2
705.096	3039.36
705.284	3008.64
705.472	3039.36
705.661	2977.92
705.849	2900.09
706.037	3018.88
706.226	2881.66
706.414	3039.36
706.602	2873.47
706.79	2871.42
706.979	2898.05
707.167	2998.4
707.355	2930.81
707.543	3059.84
707.731	2990.21
707.919	3072.12
708.107	2941.05
708.296	2826.37
708.484	2926.72
708.672	2891.9
708.86	2941.05
709.048	2908.29
709.236	2969.73
709.424	2939.01
709.612	2969.73
709.8	2930.81
709.988	2904.19
710.176	2855.04
710.364	2916.48
710.551	2943.1
710.739	2857.09
710.927	2877.57
711.115	3031.16
711.303	2902.14
711.491	3154.04
711.679	2883.71
711.866	2951.29
712.054	2943.1
712.242	2963.58
712.43	2920.57
712.617	3102.84
712.805	2955.39
712.993	2900.09
713.181	2877.57
713.368	2947.2
713.556	2916.48
713.744	2951.29
713.931	3039.36
714.119	2850.94
714.306	2857.09
714.494	2793.6
714.682	3084.41
714.869	2836.61
715.057	2832.51
715.244	2891.9
715.432	2906.24
715.619	2889.85
715.807	2873.47
715.994	2889.85
716.182	2873.47
716.369	2891.9
716.556	2961.53
716.744	2809.98
716.931	2846.85
717.119	2881.66
717.306	2916.48
717.493	2936.96
717.681	2855.04
717.868	2961.53
718.055	2887.81
718.242	2926.72
718.43	2758.78
718.617	3000.44
718.804	2930.81
718.991	2875.52
719.179	2859.14
719.366	2812.03
719.553	2889.85
719.74	2832.51
719.927	3004.54
720.114	2928.77
720.301	2834.56
720.488	2707.59
720.676	2781.31
720.863	2832.51
721.05	2959.49
721.237	2965.63
721.424	2834.56
721.611	2939.01
721.798	2859.14
721.985	2754.69
722.172	2781.31
722.358	2885.76
722.545	2824.32
722.732	2920.57
722.919	2859.14
723.106	2869.37
723.293	2861.18
723.48	2984.06
723.667	2859.14
723.853	2818.18
724.04	3027.07
724.227	2812.03
724.414	2904.19
724.6	2758.78
724.787	2750.59
724.974	2863.23
725.161	2928.77
725.347	2840.7
725.534	2805.89
725.72	2865.28
725.907	2838.66
726.094	2771.07
726.28	2883.71
726.467	2775.17
726.653	2812.03
726.84	2744.45
727.027	2967.68
727.213	2672.77
727.4	2830.46
727.586	2926.72
727.773	2836.61
727.959	2754.69
728.145	2805.89
728.332	2855.04
728.518	2736.26
728.705	2814.08
728.891	2728.07
729.077	2764.93
729.264	2797.7
729.45	2809.98
729.636	2951.29
729.823	2857.09
730.009	2863.23
730.195	2789.5
730.382	2824.32
730.568	2773.12
730.754	2828.42
730.94	2803.84
731.126	2941.05
731.313	2852.99
731.499	2738.3
731.685	2812.03
731.871	2769.02
732.057	2805.89
732.243	2740.35
732.429	2879.61
732.615	2736.26
732.801	2793.6
732.987	2797.7
733.173	2740.35
733.359	2812.03
733.545	2756.74
733.731	2744.45
733.917	2779.26
734.103	2783.36
734.289	2707.59
734.475	2736.26
734.661	2730.11
734.847	2744.45
735.033	2834.56
735.219	2693.25
735.404	2748.54
735.59	2740.35
735.776	2680.96
735.962	2760.83
736.148	2799.74
736.333	2601.09
736.519	2752.64
736.705	2791.55
736.89	2613.38
737.076	2683.01
737.262	2697.35
737.447	2619.52
737.633	2701.44
737.819	2668.67
738.004	2668.67
738.19	2637.95
738.375	2580.61
738.561	2707.59
738.747	2621.57
738.932	2576.52
739.118	2609.28
739.303	2621.57
739.489	2644.1
739.674	2566.28
739.859	2609.28
740.045	2650.24
740.23	2572.42
740.416	2490.5
740.601	2553.99
740.786	2582.66
740.972	2558.08
741.157	2582.66
741.342	2543.75
741.528	2508.93
741.713	2482.31
741.898	2461.83
742.084	2490.5
742.269	2433.16
742.454	2605.19
742.639	2498.69
742.824	2345.09
743.01	2445.45
743.195	2568.32
743.38	2541.7
743.565	2398.34
743.75	2547.84
743.935	2265.22
744.12	2357.38
744.305	2435.21
744.49	2347.14
744.675	2281.61
744.86	2369.67
745.045	2449.54
745.23	2275.46
745.415	2361.48
745.6	2326.66
745.785	2265.22
745.97	2216.07
746.155	2160.78
746.34	2357.38
746.525	2375.81
746.71	2320.52
746.895	2162.83
747.079	2267.27
747.264	2183.31
747.449	2158.73
747.634	2125.96
747.819	2146.44
748.003	2336.9
748.188	2103.43
748.373	2238.6
748.557	2103.43
748.742	1982.6
748.927	2168.97
749.111	2060.43
749.296	2093.19
749.481	1955.98
749.665	2011.28
749.85	1953.93
750.034	2019.47
750.219	1992.84
750.404	2044.04
750.588	1958.03
750.773	2054.28
750.957	1962.12
751.141	1974.41
751.326	1943.69
751.51	1923.21
751.695	1945.74
751.879	1896.59
752.064	1972.36
752.248	1910.93
752.432	1859.73
752.617	1865.87
752.801	1833.1
752.985	1888.4
753.17	1804.43
753.354	1714.32
753.538	1861.77
753.722	1788.05
753.907	1667.22
754.091	1757.33
754.275	1749.14
754.459	1728.66
754.643	1558.67
754.828	1620.11
755.012	1661.07
755.196	1640.59
755.38	1542.29
755.564	1708.18
755.748	1601.68
755.932	1644.69
756.116	1613.97
756.3	1611.92
756.484	1544.34
756.668	1487
756.852	1452.18
757.036	1556.63
757.22	1558.67
757.404	1435.8
757.588	1525.91
757.772	1478.8
757.956	1511.57
758.14	1493.14
758.323	1439.89
758.507	1443.99
758.691	1460.37
758.875	1446.04
759.059	1360.02
759.242	1454.23
759.426	1380.5
759.61	1353.88
759.794	1403.03
759.977	1333.4
760.161	1462.42
760.345	1323.16
760.528	1437.84
760.712	1419.41
760.895	1360.02
761.079	1333.4
761.263	1341.59
761.446	1339.54
761.63	1314.97
761.813	1233.05
761.997	1243.29
762.18	1282.2
762.364	1224.86
762.547	1231
762.731	1349.78
762.914	1294.49
763.098	1169.56
763.281	1212.57
763.464	1228.95
763.648	1206.42
763.831	1216.66
764.015	1190.04
764.198	1179.8
764.381	1153.18
764.564	1224.86
764.748	1165.46
764.931	1190.04
765.114	1179.8
765.297	1259.67
765.481	1226.9
765.664	1101.98
765.847	1089.69
766.03	1095.83
766.213	1153.18
766.397	1085.59
766.58	1159.32
766.763	1155.23
766.946	1044.63
767.129	1126.55
767.312	1149.08
767.495	1085.59
767.678	1056.92
767.861	1089.69
768.044	1136.79
768.227	1077.4
768.41	1136.79
768.593	1093.79
768.776	1040.54
768.959	1026.2
769.142	1067.16
769.324	1058.97
769.507	1058.97
769.69	1073.31
769.873	1018.01
770.056	1151.13
770.239	1052.83
770.421	1005.72
770.604	1046.68
770.787	983.2
770.97	1011.87
771.152	893.09
771.335	925.85
771.518	972.96
771.7	950.43
771.883	1011.87
772.066	1022.11
772.248	919.71
772.431	987.29
772.613	989.34
772.796	960.67
772.978	946.33
773.161	911.52
773.343	929.95
773.526	950.43
773.708	929.95
773.891	866.46
774.073	876.7
774.256	948.38
774.438	946.33
774.621	874.65
774.803	839.84
774.985	893.09
775.168	872.61
775.35	856.22
775.532	843.93
775.715	843.93
775.897	850.08
776.079	833.69
776.261	841.89
776.444	809.12
776.626	723.1
776.808	827.55
776.99	710.82
777.173	811.17
777.355	714.91
777.537	811.17
777.719	782.49
777.901	669.86
778.083	716.96
778.265	786.59
778.447	798.88
778.629	651.42
778.811	690.34
778.993	802.97
779.175	792.73
779.357	725.15
779.539	735.39
779.721	706.72
779.903	682.14
780.085	641.18
780.267	628.9
780.449	778.4
780.631	698.53
780.812	739.49
780.994	649.38
781.176	645.28
781.358	639.14
781.54	710.82
781.721	579.75
781.903	596.13
782.085	575.65
782.267	686.24
782.448	614.56
782.63	616.61
782.812	671.9
782.993	567.46
783.175	622.75
783.357	528.55
783.538	598.18
783.72	620.71
783.901	546.98
784.083	465.06
784.264	516.26
784.446	557.22
784.627	575.65
784.809	526.5
784.99	610.47
785.172	538.79
785.353	503.97
785.535	491.68
785.716	553.12
785.897	538.79
786.079	577.7
786.26	551.07
786.441	571.55
786.623	549.03
786.804	454.82
786.985	501.92
787.167	534.69
787.348	540.83
787.529	452.77
787.71	481.44
787.891	514.21
788.073	422.05
788.254	452.77
788.435	487.59
788.616	522.4
788.797	448.68
788.978	426.15
789.159	463.01
789.34	471.2
789.522	471.2
789.703	456.87
789.884	438.44
790.065	460.96
790.246	403.62
790.427	450.72
790.607	385.19
790.788	438.44
790.969	430.24
791.15	415.91
791.331	381.09
791.512	387.24
791.693	372.9
791.874	428.2
792.054	405.67
792.235	387.24
792.416	336.04
792.597	432.29
792.778	323.75
792.958	413.86
793.139	313.51
793.32	381.09
793.5	344.23
793.681	397.48
793.862	356.52
794.042	360.61
794.223	321.7
794.404	352.42
794.584	374.95
794.765	229.54
794.945	368.81
795.126	301.22
795.306	430.24
795.487	264.36
795.667	325.8
795.848	440.48
796.028	233.64
796.209	278.69
796.389	348.33
796.57	354.47
796.75	446.63
796.93	313.51
797.111	309.41
797.291	360.61
797.471	362.66
797.652	241.83
797.832	266.41
798.012	346.28
798.192	295.08
798.373	297.13
798.553	307.37
798.733	252.07
798.913	217.26
799.093	233.64
799.274	241.83
799.454	311.46
799.634	305.32
799.814	329.89
799.994	313.51
800.174	264.36
800.354	286.89
800.534	262.31
800.714	233.64
800.894	274.6
801.074	319.65
801.254	252.07
801.434	252.07
801.614	309.41
801.794	233.64
801.974	753.82
802.154	262.31
802.334	383.14
802.514	258.21
802.693	299.17
802.873	231.59
803.053	198.82
803.233	295.08
803.413	198.82
803.592	231.59
803.772	288.93
803.952	299.17
804.131	262.31
804.311	178.34
804.491	262.31
804.67	221.35
804.85	196.78
805.03	282.79
805.209	274.6
805.389	192.68
805.568	211.11
805.748	252.07
805.928	307.37
806.107	272.55
806.287	239.78
806.466	198.82
806.646	225.45
806.825	209.06
807.004	176.3
807.184	237.74
807.363	202.92
807.543	211.11
807.722	176.3
807.901	186.54
808.081	186.54
808.26	161.96
808.439	217.26
808.619	202.92
808.798	239.78
808.977	237.74
809.156	157.86
809.336	204.97
809.515	209.06
809.694	168.1
809.873	180.39
810.052	260.26
810.231	217.26
810.411	166.06
810.59	184.49
810.769	215.21
810.948	166.06
811.127	131.24
811.306	161.96
811.485	159.91
811.664	221.35
811.843	164.01
812.022	219.3
812.201	129.19
812.38	233.64
812.559	88.23
812.737	135.34
812.916	112.81
813.095	196.78
813.274	121
813.453	254.12
813.632	209.06
813.811	151.72
813.989	149.67
814.168	170.15
814.347	71.85
814.526	143.53
814.704	231.59
814.883	198.82
815.062	106.67
815.24	153.77
815.419	178.34
815.598	200.87
815.776	170.15
815.955	145.58
816.133	73.9
816.312	129.19
816.49	139.43
816.669	215.21
816.847	209.06
817.026	133.29
817.204	100.52
817.383	164.01
817.561	123.05
817.74	180.39
817.918	137.38
818.097	153.77
818.275	118.95
818.453	145.58
818.632	110.76
818.81	135.34
818.988	131.24
819.167	155.82
819.345	137.38
819.523	157.86
819.701	149.67
819.879	131.24
820.058	116.9
820.236	108.71
820.414	180.39
820.592	137.38
820.77	121
820.948	129.19
821.127	186.54
821.305	147.62
821.483	116.9
821.661	149.67
821.839	116.9
822.017	88.23
822.195	77.99
822.373	209.06
822.551	133.29
822.729	135.34
822.907	135.34
823.085	131.24
823.262	147.62
823.44	123.05
823.618	123.05
823.796	96.43
823.974	145.58
824.152	116.9
824.329	88.23
824.507	65.71
824.685	139.43
824.863	172.2
825.04	147.62
825.218	127.14
825.396	102.57
825.574	125.1
825.751	164.01
825.929	51.37
826.107	34.99
826.284	139.43
826.462	174.25
826.639	57.51
826.817	112.81
826.994	80.04
827.172	45.23
827.349	155.82
827.527	75.95
827.704	127.14
827.882	176.3
828.059	80.04
828.237	139.43
828.414	77.99
828.591	43.18
828.769	73.9
828.946	63.66
829.124	71.85
829.301	104.62
829.478	57.51
829.655	73.9
829.833	94.38
830.01	53.42
830.187	147.62
830.364	94.38
830.542	73.9
830.719	127.14
830.896	55.47
831.073	65.71
831.25	114.86
831.427	137.38
831.604	127.14
831.782	16.55
831.959	69.8
832.136	106.67
832.313	168.1
832.49	26.79
832.667	75.95
832.844	86.19
833.021	176.3
833.198	118.95
833.374	84.14
833.551	141.48
833.728	92.33
833.905	30.89
834.082	39.08
834.259	153.77
834.436	92.33
834.612	90.28
834.789	102.57
834.966	133.29
835.143	88.23
835.319	110.76
835.496	59.56
835.673	8.36
835.85	41.13
836.026	110.76
836.203	116.9
836.38	14.51
836.556	141.48
836.733	14.51
836.909	104.62
837.086	51.37
837.262	98.47
837.439	41.13
837.616	51.37
837.792	26.79
837.968	106.67
838.145	92.33
838.321	57.51
838.498	55.47
838.674	30.89
838.851	63.66
839.027	100.52
839.203	4.27
839.38	143.53
839.556	47.27
839.732	2.22
839.909	45.23
840.085	73.9
840.261	47.27
840.437	82.09
840.614	51.37
840.79	82.09
840.966	57.51
841.142	26.79
841.318	22.7
841.494	63.66
841.671	145.58
841.847	51.37
842.023	80.04
842.199	4.27
842.375	37.03
842.551	18.6
842.727	57.51
842.903	-1.88
843.079	28.84
843.255	30.89
843.431	57.51
843.607	104.62
843.783	-10.07
843.959	157.86
844.134	80.04
844.31	51.37
844.486	71.85
844.662	24.75
844.838	34.99
845.013	47.27
845.189	45.23
845.365	37.03
845.541	112.81
845.716	141.48
845.892	16.55
846.068	30.89
846.244	98.47
846.419	-12.12
846.595	41.13
846.77	49.32
846.946	4.27
847.122	45.23
847.297	-3.93
847.473	53.42
847.648	34.99
847.824	-1.88
847.999	53.42
848.175	82.09
848.35	16.55
848.526	51.37
848.701	43.18
848.876	123.05
849.052	94.38
849.227	-32.6
849.403	84.14
849.578	57.51
849.753	4.27
849.929	116.9
850.104	26.79
850.279	82.09
850.454	37.03
850.63	116.9
850.805	63.66
850.98	104.62
851.155	53.42
851.33	77.99
851.505	51.37
851.681	26.79
851.856	8.36
852.031	90.28
852.206	22.7
852.381	67.75
852.556	-61.27
852.731	43.18
852.906	47.27
853.081	4.27
853.256	98.47
853.431	-10.07
853.606	28.84
853.781	-46.93
853.956	-18.26
854.131	-1.88
854.305	41.13
854.48	47.27
854.655	37.03
854.83	34.99
855.005	73.9
855.18	55.47
855.354	20.65
855.529	-14.17
855.704	12.46
855.879	-5.97
856.053	41.13
856.228	94.38
856.403	16.55
856.577	22.7
856.752	-26.45
856.926	43.18
857.101	53.42
857.276	-10.07
857.45	32.94
857.625	77.99
857.799	28.84
857.974	-32.6
858.148	10.41
858.323	43.18
858.497	-14.17
858.672	37.03
858.846	8.36
859.02	18.6
859.195	14.51
859.369	-8.02
859.543	47.27
859.718	20.65
859.892	77.99
860.066	43.18
860.241	-1.88
860.415	14.51
860.589	-5.97
860.763	-3.93
860.938	-36.69
861.112	71.85
861.286	37.03
861.46	-65.36
861.634	16.55
861.808	4.27
861.982	18.6
862.157	18.6
862.331	-46.93
862.505	59.56
862.679	57.51
862.853	-42.84
863.027	-36.69
863.201	73.9
863.375	22.7
863.549	65.71
863.722	10.41
863.896	43.18
864.07	-53.08
864.244	57.51
864.418	-10.07
864.592	-51.03
864.766	82.09
864.939	28.84
865.113	-32.6
865.287	-28.5
865.461	4.27
865.634	12.46
865.808	-26.45
865.982	34.99
866.156	-22.36
866.329	10.41
866.503	34.99
866.676	41.13
866.85	39.08
867.024	37.03
867.197	26.79
867.371	-14.17
867.544	-34.64
867.718	-24.4
867.891	-10.07
868.065	-22.36
868.238	20.65
868.412	22.7
868.585	47.27
868.759	2.22
868.932	45.23
869.105	-28.5
869.279	-5.97
869.452	-1.88
869.625	-12.12
869.799	41.13
869.972	55.47
870.145	30.89
870.319	57.51
870.492	98.47
870.665	-42.84
870.838	-3.93
871.011	6.31
871.185	2.22
871.358	-22.36
871.531	-10.07
871.704	47.27
871.877	41.13
872.05	71.85
872.223	-14.17
872.396	2.22
872.569	96.43
872.742	14.51
872.915	-14.17
873.088	24.75
873.261	28.84
873.434	4.27
873.607	-18.26
873.78	10.41
873.953	18.6
874.126	-28.5
874.299	-18.26
874.471	22.7
874.644	100.52
874.817	10.41
874.99	80.04
875.163	28.84
875.335	2.22
875.508	-12.12
875.681	73.9
875.853	-3.93
876.026	6.31
876.199	108.71
876.371	-26.45
876.544	57.51
876.717	45.23
876.889	65.71
877.062	39.08
877.234	14.51
877.407	-51.03
877.579	-24.4
877.752	-44.88
877.924	8.36
878.097	16.55
878.269	-1.88
878.442	14.51
878.614	-16.21
878.786	92.33
878.959	43.18
879.131	4.27
879.303	22.7
879.476	26.79
879.648	45.23
879.82	-36.69
879.993	2.22
880.165	2.22
880.337	-26.45
880.509	53.42
880.681	8.36
880.854	8.36
881.026	90.28
881.198	106.67
881.37	6.31
881.542	8.36
881.714	-69.46
881.886	14.51
882.058	2.22
882.23	-3.93
882.402	-81.75
882.574	18.6
882.746	-20.31
882.918	30.89
883.09	-10.07
883.262	-8.02
883.434	-40.79
883.606	37.03
883.778	28.84
883.95	53.42
884.122	-10.07
884.293	45.23
884.465	-3.93
884.637	-5.97
884.809	-36.69
884.98	-3.93
885.152	0.17
885.324	-1.88
885.496	30.89
885.667	61.61
885.839	-55.12
886.011	110.76
886.182	22.7
886.354	16.55
886.525	0.17
886.697	10.41
886.869	-30.55
887.04	18.6
887.212	-3.93
887.383	49.32
887.555	26.79
887.726	12.46
887.897	-40.79
888.069	28.84
888.24	-26.45
888.412	-73.56
888.583	94.38
888.754	-34.64
888.926	-40.79
889.097	12.46
889.268	-10.07
889.44	45.23
889.611	0.17
889.782	10.41
889.953	10.41
890.125	-53.08
890.296	34.99
890.467	26.79
890.638	0.17
890.809	41.13
890.98	6.31
891.151	12.46
891.323	49.32
891.494	49.32
891.665	20.65
891.836	-5.97
892.007	55.47
892.178	0.17
892.349	-28.5
892.52	-44.88
892.691	49.32
892.862	16.55
893.032	-34.64
893.203	-28.5
893.374	0.17
893.545	100.52
893.716	-32.6
893.887	26.79
894.057	30.89
894.228	-24.4
894.399	-40.79
894.57	2.22
894.74	0.17
894.911	-10.07
895.082	4.27
895.253	49.32
895.423	-59.22
895.594	-3.93
895.764	-61.27
895.935	32.94
896.106	16.55
896.276	-67.41
896.447	34.99
896.617	-34.64
896.788	-26.45
896.958	-69.46
897.129	20.65
897.299	24.75
897.47	-3.93
897.64	73.9
897.81	26.79
897.981	-59.22
898.151	-8.02
898.322	-12.12
898.492	20.65
898.662	4.27
898.832	28.84
899.003	16.55
899.173	86.19
899.343	-51.03
899.513	45.23
