Data from USB4F104151__42__11-51-48-070.txt Node

Date: Fri Mar 14 11:51:48 EDT 2025
User: louis
Spectrometer: USB4F10415
Trigger mode: 4
Integration Time (sec): 2.000000E-2
Scans to average: 1
Electric dark correction enabled: true
Nonlinearity correction enabled: false
Boxcar width: 0
XAxis mode: Wavelengths
Number of Pixels in Spectrum: 3648
>>>>>Begin Spectral Data<<<<<
178.204	-15.87
178.424	-15.87
178.644	-15.87
178.864	-60.93
179.084	-116.22
179.304	16.9
179.524	-40.45
179.744	10.75
179.964	-7.68
180.184	6.66
180.404	-32.26
180.624	2.56
180.844	4.61
181.064	-48.64
181.283	20.99
181.503	55.81
181.723	10.75
181.943	23.04
182.163	47.62
182.383	-22.02
182.602	66.05
182.822	80.38
183.042	-11.78
183.262	-60.93
183.482	-3.58
183.701	33.28
183.921	53.76
184.141	41.47
184.361	49.66
184.58	18.94
184.8	70.14
185.02	8.7
185.239	59.9
185.459	-60.93
185.679	29.18
185.898	20.99
186.118	-15.87
186.338	-24.06
186.557	76.29
186.777	100.86
186.997	43.52
187.216	31.23
187.436	119.29
187.655	-32.26
187.875	39.42
188.095	-15.87
188.314	-9.73
188.534	76.29
188.753	20.99
188.973	8.7
189.192	68.09
189.412	-40.45
189.631	-30.21
189.851	33.28
190.07	82.43
190.29	49.66
190.509	20.99
190.729	59.9
190.948	84.48
191.168	43.52
191.387	111.1
191.607	74.24
191.826	-15.87
192.045	37.38
192.265	31.23
192.484	39.42
192.704	49.66
192.923	8.7
193.142	23.04
193.362	53.76
193.581	129.53
193.8	2.56
194.02	51.71
194.239	41.47
194.458	20.99
194.678	102.91
194.897	-26.11
195.116	35.33
195.335	-15.87
195.555	43.52
195.774	51.71
195.993	12.8
196.212	-11.78
196.432	-1.54
196.651	18.94
196.87	14.85
197.089	82.43
197.308	23.04
197.528	-3.58
197.747	92.67
197.966	49.66
198.185	27.14
198.404	72.19
198.623	45.57
198.842	29.18
199.062	25.09
199.281	45.57
199.5	31.23
199.719	20.99
199.938	51.71
200.157	115.2
200.376	-7.68
200.595	18.94
200.814	-17.92
201.033	41.47
201.252	-46.59
201.471	35.33
201.69	16.9
201.909	39.42
202.128	-1.54
202.347	68.09
202.566	16.9
202.785	20.99
203.004	-42.5
203.223	23.04
203.442	37.38
203.661	68.09
203.879	-26.11
204.098	129.53
204.317	74.24
204.536	25.09
204.755	0.51
204.974	80.38
205.193	-9.73
205.411	61.95
205.63	64
205.849	-5.63
206.068	18.94
206.287	31.23
206.505	104.96
206.724	57.86
206.943	-9.73
207.162	107.01
207.381	23.04
207.599	66.05
207.818	-34.3
208.037	-40.45
208.255	25.09
208.474	-22.02
208.693	33.28
208.911	-7.68
209.13	82.43
209.349	27.14
209.567	47.62
209.786	123.39
210.005	74.24
210.223	53.76
210.442	-65.02
210.661	61.95
210.879	-22.02
211.098	-38.4
211.316	-24.06
211.535	4.61
211.753	45.57
211.972	-5.63
212.191	37.38
212.409	-24.06
212.628	74.24
212.846	4.61
213.065	45.57
213.283	76.29
213.502	-15.87
213.72	-32.26
213.938	29.18
214.157	-9.73
214.375	12.8
214.594	31.23
214.812	41.47
215.031	4.61
215.249	31.23
215.467	45.57
215.686	-46.59
215.904	23.04
216.122	23.04
216.341	150.01
216.559	25.09
216.778	10.75
216.996	45.57
217.214	35.33
217.432	-5.63
217.651	-11.78
217.869	-7.68
218.087	45.57
218.306	-5.63
218.524	111.1
218.742	-24.06
218.96	86.53
219.179	-40.45
219.397	23.04
219.615	98.81
219.833	-52.74
220.051	55.81
220.27	66.05
220.488	-28.16
220.706	-1.54
220.924	-15.87
221.142	59.9
221.36	4.61
221.578	49.66
221.796	33.28
222.015	49.66
222.233	51.71
222.451	119.29
222.669	27.14
222.887	18.94
223.105	2.56
223.323	0.51
223.541	29.18
223.759	31.23
223.977	78.33
224.195	131.58
224.413	59.9
224.631	51.71
224.849	10.75
225.067	20.99
225.285	12.8
225.503	41.47
225.721	18.94
225.939	41.47
226.157	-15.87
226.375	27.14
226.592	66.05
226.81	64
227.028	92.67
227.246	35.33
227.464	25.09
227.682	66.05
227.9	-17.92
228.117	-13.82
228.335	53.76
228.553	55.81
228.771	29.18
228.989	74.24
229.206	127.49
229.424	6.66
229.642	74.24
229.86	53.76
230.077	-5.63
230.295	-7.68
230.513	35.33
230.731	12.8
230.948	64
231.166	131.58
231.384	12.8
231.601	59.9
231.819	20.99
232.037	41.47
232.254	-44.54
232.472	80.38
232.689	47.62
232.907	33.28
233.125	27.14
233.342	72.19
233.56	-17.92
233.777	20.99
233.995	74.24
234.213	33.28
234.43	47.62
234.648	37.38
234.865	33.28
235.083	-56.83
235.3	4.61
235.518	27.14
235.735	92.67
235.953	23.04
236.17	4.61
236.388	8.7
236.605	37.38
236.822	39.42
237.04	-11.78
237.257	59.9
237.475	68.09
237.692	31.23
237.909	55.81
238.127	109.05
238.344	27.14
238.562	107.01
238.779	4.61
238.996	8.7
239.214	12.8
239.431	59.9
239.648	37.38
239.865	100.86
240.083	84.48
240.3	55.81
240.517	45.57
240.735	-13.82
240.952	-22.02
241.169	41.47
241.386	29.18
241.603	70.14
241.821	47.62
242.038	6.66
242.255	-28.16
242.472	-32.26
242.689	35.33
242.907	84.48
243.124	80.38
243.341	59.9
243.558	66.05
243.775	37.38
243.992	20.99
244.209	41.47
244.426	115.2
244.643	-13.82
244.86	35.33
245.078	20.99
245.295	37.38
245.512	-26.11
245.729	90.62
245.946	88.57
246.163	23.04
246.38	-30.21
246.597	-11.78
246.814	-60.93
247.031	59.9
247.248	29.18
247.464	45.57
247.681	51.71
247.898	55.81
248.115	-79.36
248.332	-22.02
248.549	45.57
248.766	18.94
248.983	92.67
249.2	39.42
249.417	37.38
249.633	-28.16
249.85	74.24
250.067	-13.82
250.284	64
250.501	104.96
250.717	37.38
250.934	41.47
251.151	27.14
251.368	78.33
251.585	61.95
251.801	-15.87
252.018	-38.4
252.235	61.95
252.451	-13.82
252.668	0.51
252.885	43.52
253.102	20.99
253.318	31.23
253.535	49.66
253.752	49.66
253.968	43.52
254.185	20.99
254.401	74.24
254.618	23.04
254.835	-17.92
255.051	117.25
255.268	33.28
255.484	6.66
255.701	45.57
255.917	-44.54
256.134	16.9
256.351	-1.54
256.567	-22.02
256.784	55.81
257	29.18
257.217	45.57
257.433	-11.78
257.65	107.01
257.866	84.48
258.082	-15.87
258.299	51.71
258.515	45.57
258.732	-3.58
258.948	31.23
259.165	80.38
259.381	41.47
259.597	0.51
259.814	14.85
260.03	72.19
260.246	27.14
260.463	31.23
260.679	59.9
260.895	37.38
261.112	109.05
261.328	-7.68
261.544	43.52
261.761	88.57
261.977	37.38
262.193	43.52
262.409	53.76
262.626	-77.31
262.842	33.28
263.058	20.99
263.274	4.61
263.49	72.19
263.707	141.82
263.923	33.28
264.139	72.19
264.355	4.61
264.571	14.85
264.787	25.09
265.004	43.52
265.22	72.19
265.436	-5.63
265.652	0.51
265.868	39.42
266.084	59.9
266.3	31.23
266.516	-58.88
266.732	90.62
266.948	23.04
267.164	61.95
267.38	20.99
267.596	31.23
267.812	-11.78
268.028	72.19
268.244	37.38
268.46	-15.87
268.676	-9.73
268.892	82.43
269.108	-60.93
269.324	57.86
269.54	8.7
269.756	-11.78
269.972	-30.21
270.188	4.61
270.403	31.23
270.619	-9.73
270.835	33.28
271.051	45.57
271.267	-34.3
271.483	66.05
271.698	23.04
271.914	49.66
272.13	76.29
272.346	33.28
272.562	6.66
272.777	37.38
272.993	53.76
273.209	55.81
273.425	14.85
273.64	14.85
273.856	31.23
274.072	-5.63
274.287	64
274.503	47.62
274.719	59.9
274.934	8.7
275.15	-26.11
275.366	4.61
275.581	6.66
275.797	29.18
276.012	39.42
276.228	53.76
276.444	31.23
276.659	102.91
276.875	-3.58
277.09	76.29
277.306	82.43
277.521	37.38
277.737	59.9
277.952	20.99
278.168	31.23
278.383	6.66
278.599	8.7
278.814	49.66
279.03	-11.78
279.245	51.71
279.461	41.47
279.676	-9.73
279.892	-7.68
280.107	6.66
280.322	23.04
280.538	47.62
280.753	12.8
280.969	4.61
281.184	16.9
281.399	31.23
281.615	31.23
281.83	27.14
282.045	8.7
282.26	-38.4
282.476	66.05
282.691	-32.26
282.906	31.23
283.122	37.38
283.337	94.72
283.552	43.52
283.767	66.05
283.983	74.24
284.198	4.61
284.413	70.14
284.628	-19.97
284.843	49.66
285.058	55.81
285.274	8.7
285.489	-67.07
285.704	35.33
285.919	-28.16
286.134	59.9
286.349	51.71
286.564	-46.59
286.779	29.18
286.995	12.8
287.21	23.04
287.425	94.72
287.64	25.09
287.855	-17.92
288.07	31.23
288.285	16.9
288.5	33.28
288.715	41.47
288.93	2.56
289.145	88.57
289.36	141.82
289.575	8.7
289.79	31.23
290.004	-26.11
290.219	10.75
290.434	64
290.649	20.99
290.864	-26.11
291.079	25.09
291.294	84.48
291.509	12.8
291.724	49.66
291.938	-7.68
292.153	-3.58
292.368	-32.26
292.583	92.67
292.798	49.66
293.012	90.62
293.227	84.48
293.442	70.14
293.657	12.8
293.871	55.81
294.086	4.61
294.301	98.81
294.516	64
294.73	35.33
294.945	49.66
295.16	61.95
295.374	53.76
295.589	43.52
295.804	-9.73
296.018	47.62
296.233	88.57
296.447	96.77
296.662	-24.06
296.877	82.43
297.091	64
297.306	74.24
297.52	-44.54
297.735	113.15
297.949	0.51
298.164	-22.02
298.378	43.52
298.593	14.85
298.807	0.51
299.022	43.52
299.236	84.48
299.451	10.75
299.665	35.33
299.88	59.9
300.094	39.42
300.309	45.57
300.523	-9.73
300.737	92.67
300.952	49.66
301.166	6.66
301.381	-32.26
301.595	82.43
301.809	4.61
302.024	-62.98
302.238	2.56
302.452	20.99
302.667	51.71
302.881	96.77
303.095	23.04
303.309	90.62
303.524	47.62
303.738	6.66
303.952	0.51
304.166	115.2
304.381	25.09
304.595	14.85
304.809	55.81
305.023	4.61
305.237	-36.35
305.452	-56.83
305.666	25.09
305.88	82.43
306.094	64
306.308	100.86
306.522	49.66
306.736	104.96
306.95	64
307.164	37.38
307.379	84.48
307.593	70.14
307.807	117.25
308.021	45.57
308.235	23.04
308.449	-13.82
308.663	8.7
308.877	14.85
309.091	-34.3
309.305	6.66
309.519	-15.87
309.733	145.92
309.947	-17.92
310.161	23.04
310.374	25.09
310.588	125.44
310.802	-19.97
311.016	-3.58
311.23	55.81
311.444	39.42
311.658	-42.5
311.872	0.51
312.085	-28.16
312.299	47.62
312.513	39.42
312.727	39.42
312.941	6.66
313.154	55.81
313.368	82.43
313.582	-5.63
313.796	104.96
314.009	96.77
314.223	64
314.437	84.48
314.651	43.52
314.864	29.18
315.078	-3.58
315.292	33.28
315.505	4.61
315.719	68.09
315.933	-17.92
316.146	45.57
316.36	-24.06
316.573	33.28
316.787	55.81
317.001	47.62
317.214	8.7
317.428	31.23
317.641	49.66
317.855	47.62
318.068	25.09
318.282	57.86
318.495	100.86
318.709	35.33
318.922	27.14
319.136	92.67
319.349	90.62
319.563	31.23
319.776	-17.92
319.99	27.14
320.203	0.51
320.417	-54.78
320.63	41.47
320.843	64
321.057	80.38
321.27	0.51
321.483	53.76
321.697	88.57
321.91	57.86
322.124	25.09
322.337	84.48
322.55	35.33
322.763	31.23
322.977	51.71
323.19	8.7
323.403	8.7
323.617	18.94
323.83	94.72
324.043	57.86
324.256	45.57
324.469	2.56
324.683	72.19
324.896	14.85
325.109	29.18
325.322	43.52
325.535	57.86
325.748	82.43
325.962	0.51
326.175	23.04
326.388	35.33
326.601	43.52
326.814	35.33
327.027	55.81
327.24	-15.87
327.453	-11.78
327.666	74.24
327.879	39.42
328.092	82.43
328.305	20.99
328.518	59.9
328.731	2.56
328.944	-34.3
329.157	59.9
329.37	-15.87
329.583	59.9
329.796	86.53
330.009	57.86
330.222	80.38
330.435	102.91
330.648	-3.58
330.861	27.14
331.073	47.62
331.286	55.81
331.499	49.66
331.712	-15.87
331.925	-3.58
332.138	61.95
332.35	70.14
332.563	12.8
332.776	39.42
332.989	51.71
333.202	14.85
333.414	25.09
333.627	37.38
333.84	82.43
334.053	68.09
334.265	12.8
334.478	33.28
334.691	74.24
334.903	2.56
335.116	45.57
335.329	64
335.541	-30.21
335.754	117.25
335.966	31.23
336.179	-1.54
336.392	76.29
336.604	45.57
336.817	14.85
337.029	2.56
337.242	33.28
337.454	64
337.667	47.62
337.88	125.44
338.092	49.66
338.305	33.28
338.517	25.09
338.729	107.01
338.942	2.56
339.154	6.66
339.367	64
339.579	2.56
339.792	2.56
340.004	70.14
340.217	-28.16
340.429	86.53
340.641	16.9
340.854	55.81
341.066	-1.54
341.278	18.94
341.491	2.56
341.703	29.18
341.915	33.28
342.128	51.71
342.34	68.09
342.552	10.75
342.764	-11.78
342.977	-11.78
343.189	25.09
343.401	0.51
343.613	31.23
343.826	43.52
344.038	-13.82
344.25	4.61
344.462	-38.4
344.674	35.33
344.886	-28.16
345.099	49.66
345.311	55.81
345.523	94.72
345.735	23.04
345.947	45.57
346.159	92.67
346.371	78.33
346.583	-13.82
346.795	45.57
347.007	20.99
347.219	78.33
347.431	14.85
347.643	90.62
347.855	14.85
348.067	41.47
348.279	27.14
348.491	-1.54
348.703	57.86
348.915	-30.21
349.127	57.86
349.339	37.38
349.551	18.94
349.763	25.09
349.975	66.05
350.187	41.47
350.399	33.28
350.61	-34.3
350.822	-5.63
351.034	68.09
351.246	98.81
351.458	29.18
351.669	37.38
351.881	29.18
352.093	72.19
352.305	82.43
352.517	14.85
352.728	102.91
352.94	84.48
353.152	72.19
353.363	16.9
353.575	31.23
353.787	66.05
353.999	74.24
354.21	55.81
354.422	4.61
354.633	27.14
354.845	53.76
355.057	29.18
355.268	43.52
355.48	47.62
355.692	64
355.903	27.14
356.115	64
356.326	31.23
356.538	117.25
356.749	57.86
356.961	55.81
357.172	78.33
357.384	35.33
357.595	121.34
357.807	27.14
358.018	31.23
358.23	66.05
358.441	-7.68
358.653	31.23
358.864	55.81
359.075	35.33
359.287	-40.45
359.498	82.43
359.709	51.71
359.921	12.8
360.132	-38.4
360.344	-22.02
360.555	66.05
360.766	84.48
360.977	74.24
361.189	72.19
361.4	-54.78
361.611	8.7
361.823	109.05
362.034	96.77
362.245	119.29
362.456	43.52
362.667	74.24
362.879	10.75
363.09	94.72
363.301	-26.11
363.512	29.18
363.723	12.8
363.935	14.85
364.146	68.09
364.357	-5.63
364.568	94.72
364.779	55.81
364.99	16.9
365.201	51.71
365.412	72.19
365.623	-11.78
365.834	119.29
366.045	51.71
366.256	43.52
366.467	61.95
366.678	27.14
366.889	-46.59
367.1	164.35
367.311	66.05
367.522	80.38
367.733	107.01
367.944	68.09
368.155	-22.02
368.366	23.04
368.577	78.33
368.788	94.72
368.999	23.04
369.209	51.71
369.42	113.15
369.631	117.25
369.842	29.18
370.053	80.38
370.264	68.09
370.474	70.14
370.685	51.71
370.896	27.14
371.107	12.8
371.317	29.18
371.528	4.61
371.739	4.61
371.95	45.57
372.16	4.61
372.371	51.71
372.582	68.09
372.792	-28.16
373.003	53.76
373.214	-3.58
373.424	143.87
373.635	43.52
373.846	53.76
374.056	47.62
374.267	80.38
374.477	47.62
374.688	94.72
374.898	37.38
375.109	37.38
375.319	27.14
375.53	78.33
375.74	10.75
375.951	10.75
376.161	82.43
376.372	47.62
376.582	51.71
376.793	-5.63
377.003	49.66
377.214	55.81
377.424	88.57
377.635	33.28
377.845	76.29
378.055	72.19
378.266	18.94
378.476	20.99
378.686	111.1
378.897	23.04
379.107	86.53
379.317	59.9
379.528	-11.78
379.738	45.57
379.948	0.51
380.158	70.14
380.369	78.33
380.579	76.29
380.789	49.66
380.999	68.09
381.21	49.66
381.42	51.71
381.63	39.42
381.84	96.77
382.05	70.14
382.261	61.95
382.471	-15.87
382.681	18.94
382.891	31.23
383.101	20.99
383.311	59.9
383.521	31.23
383.731	57.86
383.941	23.04
384.151	90.62
384.361	59.9
384.571	80.38
384.781	41.47
384.991	94.72
385.201	94.72
385.411	55.81
385.621	51.71
385.831	14.85
386.041	4.61
386.251	57.86
386.461	37.38
386.671	31.23
386.881	98.81
387.091	47.62
387.301	147.97
387.511	-1.54
387.72	51.71
387.93	94.72
388.14	-1.54
388.35	-22.02
388.56	53.76
388.769	94.72
388.979	61.95
389.189	12.8
389.399	53.76
389.609	109.05
389.818	88.57
390.028	109.05
390.238	-42.5
390.447	45.57
390.657	-28.16
390.867	49.66
391.076	64
391.286	47.62
391.496	37.38
391.705	55.81
391.915	35.33
392.125	53.76
392.334	64
392.544	41.47
392.753	45.57
392.963	18.94
393.172	109.05
393.382	74.24
393.591	88.57
393.801	123.39
394.01	47.62
394.22	37.38
394.429	127.49
394.639	147.97
394.848	78.33
395.058	100.86
395.267	98.81
395.477	115.2
395.686	51.71
395.895	135.68
396.105	133.63
396.314	115.2
396.524	25.09
396.733	70.14
396.942	100.86
397.152	109.05
397.361	94.72
397.57	121.34
397.78	70.14
397.989	66.05
398.198	107.01
398.407	143.87
398.617	90.62
398.826	43.52
399.035	51.71
399.244	152.06
399.453	45.57
399.663	80.38
399.872	109.05
400.081	102.91
400.29	127.49
400.499	66.05
400.708	127.49
400.917	27.14
401.127	57.86
401.336	57.86
401.545	113.15
401.754	94.72
401.963	133.63
402.172	137.73
402.381	76.29
402.59	100.86
402.799	59.9
403.008	139.77
403.217	158.21
403.426	104.96
403.635	107.01
403.844	86.53
404.053	90.62
404.262	88.57
404.471	104.96
404.68	119.29
404.888	143.87
405.097	156.16
405.306	131.58
405.515	164.35
405.724	127.49
405.933	131.58
406.142	203.26
406.35	182.78
406.559	139.77
406.768	115.2
406.977	231.93
407.185	219.64
407.394	174.59
407.603	158.21
407.812	182.78
408.02	90.62
408.229	190.97
408.438	209.4
408.646	195.07
408.855	170.49
409.064	244.22
409.272	217.6
409.481	248.32
409.69	213.5
409.898	195.07
410.107	297.47
410.315	233.98
410.524	223.74
410.733	242.17
410.941	348.67
411.15	309.76
411.358	285.18
411.567	287.23
411.775	289.28
411.984	346.62
412.192	305.66
412.401	373.24
412.609	369.15
412.818	426.49
413.026	432.63
413.234	416.25
413.443	334.33
413.651	373.24
413.86	457.21
414.068	504.31
414.276	502.26
414.485	381.43
414.693	539.13
414.901	614.9
415.11	584.18
415.318	578.04
415.526	643.57
415.734	676.34
415.943	565.75
416.151	610.81
416.359	600.57
416.567	670.2
416.776	696.82
416.984	764.4
417.192	813.56
417.4	819.7
417.608	838.13
417.817	770.55
418.025	911.86
418.233	948.72
418.441	877.04
418.649	1053.17
418.857	999.92
419.065	989.68
419.273	1036.78
419.481	1042.93
419.689	1118.7
419.897	1167.85
420.105	1163.76
420.313	1233.39
420.521	1327.6
420.729	1260.01
420.937	1393.13
421.145	1393.13
421.353	1384.94
421.561	1532.39
421.769	1573.35
421.977	1606.12
422.185	1585.64
422.393	1755.62
422.601	1788.39
422.809	1802.72
423.017	1855.97
423.224	1958.37
423.432	2048.48
423.64	1935.84
423.848	2179.55
424.056	2146.78
424.263	2232.8
424.471	2281.95
424.679	2271.71
424.887	2351.58
425.094	2523.61
425.302	2429.4
425.51	2476.51
425.718	2658.78
425.925	2609.62
426.133	2818.52
426.341	2902.48
426.548	2994.64
426.756	3127.76
426.964	3209.68
427.171	3338.7
427.379	3391.95
427.586	3451.34
427.794	3576.27
428.001	3693
428.209	3975.62
428.417	3670.47
428.624	4116.93
428.832	4170.18
429.039	4020.67
429.247	4010.43
429.454	4506.04
429.662	4809.14
429.869	4405.69
430.076	4696.5
430.284	4714.94
430.491	4784.57
430.699	5063.09
430.906	5087.67
431.114	5173.68
431.321	5382.57
431.528	5439.92
431.736	5949.86
431.943	6138.27
432.15	5894.57
432.358	5982.63
432.565	6431.13
432.772	6308.26
432.979	6726.04
433.187	6701.47
433.394	6693.27
433.601	7141.78
433.808	7358.86
434.016	7113.11
434.223	7500.17
434.43	7958.92
434.637	7938.44
434.844	8468.86
435.052	8554.88
435.259	8511.87
435.466	8542.59
435.673	8391.04
435.88	8919.42
436.087	9222.52
436.294	9290.1
436.501	9308.53
436.708	9619.82
436.915	9599.34
437.122	10320.23
437.329	10295.65
437.537	10455.39
437.743	10617.18
437.95	10510.69
438.157	10989.91
438.364	11309.4
438.571	11575.63
438.778	11829.58
438.985	12763.45
439.192	12142.92
439.399	12525.89
439.606	12079.43
439.813	13015.35
440.02	13572.4
440.227	13467.95
440.433	13343.03
440.64	13703.47
440.847	13689.14
441.054	14231.85
441.261	15147.29
441.467	14706.98
441.674	15149.34
441.881	15702.29
442.088	15638.8
442.294	15427.86
442.501	16079.11
442.708	16187.66
442.914	16986.36
443.121	17580.28
443.328	17158.39
443.534	18252.01
443.741	17809.65
443.948	17658.1
444.154	18993.37
444.361	18596.07
444.568	18905.31
444.774	19185.88
444.981	19099.87
445.187	19587.29
445.394	20871.36
445.6	20375.75
445.807	22227.12
446.013	21285.05
446.22	21870.77
446.426	22624.42
446.633	22720.68
446.839	23505.05
447.046	22651.05
447.252	23900.31
447.459	23928.98
447.665	23646.36
447.871	24932.48
448.078	25907.32
448.284	24656.01
448.491	25356.41
448.697	26636.39
448.903	26822.76
449.11	27224.16
449.316	26458.22
449.522	26992.74
449.728	27703.39
449.935	28098.64
450.141	28014.68
450.347	28692.55
450.553	27533.4
450.76	28166.23
450.966	29272.13
451.172	28934.21
451.378	29509.69
451.584	29122.63
451.791	29612.09
451.997	29425.73
452.203	29909.05
452.409	30414.9
452.615	29798.46
452.821	28792.9
453.027	28624.97
453.233	30066.74
453.44	29075.52
453.646	29302.85
453.852	29675.58
454.058	29923.38
454.264	29206.59
454.47	29548.61
454.676	28741.71
454.882	29896.76
455.088	27136.1
455.294	27672.67
455.5	27975.77
455.705	28313.68
455.911	27185.25
456.117	26445.93
456.323	26310.77
456.529	24995.97
456.735	26210.42
456.941	25448.57
457.147	24983.68
457.352	24348.81
457.558	23898.26
457.764	24115.34
457.97	23898.26
458.176	23134.37
458.381	23335.07
458.587	22001.84
458.793	22036.66
458.999	20967.62
459.204	22218.92
459.41	21758.13
459.616	20445.38
459.821	20385.99
460.027	20345.03
460.233	19685.59
460.438	18929.89
460.644	19153.12
460.85	18327.78
461.055	17774.83
461.261	17803.5
461.466	16548.1
461.672	16148.75
461.878	17223.93
462.083	15821.07
462.289	15902.99
462.494	15657.23
462.7	14700.83
462.905	14434.6
463.111	15059.23
463.316	14922.01
463.522	14842.14
463.727	14762.27
463.932	14731.55
464.138	14498.08
464.343	14807.33
464.549	14141.74
464.754	14741.79
464.959	14623.01
465.165	14596.39
465.37	13814.06
465.575	13566.26
465.781	14186.79
465.986	14227.75
466.191	13594.93
466.397	13332.79
466.602	12702.01
466.807	13023.55
467.012	13347.12
467.218	13062.46
467.423	12779.84
467.628	13074.74
467.833	13580.59
468.038	13248.82
468.244	12939.58
468.449	13392.18
468.654	12820.8
468.859	12659.01
469.064	12409.15
469.269	12200.26
469.474	12187.97
469.679	12337.48
469.885	12198.21
470.09	12355.91
470.295	11991.37
470.5	11979.08
470.705	12024.14
470.91	11696.46
471.115	11772.24
471.32	11856.2
471.525	11729.23
471.73	11413.84
471.935	11456.85
472.139	11032.92
472.344	11006.3
472.549	11104.6
472.754	10996.06
472.959	10764.64
473.164	10420.58
473.369	10301.79
473.574	10738.01
473.778	10629.47
473.983	10555.74
474.188	10570.08
474.393	10056.04
474.598	10146.15
474.802	9668.97
475.007	9996.65
475.212	10078.57
475.417	9656.68
475.621	9527.66
475.826	9701.74
476.031	9498.99
476.235	9300.34
476.44	9415.02
476.645	9103.73
476.849	9345.39
477.054	9271.67
477.259	8907.13
477.463	9064.82
477.668	8759.67
477.872	8917.37
478.077	8556.93
478.282	8630.65
478.486	8499.58
478.691	8472.96
478.895	8325.5
479.1	8286.59
479.304	8274.31
479.509	8073.6
479.713	8376.7
479.918	8208.77
480.122	7917.96
480.326	8122.76
480.531	8049.03
480.735	7860.62
480.94	7764.36
481.144	8237.44
481.348	7805.32
481.553	7813.51
481.757	7614.86
481.961	7889.29
482.166	7946.63
482.37	7844.23
482.574	7719.31
482.778	7911.82
482.983	7979.4
483.187	7647.63
483.391	7754.12
483.595	7608.72
483.8	7770.51
484.004	7723.4
484.208	7793.03
484.412	7833.99
484.616	7735.69
484.821	7965.06
485.025	7604.62
485.229	7891.34
485.433	7684.49
485.637	7922.06
485.841	7618.96
486.045	7821.7
486.249	7692.68
486.453	7582.09
486.657	7795.08
486.861	7608.72
487.065	7498.13
487.269	7790.99
487.473	7508.37
487.677	7774.6
487.881	7803.27
488.085	7768.46
488.289	7776.65
488.493	7745.93
488.697	7633.29
488.901	7719.31
489.105	7721.35
489.309	8026.5
489.512	7813.51
489.716	7905.67
489.92	7790.99
490.124	7745.93
490.328	7926.15
490.531	7977.35
490.735	7995.78
490.939	7948.68
491.143	8036.74
491.346	7967.11
491.55	8253.83
491.754	8161.67
491.958	8259.97
492.161	8219.01
492.365	8159.62
492.569	8227.2
492.772	8270.21
492.976	8386.94
493.18	8333.7
493.383	8526.21
493.587	8587.64
493.79	8384.9
493.994	8612.22
494.197	8632.7
494.401	8778.11
494.605	8698.24
494.808	8952.18
495.012	8874.36
495.215	8903.03
495.419	9040.25
495.622	8962.42
495.825	9015.67
496.029	8974.71
496.232	9329.01
496.436	9273.71
496.639	9582.96
496.843	9455.98
497.046	9771.37
497.249	9836.91
497.453	10103.14
497.656	9957.74
497.859	9980.26
498.063	10078.57
498.266	10152.29
498.469	10406.24
498.673	10496.35
498.876	10715.48
499.079	10543.46
499.282	10649.95
499.485	10852.7
499.689	11012.44
499.892	11137.37
500.095	11512.14
500.298	11307.35
500.501	11403.6
500.705	11555.15
500.908	11948.36
501.111	11972.94
501.314	11979.08
501.517	12194.12
501.72	12419.39
501.923	12255.56
502.126	12472.64
502.329	12796.22
502.532	12867.9
502.735	12972.35
502.938	13168.95
503.141	13457.71
503.344	13537.59
503.547	13556.02
503.75	13809.97
503.953	13799.73
504.156	14209.32
504.359	14164.26
504.562	14248.23
504.765	14764.32
504.968	14905.63
505.17	14997.79
505.373	14846.24
505.576	15364.37
505.779	15515.92
505.982	15307.03
506.185	15816.97
506.387	16048.4
506.59	16040.2
506.793	16759.04
506.996	16527.62
507.198	16877.82
507.401	16951.55
507.604	17062.14
507.807	17180.92
508.009	17361.14
508.212	17381.62
508.415	17989.87
508.617	18071.79
508.82	18227.43
509.022	18354.41
509.225	18499.81
509.428	19022.05
509.63	18966.75
509.833	18997.47
510.035	19802.32
510.238	19701.97
510.44	19736.79
510.643	19980.5
510.845	20216.01
511.048	20025.55
511.25	20707.52
511.453	20558.02
511.655	21506.23
511.858	21123.26
512.06	21475.51
512.262	22020.27
512.465	21571.77
512.667	22247.6
512.87	22556.84
513.072	22368.43
513.274	23058.59
513.477	23265.44
513.679	23298.2
513.881	23668.89
514.084	23898.26
514.286	23926.93
514.488	24254.61
514.69	24404.11
514.893	24797.32
515.095	24920.2
515.297	25581.69
515.499	25542.78
515.701	25938.04
515.904	26161.26
516.106	26472.56
516.308	26517.61
516.51	26869.86
516.712	26910.82
516.914	27433.05
517.116	27719.77
517.318	28076.12
517.52	28076.12
517.722	28557.39
517.925	28844.1
518.127	29177.92
518.329	29622.33
518.531	29145.16
518.733	30107.7
518.935	30275.63
519.136	30306.35
519.338	30539.82
519.54	30863.4
519.742	30941.22
519.944	31426.59
520.146	31801.37
520.348	31709.21
520.55	32122.9
520.752	32409.62
520.954	32929.8
521.155	33021.96
521.357	33300.48
521.559	33499.14
521.761	34023.42
521.963	34177.01
522.164	34394.1
522.366	34557.94
522.568	34813.93
522.77	35026.92
522.971	35502.05
523.173	35213.29
523.375	35774.43
523.576	35907.55
523.778	36005.85
523.98	36337.62
524.181	36710.35
524.383	36859.85
524.584	37525.44
524.786	37345.22
524.988	36982.73
525.189	37558.21
525.391	37726.14
525.592	38225.85
525.794	38471.6
525.995	38721.46
526.197	38608.82
526.398	38596.53
526.6	39032.75
526.801	39323.56
527.003	39311.27
527.204	39143.34
527.406	39853.98
527.607	40175.51
527.808	40302.49
528.01	39477.16
528.211	39960.48
528.412	40898.45
528.614	40783.76
528.815	40837.01
529.016	41043.85
529.218	41033.61
529.419	41281.42
529.62	40949.65
529.822	40886.16
530.023	41492.36
530.224	41478.02
530.425	41803.65
530.626	41293.71
530.828	41529.22
531.029	42475.38
531.23	41701.25
531.431	41471.88
531.632	41783.17
531.833	42309.5
532.035	42098.56
532.236	42243.96
532.437	42758
532.638	42280.83
532.839	42602.36
533.04	42497.91
533.241	42551.16
533.442	42698.61
533.643	42993.52
533.844	42917.75
534.045	42837.87
534.246	42573.69
534.447	43093.87
534.648	42872.69
534.849	43173.74
535.05	42567.54
535.251	42997.62
535.451	43202.41
535.652	43415.4
535.853	43140.97
536.054	43284.33
536.255	43143.02
536.456	42932.08
536.657	43911.01
536.857	43308.91
537.058	42917.75
537.259	43536.23
537.46	43550.57
537.66	43198.32
537.861	43640.68
538.062	43237.23
538.263	43585.38
538.463	43251.56
538.664	43239.28
538.865	43290.48
539.065	43827.04
539.266	43165.55
539.466	44033.89
539.667	43292.52
539.868	43855.71
540.068	43286.38
540.269	43280.24
540.469	43642.73
540.67	43462.5
540.87	43362.15
541.071	43302.76
541.271	43407.21
541.472	43204.46
541.672	43730.79
541.873	43509.61
542.073	43063.15
542.274	43929.44
542.474	43466.6
542.675	43149.17
542.875	43702.12
543.075	43667.3
543.276	43091.82
543.476	43636.58
543.676	43368.3
543.877	43841.38
544.077	43857.76
544.277	43849.57
544.478	43325.29
544.678	43814.76
544.878	43497.32
545.078	43536.23
545.279	42950.51
545.479	43296.62
545.679	43683.69
545.879	43448.17
546.079	43442.03
546.28	43351.91
546.48	43194.22
546.68	43687.78
546.88	43470.7
547.08	43818.85
547.28	43560.81
547.48	43292.52
547.68	43515.75
547.88	43470.7
548.081	43624.29
548.281	43517.8
548.481	43077.49
548.681	43685.73
548.881	43810.66
549.081	43480.94
549.28	43364.2
549.48	43988.83
549.68	43722.6
549.88	43911.01
550.08	43337.58
550.28	43448.17
550.48	43304.81
550.68	43788.13
550.88	43257.71
551.08	43564.9
551.279	43747.17
551.479	42887.03
551.679	43607.91
551.879	43364.2
552.079	43652.97
552.278	43102.06
552.478	43589.48
552.678	43753.32
552.878	43626.34
553.077	43239.28
553.277	43118.45
553.477	43652.97
553.676	42979.18
553.876	43353.96
554.076	43159.41
554.275	43341.67
554.475	42989.42
554.674	43259.76
554.874	43423.59
555.074	42930.03
555.273	42923.89
555.473	43304.81
555.672	43028.34
555.872	42927.98
556.071	43386.73
556.271	42833.78
556.47	42622.84
556.67	42786.68
556.869	42772.34
557.068	42739.57
557.268	42676.08
557.467	42964.85
557.667	42876.79
557.866	42508.15
558.065	42805.11
558.265	42598.26
558.464	42145.66
558.663	42962.8
558.863	41979.78
559.062	42968.94
559.261	42053.5
559.461	42704.76
559.66	42018.69
559.859	41957.25
560.058	41848.71
560.258	42112.89
560.457	41893.76
560.656	42659.7
560.855	41736.07
561.054	42100.61
561.253	41406.34
561.453	41797.51
561.652	42073.98
561.851	41615.24
562.05	41746.31
562.249	41781.12
562.448	41965.44
562.647	41762.69
562.846	41543.56
563.045	41383.82
563.244	41060.24
563.443	41189.26
563.642	40609.68
563.841	41252.75
564.04	40863.63
564.239	41197.45
564.438	40683.41
564.637	40931.22
564.836	40875.92
565.035	40435.61
565.234	40511.38
565.432	40331.16
565.631	40413.08
565.83	40449.94
566.029	39978.91
566.228	39952.29
566.427	39950.24
566.625	40038.3
566.824	39782.3
567.023	40175.51
567.222	39210.92
567.42	39829.41
567.619	39718.82
567.818	39708.58
568.016	39284.65
568.215	39649.19
568.414	39571.36
568.612	39665.57
568.811	39045.04
569.01	38825.9
569.208	38762.42
569.407	39051.18
569.605	38705.07
569.804	39126.95
570.002	38664.11
570.201	38604.72
570.4	38678.45
570.598	38379.45
570.797	38021.05
570.995	38440.89
571.193	37701.57
571.392	38365.11
571.59	38287.29
571.789	37760.96
571.987	37908.41
572.186	37615.55
572.384	37316.55
572.582	37617.6
572.781	37433.28
572.979	36870.09
573.177	37629.89
573.376	37365.7
573.574	36673.49
573.772	36829.13
573.971	36653.01
574.169	36464.6
574.367	36687.82
574.565	36788.17
574.763	36677.58
574.962	35962.84
575.16	35899.36
575.358	36337.62
575.556	35952.6
575.754	36521.94
575.952	35788.77
576.151	36003.8
576.349	35344.36
576.547	35219.43
576.745	35657.7
576.943	35655.65
577.141	35246.05
577.339	35581.92
577.537	35254.25
577.735	35147.75
577.933	34910.19
578.131	35108.84
578.329	34895.85
578.527	34363.38
578.725	34674.67
578.923	34863.08
579.121	34568.18
579.319	34422.77
579.516	34891.76
579.714	34424.82
579.912	34152.44
580.11	34162.68
580.308	34076.66
580.506	33755.13
580.704	33587.2
580.901	34025.46
581.099	34029.56
581.297	33431.55
581.495	33237
581.692	33699.84
581.89	33081.35
582.088	33411.07
582.285	33024.01
582.483	32872.46
582.681	32657.42
582.878	32606.22
583.076	32581.65
583.274	32897.03
583.471	32366.61
583.669	32481.3
583.866	32315.41
584.064	32354.32
584.262	32176.15
584.459	32487.44
584.657	32051.22
584.854	32419.86
585.052	31471.65
585.249	31604.77
585.447	31879.19
585.644	31584.29
585.841	31502.37
586.039	31655.96
586.236	31006.76
586.434	31551.52
586.631	31176.74
586.828	30935.08
587.026	30980.14
587.223	31342.63
587.42	30896.17
587.618	30783.53
587.815	30410.8
588.012	30607.4
588.21	30437.42
588.407	30801.96
588.604	30179.38
588.801	30218.29
588.999	30144.56
589.196	30347.31
589.393	30085.17
589.59	29937.72
589.787	29425.73
589.984	29505.6
590.182	29259.84
590.379	29249.6
590.576	29227.07
590.773	29100.1
590.97	29272.13
591.167	29308.99
591.364	29022.28
591.561	29210.69
591.758	28741.71
591.955	28715.08
592.152	29118.53
592.349	28596.3
592.546	28860.49
592.743	28272.72
592.94	28131.41
593.137	28330.06
593.334	28588.11
593.531	28186.71
593.727	28362.83
593.924	27756.63
594.121	27730.01
594.318	27910.23
594.515	27531.36
594.712	27895.89
594.908	27504.73
595.105	27486.3
595.302	27236.45
595.499	27400.29
595.696	27482.2
595.892	27256.93
596.089	27177.06
596.286	27351.13
596.482	27058.28
596.679	26908.77
596.876	26751.08
597.072	26560.62
597.269	26884.2
597.466	26441.84
597.662	26407.02
597.859	26630.25
598.055	26259.57
598.252	26214.51
598.448	26257.52
598.645	25952.37
598.841	25903.22
599.038	26243.18
599.234	25843.83
599.431	25856.12
599.627	25643.13
599.824	25712.76
600.02	25524.35
600.217	25802.87
600.413	25444.48
600.609	25389.18
600.806	25102.46
601.002	25268.35
601.198	24940.68
601.395	24989.83
601.591	24823.94
601.787	25010.31
601.984	24770.69
602.18	25098.37
602.376	24785.03
602.572	24729.73
602.769	24293.52
602.965	24385.68
603.161	24727.69
603.357	24258.7
603.553	24248.46
603.75	24283.28
603.946	24225.93
604.142	24260.75
604.338	23769.24
604.534	24037.52
604.73	23724.18
604.926	23580.82
605.122	23593.11
605.318	23345.31
605.514	23283.87
605.71	23652.5
605.906	23212.19
606.102	23369.88
606.298	23576.73
606.494	23083.17
606.69	23173.28
606.886	23488.67
607.082	22804.64
607.278	23210.14
607.474	22712.49
607.67	22888.61
607.866	22546.6
608.062	22853.8
608.257	22440.11
608.453	22597.8
608.649	22530.22
608.845	22261.93
609.041	22669.48
609.236	22380.71
609.432	22517.93
609.628	22235.31
609.824	21944.5
610.019	22175.92
610.215	22083.76
610.411	22071.47
610.606	21893.3
610.802	21864.63
610.998	22046.9
611.193	21612.73
611.389	21737.65
611.584	21805.24
611.78	21522.62
611.976	21573.81
612.171	21696.69
612.367	21610.68
612.562	21594.29
612.758	21240
612.953	21502.14
613.149	21571.77
613.344	21053.63
613.539	21522.62
613.735	21424.31
613.93	21360.83
614.126	21321.91
614.321	21348.54
614.517	21223.61
614.712	20897.99
614.907	20797.63
615.103	20938.94
615.298	20754.63
615.493	21070.01
615.688	20633.8
615.884	21018.82
616.079	20625.61
616.274	20388.04
616.47	20676.8
616.665	20525.25
616.86	20449.48
617.055	20422.86
617.25	20351.18
617.445	20392.14
617.641	20025.55
617.836	20289.74
618.031	20003.02
618.226	20228.3
618.421	20134.09
618.616	20007.12
618.811	19878.1
619.006	19904.72
619.201	19468.5
619.396	19765.46
619.591	19462.36
619.786	19751.12
619.981	19347.67
620.176	19667.16
620.371	19151.07
620.566	19210.46
620.761	18915.55
620.956	19353.82
621.151	18739.43
621.346	18983.13
621.541	18497.77
621.735	19103.96
621.93	18649.32
622.125	18522.34
622.32	18262.25
622.515	18372.84
622.709	18114.8
622.904	17983.73
623.099	17856.75
623.294	18176.23
623.488	17844.46
623.683	18079.98
623.878	17469.69
624.072	17703.15
624.267	17410.29
624.462	17436.92
624.656	17311.99
624.851	17398.01
625.046	17041.66
625.24	17058.04
625.435	16795.9
625.629	16888.06
625.824	16795.9
626.018	16789.76
626.213	16206.09
626.407	16484.61
626.602	16038.16
626.796	16328.97
626.991	16232.71
627.185	16099.59
627.38	16025.87
627.574	15851.79
627.768	15724.82
627.963	15896.85
628.157	15569.17
628.352	15782.16
628.546	15573.27
628.74	15470.87
628.935	15204.63
629.129	15454.48
629.323	15157.53
629.517	15155.48
629.712	15040.79
629.906	15329.56
630.1	14774.56
630.294	14729.5
630.489	14590.24
630.683	14737.7
630.877	14485.79
631.071	14635.3
631.265	14616.86
631.459	14424.36
631.653	14463.27
631.848	14291.24
632.042	14106.92
632.236	14080.3
632.43	14022.95
632.624	13834.54
632.818	14018.86
633.012	13664.56
633.206	13617.46
633.4	13660.46
633.594	13689.14
633.788	13568.3
633.982	13398.32
634.176	13353.27
634.369	12878.14
634.563	13203.77
634.757	12929.34
634.951	13068.6
635.145	12804.41
635.339	13257.01
635.533	12831.04
635.726	12675.39
635.92	12640.58
636.114	12544.32
636.308	12380.48
636.501	12749.12
636.695	12355.91
636.889	12341.57
637.083	12099.91
637.276	12214.6
637.47	12167.49
637.664	11997.51
637.857	11913.55
638.051	11936.07
638.244	11866.44
638.438	11919.69
638.632	11866.44
638.825	11540.82
639.019	11596.11
639.212	11389.27
639.406	11295.06
639.599	11399.51
639.793	11417.94
639.986	11108.69
640.18	11413.84
640.373	11159.89
640.567	10875.23
640.76	10967.38
640.954	10791.26
641.147	10660.19
641.34	10819.93
641.534	10725.72
641.727	10662.24
641.92	10656.09
642.114	10459.49
642.307	10631.52
642.5	10453.34
642.694	10195.3
642.887	10266.98
643.08	10336.61
643.273	10008.94
643.467	10082.66
643.66	9984.36
643.853	10053.99
644.046	9765.23
644.239	9918.82
644.432	9654.64
644.626	9732.46
644.819	9632.11
645.012	9507.18
645.205	9392.5
645.398	9623.92
645.591	9372.02
645.784	9296.24
645.977	9228.66
646.17	9214.32
646.363	9275.76
646.556	9138.55
646.749	9191.8
646.942	9138.55
647.135	8964.47
647.328	8878.46
647.521	8974.71
647.714	8606.08
647.907	8550.78
648.099	8857.98
648.292	8753.53
648.485	8558.97
648.678	8497.53
648.871	8296.83
649.064	8438.14
649.256	8323.46
649.449	8276.35
649.642	8237.44
649.835	8239.49
650.027	8288.64
650.22	8163.72
650.413	8198.53
650.605	8192.39
650.798	7833.99
650.991	7833.99
651.183	8032.65
651.376	7842.18
651.568	7788.94
651.761	7731.59
651.954	7811.46
652.146	7657.87
652.339	7825.8
652.531	7727.5
652.724	7782.79
652.916	7625.1
653.109	7496.08
653.301	7555.47
653.494	7520.65
653.686	7512.46
653.879	7387.54
654.071	7362.96
654.263	7082.39
654.456	7117.2
654.648	7111.06
654.84	7063.96
655.033	7014.8
655.225	7090.58
655.417	6984.09
655.61	6859.16
655.802	7100.82
655.994	6728.09
656.186	6801.82
656.379	6902.17
656.571	6728.09
656.763	6779.29
656.955	6760.86
657.148	6691.23
657.34	6795.67
657.532	6551.96
657.724	6640.03
657.916	6576.54
658.108	6644.12
658.3	6488.48
658.492	6461.85
658.684	6355.36
658.876	6412.7
659.068	6304.16
659.26	6353.31
659.452	6394.27
659.644	6109.6
659.836	6177.19
660.028	6193.57
660.22	6072.74
660.412	6095.27
660.604	5917.09
660.796	6136.23
660.988	5947.81
661.18	5939.62
661.372	5994.92
661.563	5913
661.755	5786.02
661.947	5845.41
662.139	5865.89
662.331	5788.07
662.522	5841.32
662.714	5628.33
662.906	5642.67
663.097	5544.36
663.289	5523.88
663.481	5448.11
663.673	5366.19
663.864	5333.42
664.056	5362.09
664.247	5573.03
664.439	5413.29
664.631	5331.37
664.822	5421.49
665.014	5288.37
665.205	5288.37
665.397	5235.12
665.588	5249.46
665.78	5202.35
665.971	5220.78
666.163	5257.65
666.354	5204.4
666.546	5024.18
666.737	5011.89
666.929	5040.56
667.12	4999.6
667.311	5108.15
667.503	4856.25
667.694	5001.65
667.885	4942.26
668.077	4870.58
668.268	4936.12
668.459	4837.81
668.651	4843.96
668.842	4784.57
669.033	4813.24
669.224	4759.99
669.416	4815.29
669.607	4626.87
669.798	4655.54
669.989	4733.37
670.18	4600.25
670.371	4712.89
670.563	4608.44
670.754	4571.58
670.945	4573.63
671.136	4626.87
671.327	4575.67
671.518	4520.38
671.709	4323.77
671.9	4499.9
672.091	4428.22
672.282	4463.04
672.473	4473.28
672.664	4579.77
672.855	4483.52
673.046	4600.25
673.237	4317.63
673.428	4403.64
673.619	4364.73
673.809	4381.12
674	4311.49
674.191	4446.65
674.382	4293.05
674.573	4252.1
674.764	4217.28
674.954	4358.59
675.145	4243.9
675.336	4313.53
675.527	4237.76
675.717	4248
675.908	4084.16
676.099	4260.29
676.289	4065.73
676.48	4063.68
676.671	4123.07
676.861	4100.55
677.052	4209.09
677.243	4233.66
677.433	4209.09
677.624	4149.7
677.814	4207.04
678.005	4104.64
678.195	4243.9
678.386	4069.83
678.576	4116.93
678.767	4069.83
678.957	4002.24
679.148	4084.16
679.338	4002.24
679.529	4106.69
679.719	4053.44
679.909	4059.59
680.1	4106.69
680.29	4069.83
680.481	4098.5
680.671	4022.72
680.861	4032.96
681.052	4028.87
681.242	4047.3
681.432	4047.3
681.622	3981.76
681.813	4006.34
682.003	4116.93
682.193	3916.23
682.383	4096.45
682.573	4049.35
682.764	3928.52
682.954	3996.1
683.144	4159.94
683.334	3981.76
683.524	4028.87
683.714	4002.24
683.904	4059.59
684.094	3957.19
684.284	4004.29
684.474	4004.29
684.664	4061.63
684.854	3992
685.044	3944.9
685.234	3871.17
685.424	3879.36
685.614	3912.13
685.804	3979.72
685.994	3897.8
686.184	3914.18
686.374	3932.61
686.564	3959.24
686.753	3914.18
686.943	3795.4
687.133	3842.5
687.323	3736.01
687.513	3908.04
687.702	3824.07
687.892	3774.92
688.082	3895.75
688.272	3891.65
688.461	3789.25
688.651	3867.08
688.841	3871.17
689.03	3746.25
689.22	3813.83
689.41	3797.45
689.599	3762.63
689.789	3602.89
689.979	3762.63
690.168	3678.66
690.358	3707.34
690.547	3768.77
690.737	3813.83
690.926	3680.71
691.116	3613.13
691.305	3684.81
691.495	3625.42
691.684	3666.38
691.874	3688.9
692.063	3697.1
692.252	3531.21
692.442	3537.35
692.631	3467.72
692.82	3568.07
693.01	3475.91
693.199	3584.46
693.388	3510.73
693.578	3647.94
693.767	3588.55
693.956	3457.48
694.146	3559.88
694.335	3473.87
694.524	3529.16
694.713	3586.51
694.902	3551.69
695.092	3539.4
695.281	3484.11
695.47	3523.02
695.659	3394
695.848	3508.68
696.037	3424.72
696.226	3471.82
696.415	3457.48
696.604	3549.64
696.793	3455.44
696.982	3414.48
697.171	3506.63
697.36	3514.83
697.549	3441.1
697.738	3549.64
697.927	3486.15
698.116	3361.23
698.305	3486.15
698.494	3396.04
698.683	3371.47
698.872	3410.38
699.061	3377.61
699.25	3457.48
699.438	3385.8
699.627	3381.71
699.816	3471.82
700.005	3541.45
700.193	3367.37
700.382	3301.84
700.571	3367.37
700.76	3459.53
700.948	3482.06
701.137	3381.71
701.326	3389.9
701.514	3299.79
701.703	3477.96
701.892	3297.74
702.08	3346.89
702.269	3396.04
702.457	3514.83
702.646	3357.13
702.834	3394
703.023	3326.41
703.212	3602.89
703.4	3301.84
703.589	3289.55
703.777	3447.24
703.965	3312.08
704.154	3365.32
704.342	3258.83
704.531	3350.99
704.719	3207.63
704.907	3453.39
705.096	3260.88
705.284	3334.61
705.472	3193.3
705.661	3297.74
705.849	3477.96
706.037	3326.41
706.226	3297.74
706.414	3246.54
706.602	3262.93
706.79	3307.98
706.979	3260.88
707.167	3297.74
707.355	3367.37
707.543	3242.45
707.731	3477.96
707.919	3289.55
708.107	3162.58
708.296	3101.14
708.484	3256.78
708.672	3209.68
708.86	3328.46
709.048	3295.69
709.236	3299.79
709.424	3238.35
709.612	3275.21
709.8	3236.3
709.988	3115.47
710.176	3217.87
710.364	3248.59
710.551	3232.21
710.739	3172.82
710.927	3201.49
711.115	3289.55
711.303	3258.83
711.491	3125.71
711.679	3144.14
711.866	3258.83
712.054	3187.15
712.242	3273.17
712.43	3406.28
712.617	3107.28
712.805	3097.04
712.993	3277.26
713.181	3211.73
713.368	3246.54
713.556	3107.28
713.744	3094.99
713.931	3160.53
714.119	3043.79
714.306	3267.02
714.494	3158.48
714.682	3244.49
714.869	3113.42
715.057	3133.9
715.244	3107.28
715.432	3138
715.619	3181.01
715.807	3213.77
715.994	3197.39
716.182	3232.21
716.369	3099.09
716.556	3248.59
716.744	3123.66
716.931	3267.02
717.119	3086.8
717.306	3260.88
717.493	3164.62
717.681	3203.54
717.868	3224.01
718.055	3117.52
718.242	3150.29
718.43	3193.3
718.617	3193.3
718.804	3039.7
718.991	3123.66
719.179	3109.33
719.366	3195.34
719.553	3070.42
719.74	3002.83
719.927	3191.25
720.114	3107.28
720.301	3008.98
720.488	3021.27
720.676	3013.07
720.863	2929.11
721.05	3129.81
721.237	2943.44
721.424	3127.76
721.611	3127.76
721.798	3039.7
721.985	2988.5
722.172	3115.47
722.358	3023.31
722.545	2982.35
722.732	2939.35
722.919	3088.85
723.106	3062.23
723.293	3051.99
723.48	3008.98
723.667	3107.28
723.853	3043.79
724.04	3027.41
724.227	3058.13
724.414	2994.64
724.6	3058.13
724.787	2941.4
724.974	2978.26
725.161	3006.93
725.347	3084.75
725.534	3045.84
725.72	3086.8
725.907	3045.84
726.094	2965.97
726.28	2963.92
726.467	3002.83
726.653	2902.48
726.84	3000.79
727.027	3029.46
727.213	2929.11
727.4	3019.22
727.586	2959.83
727.773	2896.34
727.959	3029.46
728.145	2920.92
728.332	3015.12
728.518	2902.48
728.705	3015.12
728.891	2955.73
729.077	2879.96
729.264	2968.02
729.45	3025.36
729.636	3000.79
729.823	2863.57
730.009	3006.93
730.195	2841.04
730.382	3015.12
730.568	2855.38
730.754	2859.48
730.94	2900.44
731.126	2863.57
731.313	2857.43
731.499	2978.26
731.685	2871.76
731.871	2925.01
732.057	2996.69
732.243	2965.97
732.429	2904.53
732.615	2935.25
732.801	2976.21
732.987	2871.76
733.173	2939.35
733.359	2912.72
733.545	2902.48
733.731	2806.23
733.917	2914.77
734.103	2925.01
734.289	2861.52
734.475	2767.32
734.661	2927.06
734.847	2806.23
735.033	2875.86
735.219	2882
735.404	2865.62
735.59	2736.6
735.776	2783.7
735.962	2752.98
736.148	2918.87
736.333	2765.27
736.519	2771.41
736.705	2712.02
736.89	2714.07
737.076	2808.28
737.262	2718.17
737.447	2806.23
737.633	2765.27
737.819	2736.6
738.004	2744.79
738.19	2675.16
738.375	2714.07
738.561	2785.75
738.747	2795.99
738.932	2722.26
739.118	2791.89
739.303	2589.14
739.489	2769.37
739.674	2560.47
739.859	2669.02
740.045	2652.63
740.23	2583
740.416	2570.71
740.601	2736.6
740.786	2752.98
740.972	2638.3
741.157	2429.4
741.342	2580.95
741.528	2574.81
741.713	2535.9
741.898	2613.72
742.084	2607.58
742.269	2441.69
742.454	2482.65
742.639	2595.29
742.824	2544.09
743.01	2535.9
743.195	2488.79
743.38	2468.31
743.565	2511.32
743.75	2474.46
743.935	2415.07
744.12	2468.31
744.305	2447.83
744.49	2445.79
744.675	2331.1
744.86	2331.1
745.045	2312.67
745.23	2314.72
745.415	2386.4
745.6	2290.14
745.785	2294.24
745.97	2279.9
746.155	2234.85
746.34	2341.34
746.525	2327
746.71	2324.96
746.895	2134.5
747.079	2288.09
747.264	2292.19
747.449	2179.55
747.634	2148.83
747.819	2247.13
748.003	2208.22
748.188	2263.52
748.373	2134.5
748.557	2085.34
748.742	2154.98
748.927	2071.01
749.111	2040.29
749.296	2128.35
749.481	1991.14
749.665	2103.78
749.85	1974.75
750.034	1991.14
750.219	2021.86
750.404	1917.41
750.588	2075.1
750.773	2003.43
750.957	1964.51
751.141	1925.6
751.326	1921.51
751.51	1886.69
751.695	1858.02
751.879	1882.6
752.064	1944.03
752.248	1708.52
752.432	1812.96
752.617	1831.4
752.801	1763.81
752.985	1892.84
753.17	1841.64
753.354	1796.58
753.538	1792.48
753.722	1778.15
753.907	1800.68
754.091	1757.67
754.275	1655.27
754.459	1692.13
754.643	1786.34
754.828	1749.48
755.012	1583.59
755.196	1681.89
755.38	1571.3
755.564	1655.27
755.748	1583.59
755.932	1698.28
756.116	1671.65
756.3	1573.35
756.484	1599.98
756.668	1593.83
756.852	1454.57
757.036	1536.49
757.22	1427.95
757.404	1507.82
757.588	1452.52
757.772	1665.51
757.956	1649.13
758.14	1462.76
758.323	1511.91
758.507	1532.39
758.691	1411.56
758.875	1462.76
759.059	1444.33
759.242	1429.99
759.426	1403.37
759.61	1522.15
759.794	1475.05
759.977	1393.13
760.161	1438.19
760.345	1444.33
760.528	1372.65
760.712	1376.75
760.895	1241.58
761.079	1380.84
761.263	1276.4
761.446	1360.36
761.63	1384.94
761.813	1393.13
761.997	1298.92
762.18	1303.02
762.364	1286.64
762.547	1333.74
762.731	1159.66
762.914	1278.44
763.098	1212.91
763.281	1268.2
763.464	1264.11
763.648	1184.24
763.831	1284.59
764.015	1227.25
764.198	1122.8
764.381	1272.3
764.564	1335.79
764.748	1210.86
764.931	1204.72
765.114	1274.35
765.297	1241.58
765.481	1151.47
765.664	1147.37
765.847	1237.49
766.03	1200.62
766.213	1098.22
766.397	1159.66
766.58	1151.47
766.763	1264.11
766.946	1098.22
767.129	1085.94
767.312	1126.89
767.495	1049.07
767.678	1118.7
767.861	1130.99
768.044	1163.76
768.227	1227.25
768.41	1120.75
768.593	1149.42
768.776	1174
768.959	1126.89
769.142	1083.89
769.324	1094.13
769.507	1102.32
769.69	1067.5
769.873	1044.98
770.056	1112.56
770.239	1032.69
770.421	975.35
770.604	1079.79
770.787	956.91
770.97	1018.35
771.152	938.48
771.335	993.78
771.518	967.15
771.7	1028.59
771.883	987.63
772.066	1004.02
772.248	985.58
772.431	1012.21
772.613	969.2
772.796	942.58
772.978	1018.35
773.161	893.43
773.343	1004.02
773.526	874.99
773.708	967.15
773.891	922.1
774.073	915.95
774.256	942.58
774.438	829.94
774.621	901.62
774.803	821.75
774.985	895.47
775.168	868.85
775.35	926.19
775.532	866.8
775.715	852.47
775.897	827.89
776.079	983.54
776.261	870.9
776.444	739.83
776.626	860.66
776.808	799.22
776.99	750.07
777.173	729.59
777.355	840.18
777.537	840.18
777.719	817.65
777.901	813.56
778.083	772.6
778.265	739.83
778.447	733.68
778.629	770.55
778.811	793.08
778.993	809.46
779.175	788.98
779.357	717.3
779.539	698.87
779.721	788.98
779.903	678.39
780.085	723.44
780.267	729.59
780.449	688.63
780.631	700.92
780.812	756.21
780.994	721.4
781.176	662.01
781.358	672.25
781.54	645.62
781.721	700.92
781.903	737.78
782.085	551.42
782.267	645.62
782.448	692.73
782.63	573.94
782.812	639.48
782.993	616.95
783.175	639.48
783.357	684.53
783.538	582.14
783.72	616.95
783.901	616.95
784.083	588.28
784.264	627.19
784.446	629.24
784.627	612.85
784.809	508.41
784.99	522.74
785.172	498.17
785.353	575.99
785.535	485.88
785.716	561.66
785.897	559.61
786.079	557.56
786.26	545.27
786.441	567.8
786.623	408.06
786.804	481.78
786.985	465.4
787.167	526.84
787.348	475.64
787.529	567.8
787.71	647.67
787.891	463.35
788.073	487.93
788.254	492.02
788.435	518.65
788.616	557.56
788.797	440.83
788.978	475.64
789.159	408.06
789.34	530.94
789.522	479.74
789.703	465.4
789.884	432.63
790.065	440.83
790.246	338.43
790.427	459.26
790.607	465.4
790.788	520.7
790.969	430.59
791.15	436.73
791.331	397.82
791.512	477.69
791.693	455.16
791.874	438.78
792.054	451.07
792.235	426.49
792.416	393.72
792.597	375.29
792.778	410.11
792.958	422.39
793.139	379.39
793.32	446.97
793.5	387.58
793.681	449.02
793.862	406.01
794.042	340.47
794.223	348.67
794.404	444.92
794.584	403.96
794.765	385.53
794.945	408.06
795.126	375.29
795.306	363
795.487	307.71
795.667	369.15
795.848	477.69
796.028	383.48
796.209	334.33
796.389	338.43
796.57	352.76
796.75	258.56
796.93	340.47
797.111	313.85
797.291	336.38
797.471	334.33
797.652	311.8
797.832	322.04
798.012	299.52
798.192	301.56
798.373	322.04
798.553	358.91
798.733	313.85
798.913	289.28
799.093	305.66
799.274	295.42
799.454	377.34
799.634	311.8
799.814	352.76
799.994	293.37
800.174	258.56
800.354	328.19
800.534	297.47
800.714	313.85
800.894	252.41
801.074	195.07
801.254	311.8
801.434	289.28
801.614	281.08
801.794	250.36
801.974	711.16
802.154	322.04
802.334	332.28
802.514	309.76
802.693	258.56
802.873	328.19
803.053	301.56
803.233	332.28
803.413	270.84
803.592	233.98
803.772	340.47
803.952	201.21
804.131	256.51
804.311	248.32
804.491	322.04
804.67	201.21
804.85	244.22
805.03	262.65
805.209	266.75
805.389	264.7
805.568	285.18
805.748	213.5
805.928	229.88
806.107	203.26
806.287	176.64
806.466	250.36
806.646	217.6
806.825	180.73
807.004	242.17
807.184	268.8
807.363	256.51
807.543	229.88
807.722	256.51
807.901	195.07
808.081	168.45
808.26	285.18
808.439	254.46
808.619	266.75
808.798	193.02
808.977	193.02
809.156	270.84
809.336	246.27
809.515	317.95
809.694	131.58
809.873	215.55
810.052	178.69
810.231	111.1
810.411	184.83
810.59	324.09
810.769	182.78
810.948	211.45
811.127	131.58
811.306	248.32
811.485	160.25
811.664	203.26
811.843	205.31
812.022	219.64
812.201	201.21
812.38	256.51
812.559	223.74
812.737	180.73
812.916	201.21
813.095	197.12
813.274	227.84
813.453	217.6
813.632	217.6
813.811	233.98
813.989	229.88
814.168	145.92
814.347	162.3
814.526	150.01
814.704	168.45
814.883	315.9
815.062	154.11
815.24	211.45
815.419	178.69
815.598	221.69
815.776	145.92
815.955	150.01
816.133	154.11
816.312	213.5
816.49	180.73
816.669	205.31
816.847	170.49
817.026	193.02
817.204	180.73
817.383	178.69
817.561	143.87
817.74	244.22
817.918	143.87
818.097	70.14
818.275	135.68
818.453	209.4
818.632	119.29
818.81	125.44
818.988	174.59
819.167	133.63
819.345	119.29
819.523	166.4
819.701	139.77
819.879	119.29
820.058	72.19
820.236	123.39
820.414	139.77
820.592	162.3
820.77	180.73
820.948	115.2
821.127	137.73
821.305	178.69
821.483	164.35
821.661	121.34
821.839	98.81
822.017	147.97
822.195	139.77
822.373	199.16
822.551	180.73
822.729	190.97
822.907	143.87
823.085	135.68
823.262	129.53
823.44	168.45
823.618	123.39
823.796	131.58
823.974	127.49
824.152	160.25
824.329	70.14
824.507	172.54
824.685	104.96
824.863	59.9
825.04	168.45
825.218	96.77
825.396	127.49
825.574	100.86
825.751	158.21
825.929	57.86
826.107	76.29
826.284	123.39
826.462	152.06
826.639	109.05
826.817	107.01
826.994	76.29
827.172	53.76
827.349	123.39
827.527	145.92
827.704	164.35
827.882	156.16
828.059	166.4
828.237	145.92
828.414	190.97
828.591	53.76
828.769	68.09
828.946	47.62
829.124	141.82
829.301	154.11
829.478	98.81
829.655	139.77
829.833	107.01
830.01	59.9
830.187	127.49
830.364	152.06
830.542	147.97
830.719	111.1
830.896	137.73
831.073	117.25
831.25	98.81
831.427	141.82
831.604	168.45
831.782	59.9
831.959	104.96
832.136	82.43
832.313	84.48
832.49	84.48
832.667	94.72
832.844	47.62
833.021	111.1
833.198	88.57
833.374	53.76
833.551	86.53
833.728	88.57
833.905	90.62
834.082	57.86
834.259	74.24
834.436	78.33
834.612	72.19
834.789	72.19
834.966	76.29
835.143	135.68
835.319	66.05
835.496	59.9
835.673	78.33
835.85	154.11
836.026	55.81
836.203	66.05
836.38	178.69
836.556	16.9
836.733	88.57
836.909	98.81
837.086	33.28
837.262	125.44
837.439	70.14
837.616	107.01
837.792	102.91
837.968	49.66
838.145	135.68
838.321	68.09
838.498	53.76
838.674	86.53
838.851	98.81
839.027	53.76
839.203	45.57
839.38	49.66
839.556	57.86
839.732	57.86
839.909	27.14
840.085	127.49
840.261	43.52
840.437	115.2
840.614	47.62
840.79	59.9
840.966	59.9
841.142	45.57
841.318	82.43
841.494	59.9
841.671	94.72
841.847	76.29
842.023	115.2
842.199	90.62
842.375	61.95
842.551	14.85
842.727	59.9
842.903	61.95
843.079	90.62
843.255	166.4
843.431	43.52
843.607	90.62
843.783	61.95
843.959	61.95
844.134	10.75
844.31	129.53
844.486	47.62
844.662	74.24
844.838	59.9
845.013	70.14
845.189	82.43
845.365	61.95
845.541	84.48
845.716	70.14
845.892	-5.63
846.068	70.14
846.244	80.38
846.419	86.53
846.595	53.76
846.77	80.38
846.946	117.25
847.122	115.2
847.297	18.94
847.473	78.33
847.648	37.38
847.824	61.95
847.999	12.8
848.175	55.81
848.35	84.48
848.526	41.47
848.701	43.52
848.876	86.53
849.052	59.9
849.227	68.09
849.403	31.23
849.578	29.18
849.753	-3.58
849.929	23.04
850.104	43.52
850.279	51.71
850.454	18.94
850.63	35.33
850.805	33.28
850.98	59.9
851.155	33.28
851.33	12.8
851.505	82.43
851.681	117.25
851.856	-44.54
852.031	59.9
852.206	37.38
852.381	2.56
852.556	76.29
852.731	76.29
852.906	156.16
853.081	49.66
853.256	109.05
853.431	-67.07
853.606	37.38
853.781	-5.63
853.956	-1.54
854.131	70.14
854.305	27.14
854.48	18.94
854.655	47.62
854.83	57.86
855.005	88.57
855.18	57.86
855.354	39.42
855.529	88.57
855.704	-13.82
855.879	27.14
856.053	78.33
856.228	-7.68
856.403	27.14
856.577	119.29
856.752	43.52
856.926	-11.78
857.101	-13.82
857.276	59.9
857.45	53.76
857.625	43.52
857.799	8.7
857.974	53.76
858.148	78.33
858.323	6.66
858.497	6.66
858.672	45.57
858.846	-1.54
859.02	-17.92
859.195	-32.26
859.369	31.23
859.543	33.28
859.718	-7.68
859.892	41.47
860.066	55.81
860.241	-22.02
860.415	39.42
860.589	18.94
860.763	86.53
860.938	66.05
861.112	27.14
861.286	41.47
861.46	-1.54
861.634	72.19
861.808	70.14
861.982	-34.3
862.157	20.99
862.331	72.19
862.505	-1.54
862.679	-5.63
862.853	98.81
863.027	12.8
863.201	90.62
863.375	66.05
863.549	78.33
863.722	10.75
863.896	41.47
864.07	2.56
864.244	31.23
864.418	4.61
864.592	18.94
864.766	53.76
864.939	47.62
865.113	-48.64
865.287	20.99
865.461	23.04
865.634	-9.73
865.808	31.23
865.982	20.99
866.156	-22.02
866.329	4.61
866.503	74.24
866.676	12.8
866.85	-54.78
867.024	-19.97
867.197	47.62
867.371	25.09
867.544	-17.92
867.718	-24.06
867.891	20.99
868.065	37.38
868.238	33.28
868.412	51.71
868.585	74.24
868.759	23.04
868.932	6.66
869.105	-26.11
869.279	29.18
869.452	41.47
869.625	49.66
869.799	64
869.972	-38.4
870.145	4.61
870.319	45.57
870.492	6.66
870.665	33.28
870.838	96.77
871.011	-7.68
871.185	4.61
871.358	33.28
871.531	37.38
871.704	-15.87
871.877	29.18
872.05	-3.58
872.223	61.95
872.396	31.23
872.569	59.9
872.742	-52.74
872.915	8.7
873.088	-7.68
873.261	18.94
873.434	25.09
873.607	-11.78
873.78	18.94
873.953	12.8
874.126	45.57
874.299	72.19
874.471	23.04
874.644	18.94
874.817	31.23
874.99	43.52
875.163	66.05
875.335	68.09
875.508	90.62
875.681	18.94
875.853	20.99
876.026	-13.82
876.199	45.57
876.371	16.9
876.544	41.47
876.717	35.33
876.889	109.05
877.062	-28.16
877.234	0.51
877.407	-1.54
877.579	8.7
877.752	35.33
877.924	35.33
878.097	-9.73
878.269	-11.78
878.442	41.47
878.614	-1.54
878.786	18.94
878.959	-24.06
879.131	68.09
879.303	20.99
879.476	41.47
879.648	90.62
879.82	18.94
879.993	-3.58
880.165	-17.92
880.337	-15.87
880.509	12.8
880.681	39.42
880.854	-15.87
881.026	2.56
881.198	68.09
881.37	29.18
881.542	8.7
881.714	-5.63
881.886	31.23
882.058	-42.5
882.23	47.62
882.402	64
882.574	18.94
882.746	-11.78
882.918	41.47
883.09	18.94
883.262	-7.68
883.434	35.33
883.606	51.71
883.778	-34.3
883.95	78.33
884.122	109.05
884.293	49.66
884.465	12.8
884.637	31.23
884.809	-54.78
884.98	8.7
885.152	18.94
885.324	35.33
885.496	0.51
885.667	86.53
885.839	31.23
886.011	78.33
886.182	43.52
886.354	25.09
886.525	6.66
886.697	14.85
886.869	-3.58
887.04	-1.54
887.212	43.52
887.383	41.47
887.555	8.7
887.726	-44.54
887.897	51.71
888.069	64
888.24	-1.54
888.412	4.61
888.583	-15.87
888.754	25.09
888.926	-38.4
889.097	35.33
889.268	41.47
889.44	86.53
889.611	-28.16
889.782	-19.97
889.953	0.51
890.125	88.57
890.296	20.99
890.467	-26.11
890.638	-3.58
890.809	53.76
890.98	-103.93
891.151	31.23
891.323	39.42
891.494	27.14
891.665	-28.16
891.836	0.51
892.007	49.66
892.178	-36.35
892.349	-42.5
892.52	-9.73
892.691	18.94
892.862	-15.87
893.032	-46.59
893.203	-9.73
893.374	-24.06
893.545	-7.68
893.716	2.56
893.887	12.8
894.057	59.9
894.228	-32.26
894.399	88.57
894.57	80.38
894.74	-28.16
894.911	39.42
895.082	-3.58
895.253	31.23
895.423	-15.87
895.594	45.57
895.764	78.33
895.935	-40.45
896.106	12.8
896.276	8.7
896.447	64
896.617	8.7
896.788	27.14
896.958	27.14
897.129	53.76
897.299	33.28
897.47	49.66
897.64	59.9
897.81	31.23
897.981	14.85
898.151	8.7
898.322	8.7
898.492	68.09
898.662	-3.58
898.832	31.23
899.003	0.51
899.173	-15.87
899.343	-17.92
899.513	-26.11
