Data from USB4F104151__23__11-51-28-209.txt Node

Date: Fri Mar 14 11:51:28 EDT 2025
User: louis
Spectrometer: USB4F10415
Trigger mode: 4
Integration Time (sec): 2.000000E-2
Scans to average: 1
Electric dark correction enabled: true
Nonlinearity correction enabled: false
Boxcar width: 0
XAxis mode: Wavelengths
Number of Pixels in Spectrum: 3648
>>>>>Begin Spectral Data<<<<<
178.204	-34.99
178.424	-34.99
178.644	-34.99
178.864	-121
179.084	-110.76
179.304	-12.46
179.524	26.45
179.744	-65.71
179.964	55.12
180.184	-20.65
180.404	71.51
180.624	-30.89
180.844	-45.23
181.064	3.93
181.283	69.46
181.503	-18.6
181.723	-32.94
181.943	-69.8
182.163	110.42
182.383	-26.79
182.602	42.84
182.822	87.89
183.042	-14.51
183.262	30.55
183.482	46.93
183.701	-32.94
183.921	-51.37
184.141	-14.51
184.361	22.36
184.58	-0.17
184.8	98.13
185.02	24.4
185.239	14.17
185.459	12.12
185.679	83.8
185.898	-65.71
186.118	55.12
186.338	-26.79
186.557	38.74
186.777	3.93
186.997	32.6
187.216	32.6
187.436	46.93
187.655	38.74
187.875	75.6
188.095	40.79
188.314	-41.13
188.534	22.36
188.753	-22.7
188.973	61.27
189.192	67.41
189.412	77.65
189.631	51.03
189.851	5.97
190.07	20.31
190.29	22.36
190.509	-6.31
190.729	22.36
190.948	30.55
191.168	59.22
191.387	91.99
191.607	18.26
191.826	65.36
192.045	-65.71
192.265	32.6
192.484	30.55
192.704	-10.41
192.923	-55.47
193.142	122.71
193.362	32.6
193.581	14.17
193.8	14.17
194.02	20.31
194.239	67.41
194.458	36.69
194.678	51.03
194.897	48.98
195.116	1.88
195.335	12.12
195.555	32.6
195.774	96.08
195.993	16.21
196.212	-37.03
196.432	32.6
196.651	61.27
196.87	14.17
197.089	79.7
197.308	10.07
197.528	55.12
197.747	-57.51
197.966	-4.27
198.185	5.97
198.404	65.36
198.623	-4.27
198.842	-8.36
199.062	53.08
199.281	83.8
199.5	73.56
199.719	32.6
199.938	77.65
200.157	1.88
200.376	-16.55
200.595	98.13
200.814	3.93
201.033	26.45
201.252	48.98
201.471	65.36
201.69	100.18
201.909	10.07
202.128	69.46
202.347	59.22
202.566	-86.19
202.785	32.6
203.004	-61.61
203.223	96.08
203.442	65.36
203.661	-80.04
203.879	32.6
204.098	75.6
204.317	42.84
204.536	20.31
204.755	53.08
204.974	24.4
205.193	5.97
205.411	61.27
205.63	16.21
205.849	26.45
206.068	77.65
206.287	65.36
206.505	36.69
206.724	18.26
206.943	69.46
207.162	16.21
207.381	-26.79
207.599	53.08
207.818	81.75
208.037	-82.09
208.255	46.93
208.474	10.07
208.693	46.93
208.911	36.69
209.13	79.7
209.349	48.98
209.567	44.88
209.786	63.32
210.005	18.26
210.223	36.69
210.442	-14.51
210.661	3.93
210.879	55.12
211.098	55.12
211.316	-24.75
211.535	32.6
211.753	32.6
211.972	-8.36
212.191	63.32
212.409	28.5
212.628	-55.47
212.846	32.6
213.065	40.79
213.283	36.69
213.502	63.32
213.72	81.75
213.938	34.64
214.157	-12.46
214.375	57.17
214.594	96.08
214.812	-8.36
215.031	59.22
215.249	3.93
215.467	24.4
215.686	18.26
215.904	67.41
216.122	24.4
216.341	34.64
216.559	28.5
216.778	44.88
216.996	-37.03
217.214	30.55
217.432	55.12
217.651	-12.46
217.869	18.26
218.087	12.12
218.306	-18.6
218.524	130.9
218.742	55.12
218.96	-8.36
219.179	-20.65
219.397	20.31
219.615	-16.55
219.833	53.08
220.051	-12.46
220.27	24.4
220.488	36.69
220.706	36.69
220.924	55.12
221.142	32.6
221.36	3.93
221.578	100.18
221.796	28.5
222.015	26.45
222.233	61.27
222.451	-55.47
222.669	22.36
222.887	71.51
223.105	42.84
223.323	24.4
223.541	-6.31
223.759	20.31
223.977	44.88
224.195	18.26
224.413	-0.17
224.631	65.36
224.849	-14.51
225.067	91.99
225.285	-30.89
225.503	63.32
225.721	40.79
225.939	57.17
226.157	-22.7
226.375	59.22
226.592	-22.7
226.81	-18.6
227.028	22.36
227.246	77.65
227.464	-41.13
227.682	104.28
227.9	61.27
228.117	81.75
228.335	53.08
228.553	20.31
228.771	59.22
228.989	-16.55
229.206	61.27
229.424	-45.23
229.642	46.93
229.86	10.07
230.077	36.69
230.295	46.93
230.513	46.93
230.731	57.17
230.948	24.4
231.166	28.5
231.384	46.93
231.601	-45.23
231.819	32.6
232.037	120.66
232.254	24.4
232.472	77.65
232.689	91.99
232.907	-18.6
233.125	44.88
233.342	14.17
233.56	10.07
233.777	48.98
233.995	12.12
234.213	67.41
234.43	12.12
234.648	-14.51
234.865	98.13
235.083	1.88
235.3	53.08
235.518	10.07
235.735	28.5
235.953	77.65
236.17	89.94
236.388	67.41
236.605	59.22
236.822	26.45
237.04	22.36
237.257	-24.75
237.475	28.5
237.692	51.03
237.909	12.12
238.127	8.02
238.344	-16.55
238.562	26.45
238.779	18.26
238.996	69.46
239.214	71.51
239.431	155.47
239.648	5.97
239.865	16.21
240.083	18.26
240.3	36.69
240.517	8.02
240.735	-18.6
240.952	57.17
241.169	12.12
241.386	53.08
241.603	1.88
241.821	57.17
242.038	42.84
242.255	28.5
242.472	-37.03
242.689	-37.03
242.907	55.12
243.124	59.22
243.341	63.32
243.558	24.4
243.775	79.7
243.992	-39.08
244.209	12.12
244.426	85.84
244.643	65.36
244.86	53.08
245.078	67.41
245.295	46.93
245.512	32.6
245.729	22.36
245.946	53.08
246.163	30.55
246.38	34.64
246.597	87.89
246.814	61.27
247.031	8.02
247.248	51.03
247.464	-4.27
247.681	38.74
247.898	30.55
248.115	24.4
248.332	-16.55
248.549	71.51
248.766	20.31
248.983	-4.27
249.2	18.26
249.417	-26.79
249.633	24.4
249.85	67.41
250.067	28.5
250.284	-8.36
250.501	71.51
250.717	16.21
250.934	-16.55
251.151	-16.55
251.368	-45.23
251.585	36.69
251.801	16.21
252.018	8.02
252.235	85.84
252.451	83.8
252.668	8.02
252.885	-18.6
253.102	75.6
253.318	108.37
253.535	-26.79
253.752	26.45
253.968	-0.17
254.185	59.22
254.401	-24.75
254.618	71.51
254.835	8.02
255.051	151.38
255.268	18.26
255.484	8.02
255.701	98.13
255.917	12.12
256.134	-22.7
256.351	42.84
256.567	-39.08
256.784	-12.46
257	20.31
257.217	48.98
257.433	28.5
257.65	-43.18
257.866	36.69
258.082	14.17
258.299	1.88
258.515	34.64
258.732	36.69
258.948	63.32
259.165	116.56
259.381	-0.17
259.597	77.65
259.814	-2.22
260.03	46.93
260.246	38.74
260.463	135
260.679	94.04
260.895	5.97
261.112	57.17
261.328	14.17
261.544	10.07
261.761	34.64
261.977	-18.6
262.193	-0.17
262.409	-20.65
262.626	3.93
262.842	18.26
263.058	-12.46
263.274	79.7
263.49	-8.36
263.707	18.26
263.923	-22.7
264.139	28.5
264.355	-22.7
264.571	83.8
264.787	-39.08
265.004	48.98
265.22	20.31
265.436	87.89
265.652	38.74
265.868	98.13
266.084	1.88
266.3	32.6
266.516	-4.27
266.732	57.17
266.948	32.6
267.164	14.17
267.38	44.88
267.596	57.17
267.812	65.36
268.028	69.46
268.244	28.5
268.46	8.02
268.676	20.31
268.892	51.03
269.108	26.45
269.324	75.6
269.54	34.64
269.756	5.97
269.972	-4.27
270.188	46.93
270.403	71.51
270.619	57.17
270.835	67.41
271.051	32.6
271.267	-34.99
271.483	-12.46
271.698	112.47
271.914	79.7
272.13	61.27
272.346	18.26
272.562	44.88
272.777	85.84
272.993	48.98
273.209	-43.18
273.425	-43.18
273.64	-2.22
273.856	53.08
274.072	32.6
274.287	12.12
274.503	96.08
274.719	-22.7
274.934	67.41
275.15	28.5
275.366	83.8
275.581	73.56
275.797	75.6
276.012	34.64
276.228	61.27
276.444	28.5
276.659	173.91
276.875	83.8
277.09	24.4
277.306	-45.23
277.521	-16.55
277.737	36.69
277.952	112.47
278.168	44.88
278.383	-34.99
278.599	8.02
278.814	26.45
279.03	16.21
279.245	122.71
279.461	28.5
279.676	65.36
279.892	-34.99
280.107	32.6
280.322	63.32
280.538	-39.08
280.753	-16.55
280.969	104.28
281.184	42.84
281.399	42.84
281.615	12.12
281.83	8.02
282.045	63.32
282.26	53.08
282.476	8.02
282.691	-34.99
282.906	30.55
283.122	71.51
283.337	-22.7
283.552	34.64
283.767	59.22
283.983	34.64
284.198	12.12
284.413	40.79
284.628	30.55
284.843	1.88
285.058	3.93
285.274	65.36
285.489	-8.36
285.704	77.65
285.919	34.64
286.134	38.74
286.349	-18.6
286.564	30.55
286.779	59.22
286.995	28.5
287.21	1.88
287.425	53.08
287.64	16.21
287.855	38.74
288.07	36.69
288.285	32.6
288.5	63.32
288.715	122.71
288.93	-4.27
289.145	8.02
289.36	22.36
289.575	-20.65
289.79	61.27
290.004	44.88
290.219	-24.75
290.434	-2.22
290.649	-20.65
290.864	-10.41
291.079	89.94
291.294	48.98
291.509	40.79
291.724	44.88
291.938	-18.6
292.153	34.64
292.368	5.97
292.583	63.32
292.798	91.99
293.012	63.32
293.227	69.46
293.442	85.84
293.657	67.41
293.871	-20.65
294.086	55.12
294.301	79.7
294.516	53.08
294.73	42.84
294.945	-24.75
295.16	38.74
295.374	79.7
295.589	30.55
295.804	-28.84
296.018	42.84
296.233	24.4
296.447	-22.7
296.662	65.36
296.877	12.12
297.091	-14.51
297.306	44.88
297.52	81.75
297.735	-0.17
297.949	59.22
298.164	53.08
298.378	30.55
298.593	-30.89
298.807	24.4
299.022	18.26
299.236	22.36
299.451	-18.6
299.665	26.45
299.88	-34.99
300.094	-8.36
300.309	26.45
300.523	75.6
300.737	32.6
300.952	20.31
301.166	44.88
301.381	24.4
301.595	73.56
301.809	28.5
302.024	34.64
302.238	63.32
302.452	94.04
302.667	91.99
302.881	40.79
303.095	48.98
303.309	34.64
303.524	55.12
303.738	-43.18
303.952	28.5
304.166	40.79
304.381	12.12
304.595	139.09
304.809	5.97
305.023	28.5
305.237	-6.31
305.452	-10.41
305.666	-4.27
305.88	48.98
306.094	20.31
306.308	48.98
306.522	34.64
306.736	12.12
306.95	59.22
307.164	59.22
307.379	-0.17
307.593	110.42
307.807	81.75
308.021	28.5
308.235	26.45
308.449	-32.94
308.663	167.76
308.877	46.93
309.091	53.08
309.305	87.89
309.519	1.88
309.733	83.8
309.947	73.56
310.161	61.27
310.374	51.03
310.588	200.53
310.802	12.12
311.016	38.74
311.23	100.18
311.444	-12.46
311.658	87.89
311.872	55.12
312.085	10.07
312.299	32.6
312.513	73.56
312.727	36.69
312.941	28.5
313.154	59.22
313.368	87.89
313.582	67.41
313.796	12.12
314.009	40.79
314.223	38.74
314.437	46.93
314.651	55.12
314.864	-26.79
315.078	16.21
315.292	22.36
315.505	61.27
315.719	112.47
315.933	5.97
316.146	-12.46
316.36	-16.55
316.573	75.6
316.787	46.93
317.001	40.79
317.214	87.89
317.428	108.37
317.641	-53.42
317.855	12.12
318.068	61.27
318.282	51.03
318.495	94.04
318.709	94.04
318.922	51.03
319.136	110.42
319.349	77.65
319.563	-10.41
319.776	87.89
319.99	10.07
320.203	71.51
320.417	100.18
320.63	-20.65
320.843	12.12
321.057	40.79
321.27	10.07
321.483	30.55
321.697	61.27
321.91	57.17
322.124	24.4
322.337	10.07
322.55	-4.27
322.763	96.08
322.977	24.4
323.19	42.84
323.403	10.07
323.617	18.26
323.83	22.36
324.043	-28.84
324.256	102.23
324.469	18.26
324.683	59.22
324.896	59.22
325.109	24.4
325.322	116.56
325.535	3.93
325.748	24.4
325.962	1.88
326.175	83.8
326.388	20.31
326.601	38.74
326.814	46.93
327.027	51.03
327.24	-57.51
327.453	16.21
327.666	55.12
327.879	67.41
328.092	114.52
328.305	18.26
328.518	-10.41
328.731	32.6
328.944	118.61
329.157	20.31
329.37	53.08
329.583	51.03
329.796	38.74
330.009	-24.75
330.222	-39.08
330.435	-24.75
330.648	89.94
330.861	77.65
331.073	40.79
331.286	8.02
331.499	20.31
331.712	36.69
331.925	102.23
332.138	-16.55
332.35	81.75
332.563	-18.6
332.776	51.03
332.989	69.46
333.202	28.5
333.414	-57.51
333.627	32.6
333.84	63.32
334.053	26.45
334.265	-37.03
334.478	28.5
334.691	44.88
334.903	38.74
335.116	8.02
335.329	69.46
335.541	38.74
335.754	40.79
335.966	-18.6
336.179	-30.89
336.392	59.22
336.604	79.7
336.817	-32.94
337.029	65.36
337.242	22.36
337.454	81.75
337.667	-0.17
337.88	57.17
338.092	3.93
338.305	55.12
338.517	-16.55
338.729	71.51
338.942	79.7
339.154	94.04
339.367	28.5
339.579	44.88
339.792	18.26
340.004	30.55
340.217	-8.36
340.429	46.93
340.641	57.17
340.854	89.94
341.066	28.5
341.278	42.84
341.491	83.8
341.703	-10.41
341.915	20.31
342.128	-0.17
342.34	-45.23
342.552	53.08
342.764	36.69
342.977	3.93
343.189	34.64
343.401	40.79
343.613	14.17
343.826	94.04
344.038	-30.89
344.25	44.88
344.462	-0.17
344.674	57.17
344.886	44.88
345.099	38.74
345.311	3.93
345.523	40.79
345.735	22.36
345.947	63.32
346.159	42.84
346.371	36.69
346.583	57.17
346.795	79.7
347.007	46.93
347.219	34.64
347.431	44.88
347.643	61.27
347.855	-16.55
348.067	3.93
348.279	32.6
348.491	59.22
348.703	40.79
348.915	48.98
349.127	36.69
349.339	12.12
349.551	98.13
349.763	147.28
349.975	75.6
350.187	-10.41
350.399	71.51
350.61	67.41
350.822	30.55
351.034	57.17
351.246	71.51
351.458	81.75
351.669	57.17
351.881	32.6
352.093	10.07
352.305	44.88
352.517	40.79
352.728	124.76
352.94	51.03
353.152	106.32
353.363	-16.55
353.575	46.93
353.787	69.46
353.999	71.51
354.21	44.88
354.422	61.27
354.633	116.56
354.845	28.5
355.057	102.23
355.268	67.41
355.48	55.12
355.692	108.37
355.903	46.93
356.115	57.17
356.326	-30.89
356.538	118.61
356.749	28.5
356.961	75.6
357.172	71.51
357.384	63.32
357.595	91.99
357.807	16.21
358.018	5.97
358.23	71.51
358.441	44.88
358.653	44.88
358.864	132.95
359.075	87.89
359.287	34.64
359.498	51.03
359.709	65.36
359.921	32.6
360.132	71.51
360.344	85.84
360.555	42.84
360.766	65.36
360.977	28.5
361.189	61.27
361.4	3.93
361.611	-0.17
361.823	124.76
362.034	36.69
362.245	-2.22
362.456	20.31
362.667	71.51
362.879	53.08
363.09	59.22
363.301	102.23
363.512	-12.46
363.723	1.88
363.935	-20.65
364.146	87.89
364.357	55.12
364.568	83.8
364.779	1.88
364.99	83.8
365.201	10.07
365.412	8.02
365.623	5.97
365.834	141.14
366.045	24.4
366.256	77.65
366.467	18.26
366.678	40.79
366.889	106.32
367.1	61.27
367.311	139.09
367.522	63.32
367.733	18.26
367.944	32.6
368.155	-12.46
368.366	51.03
368.577	8.02
368.788	118.61
368.999	24.4
369.209	22.36
369.42	38.74
369.631	147.28
369.842	55.12
370.053	1.88
370.264	69.46
370.474	32.6
370.685	-37.03
370.896	36.69
371.107	69.46
371.317	57.17
371.528	112.47
371.739	81.75
371.95	34.64
372.16	91.99
372.371	116.56
372.582	40.79
372.792	51.03
373.003	38.74
373.214	44.88
373.424	48.98
373.635	40.79
373.846	1.88
374.056	73.56
374.267	98.13
374.477	3.93
374.688	55.12
374.898	-32.94
375.109	38.74
375.319	128.85
375.53	100.18
375.74	16.21
375.951	10.07
376.161	40.79
376.372	59.22
376.582	24.4
376.793	26.45
377.003	83.8
377.214	24.4
377.424	85.84
377.635	36.69
377.845	-2.22
378.055	79.7
378.266	12.12
378.476	32.6
378.686	106.32
378.897	10.07
379.107	14.17
379.317	55.12
379.528	65.36
379.738	-16.55
379.948	28.5
380.158	10.07
380.369	48.98
380.579	63.32
380.789	-6.31
380.999	-6.31
381.21	87.89
381.42	91.99
381.63	22.36
381.84	96.08
382.05	112.47
382.261	-14.51
382.471	57.17
382.681	53.08
382.891	85.84
383.101	102.23
383.311	55.12
383.521	12.12
383.731	20.31
383.941	71.51
384.151	73.56
384.361	61.27
384.571	5.97
384.781	-14.51
384.991	98.13
385.201	77.65
385.411	71.51
385.621	34.64
385.831	34.64
386.041	48.98
386.251	67.41
386.461	85.84
386.671	-4.27
386.881	38.74
387.091	-18.6
387.301	137.04
387.511	57.17
387.72	124.76
387.93	120.66
388.14	51.03
388.35	44.88
388.56	67.41
388.769	59.22
388.979	18.26
389.189	28.5
389.399	3.93
389.609	48.98
389.818	53.08
390.028	65.36
390.238	67.41
390.447	94.04
390.657	51.03
390.867	51.03
391.076	-10.41
391.286	34.64
391.496	28.5
391.705	69.46
391.915	100.18
392.125	75.6
392.334	55.12
392.544	153.43
392.753	94.04
392.963	59.22
393.172	104.28
393.382	48.98
393.591	18.26
393.801	34.64
394.01	190.29
394.22	85.84
394.429	87.89
394.639	28.5
394.848	85.84
395.058	69.46
395.267	57.17
395.477	12.12
395.686	94.04
395.895	65.36
396.105	28.5
396.314	167.76
396.524	10.07
396.733	61.27
396.942	77.65
397.152	14.17
397.361	104.28
397.57	51.03
397.78	139.09
397.989	71.51
398.198	132.95
398.407	102.23
398.617	116.56
398.826	57.17
399.035	59.22
399.244	87.89
399.453	40.79
399.663	94.04
399.872	122.71
400.081	-6.31
400.29	161.62
400.499	104.28
400.708	130.9
400.917	110.42
401.127	126.8
401.336	55.12
401.545	137.04
401.754	65.36
401.963	73.56
402.172	135
402.381	118.61
402.59	108.37
402.799	91.99
403.008	124.76
403.217	77.65
403.426	135
403.635	71.51
403.844	122.71
404.053	112.47
404.262	53.08
404.471	141.14
404.68	118.61
404.888	126.8
405.097	132.95
405.306	167.76
405.515	210.77
405.724	130.9
405.933	132.95
406.142	188.24
406.35	173.91
406.559	188.24
406.768	157.52
406.977	128.85
407.185	141.14
407.394	155.47
407.603	157.52
407.812	245.59
408.02	235.35
408.229	132.95
408.438	110.42
408.646	157.52
408.855	225.11
409.064	210.77
409.272	155.47
409.481	223.06
409.69	278.35
409.898	307.02
410.107	268.11
410.315	317.26
410.524	241.49
410.733	284.5
410.941	354.13
411.15	354.13
411.358	225.11
411.567	335.7
411.775	360.27
411.984	350.03
412.192	431.95
412.401	436.05
412.609	399.18
412.818	399.18
413.026	464.72
413.234	472.91
413.443	442.19
413.651	474.96
413.86	450.38
414.068	513.87
414.276	620.36
414.485	511.82
414.693	595.79
414.901	620.36
415.11	599.88
415.318	560.97
415.526	577.36
415.734	644.94
415.943	581.45
416.151	663.37
416.359	687.95
416.567	790.35
416.776	683.85
416.984	784.2
417.192	802.63
417.4	853.83
417.608	819.02
417.817	808.78
418.025	868.17
418.233	866.12
418.441	991.05
418.649	935.75
418.857	1154.88
419.065	1072.96
419.273	1017.67
419.481	1099.59
419.689	1148.74
419.897	1283.91
420.105	1320.77
420.313	1357.63
420.521	1480.51
420.729	1378.11
420.937	1404.74
421.145	1394.5
421.353	1533.76
421.561	1558.33
421.769	1591.1
421.977	1759.03
422.185	1662.78
422.393	1797.95
422.601	1902.39
422.809	1877.82
423.017	1877.82
423.224	2039.61
423.432	2092.85
423.64	2055.99
423.848	2133.81
424.056	2264.88
424.263	2367.28
424.471	2387.76
424.679	2504.5
424.887	2494.26
425.094	2531.12
425.302	2688.81
425.51	2737.96
425.718	2729.77
425.925	2932.52
426.133	2916.14
426.341	3206.95
426.548	3376.93
426.756	3213.09
426.964	3430.18
427.171	3604.25
427.379	3528.48
427.586	3610.4
427.794	3737.37
428.001	4009.75
428.209	4110.1
428.417	3976.98
428.624	4316.95
428.832	4431.63
429.039	4337.43
429.247	4275.99
429.454	4785.93
429.662	5029.64
429.869	4806.41
430.076	5062.41
430.284	4808.46
430.491	4941.58
430.699	5334.79
430.906	5336.84
431.114	5340.93
431.321	5531.39
431.528	5754.62
431.736	6131.45
431.943	6274.81
432.15	6117.11
432.358	6151.93
432.565	6565.62
432.772	6614.77
432.979	7057.13
433.187	6958.83
433.394	7048.94
433.601	7646.94
433.808	7788.25
434.016	7505.63
434.223	7859.93
434.43	8005.34
434.637	8054.49
434.844	8668.88
435.052	8713.94
435.259	8652.5
435.466	9060.04
435.673	8926.93
435.88	9424.58
436.087	9813.7
436.294	9703.11
436.501	9572.04
436.708	9617.09
436.915	10286.78
437.122	10596.02
437.329	10559.16
437.537	10753.71
437.743	11046.57
437.95	10989.23
438.157	11755.17
438.364	11916.96
438.571	11894.43
438.778	11957.92
438.985	13049.49
439.192	12740.24
439.399	13018.77
439.606	12664.47
439.813	13461.13
440.02	14247.55
440.227	13876.87
440.433	14012.03
440.64	14390.91
440.847	14167.68
441.054	14448.25
441.261	15531.62
441.467	15552.1
441.674	15697.51
441.881	16287.32
442.088	16293.47
442.294	16248.41
442.501	16391.77
442.708	17010.26
442.914	17296.97
443.121	18214.46
443.328	17872.45
443.534	19226.16
443.741	18310.72
443.948	18474.56
444.154	19662.38
444.361	19324.46
444.568	19871.27
444.774	19691.05
444.981	20067.88
445.187	20530.72
445.394	21388.81
445.6	21030.42
445.807	23117.3
446.013	21691.91
446.22	22359.55
446.426	23758.31
446.633	23545.33
446.839	24573.41
447.046	23107.06
447.252	24600.03
447.459	24698.33
447.665	24739.29
447.871	25619.92
448.078	26863.04
448.284	25404.88
448.491	25972.17
448.697	27190.71
448.903	27237.81
449.11	27782.57
449.316	27395.51
449.522	27764.14
449.728	28423.59
449.935	28824.99
450.141	28687.78
450.347	29304.21
450.553	28390.82
450.76	28765.6
450.966	29906.32
451.172	29035.93
451.378	30072.2
451.584	29267.35
451.791	30270.86
451.997	30137.74
452.203	30915.97
452.409	30586.24
452.615	30315.91
452.821	29678.99
453.027	29435.28
453.233	30891.39
453.44	29689.23
453.646	29746.58
453.852	29855.12
454.058	30354.82
454.264	29064.6
454.47	30311.81
454.676	29386.13
454.882	30285.19
455.088	27633.07
455.294	28122.54
455.5	28595.62
455.705	28515.75
455.911	27450.8
456.117	27065.78
456.323	26932.67
456.529	25556.43
456.735	26353.09
456.941	25865.67
457.147	25427.41
457.352	24446.43
457.558	24305.12
457.764	24161.76
457.97	24036.84
458.176	23465.46
458.381	23324.15
458.587	22070.79
458.793	22418.94
458.999	21243.41
459.204	22656.51
459.41	21886.47
459.616	20520.48
459.821	20608.54
460.027	20549.15
460.233	20088.35
460.438	19222.06
460.644	19328.56
460.85	18267.71
461.055	18251.33
461.261	18243.13
461.466	16713.3
461.672	16221.79
461.878	17479.24
462.083	16189.02
462.289	15834.72
462.494	15537.77
462.7	14943.86
462.905	14823.03
463.111	15429.23
463.316	15255.15
463.522	14966.38
463.727	14898.8
463.932	14823.03
464.138	14720.63
464.343	14906.99
464.549	14407.29
464.754	14714.48
464.959	14681.72
465.165	14405.24
465.37	13794.95
465.575	13672.07
465.781	14179.96
465.986	14311.03
466.191	13856.39
466.397	13555.33
466.602	12791.44
466.807	13252.24
467.012	13334.15
467.218	13315.72
467.423	12891.79
467.628	13112.97
467.833	13653.64
468.038	13094.54
468.244	12779.15
468.449	13315.72
468.654	12834.45
468.859	12752.53
469.064	12564.12
469.269	12365.46
469.474	12451.48
469.679	12723.86
469.885	12197.53
470.09	12211.87
470.295	12209.82
470.5	11863.71
470.705	11949.73
470.91	11888.29
471.115	11548.33
471.32	11925.15
471.525	11781.79
471.73	11587.24
471.935	11501.22
472.139	11099.82
472.344	11153.07
472.549	11206.31
472.754	10933.93
472.959	10722.99
473.164	10620.6
473.369	10583.73
473.574	10811.06
473.778	10626.74
473.983	10534.58
474.188	10546.87
474.393	10081.98
474.598	10135.23
474.802	10155.71
475.007	10010.3
475.212	9998.01
475.417	9758.4
475.621	9594.56
475.826	9676.48
476.031	9512.64
476.235	9504.45
476.44	9612.99
476.645	9139.91
476.849	9225.93
477.054	9164.49
477.259	9193.16
477.463	9049.8
477.668	8722.13
477.872	8822.48
478.077	8824.53
478.282	8507.09
478.486	8515.28
478.691	8419.03
478.895	8412.88
479.1	8390.36
479.304	8173.27
479.509	8130.27
479.713	8447.7
479.918	7898.84
480.122	8001.24
480.326	8103.64
480.531	7960.28
480.735	8111.83
480.94	7798.49
481.144	8005.34
481.348	7786.21
481.553	7841.5
481.757	7577.31
481.961	7780.06
482.166	7769.82
482.37	7728.86
482.574	7739.1
482.778	7757.53
482.983	7786.21
483.187	7599.84
483.391	7624.42
483.595	7614.18
483.8	7540.45
484.004	7757.53
484.208	7763.68
484.412	7593.7
484.616	7788.25
484.821	7646.94
485.025	7626.46
485.229	7941.85
485.433	7587.55
485.637	7755.49
485.841	7696.1
486.045	7757.53
486.249	7468.77
486.453	7702.24
486.657	7538.4
486.861	7685.86
487.065	7370.47
487.269	7696.1
487.473	7522.02
487.677	7845.6
487.881	7802.59
488.085	7616.23
488.289	7683.81
488.493	7857.89
488.697	7786.21
488.901	7870.17
489.105	7550.69
489.309	7683.81
489.512	7984.86
489.716	7636.7
489.92	7757.53
490.124	7550.69
490.328	8025.82
490.531	7710.43
490.735	7775.97
490.939	7845.6
491.143	7849.69
491.346	7816.93
491.55	8054.49
491.754	8150.74
491.958	8077.02
492.161	7943.9
492.365	8095.45
492.569	8201.94
492.772	8148.7
492.976	8103.64
493.18	8115.93
493.383	8275.67
493.587	8384.21
493.79	8376.02
493.994	8228.57
494.197	8396.5
494.401	8498.9
494.605	8580.82
494.808	8589.01
495.012	8550.1
495.215	8703.7
495.419	8906.45
495.622	8740.56
495.825	9113.29
496.029	8834.77
496.232	9031.37
496.436	9076.43
496.639	9217.74
496.843	9178.83
497.046	9428.68
497.249	9494.21
497.453	9557.7
497.656	9461.44
497.859	9660.1
498.063	9866.94
498.266	10088.12
498.469	10024.64
498.673	10172.09
498.876	10184.38
499.079	10331.83
499.282	10391.22
499.485	10550.96
499.689	10577.59
499.892	10712.75
500.095	10716.85
500.298	10882.74
500.501	10999.47
500.705	11204.27
500.908	11232.94
501.111	11413.16
501.314	11617.96
501.517	11447.97
501.72	12045.98
501.923	11744.93
502.126	11736.74
502.329	12172.96
502.532	12433.05
502.735	12224.15
502.938	12523.16
503.141	12375.7
503.344	13072.01
503.547	12766.87
503.75	13158.03
503.953	13057.68
504.156	13545.09
504.359	13352.59
504.562	13661.83
504.765	13844.1
504.968	13856.39
505.17	14188.16
505.373	13940.35
505.576	14200.44
505.779	14573.17
505.982	14476.92
506.185	14825.08
506.387	14870.13
506.59	15062.64
506.793	15453.8
506.996	15019.63
507.198	15892.07
507.401	15552.1
507.604	15992.42
507.807	16207.45
508.009	16293.47
508.212	16092.77
508.415	16584.28
508.617	16655.96
508.82	16813.65
509.022	16787.03
509.225	17182.29
509.428	17247.82
509.63	17380.94
509.833	17798.73
510.035	17935.94
510.238	17704.52
510.44	18298.43
510.643	18280
510.845	18550.33
511.048	18538.04
511.25	18642.49
511.453	18624.06
511.655	19205.68
511.858	19314.22
512.06	19633.71
512.262	19600.94
512.465	19666.47
512.667	20057.64
512.87	20018.72
513.072	20104.74
513.274	20360.73
513.477	20579.87
513.679	20907.54
513.881	21251.6
514.084	21243.41
514.286	21184.02
514.488	21440.01
514.69	22078.98
514.893	22351.36
515.095	22025.73
515.297	22595.07
515.499	22408.7
515.701	22920.7
515.904	23164.4
516.106	23260.66
516.308	23533.04
516.51	23756.27
516.712	23885.29
516.914	23809.51
517.116	24176.1
517.318	24245.73
517.52	24559.07
517.722	24554.97
517.925	25005.53
518.127	25294.29
518.329	25408.98
518.531	25165.27
518.733	25693.65
518.935	26205.64
519.136	26277.32
519.338	26299.84
519.54	26578.37
519.742	26854.84
519.944	26795.45
520.146	27567.54
520.348	27258.29
520.55	27962.79
520.752	27862.44
520.954	28116.39
521.155	28435.88
521.357	28263.85
521.559	28863.9
521.761	28902.81
521.963	29085.08
522.164	29228.44
522.366	29339.03
522.568	29656.46
522.77	29965.71
522.971	30193.03
523.173	29810.06
523.375	30432.64
523.576	30281.1
523.778	30260.62
523.98	30748.03
524.181	31135.1
524.383	31053.18
524.584	31382.9
524.786	31536.5
524.988	31397.24
525.189	32175.47
525.391	32105.84
525.592	32009.58
525.794	32370.02
525.995	32441.7
526.197	32576.87
526.398	32599.4
526.6	32644.45
526.801	32687.46
527.003	33000.8
527.204	33097.05
527.406	33584.47
527.607	33154.4
527.808	33807.7
528.01	32980.32
528.211	33576.28
528.412	34245.96
528.614	33965.39
528.815	33715.54
529.016	34284.87
529.218	34141.52
529.419	33951.06
529.62	34401.61
529.822	34170.19
530.023	34469.19
530.224	34104.65
530.425	34762.05
530.626	34389.32
530.828	34440.52
531.029	35224.89
531.23	34272.59
531.431	34788.67
531.632	34848.07
531.833	34882.88
532.035	34927.94
532.236	35130.69
532.437	35310.91
532.638	34858.31
532.839	35308.86
533.04	35300.67
533.241	34993.47
533.442	35820.85
533.643	35460.41
533.844	35575.09
534.045	35460.41
534.246	35138.88
534.447	35571
534.648	35468.6
534.849	35505.46
535.05	35368.25
535.251	35208.51
535.451	35151.16
535.652	35405.11
535.853	35624.25
536.054	35390.78
536.255	35712.31
536.456	35224.89
536.657	35798.32
536.857	35562.81
537.058	35210.56
537.259	35829.04
537.46	35724.6
537.66	35509.56
537.861	35597.62
538.062	35423.54
538.263	35325.24
538.463	35650.87
538.664	35159.36
538.865	35749.17
539.065	35636.53
539.266	35222.84
539.466	36212.01
539.667	35331.39
539.868	36019.5
540.068	35253.56
540.269	35798.32
540.469	35800.37
540.67	35702.07
540.87	35501.37
541.071	35614.01
541.271	35814.71
541.472	35376.44
541.672	35073.34
541.873	35149.12
542.073	34942.27
542.274	35519.8
542.474	35218.75
542.675	35048.77
542.875	35429.69
543.075	35228.99
543.276	35114.3
543.476	35231.04
543.676	35192.12
543.877	35755.32
544.077	35505.46
544.277	35153.21
544.478	35128.64
544.678	35284.28
544.878	35265.85
545.078	35538.23
545.279	34932.03
545.479	35102.01
545.679	35267.9
545.879	35554.61
546.079	35028.29
546.28	34997.57
546.48	34968.9
546.68	35163.45
546.88	34932.03
547.08	35401.02
547.28	35302.71
547.48	35116.35
547.68	35394.87
547.88	34778.43
548.081	35091.77
548.281	35265.85
548.481	35296.57
548.681	35433.78
548.881	34868.55
549.081	35083.58
549.28	35009.86
549.48	35319.1
549.68	34901.31
549.88	35581.24
550.08	34876.74
550.28	35302.71
550.48	35235.13
550.68	35378.49
550.88	35097.92
551.08	35276.09
551.279	35163.45
551.479	34665.8
551.679	35030.33
551.879	35034.43
552.079	35112.25
552.278	34542.92
552.478	35026.24
552.678	35003.71
552.878	34938.18
553.077	34803.01
553.277	34454.86
553.477	34817.35
553.676	34809.15
553.876	34925.89
554.076	34690.37
554.275	34637.12
554.475	34299.21
554.674	34784.58
554.874	34780.48
555.074	34628.93
555.273	34729.28
555.473	34573.64
555.672	34200.91
555.872	34497.86
556.071	34489.67
556.271	34610.5
556.47	34628.93
556.67	34092.37
556.869	34461
557.068	34551.11
557.268	34137.42
557.467	34354.51
557.667	34078.03
557.866	34024.78
558.065	34229.58
558.265	33983.82
558.464	33688.92
558.663	34168.14
558.863	33680.72
559.062	34192.72
559.261	33682.77
559.461	33858.9
559.66	33500.5
559.859	33959.25
560.058	33748.31
560.258	33490.26
560.457	33351
560.656	33701.2
560.855	33455.45
561.054	33697.11
561.253	33373.53
561.453	33125.72
561.652	33414.49
561.851	33353.05
562.05	33105.24
562.249	32841.06
562.448	33258.84
562.647	33074.52
562.846	33006.94
563.045	33150.3
563.244	32675.17
563.443	33359.19
563.642	32413.03
563.841	32693.6
564.04	32445.8
564.239	32605.54
564.438	32214.38
564.637	32652.64
564.836	32580.96
565.035	32320.87
565.234	32296.3
565.432	32281.96
565.631	32163.18
565.83	32105.84
566.029	31974.77
566.228	32214.38
566.427	31948.14
566.625	31583.6
566.824	31374.71
567.023	31956.33
567.222	31192.44
567.42	31733.11
567.619	31372.66
567.818	31376.76
568.016	31182.2
568.215	31694.19
568.414	31196.54
568.612	31487.35
568.811	31096.19
569.01	31047.04
569.208	30549.38
569.407	30805.38
569.605	30543.24
569.804	30954.88
570.002	30639.49
570.201	30610.82
570.4	30375.3
570.598	30363.01
570.797	30008.72
570.995	30227.85
571.193	29891.98
571.392	30383.49
571.59	29797.77
571.789	30121.35
571.987	29758.86
572.186	29973.9
572.384	29435.28
572.582	29967.76
572.781	29984.14
572.979	29289.88
573.177	29402.52
573.376	29537.68
573.574	29267.35
573.772	29314.45
573.971	29058.46
574.169	29173.14
574.367	28962.2
574.565	29052.31
574.763	28894.62
574.962	28839.33
575.16	28583.33
575.358	28927.39
575.556	27954.6
575.754	28792.22
575.952	28093.86
576.151	28345.76
576.349	28110.25
576.547	28358.05
576.745	28425.64
576.943	28237.22
577.141	28249.51
577.339	28206.5
577.537	28284.33
577.735	27876.78
577.933	27887.02
578.131	27921.84
578.329	27618.74
578.527	27418.03
578.725	27475.38
578.923	27436.47
579.121	27381.17
579.319	27465.14
579.516	27643.31
579.714	27078.07
579.912	27372.98
580.11	27035.06
580.308	27327.92
580.506	26707.39
580.704	26664.38
580.901	26975.67
581.099	26848.7
581.297	26695.1
581.495	26371.52
581.692	26578.37
581.89	26353.09
582.088	26584.51
582.285	26236.36
582.483	26293.7
582.681	26119.62
582.878	25963.98
583.076	25986.5
583.274	25886.15
583.471	25875.91
583.669	26054.09
583.866	25732.56
584.064	25859.53
584.262	25810.38
584.459	25714.12
584.657	25458.13
584.854	25951.69
585.052	25290.2
585.249	25427.41
585.447	25427.41
585.644	25146.84
585.841	25155.03
586.039	25378.26
586.236	24935.9
586.434	24956.38
586.631	24755.68
586.828	24944.09
587.026	24827.35
587.223	24673.76
587.42	24399.33
587.618	25038.3
587.815	24309.22
588.012	24530.4
588.21	24458.72
588.407	24731.1
588.604	23942.63
588.801	24096.23
588.999	24055.27
589.196	24305.12
589.393	24079.85
589.59	24057.32
589.787	24014.31
589.984	23813.61
590.182	23152.12
590.379	23623.15
590.576	23440.88
590.773	23422.45
590.97	23131.64
591.167	23252.47
591.364	23082.49
591.561	23399.92
591.758	22969.85
591.955	23156.21
592.152	23125.49
592.349	22912.5
592.546	23025.14
592.743	22975.99
592.94	22590.97
593.137	22881.78
593.334	22617.6
593.531	22547.97
593.727	22615.55
593.924	22533.63
594.121	22197.76
594.318	22402.56
594.515	22281.73
594.712	22222.34
594.908	21798.41
595.105	22105.6
595.302	21857.8
595.499	22126.08
595.696	21790.22
595.892	21628.43
596.089	21677.58
596.286	21259.79
596.482	21489.17
596.679	21513.74
596.876	21634.57
597.072	21333.52
597.269	21437.97
597.466	21055
597.662	21106.2
597.859	21091.86
598.055	21163.54
598.252	20799
598.448	21130.77
598.645	20977.17
598.841	20755.99
599.038	20858.39
599.234	20680.22
599.431	20500
599.627	20629.02
599.824	20579.87
600.02	20037.16
600.217	20571.68
600.413	20366.88
600.609	20297.25
600.806	19994.15
601.002	20313.63
601.198	19809.83
601.395	20121.12
601.591	20194.85
601.787	19830.31
601.984	19836.45
602.18	19879.46
602.376	19889.7
602.572	19516.97
602.769	19584.55
602.965	19490.35
603.161	19482.16
603.357	19535.4
603.553	19252.78
603.75	19242.54
603.946	19080.75
604.142	19273.26
604.338	18953.78
604.534	19293.74
604.73	18941.49
604.926	18818.61
605.122	18783.8
605.318	18628.15
605.514	18898.48
605.71	18935.35
605.906	18845.24
606.102	18810.42
606.298	18511.42
606.494	18697.78
606.69	18722.36
606.886	18361.92
607.082	18273.85
607.278	18499.13
607.474	18122.3
607.67	18368.06
607.866	18019.91
608.062	17956.42
608.257	18191.94
608.453	18124.35
608.649	18376.25
608.845	17962.56
609.041	18128.45
609.236	17958.47
609.432	17874.5
609.628	18054.72
609.824	17800.77
610.019	17815.11
610.215	17870.4
610.411	17940.04
610.606	17897.03
610.802	17555.02
610.998	17591.88
611.193	17651.27
611.389	17602.12
611.584	17469
611.78	17567.31
611.976	17434.19
612.171	17557.07
612.367	17532.49
612.562	17452.62
612.758	17407.56
612.953	17194.57
613.149	17423.95
613.344	17020.5
613.539	17413.71
613.735	17133.14
613.93	17172.05
614.126	16995.92
614.321	17069.65
614.517	16981.59
614.712	16903.76
614.907	17063.5
615.103	16993.87
615.298	16889.43
615.493	17081.94
615.688	16739.93
615.884	17153.62
616.079	16639.58
616.274	16817.75
616.47	16821.84
616.665	16975.44
616.86	16598.62
617.055	16641.62
617.25	16625.24
617.445	16531.03
617.641	16402.01
617.836	16623.19
618.031	16455.26
618.226	16387.68
618.421	16309.85
618.616	16266.85
618.811	16064.1
619.006	16316
619.201	16252.51
619.396	16031.33
619.591	15916.64
619.786	16078.43
619.981	15611.5
620.176	15668.84
620.371	15642.21
620.566	15560.3
620.761	15605.35
620.956	15965.79
621.151	15189.61
621.346	15586.92
621.541	15324.78
621.735	15453.8
621.93	14978.67
622.125	15179.37
622.32	14874.23
622.515	15152.75
622.709	14952.05
622.904	14898.8
623.099	14837.36
623.294	14722.68
623.488	14646.9
623.683	14646.9
623.878	14331.51
624.072	14325.37
624.267	14378.62
624.462	14282.36
624.656	14298.75
624.851	14231.16
625.046	14007.94
625.24	13905.54
625.435	13844.1
625.629	13676.16
625.824	13801.09
626.018	13649.54
626.213	13467.27
626.407	13301.39
626.602	13115.02
626.796	13276.81
626.991	13278.86
627.185	13375.11
627.38	12983.95
627.574	12947.09
627.768	13033.1
627.963	12897.94
628.157	12740.24
628.352	12736.15
628.546	12873.36
628.74	12684.95
628.935	12613.27
629.129	12658.32
629.323	12437.14
629.517	12390.04
629.712	12240.54
629.906	12234.39
630.1	12201.63
630.294	12023.45
630.489	11968.16
630.683	12052.13
630.877	11830.94
631.071	11835.04
631.265	11855.52
631.459	11865.76
631.653	11566.76
631.848	11703.97
632.042	11497.13
632.236	11601.57
632.43	11646.63
632.624	11429.54
632.818	11347.62
633.012	11114.16
633.206	11183.79
633.4	11151.02
633.594	11136.68
633.788	10915.5
633.982	10983.09
634.176	11075.24
634.369	10757.81
634.563	10720.95
634.757	10858.16
634.951	10858.16
635.145	10596.02
635.339	10657.46
635.533	10684.08
635.726	10499.77
635.92	10215.1
636.114	10346.17
636.308	10380.98
636.501	10426.04
636.695	10221.24
636.889	10249.91
637.083	10116.79
637.276	10026.68
637.47	10161.85
637.664	10051.26
637.857	10028.73
638.051	9795.26
638.244	9823.94
638.438	9670.34
638.632	9807.55
638.825	9678.53
639.019	9543.36
639.212	9569.99
639.406	9526.98
639.599	9555.65
639.793	9565.89
639.986	9338.57
640.18	9428.68
640.373	9236.17
640.567	9115.34
640.76	9195.21
640.954	9182.92
641.147	8951.5
641.34	8998.6
641.534	9062.09
641.727	8791.76
641.92	8853.2
642.114	8920.78
642.307	8607.44
642.5	8703.7
642.694	8830.67
642.887	8494.8
643.08	8685.26
643.273	8490.71
643.467	8496.85
643.66	8298.2
643.853	8433.36
644.046	8337.11
644.239	8177.37
644.432	8251.1
644.626	8316.63
644.819	8140.51
645.012	8165.08
645.205	8111.83
645.398	8040.15
645.591	8058.59
645.784	7829.21
645.977	7767.77
646.17	8023.77
646.363	7952.09
646.556	7835.36
646.749	7786.21
646.942	7616.23
647.135	7720.67
647.328	7782.11
647.521	7585.51
647.714	7540.45
647.907	7491.3
648.099	7511.78
648.292	7474.92
648.485	7407.33
648.678	7286.5
648.871	7323.37
649.064	7352.04
649.256	7362.28
649.449	7081.71
649.642	7126.76
649.835	7173.86
650.027	6940.4
650.22	7118.57
650.413	7134.95
650.605	7048.94
650.798	7007.98
650.991	7026.41
651.183	6854.38
651.376	6936.3
651.568	6887.15
651.761	6727.41
651.954	6737.65
652.146	6700.78
652.339	6678.26
652.531	6747.89
652.724	6633.2
652.916	6485.75
653.109	6547.19
653.301	6465.27
653.494	6538.99
653.686	6256.37
653.879	6538.99
654.071	6328.05
654.263	6338.29
654.456	6369.01
654.648	6397.68
654.84	6256.37
655.033	6315.76
655.225	6231.8
655.417	6049.53
655.61	6084.34
655.802	6043.39
655.994	6086.39
656.186	5975.8
656.379	5967.61
656.571	6156.02
656.763	5728
656.955	5893.88
657.148	5951.23
657.34	5836.54
657.532	5828.35
657.724	5768.96
657.916	5687.04
658.108	5744.38
658.3	5742.33
658.492	5791.48
658.684	5621.5
658.876	5570.3
659.068	5508.87
659.26	5541.63
659.452	5566.21
659.644	5625.6
659.836	5310.21
660.028	5396.23
660.22	5353.22
660.412	5345.03
660.604	5359.36
660.796	5359.36
660.988	5312.26
661.18	5465.86
661.372	5263.11
661.563	5125.9
661.755	5246.73
661.947	5256.97
662.139	5099.27
662.331	5177.09
662.522	5091.08
662.714	5015.3
662.906	5080.84
663.097	5013.26
663.289	5054.22
663.481	4816.65
663.673	4857.61
663.864	4843.28
664.056	4990.73
664.247	4941.58
664.439	4830.99
664.631	4794.12
664.822	4763.4
665.014	4888.33
665.205	4738.83
665.397	4718.35
665.588	4876.04
665.78	4558.61
665.971	4640.53
666.163	4671.25
666.354	4630.29
666.546	4656.91
666.737	4548.37
666.929	4636.43
667.12	4611.85
667.311	4529.94
667.503	4355.86
667.694	4484.88
667.885	4468.5
668.077	4534.03
668.268	4501.26
668.459	4474.64
668.651	4398.87
668.842	4353.81
669.033	4454.16
669.224	4493.07
669.416	4271.89
669.607	4382.48
669.798	4345.62
669.989	4366.1
670.18	4288.28
670.371	4300.56
670.563	4278.04
670.754	4095.77
670.945	4130.58
671.136	4323.09
671.327	4333.33
671.518	4112.15
671.709	4052.76
671.9	4183.83
672.091	4151.06
672.282	4089.62
672.473	4022.04
672.664	4054.81
672.855	4173.59
673.046	4007.7
673.237	4101.91
673.428	3964.7
673.619	3829.53
673.809	3942.17
674	3895.07
674.191	4126.49
674.382	3968.79
674.573	3972.89
674.764	3903.26
674.954	3954.46
675.145	3919.64
675.336	3903.26
675.527	3843.87
675.717	3804.96
675.908	3624.73
676.099	3800.86
676.289	3749.66
676.48	3780.38
676.671	3735.32
676.861	3868.44
677.052	3862.3
677.243	3753.76
677.433	3723.04
677.624	3739.42
677.814	3692.32
678.005	3823.39
678.195	3794.72
678.386	3796.76
678.576	3686.17
678.767	3690.27
678.957	3759.9
679.148	3622.69
679.338	3616.54
679.529	3673.89
679.719	3581.73
679.909	3733.28
680.1	3645.21
680.29	3620.64
680.481	3712.8
680.671	3618.59
680.861	3639.07
681.052	3706.65
681.242	3624.73
681.432	3618.59
681.622	3534.62
681.813	3606.3
682.003	3485.47
682.193	3385.12
682.383	3501.86
682.573	3522.34
682.764	3516.19
682.954	3473.18
683.144	3616.54
683.334	3530.53
683.524	3542.82
683.714	3491.62
683.904	3528.48
684.094	3481.38
684.284	3417.89
684.474	3460.9
684.664	3395.36
684.854	3444.51
685.044	3428.13
685.234	3415.84
685.424	3417.89
685.614	3378.98
685.804	3354.4
685.994	3434.27
686.184	3415.84
686.374	3297.06
686.564	3254.05
686.753	3211.04
686.943	3274.53
687.133	3340.07
687.323	3272.48
687.513	3295.01
687.702	3071.78
687.892	3270.44
688.082	3278.63
688.272	3247.91
688.461	3299.11
688.651	3284.77
688.841	3145.51
689.03	3182.37
689.22	3239.72
689.41	3254.05
689.599	2989.86
689.789	3045.16
689.979	3206.95
690.168	3006.25
690.358	3026.73
690.547	2981.67
690.737	2996.01
690.926	2987.82
691.116	2959.14
691.305	3061.54
691.495	2991.91
691.684	3092.26
691.874	3024.68
692.063	3002.15
692.252	3057.45
692.442	3022.63
692.631	2834.22
692.82	2901.8
693.01	2842.41
693.199	2955.05
693.388	2760.49
693.578	2807.59
693.767	2817.83
693.956	2783.02
694.146	2795.31
694.335	2834.22
694.524	2830.12
694.713	2803.5
694.902	2760.49
695.092	2883.37
695.281	2774.83
695.47	2731.82
695.659	2742.06
695.848	2748.2
696.037	2830.12
696.226	2735.92
696.415	2664.24
696.604	2813.74
696.793	2828.07
696.982	2862.89
697.171	2690.86
697.36	2737.96
697.549	2727.72
697.738	2715.44
697.927	2729.77
698.116	2668.33
698.305	2631.47
698.494	2623.28
698.683	2684.72
698.872	2608.94
699.061	2633.52
699.25	2684.72
699.438	2711.34
699.627	2699.05
699.816	2629.42
700.005	2524.97
700.193	2631.47
700.382	2633.52
700.571	2576.17
700.76	2553.65
700.948	2541.36
701.137	2582.32
701.326	2572.08
701.514	2494.26
701.703	2594.61
701.892	2555.69
702.08	2608.94
702.269	2572.08
702.457	2674.48
702.646	2576.17
702.834	2529.07
703.023	2580.27
703.212	2541.36
703.4	2551.6
703.589	2584.37
703.777	2678.57
703.965	2529.07
704.154	2680.62
704.342	2578.22
704.531	2600.75
704.719	2598.7
704.907	2518.83
705.096	2596.65
705.284	2697
705.472	2590.51
705.661	2590.51
705.849	2617.13
706.037	2625.33
706.226	2539.31
706.414	2539.31
706.602	2492.21
706.79	2645.8
706.979	2510.64
707.167	2662.19
707.355	2484.02
707.543	2524.97
707.731	2576.17
707.919	2608.94
708.107	2574.13
708.296	2549.55
708.484	2570.03
708.672	2615.09
708.86	2529.07
709.048	2570.03
709.236	2662.19
709.424	2664.24
709.612	2563.89
709.8	2508.59
709.988	2660.14
710.176	2596.65
710.364	2598.7
710.551	2668.33
710.739	2477.87
710.927	2578.22
711.115	2617.13
711.303	2633.52
711.491	2494.26
711.679	2598.7
711.866	2574.13
712.054	2627.37
712.242	2649.9
712.43	2529.07
712.617	2596.65
712.805	2531.12
712.993	2633.52
713.181	2619.18
713.368	2500.4
713.556	2516.78
713.744	2590.51
713.931	2680.62
714.119	2400.05
714.306	2635.57
714.494	2531.12
714.682	2619.18
714.869	2555.69
715.057	2594.61
715.244	2631.47
715.432	2602.8
715.619	2627.37
715.807	2506.54
715.994	2715.44
716.182	2613.04
716.369	2578.22
716.556	2631.47
716.744	2600.75
716.931	2596.65
717.119	2649.9
717.306	2649.9
717.493	2672.43
717.681	2656.04
717.868	2619.18
718.055	2547.5
718.242	2658.09
718.43	2666.28
718.617	2639.66
718.804	2699.05
718.991	2598.7
719.179	2651.95
719.366	2610.99
719.553	2654
719.74	2467.63
719.927	2688.81
720.114	2703.15
720.301	2756.4
720.488	2539.31
720.676	2649.9
720.863	2682.67
721.05	2598.7
721.237	2660.14
721.424	2621.23
721.611	2686.76
721.798	2711.34
721.985	2654
722.172	2649.9
722.358	2623.28
722.545	2590.51
722.732	2647.85
722.919	2670.38
723.106	2608.94
723.293	2748.2
723.48	2594.61
723.667	2645.8
723.853	2627.37
724.04	2785.07
724.227	2662.19
724.414	2789.16
724.6	2619.18
724.787	2631.47
724.974	2631.47
725.161	2699.05
725.347	2588.46
725.534	2735.92
725.72	2670.38
725.907	2709.29
726.094	2733.87
726.28	2654
726.467	2750.25
726.653	2664.24
726.84	2668.33
727.027	2785.07
727.213	2752.3
727.4	2742.06
727.586	2586.41
727.773	2586.41
727.959	2813.74
728.145	2752.3
728.332	2602.8
728.518	2768.68
728.705	2694.96
728.891	2621.23
729.077	2692.91
729.264	2744.11
729.45	2674.48
729.636	2610.99
729.823	2774.83
730.009	2694.96
730.195	2660.14
730.382	2617.13
730.568	2729.77
730.754	2721.58
730.94	2821.93
731.126	2692.91
731.313	2729.77
731.499	2697
731.685	2742.06
731.871	2584.37
732.057	2631.47
732.243	2684.72
732.429	2518.83
732.615	2672.43
732.801	2692.91
732.987	2869.03
733.173	2668.33
733.359	2715.44
733.545	2641.71
733.731	2590.51
733.917	2594.61
734.103	2637.61
734.289	2733.87
734.475	2615.09
734.661	2690.86
734.847	2608.94
735.033	2623.28
735.219	2428.72
735.404	2664.24
735.59	2643.76
735.776	2656.04
735.962	2604.85
736.148	2674.48
736.333	2598.7
736.519	2641.71
736.705	2617.13
736.89	2651.95
737.076	2535.21
737.262	2570.03
737.447	2574.13
737.633	2588.46
737.819	2668.33
738.004	2522.93
738.19	2617.13
738.375	2588.46
738.561	2580.27
738.747	2592.56
738.932	2453.3
739.118	2588.46
739.303	2557.74
739.489	2594.61
739.674	2574.13
739.859	2647.85
740.045	2567.98
740.23	2549.55
740.416	2377.52
740.601	2684.72
740.786	2576.17
740.972	2502.45
741.157	2506.54
741.342	2477.87
741.528	2350.9
741.713	2438.96
741.898	2463.54
742.084	2453.3
742.269	2457.39
742.454	2424.62
742.639	2449.2
742.824	2481.97
743.01	2434.86
743.195	2492.21
743.38	2467.63
743.565	2395.95
743.75	2318.13
743.935	2346.8
744.12	2387.76
744.305	2455.34
744.49	2285.36
744.675	2262.83
744.86	2350.9
745.045	2334.51
745.23	2275.12
745.415	2266.93
745.6	2305.84
745.785	2219.83
745.97	2295.6
746.155	2291.51
746.34	2211.64
746.525	2205.49
746.71	2092.85
746.895	2215.73
747.079	2232.12
747.264	2193.2
747.449	2178.87
747.634	2180.92
747.819	2041.65
748.003	2078.52
748.188	2121.52
748.373	2088.76
748.557	2105.14
748.742	2088.76
748.927	2049.85
749.111	2094.9
749.296	2004.79
749.481	2109.24
749.665	2096.95
749.85	1980.22
750.034	1904.44
750.219	1978.17
750.404	1957.69
750.588	2058.04
750.773	1951.54
750.957	1955.64
751.141	2058.04
751.326	1836.86
751.51	1867.58
751.695	1836.86
751.879	1863.48
752.064	1812.28
752.248	1713.98
752.432	1808.19
752.617	1797.95
752.801	1785.66
752.985	1793.85
753.17	1767.23
753.354	1761.08
753.538	1802.04
753.722	1728.31
753.907	1716.03
754.091	1642.3
754.275	1722.17
754.459	1642.3
754.643	1711.93
754.828	1707.84
755.012	1640.25
755.196	1621.82
755.38	1658.68
755.564	1582.91
755.748	1630.01
755.932	1541.95
756.116	1599.29
756.3	1611.58
756.484	1515.33
756.668	1484.61
756.852	1484.61
757.036	1566.53
757.22	1474.37
757.404	1431.36
757.588	1484.61
757.772	1498.94
757.956	1484.61
758.14	1431.36
758.323	1488.7
758.507	1369.92
758.691	1392.45
758.875	1369.92
759.059	1470.27
759.242	1363.78
759.426	1429.31
759.61	1449.79
759.794	1472.32
759.977	1374.02
760.161	1345.34
760.345	1326.91
760.528	1431.36
760.712	1343.3
760.895	1277.76
761.079	1296.19
761.263	1318.72
761.446	1261.38
761.63	1333.06
761.813	1390.4
761.997	1226.56
762.18	1220.42
762.364	1230.66
762.547	1292.1
762.731	1251.14
762.914	1236.8
763.098	1331.01
763.281	1175.36
763.464	1218.37
763.648	1199.94
763.831	1234.75
764.015	1156.93
764.198	1124.16
764.381	1228.61
764.564	1179.46
764.748	1156.93
764.931	1136.45
765.114	1072.96
765.297	1154.88
765.481	1144.64
765.664	1208.13
765.847	1142.6
766.03	1134.4
766.213	1224.51
766.397	1029.96
766.58	1165.12
766.763	1040.2
766.946	1144.64
767.129	1163.08
767.312	1017.67
767.495	1161.03
767.678	1115.97
767.861	1093.44
768.044	1169.22
768.227	1062.73
768.41	986.95
768.593	970.57
768.776	1079.11
768.959	1034.05
769.142	1083.2
769.324	1048.39
769.507	1115.97
769.69	1083.2
769.873	1027.91
770.056	1093.44
770.239	986.95
770.421	1046.34
770.604	896.84
770.787	993.09
770.97	995.14
771.152	956.23
771.335	1027.91
771.518	939.85
771.7	1105.73
771.883	989
772.066	978.76
772.248	927.56
772.431	999.24
772.613	978.76
772.796	939.85
772.978	921.42
773.161	902.98
773.343	927.56
773.526	966.47
773.708	995.14
773.891	810.82
774.073	888.65
774.256	923.46
774.438	933.7
774.621	800.59
774.803	767.82
774.985	806.73
775.168	810.82
775.35	798.54
775.532	821.06
775.715	790.35
775.897	798.54
776.079	808.78
776.261	907.08
776.444	913.22
776.626	784.2
776.808	816.97
776.99	710.47
777.173	759.63
777.355	841.54
777.537	786.25
777.719	708.43
777.901	737.1
778.083	790.35
778.265	784.2
778.447	755.53
778.629	724.81
778.811	675.66
778.993	712.52
779.175	800.59
779.357	704.33
779.539	761.67
779.721	714.57
779.903	687.95
780.085	724.81
780.267	667.47
780.449	692.04
780.631	630.6
780.812	724.81
780.994	646.99
781.176	718.67
781.358	585.55
781.54	692.04
781.721	681.8
781.903	624.46
782.085	591.69
782.267	591.69
782.448	603.98
782.63	649.04
782.812	583.5
782.993	716.62
783.175	614.22
783.357	554.83
783.538	628.56
783.72	513.87
783.901	567.12
784.083	630.6
784.264	575.31
784.446	565.07
784.627	501.58
784.809	548.68
784.99	597.84
785.172	526.16
785.353	556.88
785.535	517.97
785.716	499.53
785.897	497.49
786.079	509.77
786.26	524.11
786.441	495.44
786.623	403.28
786.804	448.33
786.985	485.2
787.167	444.24
787.348	474.96
787.529	470.86
787.71	499.53
787.891	444.24
788.073	481.1
788.254	405.33
788.435	530.25
788.616	454.48
788.797	438.09
788.978	405.33
789.159	450.38
789.34	454.48
789.522	491.34
789.703	386.9
789.884	485.2
790.065	458.57
790.246	468.81
790.427	395.09
790.607	323.41
790.788	454.48
790.969	380.75
791.15	440.14
791.331	397.14
791.512	395.09
791.693	374.61
791.874	407.38
792.054	427.85
792.235	438.09
792.416	382.8
792.597	370.51
792.778	446.29
792.958	429.9
793.139	419.66
793.32	411.47
793.5	307.02
793.681	386.9
793.862	378.7
794.042	442.19
794.223	292.69
794.404	415.57
794.584	382.8
794.765	296.78
794.945	296.78
795.126	325.46
795.306	388.94
795.487	362.32
795.667	350.03
795.848	309.07
796.028	364.37
796.209	386.9
796.389	290.64
796.57	360.27
796.75	343.89
796.93	386.9
797.111	321.36
797.291	284.5
797.471	251.73
797.652	284.5
797.832	356.18
798.012	331.6
798.192	284.5
798.373	272.21
798.553	290.64
798.733	343.89
798.913	343.89
799.093	288.59
799.274	300.88
799.454	317.26
799.634	384.85
799.814	298.83
799.994	307.02
800.174	286.54
800.354	255.83
800.534	290.64
800.714	307.02
800.894	253.78
801.074	282.45
801.254	255.83
801.434	208.72
801.614	323.41
801.794	190.29
801.974	716.62
802.154	331.6
802.334	182.1
802.514	231.25
802.693	313.17
802.873	292.69
803.053	309.07
803.233	247.63
803.413	255.83
803.592	255.83
803.772	309.07
803.952	282.45
804.131	218.96
804.311	311.12
804.491	298.83
804.67	178
804.85	233.3
805.03	282.45
805.209	270.16
805.389	157.52
805.568	243.54
805.748	288.59
805.928	251.73
806.107	241.49
806.287	272.21
806.466	253.78
806.646	214.87
806.825	225.11
807.004	290.64
807.184	276.31
807.363	282.45
807.543	270.16
807.722	198.48
807.901	300.88
808.081	255.83
808.26	169.81
808.439	175.95
808.619	241.49
808.798	239.44
808.977	243.54
809.156	243.54
809.336	257.87
809.515	235.35
809.694	190.29
809.873	243.54
810.052	145.24
810.231	208.72
810.411	257.87
810.59	218.96
810.769	247.63
810.948	210.77
811.127	165.71
811.306	194.39
811.485	130.9
811.664	237.39
811.843	221.01
812.022	167.76
812.201	241.49
812.38	182.1
812.559	194.39
812.737	223.06
812.916	149.33
813.095	276.31
813.274	151.38
813.453	110.42
813.632	190.29
813.811	173.91
813.989	198.48
814.168	169.81
814.347	153.43
814.526	175.95
814.704	200.53
814.883	200.53
815.062	212.82
815.24	153.43
815.419	159.57
815.598	196.43
815.776	194.39
815.955	241.49
816.133	83.8
816.312	159.57
816.49	266.07
816.669	110.42
816.847	112.47
817.026	116.56
817.204	223.06
817.383	202.58
817.561	196.43
817.74	130.9
817.918	147.28
818.097	178
818.275	221.01
818.453	171.86
818.632	194.39
818.81	139.09
818.988	120.66
819.167	157.52
819.345	218.96
819.523	116.56
819.701	186.19
819.879	214.87
820.058	91.99
820.236	155.47
820.414	104.28
820.592	91.99
820.77	94.04
820.948	108.37
821.127	128.85
821.305	139.09
821.483	126.8
821.661	171.86
821.839	157.52
822.017	87.89
822.195	178
822.373	251.73
822.551	180.05
822.729	118.61
822.907	180.05
823.085	157.52
823.262	77.65
823.44	145.24
823.618	120.66
823.796	114.52
823.974	53.08
824.152	204.63
824.329	221.01
824.507	130.9
824.685	202.58
824.863	180.05
825.04	141.14
825.218	132.95
825.396	184.15
825.574	22.36
825.751	79.7
825.929	96.08
826.107	196.43
826.284	114.52
826.462	112.47
826.639	175.95
826.817	89.94
826.994	147.28
827.172	137.04
827.349	108.37
827.527	128.85
827.704	112.47
827.882	141.14
828.059	114.52
828.237	130.9
828.414	110.42
828.591	55.12
828.769	61.27
828.946	100.18
829.124	71.51
829.301	188.24
829.478	61.27
829.655	143.19
829.833	118.61
830.01	120.66
830.187	63.32
830.364	73.56
830.542	110.42
830.719	61.27
830.896	87.89
831.073	89.94
831.25	69.46
831.427	81.75
831.604	157.52
831.782	67.41
831.959	98.13
832.136	75.6
832.313	91.99
832.49	42.84
832.667	163.67
832.844	40.79
833.021	120.66
833.198	79.7
833.374	61.27
833.551	34.64
833.728	130.9
833.905	102.23
834.082	51.03
834.259	110.42
834.436	98.13
834.612	32.6
834.789	61.27
834.966	102.23
835.143	139.09
835.319	53.08
835.496	83.8
835.673	67.41
835.85	77.65
836.026	44.88
836.203	87.89
836.38	81.75
836.556	102.23
836.733	59.22
836.909	67.41
837.086	112.47
837.262	114.52
837.439	57.17
837.616	65.36
837.792	143.19
837.968	85.84
838.145	94.04
838.321	32.6
838.498	48.98
838.674	116.56
838.851	51.03
839.027	135
839.203	87.89
839.38	94.04
839.556	110.42
839.732	91.99
839.909	104.28
840.085	14.17
840.261	87.89
840.437	100.18
840.614	118.61
840.79	108.37
840.966	89.94
841.142	94.04
841.318	3.93
841.494	122.71
841.671	61.27
841.847	100.18
842.023	126.8
842.199	79.7
842.375	159.57
842.551	53.08
842.727	20.31
842.903	100.18
843.079	44.88
843.255	102.23
843.431	-24.75
843.607	94.04
843.783	8.02
843.959	77.65
844.134	114.52
844.31	32.6
844.486	94.04
844.662	106.32
844.838	22.36
845.013	69.46
845.189	118.61
845.365	63.32
845.541	126.8
845.716	22.36
845.892	77.65
846.068	94.04
846.244	46.93
846.419	53.08
846.595	59.22
846.77	12.12
846.946	114.52
847.122	34.64
847.297	44.88
847.473	79.7
847.648	42.84
847.824	94.04
847.999	44.88
848.175	98.13
848.35	48.98
848.526	118.61
848.701	32.6
848.876	20.31
849.052	85.84
849.227	44.88
849.403	20.31
849.578	5.97
849.753	69.46
849.929	44.88
850.104	-12.46
850.279	124.76
850.454	85.84
850.63	20.31
850.805	57.17
850.98	57.17
851.155	55.12
851.33	77.65
851.505	3.93
851.681	-16.55
851.856	83.8
852.031	20.31
852.206	26.45
852.381	59.22
852.556	36.69
852.731	30.55
852.906	53.08
853.081	89.94
853.256	94.04
853.431	34.64
853.606	22.36
853.781	-10.41
853.956	75.6
854.131	-8.36
854.305	12.12
854.48	12.12
854.655	63.32
854.83	28.5
855.005	-26.79
855.18	28.5
855.354	5.97
855.529	73.56
855.704	61.27
855.879	65.36
856.053	-10.41
856.228	36.69
856.403	-22.7
856.577	40.79
856.752	81.75
856.926	44.88
857.101	24.4
857.276	-22.7
857.45	63.32
857.625	118.61
857.799	108.37
857.974	42.84
858.148	-2.22
858.323	51.03
858.497	-20.65
858.672	42.84
858.846	44.88
859.02	63.32
859.195	59.22
859.369	71.51
859.543	36.69
859.718	63.32
859.892	98.13
860.066	24.4
860.241	-10.41
860.415	85.84
860.589	28.5
860.763	40.79
860.938	36.69
861.112	67.41
861.286	-51.37
861.46	-6.31
861.634	57.17
861.808	81.75
861.982	28.5
862.157	20.31
862.331	5.97
862.505	-34.99
862.679	22.36
862.853	24.4
863.027	-8.36
863.201	16.21
863.375	40.79
863.549	65.36
863.722	57.17
863.896	-18.6
864.07	-63.66
864.244	77.65
864.418	46.93
864.592	-37.03
864.766	-16.55
864.939	5.97
865.113	26.45
865.287	20.31
865.461	-39.08
865.634	48.98
865.808	-49.32
865.982	55.12
866.156	-8.36
866.329	22.36
866.503	57.17
866.676	63.32
866.85	85.84
867.024	18.26
867.197	75.6
867.371	83.8
867.544	26.45
867.718	-0.17
867.891	77.65
868.065	-34.99
868.238	36.69
868.412	114.52
868.585	16.21
868.759	102.23
868.932	26.45
869.105	3.93
869.279	-2.22
869.452	-57.51
869.625	-6.31
869.799	51.03
869.972	18.26
870.145	57.17
870.319	83.8
870.492	44.88
870.665	-12.46
870.838	14.17
871.011	-24.75
871.185	-37.03
871.358	-4.27
871.531	51.03
871.704	22.36
871.877	16.21
872.05	-24.75
872.223	24.4
872.396	-30.89
872.569	42.84
872.742	-24.75
872.915	51.03
873.088	36.69
873.261	-12.46
873.434	91.99
873.607	3.93
873.78	51.03
873.953	3.93
874.126	32.6
874.299	26.45
874.471	24.4
874.644	36.69
874.817	1.88
874.99	59.22
875.163	-55.47
875.335	-28.84
875.508	34.64
875.681	65.36
875.853	-108.71
876.026	-16.55
876.199	-10.41
876.371	-2.22
876.544	36.69
876.717	91.99
876.889	-2.22
877.062	46.93
877.234	3.93
877.407	1.88
877.579	5.97
877.752	14.17
877.924	67.41
878.097	14.17
878.269	-22.7
878.442	77.65
878.614	77.65
878.786	112.47
878.959	57.17
879.131	32.6
879.303	44.88
879.476	20.31
879.648	1.88
879.82	57.17
879.993	24.4
880.165	10.07
880.337	-10.41
880.509	57.17
880.681	-24.75
880.854	65.36
881.026	5.97
881.198	57.17
881.37	53.08
881.542	-28.84
881.714	-4.27
881.886	-32.94
882.058	104.28
882.23	77.65
882.402	63.32
882.574	8.02
882.746	73.56
882.918	57.17
883.09	34.64
883.262	-4.27
883.434	59.22
883.606	-49.32
883.778	-0.17
883.95	67.41
884.122	-26.79
884.293	44.88
884.465	-10.41
884.637	91.99
884.809	-37.03
884.98	12.12
885.152	53.08
885.324	16.21
885.496	5.97
885.667	20.31
885.839	-12.46
886.011	104.28
886.182	12.12
886.354	110.42
886.525	-22.7
886.697	85.84
886.869	-30.89
887.04	51.03
887.212	51.03
887.383	100.18
887.555	32.6
887.726	-28.84
887.897	-43.18
888.069	10.07
888.24	38.74
888.412	96.08
888.583	-0.17
888.754	67.41
888.926	-49.32
889.097	106.32
889.268	-12.46
889.44	24.4
889.611	36.69
889.782	67.41
889.953	16.21
890.125	46.93
890.296	34.64
890.467	40.79
890.638	-4.27
890.809	30.55
890.98	36.69
891.151	26.45
891.323	77.65
891.494	-41.13
891.665	-0.17
891.836	34.64
892.007	5.97
892.178	32.6
892.349	16.21
892.52	30.55
892.691	36.69
892.862	42.84
893.032	-4.27
893.203	18.26
893.374	-4.27
893.545	40.79
893.716	30.55
893.887	128.85
894.057	-16.55
894.228	51.03
894.399	42.84
894.57	55.12
894.74	-34.99
894.911	-8.36
895.082	22.36
895.253	61.27
895.423	59.22
895.594	3.93
895.764	26.45
895.935	30.55
896.106	-2.22
896.276	3.93
896.447	10.07
896.617	14.17
896.788	36.69
896.958	-22.7
897.129	-12.46
897.299	-22.7
897.47	22.36
897.64	18.26
897.81	122.71
897.981	3.93
898.151	-12.46
898.322	38.74
898.492	-28.84
898.662	48.98
898.832	-43.18
899.003	28.5
899.173	-24.75
899.343	-6.31
899.513	67.41
