Data from USB4F104151__78__11-52-44-688.txt Node

Date: Fri Mar 14 11:52:44 EDT 2025
User: louis
Spectrometer: USB4F10415
Trigger mode: 4
Integration Time (sec): 2.000000E-2
Scans to average: 1
Electric dark correction enabled: true
Nonlinearity correction enabled: false
Boxcar width: 0
XAxis mode: Wavelengths
Number of Pixels in Spectrum: 3648
>>>>>Begin Spectral Data<<<<<
178.204	-128.51
178.424	-128.51
178.644	-128.51
178.864	-110.08
179.084	-71.17
179.304	-17.92
179.524	45.57
179.744	47.62
179.964	-46.59
180.184	-11.78
180.404	29.18
180.624	4.61
180.844	16.9
181.064	-58.88
181.283	-40.45
181.503	16.9
181.723	14.85
181.943	-46.59
182.163	53.76
182.383	-81.41
182.602	-1.54
182.822	23.04
183.042	12.8
183.262	-32.26
183.482	-9.73
183.701	45.57
183.921	49.66
184.141	-50.69
184.361	25.09
184.58	16.9
184.8	76.29
185.02	-7.68
185.239	20.99
185.459	-5.63
185.679	12.8
185.898	-40.45
186.118	-19.97
186.338	-7.68
186.557	-30.21
186.777	-30.21
186.997	31.23
187.216	-32.26
187.436	8.7
187.655	-1.54
187.875	0.51
188.095	-9.73
188.314	-56.83
188.534	-26.11
188.753	-22.02
188.973	33.28
189.192	45.57
189.412	29.18
189.631	-34.3
189.851	27.14
190.07	-1.54
190.29	20.99
190.509	-1.54
190.729	-13.82
190.948	51.71
191.168	16.9
191.387	68.09
191.607	57.86
191.826	45.57
192.045	-36.35
192.265	18.94
192.484	-36.35
192.704	35.33
192.923	-3.58
193.142	41.47
193.362	27.14
193.581	61.95
193.8	57.86
194.02	31.23
194.239	18.94
194.458	20.99
194.678	35.33
194.897	-24.06
195.116	25.09
195.335	29.18
195.555	10.75
195.774	-38.4
195.993	10.75
196.212	-5.63
196.432	-62.98
196.651	25.09
196.87	8.7
197.089	8.7
197.308	-13.82
197.528	25.09
197.747	-36.35
197.966	18.94
198.185	-24.06
198.404	25.09
198.623	35.33
198.842	-5.63
199.062	27.14
199.281	-7.68
199.5	25.09
199.719	14.85
199.938	8.7
200.157	47.62
200.376	23.04
200.595	12.8
200.814	0.51
201.033	-11.78
201.252	45.57
201.471	29.18
201.69	12.8
201.909	16.9
202.128	0.51
202.347	-58.88
202.566	-22.02
202.785	0.51
203.004	18.94
203.223	6.66
203.442	-67.07
203.661	-7.68
203.879	4.61
204.098	-15.87
204.317	-3.58
204.536	74.24
204.755	-19.97
204.974	14.85
205.193	68.09
205.411	20.99
205.63	-22.02
205.849	41.47
206.068	51.71
206.287	-28.16
206.505	-69.12
206.724	6.66
206.943	-85.5
207.162	-11.78
207.381	-97.79
207.599	-30.21
207.818	12.8
208.037	-7.68
208.255	-62.98
208.474	-62.98
208.693	-15.87
208.911	14.85
209.13	31.23
209.349	2.56
209.567	12.8
209.786	76.29
210.005	-15.87
210.223	-3.58
210.442	-50.69
210.661	8.7
210.879	18.94
211.098	25.09
211.316	57.86
211.535	82.43
211.753	57.86
211.972	0.51
212.191	-28.16
212.409	-11.78
212.628	-28.16
212.846	-26.11
213.065	23.04
213.283	-67.07
213.502	12.8
213.72	-5.63
213.938	59.9
214.157	-1.54
214.375	-1.54
214.594	-1.54
214.812	55.81
215.031	14.85
215.249	-15.87
215.467	-79.36
215.686	-15.87
215.904	100.86
216.122	-9.73
216.341	33.28
216.559	-103.93
216.778	6.66
216.996	-38.4
217.214	43.52
217.432	47.62
217.651	-3.58
217.869	-38.4
218.087	-15.87
218.306	20.99
218.524	33.28
218.742	2.56
218.96	16.9
219.179	6.66
219.397	33.28
219.615	57.86
219.833	64
220.051	-38.4
220.27	47.62
220.488	66.05
220.706	41.47
220.924	-5.63
221.142	33.28
221.36	14.85
221.578	25.09
221.796	20.99
222.015	78.33
222.233	-5.63
222.451	-11.78
222.669	-28.16
222.887	-32.26
223.105	16.9
223.323	-26.11
223.541	23.04
223.759	47.62
223.977	-50.69
224.195	51.71
224.413	16.9
224.631	-5.63
224.849	35.33
225.067	76.29
225.285	0.51
225.503	-40.45
225.721	-3.58
225.939	41.47
226.157	-30.21
226.375	16.9
226.592	-32.26
226.81	-50.69
227.028	-28.16
227.246	78.33
227.464	-48.64
227.682	6.66
227.9	39.42
228.117	59.9
228.335	0.51
228.553	37.38
228.771	-30.21
228.989	31.23
229.206	-36.35
229.424	-54.78
229.642	-69.12
229.86	43.52
230.077	-17.92
230.295	29.18
230.513	43.52
230.731	-46.59
230.948	70.14
231.166	43.52
231.384	-19.97
231.601	-116.22
231.819	14.85
232.037	35.33
232.254	-24.06
232.472	-11.78
232.689	6.66
232.907	4.61
233.125	4.61
233.342	-9.73
233.56	76.29
233.777	0.51
233.995	43.52
234.213	53.76
234.43	-5.63
234.648	14.85
234.865	64
235.083	78.33
235.3	37.38
235.518	129.53
235.735	37.38
235.953	43.52
236.17	-36.35
236.388	0.51
236.605	-24.06
236.822	-7.68
237.04	33.28
237.257	59.9
237.475	-44.54
237.692	-26.11
237.909	4.61
238.127	-42.5
238.344	43.52
238.562	-65.02
238.779	-11.78
238.996	18.94
239.214	57.86
239.431	64
239.648	-3.58
239.865	-46.59
240.083	14.85
240.3	45.57
240.517	14.85
240.735	74.24
240.952	125.44
241.169	23.04
241.386	4.61
241.603	53.76
241.821	45.57
242.038	18.94
242.255	45.57
242.472	-62.98
242.689	31.23
242.907	-5.63
243.124	16.9
243.341	-3.58
243.558	-36.35
243.775	-24.06
243.992	-34.3
244.209	-32.26
244.426	125.44
244.643	12.8
244.86	20.99
245.078	-52.74
245.295	29.18
245.512	59.9
245.729	-36.35
245.946	16.9
246.163	47.62
246.38	-34.3
246.597	4.61
246.814	-22.02
247.031	37.38
247.248	-7.68
247.464	55.81
247.681	45.57
247.898	45.57
248.115	31.23
248.332	6.66
248.549	61.95
248.766	78.33
248.983	145.92
249.2	25.09
249.417	4.61
249.633	-5.63
249.85	-36.35
250.067	0.51
250.284	2.56
250.501	-3.58
250.717	37.38
250.934	-32.26
251.151	39.42
251.368	16.9
251.585	-30.21
251.801	-15.87
252.018	8.7
252.235	-30.21
252.451	-9.73
252.668	31.23
252.885	12.8
253.102	-48.64
253.318	41.47
253.535	-19.97
253.752	-75.26
253.968	-34.3
254.185	41.47
254.401	0.51
254.618	10.75
254.835	14.85
255.051	90.62
255.268	2.56
255.484	55.81
255.701	-46.59
255.917	8.7
256.134	-40.45
256.351	-5.63
256.567	18.94
256.784	35.33
257	-105.98
257.217	8.7
257.433	76.29
257.65	-50.69
257.866	-9.73
258.082	-77.31
258.299	-22.02
258.515	-17.92
258.732	12.8
258.948	18.94
259.165	16.9
259.381	78.33
259.597	-9.73
259.814	-9.73
260.03	33.28
260.246	-9.73
260.463	45.57
260.679	25.09
260.895	51.71
261.112	37.38
261.328	49.66
261.544	-32.26
261.761	39.42
261.977	25.09
262.193	-38.4
262.409	45.57
262.626	33.28
262.842	70.14
263.058	-5.63
263.274	-13.82
263.49	-38.4
263.707	25.09
263.923	53.76
264.139	-7.68
264.355	57.86
264.571	45.57
264.787	-11.78
265.004	92.67
265.22	37.38
265.436	-26.11
265.652	29.18
265.868	59.9
266.084	-32.26
266.3	-38.4
266.516	-26.11
266.732	-9.73
266.948	16.9
267.164	4.61
267.38	-3.58
267.596	49.66
267.812	76.29
268.028	-32.26
268.244	2.56
268.46	-79.36
268.676	16.9
268.892	0.51
269.108	-118.27
269.324	76.29
269.54	-7.68
269.756	78.33
269.972	-5.63
270.188	18.94
270.403	8.7
270.619	23.04
270.835	-42.5
271.051	4.61
271.267	39.42
271.483	-17.92
271.698	4.61
271.914	12.8
272.13	2.56
272.346	-7.68
272.562	-13.82
272.777	51.71
272.993	31.23
273.209	-3.58
273.425	18.94
273.64	4.61
273.856	4.61
274.072	-3.58
274.287	37.38
274.503	25.09
274.719	6.66
274.934	-26.11
275.15	-28.16
275.366	-30.21
275.581	-11.78
275.797	10.75
276.012	-58.88
276.228	16.9
276.444	-11.78
276.659	8.7
276.875	-40.45
277.09	-9.73
277.306	-46.59
277.521	70.14
277.737	33.28
277.952	35.33
278.168	-28.16
278.383	0.51
278.599	66.05
278.814	-5.63
279.03	8.7
279.245	47.62
279.461	29.18
279.676	51.71
279.892	-7.68
280.107	-65.02
280.322	-5.63
280.538	-13.82
280.753	33.28
280.969	31.23
281.184	12.8
281.399	129.53
281.615	64
281.83	4.61
282.045	-44.54
282.26	68.09
282.476	-36.35
282.691	0.51
282.906	-42.5
283.122	47.62
283.337	-60.93
283.552	18.94
283.767	6.66
283.983	70.14
284.198	-11.78
284.413	-32.26
284.628	-54.78
284.843	-42.5
285.058	-7.68
285.274	-9.73
285.489	-28.16
285.704	68.09
285.919	45.57
286.134	70.14
286.349	-1.54
286.564	-13.82
286.779	92.67
286.995	-13.82
287.21	-5.63
287.425	-13.82
287.64	-38.4
287.855	0.51
288.07	-159.23
288.285	43.52
288.5	27.14
288.715	64
288.93	47.62
289.145	-11.78
289.36	74.24
289.575	-9.73
289.79	-7.68
290.004	8.7
290.219	70.14
290.434	55.81
290.649	18.94
290.864	27.14
291.079	10.75
291.294	-1.54
291.509	-32.26
291.724	2.56
291.938	20.99
292.153	61.95
292.368	-48.64
292.583	-15.87
292.798	2.56
293.012	12.8
293.227	27.14
293.442	-22.02
293.657	29.18
293.871	25.09
294.086	-77.31
294.301	-13.82
294.516	45.57
294.73	29.18
294.945	6.66
295.16	31.23
295.374	57.86
295.589	-38.4
295.804	-11.78
296.018	61.95
296.233	43.52
296.447	-15.87
296.662	43.52
296.877	2.56
297.091	12.8
297.306	16.9
297.52	39.42
297.735	6.66
297.949	2.56
298.164	-26.11
298.378	-58.88
298.593	20.99
298.807	-54.78
299.022	92.67
299.236	-24.06
299.451	-87.55
299.665	0.51
299.88	-15.87
300.094	-3.58
300.309	74.24
300.523	-5.63
300.737	39.42
300.952	-75.26
301.166	68.09
301.381	-87.55
301.595	0.51
301.809	-15.87
302.024	-30.21
302.238	-36.35
302.452	37.38
302.667	18.94
302.881	80.38
303.095	12.8
303.309	104.96
303.524	92.67
303.738	-34.3
303.952	-26.11
304.166	88.57
304.381	-5.63
304.595	64
304.809	-26.11
305.023	49.66
305.237	-9.73
305.452	29.18
305.666	23.04
305.88	31.23
306.094	88.57
306.308	-15.87
306.522	45.57
306.736	70.14
306.95	-15.87
307.164	43.52
307.379	33.28
307.593	37.38
307.807	-1.54
308.021	31.23
308.235	-42.5
308.449	51.71
308.663	37.38
308.877	111.1
309.091	90.62
309.305	-28.16
309.519	-3.58
309.733	59.9
309.947	31.23
310.161	2.56
310.374	23.04
310.588	61.95
310.802	29.18
311.016	31.23
311.23	-36.35
311.444	10.75
311.658	-56.83
311.872	0.51
312.085	-48.64
312.299	-11.78
312.513	70.14
312.727	49.66
312.941	-36.35
313.154	14.85
313.368	-3.58
313.582	-28.16
313.796	16.9
314.009	25.09
314.223	80.38
314.437	18.94
314.651	16.9
314.864	82.43
315.078	57.86
315.292	23.04
315.505	35.33
315.719	-22.02
315.933	12.8
316.146	25.09
316.36	-24.06
316.573	45.57
316.787	8.7
317.001	-7.68
317.214	-50.69
317.428	-44.54
317.641	41.47
317.855	-22.02
318.068	10.75
318.282	27.14
318.495	6.66
318.709	31.23
318.922	-11.78
319.136	29.18
319.349	43.52
319.563	33.28
319.776	-26.11
319.99	-36.35
320.203	68.09
320.417	127.49
320.63	0.51
320.843	45.57
321.057	16.9
321.27	-7.68
321.483	39.42
321.697	41.47
321.91	-99.84
322.124	-1.54
322.337	35.33
322.55	-7.68
322.763	57.86
322.977	-9.73
323.19	76.29
323.403	35.33
323.617	27.14
323.83	-30.21
324.043	55.81
324.256	27.14
324.469	16.9
324.683	0.51
324.896	-32.26
325.109	12.8
325.322	16.9
325.535	104.96
325.748	-17.92
325.962	23.04
326.175	-7.68
326.388	-32.26
326.601	10.75
326.814	74.24
327.027	14.85
327.24	12.8
327.453	-3.58
327.666	14.85
327.879	51.71
328.092	-28.16
328.305	57.86
328.518	12.8
328.731	-13.82
328.944	107.01
329.157	64
329.37	31.23
329.583	25.09
329.796	33.28
330.009	25.09
330.222	88.57
330.435	31.23
330.648	-32.26
330.861	45.57
331.073	10.75
331.286	4.61
331.499	27.14
331.712	-69.12
331.925	64
332.138	0.51
332.35	102.91
332.563	-11.78
332.776	29.18
332.989	6.66
333.202	-11.78
333.414	16.9
333.627	64
333.84	31.23
334.053	55.81
334.265	-28.16
334.478	18.94
334.691	-11.78
334.903	55.81
335.116	47.62
335.329	-28.16
335.541	-15.87
335.754	111.1
335.966	-60.93
336.179	4.61
336.392	43.52
336.604	39.42
336.817	94.72
337.029	45.57
337.242	35.33
337.454	39.42
337.667	12.8
337.88	86.53
338.092	31.23
338.305	29.18
338.517	-19.97
338.729	33.28
338.942	35.33
339.154	0.51
339.367	-1.54
339.579	23.04
339.792	27.14
340.004	29.18
340.217	25.09
340.429	-15.87
340.641	-77.31
340.854	31.23
341.066	31.23
341.278	6.66
341.491	61.95
341.703	-3.58
341.915	51.71
342.128	-15.87
342.34	-3.58
342.552	25.09
342.764	8.7
342.977	-1.54
343.189	-11.78
343.401	47.62
343.613	-1.54
343.826	82.43
344.038	-52.74
344.25	96.77
344.462	18.94
344.674	29.18
344.886	-3.58
345.099	37.38
345.311	70.14
345.523	-32.26
345.735	8.7
345.947	16.9
346.159	33.28
346.371	-9.73
346.583	-11.78
346.795	33.28
347.007	33.28
347.219	53.76
347.431	14.85
347.643	72.19
347.855	37.38
348.067	-32.26
348.279	0.51
348.491	33.28
348.703	20.99
348.915	12.8
349.127	-15.87
349.339	29.18
349.551	16.9
349.763	107.01
349.975	-15.87
350.187	88.57
350.399	-3.58
350.61	96.77
350.822	33.28
351.034	80.38
351.246	-15.87
351.458	37.38
351.669	33.28
351.881	-15.87
352.093	35.33
352.305	76.29
352.517	43.52
352.728	33.28
352.94	16.9
353.152	10.75
353.363	-40.45
353.575	25.09
353.787	41.47
353.999	53.76
354.21	-5.63
354.422	10.75
354.633	33.28
354.845	78.33
355.057	68.09
355.268	16.9
355.48	43.52
355.692	39.42
355.903	23.04
356.115	12.8
356.326	-62.98
356.538	96.77
356.749	23.04
356.961	8.7
357.172	55.81
357.384	-60.93
357.595	8.7
357.807	127.49
358.018	23.04
358.23	43.52
358.441	119.29
358.653	-48.64
358.864	129.53
359.075	18.94
359.287	37.38
359.498	37.38
359.709	31.23
359.921	-28.16
360.132	-22.02
360.344	53.76
360.555	98.81
360.766	33.28
360.977	72.19
361.189	-9.73
361.4	-3.58
361.611	-28.16
361.823	45.57
362.034	43.52
362.245	-7.68
362.456	82.43
362.667	47.62
362.879	27.14
363.09	80.38
363.301	-5.63
363.512	43.52
363.723	82.43
363.935	-5.63
364.146	2.56
364.357	12.8
364.568	98.81
364.779	-15.87
364.99	119.29
365.201	41.47
365.412	66.05
365.623	37.38
365.834	80.38
366.045	4.61
366.256	-22.02
366.467	-19.97
366.678	2.56
366.889	53.76
367.1	45.57
367.311	8.7
367.522	-26.11
367.733	-13.82
367.944	25.09
368.155	59.9
368.366	55.81
368.577	61.95
368.788	25.09
368.999	-15.87
369.209	-9.73
369.42	27.14
369.631	16.9
369.842	-5.63
370.053	33.28
370.264	59.9
370.474	-7.68
370.685	-30.21
370.896	-17.92
371.107	-19.97
371.317	27.14
371.528	31.23
371.739	20.99
371.95	-1.54
372.16	-1.54
372.371	-11.78
372.582	-19.97
372.792	-13.82
373.003	20.99
373.214	29.18
373.424	25.09
373.635	-17.92
373.846	143.87
374.056	-44.54
374.267	8.7
374.477	115.2
374.688	47.62
374.898	16.9
375.109	0.51
375.319	-40.45
375.53	20.99
375.74	12.8
375.951	10.75
376.161	-44.54
376.372	166.4
376.582	-75.26
376.793	49.66
377.003	-7.68
377.214	-5.63
377.424	68.09
377.635	33.28
377.845	-7.68
378.055	64
378.266	18.94
378.476	16.9
378.686	31.23
378.897	49.66
379.107	70.14
379.317	33.28
379.528	43.52
379.738	74.24
379.948	-9.73
380.158	-7.68
380.369	0.51
380.579	53.76
380.789	12.8
380.999	123.39
381.21	43.52
381.42	18.94
381.63	55.81
381.84	94.72
382.05	68.09
382.261	43.52
382.471	2.56
382.681	39.42
382.891	57.86
383.101	94.72
383.311	6.66
383.521	-58.88
383.731	74.24
383.941	55.81
384.151	57.86
384.361	-91.65
384.571	-7.68
384.781	51.71
384.991	121.34
385.201	35.33
385.411	-15.87
385.621	-36.35
385.831	47.62
386.041	82.43
386.251	39.42
386.461	104.96
386.671	4.61
386.881	59.9
387.091	39.42
387.301	41.47
387.511	25.09
387.72	94.72
387.93	66.05
388.14	25.09
388.35	25.09
388.56	37.38
388.769	61.95
388.979	45.57
389.189	8.7
389.399	14.85
389.609	37.38
389.818	102.91
390.028	45.57
390.238	8.7
390.447	121.34
390.657	113.15
390.867	29.18
391.076	80.38
391.286	45.57
391.496	102.91
391.705	74.24
391.915	115.2
392.125	51.71
392.334	29.18
392.544	20.99
392.753	94.72
392.963	2.56
393.172	39.42
393.382	82.43
393.591	51.71
393.801	6.66
394.01	66.05
394.22	59.9
394.429	0.51
394.639	64
394.848	59.9
395.058	66.05
395.267	125.44
395.477	14.85
395.686	-15.87
395.895	107.01
396.105	123.39
396.314	39.42
396.524	47.62
396.733	-1.54
396.942	131.58
397.152	154.11
397.361	109.05
397.57	57.86
397.78	66.05
397.989	86.53
398.198	129.53
398.407	55.81
398.617	10.75
398.826	66.05
399.035	16.9
399.244	76.29
399.453	64
399.663	12.8
399.872	51.71
400.081	-15.87
400.29	133.63
400.499	59.9
400.708	70.14
400.917	16.9
401.127	23.04
401.336	109.05
401.545	115.2
401.754	43.52
401.963	80.38
402.172	8.7
402.381	125.44
402.59	72.19
402.799	109.05
403.008	129.53
403.217	111.1
403.426	150.01
403.635	143.87
403.844	145.92
404.053	98.81
404.262	51.71
404.471	94.72
404.68	123.39
404.888	92.67
405.097	168.45
405.306	109.05
405.515	100.86
405.724	121.34
405.933	113.15
406.142	186.88
406.35	170.49
406.559	104.96
406.768	135.68
406.977	201.21
407.185	160.25
407.394	158.21
407.603	186.88
407.812	168.45
408.02	203.26
408.229	186.88
408.438	127.49
408.646	180.73
408.855	188.93
409.064	252.41
409.272	160.25
409.481	158.21
409.69	223.74
409.898	178.69
410.107	184.83
410.315	283.13
410.524	254.46
410.733	354.81
410.941	248.32
411.15	365.05
411.358	270.84
411.567	375.29
411.775	246.27
411.984	375.29
412.192	289.28
412.401	371.19
412.609	320
412.818	342.52
413.026	410.11
413.234	420.35
413.443	461.3
413.651	449.02
413.86	428.54
414.068	465.4
414.276	530.94
414.485	465.4
414.693	541.18
414.901	602.61
415.11	551.42
415.318	606.71
415.526	647.67
415.734	651.77
415.943	594.42
416.151	723.44
416.359	657.91
416.567	743.92
416.776	686.58
416.984	756.21
417.192	737.78
417.4	870.9
417.608	813.56
417.817	905.71
418.025	893.43
418.233	924.15
418.441	866.8
418.649	936.43
418.857	913.91
419.065	1065.46
419.273	1057.26
419.481	1188.33
419.689	1122.8
419.897	1161.71
420.105	1266.16
420.313	1278.44
420.521	1300.97
420.729	1397.23
420.937	1389.03
421.145	1405.42
421.353	1526.25
421.561	1565.16
421.769	1516.01
421.977	1690.09
422.185	1563.11
422.393	1823.2
422.601	1858.02
422.809	1808.87
423.017	1970.66
423.224	1978.85
423.432	2048.48
423.64	2130.4
423.848	2245.09
424.056	2173.41
424.263	2277.85
424.471	2327
424.679	2408.92
424.887	2505.18
425.094	2648.54
425.302	2597.34
425.51	2800.09
425.718	2748.89
425.925	2834.9
426.133	2951.63
426.341	3148.24
426.548	3189.2
426.756	3246.54
426.964	3279.31
427.171	3504.59
427.379	3539.4
427.586	3549.64
427.794	3688.9
428.001	3865.03
428.209	4151.74
428.417	3922.37
428.624	4299.2
428.832	4411.84
429.039	4389.31
429.247	4211.14
429.454	4727.22
429.662	5028.28
429.869	4774.33
430.076	5067.19
430.284	4833.72
430.491	5042.61
430.699	5587.37
430.906	5327.28
431.114	5466.54
431.321	5724.58
431.528	5900.71
431.736	6154.66
431.943	6463.9
432.15	6414.75
432.358	6414.75
432.565	6697.37
432.772	6711.71
432.979	6908.31
433.187	6979.99
433.394	7047.57
433.601	7588.24
433.808	7551.37
434.016	7655.82
434.223	7881.1
434.43	8374.66
434.637	8247.68
434.844	8817.02
435.052	8917.37
435.259	8923.51
435.466	9126.26
435.673	8862.07
435.88	9441.65
436.087	9937.26
436.294	9894.25
436.501	9724.27
436.708	9867.63
436.915	10377.57
437.122	10774.88
437.329	10711.39
437.537	11192.66
437.743	11465.04
437.95	11004.25
438.157	11714.89
438.364	12259.65
438.571	11954.51
438.778	12200.26
438.985	13592.88
439.192	12845.37
439.399	13285.69
439.606	12912.95
439.813	13791.53
440.02	14502.18
440.227	14074.15
440.433	14000.43
440.64	14666.02
440.847	14491.94
441.054	14809.37
441.261	15982.86
441.467	15589.65
441.674	16191.75
441.881	16482.56
442.088	16642.31
442.294	16263.43
442.501	16703.75
442.708	17060.09
442.914	17981.68
443.121	18399.46
443.328	18262.25
443.534	19415.26
443.741	18874.59
443.948	18561.25
444.154	19724.5
444.361	19763.41
444.568	20086.99
444.774	19654.87
444.981	20086.99
445.187	20984
445.394	21971.12
445.6	21481.66
445.807	23437.47
446.013	22507.69
446.22	23173.28
446.426	23814.29
446.633	24301.71
446.839	25194.62
447.046	24166.54
447.252	25526.39
447.459	25231.49
447.665	25376.89
447.871	26554.47
448.078	27488.35
448.284	26136.69
448.491	26554.47
448.697	27977.81
448.903	28457.04
449.11	28454.99
449.316	28160.08
449.522	28684.36
449.728	29071.43
449.935	29753.4
450.141	29640.76
450.347	30165.04
450.553	29372.48
450.76	29782.07
450.966	30832.68
451.172	30171.19
451.378	31125.54
451.584	30887.98
451.791	31617.05
451.997	31307.81
452.203	31639.58
452.409	31705.12
452.615	31438.88
452.821	30857.26
453.027	30212.15
453.233	32028.7
453.44	30357.55
453.646	30795.82
453.852	31037.48
454.058	31428.64
454.264	30736.43
454.47	31545.37
454.676	30400.56
454.882	31787.03
455.088	28725.32
455.294	29511.74
455.5	29806.65
455.705	30324.79
455.911	28719.18
456.117	28473.42
456.323	28049.49
456.529	26577
456.735	27805.78
456.941	27156.58
457.147	26390.64
457.352	25692.28
457.558	25483.39
457.764	25606.27
457.97	25141.38
458.176	24797.32
458.381	24428.68
458.587	23318.68
458.793	23238.81
458.999	22304.94
459.204	23666.84
459.41	23062.69
459.616	21481.66
459.821	21756.08
460.027	21430.46
460.233	21235.9
460.438	19757.27
460.644	20302.03
460.85	19335.38
461.055	19054.81
461.261	18712.8
461.466	17623.28
461.672	16711.94
461.878	18344.17
462.083	17066.24
462.289	16838.91
462.494	16658.69
462.7	15931.66
462.905	15640.85
463.111	15868.17
463.316	15716.62
463.522	15485.2
463.727	15515.92
463.932	15667.47
464.138	15612.18
464.343	15526.16
464.549	14946.59
464.754	15427.86
464.959	15284.5
465.165	15419.67
465.37	14799.13
465.575	14434.6
465.781	14704.93
465.986	14760.22
466.191	14475.56
466.397	14012.71
466.602	13517.11
466.807	13867.31
467.012	14000.43
467.218	13912.36
467.423	13476.15
467.628	13807.92
467.833	14410.02
468.038	13910.32
468.244	13338.93
468.449	13965.61
468.654	13703.47
468.859	13424.95
469.064	13283.64
469.269	12585.28
469.474	13015.35
469.679	13302.07
469.885	12915
470.09	13267.25
470.295	13029.69
470.5	12652.86
470.705	12708.16
470.91	12306.76
471.115	12165.45
471.32	12376.39
471.525	12497.22
471.73	12036.42
471.935	12048.71
472.139	11675.98
472.344	11870.54
472.549	11772.24
472.754	11372.88
472.959	11301.2
473.164	11135.32
473.369	10938.71
473.574	11286.87
473.778	11155.8
473.983	11151.7
474.188	11024.73
474.393	10494.3
474.598	10715.48
474.802	10463.58
475.007	10535.26
475.212	10500.45
475.417	10174.82
475.621	9953.64
475.826	9929.06
476.031	10010.98
476.235	9795.95
476.44	9976.17
476.645	9963.88
476.849	9818.47
477.054	9556.33
477.259	9523.57
477.463	9509.23
477.668	9312.63
477.872	9202.04
478.077	9404.78
478.282	8894.84
478.486	8946.04
478.691	8812.92
478.895	8952.18
479.1	8862.07
479.304	8630.65
479.509	8487.29
479.713	8710.52
479.918	8462.72
480.122	8495.49
480.326	8403.33
480.531	8499.58
480.735	8515.97
480.94	8429.95
481.144	8567.17
481.348	8067.46
481.553	8264.07
481.757	8212.87
481.961	8364.42
482.166	8542.59
482.37	8278.4
482.574	8010.12
482.778	8114.56
482.983	8321.41
483.187	8274.31
483.391	8393.09
483.595	8212.87
483.8	8098.18
484.004	8223.11
484.208	8161.67
484.412	8182.15
484.616	8204.67
484.821	8186.24
485.025	8055.17
485.229	8124.8
485.433	7920.01
485.637	8176
485.841	7874.95
486.045	8046.98
486.249	8159.62
486.453	8063.36
486.657	8171.91
486.861	7991.69
487.065	7831.94
487.269	8233.35
487.473	8096.13
487.677	8120.71
487.881	8282.5
488.085	7989.64
488.289	8098.18
488.493	8151.43
488.697	8331.65
488.901	8225.15
489.105	8315.27
489.309	8190.34
489.512	8231.3
489.716	8331.65
489.92	8286.59
490.124	8274.31
490.328	8266.11
490.531	8247.68
490.735	8352.13
490.939	8348.03
491.143	8378.75
491.346	8397.18
491.55	8694.14
491.754	8536.45
491.958	8522.11
492.161	8634.75
492.365	8472.96
492.569	8581.5
492.772	8472.96
492.976	8692.09
493.18	8632.7
493.383	8757.63
493.587	8974.71
493.79	8946.04
493.994	8829.31
494.197	9120.12
494.401	9138.55
494.605	8939.9
494.808	9044.34
495.012	9228.66
495.215	9249.14
495.419	9544.05
495.622	9437.55
495.825	9484.66
496.029	9525.61
496.232	9992.55
496.436	9703.79
496.639	9984.36
496.843	9830.76
497.046	10066.28
497.249	10084.71
497.453	9873.77
497.656	10324.32
497.859	10213.73
498.063	10445.15
498.266	10666.33
498.469	10678.62
498.673	10652
498.876	10824.03
499.079	11073.88
499.282	10922.33
499.485	11362.64
499.689	11348.31
499.892	11657.55
500.095	11596.11
500.298	11792.72
500.501	11802.96
500.705	12163.4
500.908	12036.42
501.111	12314.95
501.314	12415.3
501.517	12734.78
501.72	12650.81
501.923	12771.65
502.126	13134.14
502.329	13388.08
502.532	13015.35
502.735	13277.49
502.938	13576.5
503.141	13631.79
503.344	13807.92
503.547	13818.16
503.75	14311.72
503.953	14375.2
504.156	14299.43
504.359	14420.26
504.562	14721.31
504.765	14930.2
504.968	15309.08
505.17	15317.27
505.373	15341.85
505.576	15659.28
505.779	15829.26
505.982	15831.31
506.185	16228.62
506.387	16021.77
506.59	16316.68
506.793	16562.44
506.996	16623.87
507.198	17142.01
507.401	17064.19
507.604	17162.49
507.807	17414.39
508.009	17774.83
508.212	17914.09
508.415	18143.47
508.617	18233.58
508.82	18305.26
509.022	18440.42
509.225	18925.79
509.428	18917.6
509.63	19122.4
509.833	19319
510.035	19759.31
510.238	19566.81
510.44	19796.18
510.643	20302.03
510.845	20568.26
511.048	20609.22
511.25	20648.13
511.453	20783.3
511.655	21428.41
511.858	21430.46
512.06	21399.74
512.262	21749.94
512.465	21330.11
512.667	22102.19
512.87	22544.55
513.072	22491.3
513.274	22931.62
513.477	23117.98
513.679	23230.62
513.881	23543.96
514.084	23670.93
514.286	23484.57
514.488	23984.27
514.69	24518.79
514.893	24850.56
515.095	24815.75
515.297	25022.59
515.499	25061.51
515.701	25796.73
515.904	25651.32
516.106	26050.67
516.308	26300.53
516.51	26624.11
516.712	26538.09
516.914	26863.72
517.116	27236.45
517.318	27211.87
517.52	27580.51
517.722	27730.01
517.925	28074.07
518.127	28375.12
518.329	28645.45
518.531	28422.22
518.733	29253.7
518.935	29282.37
519.136	29188.16
519.338	29861.94
519.54	29659.2
519.742	30310.45
519.944	30244.91
520.146	30636.08
520.348	30754.86
520.55	31291.43
520.752	31158.31
520.954	31801.37
521.155	31637.53
521.357	32213.01
521.559	32235.54
521.761	33005.58
521.963	32727.05
522.164	33191.94
522.366	32995.34
522.568	33224.71
522.77	33568.77
522.971	34269.17
523.173	33918.97
523.375	34103.29
523.576	34246.65
523.778	34512.88
523.98	35086.31
524.181	35219.43
524.383	35067.88
524.584	35856.35
524.786	35893.21
524.988	35393.51
525.189	36030.43
525.391	36188.12
525.592	36214.74
525.794	36650.96
525.995	36534.23
526.197	36788.17
526.398	36986.83
526.6	37009.36
526.801	37423.04
527.003	37455.81
527.204	37554.11
527.406	37937.09
527.607	37523.4
527.808	37904.32
528.01	37842.88
528.211	38217.66
528.412	38838.19
528.614	38004.67
528.815	38279.1
529.016	39002.03
529.218	38668.21
529.419	39206.83
529.62	39120.81
529.822	39079.85
530.023	39172.01
530.224	39358.38
530.425	38852.53
530.626	39108.52
530.828	39280.55
531.029	39710.63
531.23	39577.51
531.431	39421.86
531.632	39475.11
531.833	40077.21
532.035	39731.11
532.236	39856.03
532.437	39655.33
532.638	39610.28
532.839	40155.04
533.04	39874.46
533.241	40083.36
533.442	40851.34
533.643	40284.06
533.844	40054.68
534.045	40146.84
534.246	39909.28
534.447	40470.42
534.648	39958.43
534.849	40232.86
535.05	40120.22
535.251	40861.58
535.451	40204.19
535.652	40632.21
535.853	40785.81
536.054	40171.42
536.255	40722.32
536.456	40073.12
536.657	41252.75
536.857	40404.89
537.058	40380.31
537.259	40576.92
537.46	40703.89
537.66	40402.84
537.861	40732.56
538.062	40341.4
538.263	40908.69
538.463	40593.3
538.664	40718.23
538.865	40769.43
539.065	40800.15
539.266	40226.71
539.466	40974.22
539.667	40269.72
539.868	41088.91
540.068	40822.67
540.269	40437.65
540.469	40732.56
540.67	40667.03
540.87	40155.04
541.071	40310.68
541.271	40806.29
541.472	40882.06
541.672	40320.92
541.873	40546.2
542.073	39794.59
542.274	40923.02
542.474	40433.56
542.675	40519.57
542.875	40851.34
543.075	40945.55
543.276	40195.99
543.476	41156.49
543.676	40658.84
543.877	40503.19
544.077	40597.4
544.277	40650.64
544.478	40892.3
544.678	40691.6
544.878	40957.84
545.078	40413.08
545.279	40167.32
545.479	40849.3
545.679	40368.02
545.879	40961.93
546.079	40707.99
546.28	40892.3
546.48	40122.27
546.68	40523.67
546.88	40726.42
547.08	40576.92
547.28	40462.23
547.48	39999.39
547.68	40404.89
547.88	40447.89
548.081	40826.77
548.281	40732.56
548.481	40114.08
548.681	40853.39
548.881	40800.15
549.081	40871.82
549.28	40511.38
549.48	41000.85
549.68	40572.82
549.88	41133.96
550.08	40478.61
550.28	40427.42
550.48	40286.11
550.68	41023.37
550.88	40667.03
551.08	40904.59
551.279	40654.74
551.479	40564.63
551.679	40490.9
551.879	40740.75
552.079	40714.13
552.278	40705.94
552.478	40740.75
552.678	40773.52
552.878	40488.85
553.077	40128.41
553.277	40253.34
553.477	40951.7
553.676	40374.17
553.876	40413.08
554.076	40351.64
554.275	40269.72
554.475	39995.29
554.674	40138.65
554.874	40273.82
555.074	40150.94
555.273	40146.84
555.473	40419.22
555.672	40066.97
555.872	40132.51
556.071	40380.31
556.271	40552.34
556.47	40036.25
556.67	39706.53
556.869	39958.43
557.068	40472.47
557.268	40118.17
557.467	40032.16
557.667	39770.02
557.866	39995.29
558.065	40062.88
558.265	39741.35
558.464	39253.93
558.663	39896.99
558.863	39208.87
559.062	39868.32
559.261	39360.42
559.461	39675.81
559.66	39192.49
559.859	39399.33
560.058	39204.78
560.258	39466.92
560.457	39081.9
560.656	39380.9
560.855	39327.66
561.054	39468.97
561.253	39188.39
561.453	39411.62
561.652	39200.68
561.851	39481.25
562.05	39104.43
562.249	38401.97
562.448	39032.75
562.647	38809.52
562.846	38954.93
563.045	39114.67
563.244	38383.54
563.443	38989.74
563.642	38213.56
563.841	38756.27
564.04	38377.4
564.239	38977.45
564.438	38262.71
564.637	38201.27
564.836	38047.68
565.035	37867.45
565.234	38115.26
565.432	37623.75
565.631	37713.86
565.83	38025.15
566.029	37627.84
566.228	38178.75
566.427	37568.45
566.625	37490.63
566.824	37181.38
567.023	37580.74
567.222	36906.96
567.42	37273.54
567.619	37445.57
567.818	37314.5
568.016	37244.87
568.215	37410.76
568.414	37154.76
568.612	37337.03
568.811	36653.01
569.01	37320.65
569.208	36411.35
569.407	36952.01
569.605	36530.13
569.804	36505.55
570.002	36143.06
570.201	36515.79
570.4	36132.82
570.598	35975.13
570.797	36124.63
570.995	36194.26
571.193	35913.69
571.392	36155.35
571.59	35733.47
571.789	35426.28
571.987	35346.4
572.186	35248.1
572.384	35508.19
572.582	35176.42
572.781	35837.92
572.979	34756.59
573.177	35067.88
573.376	35184.62
573.574	34961.39
573.772	34936.81
573.971	34707.44
574.169	34732.01
574.367	34359.28
574.565	34732.01
574.763	34512.88
574.962	34281.46
575.16	34002.94
575.358	34461.68
575.556	33871.87
575.754	34459.63
575.952	33830.91
576.151	34039.8
576.349	34052.09
576.547	33576.96
576.745	33675.26
576.943	33736.7
577.141	33564.67
577.339	33277.96
577.537	33234.95
577.735	33171.46
577.933	32708.62
578.131	33234.95
578.329	33009.67
578.527	32942.09
578.725	32630.8
578.923	32894.99
579.121	32413.71
579.319	32536.59
579.516	32686.09
579.714	32811.02
579.912	32286.74
580.11	32397.33
580.308	32686.09
580.506	32081.94
580.704	32159.77
580.901	31942.68
581.099	32360.47
581.297	31827.99
581.495	31492.13
581.692	31676.44
581.89	31680.54
582.088	31815.71
582.285	31615.01
582.483	31420.45
582.681	31201.32
582.878	31270.95
583.076	30998.57
583.274	31219.75
583.471	30584.88
583.669	30644.27
583.866	30648.36
584.064	30558.25
584.262	30193.72
584.459	30523.44
584.657	30269.49
584.854	30599.21
585.052	29796.41
585.249	30251.06
585.447	30079.03
585.644	29820.98
585.841	29851.7
586.039	30193.72
586.236	29386.82
586.434	29890.62
586.631	29071.43
586.828	29503.55
587.026	29558.84
587.223	29261.89
587.42	28940.36
587.618	29501.5
587.815	29239.36
588.012	28989.51
588.21	28786.76
588.407	29038.66
588.604	28518.48
588.801	28594.25
588.999	28733.51
589.196	28285.01
589.393	28438.61
589.59	28096.6
589.787	28143.7
589.984	28029.01
590.182	27801.69
590.379	27983.96
590.576	27465.82
590.773	27842.65
590.97	27439.2
591.167	27816.02
591.364	27596.89
591.561	27566.17
591.758	27168.87
591.955	27160.67
592.152	27283.55
592.349	27170.91
592.546	27285.6
592.743	27476.06
592.94	26753.13
593.137	27238.5
593.334	27076.71
593.531	26333.29
593.727	26740.84
593.924	26587.24
594.121	26179.7
594.318	26435.69
594.515	26189.94
594.712	26697.83
594.908	26038.39
595.105	26581.1
595.302	25809.01
595.499	26046.58
595.696	25976.95
595.892	25784.44
596.089	26128.5
596.286	25753.72
596.482	25329.79
596.679	25520.25
596.876	25335.93
597.072	25116.8
597.269	25360.51
597.466	25309.31
597.662	25198.72
597.859	24946.82
598.055	25354.37
598.252	24602.76
598.448	25106.56
598.645	24922.24
598.841	24793.22
599.038	24801.41
599.234	24686.73
599.431	24389.77
599.627	24459.4
599.824	24580.23
600.02	24275.09
600.217	24473.74
600.413	24242.32
600.609	23906.45
600.806	23996.56
601.002	24205.45
601.198	23621.78
601.395	23759
601.591	23847.06
601.787	23740.57
601.984	23646.36
602.18	24010.9
602.376	23554.2
602.572	23304.35
602.769	23562.39
602.965	23001.25
603.161	23343.26
603.357	22982.82
603.553	22556.84
603.75	22988.96
603.946	22931.62
604.142	22964.39
604.338	22599.85
604.534	23148.7
604.73	22511.78
604.926	22397.1
605.122	22933.67
605.318	22255.79
605.514	22319.28
605.71	22116.53
605.906	21950.64
606.102	21852.34
606.298	22153.39
606.494	21958.83
606.69	21862.58
606.886	21825.71
607.082	21784.76
607.278	21885.11
607.474	21487.8
607.67	21672.12
607.866	21418.17
608.062	21840.05
608.257	21567.67
608.453	21612.73
608.649	21799.09
608.845	21024.96
609.041	21235.9
609.236	21287.1
609.432	21207.23
609.628	21315.77
609.824	20977.86
610.019	21045.44
610.215	21074.11
610.411	20963.52
610.606	21205.18
610.802	20846.79
610.998	20963.52
611.193	20771.01
611.389	20650.18
611.584	20693.19
611.78	20586.69
611.976	20433.1
612.171	20699.33
612.367	20596.93
612.562	20267.21
612.758	20205.77
612.953	20240.59
613.149	20515.01
613.344	19957.97
613.539	20490.44
613.735	20144.33
613.93	20146.38
614.126	20080.85
614.321	20193.48
614.517	19835.09
614.712	20105.42
614.907	19747.03
615.103	20046.03
615.298	19742.93
615.493	19996.88
615.688	19542.23
615.884	19869.9
616.079	19462.36
616.274	19548.37
616.47	19656.92
616.665	19275.99
616.86	19257.56
617.055	19488.98
617.25	19359.96
617.445	19525.85
617.641	19067.1
617.836	19308.76
618.031	19108.06
618.226	19106.01
618.421	18991.33
618.616	18995.42
618.811	18456.81
619.006	18680.03
619.201	18530.53
619.396	18989.28
619.591	18295.02
619.786	18669.8
619.981	18335.98
620.176	18456.81
620.371	18278.63
620.566	18381.03
620.761	18018.54
620.956	18356.46
621.151	17699.06
621.346	17926.38
621.541	17993.97
621.735	17848.56
621.93	17524.98
622.125	17551.6
622.32	17346.81
622.515	17688.82
622.709	17113.34
622.904	17457.4
623.099	17246.46
623.294	17070.33
623.488	16771.33
623.683	16822.53
623.878	16683.27
624.072	16759.04
624.267	17006.84
624.462	16617.73
624.656	16421.13
624.851	16523.52
625.046	16369.93
625.24	16177.42
625.435	16171.27
625.629	16001.29
625.824	16093.45
626.018	15880.46
626.213	15526.16
626.407	15972.62
626.602	15573.27
626.796	15816.97
626.991	15638.8
627.185	15401.24
627.38	15264.02
627.574	15106.33
627.768	15122.71
627.963	15053.08
628.157	14987.55
628.352	15085.85
628.546	14833.95
628.74	14924.06
628.935	14643.49
629.129	14618.91
629.323	14612.77
629.517	14461.22
629.712	14385.44
629.906	14362.92
630.1	14070.06
630.294	14274.85
630.489	13914.41
630.683	14156.07
630.877	13818.16
631.071	13838.64
631.265	13838.64
631.459	13467.95
631.653	13556.02
631.848	13814.06
632.042	13427
632.236	13230.39
632.43	13226.29
632.624	13289.78
632.818	13250.87
633.012	13050.17
633.206	13097.27
633.4	12992.83
633.594	12726.59
633.788	12771.65
633.982	12790.08
634.176	13031.74
634.369	12519.74
634.563	12732.73
634.757	12640.58
634.951	12583.23
635.145	12544.32
635.339	12456.26
635.533	12286.28
635.726	12214.6
635.92	12009.8
636.114	12093.77
636.308	12136.77
636.501	11917.64
636.695	11903.31
636.889	11755.85
637.083	11690.32
637.276	11477.33
637.47	11493.71
637.664	11526.48
637.857	11512.14
638.051	11579.73
638.244	11387.22
638.438	11178.33
638.632	11215.19
638.825	10994.01
639.019	11264.34
639.212	10864.99
639.406	10951
639.599	10989.91
639.793	10963.29
639.986	10742.11
640.18	10838.36
640.373	10639.71
640.567	10557.79
640.76	10504.54
640.954	10514.78
641.147	10293.6
641.34	10344.8
641.534	10387.81
641.727	10260.84
641.92	10281.32
642.114	10146.15
642.307	10092.9
642.5	10117.48
642.694	9808.23
642.887	9957.74
643.08	9820.52
643.273	9668.97
643.467	9707.88
643.66	9423.22
643.853	9396.59
644.046	9490.8
644.239	9556.33
644.432	9449.84
644.626	9306.48
644.819	9335.15
645.012	9288.05
645.205	9312.63
645.398	9118.07
645.591	9073.01
645.784	9179.51
645.977	9113.97
646.17	9101.69
646.363	8978.81
646.556	8935.8
646.749	9007.48
646.942	9003.38
647.135	8655.23
647.328	8702.33
647.521	8647.04
647.714	8513.92
647.907	8472.96
648.099	8634.75
648.292	8618.36
648.485	8397.18
648.678	8399.23
648.871	8372.61
649.064	8120.71
649.256	8165.76
649.449	8110.47
649.642	8178.05
649.835	8079.75
650.027	8026.5
650.22	7897.48
650.413	7922.06
650.605	7995.78
650.798	8022.41
650.991	7874.95
651.183	7721.35
651.376	7680.39
651.568	7768.46
651.761	7704.97
651.954	7725.45
652.146	7559.56
652.339	7649.68
652.531	7563.66
652.724	7559.56
652.916	7291.28
653.109	7424.4
653.301	7330.19
653.494	7311.76
653.686	7135.64
653.879	7299.47
654.071	7041.43
654.263	7123.35
654.456	7002.52
654.648	7025.04
654.84	6945.17
655.033	7041.43
655.225	6883.73
655.417	6674.84
655.61	7006.61
655.802	7000.47
655.994	6826.39
656.186	6715.8
656.379	6748.57
656.571	6703.51
656.763	6687.13
656.955	6564.25
657.148	6535.58
657.34	6490.52
657.532	6588.83
657.724	6457.76
657.916	6535.58
658.108	6508.96
658.3	6228.38
658.492	6212
658.684	6214.05
658.876	6349.22
659.068	6373.79
659.26	6125.99
659.452	6154.66
659.644	6089.12
659.836	6009.25
660.028	5999.01
660.22	5859.75
660.412	6003.11
660.604	6107.55
660.796	5917.09
660.988	5986.72
661.18	5788.07
661.372	5939.62
661.563	5790.12
661.755	5747.11
661.947	5714.34
662.139	5646.76
662.331	5570.99
662.522	5724.58
662.714	5513.64
662.906	5515.69
663.097	5568.94
663.289	5702.06
663.481	5472.68
663.673	5327.28
663.864	5323.18
664.056	5460.4
664.247	5368.24
664.439	5181.87
664.631	5364.14
664.822	5417.39
665.014	5319.09
665.205	5282.22
665.397	5292.46
665.588	5198.26
665.78	5151.15
665.971	5237.17
666.163	5095.86
666.354	4985.27
666.546	5079.47
666.737	5011.89
666.929	4985.27
667.12	4917.68
667.311	5085.62
667.503	4911.54
667.694	4913.59
667.885	4913.59
668.077	4968.88
668.268	4852.15
668.459	4798.9
668.651	4663.74
668.842	4889.01
669.033	4725.18
669.224	4716.98
669.416	4811.19
669.607	4759.99
669.798	4571.58
669.989	4706.74
670.18	4727.22
670.371	4587.96
670.563	4647.35
670.754	4651.45
670.945	4495.8
671.136	4487.61
671.327	4547
671.518	4555.19
671.709	4559.29
671.9	4598.2
672.091	4481.47
672.282	4454.84
672.473	4499.9
672.664	4374.97
672.855	4475.32
673.046	4366.78
673.237	4590.01
673.428	4356.54
673.619	4370.88
673.809	4331.97
674	4329.92
674.191	4297.15
674.382	4161.98
674.573	4194.75
674.764	4112.83
674.954	4258.24
675.145	4151.74
675.336	4235.71
675.527	4063.68
675.717	4280.77
675.908	4235.71
676.099	4291.01
676.289	4102.59
676.48	4121.03
676.671	4024.77
676.861	4252.1
677.052	4145.6
677.243	4229.57
677.433	4047.3
677.624	4000.19
677.814	3969.48
678.005	4039.11
678.195	4133.31
678.386	4080.07
678.576	4014.53
678.767	4002.24
678.957	4039.11
679.148	3949
679.338	4028.87
679.529	4096.45
679.719	4096.45
679.909	3899.84
680.1	3914.18
680.29	3875.27
680.481	3965.38
680.671	3955.14
680.861	3926.47
681.052	3893.7
681.242	3918.28
681.432	3989.96
681.622	3912.13
681.813	3842.5
682.003	3940.8
682.193	3953.09
682.383	3885.51
682.573	3893.7
682.764	3985.86
682.954	3946.95
683.144	3848.65
683.334	3955.14
683.524	3901.89
683.714	3703.24
683.904	3832.26
684.094	3944.9
684.284	3850.69
684.474	3903.94
684.664	3746.25
684.854	3758.53
685.044	3748.29
685.234	3717.58
685.424	3789.25
685.614	3731.91
685.804	3789.25
685.994	3783.11
686.184	3754.44
686.374	3750.34
686.564	3590.6
686.753	3713.48
686.943	3733.96
687.133	3711.43
687.323	3793.35
687.513	3633.61
687.702	3654.09
687.892	3611.08
688.082	3693
688.272	3674.57
688.461	3416.52
688.651	3541.45
688.841	3537.35
689.03	3545.55
689.22	3506.63
689.41	3412.43
689.599	3637.7
689.789	3570.12
689.979	3537.35
690.168	3471.82
690.358	3441.1
690.547	3510.73
690.737	3572.17
690.926	3422.67
691.116	3377.61
691.305	3373.52
691.495	3336.65
691.684	3318.22
691.874	3361.23
692.063	3334.61
692.252	3371.47
692.442	3326.41
692.631	3232.21
692.82	3344.84
693.01	3414.48
693.199	3367.37
693.388	3404.24
693.578	3209.68
693.767	3178.96
693.956	3289.55
694.146	3328.46
694.335	3267.02
694.524	3342.8
694.713	3240.4
694.902	3281.36
695.092	3275.21
695.281	3140.05
695.47	3221.97
695.659	3273.17
695.848	3213.77
696.037	3170.77
696.226	3275.21
696.415	3090.9
696.604	3246.54
696.793	3170.77
696.982	3170.77
697.171	3164.62
697.36	3303.89
697.549	3111.38
697.738	3080.66
697.927	3181.01
698.116	3160.53
698.305	3094.99
698.494	3195.34
698.683	3174.86
698.872	3183.06
699.061	3228.11
699.25	3078.61
699.438	3148.24
699.627	3264.97
699.816	3256.78
700.005	3092.94
700.193	3133.9
700.382	3215.82
700.571	3226.06
700.76	3090.9
700.948	3185.1
701.137	3015.12
701.326	3111.38
701.514	3133.9
701.703	3138
701.892	3029.46
702.08	3277.26
702.269	3086.8
702.457	3324.37
702.646	3154.38
702.834	3029.46
703.023	3076.56
703.212	3088.85
703.4	3068.37
703.589	3119.57
703.777	3008.98
703.965	3056.08
704.154	3039.7
704.342	3033.55
704.531	2947.54
704.719	2957.78
704.907	3172.82
705.096	3033.55
705.284	2972.11
705.472	3078.61
705.661	3045.84
705.849	3056.08
706.037	3197.39
706.226	2990.55
706.414	3086.8
706.602	3090.9
706.79	3011.03
706.979	3125.71
707.167	3025.36
707.355	2929.11
707.543	3049.94
707.731	3094.99
707.919	3025.36
708.107	2953.68
708.296	3058.13
708.484	3039.7
708.672	3013.07
708.86	3029.46
709.048	2906.58
709.236	2998.74
709.424	2900.44
709.612	2943.44
709.8	2935.25
709.988	2974.16
710.176	2963.92
710.364	3015.12
710.551	2898.39
710.739	2965.97
710.927	2980.31
711.115	2900.44
711.303	2978.26
711.491	2925.01
711.679	2949.59
711.866	2951.63
712.054	2914.77
712.242	2980.31
712.43	2982.35
712.617	2894.29
712.805	2851.28
712.993	2918.87
713.181	2908.63
713.368	2916.82
713.556	2970.07
713.744	2795.99
713.931	2888.15
714.119	2982.35
714.306	2867.67
714.494	2890.2
714.682	2853.33
714.869	2886.1
715.057	2959.83
715.244	2824.66
715.432	2939.35
715.619	2902.48
715.807	2898.39
715.994	2974.16
716.182	2789.85
716.369	2834.9
716.556	2861.52
716.744	2818.52
716.931	2830.8
717.119	2922.96
717.306	2767.32
717.493	2752.98
717.681	2939.35
717.868	2836.95
718.055	2910.68
718.242	2779.61
718.43	2798.04
718.617	2752.98
718.804	2861.52
718.991	2761.17
719.179	2830.8
719.366	2847.19
719.553	2802.13
719.74	2795.99
719.927	2755.03
720.114	2877.91
720.301	2669.02
720.488	2765.27
720.676	2787.8
720.863	2853.33
721.05	2654.68
721.237	2689.49
721.424	2802.13
721.611	2800.09
721.798	2660.82
721.985	2765.27
722.172	2640.34
722.358	2656.73
722.545	2853.33
722.732	2648.54
722.919	2640.34
723.106	2746.84
723.293	2767.32
723.48	2781.65
723.667	2583
723.853	2630.1
724.04	2724.31
724.227	2671.06
724.414	2703.83
724.6	2701.78
724.787	2746.84
724.974	2658.78
725.161	2646.49
725.347	2621.91
725.534	2701.78
725.72	2701.78
725.907	2707.93
726.094	2705.88
726.28	2535.9
726.467	2701.78
726.653	2607.58
726.84	2701.78
727.027	2699.73
727.213	2642.39
727.4	2611.67
727.586	2642.39
727.773	2632.15
727.959	2669.02
728.145	2505.18
728.332	2560.47
728.518	2556.38
728.705	2728.41
728.891	2587.1
729.077	2609.62
729.264	2609.62
729.45	2544.09
729.636	2539.99
729.823	2445.79
730.009	2605.53
730.195	2501.08
730.382	2580.95
730.568	2556.38
730.754	2505.18
730.94	2490.84
731.126	2591.19
731.313	2484.7
731.499	2587.1
731.685	2511.32
731.871	2654.68
732.057	2578.9
732.243	2476.51
732.429	2525.66
732.615	2464.22
732.801	2632.15
732.987	2556.38
733.173	2499.03
733.359	2535.9
733.545	2576.86
733.731	2410.97
733.917	2501.08
734.103	2453.98
734.289	2501.08
734.475	2382.3
734.661	2496.99
734.847	2513.37
735.033	2378.2
735.219	2447.83
735.404	2339.29
735.59	2529.75
735.776	2464.22
735.962	2370.01
736.148	2531.8
736.333	2408.92
736.519	2445.79
736.705	2533.85
736.89	2357.72
737.076	2327
737.262	2220.51
737.447	2384.35
737.633	2351.58
737.819	2347.48
738.004	2329.05
738.19	2320.86
738.375	2206.17
738.561	2308.57
738.747	2327
738.932	2257.37
739.118	2357.72
739.303	2335.2
739.489	2329.05
739.674	2245.09
739.859	2240.99
740.045	2222.56
740.23	2148.83
740.416	2200.03
740.601	2277.85
740.786	2204.13
740.972	2374.11
741.157	2288.09
741.342	2222.56
741.528	2210.27
741.713	2261.47
741.898	2118.11
742.084	2138.59
742.269	2136.54
742.454	2097.63
742.639	2177.5
742.824	2091.49
743.01	2093.54
743.195	2238.94
743.38	2216.41
743.565	2138.59
743.75	2175.45
743.935	2066.91
744.12	2036.19
744.305	2015.71
744.49	2130.4
744.675	2048.48
744.86	1980.9
745.045	2105.82
745.23	2007.52
745.415	2064.86
745.6	1950.18
745.785	1950.18
745.97	1933.79
746.155	1978.85
746.34	1913.31
746.525	1931.75
746.71	1991.14
746.895	1972.71
747.079	1946.08
747.264	1884.64
747.449	1958.37
747.634	1964.51
747.819	1964.51
748.003	1833.44
748.188	1905.12
748.373	1849.83
748.557	1819.11
748.742	1759.72
748.927	1780.2
749.111	1821.16
749.296	1749.48
749.481	1743.33
749.665	1749.48
749.85	1655.27
750.034	1767.91
750.219	1753.57
750.404	1595.88
750.588	1624.55
750.773	1673.7
750.957	1645.03
751.141	1604.07
751.326	1741.29
751.51	1599.98
751.695	1608.17
751.879	1618.41
752.064	1628.65
752.248	1614.31
752.432	1532.39
752.617	1550.82
752.801	1448.43
752.985	1602.02
753.17	1497.58
753.354	1528.3
753.538	1579.5
753.722	1489.39
753.907	1542.63
754.091	1436.14
754.275	1446.38
754.459	1358.32
754.643	1491.43
754.828	1538.54
755.012	1483.24
755.196	1415.66
755.38	1358.32
755.564	1370.6
755.748	1313.26
755.932	1405.42
756.116	1413.61
756.3	1415.66
756.484	1284.59
756.668	1423.85
756.852	1321.45
757.036	1315.31
757.22	1309.16
757.404	1278.44
757.588	1333.74
757.772	1329.64
757.956	1262.06
758.14	1190.38
758.323	1196.53
758.507	1280.49
758.691	1219.05
758.875	1337.84
759.059	1223.15
759.242	1311.21
759.426	1196.53
759.61	1221.1
759.794	1196.53
759.977	1300.97
760.161	1190.38
760.345	1251.82
760.528	1210.86
760.712	1163.76
760.895	1139.18
761.079	1272.3
761.263	1112.56
761.446	1059.31
761.63	1104.37
761.813	1110.51
761.997	1069.55
762.18	1077.74
762.364	1169.9
762.547	1087.98
762.731	1047.02
762.914	1143.28
763.098	1094.13
763.281	952.82
763.464	1161.71
763.648	1075.7
763.831	944.63
764.015	1018.35
764.198	1022.45
764.381	1042.93
764.564	1079.79
764.748	936.43
764.931	1044.98
765.114	989.68
765.297	1032.69
765.481	954.87
765.664	932.34
765.847	1008.11
766.03	1042.93
766.213	924.15
766.397	983.54
766.58	911.86
766.763	1034.74
766.946	987.63
767.129	936.43
767.312	1010.16
767.495	961.01
767.678	967.15
767.861	997.87
768.044	983.54
768.227	967.15
768.41	958.96
768.593	924.15
768.776	993.78
768.959	979.44
769.142	913.91
769.324	922.1
769.507	870.9
769.69	872.95
769.873	981.49
770.056	909.81
770.239	868.85
770.421	956.91
770.604	907.76
770.787	932.34
770.97	805.36
771.152	803.32
771.335	856.56
771.518	874.99
771.7	834.04
771.883	842.23
772.066	827.89
772.248	766.45
772.431	897.52
772.613	768.5
772.796	754.16
772.978	885.23
773.161	793.08
773.343	797.17
773.526	717.3
773.708	756.21
773.891	750.07
774.073	838.13
774.256	801.27
774.438	821.75
774.621	750.07
774.803	819.7
774.985	743.92
775.168	721.4
775.35	823.8
775.532	805.36
775.715	707.06
775.897	780.79
776.079	737.78
776.261	715.25
776.444	729.59
776.626	721.4
776.808	758.26
776.99	676.34
777.173	684.53
777.355	619
777.537	748.02
777.719	662.01
777.901	643.57
778.083	653.81
778.265	627.19
778.447	627.19
778.629	608.76
778.811	702.97
778.993	641.53
779.175	651.77
779.357	580.09
779.539	573.94
779.721	623.09
779.903	571.9
780.085	649.72
780.267	666.1
780.449	619
780.631	610.81
780.812	557.56
780.994	627.19
781.176	602.61
781.358	582.14
781.54	616.95
781.721	672.25
781.903	510.46
782.085	539.13
782.267	557.56
782.448	561.66
782.63	541.18
782.812	582.14
782.993	532.98
783.175	631.29
783.357	502.26
783.538	500.22
783.72	442.87
783.901	498.17
784.083	502.26
784.264	500.22
784.446	504.31
784.627	383.48
784.809	446.97
784.99	498.17
785.172	455.16
785.353	455.16
785.535	440.83
785.716	487.93
785.897	469.5
786.079	389.63
786.26	383.48
786.441	461.3
786.623	471.54
786.804	424.44
786.985	383.48
787.167	475.64
787.348	395.77
787.529	459.26
787.71	453.11
787.891	381.43
788.073	334.33
788.254	356.86
788.435	399.87
788.616	395.77
788.797	371.19
788.978	383.48
789.159	401.91
789.34	438.78
789.522	446.97
789.703	403.96
789.884	377.34
790.065	391.67
790.246	406.01
790.427	387.58
790.607	426.49
790.788	342.52
790.969	336.38
791.15	358.91
791.331	365.05
791.512	412.15
791.693	393.72
791.874	389.63
792.054	465.4
792.235	373.24
792.416	311.8
792.597	332.28
792.778	258.56
792.958	367.1
793.139	301.56
793.32	317.95
793.5	307.71
793.681	350.71
793.862	340.47
794.042	305.66
794.223	197.12
794.404	320
794.584	317.95
794.765	317.95
794.945	358.91
795.126	256.51
795.306	274.94
795.487	320
795.667	274.94
795.848	305.66
796.028	238.08
796.209	256.51
796.389	248.32
796.57	229.88
796.75	354.81
796.93	274.94
797.111	229.88
797.291	283.13
797.471	246.27
797.652	217.6
797.832	233.98
798.012	283.13
798.192	313.85
798.373	219.64
798.553	279.04
798.733	291.32
798.913	289.28
799.093	279.04
799.274	311.8
799.454	262.65
799.634	233.98
799.814	285.18
799.994	252.41
800.174	264.7
800.354	268.8
800.534	258.56
800.714	254.46
800.894	158.21
801.074	197.12
801.254	207.36
801.434	211.45
801.614	186.88
801.794	182.78
801.974	651.77
802.154	236.03
802.334	303.61
802.514	217.6
802.693	186.88
802.873	166.4
803.053	221.69
803.233	199.16
803.413	180.73
803.592	258.56
803.772	180.73
803.952	223.74
804.131	170.49
804.311	209.4
804.491	233.98
804.67	254.46
804.85	197.12
805.03	221.69
805.209	233.98
805.389	223.74
805.568	180.73
805.748	221.69
805.928	215.55
806.107	176.64
806.287	172.54
806.466	188.93
806.646	281.08
806.825	98.81
807.004	123.39
807.184	170.49
807.363	182.78
807.543	104.96
807.722	201.21
807.901	176.64
808.081	209.4
808.26	178.69
808.439	156.16
808.619	121.34
808.798	238.08
808.977	211.45
809.156	172.54
809.336	137.73
809.515	168.45
809.694	131.58
809.873	250.36
810.052	209.4
810.231	186.88
810.411	158.21
810.59	152.06
810.769	172.54
810.948	178.69
811.127	98.81
811.306	213.5
811.485	158.21
811.664	154.11
811.843	180.73
812.022	172.54
812.201	115.2
812.38	117.25
812.559	76.29
812.737	127.49
812.916	76.29
813.095	113.15
813.274	152.06
813.453	152.06
813.632	180.73
813.811	143.87
813.989	125.44
814.168	137.73
814.347	113.15
814.526	141.82
814.704	141.82
814.883	236.03
815.062	129.53
815.24	190.97
815.419	180.73
815.598	178.69
815.776	162.3
815.955	147.97
816.133	31.23
816.312	182.78
816.49	180.73
816.669	147.97
816.847	135.68
817.026	158.21
817.204	152.06
817.383	123.39
817.561	125.44
817.74	147.97
817.918	141.82
818.097	111.1
818.275	137.73
818.453	158.21
818.632	143.87
818.81	72.19
818.988	96.77
819.167	35.33
819.345	84.48
819.523	119.29
819.701	129.53
819.879	86.53
820.058	125.44
820.236	131.58
820.414	117.25
820.592	82.43
820.77	90.62
820.948	111.1
821.127	74.24
821.305	123.39
821.483	129.53
821.661	156.16
821.839	90.62
822.017	72.19
822.195	61.95
822.373	98.81
822.551	94.72
822.729	164.35
822.907	123.39
823.085	174.59
823.262	131.58
823.44	41.47
823.618	86.53
823.796	23.04
823.974	82.43
824.152	51.71
824.329	49.66
824.507	68.09
824.685	141.82
824.863	98.81
825.04	104.96
825.218	135.68
825.396	64
825.574	88.57
825.751	64
825.929	133.63
826.107	51.71
826.284	162.3
826.462	94.72
826.639	111.1
826.817	72.19
826.994	10.75
827.172	72.19
827.349	49.66
827.527	47.62
827.704	72.19
827.882	12.8
828.059	90.62
828.237	78.33
828.414	115.2
828.591	53.76
828.769	109.05
828.946	68.09
829.124	88.57
829.301	117.25
829.478	92.67
829.655	121.34
829.833	61.95
830.01	86.53
830.187	156.16
830.364	18.94
830.542	109.05
830.719	129.53
830.896	104.96
831.073	92.67
831.25	82.43
831.427	53.76
831.604	150.01
831.782	57.86
831.959	51.71
832.136	98.81
832.313	45.57
832.49	33.28
832.667	55.81
832.844	100.86
833.021	57.86
833.198	27.14
833.374	121.34
833.551	45.57
833.728	76.29
833.905	41.47
834.082	29.18
834.259	70.14
834.436	82.43
834.612	88.57
834.789	51.71
834.966	82.43
835.143	102.91
835.319	72.19
835.496	74.24
835.673	33.28
835.85	64
836.026	27.14
836.203	117.25
836.38	55.81
836.556	90.62
836.733	45.57
836.909	84.48
837.086	139.77
837.262	74.24
837.439	53.76
837.616	107.01
837.792	25.09
837.968	90.62
838.145	14.85
838.321	47.62
838.498	57.86
838.674	0.51
838.851	74.24
839.027	-17.92
839.203	68.09
839.38	37.38
839.556	-1.54
839.732	107.01
839.909	39.42
840.085	127.49
840.261	31.23
840.437	72.19
840.614	41.47
840.79	96.77
840.966	41.47
841.142	72.19
841.318	-34.3
841.494	68.09
841.671	59.9
841.847	-7.68
842.023	23.04
842.199	18.94
842.375	14.85
842.551	-9.73
842.727	2.56
842.903	113.15
843.079	23.04
843.255	6.66
843.431	84.48
843.607	94.72
843.783	-13.82
843.959	0.51
844.134	33.28
844.31	61.95
844.486	-28.16
844.662	64
844.838	68.09
845.013	90.62
845.189	51.71
845.365	4.61
845.541	47.62
845.716	61.95
845.892	14.85
846.068	45.57
846.244	2.56
846.419	64
846.595	-5.63
846.77	25.09
846.946	6.66
847.122	23.04
847.297	-17.92
847.473	8.7
847.648	-19.97
847.824	29.18
847.999	-19.97
848.175	16.9
848.35	102.91
848.526	49.66
848.701	90.62
848.876	82.43
849.052	70.14
849.227	64
849.403	39.42
849.578	33.28
849.753	70.14
849.929	49.66
850.104	18.94
850.279	29.18
850.454	92.67
850.63	-28.16
850.805	29.18
850.98	-3.58
851.155	-67.07
851.33	53.76
851.505	27.14
851.681	39.42
851.856	0.51
852.031	16.9
852.206	29.18
852.381	31.23
852.556	31.23
852.731	31.23
852.906	25.09
853.081	96.77
853.256	80.38
853.431	55.81
853.606	49.66
853.781	33.28
853.956	-17.92
854.131	57.86
854.305	29.18
854.48	12.8
854.655	25.09
854.83	-36.35
855.005	-42.5
855.18	47.62
855.354	-40.45
855.529	82.43
855.704	43.52
855.879	-30.21
856.053	23.04
856.228	39.42
856.403	12.8
856.577	-9.73
856.752	0.51
856.926	31.23
857.101	27.14
857.276	12.8
857.45	-15.87
857.625	39.42
857.799	68.09
857.974	84.48
858.148	-48.64
858.323	57.86
858.497	39.42
858.672	20.99
858.846	33.28
859.02	98.81
859.195	37.38
859.369	76.29
859.543	2.56
859.718	94.72
859.892	-69.12
860.066	2.56
860.241	-3.58
860.415	25.09
860.589	10.75
860.763	-30.21
860.938	-3.58
861.112	80.38
861.286	55.81
861.46	41.47
861.634	-7.68
861.808	88.57
861.982	-17.92
862.157	35.33
862.331	16.9
862.505	-65.02
862.679	18.94
862.853	-3.58
863.027	-28.16
863.201	49.66
863.375	-58.88
863.549	14.85
863.722	27.14
863.896	16.9
864.07	29.18
864.244	4.61
864.418	-7.68
864.592	43.52
864.766	-32.26
864.939	0.51
865.113	37.38
865.287	57.86
865.461	-3.58
865.634	49.66
865.808	12.8
865.982	14.85
866.156	-44.54
866.329	-34.3
866.503	82.43
866.676	35.33
866.85	-11.78
867.024	35.33
867.197	-11.78
867.371	-3.58
867.544	0.51
867.718	20.99
867.891	-1.54
868.065	-24.06
868.238	37.38
868.412	12.8
868.585	-17.92
868.759	-30.21
868.932	-42.5
869.105	-28.16
869.279	35.33
869.452	18.94
869.625	27.14
869.799	76.29
869.972	-132.61
870.145	2.56
870.319	2.56
870.492	-13.82
870.665	-32.26
870.838	-17.92
871.011	-38.4
871.185	-15.87
871.358	-54.78
871.531	43.52
871.704	0.51
871.877	25.09
872.05	-40.45
872.223	18.94
872.396	45.57
872.569	-42.5
872.742	-11.78
872.915	-13.82
873.088	-5.63
873.261	-67.07
873.434	27.14
873.607	-9.73
873.78	29.18
873.953	-11.78
874.126	-30.21
874.299	-1.54
874.471	49.66
874.644	-48.64
874.817	57.86
874.99	25.09
875.163	-108.03
875.335	-75.26
875.508	4.61
875.681	-32.26
875.853	-58.88
876.026	-19.97
876.199	12.8
876.371	0.51
876.544	37.38
876.717	-34.3
876.889	29.18
877.062	16.9
877.234	-85.5
877.407	72.19
877.579	-50.69
877.752	-56.83
877.924	23.04
878.097	-36.35
878.269	-11.78
878.442	8.7
878.614	41.47
878.786	-15.87
878.959	14.85
879.131	39.42
879.303	-54.78
879.476	6.66
879.648	23.04
879.82	2.56
879.993	2.56
880.165	2.56
880.337	23.04
880.509	-69.12
880.681	-48.64
880.854	-30.21
881.026	82.43
881.198	53.76
881.37	-28.16
881.542	-13.82
881.714	-65.02
881.886	-5.63
882.058	-77.31
882.23	2.56
882.402	-22.02
882.574	25.09
882.746	29.18
882.918	25.09
883.09	12.8
883.262	-56.83
883.434	-54.78
883.606	-32.26
883.778	-7.68
883.95	-52.74
884.122	-13.82
884.293	49.66
884.465	-3.58
884.637	-5.63
884.809	-79.36
884.98	23.04
885.152	-11.78
885.324	-24.06
885.496	27.14
885.667	2.56
885.839	2.56
886.011	31.23
886.182	-1.54
886.354	-3.58
886.525	37.38
886.697	20.99
886.869	-32.26
887.04	-13.82
887.212	41.47
887.383	14.85
887.555	-17.92
887.726	-19.97
887.897	-13.82
888.069	-46.59
888.24	-38.4
888.412	23.04
888.583	-65.02
888.754	43.52
888.926	27.14
889.097	-34.3
889.268	-116.22
889.44	-11.78
889.611	-15.87
889.782	-87.55
889.953	-22.02
890.125	55.81
890.296	-56.83
890.467	18.94
890.638	-9.73
890.809	12.8
890.98	41.47
891.151	68.09
891.323	-46.59
891.494	-24.06
891.665	-42.5
891.836	-1.54
892.007	-3.58
892.178	37.38
892.349	-32.26
892.52	-24.06
892.691	0.51
892.862	-73.21
893.032	8.7
893.203	4.61
893.374	82.43
893.545	-17.92
893.716	76.29
893.887	-9.73
894.057	16.9
894.228	37.38
894.399	37.38
894.57	23.04
894.74	-5.63
894.911	-26.11
895.082	-22.02
895.253	-3.58
895.423	-71.17
895.594	-5.63
895.764	-54.78
895.935	16.9
896.106	-58.88
896.276	59.9
896.447	-54.78
896.617	-15.87
896.788	-34.3
896.958	74.24
897.129	27.14
897.299	-15.87
897.47	-13.82
897.64	-9.73
897.81	10.75
897.981	31.23
898.151	-5.63
898.322	-24.06
898.492	-36.35
898.662	80.38
898.832	-103.93
899.003	18.94
899.173	25.09
899.343	-5.63
899.513	-95.74
