Data from USB4F104151__63__11-52-32-282.txt Node

Date: Fri Mar 14 11:52:32 EDT 2025
User: louis
Spectrometer: USB4F10415
Trigger mode: 4
Integration Time (sec): 2.000000E-2
Scans to average: 1
Electric dark correction enabled: true
Nonlinearity correction enabled: false
Boxcar width: 0
XAxis mode: Wavelengths
Number of Pixels in Spectrum: 3648
>>>>>Begin Spectral Data<<<<<
178.204	-53.25
178.424	-53.25
178.644	-53.25
178.864	-124.93
179.084	-63.49
179.304	-10.24
179.524	-2.05
179.744	-12.29
179.964	2.05
180.184	-12.29
180.404	51.2
180.624	65.53
180.844	-6.14
181.064	-32.77
181.283	-22.53
181.503	14.34
181.723	-34.82
181.943	6.14
182.163	16.38
182.383	-61.44
182.602	34.82
182.822	96.25
183.042	57.34
183.262	32.77
183.482	30.72
183.701	67.58
183.921	77.82
184.141	-16.38
184.361	118.78
184.58	94.21
184.8	-0
185.02	88.06
185.239	26.62
185.459	6.14
185.679	34.82
185.898	12.29
186.118	63.49
186.338	67.58
186.557	16.38
186.777	4.1
186.997	47.1
187.216	38.91
187.436	63.49
187.655	32.77
187.875	12.29
188.095	-24.58
188.314	65.53
188.534	8.19
188.753	53.25
188.973	77.82
189.192	8.19
189.412	112.64
189.631	8.19
189.851	18.43
190.07	43.01
190.29	20.48
190.509	10.24
190.729	-69.63
190.948	61.44
191.168	122.88
191.387	96.25
191.607	69.63
191.826	55.3
192.045	73.73
192.265	30.72
192.484	24.58
192.704	38.91
192.923	-40.96
193.142	133.12
193.362	-40.96
193.581	59.39
193.8	57.34
194.02	114.69
194.239	4.1
194.458	34.82
194.678	49.15
194.897	83.97
195.116	77.82
195.335	14.34
195.555	67.58
195.774	61.44
195.993	96.25
196.212	40.96
196.432	-12.29
196.651	71.68
196.87	-47.1
197.089	40.96
197.308	47.1
197.528	47.1
197.747	47.1
197.966	49.15
198.185	47.1
198.404	59.39
198.623	-4.1
198.842	63.49
199.062	79.87
199.281	53.25
199.5	83.97
199.719	12.29
199.938	77.82
200.157	18.43
200.376	43.01
200.595	20.48
200.814	30.72
201.033	32.77
201.252	75.77
201.471	69.63
201.69	77.82
201.909	55.3
202.128	-26.62
202.347	59.39
202.566	-12.29
202.785	6.14
203.004	-2.05
203.223	51.2
203.442	-6.14
203.661	32.77
203.879	-6.14
204.098	38.91
204.317	30.72
204.536	-43.01
204.755	34.82
204.974	26.62
205.193	106.49
205.411	75.77
205.63	4.1
205.849	139.26
206.068	4.1
206.287	28.67
206.505	49.15
206.724	16.38
206.943	-12.29
207.162	45.06
207.381	-20.48
207.599	-43.01
207.818	-28.67
208.037	-36.86
208.255	49.15
208.474	40.96
208.693	12.29
208.911	-6.14
209.13	59.39
209.349	18.43
209.567	-26.62
209.786	86.01
210.005	8.19
210.223	30.72
210.442	26.62
210.661	49.15
210.879	-38.91
211.098	-18.43
211.316	45.06
211.535	73.73
211.753	63.49
211.972	28.67
212.191	36.86
212.409	61.44
212.628	12.29
212.846	73.73
213.065	22.53
213.283	-14.34
213.502	53.25
213.72	116.73
213.938	10.24
214.157	51.2
214.375	-26.62
214.594	88.06
214.812	43.01
215.031	47.1
215.249	28.67
215.467	-2.05
215.686	65.53
215.904	-34.82
216.122	63.49
216.341	92.16
216.559	43.01
216.778	57.34
216.996	69.63
217.214	63.49
217.432	81.92
217.651	69.63
217.869	77.82
218.087	-12.29
218.306	-16.38
218.524	83.97
218.742	8.19
218.96	8.19
219.179	14.34
219.397	63.49
219.615	51.2
219.833	104.45
220.051	40.96
220.27	47.1
220.488	61.44
220.706	36.86
220.924	32.77
221.142	53.25
221.36	4.1
221.578	18.43
221.796	-26.62
222.015	63.49
222.233	45.06
222.451	26.62
222.669	26.62
222.887	22.53
223.105	-32.77
223.323	6.14
223.541	-0
223.759	65.53
223.977	49.15
224.195	63.49
224.413	-24.58
224.631	141.31
224.849	-14.34
225.067	86.01
225.285	38.91
225.503	-55.3
225.721	51.2
225.939	-12.29
226.157	102.4
226.375	73.73
226.592	102.4
226.81	36.86
227.028	57.34
227.246	71.68
227.464	36.86
227.682	45.06
227.9	65.53
228.117	69.63
228.335	-8.19
228.553	18.43
228.771	77.82
228.989	75.77
229.206	120.83
229.424	24.58
229.642	-0
229.86	55.3
230.077	14.34
230.295	-10.24
230.513	61.44
230.731	36.86
230.948	120.83
231.166	100.35
231.384	77.82
231.601	12.29
231.819	45.06
232.037	32.77
232.254	-26.62
232.472	77.82
232.689	40.96
232.907	100.35
233.125	-30.72
233.342	73.73
233.56	16.38
233.777	38.91
233.995	8.19
234.213	36.86
234.43	26.62
234.648	4.1
234.865	-32.77
235.083	12.29
235.3	36.86
235.518	73.73
235.735	-32.77
235.953	106.49
236.17	108.54
236.388	-36.86
236.605	18.43
236.822	77.82
237.04	43.01
237.257	75.77
237.475	176.13
237.692	43.01
237.909	-28.67
238.127	32.77
238.344	90.11
238.562	77.82
238.779	10.24
238.996	67.58
239.214	49.15
239.431	28.67
239.648	106.49
239.865	12.29
240.083	67.58
240.3	-51.2
240.517	88.06
240.735	18.43
240.952	-34.82
241.169	49.15
241.386	69.63
241.603	75.77
241.821	34.82
242.038	22.53
242.255	16.38
242.472	2.05
242.689	135.17
242.907	8.19
243.124	67.58
243.341	57.34
243.558	30.72
243.775	4.1
243.992	-34.82
244.209	43.01
244.426	94.21
244.643	86.01
244.86	63.49
245.078	51.2
245.295	4.1
245.512	30.72
245.729	22.53
245.946	26.62
246.163	4.1
246.38	28.67
246.597	10.24
246.814	65.53
247.031	36.86
247.248	32.77
247.464	81.92
247.681	40.96
247.898	36.86
248.115	55.3
248.332	-10.24
248.549	86.01
248.766	57.34
248.983	49.15
249.2	88.06
249.417	2.05
249.633	36.86
249.85	20.48
250.067	102.4
250.284	-16.38
250.501	34.82
250.717	88.06
250.934	2.05
251.151	2.05
251.368	94.21
251.585	22.53
251.801	49.15
252.018	18.43
252.235	59.39
252.451	-53.25
252.668	63.49
252.885	122.88
253.102	71.68
253.318	40.96
253.535	45.06
253.752	43.01
253.968	18.43
254.185	30.72
254.401	79.87
254.618	57.34
254.835	-40.96
255.051	18.43
255.268	90.11
255.484	73.73
255.701	10.24
255.917	51.2
256.134	69.63
256.351	57.34
256.567	-14.34
256.784	53.25
257	-16.38
257.217	65.53
257.433	71.68
257.65	22.53
257.866	77.82
258.082	34.82
258.299	-10.24
258.515	100.35
258.732	-20.48
258.948	22.53
259.165	116.73
259.381	-6.14
259.597	40.96
259.814	8.19
260.03	34.82
260.246	34.82
260.463	34.82
260.679	32.77
260.895	6.14
261.112	6.14
261.328	-2.05
261.544	8.19
261.761	18.43
261.977	6.14
262.193	86.01
262.409	69.63
262.626	36.86
262.842	65.53
263.058	-16.38
263.274	55.3
263.49	40.96
263.707	71.68
263.923	36.86
264.139	6.14
264.355	36.86
264.571	126.97
264.787	90.11
265.004	61.44
265.22	36.86
265.436	51.2
265.652	36.86
265.868	53.25
266.084	16.38
266.3	20.48
266.516	-22.53
266.732	55.3
266.948	49.15
267.164	26.62
267.38	43.01
267.596	26.62
267.812	73.73
268.028	18.43
268.244	-40.96
268.46	83.97
268.676	63.49
268.892	73.73
269.108	14.34
269.324	53.25
269.54	36.86
269.756	94.21
269.972	-38.91
270.188	65.53
270.403	57.34
270.619	-4.1
270.835	49.15
271.051	24.58
271.267	45.06
271.483	67.58
271.698	59.39
271.914	98.3
272.13	8.19
272.346	98.3
272.562	-12.29
272.777	22.53
272.993	75.77
273.209	71.68
273.425	79.87
273.64	147.45
273.856	77.82
274.072	14.34
274.287	16.38
274.503	73.73
274.719	36.86
274.934	108.54
275.15	14.34
275.366	86.01
275.581	32.77
275.797	-34.82
276.012	36.86
276.228	-67.58
276.444	57.34
276.659	65.53
276.875	32.77
277.09	40.96
277.306	-2.05
277.521	-6.14
277.737	63.49
277.952	69.63
278.168	92.16
278.383	55.3
278.599	8.19
278.814	34.82
279.03	49.15
279.245	73.73
279.461	26.62
279.676	45.06
279.892	45.06
280.107	-0
280.322	28.67
280.538	122.88
280.753	-28.67
280.969	90.11
281.184	-47.1
281.399	102.4
281.615	32.77
281.83	8.19
282.045	124.93
282.26	98.3
282.476	12.29
282.691	6.14
282.906	22.53
283.122	59.39
283.337	-34.82
283.552	45.06
283.767	-0
283.983	67.58
284.198	-12.29
284.413	61.44
284.628	-0
284.843	4.1
285.058	108.54
285.274	83.97
285.489	6.14
285.704	30.72
285.919	14.34
286.134	-38.91
286.349	69.63
286.564	4.1
286.779	53.25
286.995	53.25
287.21	-10.24
287.425	-4.1
287.64	81.92
287.855	96.25
288.07	34.82
288.285	38.91
288.5	49.15
288.715	110.59
288.93	-8.19
289.145	73.73
289.36	104.45
289.575	81.92
289.79	96.25
290.004	32.77
290.219	118.78
290.434	-12.29
290.649	110.59
290.864	49.15
291.079	36.86
291.294	86.01
291.509	114.69
291.724	71.68
291.938	38.91
292.153	57.34
292.368	55.3
292.583	65.53
292.798	63.49
293.012	135.17
293.227	55.3
293.442	28.67
293.657	43.01
293.871	57.34
294.086	38.91
294.301	67.58
294.516	16.38
294.73	100.35
294.945	53.25
295.16	53.25
295.374	14.34
295.589	106.49
295.804	67.58
296.018	-49.15
296.233	86.01
296.447	49.15
296.662	-4.1
296.877	49.15
297.091	79.87
297.306	32.77
297.52	75.77
297.735	34.82
297.949	-0
298.164	40.96
298.378	59.39
298.593	73.73
298.807	75.77
299.022	104.45
299.236	45.06
299.451	100.35
299.665	20.48
299.88	40.96
300.094	28.67
300.309	24.58
300.523	8.19
300.737	-6.14
300.952	69.63
301.166	67.58
301.381	30.72
301.595	32.77
301.809	45.06
302.024	104.45
302.238	-0
302.452	43.01
302.667	55.3
302.881	-20.48
303.095	43.01
303.309	53.25
303.524	28.67
303.738	59.39
303.952	22.53
304.166	18.43
304.381	-14.34
304.595	131.07
304.809	24.58
305.023	57.34
305.237	-22.53
305.452	55.3
305.666	18.43
305.88	75.77
306.094	32.77
306.308	55.3
306.522	71.68
306.736	-0
306.95	61.44
307.164	26.62
307.379	14.34
307.593	75.77
307.807	81.92
308.021	61.44
308.235	32.77
308.449	86.01
308.663	43.01
308.877	122.88
309.091	73.73
309.305	59.39
309.519	-8.19
309.733	32.77
309.947	53.25
310.161	2.05
310.374	77.82
310.588	18.43
310.802	24.58
311.016	122.88
311.23	59.39
311.444	75.77
311.658	51.2
311.872	12.29
312.085	126.97
312.299	100.35
312.513	90.11
312.727	65.53
312.941	88.06
313.154	34.82
313.368	22.53
313.582	73.73
313.796	79.87
314.009	28.67
314.223	81.92
314.437	65.53
314.651	34.82
314.864	20.48
315.078	61.44
315.292	53.25
315.505	59.39
315.719	18.43
315.933	83.97
316.146	112.64
316.36	98.3
316.573	104.45
316.787	38.91
317.001	28.67
317.214	-0
317.428	69.63
317.641	55.3
317.855	51.2
318.068	77.82
318.282	61.44
318.495	137.21
318.709	108.54
318.922	-2.05
319.136	53.25
319.349	83.97
319.563	51.2
319.776	57.34
319.99	14.34
320.203	28.67
320.417	77.82
320.63	-8.19
320.843	143.36
321.057	69.63
321.27	59.39
321.483	32.77
321.697	83.97
321.91	43.01
322.124	55.3
322.337	59.39
322.55	22.53
322.763	73.73
322.977	12.29
323.19	28.67
323.403	55.3
323.617	-77.82
323.83	59.39
324.043	8.19
324.256	43.01
324.469	14.34
324.683	43.01
324.896	18.43
325.109	110.59
325.322	49.15
325.535	100.35
325.748	69.63
325.962	63.49
326.175	28.67
326.388	65.53
326.601	141.31
326.814	38.91
327.027	26.62
327.24	63.49
327.453	-4.1
327.666	18.43
327.879	131.07
328.092	65.53
328.305	20.48
328.518	81.92
328.731	77.82
328.944	90.11
329.157	57.34
329.37	12.29
329.583	-10.24
329.796	92.16
330.009	14.34
330.222	63.49
330.435	8.19
330.648	24.58
330.861	43.01
331.073	32.77
331.286	77.82
331.499	51.2
331.712	57.34
331.925	20.48
332.138	20.48
332.35	83.97
332.563	71.68
332.776	30.72
332.989	8.19
333.202	49.15
333.414	94.21
333.627	53.25
333.84	-0
334.053	36.86
334.265	-22.53
334.478	53.25
334.691	-14.34
334.903	6.14
335.116	-4.1
335.329	96.25
335.541	100.35
335.754	61.44
335.966	61.44
336.179	24.58
336.392	12.29
336.604	28.67
336.817	36.86
337.029	28.67
337.242	28.67
337.454	55.3
337.667	59.39
337.88	79.87
338.092	77.82
338.305	86.01
338.517	-28.67
338.729	94.21
338.942	45.06
339.154	65.53
339.367	59.39
339.579	47.1
339.792	26.62
340.004	110.59
340.217	22.53
340.429	81.92
340.641	30.72
340.854	49.15
341.066	86.01
341.278	77.82
341.491	106.49
341.703	57.34
341.915	-47.1
342.128	22.53
342.34	32.77
342.552	24.58
342.764	-12.29
342.977	51.2
343.189	86.01
343.401	151.55
343.613	67.58
343.826	67.58
344.038	59.39
344.25	24.58
344.462	57.34
344.674	-4.1
344.886	40.96
345.099	53.25
345.311	73.73
345.523	57.34
345.735	53.25
345.947	106.49
346.159	61.44
346.371	118.78
346.583	51.2
346.795	69.63
347.007	79.87
347.219	45.06
347.431	65.53
347.643	75.77
347.855	57.34
348.067	45.06
348.279	69.63
348.491	135.17
348.703	94.21
348.915	8.19
349.127	22.53
349.339	49.15
349.551	30.72
349.763	75.77
349.975	114.69
350.187	-4.1
350.399	61.44
350.61	96.25
350.822	79.87
351.034	16.38
351.246	26.62
351.458	63.49
351.669	20.48
351.881	86.01
352.093	24.58
352.305	67.58
352.517	71.68
352.728	49.15
352.94	124.93
353.152	73.73
353.363	22.53
353.575	81.92
353.787	96.25
353.999	92.16
354.21	38.91
354.422	45.06
354.633	61.44
354.845	53.25
355.057	141.31
355.268	24.58
355.48	49.15
355.692	-49.15
355.903	94.21
356.115	34.82
356.326	49.15
356.538	79.87
356.749	73.73
356.961	47.1
357.172	53.25
357.384	-20.48
357.595	104.45
357.807	104.45
358.018	81.92
358.23	24.58
358.441	106.49
358.653	88.06
358.864	71.68
359.075	83.97
359.287	112.64
359.498	14.34
359.709	77.82
359.921	92.16
360.132	45.06
360.344	43.01
360.555	124.93
360.766	77.82
360.977	73.73
361.189	34.82
361.4	47.1
361.611	69.63
361.823	114.69
362.034	75.77
362.245	12.29
362.456	45.06
362.667	45.06
362.879	159.74
363.09	67.58
363.301	153.6
363.512	-10.24
363.723	22.53
363.935	12.29
364.146	73.73
364.357	81.92
364.568	114.69
364.779	79.87
364.99	96.25
365.201	51.2
365.412	-20.48
365.623	75.77
365.834	122.88
366.045	24.58
366.256	77.82
366.467	57.34
366.678	28.67
366.889	55.3
367.1	102.4
367.311	40.96
367.522	120.83
367.733	63.49
367.944	38.91
368.155	69.63
368.366	88.06
368.577	67.58
368.788	63.49
368.999	-14.34
369.209	65.53
369.42	118.78
369.631	38.91
369.842	40.96
370.053	63.49
370.264	71.68
370.474	57.34
370.685	100.35
370.896	63.49
371.107	32.77
371.317	79.87
371.528	8.19
371.739	40.96
371.95	57.34
372.16	81.92
372.371	65.53
372.582	45.06
372.792	10.24
373.003	129.02
373.214	-4.1
373.424	135.17
373.635	20.48
373.846	4.1
374.056	86.01
374.267	159.74
374.477	18.43
374.688	73.73
374.898	32.77
375.109	180.22
375.319	94.21
375.53	137.21
375.74	86.01
375.951	16.38
376.161	-6.14
376.372	57.34
376.582	-26.62
376.793	20.48
377.003	45.06
377.214	102.4
377.424	108.54
377.635	143.36
377.845	24.58
378.055	81.92
378.266	79.87
378.476	55.3
378.686	81.92
378.897	38.91
379.107	77.82
379.317	57.34
379.528	49.15
379.738	106.49
379.948	38.91
380.158	61.44
380.369	86.01
380.579	106.49
380.789	57.34
380.999	106.49
381.21	98.3
381.42	114.69
381.63	-12.29
381.84	55.3
382.05	61.44
382.261	88.06
382.471	77.82
382.681	51.2
382.891	81.92
383.101	61.44
383.311	18.43
383.521	106.49
383.731	61.44
383.941	47.1
384.151	100.35
384.361	57.34
384.571	49.15
384.781	106.49
384.991	108.54
385.201	102.4
385.411	53.25
385.621	32.77
385.831	43.01
386.041	43.01
386.251	75.77
386.461	10.24
386.671	24.58
386.881	88.06
387.091	24.58
387.301	106.49
387.511	45.06
387.72	114.69
387.93	49.15
388.14	36.86
388.35	65.53
388.56	167.93
388.769	55.3
388.979	10.24
389.189	65.53
389.399	47.1
389.609	86.01
389.818	47.1
390.028	-18.43
390.238	126.97
390.447	57.34
390.657	77.82
390.867	53.25
391.076	88.06
391.286	106.49
391.496	-0
391.705	22.53
391.915	75.77
392.125	92.16
392.334	14.34
392.544	71.68
392.753	53.25
392.963	83.97
393.172	55.3
393.382	71.68
393.591	116.73
393.801	43.01
394.01	143.36
394.22	47.1
394.429	57.34
394.639	94.21
394.848	139.26
395.058	65.53
395.267	14.34
395.477	88.06
395.686	100.35
395.895	133.12
396.105	163.84
396.314	131.07
396.524	163.84
396.733	71.68
396.942	53.25
397.152	79.87
397.361	126.97
397.57	81.92
397.78	75.77
397.989	145.41
398.198	34.82
398.407	92.16
398.617	110.59
398.826	114.69
399.035	155.65
399.244	59.39
399.453	174.08
399.663	161.79
399.872	118.78
400.081	135.17
400.29	151.55
400.499	116.73
400.708	141.31
400.917	143.36
401.127	63.49
401.336	151.55
401.545	165.89
401.754	141.31
401.963	96.25
402.172	120.83
402.381	73.73
402.59	102.4
402.799	153.6
403.008	16.38
403.217	110.59
403.426	172.03
403.635	94.21
403.844	141.31
404.053	75.77
404.262	133.12
404.471	169.98
404.68	114.69
404.888	196.6
405.097	221.18
405.306	280.57
405.515	178.17
405.724	149.5
405.933	198.65
406.142	188.41
406.35	231.42
406.559	210.94
406.768	196.6
406.977	264.19
407.185	190.46
407.394	266.24
407.603	215.04
407.812	305.15
408.02	245.76
408.229	266.24
408.438	206.84
408.646	286.72
408.855	288.76
409.064	253.95
409.272	233.47
409.481	352.25
409.69	282.62
409.898	335.87
410.107	290.81
410.315	448.51
410.524	382.97
410.733	364.54
410.941	319.48
411.15	425.98
411.358	473.08
411.567	487.42
411.775	391.16
411.984	436.22
412.192	407.55
412.401	454.65
412.609	528.38
412.818	606.2
413.026	540.66
413.234	491.51
413.443	536.57
413.651	540.66
413.86	585.72
414.068	710.65
414.276	686.07
414.485	745.46
414.693	638.97
414.901	716.79
415.11	710.65
415.318	673.78
415.526	847.86
415.734	815.09
415.943	892.91
416.151	884.72
416.359	872.43
416.567	862.19
416.776	958.45
416.984	1011.7
417.192	1075.18
417.4	1064.94
417.608	1069.04
417.817	1120.24
418.025	1122.29
418.233	1302.51
418.441	1193.97
418.649	1261.55
418.857	1279.98
419.065	1441.77
419.273	1427.43
419.481	1476.59
419.689	1435.63
419.897	1495.02
420.105	1546.22
420.313	1677.29
420.521	1826.79
420.729	1605.61
420.937	1837.03
421.145	1861.6
421.353	1980.39
421.561	2002.91
421.769	2076.64
421.977	2064.35
422.185	2099.17
422.393	2191.33
422.601	2459.61
422.809	2416.6
423.017	2430.94
423.224	2521.05
423.432	2537.43
423.64	2684.89
423.848	2834.39
424.056	2897.88
424.263	3041.23
424.471	2957.27
424.679	3057.62
424.887	3172.3
425.094	3268.56
425.302	3346.38
425.51	3332.05
425.718	3514.31
425.925	3590.09
426.133	3626.95
426.341	3796.93
426.548	4171.71
426.756	4022.21
426.964	4061.12
427.171	4409.28
427.379	4474.81
427.586	4536.25
427.794	4747.19
428.001	5023.67
428.209	5130.16
428.417	5085.11
428.624	5363.63
428.832	5244.85
429.039	5474.22
429.247	5490.6
429.454	5914.53
429.662	6254.5
429.869	5971.88
430.076	6283.17
430.284	6012.84
430.491	6258.59
430.699	6694.81
430.906	6782.87
431.114	6844.31
431.321	7229.33
431.528	7214.99
431.736	7702.41
431.943	7919.5
432.15	7804.81
432.358	8071.04
432.565	8312.71
432.772	8333.18
432.979	8742.78
433.187	9002.87
433.394	9066.36
433.601	9641.84
433.808	9625.45
434.016	9400.18
434.223	9994.09
434.43	10592.09
434.637	10260.32
434.844	10948.44
435.052	11177.81
435.259	11065.18
435.466	11278.16
435.673	11294.55
435.88	11896.65
436.087	12390.21
436.294	12568.38
436.501	12234.57
436.708	12502.85
436.915	13109.05
437.122	13442.87
437.329	13436.72
437.537	13754.16
437.743	14028.59
437.95	13922.09
438.157	14710.56
438.364	15193.88
438.571	15091.48
438.778	15179.54
438.985	16602.88
439.192	15996.68
439.399	16500.48
439.606	16068.36
439.813	17137.4
440.02	17794.8
440.227	17594.1
440.433	17524.47
440.64	18009.84
440.847	18038.51
441.054	18607.84
441.261	19701.46
441.467	19666.64
441.674	19910.35
441.881	20762.31
442.088	20412.1
442.294	20362.95
442.501	20735.68
442.708	21518.01
442.914	22140.59
443.121	23068.32
443.328	22398.63
443.534	23930.51
443.741	23557.78
443.948	23312.03
444.154	24901.25
444.361	24489.61
444.568	24934.02
444.774	24755.85
444.981	25036.42
445.187	25884.28
445.394	26996.32
445.6	26330.73
445.807	29072.96
446.013	27745.88
446.22	28167.76
446.426	29455.93
446.633	29767.23
446.839	30637.61
447.046	29587
447.252	30807.59
447.459	31114.79
447.665	31233.57
447.871	32386.58
448.078	34108.92
448.284	32103.96
448.491	32849.42
448.697	34522.61
448.903	34967.02
449.11	34936.3
449.316	34672.11
449.522	35122.66
449.728	36275.67
449.935	36537.81
450.141	36218.33
450.347	37283.27
450.553	36052.44
450.76	36275.67
450.966	37907.9
451.172	36982.22
451.378	38213.05
451.584	37508.55
451.791	38802.86
451.997	38344.12
452.203	39046.57
452.409	39015.85
452.615	38309.3
452.821	37119.43
453.027	36863.44
453.233	38845.87
453.44	37039.56
453.646	37569.99
453.852	38147.51
454.058	38159.8
454.264	37078.47
454.47	38354.36
454.676	37266.89
454.882	38311.35
455.088	35345.89
455.294	35755.49
455.5	36185.56
455.705	36888.01
455.911	35397.09
456.117	34448.88
456.323	33758.72
456.529	32460.3
456.735	33672.7
456.941	32773.64
457.147	32181.78
457.352	31086.12
457.558	31102.5
457.764	30920.23
457.97	30379.57
458.176	30012.98
458.381	29855.29
458.587	28042.84
458.793	28825.16
458.999	26902.12
459.204	28710.47
459.41	27627.1
459.616	26269.3
459.821	25880.18
460.027	26181.23
460.233	25515.64
460.438	24290.96
460.644	24575.62
460.85	23563.93
461.055	23121.57
461.261	22881.95
461.466	21149.37
461.672	20616.9
461.878	22308.52
462.083	20950.72
462.289	20180.68
462.494	20213.45
462.7	19304.15
462.905	18835.17
463.111	19607.25
463.316	19525.33
463.522	18843.36
463.727	19285.72
463.932	18802.4
464.138	18669.28
464.343	18882.27
464.549	18355.94
464.754	19007.2
464.959	18972.38
465.165	18372.33
465.37	17475.32
465.575	17362.68
465.781	18044.65
465.986	18185.96
466.191	17645.3
466.397	16953.09
466.602	16422.66
466.807	16905.98
467.012	17145.59
467.218	16955.13
467.423	16654.08
467.628	16695.04
467.833	17475.32
468.038	16951.04
468.244	16379.65
468.449	16830.21
468.654	16414.47
468.859	16181
469.064	15849.23
469.269	15572.75
469.474	15709.97
469.679	15742.74
469.885	15501.08
470.09	15490.84
470.295	15636.24
470.5	15222.55
470.705	15093.53
470.91	14958.36
471.115	14909.21
471.32	15204.12
471.525	15066.91
471.73	14692.13
471.935	14436.13
472.139	14300.97
472.344	14090.02
472.549	13864.75
472.754	13946.67
472.959	13446.96
473.164	13272.89
473.369	13051.7
473.574	13528.88
473.778	13664.05
473.983	13363
474.188	13680.43
474.393	12574.53
474.598	12861.24
474.802	12824.38
475.007	12654.4
475.212	12822.33
475.417	12162.89
475.621	12263.24
475.826	12222.28
476.031	11908.94
476.235	11837.26
476.44	11894.6
476.645	11693.9
476.849	11865.93
477.054	11622.22
477.259	11423.57
477.463	11636.56
477.668	11294.55
477.872	11265.88
478.077	11132.76
478.282	10966.87
478.486	10731.36
478.691	10813.27
478.895	10682.2
479.1	10686.3
479.304	10620.77
479.509	10121.06
479.713	10575.71
479.918	10288.99
480.122	10309.47
480.326	10202.98
480.531	10282.85
480.735	10047.33
480.94	9951.08
481.144	10415.97
481.348	9719.66
481.553	9926.5
481.757	9744.24
481.961	9852.78
482.166	10012.52
482.37	9971.56
482.574	9764.71
482.778	9838.44
482.983	10137.45
483.187	9639.79
483.391	9977.7
483.595	9750.38
483.8	9697.13
484.004	9830.25
484.208	9793.39
484.412	9619.31
484.616	9822.06
484.821	9660.27
485.025	9557.87
485.229	9854.83
485.433	9695.08
485.637	9807.72
485.841	9688.94
486.045	9779.05
486.249	9615.21
486.453	9774.95
486.657	9643.88
486.861	9787.24
487.065	9459.57
487.269	9658.22
487.473	9734
487.677	9480.05
487.881	9963.37
488.085	9658.22
488.289	9891.69
488.493	9715.56
488.697	9783.15
488.901	9750.38
489.105	9609.07
489.309	9854.83
489.512	9813.87
489.716	9824.11
489.92	9777
490.124	9748.33
490.328	9989.99
490.531	9889.64
490.735	9887.59
490.939	10176.36
491.143	9920.36
491.346	9955.18
491.55	10223.46
491.754	10172.26
491.958	10182.5
492.161	10442.59
492.365	10301.28
492.569	10141.54
492.772	10432.35
492.976	10387.3
493.18	10438.5
493.383	10590.05
493.587	10581.85
493.79	10745.69
493.994	10479.46
494.197	10837.85
494.401	10792.8
494.605	10764.12
494.808	10936.15
495.012	10913.63
495.215	11009.88
495.419	11061.08
495.622	11212.63
495.825	11300.69
496.029	11413.33
496.232	11554.64
496.436	11411.28
496.639	11786.06
496.843	11669.33
497.046	11876.17
497.249	12191.56
497.453	11966.28
497.656	12212.04
497.859	12500.8
498.063	12601.15
498.266	12828.48
498.469	12566.34
498.673	12810.04
498.876	13121.34
499.079	12951.35
499.282	13172.53
499.485	13264.69
499.689	13350.71
499.892	13655.86
500.095	13938.48
500.298	13993.77
500.501	14071.59
500.705	14212.9
500.908	14372.64
501.111	14260.01
501.314	14552.87
501.517	14851.87
501.72	14958.36
501.923	14901.02
502.126	15093.53
502.329	15523.6
502.532	15451.92
502.735	15871.76
502.938	15894.29
503.141	15988.49
503.344	16303.88
503.547	16338.69
503.75	16549.64
503.953	16842.49
504.156	16936.7
504.359	16989.95
504.562	17110.78
504.765	17503.99
504.968	17753.84
505.17	18038.51
505.373	17948.4
505.576	18396.9
505.779	18593.51
505.982	18587.36
506.185	18941.66
506.387	18970.33
506.59	19197.66
506.793	19502.81
506.996	19513.05
507.198	20031.18
507.401	19830.48
507.604	20528.84
507.807	20582.09
508.009	20635.33
508.212	20932.29
508.415	21333.69
508.617	21241.53
508.82	21507.77
509.022	21206.72
509.225	21888.69
509.428	21903.03
509.63	22122.16
509.833	22472.36
510.035	22931.11
510.238	22726.31
510.44	23078.56
510.643	23357.08
510.845	23518.87
511.048	23621.27
511.25	24096.4
511.453	23918.23
511.655	24737.41
511.858	24440.46
512.06	24848
512.262	24964.74
512.465	25073.28
512.667	25429.63
512.87	25728.63
513.072	25736.82
513.274	26117.75
513.477	26459.76
513.679	26775.14
513.881	26955.36
514.084	27520.6
514.286	27293.28
514.488	27749.98
514.69	28278.35
514.893	28380.75
515.095	28542.54
515.297	28956.23
515.499	28712.52
515.701	28909.13
515.904	29793.85
516.106	29607.48
516.308	29771.32
516.51	30283.31
516.712	30520.88
516.914	30746.15
517.116	31577.63
517.318	31297.06
517.52	31540.77
517.722	31612.45
517.925	31800.86
518.127	32431.63
518.329	32796.17
518.531	32542.22
518.733	32742.92
518.935	33578.5
519.136	32892.43
519.338	34096.63
519.54	34088.44
519.742	34055.67
519.944	34807.28
520.146	34799.08
520.348	35202.53
520.55	35290.6
520.752	35558.88
520.954	36257.24
521.155	35872.22
521.357	36324.82
521.559	36470.23
521.761	37060.04
521.963	36947.4
522.164	37346.76
522.366	37524.93
522.568	37963.2
522.77	37938.62
522.971	38573.49
523.173	38073.79
523.375	38593.97
523.576	38964.65
523.778	39216.55
523.98	39179.69
524.181	39703.97
524.383	39306.66
524.584	40299.93
524.786	39822.75
524.988	40119.71
525.189	40500.63
525.391	41110.92
525.592	41061.77
525.794	41178.51
525.995	41135.5
526.197	41522.57
526.398	41530.76
526.6	41997.7
526.801	41825.67
527.003	42272.12
527.204	42050.94
527.406	42696.05
527.607	42296.7
527.808	43150.7
528.01	42364.28
528.211	42767.73
528.412	43363.69
528.614	43484.52
528.815	43189.61
529.016	43605.35
529.218	43281.77
529.419	43615.59
529.62	43982.18
529.822	43744.61
530.023	43804
530.224	43853.15
530.425	43887.97
530.626	43697.51
530.828	43650.41
531.029	44666.2
531.23	44160.35
531.431	43910.5
531.632	44377.43
531.833	44526.94
532.035	44758.36
532.236	44746.07
532.437	44907.86
532.638	44281.18
532.839	44752.21
533.04	44660.05
533.241	44299.61
533.442	45423.95
533.643	44864.85
533.844	44569.94
534.045	44934.48
534.246	44502.36
534.447	45106.51
534.648	44571.99
534.849	45180.24
535.05	44676.44
535.251	45032.78
535.451	45043.02
535.652	45253.97
535.853	44987.73
536.054	45131.09
536.255	45450.57
536.456	44909.91
536.657	45483.34
536.857	45081.94
537.058	44713.3
537.259	45321.55
537.46	45016.4
537.66	45147.47
537.861	45567.3
538.062	45241.68
538.263	45262.16
538.463	44737.88
538.664	44881.24
538.865	45491.53
539.065	45323.6
539.266	45057.36
539.466	45425.99
539.667	44627.29
539.868	45661.51
540.068	45225.29
540.269	45268.3
540.469	45159.76
540.67	44803.41
540.87	44967.25
541.071	45143.38
541.271	45360.46
541.472	45219.15
541.672	44827.99
541.873	44903.76
542.073	44725.59
542.274	45196.62
542.474	45008.21
542.675	44549.46
542.875	45448.52
543.075	44909.91
543.276	44916.05
543.476	45114.7
543.676	44402.01
543.877	44936.53
544.077	45073.74
544.277	44553.56
544.478	44973.39
544.678	45092.18
544.878	44952.91
545.078	44807.51
545.279	44860.76
545.479	44692.82
545.679	45092.18
545.879	44420.44
546.079	44735.83
546.28	44801.36
546.48	44756.31
546.68	44395.87
546.88	45010.26
547.08	44805.46
547.28	44610.9
547.48	44510.55
547.68	44504.41
547.88	44397.91
548.081	44631.38
548.281	44418.39
548.481	44776.79
548.681	45241.68
548.881	44887.38
549.081	44574.04
549.28	44584.28
549.48	44926.29
549.68	44580.18
549.88	45448.52
550.08	44729.69
550.28	44455.26
550.48	44285.28
550.68	44850.52
550.88	44207.45
551.08	44383.58
551.279	44606.81
551.479	44541.27
551.679	44676.44
551.879	44524.89
552.079	44508.5
552.278	44406.11
552.478	44467.55
552.678	44455.26
552.878	44561.75
553.077	44205.41
553.277	44449.11
553.477	44752.21
553.676	44121.44
553.876	44434.78
554.076	44037.47
554.275	44152.16
554.475	43615.59
554.674	43973.98
554.874	44170.59
555.074	43488.62
555.273	44479.83
555.473	44154.21
555.672	43740.52
555.872	43971.94
556.071	44021.09
556.271	44037.47
556.47	43771.24
556.67	43410.79
556.869	43756.9
557.068	43969.89
557.268	43382.12
557.467	43750.76
557.667	43509.1
557.866	43593.06
558.065	43541.86
558.265	43134.32
558.464	43050.35
558.663	43537.77
558.863	42638.71
559.062	43535.72
559.261	43003.25
559.461	43216.24
559.66	42739.06
559.859	42990.96
560.058	42921.33
560.258	43146.61
560.457	42399.1
560.656	42734.96
560.855	42298.75
561.054	42820.98
561.253	42134.91
561.453	42538.36
561.652	42577.27
561.851	42798.45
562.05	42411.38
562.249	42067.33
562.448	42906.99
562.647	41840
562.846	42519.93
563.045	41745.79
563.244	41917.82
563.443	42171.77
563.642	41383.3
563.841	41551.24
564.04	41682.31
564.239	42102.14
564.438	41305.48
564.637	41751.94
564.836	41764.23
565.035	41121.16
565.234	41516.42
565.432	40947.09
565.631	41225.61
565.83	41526.66
566.029	40713.62
566.228	40748.43
566.427	40752.53
566.625	40682.9
566.824	39910.81
567.023	40662.42
567.222	39945.63
567.42	40371.61
567.619	40578.45
567.818	40369.56
568.016	40363.42
568.215	40476.05
568.414	39478.69
568.612	40189.34
568.811	39921.05
569.01	39996.83
569.208	39368.1
569.407	39560.61
569.605	39065
569.804	39900.58
570.002	38909.36
570.201	39726.5
570.4	38821.3
570.598	38852.02
570.797	38645.17
570.995	39046.57
571.193	38516.15
571.392	39036.33
571.59	38489.52
571.789	38569.4
571.987	38610.35
572.186	38305.21
572.384	38290.87
572.582	38268.34
572.781	38485.43
572.979	37778.88
573.177	38237.62
573.376	38018.49
573.574	37576.13
573.772	38090.17
573.971	37537.22
574.169	37365.19
574.367	36916.68
574.565	37529.03
574.763	36707.79
574.962	37066.19
575.16	36703.7
575.358	36589.01
575.556	36566.48
575.754	37133.77
575.952	36609.49
576.151	36808.14
576.349	35923.42
576.547	36292.05
576.745	36240.85
576.943	36537.81
577.141	36300.25
577.339	36285.91
577.537	35792.35
577.735	35878.36
577.933	35501.54
578.131	36091.35
578.329	35515.87
578.527	35362.28
578.725	35511.78
578.923	35470.82
579.121	35296.74
579.319	34901.48
579.516	34973.16
579.714	34942.44
579.912	34917.87
580.11	34731.5
580.308	34815.47
580.506	34948.59
580.704	34280.95
580.901	34260.47
581.099	34366.96
581.297	34237.94
581.495	33981.95
581.692	34446.83
581.89	33885.69
582.088	34084.34
582.285	33512.96
582.483	33859.07
582.681	33578.5
582.878	33523.2
583.076	33349.12
583.274	33742.33
583.471	33160.71
583.669	33127.94
583.866	33164.81
584.064	33093.13
584.262	32828.94
584.459	33433.09
584.657	32249.36
584.854	32642.57
585.052	32525.84
585.249	32292.37
585.447	32433.68
585.644	32058.9
585.841	32372.24
586.039	32566.8
586.236	32087.57
586.434	31743.52
586.631	31917.59
586.828	31553.05
587.026	32181.78
587.223	31868.44
587.42	31548.96
587.618	32058.9
587.815	31235.62
588.012	31061.54
588.21	31065.64
588.407	31309.35
588.604	30879.27
588.801	30619.18
588.999	30959.14
589.196	30602.8
589.393	30670.38
589.59	30719.53
589.787	30623.28
589.984	30324.27
590.182	30279.22
590.379	30897.7
590.576	30451.25
590.773	30076.47
590.97	29673.02
591.167	29900.34
591.364	29679.16
591.561	29804.09
591.758	29500.99
591.955	29384.26
592.152	29810.23
592.349	29240.9
592.546	29384.26
592.743	29273.67
592.94	28929.61
593.137	29414.98
593.334	28921.41
593.531	28821.06
593.727	29003.33
593.924	29236.8
594.121	28528.2
594.318	28747.34
594.515	28296.78
594.712	28558.92
594.908	28413.52
595.105	28100.18
595.302	27895.38
595.499	28249.68
595.696	28098.13
595.892	27907.67
596.089	27915.86
596.286	28055.12
596.482	27850.33
596.679	27553.37
596.876	27520.6
597.072	27573.85
597.269	27821.66
597.466	27244.13
597.662	27260.51
597.859	27106.91
598.055	27283.04
598.252	26943.08
598.448	26820.2
598.645	26705.51
598.841	26459.76
599.038	26328.69
599.234	26893.93
599.431	26330.73
599.627	26586.73
599.824	26619.5
600.02	26138.23
600.217	26283.63
600.413	26234.48
600.609	25775.73
600.806	25935.48
601.002	25898.61
601.198	25794.17
601.395	25806.45
601.591	25757.3
601.787	25517.69
601.984	25437.82
602.18	25341.57
602.376	25276.03
602.572	25097.86
602.769	25409.15
602.965	24925.83
603.161	25020.03
603.357	24901.25
603.553	24825.48
603.75	24948.36
603.946	24553.1
604.142	25099.9
604.338	24430.22
604.534	24723.08
604.73	24301.2
604.926	24460.94
605.122	24469.13
605.318	24209.04
605.514	24348.3
605.71	23920.28
605.906	24225.42
606.102	24168.08
606.298	24018.58
606.494	23809.68
606.69	23981.71
606.886	23723.67
607.082	23348.89
607.278	23750.29
607.474	23377.56
607.67	23410.33
607.866	23439
608.062	23496.35
608.257	23205.53
608.453	23119.52
608.649	23430.81
608.845	23129.76
609.041	23305.88
609.236	23103.14
609.432	23094.94
609.628	22967.97
609.824	22849.19
610.019	22935.2
610.215	22636.2
610.411	22822.56
610.606	22539.94
610.802	22693.54
610.998	22486.7
611.193	22605.48
611.389	22439.59
611.584	22470.31
611.78	22279.85
611.976	22187.69
612.171	22382.25
612.367	22560.42
612.562	22212.27
612.758	21980.85
612.953	21829.3
613.149	22025.9
613.344	21731
613.539	22294.19
613.735	22171.31
613.93	22070.96
614.126	21974.7
614.321	21870.26
614.517	21921.46
614.712	21567.16
614.907	21640.89
615.103	21739.19
615.298	21356.22
615.493	21751.48
615.688	21305.02
615.884	21907.12
616.079	21395.13
616.274	21358.27
616.47	21112.51
616.665	21493.43
616.86	21022.4
617.055	21130.94
617.25	21149.37
617.445	21110.46
617.641	20575.94
617.836	21038.78
618.031	20819.65
618.226	20950.72
618.421	20504.26
618.616	20782.79
618.811	20362.95
619.006	20766.4
619.201	20043.47
619.396	20549.32
619.591	20197.07
619.786	20461.26
619.981	19994.32
620.176	20287.18
620.371	20192.97
620.566	20041.42
620.761	19965.65
620.956	19752.66
621.151	19588.82
621.346	19719.89
621.541	19580.63
621.735	19416.79
621.93	19255
622.125	19496.66
622.32	18935.52
622.515	19109.6
622.709	18747.11
622.904	18695.91
623.099	18740.96
623.294	18732.77
623.488	18384.62
623.683	18452.2
623.878	18384.62
624.072	18136.81
624.267	18327.27
624.462	18003.69
624.656	17762.03
624.851	17899.25
625.046	17798.9
625.24	17868.53
625.435	17594.1
625.629	17557.24
625.824	17397.49
626.018	17258.23
626.213	17061.63
626.407	17489.65
626.602	16973.56
626.796	16944.89
626.991	17067.77
627.185	16828.16
627.38	16621.31
627.574	16633.6
627.768	16656.13
627.963	16660.23
628.157	16189.19
628.352	16217.86
628.546	16385.8
628.74	16342.79
628.935	15859.47
629.129	15918.86
629.323	15742.74
629.517	15699.73
629.712	15695.63
629.906	15638.29
630.1	15460.12
630.294	15466.26
630.489	15535.89
630.683	15406.87
630.877	15392.53
631.071	15036.19
631.265	15322.9
631.459	14919.45
631.653	14833.44
631.848	14991.13
632.042	14497.57
632.236	14944.03
632.43	14593.83
632.624	14604.07
632.818	14362.4
633.012	14358.31
633.206	14210.86
633.4	14294.82
633.594	14235.43
633.788	14106.41
633.982	13877.04
634.176	13807.41
634.369	13975.34
634.563	13862.7
634.757	13639.47
634.951	13604.66
635.145	13551.41
635.339	13649.71
635.533	13469.49
635.726	13522.74
635.92	12980.03
636.114	13137.72
636.308	13176.63
636.501	13223.73
636.695	12986.17
636.889	12777.28
637.083	12670.78
637.276	12681.02
637.47	12832.57
637.664	12693.31
637.857	12707.65
638.051	12771.13
638.244	12361.54
638.438	12312.39
638.632	12527.42
638.825	12181.32
639.019	12253
639.212	12257.09
639.406	12289.86
639.599	11892.55
639.793	11970.38
639.986	11726.67
640.18	11855.69
640.373	11953.99
640.567	11540.3
640.76	11380.56
640.954	11575.12
641.147	11464.53
641.34	11491.15
641.534	11386.71
641.727	11390.8
641.92	11310.93
642.114	11327.32
642.307	11149.14
642.5	11061.08
642.694	10952.54
642.887	11007.83
643.08	11155.29
643.273	10878.81
643.467	10843.99
643.66	10809.18
643.853	10780.51
644.046	10514.27
644.239	10516.32
644.432	10659.68
644.626	10428.26
644.819	10405.73
645.012	10424.16
645.205	10514.27
645.398	10448.74
645.591	10258.28
645.784	10231.65
645.977	10092.39
646.17	10076.01
646.363	9899.88
646.556	9981.8
646.749	9815.91
646.942	9881.45
647.135	9838.44
647.328	9551.73
647.521	9680.75
647.714	9486.19
647.907	9437.04
648.099	9549.68
648.292	9580.4
648.485	9494.38
648.678	9332.59
648.871	9242.48
649.064	9398.13
649.256	9222
649.449	9158.52
649.642	8992.63
649.835	9056.12
650.027	9066.36
650.22	8982.39
650.413	8886.14
650.605	8814.46
650.798	8730.49
650.991	8705.92
651.183	8806.27
651.376	8624
651.568	8578.94
651.761	8562.56
651.954	8603.52
652.146	8585.08
652.339	8232.83
652.531	8445.82
652.724	8327.04
652.916	8206.21
653.109	8415.1
653.301	8476.54
653.494	8218.5
653.686	8089.48
653.879	8347.52
654.071	8071.04
654.263	7894.92
654.456	7901.06
654.648	7974.79
654.84	7937.93
655.033	7858.06
655.225	7794.57
655.417	7706.51
655.61	7690.12
655.802	7907.21
655.994	7569.29
656.186	7710.6
656.379	7622.54
656.571	7552.91
656.763	7415.69
656.955	7567.24
657.148	7450.51
657.34	7331.73
657.532	7321.49
657.724	7438.22
657.916	7339.92
658.108	7194.51
658.3	7210.9
658.492	7067.54
658.684	7018.39
658.876	7096.21
659.068	7233.43
659.26	7118.74
659.452	7085.97
659.644	6987.67
659.836	6817.69
660.028	6983.57
660.22	6811.54
660.412	6928.28
660.604	6764.44
660.796	6670.23
660.988	6807.45
661.18	6528.92
661.372	6438.81
661.563	6563.74
661.755	6721.43
661.947	6559.64
662.139	6633.37
662.331	6602.65
662.522	6270.88
662.714	6242.21
662.906	6375.33
663.097	6303.65
663.289	6213.54
663.481	6397.85
663.673	6283.17
663.864	6291.36
664.056	6148
664.247	6137.76
664.439	6094.75
664.631	6225.82
664.822	6211.49
665.014	6139.81
665.205	5953.45
665.397	5855.14
665.588	6057.89
665.78	5908.39
665.971	5822.38
666.163	5892.01
666.354	5853.09
666.546	5805.99
666.737	5867.43
666.929	5762.98
667.12	5797.8
667.311	5656.49
667.503	5701.54
667.694	5760.94
667.885	5580.71
668.077	5601.19
668.268	5547.95
668.459	5597.1
668.651	5601.19
668.842	5511.08
669.033	5545.9
669.224	5373.87
669.416	5590.95
669.607	5416.88
669.798	5265.33
669.989	5457.84
670.18	5382.06
670.371	5177.26
670.563	5175.22
670.754	5275.57
670.945	5308.33
671.136	5197.74
671.327	5355.44
671.518	5099.44
671.709	5287.86
671.9	5179.31
672.091	5193.65
672.282	5142.45
672.473	5101.49
672.664	5078.96
672.855	5081.01
673.046	5064.63
673.237	5187.5
673.428	4939.7
673.619	5035.96
673.809	4892.6
674	4894.65
674.191	4951.99
674.382	5048.24
674.573	4988.85
674.764	4693.94
674.954	4960.18
675.145	4814.77
675.336	5003.19
675.527	4886.45
675.717	4911.03
675.908	4671.42
676.099	4663.22
676.289	4812.73
676.48	4736.95
676.671	4704.18
676.861	4642.75
677.052	4736.95
677.243	4593.59
677.433	4659.13
677.624	4687.8
677.814	4665.27
678.005	4652.98
678.195	4597.69
678.386	4677.56
678.576	4605.88
678.767	4677.56
678.957	4519.87
679.148	4616.12
679.338	4515.77
679.529	4501.44
679.719	4554.68
679.909	4569.02
680.1	4423.61
680.29	4585.4
680.481	4536.25
680.671	4448.19
680.861	4566.97
681.052	4392.89
681.242	4294.59
681.432	4487.1
681.622	4302.78
681.813	4343.74
682.003	4351.93
682.193	4380.61
682.383	4429.76
682.573	4405.18
682.764	4353.98
682.954	4239.3
683.144	4388.8
683.334	4251.58
683.524	4460.48
683.714	4290.49
683.904	4292.54
684.094	4276.16
684.284	4347.84
684.474	4380.61
684.664	4163.52
684.854	4241.34
685.044	4169.66
685.234	4243.39
685.424	4286.4
685.614	4157.38
685.804	4384.7
685.994	4071.36
686.184	4284.35
686.374	4110.27
686.564	4227.01
686.753	4138.94
686.943	4173.76
687.133	4011.97
687.323	4145.09
687.513	3960.77
687.702	3997.63
687.892	3989.44
688.082	4093.89
688.272	4001.73
688.461	3932.1
688.651	4085.7
688.841	3964.87
689.03	3909.57
689.22	3868.61
689.41	3987.4
689.599	3864.52
689.789	3774.41
689.979	3813.32
690.168	3839.94
690.358	3645.38
690.547	3653.58
690.737	3911.62
690.926	3753.93
691.116	3680.2
691.305	3692.49
691.495	3547.08
691.684	3524.55
691.874	3661.77
692.063	3792.84
692.252	3856.33
692.442	3704.78
692.631	3583.95
692.82	3520.46
693.01	3606.47
693.199	3377.1
693.388	3602.38
693.578	3420.11
693.767	3540.94
693.956	3499.98
694.146	3518.41
694.335	3542.99
694.524	3481.55
694.713	3475.4
694.902	3420.11
695.092	3547.08
695.281	3487.69
695.47	3612.62
695.659	3358.67
695.848	3340.24
696.037	3391.44
696.226	3362.76
696.415	3270.61
696.604	3432.4
696.793	3446.73
696.982	3407.82
697.171	3338.19
697.36	3278.8
697.549	3250.13
697.738	3364.81
697.927	3256.27
698.116	3356.62
698.305	3207.12
698.494	3391.44
698.683	3149.78
698.872	3366.86
699.061	3266.51
699.25	3266.51
699.438	3297.23
699.627	3346.38
699.816	3303.37
700.005	3241.93
700.193	3227.6
700.382	3274.7
700.571	3309.52
700.76	3221.45
700.948	3227.6
701.137	3243.98
701.326	3252.17
701.514	3137.49
701.703	3262.41
701.892	3176.4
702.08	3250.13
702.269	3317.71
702.457	3205.07
702.646	3143.63
702.834	3133.39
703.023	3121.1
703.212	3233.74
703.4	3200.98
703.589	3137.49
703.777	3309.52
703.965	3133.39
704.154	3141.58
704.342	3157.97
704.531	3145.68
704.719	3207.12
704.907	3205.07
705.096	2959.31
705.284	3112.91
705.472	3145.68
705.661	3182.54
705.849	3125.2
706.037	3104.72
706.226	3217.36
706.414	3239.89
706.602	3030.99
706.79	3092.43
706.979	3174.35
707.167	3137.49
707.355	3200.98
707.543	3074
707.731	3272.65
707.919	3141.58
708.107	3139.54
708.296	3063.76
708.484	3035.09
708.672	3057.62
708.86	3145.68
709.048	3100.62
709.236	3119.06
709.424	3178.45
709.612	2971.6
709.8	3033.04
709.988	3049.43
710.176	3069.91
710.364	3125.2
710.551	2992.08
710.739	3049.43
710.927	2957.27
711.115	3153.87
711.303	3168.21
711.491	3194.83
711.679	3153.87
711.866	3057.62
712.054	3082.19
712.242	3012.56
712.43	3184.59
712.617	3041.23
712.805	3108.82
712.993	2971.6
713.181	3039.19
713.368	2922.45
713.556	3166.16
713.744	3092.43
713.931	3190.74
714.119	3155.92
714.306	3133.39
714.494	3043.28
714.682	3104.72
714.869	3069.91
715.057	3071.95
715.244	3203.02
715.432	3135.44
715.619	3104.72
715.807	3086.29
715.994	3125.2
716.182	3014.61
716.369	2994.13
716.556	3149.78
716.744	2965.46
716.931	3069.91
717.119	3223.5
717.306	3074
717.493	3049.43
717.681	2938.84
717.868	3092.43
718.055	2928.6
718.242	3086.29
718.43	3104.72
718.617	3112.91
718.804	3012.56
718.991	2994.13
719.179	3137.49
719.366	3026.9
719.553	2924.5
719.74	3039.19
719.927	3000.27
720.114	3028.95
720.301	2996.18
720.488	3004.37
720.676	3051.47
720.863	3149.78
721.05	3026.9
721.237	3012.56
721.424	3067.86
721.611	3084.24
721.798	2973.65
721.985	3117.01
722.172	2897.88
722.358	3074
722.545	3084.24
722.732	3071.95
722.919	3127.25
723.106	3008.47
723.293	3065.81
723.48	3053.52
723.667	3069.91
723.853	2983.89
724.04	2985.94
724.227	2949.07
724.414	2998.23
724.6	2875.35
724.787	3063.76
724.974	3014.61
725.161	2992.08
725.347	3018.71
725.534	3057.62
725.72	3168.21
725.907	2910.16
726.094	3055.57
726.28	2875.35
726.467	2951.12
726.653	2975.7
726.84	2961.36
727.027	3084.24
727.213	2969.55
727.4	3086.29
727.586	2875.35
727.773	3008.47
727.959	2990.03
728.145	3000.27
728.332	2987.99
728.518	2987.99
728.705	2994.13
728.891	2938.84
729.077	2926.55
729.264	2922.45
729.45	2963.41
729.636	3002.32
729.823	2985.94
730.009	2885.59
730.195	2904.02
730.382	2965.46
730.568	2959.31
730.754	2971.6
730.94	2912.21
731.126	3024.85
731.313	2897.88
731.499	2922.45
731.685	2830.29
731.871	2990.03
732.057	3043.28
732.243	3030.99
732.429	3016.66
732.615	2951.12
732.801	2912.21
732.987	2914.26
733.173	2914.26
733.359	3071.95
733.545	2928.6
733.731	2901.97
733.917	3035.09
734.103	2936.79
734.289	2850.77
734.475	2848.72
734.661	2957.27
734.847	2977.75
735.033	2979.79
735.219	2873.3
735.404	2879.44
735.59	2994.13
735.776	2944.98
735.962	2834.39
736.148	2881.49
736.333	2869.2
736.519	2854.87
736.705	2916.31
736.89	2766.81
737.076	2807.77
737.262	2891.73
737.447	2746.33
737.633	2772.95
737.819	2781.14
738.004	2922.45
738.19	2838.48
738.375	2707.41
738.561	2818
738.747	2793.43
738.932	2838.48
739.118	2815.96
739.303	2721.75
739.489	2758.61
739.674	2793.43
739.859	2697.17
740.045	2693.08
740.23	2664.41
740.416	2656.22
740.601	2736.09
740.786	2738.13
740.972	2660.31
741.157	2729.94
741.342	2596.82
741.528	2707.41
741.713	2576.34
741.898	2781.14
742.084	2838.48
742.269	2605.02
742.454	2609.11
742.639	2648.02
742.824	2533.34
743.01	2611.16
743.195	2629.59
743.38	2586.58
743.565	2494.43
743.75	2572.25
743.935	2551.77
744.12	2588.63
744.305	2578.39
744.49	2541.53
744.675	2627.54
744.86	2574.3
745.045	2404.32
745.23	2486.23
745.415	2498.52
745.6	2416.6
745.785	2346.97
745.97	2426.84
746.155	2361.31
746.34	2480.09
746.525	2486.23
746.71	2389.98
746.895	2344.92
747.079	2439.13
747.264	2293.72
747.449	2320.35
747.634	2377.69
747.819	2252.77
748.003	2263.01
748.188	2197.47
748.373	2254.81
748.557	2217.95
748.742	2271.2
748.927	2162.65
749.111	2168.8
749.296	2207.71
749.481	2199.52
749.665	2047.97
749.85	2217.95
750.034	2088.93
750.219	2086.88
750.404	2064.35
750.588	1966.05
750.773	2033.63
750.957	2021.35
751.141	2023.39
751.326	2099.17
751.51	2047.97
751.695	1906.66
751.879	2029.54
752.064	2031.58
752.248	1886.18
752.432	1974.24
752.617	2025.44
752.801	1880.04
752.985	1945.57
753.17	1892.32
753.354	1830.88
753.538	1882.08
753.722	1648.61
753.907	1916.9
754.091	1949.67
754.275	1751.01
754.459	1867.75
754.643	1740.77
754.828	1677.29
755.012	1710.05
755.196	1726.44
755.38	1751.01
755.564	1683.43
755.748	1699.81
755.932	1746.92
756.116	1683.43
756.3	1597.42
756.484	1648.61
756.668	1583.08
756.852	1583.08
757.036	1576.94
757.22	1562.6
757.404	1585.13
757.588	1515.5
757.772	1617.9
757.956	1585.13
758.14	1531.88
758.323	1499.11
758.507	1513.45
758.691	1470.44
758.875	1497.07
759.059	1542.12
759.242	1511.4
759.426	1513.45
759.61	1507.3
759.794	1484.78
759.977	1488.87
760.161	1456.11
760.345	1497.07
760.528	1302.51
760.712	1507.3
760.895	1378.28
761.079	1382.38
761.263	1409
761.446	1353.71
761.63	1322.99
761.813	1374.19
761.997	1349.61
762.18	1255.4
762.364	1392.62
762.547	1331.18
762.731	1353.71
762.914	1288.17
763.098	1378.28
763.281	1310.7
763.464	1300.46
763.648	1359.85
763.831	1239.02
764.015	1263.6
764.198	1218.54
764.381	1312.75
764.564	1306.6
764.748	1273.84
764.931	1234.93
765.114	1261.55
765.297	1247.21
765.481	1179.63
765.664	1210.35
765.847	1245.16
766.03	1413.1
766.213	1163.25
766.397	1239.02
766.58	1173.49
766.763	1208.3
766.946	1218.54
767.129	1075.18
767.312	1304.56
767.495	1064.94
767.678	1140.72
767.861	1230.83
768.044	1130.48
768.227	1142.77
768.41	1064.94
768.593	1110
768.776	1101.81
768.959	1173.49
769.142	1167.34
769.324	1126.38
769.507	1126.38
769.69	1077.23
769.873	1101.81
770.056	1150.96
770.239	1122.29
770.421	1081.33
770.604	1105.9
770.787	1013.74
770.97	1081.33
771.152	1107.95
771.335	1097.71
771.518	1026.03
771.7	1071.09
771.883	1128.43
772.066	1064.94
772.248	962.55
772.431	1042.42
772.613	1021.94
772.796	1011.7
772.978	960.5
773.161	1069.04
773.343	1021.94
773.526	935.92
773.708	935.92
773.891	905.2
774.073	993.26
774.256	976.88
774.438	983.02
774.621	919.54
774.803	937.97
774.985	958.45
775.168	915.44
775.35	915.44
775.532	913.39
775.715	923.63
775.897	872.43
776.079	903.15
776.261	907.25
776.444	796.66
776.626	882.67
776.808	829.43
776.99	849.91
777.173	933.87
777.355	833.52
777.537	864.24
777.719	780.28
777.901	751.6
778.083	817.14
778.265	854
778.447	813.04
778.629	802.8
778.811	780.28
778.993	792.56
779.175	743.41
779.357	733.17
779.539	757.75
779.721	794.61
779.903	716.79
780.085	686.07
780.267	727.03
780.449	677.88
780.631	765.94
780.812	757.75
780.994	708.6
781.176	724.98
781.358	692.21
781.54	661.49
781.721	784.37
781.903	720.88
782.085	573.43
782.267	747.51
782.448	675.83
782.63	647.16
782.812	692.21
782.993	677.88
783.175	706.55
783.357	653.3
783.538	583.67
783.72	540.66
783.901	628.73
784.083	604.15
784.264	692.21
784.446	550.9
784.627	616.44
784.809	585.72
784.99	571.38
785.172	571.38
785.353	546.81
785.535	602.1
785.716	628.73
785.897	559.1
786.079	573.43
786.26	503.8
786.441	511.99
786.623	542.71
786.804	567.29
786.985	505.85
787.167	598.01
787.348	532.47
787.529	557.05
787.71	581.62
787.891	503.8
788.073	589.81
788.254	497.66
788.435	524.28
788.616	520.18
788.797	548.86
788.978	446.46
789.159	446.46
789.34	462.84
789.522	499.7
789.703	436.22
789.884	475.13
790.065	421.88
790.246	481.27
790.427	464.89
790.607	446.46
790.788	442.36
790.969	348.15
791.15	378.87
791.331	507.9
791.512	442.36
791.693	407.55
791.874	450.55
792.054	466.94
792.235	456.7
792.416	438.27
792.597	423.93
792.778	475.13
792.958	448.51
793.139	401.4
793.32	434.17
793.5	378.87
793.681	397.31
793.862	374.78
794.042	370.68
794.223	333.82
794.404	397.31
794.584	305.15
794.765	290.81
794.945	380.92
795.126	360.44
795.306	491.51
795.487	407.55
795.667	438.27
795.848	370.68
796.028	417.79
796.209	348.15
796.389	411.64
796.57	378.87
796.75	372.73
796.93	393.21
797.111	346.11
797.291	376.83
797.471	391.16
797.652	360.44
797.832	362.49
798.012	299
798.192	274.43
798.373	313.34
798.553	344.06
798.733	360.44
798.913	333.82
799.093	323.58
799.274	339.96
799.454	323.58
799.634	378.87
799.814	358.39
799.994	335.87
800.174	317.44
800.354	339.96
800.534	274.43
800.714	294.91
800.894	241.66
801.074	237.56
801.254	256
801.434	401.4
801.614	372.73
801.794	294.91
801.974	739.32
802.154	268.28
802.334	303.1
802.514	258.04
802.693	262.14
802.873	258.04
803.053	260.09
803.233	268.28
803.413	288.76
803.592	204.8
803.772	245.76
803.952	262.14
804.131	294.91
804.311	272.38
804.491	272.38
804.67	219.13
804.85	251.9
805.03	274.43
805.209	282.62
805.389	253.95
805.568	262.14
805.748	251.9
805.928	317.44
806.107	253.95
806.287	227.32
806.466	274.43
806.646	221.18
806.825	227.32
807.004	278.52
807.184	229.37
807.363	337.91
807.543	284.67
807.722	262.14
807.901	178.17
808.081	245.76
808.26	210.94
808.439	284.67
808.619	272.38
808.798	210.94
808.977	202.75
809.156	305.15
809.336	194.56
809.515	229.37
809.694	225.28
809.873	280.57
810.052	241.66
810.231	217.08
810.411	264.19
810.59	180.22
810.769	290.81
810.948	204.8
811.127	272.38
811.306	133.12
811.485	241.66
811.664	270.33
811.843	235.52
812.022	229.37
812.201	206.84
812.38	223.23
812.559	149.5
812.737	126.97
812.916	194.56
813.095	221.18
813.274	296.96
813.453	202.75
813.632	215.04
813.811	292.86
813.989	182.27
814.168	137.21
814.347	251.9
814.526	210.94
814.704	135.17
814.883	290.81
815.062	188.41
815.24	167.93
815.419	192.51
815.598	186.37
815.776	210.94
815.955	194.56
816.133	157.69
816.312	100.35
816.49	206.84
816.669	227.32
816.847	145.41
817.026	223.23
817.204	163.84
817.383	157.69
817.561	174.08
817.74	176.13
817.918	169.98
818.097	131.07
818.275	88.06
818.453	184.32
818.632	217.08
818.81	165.89
818.988	194.56
819.167	147.45
819.345	116.73
819.523	184.32
819.701	180.22
819.879	172.03
820.058	186.37
820.236	141.31
820.414	110.59
820.592	124.93
820.77	137.21
820.948	176.13
821.127	202.75
821.305	153.6
821.483	104.45
821.661	133.12
821.839	61.44
822.017	118.78
822.195	129.02
822.373	180.22
822.551	149.5
822.729	133.12
822.907	184.32
823.085	133.12
823.262	110.59
823.44	178.17
823.618	126.97
823.796	167.93
823.974	145.41
824.152	92.16
824.329	135.17
824.507	110.59
824.685	81.92
824.863	106.49
825.04	114.69
825.218	184.32
825.396	163.84
825.574	219.13
825.751	176.13
825.929	159.74
826.107	102.4
826.284	139.26
826.462	124.93
826.639	69.63
826.817	110.59
826.994	167.93
827.172	61.44
827.349	167.93
827.527	116.73
827.704	137.21
827.882	30.72
828.059	110.59
828.237	122.88
828.414	137.21
828.591	96.25
828.769	108.54
828.946	104.45
829.124	159.74
829.301	202.75
829.478	104.45
829.655	143.36
829.833	71.68
830.01	153.6
830.187	135.17
830.364	116.73
830.542	83.97
830.719	96.25
830.896	69.63
831.073	161.79
831.25	131.07
831.427	137.21
831.604	34.82
831.782	30.72
831.959	98.3
832.136	63.49
832.313	122.88
832.49	100.35
832.667	129.02
832.844	69.63
833.021	120.83
833.198	77.82
833.374	112.64
833.551	88.06
833.728	69.63
833.905	102.4
834.082	40.96
834.259	100.35
834.436	92.16
834.612	104.45
834.789	151.55
834.966	22.53
835.143	98.3
835.319	55.3
835.496	151.55
835.673	145.41
835.85	145.41
836.026	45.06
836.203	159.74
836.38	98.3
836.556	73.73
836.733	196.6
836.909	139.26
837.086	98.3
837.262	137.21
837.439	88.06
837.616	30.72
837.792	118.78
837.968	161.79
838.145	94.21
838.321	32.77
838.498	102.4
838.674	145.41
838.851	18.43
839.027	96.25
839.203	118.78
839.38	126.97
839.556	106.49
839.732	112.64
839.909	67.58
840.085	77.82
840.261	65.53
840.437	108.54
840.614	57.34
840.79	157.69
840.966	30.72
841.142	96.25
841.318	153.6
841.494	108.54
841.671	124.93
841.847	79.87
842.023	61.44
842.199	131.07
842.375	94.21
842.551	69.63
842.727	16.38
842.903	100.35
843.079	38.91
843.255	43.01
843.431	32.77
843.607	126.97
843.783	157.69
843.959	90.11
844.134	40.96
844.31	77.82
844.486	83.97
844.662	63.49
844.838	26.62
845.013	32.77
845.189	88.06
845.365	43.01
845.541	77.82
845.716	40.96
845.892	75.77
846.068	-28.67
846.244	-0
846.419	36.86
846.595	75.77
846.77	73.73
846.946	83.97
847.122	47.1
847.297	53.25
847.473	137.21
847.648	108.54
847.824	73.73
847.999	30.72
848.175	122.88
848.35	63.49
848.526	118.78
848.701	88.06
848.876	88.06
849.052	71.68
849.227	-16.38
849.403	96.25
849.578	69.63
849.753	12.29
849.929	110.59
850.104	112.64
850.279	71.68
850.454	81.92
850.63	75.77
850.805	34.82
850.98	47.1
851.155	32.77
851.33	122.88
851.505	40.96
851.681	106.49
851.856	14.34
852.031	81.92
852.206	36.86
852.381	-10.24
852.556	69.63
852.731	79.87
852.906	77.82
853.081	143.36
853.256	-8.19
853.431	102.4
853.606	22.53
853.781	100.35
853.956	12.29
854.131	69.63
854.305	24.58
854.48	114.69
854.655	51.2
854.83	79.87
855.005	63.49
855.18	49.15
855.354	73.73
855.529	73.73
855.704	65.53
855.879	22.53
856.053	79.87
856.228	79.87
856.403	98.3
856.577	75.77
856.752	-0
856.926	-14.34
857.101	4.1
857.276	26.62
857.45	65.53
857.625	34.82
857.799	77.82
857.974	114.69
858.148	-4.1
858.323	30.72
858.497	43.01
858.672	32.77
858.846	65.53
859.02	153.6
859.195	-6.14
859.369	45.06
859.543	96.25
859.718	36.86
859.892	63.49
860.066	59.39
860.241	12.29
860.415	108.54
860.589	28.67
860.763	63.49
860.938	55.3
861.112	-28.67
861.286	8.19
861.46	77.82
861.634	61.44
861.808	45.06
861.982	8.19
862.157	-4.1
862.331	-4.1
862.505	2.05
862.679	45.06
862.853	110.59
863.027	73.73
863.201	8.19
863.375	10.24
863.549	-79.87
863.722	-34.82
863.896	83.97
864.07	45.06
864.244	16.38
864.418	-2.05
864.592	16.38
864.766	-2.05
864.939	69.63
865.113	8.19
865.287	86.01
865.461	34.82
865.634	69.63
865.808	-51.2
865.982	18.43
866.156	65.53
866.329	38.91
866.503	26.62
866.676	47.1
866.85	2.05
867.024	-8.19
867.197	104.45
867.371	73.73
867.544	65.53
867.718	53.25
867.891	-34.82
868.065	65.53
868.238	38.91
868.412	77.82
868.585	86.01
868.759	63.49
868.932	79.87
869.105	75.77
869.279	22.53
869.452	47.1
869.625	53.25
869.799	28.67
869.972	69.63
870.145	-6.14
870.319	53.25
870.492	57.34
870.665	-10.24
870.838	43.01
871.011	49.15
871.185	-4.1
871.358	32.77
871.531	-98.3
871.704	38.91
871.877	22.53
872.05	75.77
872.223	94.21
872.396	53.25
872.569	65.53
872.742	-36.86
872.915	65.53
873.088	20.48
873.261	-28.67
873.434	61.44
873.607	40.96
873.78	38.91
873.953	22.53
874.126	-28.67
874.299	53.25
874.471	14.34
874.644	8.19
874.817	4.1
874.99	94.21
875.163	16.38
875.335	28.67
875.508	22.53
875.681	51.2
875.853	8.19
876.026	16.38
876.199	38.91
876.371	30.72
876.544	18.43
876.717	61.44
876.889	24.58
877.062	83.97
877.234	14.34
877.407	10.24
877.579	10.24
877.752	-45.06
877.924	-20.48
878.097	88.06
878.269	-57.34
878.442	-24.58
878.614	90.11
878.786	14.34
878.959	22.53
879.131	-10.24
879.303	-8.19
879.476	-20.48
879.648	20.48
879.82	30.72
879.993	-43.01
880.165	40.96
880.337	16.38
880.509	-69.63
880.681	30.72
880.854	38.91
881.026	2.05
881.198	86.01
881.37	63.49
881.542	49.15
881.714	16.38
881.886	-14.34
882.058	-32.77
882.23	28.67
882.402	-26.62
882.574	49.15
882.746	36.86
882.918	59.39
883.09	26.62
883.262	-81.92
883.434	40.96
883.606	6.14
883.778	40.96
883.95	30.72
884.122	40.96
884.293	34.82
884.465	14.34
884.637	51.2
884.809	-2.05
884.98	59.39
885.152	20.48
885.324	71.68
885.496	40.96
885.667	77.82
885.839	49.15
886.011	6.14
886.182	4.1
886.354	69.63
886.525	4.1
886.697	22.53
886.869	-12.29
887.04	-10.24
887.212	36.86
887.383	139.26
887.555	-47.1
887.726	-10.24
887.897	77.82
888.069	18.43
888.24	79.87
888.412	106.49
888.583	88.06
888.754	4.1
888.926	38.91
889.097	-4.1
889.268	-32.77
889.44	-4.1
889.611	-0
889.782	28.67
889.953	24.58
890.125	30.72
890.296	-18.43
890.467	90.11
890.638	-32.77
890.809	10.24
890.98	83.97
891.151	61.44
891.323	88.06
891.494	-20.48
891.665	10.24
891.836	-6.14
892.007	57.34
892.178	16.38
892.349	32.77
892.52	-6.14
892.691	8.19
892.862	28.67
893.032	16.38
893.203	-40.96
893.374	-20.48
893.545	40.96
893.716	-14.34
893.887	43.01
894.057	36.86
894.228	-12.29
894.399	-0
894.57	96.25
894.74	14.34
894.911	22.53
895.082	-43.01
895.253	43.01
895.423	57.34
895.594	10.24
895.764	51.2
895.935	-20.48
896.106	-14.34
896.276	22.53
896.447	16.38
896.617	18.43
896.788	34.82
896.958	-20.48
897.129	-38.91
897.299	4.1
897.47	8.19
897.64	-0
897.81	131.07
897.981	88.06
898.151	-47.1
898.322	45.06
898.492	108.54
898.662	-18.43
898.832	-51.2
899.003	53.25
899.173	45.06
899.343	-0
899.513	-20.48
