Data from USB4F104151__79__11-52-45-040.txt Node

Date: Fri Mar 14 11:52:45 EDT 2025
User: louis
Spectrometer: USB4F10415
Trigger mode: 4
Integration Time (sec): 2.000000E-2
Scans to average: 1
Electric dark correction enabled: true
Nonlinearity correction enabled: false
Boxcar width: 0
XAxis mode: Wavelengths
Number of Pixels in Spectrum: 3648
>>>>>Begin Spectral Data<<<<<
178.204	-147.8
178.424	-147.8
178.644	-147.8
178.864	-170.32
179.084	-96.6
179.304	34.47
179.524	-45.4
179.744	-20.82
179.964	106.15
180.184	11.95
180.404	36.52
180.624	-72.02
180.844	-33.11
181.064	-6.49
181.283	1.71
181.503	-10.58
181.723	-2.39
181.943	-59.73
182.163	73.39
182.383	-33.11
182.602	30.38
182.822	32.43
183.042	57
183.262	-4.44
183.482	59.05
183.701	-45.4
183.921	28.33
184.141	-67.92
184.361	-10.58
184.58	5.8
184.8	1.71
185.02	-14.68
185.239	26.28
185.459	20.14
185.679	5.8
185.898	38.57
186.118	26.28
186.338	63.15
186.557	100.01
186.777	11.95
186.997	-37.2
187.216	34.47
187.436	67.24
187.655	30.38
187.875	-26.96
188.095	40.62
188.314	-6.49
188.534	91.82
188.753	13.99
188.973	-6.49
189.192	100.01
189.412	57
189.631	65.19
189.851	22.19
190.07	32.43
190.29	24.23
190.509	77.48
190.729	-31.06
190.948	20.14
191.168	22.19
191.387	34.47
191.607	9.9
191.826	71.34
192.045	5.8
192.265	77.48
192.484	67.24
192.704	40.62
192.923	7.85
193.142	7.85
193.362	11.95
193.581	-16.73
193.8	77.48
194.02	18.09
194.239	-2.39
194.458	30.38
194.678	-37.2
194.897	32.43
195.116	3.75
195.335	20.14
195.555	-4.44
195.774	73.39
195.993	-29.01
196.212	5.8
196.432	9.9
196.651	-0.34
196.87	-49.49
197.089	143.02
197.308	42.67
197.528	-10.58
197.747	-18.77
197.966	7.85
198.185	77.48
198.404	1.71
198.623	16.04
198.842	-20.82
199.062	32.43
199.281	38.57
199.5	77.48
199.719	24.23
199.938	18.09
200.157	-8.53
200.376	13.99
200.595	81.58
200.814	18.09
201.033	-37.2
201.252	44.71
201.471	89.77
201.69	106.15
201.909	54.95
202.128	-0.34
202.347	38.57
202.566	24.23
202.785	22.19
203.004	-22.87
203.223	71.34
203.442	22.19
203.661	34.47
203.879	22.19
204.098	-37.2
204.317	-33.11
204.536	61.1
204.755	34.47
204.974	-10.58
205.193	-20.82
205.411	38.57
205.63	38.57
205.849	42.67
206.068	-51.54
206.287	-90.45
206.505	50.86
206.724	67.24
206.943	57
207.162	-33.11
207.381	34.47
207.599	22.19
207.818	-33.11
208.037	40.62
208.255	-0.34
208.474	32.43
208.693	36.52
208.911	36.52
209.13	16.04
209.349	42.67
209.567	-18.77
209.786	30.38
210.005	38.57
210.223	83.63
210.442	50.86
210.661	75.43
210.879	-35.16
211.098	13.99
211.316	63.15
211.535	18.09
211.753	59.05
211.972	38.57
212.191	-2.39
212.409	67.24
212.628	20.14
212.846	-51.54
213.065	30.38
213.283	83.63
213.502	-45.4
213.72	42.67
213.938	26.28
214.157	-63.83
214.375	7.85
214.594	44.71
214.812	-12.63
215.031	48.81
215.249	81.58
215.467	26.28
215.686	36.52
215.904	-2.39
216.122	44.71
216.341	126.63
216.559	-2.39
216.778	46.76
216.996	18.09
217.214	7.85
217.432	13.99
217.651	3.75
217.869	26.28
218.087	-31.06
218.306	30.38
218.524	-8.53
218.742	46.76
218.96	-29.01
219.179	28.33
219.397	-14.68
219.615	16.04
219.833	44.71
220.051	22.19
220.27	89.77
220.488	59.05
220.706	-47.44
220.924	-37.2
221.142	3.75
221.36	50.86
221.578	63.15
221.796	32.43
222.015	44.71
222.233	75.43
222.451	7.85
222.669	-29.01
222.887	95.91
223.105	28.33
223.323	-12.63
223.541	-16.73
223.759	9.9
223.977	-2.39
224.195	38.57
224.413	-2.39
224.631	34.47
224.849	36.52
225.067	-18.77
225.285	-74.07
225.503	38.57
225.721	-49.49
225.939	11.95
226.157	65.19
226.375	59.05
226.592	18.09
226.81	104.11
227.028	67.24
227.246	108.2
227.464	48.81
227.682	26.28
227.9	65.19
228.117	-37.2
228.335	1.71
228.553	34.47
228.771	-31.06
228.989	50.86
229.206	67.24
229.424	87.72
229.642	48.81
229.86	40.62
230.077	54.95
230.295	48.81
230.513	28.33
230.731	-8.53
230.948	3.75
231.166	52.91
231.384	13.99
231.601	85.67
231.819	13.99
232.037	73.39
232.254	-88.4
232.472	-14.68
232.689	38.57
232.907	108.2
233.125	-6.49
233.342	40.62
233.56	20.14
233.777	36.52
233.995	11.95
234.213	77.48
234.43	18.09
234.648	28.33
234.865	50.86
235.083	77.48
235.3	48.81
235.518	42.67
235.735	1.71
235.953	61.1
236.17	-51.54
236.388	26.28
236.605	-2.39
236.822	143.02
237.04	89.77
237.257	30.38
237.475	-12.63
237.692	26.28
237.909	20.14
238.127	24.23
238.344	20.14
238.562	59.05
238.779	22.19
238.996	7.85
239.214	9.9
239.431	38.57
239.648	5.8
239.865	110.25
240.083	28.33
240.3	7.85
240.517	20.14
240.735	63.15
240.952	3.75
241.169	11.95
241.386	-4.44
241.603	69.29
241.821	-4.44
242.038	75.43
242.255	89.77
242.472	-12.63
242.689	-14.68
242.907	38.57
243.124	67.24
243.341	1.71
243.558	36.52
243.775	-69.97
243.992	-8.53
244.209	34.47
244.426	50.86
244.643	9.9
244.86	32.43
245.078	36.52
245.295	-8.53
245.512	89.77
245.729	-78.16
245.946	-2.39
246.163	11.95
246.38	40.62
246.597	46.76
246.814	-22.87
247.031	1.71
247.248	83.63
247.464	5.8
247.681	13.99
247.898	22.19
248.115	-26.96
248.332	57
248.549	40.62
248.766	57
248.983	11.95
249.2	-10.58
249.417	52.91
249.633	-35.16
249.85	95.91
250.067	40.62
250.284	26.28
250.501	-4.44
250.717	48.81
250.934	-20.82
251.151	-18.77
251.368	57
251.585	30.38
251.801	46.76
252.018	26.28
252.235	73.39
252.451	34.47
252.668	20.14
252.885	97.96
253.102	22.19
253.318	-33.11
253.535	3.75
253.752	16.04
253.968	-2.39
254.185	-76.12
254.401	30.38
254.618	79.53
254.835	48.81
255.051	71.34
255.268	30.38
255.484	38.57
255.701	1.71
255.917	-18.77
256.134	-6.49
256.351	65.19
256.567	-26.96
256.784	48.81
257	42.67
257.217	57
257.433	104.11
257.65	85.67
257.866	26.28
258.082	36.52
258.299	50.86
258.515	165.54
258.732	16.04
258.948	-0.34
259.165	59.05
259.381	-10.58
259.597	67.24
259.814	36.52
260.03	36.52
260.246	36.52
260.463	67.24
260.679	163.5
260.895	7.85
261.112	32.43
261.328	-4.44
261.544	32.43
261.761	85.67
261.977	77.48
262.193	7.85
262.409	134.82
262.626	57
262.842	-4.44
263.058	20.14
263.274	52.91
263.49	5.8
263.707	42.67
263.923	-39.25
264.139	9.9
264.355	1.71
264.571	63.15
264.787	-0.34
265.004	42.67
265.22	104.11
265.436	-41.3
265.652	-4.44
265.868	-10.58
266.084	11.95
266.3	7.85
266.516	11.95
266.732	54.95
266.948	-14.68
267.164	28.33
267.38	59.05
267.596	67.24
267.812	24.23
268.028	48.81
268.244	36.52
268.46	24.23
268.676	-12.63
268.892	54.95
269.108	-35.16
269.324	16.04
269.54	-18.77
269.756	61.1
269.972	-24.92
270.188	114.34
270.403	-29.01
270.619	-12.63
270.835	46.76
271.051	93.87
271.267	-31.06
271.483	69.29
271.698	26.28
271.914	40.62
272.13	73.39
272.346	5.8
272.562	40.62
272.777	65.19
272.993	36.52
273.209	22.19
273.425	-20.82
273.64	-8.53
273.856	20.14
274.072	11.95
274.287	-6.49
274.503	87.72
274.719	-2.39
274.934	28.33
275.15	18.09
275.366	13.99
275.581	57
275.797	52.91
276.012	13.99
276.228	13.99
276.444	48.81
276.659	-12.63
276.875	-20.82
277.09	11.95
277.306	30.38
277.521	75.43
277.737	89.77
277.952	44.71
278.168	-37.2
278.383	42.67
278.599	69.29
278.814	54.95
279.03	57
279.245	-24.92
279.461	73.39
279.676	54.95
279.892	97.96
280.107	-4.44
280.322	40.62
280.538	-14.68
280.753	5.8
280.969	44.71
281.184	34.47
281.399	67.24
281.615	3.75
281.83	50.86
282.045	30.38
282.26	-10.58
282.476	28.33
282.691	-16.73
282.906	63.15
283.122	38.57
283.337	-29.01
283.552	67.24
283.767	-18.77
283.983	61.1
284.198	-2.39
284.413	26.28
284.628	16.04
284.843	28.33
285.058	81.58
285.274	114.34
285.489	-26.96
285.704	44.71
285.919	11.95
286.134	85.67
286.349	50.86
286.564	67.24
286.779	20.14
286.995	-10.58
287.21	22.19
287.425	5.8
287.64	34.47
287.855	13.99
288.07	-12.63
288.285	73.39
288.5	40.62
288.715	-41.3
288.93	-4.44
289.145	48.81
289.36	1.71
289.575	-18.77
289.79	110.25
290.004	30.38
290.219	83.63
290.434	75.43
290.649	-31.06
290.864	54.95
291.079	50.86
291.294	63.15
291.509	116.39
291.724	69.29
291.938	46.76
292.153	42.67
292.368	36.52
292.583	26.28
292.798	13.99
293.012	116.39
293.227	34.47
293.442	-4.44
293.657	44.71
293.871	67.24
294.086	67.24
294.301	128.68
294.516	34.47
294.73	79.53
294.945	36.52
295.16	38.57
295.374	34.47
295.589	28.33
295.804	-22.87
296.018	30.38
296.233	-29.01
296.447	42.67
296.662	-0.34
296.877	57
297.091	48.81
297.306	-12.63
297.52	-2.39
297.735	71.34
297.949	-45.4
298.164	34.47
298.378	24.23
298.593	38.57
298.807	-29.01
299.022	9.9
299.236	-49.49
299.451	-16.73
299.665	65.19
299.88	11.95
300.094	-49.49
300.309	69.29
300.523	-31.06
300.737	-16.73
300.952	16.04
301.166	22.19
301.381	46.76
301.595	30.38
301.809	-22.87
302.024	71.34
302.238	44.71
302.452	100.01
302.667	20.14
302.881	77.48
303.095	26.28
303.309	13.99
303.524	11.95
303.738	34.47
303.952	24.23
304.166	26.28
304.381	-65.88
304.595	69.29
304.809	5.8
305.023	9.9
305.237	9.9
305.452	75.43
305.666	38.57
305.88	36.52
306.094	63.15
306.308	11.95
306.522	73.39
306.736	118.44
306.95	7.85
307.164	32.43
307.379	-49.49
307.593	-18.77
307.807	87.72
308.021	28.33
308.235	-22.87
308.449	50.86
308.663	81.58
308.877	44.71
309.091	46.76
309.305	7.85
309.519	57
309.733	24.23
309.947	-72.02
310.161	-6.49
310.374	32.43
310.588	-2.39
310.802	-59.73
311.016	36.52
311.23	30.38
311.444	-0.34
311.658	67.24
311.872	40.62
312.085	73.39
312.299	46.76
312.513	-2.39
312.727	73.39
312.941	-8.53
313.154	104.11
313.368	-31.06
313.582	57
313.796	30.38
314.009	9.9
314.223	40.62
314.437	38.57
314.651	57
314.864	16.04
315.078	34.47
315.292	81.58
315.505	50.86
315.719	3.75
315.933	-24.92
316.146	77.48
316.36	46.76
316.573	112.3
316.787	32.43
317.001	87.72
317.214	9.9
317.428	18.09
317.641	18.09
317.855	44.71
318.068	36.52
318.282	36.52
318.495	26.28
318.709	-24.92
318.922	11.95
319.136	34.47
319.349	81.58
319.563	48.81
319.776	-6.49
319.99	22.19
320.203	40.62
320.417	46.76
320.63	18.09
320.843	69.29
321.057	52.91
321.27	28.33
321.483	30.38
321.697	67.24
321.91	120.49
322.124	16.04
322.337	65.19
322.55	46.76
322.763	5.8
322.977	24.23
323.19	69.29
323.403	-51.54
323.617	-14.68
323.83	50.86
324.043	44.71
324.256	28.33
324.469	61.1
324.683	61.1
324.896	16.04
325.109	24.23
325.322	-31.06
325.535	-4.44
325.748	26.28
325.962	54.95
326.175	22.19
326.388	16.04
326.601	-16.73
326.814	-0.34
327.027	67.24
327.24	50.86
327.453	-12.63
327.666	57
327.879	67.24
328.092	34.47
328.305	104.11
328.518	30.38
328.731	28.33
328.944	13.99
329.157	11.95
329.37	57
329.583	89.77
329.796	38.57
330.009	5.8
330.222	73.39
330.435	59.05
330.648	38.57
330.861	16.04
331.073	13.99
331.286	77.48
331.499	-4.44
331.712	-47.44
331.925	-18.77
332.138	34.47
332.35	1.71
332.563	40.62
332.776	67.24
332.989	73.39
333.202	67.24
333.414	7.85
333.627	7.85
333.84	-22.87
334.053	26.28
334.265	71.34
334.478	75.43
334.691	54.95
334.903	85.67
335.116	38.57
335.329	100.01
335.541	9.9
335.754	65.19
335.966	-18.77
336.179	9.9
336.392	130.73
336.604	44.71
336.817	59.05
337.029	-0.34
337.242	-2.39
337.454	46.76
337.667	108.2
337.88	-53.59
338.092	30.38
338.305	-39.25
338.517	-63.83
338.729	30.38
338.942	24.23
339.154	24.23
339.367	-29.01
339.579	83.63
339.792	-0.34
340.004	42.67
340.217	-26.96
340.429	34.47
340.641	9.9
340.854	30.38
341.066	24.23
341.278	89.77
341.491	-2.39
341.703	44.71
341.915	-12.63
342.128	59.05
342.34	-14.68
342.552	61.1
342.764	32.43
342.977	110.25
343.189	34.47
343.401	11.95
343.613	32.43
343.826	59.05
344.038	50.86
344.25	-22.87
344.462	38.57
344.674	54.95
344.886	-29.01
345.099	63.15
345.311	83.63
345.523	44.71
345.735	5.8
345.947	13.99
346.159	59.05
346.371	120.49
346.583	-47.44
346.795	18.09
347.007	63.15
347.219	9.9
347.431	77.48
347.643	52.91
347.855	7.85
348.067	61.1
348.279	-18.77
348.491	13.99
348.703	42.67
348.915	24.23
349.127	-26.96
349.339	38.57
349.551	38.57
349.763	79.53
349.975	79.53
350.187	50.86
350.399	48.81
350.61	22.19
350.822	20.14
351.034	28.33
351.246	44.71
351.458	61.1
351.669	52.91
351.881	79.53
352.093	26.28
352.305	65.19
352.517	11.95
352.728	-18.77
352.94	18.09
353.152	48.81
353.363	63.15
353.575	22.19
353.787	7.85
353.999	13.99
354.21	69.29
354.422	87.72
354.633	69.29
354.845	13.99
355.057	44.71
355.268	38.57
355.48	36.52
355.692	7.85
355.903	1.71
356.115	57
356.326	20.14
356.538	91.82
356.749	110.25
356.961	36.52
357.172	69.29
357.384	28.33
357.595	75.43
357.807	54.95
358.018	-41.3
358.23	-37.2
358.441	114.34
358.653	26.28
358.864	34.47
359.075	3.75
359.287	63.15
359.498	-0.34
359.709	61.1
359.921	-4.44
360.132	36.52
360.344	83.63
360.555	-45.4
360.766	108.2
360.977	26.28
361.189	28.33
361.4	77.48
361.611	61.1
361.823	50.86
362.034	126.63
362.245	24.23
362.456	124.58
362.667	67.24
362.879	5.8
363.09	83.63
363.301	26.28
363.512	16.04
363.723	16.04
363.935	42.67
364.146	91.82
364.357	36.52
364.568	79.53
364.779	77.48
364.99	93.87
365.201	-16.73
365.412	9.9
365.623	-12.63
365.834	77.48
366.045	81.58
366.256	30.38
366.467	67.24
366.678	42.67
366.889	26.28
367.1	46.76
367.311	9.9
367.522	7.85
367.733	100.01
367.944	9.9
368.155	3.75
368.366	93.87
368.577	9.9
368.788	22.19
368.999	-12.63
369.209	134.82
369.42	102.06
369.631	52.91
369.842	50.86
370.053	48.81
370.264	73.39
370.474	40.62
370.685	24.23
370.896	-0.34
371.107	93.87
371.317	16.04
371.528	-18.77
371.739	54.95
371.95	22.19
372.16	3.75
372.371	71.34
372.582	3.75
372.792	38.57
373.003	42.67
373.214	44.71
373.424	69.29
373.635	22.19
373.846	100.01
374.056	13.99
374.267	75.43
374.477	28.33
374.688	32.43
374.898	38.57
375.109	46.76
375.319	5.8
375.53	67.24
375.74	22.19
375.951	24.23
376.161	102.06
376.372	112.3
376.582	-33.11
376.793	50.86
377.003	7.85
377.214	50.86
377.424	83.63
377.635	46.76
377.845	79.53
378.055	30.38
378.266	69.29
378.476	77.48
378.686	-0.34
378.897	-14.68
379.107	44.71
379.317	108.2
379.528	-2.39
379.738	161.45
379.948	-12.63
380.158	69.29
380.369	93.87
380.579	89.77
380.789	120.49
380.999	77.48
381.21	112.3
381.42	108.2
381.63	79.53
381.84	13.99
382.05	95.91
382.261	87.72
382.471	73.39
382.681	65.19
382.891	52.91
383.101	75.43
383.311	30.38
383.521	95.91
383.731	30.38
383.941	120.49
384.151	147.11
384.361	81.58
384.571	69.29
384.781	75.43
384.991	-0.34
385.201	52.91
385.411	44.71
385.621	38.57
385.831	-61.78
386.041	79.53
386.251	79.53
386.461	40.62
386.671	77.48
386.881	65.19
387.091	71.34
387.301	63.15
387.511	67.24
387.72	91.82
387.93	-6.49
388.14	59.05
388.35	34.47
388.56	120.49
388.769	93.87
388.979	67.24
389.189	-53.59
389.399	-4.44
389.609	16.04
389.818	95.91
390.028	65.19
390.238	63.15
390.447	77.48
390.657	73.39
390.867	59.05
391.076	-6.49
391.286	30.38
391.496	65.19
391.705	87.72
391.915	95.91
392.125	50.86
392.334	83.63
392.544	18.09
392.753	38.57
392.963	3.75
393.172	91.82
393.382	22.19
393.591	161.45
393.801	63.15
394.01	132.78
394.22	79.53
394.429	97.96
394.639	54.95
394.848	48.81
395.058	54.95
395.267	26.28
395.477	83.63
395.686	63.15
395.895	48.81
396.105	63.15
396.314	73.39
396.524	149.16
396.733	54.95
396.942	128.68
397.152	93.87
397.361	83.63
397.57	13.99
397.78	44.71
397.989	48.81
398.198	118.44
398.407	87.72
398.617	100.01
398.826	77.48
399.035	28.33
399.244	128.68
399.453	44.71
399.663	143.02
399.872	48.81
400.081	104.11
400.29	30.38
400.499	102.06
400.708	112.3
400.917	100.01
401.127	106.15
401.336	122.54
401.545	188.07
401.754	140.97
401.963	81.58
402.172	63.15
402.381	130.73
402.59	110.25
402.799	138.92
403.008	151.21
403.217	151.21
403.426	59.05
403.635	81.58
403.844	69.29
404.053	110.25
404.262	151.21
404.471	136.87
404.68	179.88
404.888	95.91
405.097	102.06
405.306	124.58
405.515	179.88
405.724	183.98
405.933	124.58
406.142	147.11
406.35	157.35
406.559	159.4
406.768	173.74
406.977	136.87
407.185	218.79
407.394	218.79
407.603	157.35
407.812	116.39
408.02	183.98
408.229	204.46
408.438	290.47
408.646	200.36
408.855	315.05
409.064	169.64
409.272	198.31
409.481	220.84
409.69	243.37
409.898	214.7
410.107	218.79
410.315	292.52
410.524	251.56
410.733	308.9
410.941	276.13
411.15	319.14
411.358	274.09
411.567	394.92
411.775	315.05
411.984	331.43
412.192	394.92
412.401	378.53
412.609	407.2
412.818	409.25
413.026	407.2
413.234	485.03
413.443	456.36
413.651	446.12
413.86	458.4
414.068	462.5
414.276	544.42
414.485	550.56
414.693	509.6
414.901	523.94
415.11	558.75
415.318	552.61
415.526	605.86
415.734	614.05
415.943	620.19
416.151	706.21
416.359	659.1
416.567	777.89
416.776	761.5
416.984	714.4
417.192	847.52
417.4	849.57
417.608	814.75
417.817	915.1
418.025	943.77
418.233	1050.27
418.441	900.76
418.649	1011.36
418.857	1033.88
419.065	1115.8
419.273	1115.8
419.481	1095.32
419.689	1150.62
419.897	1296.02
420.105	1298.07
420.313	1216.15
420.521	1320.6
420.729	1341.08
420.937	1357.46
421.145	1375.89
421.353	1556.11
421.561	1635.99
421.769	1611.41
421.977	1744.53
422.185	1623.7
422.393	1795.73
422.601	1914.51
422.809	1914.51
423.017	1922.7
423.224	1883.79
423.432	2041.48
423.64	2059.92
423.848	2354.82
424.056	2107.02
424.263	2342.53
424.471	2381.45
424.679	2395.78
424.887	2627.2
425.094	2582.15
425.302	2786.94
425.51	2698.88
425.718	2737.79
425.925	2829.95
426.133	2942.59
426.341	3143.29
426.548	3194.49
426.756	3362.42
426.964	3296.89
427.171	3573.36
427.379	3597.94
427.586	3626.61
427.794	3708.53
428.001	3915.37
428.209	4105.84
428.417	3982.96
428.624	4308.58
428.832	4384.36
429.039	4284.01
429.247	4394.6
429.454	4632.16
429.662	4965.98
429.869	4767.33
430.076	5097.05
430.284	4767.33
430.491	5209.69
430.699	5404.25
430.906	5527.13
431.114	5490.26
431.321	5699.16
431.528	5852.75
431.736	6121.04
431.943	6407.75
432.15	6229.58
432.358	6417.99
432.565	6485.58
432.772	6620.74
432.979	6848.07
433.187	7102.01
433.394	7208.51
433.601	7683.64
433.808	7581.24
434.016	7376.44
434.223	7773.75
434.43	8506.92
434.637	8037.94
434.844	8646.18
435.052	8853.03
435.259	8789.54
435.466	9020.96
435.673	8912.42
435.88	9369.12
436.087	10051.09
436.294	9928.21
436.501	9766.42
436.708	9860.63
436.915	10276.37
437.122	10833.41
437.329	10737.16
437.537	11130.37
437.743	11470.33
437.95	11122.18
438.157	11853.3
438.364	12082.67
438.571	12189.17
438.778	12193.26
438.985	13483.48
439.192	13110.75
439.399	13336.03
439.606	13020.64
439.813	13563.36
440.02	14390.74
440.227	14042.58
440.433	14147.03
440.64	14396.88
440.847	14482.89
441.054	14800.33
441.261	16049.59
441.467	15728.06
441.674	16045.49
441.881	16713.13
442.088	16686.51
442.294	16377.26
442.501	16690.6
442.708	17241.51
442.914	18103.7
443.121	18652.56
443.328	18386.32
443.534	19131.78
443.741	18857.35
443.948	18898.31
444.154	19922.3
444.361	20053.37
444.568	20079.99
444.774	20153.72
444.981	20176.25
445.187	20931.95
445.394	21722.46
445.6	21572.96
445.807	23481.67
446.013	22750.54
446.22	23162.19
446.426	24157.5
446.633	24421.69
446.839	24673.59
447.046	23848.25
447.252	25306.41
447.459	25140.52
447.665	25208.11
447.871	26494.23
448.078	27598.09
448.284	26344.73
448.491	26828.05
448.697	28163.32
448.903	28515.58
449.11	28728.56
449.316	28171.52
449.522	28730.61
449.728	29394.15
449.935	29471.98
450.141	29879.52
450.347	30321.88
450.553	29322.48
450.76	29471.98
450.966	30739.67
451.172	30397.66
451.378	31407.31
451.584	30743.77
451.791	31376.59
451.997	31450.31
452.203	31907.01
452.409	31937.73
452.615	31556.81
452.821	30522.58
453.027	30231.77
453.233	31859.91
453.44	30440.67
453.646	30842.07
453.852	31177.93
454.058	31481.03
454.264	30377.18
454.47	31341.77
454.676	30756.05
454.882	31632.58
455.088	28949.74
455.294	29347.05
455.5	29947.11
455.705	30414.04
455.911	29127.92
456.117	28474.62
456.323	27892.99
456.529	26598.68
456.735	27831.55
456.941	26932.5
457.147	26570.01
457.352	25617.7
457.558	25535.78
457.764	25500.97
457.97	24999.21
458.176	24712.5
458.381	24202.55
458.587	23393.61
458.793	23520.58
458.999	21964.12
459.204	23725.38
459.41	22900.05
459.616	21718.37
459.821	21648.74
460.027	21265.77
460.233	21077.35
460.438	20030.84
460.644	19918.2
460.85	19305.86
461.055	18918.79
461.261	19144.07
461.466	17505.7
461.672	17085.86
461.878	18288.02
462.083	17135.01
462.289	16776.62
462.494	16549.29
462.7	15904.18
462.905	15478.21
463.111	15891.9
463.316	16309.68
463.522	15750.59
463.727	15826.36
463.932	15701.44
464.138	15521.21
464.343	15422.91
464.549	14912.97
464.754	15467.97
464.959	15408.58
465.165	15103.43
465.37	14908.87
465.575	14390.74
465.781	15025.61
465.986	14966.21
466.191	14544.33
466.397	14099.92
466.602	13399.52
466.807	14001.62
467.012	13766.1
467.218	13762.01
467.423	13456.86
467.628	13884.89
467.833	14331.34
468.038	13897.17
468.244	13458.91
468.449	14101.97
468.654	13374.94
468.859	13446.62
469.064	13204.96
469.269	13110.75
469.474	13094.37
469.679	13422.05
469.885	12893.67
470.09	12826.09
470.295	12951.01
470.5	12811.75
470.705	12887.53
470.91	12688.87
471.115	12299.76
471.32	12447.21
471.525	12201.46
471.73	12183.02
471.935	12060.15
472.139	11873.78
472.344	11845.11
472.549	11734.52
472.754	11666.94
472.959	11574.78
473.164	11302.4
473.369	10896.9
473.574	11427.32
473.778	11329.02
473.983	11032.07
474.188	11109.89
474.393	10491.4
474.598	10860.04
474.802	10755.59
475.007	10565.13
475.212	10626.57
475.417	10389
475.621	10145.3
475.826	10010.13
476.031	10003.99
476.235	9786.9
476.44	10040.85
476.645	9879.06
476.849	9817.62
477.054	9739.8
477.259	9567.77
477.463	9647.64
477.668	9268.77
477.872	9477.66
478.077	9199.13
478.282	9057.82
478.486	8920.61
478.691	8965.67
478.895	9025.06
479.1	8846.88
479.304	8844.84
479.509	8554.02
479.713	8836.64
479.918	8502.82
480.122	8246.83
480.326	8533.54
480.531	8408.62
480.735	8410.67
480.94	8224.3
481.144	8558.12
481.348	8320.56
481.553	8478.25
481.757	8281.64
481.961	8220.21
482.166	8220.21
482.37	8175.15
482.574	8203.82
482.778	8138.29
482.983	8308.27
483.187	8150.57
483.391	8287.79
483.595	8039.98
483.8	8001.07
484.004	8113.71
484.208	8224.3
484.412	8123.95
484.616	8158.77
484.821	8273.45
485.025	8011.31
485.229	8189.49
485.433	8209.97
485.637	8232.49
485.841	7988.78
486.045	8013.36
486.249	8195.63
486.453	7958.07
486.657	8246.83
486.861	8214.06
487.065	7994.93
487.269	7980.59
487.473	7827
487.677	8226.35
487.881	8341.04
488.085	8158.77
488.289	7953.97
488.493	8177.2
488.697	8072.75
488.901	8248.88
489.105	8140.33
489.309	8222.25
489.512	8386.09
489.716	8439.34
489.92	8316.46
490.124	8287.79
490.328	8406.57
490.531	8201.77
490.735	8425
490.939	8451.63
491.143	8248.88
491.346	8353.32
491.55	8427.05
491.754	8517.16
491.958	8488.49
492.161	8572.46
492.365	8767.01
492.569	8472.11
492.772	8525.35
492.976	8824.36
493.18	8664.61
493.383	8840.74
493.587	8783.4
493.79	8789.54
493.994	8961.57
494.197	9012.77
494.401	9109.02
494.605	8865.32
494.808	9190.94
495.012	9322.01
495.215	9225.76
495.419	9365.02
495.622	9248.29
495.825	9580.06
496.029	9547.29
496.232	9842.2
496.436	9641.5
496.639	9872.92
496.843	9838.1
497.046	10110.48
497.249	10225.17
497.453	10094.1
497.656	10329.61
497.859	10266.13
498.063	10630.66
498.266	10864.13
498.469	10618.38
498.673	10694.15
498.876	10993.15
499.079	10905.09
499.282	10886.66
499.485	11322.88
499.689	11427.32
499.892	11513.34
500.095	11449.85
500.298	11863.54
500.501	11703.8
500.705	12178.93
500.908	12123.63
501.111	12410.35
501.314	12428.78
501.517	12453.36
501.72	12758.5
501.923	12531.18
502.126	13120.99
502.329	13407.71
502.532	13321.7
502.735	13413.85
502.938	13338.08
503.141	13565.4
503.344	13706.71
503.547	13856.22
503.75	14251.47
503.953	14482.89
504.156	14544.33
504.359	14685.64
504.562	14622.16
504.765	14910.92
504.968	15361.47
505.17	15312.32
505.373	15287.75
505.576	15760.83
505.779	15861.18
505.982	15840.7
506.185	16121.27
506.387	16467.38
506.59	16520.62
506.793	16772.52
506.996	16498.09
507.198	16870.83
507.401	17165.73
507.604	17286.56
507.807	17638.81
508.009	17593.76
508.212	17855.9
508.415	18290.07
508.617	18396.56
508.82	18337.17
509.022	18283.92
509.225	18926.99
509.428	19039.62
509.63	19199.37
509.833	19236.23
510.035	19760.51
510.238	19746.17
510.44	19893.63
510.643	20426.1
510.845	20467.06
511.048	20505.97
511.25	20678
511.453	21036.39
511.655	21638.5
511.858	21200.23
512.06	21583.2
512.262	21388.64
512.465	21806.43
512.667	22121.82
512.87	22484.31
513.072	22435.16
513.274	22963.53
513.477	22994.25
513.679	23440.71
513.881	23414.09
514.084	23903.55
514.286	24069.44
514.488	24003.9
514.69	24921.39
514.893	24503.6
515.095	24771.89
515.297	25034.03
515.499	25308.46
515.701	25394.47
515.904	25840.93
516.106	26031.39
516.308	26242.33
516.51	26389.78
516.712	26451.22
516.914	26967.31
517.116	27272.46
517.318	27526.41
517.52	27491.59
517.722	27555.08
517.925	28204.28
518.127	28562.68
518.329	28415.23
518.531	28523.77
518.733	29441.26
518.935	29342.95
519.136	29531.37
519.338	29670.63
519.54	29824.23
519.742	30303.45
519.944	30293.21
520.146	31040.72
520.348	30846.16
520.55	31253.71
520.752	31487.18
520.954	32066.75
521.155	31630.54
521.357	31993.03
521.559	32261.31
521.761	32832.69
521.963	32629.94
522.164	32672.95
522.366	33356.97
522.568	33529
522.77	33567.91
522.971	34071.71
523.173	34079.91
523.375	34294.94
523.576	34509.98
523.778	34280.61
523.98	34921.62
524.181	34630.81
524.383	34851.99
524.584	35335.31
524.786	35835.02
524.988	35421.33
525.189	35859.59
525.391	36273.28
525.592	36494.46
525.794	36185.22
525.995	36678.78
526.197	36779.13
526.398	36732.03
526.6	36904.06
526.801	37358.7
527.003	37330.03
527.204	37317.75
527.406	37506.16
527.607	37694.57
527.808	38118.5
528.01	37469.29
528.211	37733.48
528.412	38718.56
528.614	38507.62
528.815	38616.16
529.016	38810.71
529.218	38466.66
529.419	38671.45
529.62	38716.51
529.822	38693.98
530.023	38779.99
530.224	39285.84
530.425	39291.99
530.626	38890.59
530.828	39033.94
531.029	39775.31
531.23	39273.56
531.431	39076.95
531.632	39668.81
531.833	39887.95
532.035	39599.18
532.236	39871.56
532.437	40102.98
532.638	39883.85
532.839	40494.14
533.04	39947.34
533.241	39777.36
533.442	40637.5
533.643	40010.82
533.844	40090.69
534.045	40350.79
534.246	39971.91
534.447	40313.92
534.648	40109.13
534.849	40309.83
535.05	39840.84
535.251	40619.07
535.451	40358.98
535.652	40651.84
535.853	40621.12
536.054	40541.25
536.255	40713.28
536.456	40318.02
536.657	40969.27
536.857	40662.08
537.058	40639.55
537.259	40999.99
537.46	40793.15
537.66	40303.68
537.861	41049.14
538.062	40715.33
538.263	40944.7
538.463	40275.01
538.664	40543.3
538.865	40885.31
539.065	41036.86
539.266	40131.65
539.466	40627.26
539.667	40305.73
539.868	41114.68
540.068	40582.21
540.269	40664.13
540.469	40815.68
540.67	40922.17
540.87	40453.19
541.071	40637.5
541.271	40737.85
541.472	40387.65
541.672	40721.47
541.873	40690.75
542.073	40217.67
542.274	40768.57
542.474	40610.88
542.675	40240.2
542.875	40799.29
543.075	40395.84
543.276	40297.54
543.476	40520.77
543.676	40440.9
543.877	40887.35
544.077	40819.77
544.277	40623.17
544.478	40512.58
544.678	40768.57
544.878	40641.6
545.078	40877.11
545.279	40588.35
545.479	40569.92
545.679	40961.08
545.879	40817.72
546.079	40709.18
546.28	40950.84
546.48	40375.36
546.68	40705.09
546.88	40881.21
547.08	40623.17
547.28	40444.99
547.48	40461.38
547.68	41057.34
547.88	40201.29
548.081	40901.69
548.281	40303.68
548.481	40479.81
548.681	40971.32
548.881	40963.13
549.081	40602.69
549.28	40543.3
549.48	40623.17
549.68	40475.71
549.88	41325.62
550.08	40692.8
550.28	40899.64
550.48	40371.27
550.68	40784.96
550.88	40545.34
551.08	40787
551.279	40608.83
551.479	40240.2
551.679	40885.31
551.879	40430.66
552.079	40358.98
552.278	40490.05
552.478	40500.29
552.678	40371.27
552.878	41145.4
553.077	40383.55
553.277	40244.29
553.477	40954.94
553.676	40500.29
553.876	40545.34
554.076	40238.15
554.275	40174.66
554.475	39951.43
554.674	40369.22
554.874	40383.55
555.074	40078.41
555.273	39953.48
555.473	40666.17
555.672	40109.13
555.872	40158.28
556.071	40361.03
556.271	40410.18
556.47	39842.89
556.67	40119.37
556.869	40209.48
557.068	40002.63
557.268	39615.57
557.467	39955.53
557.667	39998.54
557.866	39976.01
558.065	39715.92
558.265	39738.44
558.464	39615.57
558.663	39615.57
558.863	39234.64
559.062	40350.79
559.261	39175.25
559.461	39844.94
559.66	39048.28
559.859	39197.78
560.058	39095.38
560.258	39404.63
560.457	39390.29
560.656	39359.57
560.855	39197.78
561.054	39566.41
561.253	39046.23
561.453	39267.41
561.652	39287.89
561.851	39556.18
562.05	39046.23
562.249	38634.59
562.448	39169.11
562.647	39101.53
562.846	38829.15
563.045	38888.54
563.244	38251.62
563.443	39064.66
563.642	38311.01
563.841	38521.95
564.04	38589.53
564.239	38841.43
564.438	38087.78
564.637	38540.38
564.836	38394.98
565.035	38059.11
565.234	38345.83
565.432	37948.52
565.631	38151.27
565.83	38044.77
566.029	37598.32
566.228	37549.17
566.427	37610.6
566.625	37422.19
566.824	37416.05
567.023	37653.61
567.222	37067.89
567.42	37567.6
567.619	37457.01
567.818	36902.01
568.016	37194.87
568.215	37602.41
568.414	36916.34
568.612	37497.97
568.811	36820.09
569.01	36867.19
569.208	36349.06
569.407	36932.73
569.605	36236.42
569.804	36340.86
570.002	36367.49
570.201	36666.49
570.4	36412.54
570.598	36041.86
570.797	36203.65
570.995	36240.51
571.193	35982.47
571.392	36048
571.59	35275.92
571.789	35912.84
571.987	35554.44
572.186	35226.77
572.384	35345.55
572.582	35153.04
572.781	35613.84
572.979	35075.22
573.177	35355.79
573.376	35480.72
573.574	35030.16
573.772	34892.95
573.971	34671.77
574.169	34708.63
574.367	34329.76
574.565	35128.47
574.763	34229.41
574.962	34043.04
575.16	34245.79
575.358	34811.03
575.556	33670.31
575.754	34227.36
575.952	33481.9
576.151	34098.34
576.349	33680.55
576.547	33574.06
576.745	33557.67
576.943	33416.36
577.141	33819.81
577.339	33301.68
577.537	33473.71
577.735	33365.17
577.933	33301.68
578.131	33037.49
578.329	33062.07
578.527	32918.71
578.725	32738.49
578.923	33025.2
579.121	32572.6
579.319	32392.38
579.516	32744.63
579.714	32607.42
579.912	31677.64
580.11	32165.06
580.308	32261.31
580.506	32195.78
580.704	31317.2
580.901	32269.5
581.099	32027.84
581.297	31521.99
581.495	31739.08
581.692	31601.86
581.89	31139.02
582.088	31341.77
582.285	31474.89
582.483	31309
582.681	31083.73
582.878	30756.05
583.076	30897.36
583.274	31184.08
583.471	30694.61
583.669	30678.23
583.866	30620.89
584.064	30774.49
584.262	30391.51
584.459	30684.37
584.657	30368.99
584.854	30837.97
585.052	29846.76
585.249	30414.04
585.447	30395.61
585.644	29934.82
585.841	30156
586.039	30188.77
586.236	29603.05
586.434	29588.71
586.631	29519.08
586.828	29420.78
587.026	29519.08
587.223	29416.68
587.42	29132.01
587.618	29189.36
587.815	28648.69
588.012	29193.45
588.21	29068.53
588.407	29269.23
588.604	28392.7
588.801	28501.24
588.999	28720.37
589.196	28574.97
589.393	28683.51
589.59	28169.47
589.787	28398.84
589.984	28071.17
590.182	27911.42
590.379	28390.65
590.576	27997.44
590.773	28183.8
590.97	27845.89
591.167	27997.44
591.364	27084.05
591.561	27696.39
591.758	27182.35
591.955	27180.3
592.152	27381
592.349	27215.12
592.546	27415.82
592.743	27114.76
592.94	26739.99
593.137	27055.37
593.334	27165.96
593.531	26699.03
593.727	26555.67
593.924	26467.61
594.121	26629.4
594.318	26713.36
594.515	25990.43
594.712	26512.66
594.908	26340.63
595.105	26244.38
595.302	26109.21
595.499	26176.8
595.696	25832.74
595.892	25853.22
596.089	25951.52
596.286	25842.98
596.482	25847.07
596.679	25546.02
596.876	25511.21
597.072	25161
597.269	25595.17
597.466	25208.11
597.662	25154.86
597.859	25269.55
598.055	25150.76
598.252	25218.35
598.448	25042.22
598.645	24874.29
598.841	24491.32
599.038	24679.73
599.234	24735.03
599.431	24325.43
599.627	24200.51
599.824	24423.73
600.02	24622.39
600.217	24538.42
600.413	24462.65
600.609	24085.82
600.806	23950.65
601.002	24309.05
601.198	23846.21
601.395	23893.31
601.591	23905.6
601.787	24024.38
601.984	23510.34
602.18	23584.07
602.376	23442.76
602.572	23354.69
602.769	23309.64
602.965	23162.19
603.161	23256.39
603.357	22988.11
603.553	23129.42
603.75	23104.84
603.946	22715.73
604.142	22842.7
604.338	22627.67
604.534	22973.77
604.73	22330.71
604.926	22697.3
605.122	22537.55
605.318	22404.44
605.514	22308.18
605.71	22080.86
605.906	22213.98
606.102	22187.35
606.298	22240.6
606.494	22082.91
606.69	21902.68
606.886	21861.73
607.082	21831.01
607.278	22050.14
607.474	21513.57
607.67	21878.11
607.866	21597.54
608.062	21548.39
608.257	21556.58
608.453	21456.23
608.649	21476.71
608.845	21267.81
609.041	21581.15
609.236	21501.28
609.432	21427.56
609.628	21097.83
609.824	21110.12
610.019	20770.16
610.215	21052.78
610.411	20786.54
610.606	20872.56
610.802	20655.47
610.998	20934
611.193	20979.05
611.389	20546.93
611.584	20430.19
611.78	20583.79
611.976	20620.66
612.171	20442.48
612.367	20688.24
612.562	20366.71
612.758	19993.98
612.953	20098.42
613.149	20499.83
613.344	20204.92
613.539	20446.58
613.735	20196.73
613.93	20532.59
614.126	20252.02
614.321	20422
614.517	19989.88
614.712	19967.35
614.907	19885.44
615.103	19998.07
615.298	19891.58
615.493	19971.45
615.688	19766.65
615.884	20186.49
616.079	19539.33
616.274	19639.68
616.47	19572.1
616.665	19586.43
616.86	19234.18
617.055	19465.6
617.25	19391.87
617.445	19438.98
617.641	18900.36
617.836	19170.69
618.031	19215.75
618.226	19445.12
618.421	18879.88
618.616	19209.61
618.811	18767.24
619.006	18904.46
619.201	18582.93
619.396	18621.84
619.591	18501.01
619.786	18793.87
619.981	18392.47
620.176	18449.81
620.371	18095.51
620.566	18425.23
620.761	18204.05
620.956	18386.32
621.151	17958.3
621.346	18152.85
621.541	17728.92
621.735	18060.7
621.93	17573.28
622.125	17683.87
622.32	17124.77
622.515	17450.4
622.709	17044.9
622.904	17499.55
623.099	17204.64
623.294	17130.92
623.488	17216.93
623.683	16993.7
623.878	16852.39
624.072	16881.07
624.267	16569.77
624.462	16696.75
624.656	16475.57
624.851	16399.79
625.046	16502.19
625.24	16172.47
625.435	16211.38
625.629	16057.78
625.824	16041.4
626.018	15797.69
626.213	15814.07
626.407	15672.76
626.602	15578.56
626.796	15857.08
626.991	15410.62
627.185	15338.94
627.38	15422.91
627.574	15195.59
627.768	15001.03
627.963	15078.85
628.157	15250.88
628.352	15254.98
628.546	14986.69
628.74	14923.21
628.935	14644.68
629.129	14837.19
629.323	14656.97
629.517	14720.46
629.712	14409.17
629.906	14319.06
630.1	13934.04
630.294	14339.54
630.489	14044.63
630.683	14106.07
630.877	13972.95
631.071	14007.76
631.265	13848.02
631.459	13759.96
631.653	13659.61
631.848	13686.23
632.042	13405.66
632.236	13393.37
632.43	13401.57
632.624	13372.89
632.818	13434.33
633.012	13247.97
633.206	13104.61
633.4	13022.69
633.594	12858.85
633.788	13039.08
633.982	12770.79
634.176	12932.58
634.369	12840.42
634.563	12729.83
634.757	12355.05
634.951	12430.83
635.145	12543.47
635.339	12404.21
635.533	12342.77
635.726	12434.92
635.92	12099.06
636.114	12178.93
636.308	12011
636.501	12000.76
636.695	11937.27
636.889	11804.15
637.083	11724.28
637.276	11490.81
637.47	11650.55
637.664	11634.17
637.857	11546.11
638.051	11359.74
638.244	11451.9
638.438	11181.57
638.632	11154.94
638.825	11142.66
639.019	11161.09
639.212	10995.2
639.406	10909.19
639.599	11027.97
639.793	11097.6
639.986	10731.01
640.18	10771.97
640.373	10710.54
640.567	10567.18
640.76	10337.8
640.954	10595.85
641.147	10380.81
641.34	10339.85
641.534	10333.71
641.727	10255.89
641.92	10436.11
642.114	9960.98
642.307	9967.12
642.5	10040.85
642.694	9942.55
642.887	9915.92
643.08	9879.06
643.273	9727.51
643.467	9713.17
643.66	9719.32
643.853	9629.21
644.046	9281.05
644.239	9485.85
644.432	9369.12
644.626	9358.88
644.819	9348.64
645.012	9356.83
645.205	9416.22
645.398	9268.77
645.591	9068.06
645.784	8947.23
645.977	8992.29
646.17	8936.99
646.363	8820.26
646.556	8728.1
646.749	8928.8
646.942	8877.6
647.135	8676.9
647.328	8617.51
647.521	8500.78
647.714	8601.13
647.907	8615.46
648.099	8328.75
648.292	8527.4
648.485	8398.38
648.678	8324.65
648.871	8328.75
649.064	8480.3
649.256	8341.04
649.449	8267.31
649.642	8003.12
649.835	8029.74
650.027	7872.05
650.22	7953.97
650.413	7915.06
650.605	8037.94
650.798	7960.11
650.991	7732.79
651.183	7876.15
651.376	7589.43
651.568	7702.07
651.761	7585.33
651.954	7607.86
652.146	7628.34
652.339	7476.79
652.531	7579.19
652.724	7284.28
652.916	7294.52
653.109	7337.53
653.301	7378.49
653.494	7237.18
653.686	7327.29
653.879	7413.31
654.071	7169.6
654.263	7054.91
654.456	7114.3
654.648	7249.47
654.84	7007.81
655.033	7087.68
655.225	6950.46
655.417	7009.86
655.61	7013.95
655.802	6958.66
655.994	6676.04
656.186	6864.45
656.379	6624.84
656.571	6639.17
656.763	6538.82
656.955	6583.88
657.148	6745.67
657.34	6671.94
657.532	6516.3
657.724	6231.63
657.916	6450.76
658.108	6465.1
658.3	6278.73
658.492	6264.4
658.684	6450.76
658.876	6219.34
659.068	6225.48
659.26	6215.24
659.452	6174.28
659.644	6118.99
659.836	6094.41
660.028	5944.91
660.22	6075.98
660.412	6133.33
660.604	5852.75
660.796	6020.69
660.988	5860.95
661.18	6075.98
661.372	5903.95
661.563	5830.23
661.755	5764.69
661.947	5891.66
662.139	5774.93
662.331	5842.51
662.522	5592.66
662.714	5693.01
662.906	5654.1
663.097	5607
663.289	5600.85
663.481	5480.02
663.673	5592.66
663.864	5351
664.056	5434.97
664.247	5437.02
664.439	5297.75
664.631	5396.06
664.822	5385.82
665.014	5334.62
665.205	5234.27
665.397	5154.4
665.588	5181.02
665.78	5135.96
665.971	5297.75
666.163	5152.35
666.354	5070.43
666.546	5025.37
666.737	5006.94
666.929	5193.31
667.12	5123.68
667.311	5045.85
667.503	4769.38
667.694	4808.29
667.885	4847.2
668.077	4910.69
668.268	4982.37
668.459	4767.33
668.651	4894.3
668.842	4695.65
669.033	4748.9
669.224	4863.58
669.416	4732.51
669.607	4642.4
669.798	4707.94
669.989	4558.44
670.18	4550.25
670.371	4642.4
670.563	4570.72
670.754	4664.93
670.945	4480.61
671.136	4621.92
671.327	4617.83
671.518	4529.77
671.709	4482.66
671.9	4529.77
672.091	4544.1
672.282	4415.08
672.473	4406.89
672.664	4445.8
672.855	4572.77
673.046	4331.11
673.237	4308.58
673.428	4259.43
673.619	4427.37
673.809	4265.58
674	4429.42
674.191	4361.83
674.382	4243.05
674.573	4331.11
674.764	4177.51
674.954	4173.42
675.145	4177.51
675.336	4161.13
675.527	4279.91
675.717	4341.35
675.908	4243.05
676.099	4091.5
676.289	4175.47
676.48	4187.75
676.671	4124.27
676.861	4181.61
677.052	4036.21
677.243	4085.36
677.433	4157.04
677.624	4177.51
677.814	3929.71
678.005	4138.6
678.195	4120.17
678.386	3989.1
678.576	4034.16
678.767	4165.23
678.957	3937.9
679.148	3982.96
679.338	4064.88
679.529	4144.75
679.719	3958.38
679.909	4157.04
680.1	3927.66
680.29	3915.37
680.481	3982.96
680.671	3972.72
680.861	3890.8
681.052	4048.49
681.242	4032.11
681.432	3970.67
681.622	3956.33
681.813	3870.32
682.003	3837.55
682.193	3925.61
682.383	4036.21
682.573	3829.36
682.764	3933.81
682.954	3843.7
683.144	3905.14
683.334	3802.74
683.524	3796.59
683.714	3853.94
683.904	3855.98
684.094	3960.43
684.284	3743.35
684.474	3722.87
684.664	3806.83
684.854	3849.84
685.044	3849.84
685.234	3806.83
685.424	3913.33
685.614	3782.26
685.804	3759.73
685.994	3731.06
686.184	3757.68
686.374	3704.43
686.564	3753.59
686.753	3753.59
686.943	3649.14
687.133	3759.73
687.323	3690.1
687.513	3747.44
687.702	3577.46
687.892	3530.36
688.082	3534.45
688.272	3587.7
688.461	3544.69
688.651	3634.8
688.841	3544.69
689.03	3616.37
689.22	3430.01
689.41	3520.12
689.599	3485.3
689.789	3516.02
689.979	3524.21
690.168	3470.97
690.358	3436.15
690.547	3366.52
690.737	3546.74
690.926	3460.73
691.116	3251.83
691.305	3542.64
691.495	3354.23
691.684	3380.86
691.874	3425.91
692.063	3407.48
692.252	3444.34
692.442	3380.86
692.631	3309.18
692.82	3292.79
693.01	3159.67
693.199	3335.8
693.388	3323.51
693.578	3354.23
693.767	3309.18
693.956	3321.46
694.146	3169.91
694.335	3182.2
694.524	3329.66
694.713	3284.6
694.902	3284.6
695.092	3227.26
695.281	3194.49
695.47	3307.13
695.659	3337.85
695.848	3284.6
696.037	3288.7
696.226	3286.65
696.415	3290.74
696.604	3145.34
696.793	3356.28
696.982	3128.95
697.171	3208.83
697.36	3270.26
697.549	3147.39
697.738	3167.87
697.927	3171.96
698.116	3241.59
698.305	3223.16
698.494	3323.51
698.683	3214.97
698.872	3233.4
699.061	3253.88
699.25	3161.72
699.438	3284.6
699.627	3184.25
699.816	3131
700.005	3167.87
700.193	3180.15
700.382	3155.58
700.571	3141.24
700.76	3106.43
700.948	3139.19
701.137	3055.23
701.326	3145.34
701.514	3094.14
701.703	3178.11
701.892	3200.63
702.08	3171.96
702.269	3208.83
702.457	3122.81
702.646	3122.81
702.834	3124.86
703.023	3063.42
703.212	3028.6
703.4	3206.78
703.589	3133.05
703.777	3120.76
703.965	3022.46
704.154	3063.42
704.342	3032.7
704.531	3044.99
704.719	3108.48
704.907	3143.29
705.096	3006.08
705.284	3081.85
705.472	3171.96
705.661	3042.94
705.849	3059.32
706.037	3059.32
706.226	2987.65
706.414	3190.39
706.602	3131
706.79	3161.72
706.979	2993.79
707.167	3112.57
707.355	3051.13
707.543	3022.46
707.731	2909.82
707.919	3110.52
708.107	2942.59
708.296	2989.69
708.484	2967.17
708.672	2891.39
708.86	3065.47
709.048	2993.79
709.236	2985.6
709.424	3059.32
709.612	2913.92
709.8	2899.58
709.988	2946.69
710.176	2995.84
710.364	2989.69
710.551	2948.73
710.739	2987.65
710.927	3008.12
711.115	2950.78
711.303	3079.8
711.491	3053.18
711.679	2993.79
711.866	2995.84
712.054	3024.51
712.242	2879.1
712.43	2965.12
712.617	2879.1
712.805	2922.11
712.993	3063.42
713.181	2864.77
713.368	2956.93
713.556	3057.28
713.744	2932.35
713.931	3083.9
714.119	2879.1
714.306	2938.49
714.494	2838.14
714.682	2895.49
714.869	2928.25
715.057	2784.9
715.244	2836.1
715.432	2895.49
715.619	3022.46
715.807	2827.9
715.994	2883.2
716.182	2862.72
716.369	2842.24
716.556	2887.29
716.744	2762.37
716.931	2844.29
717.119	2854.53
717.306	2809.47
717.493	2872.96
717.681	2854.53
717.868	2885.25
718.055	2834.05
718.242	2852.48
718.43	2832
718.617	2838.14
718.804	2895.49
718.991	2825.86
719.179	2868.86
719.366	2834.05
719.553	2967.17
719.74	2754.18
719.927	2858.62
720.114	2844.29
720.301	2860.67
720.488	2735.74
720.676	2842.24
720.863	2856.58
721.05	2852.48
721.237	2676.35
721.424	2725.51
721.611	2698.88
721.798	2733.7
721.985	2709.12
722.172	2684.55
722.358	2713.22
722.545	2741.89
722.732	2725.51
722.919	2903.68
723.106	2676.35
723.293	2600.58
723.48	2682.5
723.667	2694.79
723.853	2875.01
724.04	2809.47
724.227	2721.41
724.414	2782.85
724.6	2655.87
724.787	2666.11
724.974	2672.26
725.161	2752.13
725.347	2619.01
725.534	2756.22
725.72	2649.73
725.907	2674.31
726.094	2811.52
726.28	2670.21
726.467	2643.59
726.653	2510.47
726.84	2631.3
727.027	2598.53
727.213	2649.73
727.4	2694.79
727.586	2696.83
727.773	2662.02
727.959	2686.59
728.145	2598.53
728.332	2602.63
728.518	2731.65
728.705	2641.54
728.891	2555.52
729.077	2700.93
729.264	2576
729.45	2580.1
729.636	2623.11
729.823	2682.5
730.009	2590.34
730.195	2602.63
730.382	2596.48
730.568	2477.7
730.754	2672.26
730.94	2676.35
731.126	2514.56
731.313	2541.19
731.499	2512.52
731.685	2578.05
731.871	2625.15
732.057	2688.64
732.243	2602.63
732.429	2526.85
732.615	2520.71
732.801	2504.32
732.987	2483.84
733.173	2422.41
733.359	2549.38
733.545	2561.67
733.731	2463.37
733.917	2516.61
734.103	2576
734.289	2446.98
734.475	2438.79
734.661	2504.32
734.847	2475.65
735.033	2530.95
735.219	2436.74
735.404	2543.24
735.59	2492.04
735.776	2367.11
735.962	2553.48
736.148	2496.13
736.333	2416.26
736.519	2444.93
736.705	2469.51
736.89	2393.73
737.076	2432.65
737.262	2279.05
737.447	2440.84
737.633	2393.73
737.819	2391.69
738.004	2449.03
738.19	2309.77
738.375	2381.45
738.561	2451.08
738.747	2344.58
738.932	2381.45
739.118	2338.44
739.303	2397.83
739.489	2340.49
739.674	2324.1
739.859	2315.91
740.045	2354.82
740.23	2348.68
740.416	2215.56
740.601	2412.17
740.786	2250.38
740.972	2244.23
741.157	2225.8
741.342	2190.99
741.528	2180.75
741.713	2211.46
741.898	2125.45
742.084	2225.8
742.269	2221.7
742.454	2213.51
742.639	2186.89
742.824	2190.99
743.01	2203.27
743.195	2125.45
743.38	2088.59
743.565	2016.91
743.75	2133.64
743.935	2170.51
744.12	2076.3
744.305	2025.1
744.49	2074.25
744.675	2119.31
744.86	2016.91
745.045	2078.35
745.23	2004.62
745.415	2117.26
745.6	2037.39
745.785	2059.92
745.97	1963.66
746.155	1994.38
746.34	2016.91
746.525	2068.11
746.71	2074.25
746.895	1978
747.079	1939.09
747.264	1920.65
747.449	1951.37
747.634	1932.94
747.819	1967.76
748.003	1818.25
748.188	1881.74
748.373	1812.11
748.557	1861.26
748.742	1871.5
748.927	1846.93
749.111	1838.73
749.296	1777.3
749.481	1789.58
749.665	1814.16
749.85	1662.61
750.034	1810.06
750.219	1744.53
750.404	1699.47
750.588	1689.23
750.773	1789.58
750.957	1644.18
751.141	1664.66
751.326	1728.14
751.51	1683.09
751.695	1578.64
751.879	1642.13
752.064	1660.56
752.248	1609.36
752.432	1638.03
752.617	1558.16
752.801	1664.66
752.985	1621.65
753.17	1545.88
753.354	1513.11
753.538	1607.31
753.722	1517.2
753.907	1494.68
754.091	1568.4
754.275	1488.53
754.459	1425.04
754.643	1404.57
754.828	1517.2
755.012	1408.66
755.196	1353.37
755.38	1455.76
755.564	1351.32
755.748	1312.41
755.932	1468.05
756.116	1468.05
756.3	1365.65
756.484	1345.17
756.668	1328.79
756.852	1316.5
757.036	1406.61
757.22	1353.37
757.404	1349.27
757.588	1347.22
757.772	1201.82
757.956	1377.94
758.14	1273.5
758.323	1232.54
758.507	1334.93
758.691	1199.77
758.875	1396.37
759.059	1322.65
759.242	1277.59
759.426	1242.78
759.61	1345.17
759.794	1207.96
759.977	1244.82
760.161	1248.92
760.345	1218.2
760.528	1138.33
760.712	1289.88
760.895	1144.47
761.079	1144.47
761.263	1179.29
761.446	1160.86
761.63	1091.23
761.813	1255.06
761.997	1175.19
762.18	1152.67
762.364	1113.75
762.547	1078.94
762.731	1136.28
762.914	1013.4
763.098	1089.18
763.281	1109.66
763.464	1050.27
763.648	1066.65
763.831	1099.42
764.015	1031.83
764.198	1160.86
764.381	1078.94
764.564	1095.32
764.748	1019.55
764.931	892.57
765.114	1011.36
765.297	1080.99
765.481	1042.07
765.664	1052.31
765.847	1011.36
766.03	947.87
766.213	964.25
766.397	990.88
766.58	1019.55
766.763	1009.31
766.946	1046.17
767.129	972.44
767.312	962.2
767.495	1037.98
767.678	925.34
767.861	1040.03
768.044	927.39
768.227	1003.16
768.41	966.3
768.593	966.3
768.776	941.72
768.959	919.2
769.142	1062.55
769.324	921.24
769.507	904.86
769.69	911
769.873	925.34
770.056	976.54
770.239	966.3
770.421	935.58
770.604	951.96
770.787	911
770.97	902.81
771.152	818.85
771.335	872.09
771.518	847.52
771.7	898.72
771.883	839.33
772.066	880.29
772.248	880.29
772.431	892.57
772.613	845.47
772.796	882.33
772.978	829.09
773.161	814.75
773.343	835.23
773.526	820.89
773.708	853.66
773.891	790.17
774.073	839.33
774.256	853.66
774.438	829.09
774.621	800.41
774.803	730.78
774.985	710.3
775.168	784.03
775.35	771.74
775.532	796.32
775.715	718.5
775.897	730.78
776.079	769.69
776.261	765.6
776.444	695.97
776.626	655.01
776.808	767.65
776.99	736.93
777.173	718.5
777.355	669.34
777.537	689.82
777.719	743.07
777.901	644.77
778.083	661.15
778.265	638.62
778.447	626.34
778.629	655.01
778.811	743.07
778.993	552.61
779.175	640.67
779.357	642.72
779.539	605.86
779.721	601.76
779.903	638.62
780.085	591.52
780.267	638.62
780.449	665.25
780.631	628.39
780.812	655.01
780.994	601.76
781.176	620.19
781.358	521.89
781.54	661.15
781.721	566.95
781.903	624.29
782.085	515.75
782.267	532.13
782.448	523.94
782.63	495.27
782.812	591.52
782.993	556.71
783.175	616.1
783.357	566.95
783.538	548.51
783.72	489.12
783.901	546.47
784.083	468.64
784.264	456.36
784.446	450.21
784.627	519.84
784.809	511.65
784.99	511.65
785.172	458.4
785.353	550.56
785.535	517.79
785.716	458.4
785.897	382.63
786.079	485.03
786.26	460.45
786.441	491.17
786.623	489.12
786.804	425.64
786.985	513.7
787.167	489.12
787.348	331.43
787.529	456.36
787.71	474.79
787.891	370.34
788.073	437.92
788.254	417.44
788.435	302.76
788.616	349.86
788.797	425.64
788.978	382.63
789.159	444.07
789.34	446.12
789.522	390.82
789.703	505.51
789.884	425.64
790.065	317.09
790.246	450.21
790.427	351.91
790.607	403.11
790.788	351.91
790.969	345.77
791.15	413.35
791.331	308.9
791.512	337.57
791.693	288.42
791.874	401.06
792.054	386.72
792.235	339.62
792.416	364.2
792.597	417.44
792.778	382.63
792.958	362.15
793.139	353.96
793.32	399.01
793.5	294.57
793.681	280.23
793.862	362.15
794.042	292.52
794.223	304.81
794.404	339.62
794.584	278.18
794.765	226.98
794.945	276.13
795.126	341.67
795.306	308.9
795.487	298.66
795.667	347.81
795.848	349.86
796.028	288.42
796.209	218.79
796.389	327.33
796.57	321.19
796.75	171.69
796.93	325.29
797.111	302.76
797.291	327.33
797.471	290.47
797.652	204.46
797.832	282.28
798.012	263.85
798.192	245.41
798.373	251.56
798.553	231.08
798.733	331.43
798.913	290.47
799.093	290.47
799.274	315.05
799.454	280.23
799.634	296.61
799.814	245.41
799.994	243.37
800.174	226.98
800.354	247.46
800.534	220.84
800.714	216.74
800.894	241.32
801.074	229.03
801.254	231.08
801.434	243.37
801.614	259.75
801.794	296.61
801.974	661.15
802.154	265.89
802.334	290.47
802.514	196.26
802.693	212.65
802.873	231.08
803.053	261.8
803.233	173.74
803.413	247.46
803.592	183.98
803.772	204.46
803.952	169.64
804.131	153.26
804.311	280.23
804.491	308.9
804.67	210.6
804.85	177.83
805.03	251.56
805.209	186.02
805.389	202.41
805.568	206.5
805.748	198.31
805.928	192.17
806.107	226.98
806.287	188.07
806.466	216.74
806.646	235.18
806.825	245.41
807.004	159.4
807.184	214.7
807.363	224.94
807.543	214.7
807.722	151.21
807.901	190.12
808.081	196.26
808.26	202.41
808.439	229.03
808.619	186.02
808.798	208.55
808.977	190.12
809.156	272.04
809.336	243.37
809.515	249.51
809.694	206.5
809.873	149.16
810.052	206.5
810.231	249.51
810.411	167.59
810.59	145.06
810.769	188.07
810.948	235.18
811.127	179.88
811.306	79.53
811.485	143.02
811.664	151.21
811.843	140.97
812.022	159.4
812.201	120.49
812.38	214.7
812.559	173.74
812.737	218.79
812.916	224.94
813.095	173.74
813.274	153.26
813.453	159.4
813.632	237.22
813.811	173.74
813.989	134.82
814.168	163.5
814.347	138.92
814.526	169.64
814.704	186.02
814.883	159.4
815.062	130.73
815.24	177.83
815.419	140.97
815.598	179.88
815.776	177.83
815.955	175.78
816.133	136.87
816.312	169.64
816.49	79.53
816.669	147.11
816.847	140.97
817.026	161.45
817.204	136.87
817.383	153.26
817.561	173.74
817.74	52.91
817.918	124.58
818.097	190.12
818.275	118.44
818.453	165.54
818.632	190.12
818.81	97.96
818.988	77.48
819.167	40.62
819.345	210.6
819.523	206.5
819.701	95.91
819.879	159.4
820.058	106.15
820.236	138.92
820.414	87.72
820.592	79.53
820.77	108.2
820.948	85.67
821.127	153.26
821.305	149.16
821.483	79.53
821.661	126.63
821.839	112.3
822.017	67.24
822.195	140.97
822.373	202.41
822.551	108.2
822.729	233.13
822.907	93.87
823.085	153.26
823.262	132.78
823.44	89.77
823.618	87.72
823.796	122.54
823.974	165.54
824.152	85.67
824.329	46.76
824.507	52.91
824.685	165.54
824.863	95.91
825.04	97.96
825.218	85.67
825.396	155.3
825.574	136.87
825.751	83.63
825.929	122.54
826.107	54.95
826.284	134.82
826.462	93.87
826.639	83.63
826.817	97.96
826.994	67.24
827.172	126.63
827.349	122.54
827.527	89.77
827.704	61.1
827.882	50.86
828.059	73.39
828.237	61.1
828.414	85.67
828.591	104.11
828.769	100.01
828.946	106.15
829.124	38.57
829.301	85.67
829.478	67.24
829.655	36.52
829.833	97.96
830.01	65.19
830.187	108.2
830.364	151.21
830.542	134.82
830.719	32.43
830.896	54.95
831.073	120.49
831.25	85.67
831.427	63.15
831.604	59.05
831.782	24.23
831.959	132.78
832.136	63.15
832.313	124.58
832.49	-6.49
832.667	52.91
832.844	65.19
833.021	118.44
833.198	54.95
833.374	81.58
833.551	83.63
833.728	11.95
833.905	75.43
834.082	1.71
834.259	1.71
834.436	114.34
834.612	75.43
834.789	126.63
834.966	71.34
835.143	106.15
835.319	22.19
835.496	40.62
835.673	75.43
835.85	97.96
836.026	69.29
836.203	97.96
836.38	79.53
836.556	32.43
836.733	83.63
836.909	75.43
837.086	59.05
837.262	91.82
837.439	67.24
837.616	143.02
837.792	9.9
837.968	-10.58
838.145	-41.3
838.321	57
838.498	112.3
838.674	120.49
838.851	112.3
839.027	128.68
839.203	97.96
839.38	20.14
839.556	-31.06
839.732	34.47
839.909	87.72
840.085	-2.39
840.261	52.91
840.437	83.63
840.614	77.48
840.79	93.87
840.966	-2.39
841.142	102.06
841.318	22.19
841.494	108.2
841.671	50.86
841.847	77.48
842.023	-10.58
842.199	97.96
842.375	81.58
842.551	-29.01
842.727	61.1
842.903	100.01
843.079	124.58
843.255	89.77
843.431	44.71
843.607	106.15
843.783	-8.53
843.959	38.57
844.134	69.29
844.31	24.23
844.486	-4.44
844.662	83.63
844.838	59.05
845.013	81.58
845.189	30.38
845.365	73.39
845.541	3.75
845.716	97.96
845.892	67.24
846.068	46.76
846.244	85.67
846.419	50.86
846.595	-18.77
846.77	20.14
846.946	73.39
847.122	22.19
847.297	34.47
847.473	89.77
847.648	44.71
847.824	50.86
847.999	-2.39
848.175	54.95
848.35	73.39
848.526	106.15
848.701	20.14
848.876	118.44
849.052	73.39
849.227	22.19
849.403	30.38
849.578	20.14
849.753	28.33
849.929	83.63
850.104	-43.35
850.279	65.19
850.454	91.82
850.63	95.91
850.805	61.1
850.98	16.04
851.155	22.19
851.33	59.05
851.505	20.14
851.681	67.24
851.856	-10.58
852.031	18.09
852.206	63.15
852.381	-10.58
852.556	-45.4
852.731	114.34
852.906	7.85
853.081	93.87
853.256	38.57
853.431	16.04
853.606	48.81
853.781	24.23
853.956	63.15
854.131	24.23
854.305	-0.34
854.48	16.04
854.655	22.19
854.83	-29.01
855.005	40.62
855.18	22.19
855.354	-4.44
855.529	110.25
855.704	95.91
855.879	1.71
856.053	46.76
856.228	28.33
856.403	9.9
856.577	91.82
856.752	-51.54
856.926	-37.2
857.101	-2.39
857.276	16.04
857.45	13.99
857.625	65.19
857.799	63.15
857.974	38.57
858.148	36.52
858.323	57
858.497	7.85
858.672	126.63
858.846	20.14
859.02	44.71
859.195	42.67
859.369	20.14
859.543	83.63
859.718	1.71
859.892	30.38
860.066	-76.12
860.241	-14.68
860.415	13.99
860.589	40.62
860.763	54.95
860.938	-0.34
861.112	11.95
861.286	-0.34
861.46	93.87
861.634	36.52
861.808	83.63
861.982	36.52
862.157	11.95
862.331	52.91
862.505	11.95
862.679	5.8
862.853	59.05
863.027	20.14
863.201	48.81
863.375	136.87
863.549	40.62
863.722	3.75
863.896	83.63
864.07	40.62
864.244	11.95
864.418	36.52
864.592	61.1
864.766	85.67
864.939	52.91
865.113	18.09
865.287	65.19
865.461	-26.96
865.634	16.04
865.808	20.14
865.982	59.05
866.156	22.19
866.329	59.05
866.503	44.71
866.676	50.86
866.85	26.28
867.024	-57.68
867.197	30.38
867.371	87.72
867.544	65.19
867.718	48.81
867.891	57
868.065	44.71
868.238	11.95
868.412	67.24
868.585	-20.82
868.759	5.8
868.932	22.19
869.105	30.38
869.279	-8.53
869.452	24.23
869.625	52.91
869.799	3.75
869.972	9.9
870.145	100.01
870.319	44.71
870.492	-31.06
870.665	-31.06
870.838	-16.73
871.011	-37.2
871.185	28.33
871.358	-6.49
871.531	65.19
871.704	3.75
871.877	71.34
872.05	69.29
872.223	1.71
872.396	-29.01
872.569	69.29
872.742	3.75
872.915	24.23
873.088	48.81
873.261	-4.44
873.434	42.67
873.607	3.75
873.78	30.38
873.953	-4.44
874.126	54.95
874.299	50.86
874.471	-69.97
874.644	34.47
874.817	89.77
874.99	16.04
875.163	7.85
875.335	59.05
875.508	3.75
875.681	63.15
875.853	-24.92
876.026	5.8
876.199	11.95
876.371	-31.06
876.544	13.99
876.717	54.95
876.889	44.71
877.062	46.76
877.234	32.43
877.407	-20.82
877.579	-2.39
877.752	71.34
877.924	-14.68
878.097	54.95
878.269	24.23
878.442	-4.44
878.614	-20.82
878.786	13.99
878.959	40.62
879.131	36.52
879.303	-26.96
879.476	18.09
879.648	46.76
879.82	-6.49
879.993	11.95
880.165	52.91
880.337	-65.88
880.509	-4.44
880.681	38.57
880.854	5.8
881.026	1.71
881.198	16.04
881.37	36.52
881.542	120.49
881.714	-0.34
881.886	46.76
882.058	-31.06
882.23	73.39
882.402	7.85
882.574	28.33
882.746	-10.58
882.918	30.38
883.09	-2.39
883.262	65.19
883.434	-31.06
883.606	16.04
883.778	16.04
883.95	97.96
884.122	-49.49
884.293	20.14
884.465	73.39
884.637	32.43
884.809	-2.39
884.98	-22.87
885.152	-4.44
885.324	71.34
885.496	32.43
885.667	-45.4
885.839	-12.63
886.011	3.75
886.182	-0.34
886.354	22.19
886.525	46.76
886.697	5.8
886.869	-16.73
887.04	30.38
887.212	13.99
887.383	67.24
887.555	-20.82
887.726	-26.96
887.897	-4.44
888.069	-22.87
888.24	-14.68
888.412	-10.58
888.583	-10.58
888.754	-26.96
888.926	-37.2
889.097	3.75
889.268	13.99
889.44	24.23
889.611	30.38
889.782	-22.87
889.953	-51.54
890.125	42.67
890.296	-24.92
890.467	24.23
890.638	-35.16
890.809	40.62
890.98	59.05
891.151	-45.4
891.323	26.28
891.494	22.19
891.665	52.91
891.836	46.76
892.007	-51.54
892.178	30.38
892.349	30.38
892.52	-12.63
892.691	20.14
892.862	-96.6
893.032	26.28
893.203	-24.92
893.374	38.57
893.545	26.28
893.716	28.33
893.887	5.8
894.057	34.47
894.228	-8.53
894.399	50.86
894.57	38.57
894.74	44.71
894.911	-16.73
895.082	-67.92
895.253	71.34
895.423	13.99
895.594	22.19
895.764	71.34
895.935	32.43
896.106	13.99
896.276	24.23
896.447	-61.78
896.617	7.85
896.788	-4.44
896.958	13.99
897.129	59.05
897.299	1.71
897.47	34.47
897.64	-55.64
897.81	-41.3
897.981	126.63
898.151	-24.92
898.322	59.05
898.492	26.28
898.662	-84.31
898.832	32.43
899.003	48.81
899.173	-20.82
899.343	102.06
899.513	42.67
