Data from USB4F104151__71__11-52-39-781.txt Node

Date: Fri Mar 14 11:52:39 EDT 2025
User: louis
Spectrometer: USB4F10415
Trigger mode: 4
Integration Time (sec): 2.000000E-2
Scans to average: 1
Electric dark correction enabled: true
Nonlinearity correction enabled: false
Boxcar width: 0
XAxis mode: Wavelengths
Number of Pixels in Spectrum: 3648
>>>>>Begin Spectral Data<<<<<
178.204	-24.75
178.424	-24.75
178.644	-24.75
178.864	-80.04
179.084	-166.06
179.304	-4.27
179.524	61.27
179.744	-26.79
179.964	44.88
180.184	-61.61
180.404	8.02
180.624	-22.7
180.844	10.07
181.064	-8.36
181.283	-8.36
181.503	14.17
181.723	-6.31
181.943	-10.41
182.163	22.36
182.383	-61.61
182.602	51.03
182.822	36.69
183.042	59.22
183.262	12.12
183.482	-4.27
183.701	3.93
183.921	-69.8
184.141	20.31
184.361	-16.55
184.58	-24.75
184.8	83.8
185.02	18.26
185.239	59.22
185.459	-2.22
185.679	-6.31
185.898	1.88
186.118	-26.79
186.338	79.7
186.557	-32.94
186.777	-47.27
186.997	-14.51
187.216	32.6
187.436	-6.31
187.655	10.07
187.875	69.46
188.095	-30.89
188.314	30.55
188.534	48.98
188.753	-28.84
188.973	40.79
189.192	57.17
189.412	51.03
189.631	-8.36
189.851	5.97
190.07	16.21
190.29	-51.37
190.509	-8.36
190.729	-2.22
190.948	-43.18
191.168	59.22
191.387	89.94
191.607	16.21
191.826	61.27
192.045	16.21
192.265	28.5
192.484	40.79
192.704	-49.32
192.923	-24.75
193.142	-0.17
193.362	75.6
193.581	8.02
193.8	51.03
194.02	1.88
194.239	-8.36
194.458	81.75
194.678	51.03
194.897	-4.27
195.116	12.12
195.335	10.07
195.555	102.23
195.774	28.5
195.993	98.13
196.212	-69.8
196.432	40.79
196.651	10.07
196.87	-49.32
197.089	51.03
197.308	10.07
197.528	-8.36
197.747	-53.42
197.966	-63.66
198.185	73.56
198.404	-6.31
198.623	-22.7
198.842	30.55
199.062	-20.65
199.281	36.69
199.5	14.17
199.719	-20.65
199.938	20.31
200.157	102.23
200.376	87.89
200.595	104.28
200.814	-4.27
201.033	-20.65
201.252	-2.22
201.471	-12.46
201.69	65.36
201.909	-12.46
202.128	-0.17
202.347	18.26
202.566	24.4
202.785	34.64
203.004	10.07
203.223	143.19
203.442	26.45
203.661	-2.22
203.879	-22.7
204.098	53.08
204.317	-2.22
204.536	40.79
204.755	-32.94
204.974	53.08
205.193	26.45
205.411	-10.41
205.63	71.51
205.849	14.17
206.068	-20.65
206.287	-10.41
206.505	77.65
206.724	18.26
206.943	-0.17
207.162	83.8
207.381	-18.6
207.599	-24.75
207.818	-14.51
208.037	48.98
208.255	22.36
208.474	1.88
208.693	3.93
208.911	51.03
209.13	34.64
209.349	55.12
209.567	26.45
209.786	12.12
210.005	-6.31
210.223	42.84
210.442	24.4
210.661	28.5
210.879	-47.27
211.098	42.84
211.316	53.08
211.535	40.79
211.753	71.51
211.972	67.41
212.191	3.93
212.409	48.98
212.628	-6.31
212.846	34.64
213.065	51.03
213.283	67.41
213.502	104.28
213.72	8.02
213.938	5.97
214.157	12.12
214.375	-4.27
214.594	44.88
214.812	10.07
215.031	18.26
215.249	-20.65
215.467	51.03
215.686	14.17
215.904	-8.36
216.122	-16.55
216.341	36.69
216.559	30.55
216.778	69.46
216.996	-14.51
217.214	16.21
217.432	32.6
217.651	40.79
217.869	12.12
218.087	-4.27
218.306	-16.55
218.524	10.07
218.742	34.64
218.96	32.6
219.179	-4.27
219.397	8.02
219.615	3.93
219.833	63.32
220.051	3.93
220.27	1.88
220.488	14.17
220.706	75.6
220.924	16.21
221.142	-28.84
221.36	-34.99
221.578	1.88
221.796	63.32
222.015	75.6
222.233	-53.42
222.451	57.17
222.669	-75.95
222.887	3.93
223.105	10.07
223.323	-20.65
223.541	8.02
223.759	42.84
223.977	8.02
224.195	3.93
224.413	67.41
224.631	34.64
224.849	-57.51
225.067	73.56
225.285	38.74
225.503	34.64
225.721	12.12
225.939	53.08
226.157	135
226.375	51.03
226.592	63.32
226.81	69.46
227.028	28.5
227.246	44.88
227.464	18.26
227.682	36.69
227.9	38.74
228.117	-57.51
228.335	40.79
228.553	20.31
228.771	44.88
228.989	65.36
229.206	26.45
229.424	20.31
229.642	16.21
229.86	55.12
230.077	8.02
230.295	77.65
230.513	42.84
230.731	30.55
230.948	26.45
231.166	-32.94
231.384	-4.27
231.601	-12.46
231.819	32.6
232.037	55.12
232.254	28.5
232.472	-18.6
232.689	-18.6
232.907	-34.99
233.125	-6.31
233.342	26.45
233.56	10.07
233.777	3.93
233.995	36.69
234.213	28.5
234.43	42.84
234.648	-0.17
234.865	24.4
235.083	55.12
235.3	38.74
235.518	32.6
235.735	20.31
235.953	20.31
236.17	10.07
236.388	-10.41
236.605	85.84
236.822	-22.7
237.04	-6.31
237.257	28.5
237.475	-37.03
237.692	-0.17
237.909	24.4
238.127	3.93
238.344	79.7
238.562	42.84
238.779	34.64
238.996	-34.99
239.214	-4.27
239.431	20.31
239.648	10.07
239.865	18.26
240.083	-6.31
240.3	24.4
240.517	-0.17
240.735	42.84
240.952	118.61
241.169	81.75
241.386	48.98
241.603	-16.55
241.821	-37.03
242.038	18.26
242.255	24.4
242.472	-59.56
242.689	65.36
242.907	8.02
243.124	98.13
243.341	34.64
243.558	30.55
243.775	-28.84
243.992	32.6
244.209	-88.23
244.426	57.17
244.643	73.56
244.86	-8.36
245.078	77.65
245.295	18.26
245.512	-22.7
245.729	-59.56
245.946	26.45
246.163	20.31
246.38	44.88
246.597	20.31
246.814	32.6
247.031	36.69
247.248	32.6
247.464	110.42
247.681	53.08
247.898	48.98
248.115	-30.89
248.332	-65.71
248.549	-20.65
248.766	-10.41
248.983	38.74
249.2	-16.55
249.417	77.65
249.633	24.4
249.85	-30.89
250.067	-28.84
250.284	57.17
250.501	38.74
250.717	94.04
250.934	20.31
251.151	38.74
251.368	-16.55
251.585	-10.41
251.801	24.4
252.018	-0.17
252.235	55.12
252.451	-16.55
252.668	-28.84
252.885	71.51
253.102	-18.6
253.318	-28.84
253.535	16.21
253.752	-24.75
253.968	-16.55
254.185	-18.6
254.401	-41.13
254.618	3.93
254.835	-8.36
255.051	128.85
255.268	-4.27
255.484	44.88
255.701	26.45
255.917	59.22
256.134	16.21
256.351	-43.18
256.567	12.12
256.784	20.31
257	-4.27
257.217	-0.17
257.433	46.93
257.65	-6.31
257.866	-6.31
258.082	20.31
258.299	40.79
258.515	59.22
258.732	20.31
258.948	22.36
259.165	42.84
259.381	38.74
259.597	61.27
259.814	28.5
260.03	22.36
260.246	24.4
260.463	61.27
260.679	12.12
260.895	-10.41
261.112	71.51
261.328	36.69
261.544	46.93
261.761	30.55
261.977	32.6
262.193	30.55
262.409	77.65
262.626	46.93
262.842	-22.7
263.058	-37.03
263.274	51.03
263.49	32.6
263.707	-4.27
263.923	57.17
264.139	-8.36
264.355	53.08
264.571	98.13
264.787	57.17
265.004	71.51
265.22	16.21
265.436	-4.27
265.652	-2.22
265.868	20.31
266.084	81.75
266.3	-22.7
266.516	-6.31
266.732	77.65
266.948	-4.27
267.164	96.08
267.38	-0.17
267.596	73.56
267.812	57.17
268.028	59.22
268.244	-32.94
268.46	-18.6
268.676	28.5
268.892	14.17
269.108	10.07
269.324	-8.36
269.54	38.74
269.756	61.27
269.972	-28.84
270.188	63.32
270.403	-37.03
270.619	-6.31
270.835	-2.22
271.051	38.74
271.267	1.88
271.483	-6.31
271.698	44.88
271.914	-57.51
272.13	75.6
272.346	83.8
272.562	48.98
272.777	40.79
272.993	42.84
273.209	65.36
273.425	-24.75
273.64	18.26
273.856	16.21
274.072	55.12
274.287	30.55
274.503	22.36
274.719	42.84
274.934	22.36
275.15	20.31
275.366	63.32
275.581	-51.37
275.797	-34.99
276.012	-0.17
276.228	46.93
276.444	-14.51
276.659	-32.94
276.875	-10.41
277.09	55.12
277.306	12.12
277.521	63.32
277.737	32.6
277.952	36.69
278.168	32.6
278.383	73.56
278.599	57.17
278.814	77.65
279.03	12.12
279.245	91.99
279.461	-10.41
279.676	53.08
279.892	-2.22
280.107	-69.8
280.322	55.12
280.538	-53.42
280.753	-8.36
280.969	77.65
281.184	8.02
281.399	55.12
281.615	-16.55
281.83	34.64
282.045	36.69
282.26	-16.55
282.476	42.84
282.691	53.08
282.906	-6.31
283.122	-2.22
283.337	34.64
283.552	63.32
283.767	14.17
283.983	5.97
284.198	20.31
284.413	-2.22
284.628	-32.94
284.843	59.22
285.058	12.12
285.274	24.4
285.489	87.89
285.704	32.6
285.919	104.28
286.134	30.55
286.349	-2.22
286.564	53.08
286.779	53.08
286.995	32.6
287.21	-61.61
287.425	51.03
287.64	63.32
287.855	-34.99
288.07	-26.79
288.285	24.4
288.5	16.21
288.715	85.84
288.93	71.51
289.145	94.04
289.36	96.08
289.575	-69.8
289.79	67.41
290.004	14.17
290.219	24.4
290.434	40.79
290.649	-16.55
290.864	14.17
291.079	12.12
291.294	14.17
291.509	73.56
291.724	40.79
291.938	51.03
292.153	57.17
292.368	-30.89
292.583	-39.08
292.798	16.21
293.012	-18.6
293.227	44.88
293.442	83.8
293.657	-10.41
293.871	-37.03
294.086	-4.27
294.301	-8.36
294.516	38.74
294.73	44.88
294.945	30.55
295.16	-0.17
295.374	-2.22
295.589	77.65
295.804	-10.41
296.018	30.55
296.233	65.36
296.447	53.08
296.662	-26.79
296.877	91.99
297.091	5.97
297.306	69.46
297.52	20.31
297.735	63.32
297.949	40.79
298.164	55.12
298.378	24.4
298.593	-45.23
298.807	34.64
299.022	81.75
299.236	-0.17
299.451	10.07
299.665	-30.89
299.88	51.03
300.094	-6.31
300.309	57.17
300.523	32.6
300.737	73.56
300.952	91.99
301.166	63.32
301.381	-24.75
301.595	1.88
301.809	110.42
302.024	-30.89
302.238	53.08
302.452	-47.27
302.667	10.07
302.881	71.51
303.095	36.69
303.309	-37.03
303.524	30.55
303.738	63.32
303.952	-28.84
304.166	61.27
304.381	81.75
304.595	40.79
304.809	8.02
305.023	40.79
305.237	-71.85
305.452	-37.03
305.666	40.79
305.88	42.84
306.094	59.22
306.308	110.42
306.522	-14.51
306.736	98.13
306.95	44.88
307.164	-4.27
307.379	5.97
307.593	3.93
307.807	-22.7
308.021	110.42
308.235	10.07
308.449	-2.22
308.663	-2.22
308.877	59.22
309.091	-67.75
309.305	-6.31
309.519	22.36
309.733	69.46
309.947	3.93
310.161	85.84
310.374	-18.6
310.588	122.71
310.802	3.93
311.016	-39.08
311.23	34.64
311.444	-65.71
311.658	26.45
311.872	46.93
312.085	53.08
312.299	100.18
312.513	32.6
312.727	73.56
312.941	69.46
313.154	71.51
313.368	87.89
313.582	22.36
313.796	77.65
314.009	59.22
314.223	22.36
314.437	42.84
314.651	42.84
314.864	53.08
315.078	48.98
315.292	32.6
315.505	-26.79
315.719	44.88
315.933	48.98
316.146	94.04
316.36	48.98
316.573	-22.7
316.787	-4.27
317.001	81.75
317.214	24.4
317.428	14.17
317.641	22.36
317.855	71.51
318.068	20.31
318.282	53.08
318.495	79.7
318.709	38.74
318.922	22.36
319.136	8.02
319.349	81.75
319.563	-4.27
319.776	12.12
319.99	16.21
320.203	77.65
320.417	69.46
320.63	24.4
320.843	16.21
321.057	14.17
321.27	24.4
321.483	-4.27
321.697	89.94
321.91	3.93
322.124	5.97
322.337	10.07
322.55	22.36
322.763	22.36
322.977	24.4
323.19	12.12
323.403	32.6
323.617	8.02
323.83	48.98
324.043	22.36
324.256	10.07
324.469	3.93
324.683	24.4
324.896	-63.66
325.109	48.98
325.322	-69.8
325.535	46.93
325.748	34.64
325.962	14.17
326.175	26.45
326.388	-24.75
326.601	96.08
326.814	63.32
327.027	-12.46
327.24	114.52
327.453	-10.41
327.666	81.75
327.879	32.6
328.092	26.45
328.305	20.31
328.518	26.45
328.731	-43.18
328.944	20.31
329.157	-20.65
329.37	-24.75
329.583	81.75
329.796	73.56
330.009	14.17
330.222	18.26
330.435	46.93
330.648	55.12
330.861	3.93
331.073	26.45
331.286	51.03
331.499	61.27
331.712	-18.6
331.925	36.69
332.138	-71.85
332.35	53.08
332.563	-6.31
332.776	3.93
332.989	-32.94
333.202	53.08
333.414	-43.18
333.627	8.02
333.84	69.46
334.053	77.65
334.265	44.88
334.478	-14.51
334.691	18.26
334.903	1.88
335.116	-16.55
335.329	53.08
335.541	87.89
335.754	16.21
335.966	32.6
336.179	63.32
336.392	-22.7
336.604	61.27
336.817	14.17
337.029	53.08
337.242	-8.36
337.454	20.31
337.667	51.03
337.88	30.55
338.092	110.42
338.305	116.56
338.517	24.4
338.729	-28.84
338.942	5.97
339.154	-26.79
339.367	51.03
339.579	46.93
339.792	81.75
340.004	36.69
340.217	48.98
340.429	34.64
340.641	28.5
340.854	48.98
341.066	59.22
341.278	38.74
341.491	51.03
341.703	79.7
341.915	81.75
342.128	96.08
342.34	-26.79
342.552	24.4
342.764	69.46
342.977	24.4
343.189	8.02
343.401	51.03
343.613	5.97
343.826	46.93
344.038	-16.55
344.25	61.27
344.462	-24.75
344.674	48.98
344.886	14.17
345.099	12.12
345.311	61.27
345.523	36.69
345.735	-6.31
345.947	10.07
346.159	8.02
346.371	22.36
346.583	61.27
346.795	59.22
347.007	5.97
347.219	69.46
347.431	16.21
347.643	-14.51
347.855	40.79
348.067	32.6
348.279	-8.36
348.491	48.98
348.703	28.5
348.915	51.03
349.127	-37.03
349.339	-2.22
349.551	71.51
349.763	42.84
349.975	-12.46
350.187	67.41
350.399	85.84
350.61	-57.51
350.822	38.74
351.034	46.93
351.246	-0.17
351.458	-18.6
351.669	20.31
351.881	24.4
352.093	-59.56
352.305	20.31
352.517	24.4
352.728	40.79
352.94	44.88
353.152	20.31
353.363	-41.13
353.575	16.21
353.787	73.56
353.999	-16.55
354.21	-14.51
354.422	-10.41
354.633	-16.55
354.845	65.36
355.057	3.93
355.268	38.74
355.48	40.79
355.692	42.84
355.903	-2.22
356.115	91.99
356.326	-26.79
356.538	8.02
356.749	77.65
356.961	44.88
357.172	71.51
357.384	44.88
357.595	-4.27
357.807	-22.7
358.018	-14.51
358.23	55.12
358.441	77.65
358.653	1.88
358.864	-14.51
359.075	-32.94
359.287	-47.27
359.498	-8.36
359.709	48.98
359.921	22.36
360.132	18.26
360.344	26.45
360.555	34.64
360.766	40.79
360.977	40.79
361.189	83.8
361.4	87.89
361.611	18.26
361.823	57.17
362.034	22.36
362.245	73.56
362.456	-59.56
362.667	42.84
362.879	69.46
363.09	-0.17
363.301	75.6
363.512	-41.13
363.723	57.17
363.935	-12.46
364.146	102.23
364.357	10.07
364.568	-0.17
364.779	89.94
364.99	67.41
365.201	67.41
365.412	-2.22
365.623	46.93
365.834	10.07
366.045	28.5
366.256	46.93
366.467	-6.31
366.678	-32.94
366.889	55.12
367.1	5.97
367.311	87.89
367.522	-51.37
367.733	48.98
367.944	98.13
368.155	69.46
368.366	83.8
368.577	69.46
368.788	-16.55
368.999	46.93
369.209	-61.61
369.42	71.51
369.631	73.56
369.842	-4.27
370.053	77.65
370.264	73.56
370.474	46.93
370.685	-20.65
370.896	40.79
371.107	-55.47
371.317	8.02
371.528	106.32
371.739	83.8
371.95	32.6
372.16	137.04
372.371	-45.23
372.582	59.22
372.792	8.02
373.003	26.45
373.214	24.4
373.424	48.98
373.635	89.94
373.846	81.75
374.056	122.71
374.267	34.64
374.477	65.36
374.688	65.36
374.898	38.74
375.109	79.7
375.319	116.56
375.53	32.6
375.74	24.4
375.951	122.71
376.161	57.17
376.372	53.08
376.582	28.5
376.793	83.8
377.003	53.08
377.214	-10.41
377.424	89.94
377.635	63.32
377.845	16.21
378.055	18.26
378.266	-18.6
378.476	26.45
378.686	85.84
378.897	51.03
379.107	69.46
379.317	48.98
379.528	24.4
379.738	98.13
379.948	48.98
380.158	71.51
380.369	30.55
380.579	57.17
380.789	48.98
380.999	69.46
381.21	22.36
381.42	71.51
381.63	-37.03
381.84	137.04
382.05	14.17
382.261	81.75
382.471	59.22
382.681	65.36
382.891	149.33
383.101	75.6
383.311	46.93
383.521	63.32
383.731	8.02
383.941	157.52
384.151	24.4
384.361	-2.22
384.571	32.6
384.781	87.89
384.991	51.03
385.201	-8.36
385.411	42.84
385.621	65.36
385.831	55.12
386.041	73.56
386.251	18.26
386.461	20.31
386.671	24.4
386.881	61.27
387.091	87.89
387.301	12.12
387.511	12.12
387.72	94.04
387.93	65.36
388.14	44.88
388.35	59.22
388.56	-6.31
388.769	38.74
388.979	71.51
389.189	-4.27
389.399	32.6
389.609	46.93
389.818	1.88
390.028	85.84
390.238	38.74
390.447	-32.94
390.657	81.75
390.867	51.03
391.076	24.4
391.286	44.88
391.496	61.27
391.705	26.45
391.915	40.79
392.125	30.55
392.334	-4.27
392.544	48.98
392.753	69.46
392.963	57.17
393.172	38.74
393.382	-14.51
393.591	79.7
393.801	-32.94
394.01	67.41
394.22	-0.17
394.429	79.7
394.639	1.88
394.848	69.46
395.058	12.12
395.267	63.32
395.477	5.97
395.686	46.93
395.895	3.93
396.105	94.04
396.314	57.17
396.524	32.6
396.733	51.03
396.942	85.84
397.152	16.21
397.361	44.88
397.57	87.89
397.78	-2.22
397.989	59.22
398.198	110.42
398.407	34.64
398.617	67.41
398.826	71.51
399.035	55.12
399.244	10.07
399.453	51.03
399.663	26.45
399.872	118.61
400.081	112.47
400.29	157.52
400.499	24.4
400.708	75.6
400.917	24.4
401.127	48.98
401.336	44.88
401.545	114.52
401.754	69.46
401.963	102.23
402.172	83.8
402.381	120.66
402.59	81.75
402.799	42.84
403.008	155.47
403.217	22.36
403.426	118.61
403.635	94.04
403.844	126.8
404.053	83.8
404.262	30.55
404.471	114.52
404.68	94.04
404.888	143.19
405.097	104.28
405.306	153.43
405.515	81.75
405.724	94.04
405.933	135
406.142	126.8
406.35	110.42
406.559	120.66
406.768	180.05
406.977	59.22
407.185	63.32
407.394	143.19
407.603	71.51
407.812	104.28
408.02	190.29
408.229	139.09
408.438	147.28
408.646	118.61
408.855	130.9
409.064	112.47
409.272	147.28
409.481	178
409.69	128.85
409.898	196.43
410.107	188.24
410.315	266.07
410.524	143.19
410.733	249.68
410.941	182.1
411.15	270.16
411.358	255.83
411.567	331.6
411.775	169.81
411.984	200.53
412.192	329.55
412.401	354.13
412.609	290.64
412.818	321.36
413.026	221.01
413.234	298.83
413.443	296.78
413.651	388.94
413.86	315.22
414.068	339.79
414.276	423.76
414.485	360.27
414.693	401.23
414.901	507.73
415.11	425.81
415.318	446.29
415.526	356.18
415.734	485.2
415.943	507.73
416.151	606.03
416.359	411.47
416.567	534.35
416.776	544.59
416.984	606.03
417.192	663.37
417.4	560.97
417.608	550.73
417.817	585.55
418.025	636.75
418.233	544.59
418.441	706.38
418.649	687.95
418.857	726.86
419.065	796.49
419.273	794.44
419.481	814.92
419.689	862.02
419.897	911.18
420.105	900.94
420.313	929.61
420.521	974.66
420.729	997.19
420.937	989
421.145	997.19
421.353	1058.63
421.561	1081.16
421.769	1183.56
421.977	1206.08
422.185	1187.65
422.393	1320.77
422.601	1351.49
422.809	1351.49
423.017	1341.25
423.224	1398.59
423.432	1453.89
423.64	1449.79
423.848	1558.33
424.056	1509.18
424.263	1697.6
424.471	1687.36
424.679	1746.75
424.887	1820.47
425.094	1871.67
425.302	1810.23
425.51	1986.36
425.718	2029.37
425.925	1974.07
426.133	2103.09
426.341	2172.72
426.548	2529.07
426.756	2283.31
426.964	2305.84
427.171	2424.62
427.379	2393.9
427.586	2557.74
427.794	2670.38
428.001	2758.44
428.209	2645.8
428.417	2815.79
428.624	2961.19
428.832	3122.98
429.039	3030.82
429.247	2920.23
429.454	3362.59
429.662	3479.33
429.869	3274.53
430.076	3485.47
430.284	3464.99
430.491	3684.13
430.699	3944.22
430.906	3800.86
431.114	3804.96
431.321	3983.13
431.528	4054.81
431.736	4304.66
431.943	4390.67
432.15	4450.07
432.358	4521.74
432.565	4630.29
432.772	4765.45
432.979	5084.94
433.187	5134.09
433.394	5084.94
433.601	5426.95
433.808	5330.69
434.016	5240.58
434.223	5564.16
434.43	6035.19
434.637	5748.48
434.844	6065.91
435.052	6315.76
435.259	6170.36
435.466	6307.57
435.673	6203.13
435.88	6594.29
436.087	7016.17
436.294	6973.16
436.501	6582
436.708	6813.42
436.915	7143.14
437.122	7485.16
437.329	7634.66
437.537	7593.7
437.743	7823.07
437.95	7792.35
438.157	8300.25
438.364	8441.56
438.571	8429.27
438.778	8480.47
438.985	9201.35
439.192	9086.67
439.399	9135.82
439.606	9176.78
439.813	9506.5
440.02	10186.43
440.227	9803.46
440.433	9762.5
440.64	10237.63
440.847	10127.03
441.054	10448.57
441.261	11116.2
441.467	10790.58
441.674	11232.94
441.881	11613.86
442.088	11450.02
442.294	11300.52
442.501	11630.24
442.708	12072.61
442.914	12324.51
443.121	12822.16
443.328	12666.52
443.534	13434.5
443.741	13311.63
443.948	13010.57
444.154	13758.08
444.361	13739.65
444.568	13880.96
444.774	14048.89
444.981	14122.62
445.187	14550.65
445.394	15009.39
445.6	14902.9
445.807	16250.46
446.013	15521.38
446.22	15832.68
446.426	16391.77
446.633	16719.45
446.839	17399.37
447.046	16445.02
447.252	17290.83
447.459	17466.95
447.665	17290.83
447.871	18239.04
448.078	18953.78
448.284	18187.84
448.491	18466.36
448.697	19066.42
448.903	19617.32
449.11	19709.48
449.316	19422.76
449.522	19844.65
449.728	20297.25
449.935	20555.29
450.141	20301.34
450.347	20891.16
450.553	20172.32
450.76	20788.76
450.966	21091.86
451.172	20874.77
451.378	21693.96
451.584	21216.79
451.791	21679.63
451.997	21616.14
452.203	22083.08
452.409	22107.65
452.615	22154.76
452.821	20921.88
453.027	20848.15
453.233	21663.24
453.44	21239.31
453.646	21298.7
453.852	21722.63
454.058	21681.67
454.264	20878.87
454.47	21587.47
454.676	21018.13
454.882	21861.9
455.088	19807.78
455.294	19981.86
455.5	20661.79
455.705	20715.03
455.911	20260.38
456.117	19529.26
456.323	19107.38
456.529	18126.4
456.735	18783.8
456.941	18714.17
457.147	18368.06
457.352	17540.68
457.558	17401.42
457.764	17485.39
457.97	16946.77
458.176	16891.48
458.381	16821.84
458.587	16076.38
458.793	16307.8
458.999	15279.72
459.204	16092.77
459.41	15963.75
459.616	14927.47
459.821	14970.48
460.027	14782.07
460.233	14546.55
460.438	13674.12
460.644	13989.5
460.85	13182.6
461.055	13123.21
461.261	12949.14
461.466	12052.13
461.672	11710.11
461.878	12517.01
462.083	11597.48
462.289	11433.64
462.494	11376.3
462.7	10970.8
462.905	10550.96
463.111	10813.1
463.316	10976.94
463.522	10772.14
463.727	10684.08
463.932	10639.03
464.138	10378.93
464.343	10761.91
464.549	10331.83
464.754	10831.54
464.959	10630.84
465.165	10450.61
465.37	10124.99
465.575	9901.76
465.781	10215.1
465.986	10190.52
466.191	9557.7
466.397	9633.47
466.602	9103.05
466.807	9592.51
467.012	9436.87
467.218	9404.1
467.423	9252.55
467.628	9447.11
467.833	9760.45
468.038	9428.68
468.244	9295.56
468.449	9651.91
468.654	9285.32
468.859	9199.3
469.064	9189.07
469.269	8851.15
469.474	8922.83
469.679	9203.4
469.885	8769.23
470.09	8851.15
470.295	8888.01
470.5	8615.63
470.705	8672.98
470.91	8656.59
471.115	8476.37
471.32	8568.53
471.525	8365.78
471.73	8089.31
471.935	8394.45
472.139	7902.94
472.344	8146.65
472.549	8001.24
472.754	8015.58
472.959	7759.58
473.164	7450.34
473.369	7489.25
473.574	7851.74
473.778	7708.38
473.983	7585.51
474.188	7462.63
474.393	7182.06
474.598	7198.44
474.802	7192.3
475.007	7247.59
475.212	7124.71
475.417	7104.23
475.621	7016.17
475.826	7063.27
476.031	6854.38
476.235	6670.06
476.44	6850.28
476.645	6532.85
476.849	6700.78
477.054	6567.67
477.259	6440.69
477.463	6428.4
477.668	6350.58
477.872	6442.74
478.077	6401.78
478.282	6084.34
478.486	6053.62
478.691	6047.48
478.895	6022.91
479.1	5875.45
479.304	6055.67
479.509	5711.61
479.713	6047.48
479.918	5891.84
480.122	5701.37
480.326	5955.32
480.531	5752.57
480.735	5824.25
480.94	5715.71
481.144	5750.53
481.348	5605.12
481.553	5748.48
481.757	5437.19
481.961	5641.98
482.166	5656.32
482.37	5670.65
482.574	5545.73
482.778	5717.76
482.983	5705.47
483.187	5742.33
483.391	5717.76
483.595	5541.63
483.8	5525.25
484.004	5576.45
484.208	5594.88
484.412	5570.3
484.616	5322.5
484.821	5474.05
485.025	5338.88
485.229	5619.46
485.433	5439.23
485.637	5695.23
485.841	5551.87
486.045	5494.53
486.249	5490.43
486.453	5410.56
486.657	5476.1
486.861	5523.2
487.065	5361.41
487.269	5523.2
487.473	5461.76
487.677	5650.18
487.881	5725.95
488.085	5506.82
488.289	5517.06
488.493	5414.66
488.697	5740.29
488.901	5555.97
489.105	5625.6
489.309	5623.55
489.512	5605.12
489.716	5775.1
489.92	5566.21
490.124	5428.99
490.328	5766.91
490.531	5596.93
490.735	5668.61
490.939	5750.53
491.143	5764.86
491.346	5562.11
491.55	5924.6
491.754	5785.34
491.958	5795.58
492.161	5768.96
492.365	5820.16
492.569	5740.29
492.772	5775.1
492.976	5889.79
493.18	5973.75
493.383	6117.11
493.587	6067.96
493.79	6092.54
493.994	6002.43
494.197	6061.82
494.401	6088.44
494.605	6166.26
494.808	6110.97
495.012	6100.73
495.215	6391.54
495.419	6369.01
495.622	6479.6
495.825	6385.4
496.029	6428.4
496.232	6491.89
496.436	6526.71
496.639	6698.74
496.843	6518.51
497.046	6776.56
497.249	6868.72
497.453	6840.04
497.656	6919.92
497.859	6817.52
498.063	7200.49
498.266	7245.54
498.469	7237.35
498.673	7487.2
498.876	7419.62
499.079	7427.81
499.282	7290.6
499.485	7667.42
499.689	7476.96
499.892	7808.73
500.095	7722.72
500.298	8042.2
500.501	7866.08
500.705	8077.02
500.908	8339.16
501.111	8167.13
501.314	8359.64
501.517	8355.54
501.72	8468.18
501.923	8339.16
502.126	8537.81
502.329	8838.86
502.532	8744.66
502.735	8799.95
502.938	9242.31
503.141	8916.69
503.344	9242.31
503.547	9262.79
503.75	9486.02
503.953	9561.8
504.156	9518.79
504.359	9602.75
504.562	9924.29
504.765	10077.88
504.968	9965.25
505.17	10301.11
505.373	10223.29
505.576	10546.87
505.779	10282.68
505.982	10524.34
506.185	10749.62
506.387	10866.35
506.59	10903.21
506.793	11118.25
506.996	10974.89
507.198	11335.34
507.401	11458.21
507.604	11249.32
507.807	11757.22
508.009	11650.72
508.212	11802.27
508.415	11810.47
508.617	12033.69
508.82	12189.34
509.022	12037.79
509.225	12531.35
509.428	12660.37
509.63	12797.59
509.833	12631.7
510.035	13002.38
510.238	12877.46
510.44	13031.05
510.643	13227.66
510.845	13414.02
511.048	13328.01
511.25	13588.1
511.453	13528.71
511.655	13991.55
511.858	13846.15
512.06	14073.47
512.262	14153.34
512.465	14179.96
512.667	14567.03
512.87	14837.36
513.072	14741.11
513.274	15259.24
513.477	15009.39
513.679	15265.39
513.881	15617.64
514.084	15363.69
514.286	15320.68
514.488	15509.1
514.69	15797.86
514.893	15969.89
515.095	16516.7
515.297	16395.87
515.499	16270.94
515.701	16477.79
515.904	16895.57
516.106	16852.56
516.308	17139.28
516.51	17280.59
516.712	17219.15
516.914	17444.43
517.116	17813.06
517.318	17595.98
517.52	17983.04
517.722	17897.03
517.925	18212.42
518.127	18554.43
518.329	18355.77
518.531	18568.76
518.733	18818.61
518.935	19140.15
519.136	19295.79
519.338	19277.36
519.54	19148.34
519.742	19578.41
519.944	20018.72
520.146	20178.47
520.348	20129.31
520.55	20336.16
520.752	20454.94
520.954	20604.44
521.155	20512.28
521.357	20901.4
521.559	21290.51
521.761	21417.49
521.963	21218.83
522.164	21612.04
522.366	21429.77
522.568	21753.35
522.77	21620.24
522.971	22074.88
523.173	21847.56
523.375	22699.51
523.576	22117.89
523.778	22324.74
523.98	22433.28
524.181	22775.29
524.383	22707.71
524.584	22846.97
524.786	22982.13
524.988	23043.57
525.189	23143.92
525.391	23309.81
525.592	23535.09
525.794	23535.09
525.995	23956.97
526.197	23557.61
526.398	23774.7
526.6	23991.78
526.801	24329.7
527.003	24339.94
527.204	24307.17
527.406	24616.41
527.607	24866.27
527.808	24841.69
528.01	24518.11
528.211	24727
528.412	25382.35
528.614	25019.86
528.815	25105.88
529.016	25425.36
529.218	25116.12
529.419	25130.45
529.62	25167.32
529.822	25363.92
530.023	25464.27
530.224	25232.85
530.425	25322.96
530.626	25345.49
530.828	25095.64
531.029	25837
531.23	25441.75
531.431	25527.76
531.632	25658.83
531.833	25554.38
532.035	25722.32
532.236	25597.39
532.437	25834.96
532.638	25980.36
532.839	26224.07
533.04	26269.12
533.241	25951.69
533.442	26080.71
533.643	25996.74
533.844	26430.91
534.045	26047.94
534.246	25779.66
534.447	26078.66
534.648	25871.82
534.849	25949.64
535.05	26090.95
535.251	26305.99
535.451	25990.6
535.652	26420.67
535.853	26394.05
536.054	26410.43
536.255	26676.67
536.456	25976.26
536.657	26836.41
536.857	26152.39
537.058	26113.48
537.259	26168.77
537.46	26514.88
537.66	26269.12
537.861	26621.38
538.062	26443.2
538.263	26392
538.463	26095.05
538.664	26387.91
538.865	26367.43
539.065	26920.38
539.266	26275.27
539.466	26713.53
539.667	26074.57
539.868	26758.59
540.068	26469.83
540.269	26533.31
540.469	26486.21
540.67	26308.04
540.87	26262.98
541.071	26340.8
541.271	26203.59
541.472	26289.6
541.672	26361.28
541.873	26242.5
542.073	25845.19
542.274	26383.81
542.474	26316.23
542.675	26049.99
542.875	26260.93
543.075	26072.52
543.276	25943.5
543.476	26164.68
543.676	26019.27
543.877	26541.5
544.077	26240.45
544.277	26207.69
544.478	26179.01
544.678	26158.53
544.878	26226.12
545.078	26174.92
545.279	26078.66
545.479	26107.33
545.679	26215.88
545.879	26179.01
546.079	25935.31
546.28	26414.53
546.48	25910.73
546.68	26445.25
546.88	26115.53
547.08	26105.29
547.28	26023.37
547.48	25787.85
547.68	26336.71
547.88	25943.5
548.081	26258.88
548.281	26174.92
548.481	26222.02
548.681	26351.04
548.881	26056.14
549.081	26318.28
549.28	26041.8
549.48	26494.4
549.68	26136.01
549.88	26305.99
550.08	26234.31
550.28	26172.87
550.48	26011.08
550.68	26107.33
550.88	26152.39
551.08	26035.66
551.279	26301.89
551.479	26127.81
551.679	26420.67
551.879	26064.33
552.079	26353.09
552.278	26076.62
552.478	25955.79
552.678	26129.86
552.878	26095.05
553.077	26211.78
553.277	25648.59
553.477	25914.83
553.676	25703.89
553.876	25652.69
554.076	25857.48
554.275	25775.56
554.475	25828.81
554.674	26113.48
554.874	26133.96
555.074	25798.09
555.273	25757.13
555.473	25902.54
555.672	25269.72
555.872	25710.03
556.071	25603.53
556.271	25791.95
556.47	25720.27
556.67	25380.31
556.869	25476.56
557.068	25816.52
557.268	25392.59
557.467	25511.38
557.667	25542.1
557.866	25865.67
558.065	25605.58
558.265	25253.33
558.464	25144.79
558.663	25707.98
558.863	24870.36
559.062	25617.87
559.261	24980.95
559.461	25327.06
559.66	25052.63
559.859	25195.99
560.058	24673.76
560.258	25021.91
560.457	25171.41
560.656	25042.39
560.855	24894.94
561.054	24950.23
561.253	24630.75
561.453	24688.09
561.652	25144.79
561.851	25148.89
562.05	24798.68
562.249	24626.65
562.448	24790.49
562.647	24663.52
562.846	24661.47
563.045	24600.03
563.244	24094.18
563.443	24763.87
563.642	24153.57
563.841	24532.45
564.04	24634.85
564.239	24542.69
564.438	24223.2
564.637	24059.37
564.836	24251.88
565.035	24129
565.234	23809.51
565.432	24145.38
565.631	23938.54
565.83	24034.79
566.029	24110.57
566.228	23746.03
566.427	23897.58
566.625	23602.67
566.824	23395.82
567.023	23827.95
567.222	23125.49
567.42	23528.94
567.619	23502.32
567.818	23561.71
568.016	23447.02
568.215	23399.92
568.414	23158.26
568.612	23565.81
568.811	23082.49
569.01	23473.65
569.208	22765.05
569.407	23213.56
569.605	22443.52
569.804	23166.45
570.002	22824.44
570.201	23002.61
570.4	22777.34
570.598	22674.94
570.797	22492.67
570.995	22627.84
571.193	22222.34
571.392	22679.04
571.59	22722.04
571.789	22443.52
571.987	22595.07
572.186	22121.99
572.384	21929.48
572.582	22058.5
572.781	22228.48
572.979	21949.96
573.177	21937.67
573.376	22017.54
573.574	21646.86
573.772	22105.6
573.971	21728.78
574.169	21833.22
574.367	21554.7
574.565	21401.1
574.763	21745.16
574.962	21589.52
575.16	21220.88
575.358	21415.44
575.556	21040.66
575.754	21515.79
575.952	21171.73
576.151	21206.55
576.349	20893.21
576.547	20825.62
576.745	21130.77
576.943	20944.41
577.141	21147.15
577.339	20706.84
577.537	20805.14
577.735	20852.25
577.933	20583.96
578.131	20844.06
578.329	20663.83
578.527	20657.69
578.725	20272.67
578.923	20254.24
579.121	20258.34
579.319	20352.54
579.516	20309.54
579.714	20295.2
579.912	20313.63
580.11	20225.57
580.308	20440.61
580.506	20166.18
580.704	20000.29
580.901	19998.24
581.099	20020.77
581.297	19897.89
581.495	19529.26
581.692	19934.76
581.89	19478.06
582.088	19537.45
582.285	19680.81
582.483	19539.5
582.681	19506.73
582.878	19465.77
583.076	19467.82
583.274	19093.04
583.471	19004.98
583.669	19254.83
583.866	19172.91
584.064	19502.64
584.262	18728.5
584.459	19361.33
584.657	18818.61
584.854	18925.11
585.052	18720.31
585.249	18847.29
585.447	18552.38
585.644	18671.16
585.841	18673.21
586.039	18800.18
586.236	18517.56
586.434	18525.75
586.631	18431.55
586.828	18406.97
587.026	18214.46
587.223	18366.01
587.42	18417.21
587.618	18423.36
587.815	18232.9
588.012	17985.09
588.21	17841.73
588.407	18093.63
588.604	18085.44
588.801	17792.58
588.999	17862.21
589.196	17706.57
589.393	17882.69
589.59	17772.1
589.787	17563.21
589.984	17233.49
590.182	17552.97
590.379	17296.97
590.576	17337.93
590.773	17303.12
590.97	17155.66
591.167	17233.49
591.364	17000.02
591.561	17323.6
591.758	16997.97
591.955	16866.9
592.152	16899.67
592.349	16881.24
592.546	17067.6
592.743	17118.8
592.94	16694.87
593.137	16801.36
593.334	16805.46
593.531	16250.46
593.727	16711.25
593.924	16514.65
594.121	16264.8
594.318	16348.76
594.515	16361.05
594.712	16662.1
594.908	16356.96
595.105	16375.39
595.302	16064.1
595.499	16139.87
595.696	16029.28
595.892	16207.45
596.089	16211.55
596.286	16346.72
596.482	15810.15
596.679	16098.91
596.876	16002.66
597.072	15894.11
597.269	15939.17
597.466	15660.65
597.662	15828.58
597.859	15771.24
598.055	15666.79
598.252	15412.84
598.448	15738.47
598.645	15609.45
598.841	15378.03
599.038	15380.07
599.234	15353.45
599.431	15316.59
599.627	15322.73
599.824	15476.33
600.02	14960.24
600.217	14919.28
600.413	15079.02
600.609	15076.98
600.806	14923.38
601.002	14974.58
601.198	14993.01
601.395	14841.46
601.591	14642.81
601.787	14642.81
601.984	14651
602.18	14640.76
602.376	14597.75
602.572	14519.93
602.769	14495.35
602.965	14222.97
603.161	14583.41
603.357	14632.57
603.553	14411.39
603.75	14290.56
603.946	14040.7
604.142	14530.17
604.338	14098.05
604.534	14132.86
604.73	14001.79
604.926	14155.39
605.122	14032.51
605.318	14046.85
605.514	13721.22
605.71	13774.47
605.906	14085.76
606.102	13594.25
606.298	13895.3
606.494	13747.84
606.69	13715.08
606.886	13596.29
607.082	13573.77
607.278	13805.19
607.474	13358.73
607.67	13641.35
607.866	13215.37
608.062	13717.12
608.257	13465.22
608.453	13547.14
608.649	13348.49
608.845	13151.88
609.041	13362.83
609.236	13358.73
609.432	13078.16
609.628	13205.13
609.824	13141.64
610.019	13008.53
610.215	13094.54
610.411	13094.54
610.606	13115.02
610.802	13024.91
610.998	12922.51
611.193	12959.38
611.389	12959.38
611.584	13022.86
611.78	12768.91
611.976	12820.11
612.171	12773.01
612.367	12764.82
612.562	12721.81
612.758	12789.39
612.953	12582.55
613.149	12707.48
613.344	12582.55
613.539	12854.93
613.735	12680.85
613.93	12596.89
614.126	12500.63
614.321	12801.68
614.517	12596.89
614.712	12512.92
614.907	12431
615.103	12301.98
615.298	12424.86
615.493	12574.36
615.688	12240.54
615.884	12482.2
616.079	12144.28
616.274	12469.91
616.47	12113.56
616.665	12181.15
616.86	12039.84
617.055	12183.2
617.25	12033.69
617.445	12152.48
617.641	11820.7
617.836	12207.77
618.031	11951.77
618.226	12160.67
618.421	11919.01
618.616	11904.67
618.811	11804.32
619.006	11802.27
619.201	11595.43
619.396	11624.1
619.591	11701.92
619.786	11949.73
619.981	11728.55
620.176	11427.49
620.371	11507.37
620.566	11550.37
620.761	11544.23
620.956	11638.44
621.151	11196.07
621.346	11173.55
621.541	11237.03
621.735	11128.49
621.93	10999.47
622.125	11157.16
622.32	10796.72
622.515	10880.69
622.709	10849.97
622.904	10784.43
623.099	10862.26
623.294	10852.02
623.488	10798.77
623.683	10626.74
623.878	10692.27
624.072	10819.25
624.267	10677.94
624.462	10559.16
624.656	10356.41
624.851	10282.68
625.046	10225.34
625.24	10092.22
625.435	10159.8
625.629	10106.56
625.824	10098.36
626.018	10002.11
626.213	9684.67
626.407	9893.57
626.602	9883.33
626.796	9506.5
626.991	9797.31
627.185	9828.03
627.38	9645.76
627.574	9631.43
627.768	9524.93
627.963	9578.18
628.157	9406.15
628.352	9406.15
628.546	9426.63
628.74	9361.09
628.935	9137.87
629.129	9373.38
629.323	8933.07
629.517	9180.87
629.712	9258.7
629.906	8890.06
630.1	8795.86
630.294	8871.63
630.489	8799.95
630.683	8804.05
630.877	8756.94
631.071	8902.35
631.265	8783.57
631.459	8685.26
631.653	8582.87
631.848	8660.69
632.042	8425.17
632.236	8517.33
632.43	8474.32
632.624	8404.69
632.818	8380.12
633.012	8150.74
633.206	8326.87
633.4	8177.37
633.594	8081.11
633.788	8169.18
633.982	8138.46
634.176	8056.54
634.369	7937.76
634.563	7931.61
634.757	7937.76
634.951	8072.92
635.145	7894.75
635.339	7884.51
635.533	7804.64
635.726	7651.04
635.92	7640.8
636.114	7616.23
636.308	7618.27
636.501	7483.11
636.695	7460.58
636.889	7438.05
637.083	7599.84
637.276	7241.45
637.47	7380.71
637.664	7390.95
637.857	7413.48
638.051	7227.11
638.244	7143.14
638.438	7091.95
638.632	7104.23
638.825	7120.62
639.019	7036.65
639.212	6997.74
639.406	6999.79
639.599	6751.98
639.793	6733.55
639.986	6788.85
640.18	6919.92
640.373	6760.17
640.567	6751.98
640.76	6692.59
640.954	6729.45
641.147	6549.23
641.34	6567.67
641.534	6612.72
641.727	6663.92
641.92	6557.43
642.114	6571.76
642.307	6426.36
642.5	6444.79
642.694	6463.22
642.887	6256.37
643.08	6489.84
643.273	6188.79
643.467	6262.52
643.66	6070.01
643.853	6115.06
644.046	6143.74
644.239	6194.93
644.432	5975.8
644.626	5895.93
644.819	5996.28
645.012	5961.47
645.205	6016.76
645.398	5971.71
645.591	5826.3
645.784	5848.83
645.977	5811.96
646.17	5850.88
646.363	5699.33
646.556	5660.41
646.749	5545.73
646.942	5824.25
647.135	5654.27
647.328	5553.92
647.521	5615.36
647.714	5566.21
647.907	5654.27
648.099	5371.65
648.292	5558.02
648.485	5494.53
648.678	5414.66
648.871	5338.88
649.064	5177.09
649.256	5365.51
649.449	5332.74
649.642	5218.05
649.835	5277.44
650.027	5187.33
650.22	5134.09
650.413	5181.19
650.605	5277.44
650.798	5009.16
650.991	4974.35
651.183	5113.61
651.376	5115.66
651.568	5021.45
651.761	5074.7
651.954	4996.87
652.146	4851.47
652.339	5017.35
652.531	4968.2
652.724	4843.28
652.916	4828.94
653.109	4873.99
653.301	4622.09
653.494	4865.8
653.686	4677.39
653.879	4607.76
654.071	4687.63
654.263	4581.14
654.456	4802.32
654.648	4699.92
654.84	4478.74
655.033	4491.02
655.225	4472.59
655.417	4409.11
655.61	4505.36
655.802	4519.7
655.994	4638.48
656.186	4415.25
656.379	4273.94
656.571	4329.24
656.763	4222.74
656.955	4208.41
657.148	4333.33
657.34	4400.91
657.532	4312.85
657.724	4278.04
657.916	4345.62
658.108	4175.64
658.3	4077.34
658.492	4316.95
658.684	4161.3
658.876	4099.86
659.068	4028.18
659.26	4101.91
659.452	4091.67
659.644	4132.63
659.836	4015.9
660.028	4001.56
660.22	3893.02
660.412	3979.03
660.604	3927.83
660.796	3927.83
660.988	4052.76
661.18	3940.12
661.372	3972.89
661.563	3864.35
661.755	3854.11
661.947	3858.2
662.139	3696.41
662.331	3712.8
662.522	3710.75
662.714	3764
662.906	3708.7
663.097	3774.24
663.289	3522.34
663.481	3731.23
663.673	3614.49
663.864	3561.25
664.056	3614.49
664.247	3534.62
664.439	3448.61
664.631	3544.86
664.822	3571.49
665.014	3544.86
665.205	3399.46
665.397	3505.95
665.588	3483.42
665.78	3473.18
665.971	3440.42
666.163	3528.48
666.354	3438.37
666.546	3442.46
666.737	3362.59
666.929	3452.7
667.12	3434.27
667.311	3286.82
667.503	3292.96
667.694	3344.16
667.885	3313.44
668.077	3290.92
668.268	3190.56
668.459	3323.68
668.651	3233.57
668.842	3272.48
669.033	3215.14
669.224	3286.82
669.416	3192.61
669.607	3165.99
669.798	3114.79
669.989	3186.47
670.18	3069.73
670.371	3084.07
670.563	3231.52
670.754	3061.54
670.945	3018.54
671.136	3084.07
671.327	3057.45
671.518	3039.01
671.709	3127.08
671.9	3039.01
672.091	3139.37
672.282	3030.82
672.473	3071.78
672.664	2909.99
672.855	3051.3
673.046	2936.62
673.237	2957.1
673.428	3096.36
673.619	2987.82
673.809	2950.95
674	2948.9
674.191	2948.9
674.382	2862.89
674.573	2795.31
674.764	2885.42
674.954	3012.39
675.145	2778.92
675.336	2783.02
675.527	2817.83
675.717	2742.06
675.908	2758.44
676.099	2801.45
676.289	2955.05
676.48	2826.03
676.671	2750.25
676.861	2727.72
677.052	2723.63
677.243	2758.44
677.433	2807.59
677.624	2752.3
677.814	2756.4
678.005	2821.93
678.195	2737.96
678.386	2727.72
678.576	2713.39
678.767	2703.15
678.957	2811.69
679.148	2660.14
679.338	2627.37
679.529	2746.16
679.719	2699.05
679.909	2756.4
680.1	2559.79
680.29	2651.95
680.481	2670.38
680.671	2576.17
680.861	2617.13
681.052	2713.39
681.242	2651.95
681.432	2709.29
681.622	2586.41
681.813	2615.09
682.003	2553.65
682.193	2551.6
682.383	2604.85
682.573	2647.85
682.764	2645.8
682.954	2635.57
683.144	2705.2
683.334	2578.22
683.524	2584.37
683.714	2488.11
683.904	2629.42
684.094	2610.99
684.284	2641.71
684.474	2465.58
684.664	2621.23
684.854	2623.28
685.044	2567.98
685.234	2465.58
685.424	2582.32
685.614	2506.54
685.804	2541.36
685.994	2418.48
686.184	2514.73
686.374	2502.45
686.564	2565.93
686.753	2561.84
686.943	2451.25
687.133	2432.82
687.323	2455.34
687.513	2352.95
687.702	2359.09
687.892	2367.28
688.082	2449.2
688.272	2400.05
688.461	2443.06
688.651	2498.35
688.841	2410.29
689.03	2254.64
689.22	2344.75
689.41	2391.86
689.599	2307.89
689.789	2303.79
689.979	2266.93
690.168	2311.99
690.358	2207.54
690.547	2209.59
690.737	2299.7
690.926	2154.29
691.116	2252.59
691.305	2309.94
691.495	2279.22
691.684	2209.59
691.874	2152.24
692.063	2250.55
692.252	2195.25
692.442	2234.16
692.631	2002.74
692.82	2150.2
693.01	2103.09
693.199	1980.22
693.388	2203.44
693.578	2137.91
693.767	2113.33
693.956	2064.18
694.146	2121.52
694.335	2025.27
694.524	2033.46
694.713	2150.2
694.902	2086.71
695.092	1988.41
695.281	1879.86
695.47	2012.98
695.659	1967.93
695.848	2023.22
696.037	2072.37
696.226	2076.47
696.415	2010.93
696.604	1969.98
696.793	2004.79
696.982	2023.22
697.171	2023.22
697.36	2068.28
697.549	1916.73
697.738	1988.41
697.927	1929.02
698.116	1924.92
698.305	2033.46
698.494	1949.5
698.683	1982.26
698.872	1941.3
699.061	1992.5
699.25	1908.54
699.438	1914.68
699.627	1924.92
699.816	1961.78
700.005	2004.79
700.193	1967.93
700.382	1937.21
700.571	1879.86
700.76	1955.64
700.948	2017.08
701.137	1994.55
701.326	1869.62
701.514	1929.02
701.703	1949.5
701.892	2064.18
702.08	1959.74
702.269	1947.45
702.457	1976.12
702.646	1994.55
702.834	1797.95
703.023	1900.34
703.212	1920.82
703.4	1918.78
703.589	1838.91
703.777	1900.34
703.965	1799.99
704.154	1879.86
704.342	1879.86
704.531	1961.78
704.719	1898.3
704.907	1892.15
705.096	1908.54
705.284	1867.58
705.472	2008.89
705.661	1894.2
705.849	1900.34
706.037	1890.1
706.226	1990.45
706.414	1867.58
706.602	1838.91
706.79	2019.13
706.979	1926.97
707.167	1969.98
707.355	1849.15
707.543	1918.78
707.731	2041.65
707.919	1896.25
708.107	1849.15
708.296	1953.59
708.484	1875.77
708.672	1777.47
708.86	1832.76
709.048	1840.95
709.236	1859.38
709.424	1984.31
709.612	1832.76
709.8	1851.19
709.988	1894.2
710.176	1986.36
710.364	1859.38
710.551	1898.3
710.739	1955.64
710.927	1867.58
711.115	1888.06
711.303	1896.25
711.491	1871.67
711.679	1931.06
711.866	1994.55
712.054	1929.02
712.242	1851.19
712.43	1890.1
712.617	1929.02
712.805	2041.65
712.993	2008.89
713.181	1963.83
713.368	2000.69
713.556	1849.15
713.744	1935.16
713.931	1779.51
714.119	1847.1
714.306	1855.29
714.494	1951.54
714.682	1869.62
714.869	1840.95
715.057	1920.82
715.244	1982.26
715.432	1986.36
715.619	1902.39
715.807	2004.79
715.994	2000.69
716.182	1945.4
716.369	1969.98
716.556	1902.39
716.744	1867.58
716.931	1861.43
717.119	1933.11
717.306	1945.4
717.493	1963.83
717.681	1945.4
717.868	1916.73
718.055	2012.98
718.242	1883.96
718.43	1931.06
718.617	1883.96
718.804	1955.64
718.991	1902.39
719.179	1957.69
719.366	1879.86
719.553	1916.73
719.74	1914.68
719.927	1908.54
720.114	1814.33
720.301	1916.73
720.488	1816.38
720.676	1914.68
720.863	1820.47
721.05	1929.02
721.237	2051.89
721.424	1795.9
721.611	1916.73
721.798	1820.47
721.985	1896.25
722.172	1916.73
722.358	1955.64
722.545	1914.68
722.732	1861.43
722.919	1949.5
723.106	1890.1
723.293	1851.19
723.48	1984.31
723.667	1861.43
723.853	1914.68
724.04	1963.83
724.227	1931.06
724.414	1838.91
724.6	1967.93
724.787	1881.91
724.974	1890.1
725.161	1957.69
725.347	1945.4
725.534	1951.54
725.72	1992.5
725.907	1986.36
726.094	1998.65
726.28	1916.73
726.467	1845.05
726.653	1929.02
726.84	1976.12
727.027	1924.92
727.213	1879.86
727.4	2019.13
727.586	1838.91
727.773	1779.51
727.959	1871.67
728.145	2004.79
728.332	1898.3
728.518	1904.44
728.705	1892.15
728.891	1898.3
729.077	1857.34
729.264	1914.68
729.45	1898.3
729.636	1877.82
729.823	1922.87
730.009	1980.22
730.195	1974.07
730.382	1914.68
730.568	1818.43
730.754	1943.35
730.94	1959.74
731.126	1949.5
731.313	1951.54
731.499	1840.95
731.685	1902.39
731.871	1963.83
732.057	1912.63
732.243	1879.86
732.429	1875.77
732.615	1873.72
732.801	1918.78
732.987	1863.48
733.173	1955.64
733.359	1814.33
733.545	1920.82
733.731	1828.67
733.917	2045.75
734.103	1898.3
734.289	1990.45
734.475	1828.67
734.661	2002.74
734.847	1861.43
735.033	1992.5
735.219	1845.05
735.404	1773.37
735.59	1904.44
735.776	1820.47
735.962	1986.36
736.148	1771.32
736.333	1867.58
736.519	1924.92
736.705	1881.91
736.89	1834.81
737.076	1896.25
737.262	1824.57
737.447	1832.76
737.633	1824.57
737.819	1845.05
738.004	1779.51
738.19	1888.06
738.375	1777.47
738.561	1933.11
738.747	1787.71
738.932	1826.62
739.118	1834.81
739.303	1822.52
739.489	1771.32
739.674	1783.61
739.859	1847.1
740.045	1748.79
740.23	1736.51
740.416	1820.47
740.601	1720.12
740.786	1806.14
740.972	1771.32
741.157	1730.36
741.342	1742.65
741.528	1662.78
741.713	1711.93
741.898	1658.68
742.084	1756.99
742.269	1767.23
742.454	1763.13
742.639	1689.4
742.824	1720.12
743.01	1638.2
743.195	1668.92
743.38	1642.3
743.565	1681.21
743.75	1644.35
743.935	1677.12
744.12	1761.08
744.305	1533.76
744.49	1707.84
744.675	1603.39
744.86	1677.12
745.045	1564.48
745.23	1630.01
745.415	1673.02
745.6	1525.57
745.785	1595.2
745.97	1630.01
746.155	1541.95
746.34	1541.95
746.525	1494.85
746.71	1603.39
746.895	1376.06
747.079	1429.31
747.264	1449.79
747.449	1417.02
747.634	1623.87
747.819	1509.18
748.003	1439.55
748.188	1468.22
748.373	1494.85
748.557	1519.42
748.742	1523.52
748.927	1449.79
749.111	1419.07
749.296	1425.22
749.481	1357.63
749.665	1388.35
749.85	1324.87
750.034	1468.22
750.219	1419.07
750.404	1367.87
750.588	1382.21
750.773	1300.29
750.957	1269.57
751.141	1292.1
751.326	1308.48
751.51	1328.96
751.695	1244.99
751.879	1244.99
752.064	1222.47
752.248	1371.97
752.432	1269.57
752.617	1265.47
752.801	1183.56
752.985	1306.43
753.17	1253.19
753.354	1259.33
753.538	1216.32
753.722	1220.42
753.907	1220.42
754.091	1130.31
754.275	1142.6
754.459	1077.06
754.643	1230.66
754.828	1161.03
755.012	1206.08
755.196	1089.35
755.38	1132.36
755.564	1138.5
755.748	1124.16
755.932	1050.44
756.116	1095.49
756.3	1097.54
756.484	1070.92
756.668	1025.86
756.852	1060.68
757.036	1050.44
757.22	1050.44
757.404	1044.29
757.588	1032.01
757.772	980.81
757.956	1046.34
758.14	978.76
758.323	1015.62
758.507	1027.91
758.691	968.52
758.875	1044.29
759.059	984.9
759.242	1007.43
759.426	986.95
759.61	927.56
759.794	945.99
759.977	1007.43
760.161	1091.4
760.345	896.84
760.528	954.18
760.712	952.13
760.895	909.13
761.079	880.46
761.263	950.09
761.446	878.41
761.63	1001.29
761.813	925.51
761.997	970.57
762.18	892.74
762.364	896.84
762.547	937.8
762.731	835.4
762.914	894.79
763.098	857.93
763.281	905.03
763.464	917.32
763.648	835.4
763.831	933.7
764.015	780.11
764.198	763.72
764.381	833.35
764.564	788.3
764.748	773.96
764.931	833.35
765.114	802.63
765.297	802.63
765.481	776.01
765.664	685.9
765.847	778.06
766.03	765.77
766.213	778.06
766.397	706.38
766.58	788.3
766.763	839.5
766.946	743.24
767.129	788.3
767.312	796.49
767.495	784.2
767.678	739.15
767.861	792.39
768.044	767.82
768.227	827.21
768.41	804.68
768.593	778.06
768.776	753.48
768.959	765.77
769.142	728.91
769.324	679.75
769.507	708.43
769.69	751.43
769.873	741.19
770.056	712.52
770.239	685.9
770.421	739.15
770.604	665.42
770.787	671.56
770.97	708.43
771.152	689.99
771.335	669.52
771.518	677.71
771.7	735.05
771.883	651.08
772.066	679.75
772.248	653.13
772.431	696.14
772.613	642.89
772.796	610.12
772.978	608.08
773.161	698.19
773.343	587.6
773.526	646.99
773.708	597.84
773.891	622.41
774.073	603.98
774.256	532.3
774.438	661.32
774.621	675.66
774.803	601.93
774.985	540.49
775.168	606.03
775.35	599.88
775.532	599.88
775.715	593.74
775.897	573.26
776.079	458.57
776.261	663.37
776.444	528.21
776.626	563.02
776.808	585.55
776.99	548.68
777.173	585.55
777.355	550.73
777.537	556.88
777.719	616.27
777.901	474.96
778.083	524.11
778.265	466.77
778.447	538.45
778.629	477.01
778.811	538.45
778.993	544.59
779.175	505.68
779.357	511.82
779.539	479.05
779.721	517.97
779.903	399.18
780.085	495.44
780.267	556.88
780.449	434
780.631	499.53
780.812	423.76
780.994	460.62
781.176	417.61
781.358	450.38
781.54	331.6
781.721	405.33
781.903	425.81
782.085	462.67
782.267	397.14
782.448	460.62
782.63	436.05
782.812	425.81
782.993	419.66
783.175	362.32
783.357	393.04
783.538	405.33
783.72	366.42
783.901	370.51
784.083	343.89
784.264	401.23
784.446	436.05
784.627	345.94
784.809	376.66
784.99	374.61
785.172	372.56
785.353	364.37
785.535	425.81
785.716	294.74
785.897	354.13
786.079	401.23
786.26	350.03
786.441	370.51
786.623	331.6
786.804	350.03
786.985	362.32
787.167	327.5
787.348	321.36
787.529	290.64
787.71	415.57
787.891	264.02
788.073	276.31
788.254	323.41
788.435	341.84
788.616	327.5
788.797	261.97
788.978	304.98
789.159	257.87
789.34	325.46
789.522	229.2
789.703	266.07
789.884	206.67
790.065	339.79
790.246	319.31
790.427	311.12
790.607	245.59
790.788	272.21
790.969	304.98
791.15	278.35
791.331	313.17
791.512	302.93
791.693	241.49
791.874	347.98
792.054	251.73
792.235	288.59
792.416	237.39
792.597	227.15
792.778	175.95
792.958	292.69
793.139	292.69
793.32	266.07
793.5	231.25
793.681	284.5
793.862	194.39
794.042	231.25
794.223	239.44
794.404	264.02
794.584	173.91
794.765	206.67
794.945	192.34
795.126	282.45
795.306	266.07
795.487	302.93
795.667	216.91
795.848	231.25
796.028	223.06
796.209	251.73
796.389	280.4
796.57	180.05
796.75	124.76
796.93	184.15
797.111	272.21
797.291	206.67
797.471	313.17
797.652	249.68
797.832	223.06
798.012	167.76
798.192	147.28
798.373	163.67
798.553	198.48
798.733	214.87
798.913	175.95
799.093	196.43
799.274	124.76
799.454	276.31
799.634	202.58
799.814	218.96
799.994	202.58
800.174	210.77
800.354	218.96
800.534	214.87
800.714	237.39
800.894	130.9
801.074	155.47
801.254	163.67
801.434	249.68
801.614	264.02
801.794	143.19
801.974	642.89
802.154	151.38
802.334	233.3
802.514	184.15
802.693	231.25
802.873	143.19
803.053	182.1
803.233	180.05
803.413	116.56
803.592	118.61
803.772	165.71
803.952	114.52
804.131	75.6
804.311	184.15
804.491	225.11
804.67	167.76
804.85	200.53
805.03	233.3
805.209	218.96
805.389	91.99
805.568	184.15
805.748	218.96
805.928	153.43
806.107	202.58
806.287	153.43
806.466	143.19
806.646	208.72
806.825	139.09
807.004	112.47
807.184	157.52
807.363	155.47
807.543	145.24
807.722	155.47
807.901	147.28
808.081	159.57
808.26	132.95
808.439	137.04
808.619	188.24
808.798	110.42
808.977	116.56
809.156	143.19
809.336	126.8
809.515	98.13
809.694	108.37
809.873	69.46
810.052	116.56
810.231	118.61
810.411	175.95
810.59	139.09
810.769	157.52
810.948	135
811.127	216.91
811.306	137.04
811.485	182.1
811.664	130.9
811.843	73.56
812.022	87.89
812.201	139.09
812.38	85.84
812.559	122.71
812.737	198.48
812.916	178
813.095	161.62
813.274	153.43
813.453	128.85
813.632	104.28
813.811	194.39
813.989	132.95
814.168	151.38
814.347	157.52
814.526	87.89
814.704	135
814.883	98.13
815.062	91.99
815.24	36.69
815.419	65.36
815.598	110.42
815.776	116.56
815.955	102.23
816.133	65.36
816.312	38.74
816.49	102.23
816.669	135
816.847	112.47
817.026	87.89
817.204	108.37
817.383	128.85
817.561	98.13
817.74	175.95
817.918	147.28
818.097	141.14
818.275	139.09
818.453	124.76
818.632	71.51
818.81	16.21
818.988	126.8
819.167	65.36
819.345	32.6
819.523	53.08
819.701	120.66
819.879	98.13
820.058	132.95
820.236	145.24
820.414	122.71
820.592	149.33
820.77	18.26
820.948	77.65
821.127	53.08
821.305	122.71
821.483	20.31
821.661	85.84
821.839	102.23
822.017	55.12
822.195	96.08
822.373	79.7
822.551	26.45
822.729	59.22
822.907	110.42
823.085	67.41
823.262	94.04
823.44	139.09
823.618	77.65
823.796	79.7
823.974	87.89
824.152	51.03
824.329	114.52
824.507	102.23
824.685	104.28
824.863	153.43
825.04	77.65
825.218	116.56
825.396	40.79
825.574	91.99
825.751	59.22
825.929	112.47
826.107	38.74
826.284	85.84
826.462	8.02
826.639	20.31
826.817	94.04
826.994	38.74
827.172	-12.46
827.349	63.32
827.527	28.5
827.704	122.71
827.882	30.55
828.059	34.64
828.237	8.02
828.414	53.08
828.591	65.36
828.769	75.6
828.946	5.97
829.124	48.98
829.301	34.64
829.478	61.27
829.655	53.08
829.833	-4.27
830.01	81.75
830.187	81.75
830.364	104.28
830.542	118.61
830.719	65.36
830.896	-41.13
831.073	98.13
831.25	26.45
831.427	12.12
831.604	73.56
831.782	46.93
831.959	118.61
832.136	114.52
832.313	87.89
832.49	73.56
832.667	55.12
832.844	42.84
833.021	98.13
833.198	28.5
833.374	116.56
833.551	77.65
833.728	112.47
833.905	124.76
834.082	61.27
834.259	42.84
834.436	110.42
834.612	61.27
834.789	149.33
834.966	159.57
835.143	85.84
835.319	42.84
835.496	26.45
835.673	44.88
835.85	51.03
836.026	67.41
836.203	77.65
836.38	24.4
836.556	81.75
836.733	69.46
836.909	53.08
837.086	24.4
837.262	-20.65
837.439	51.03
837.616	40.79
837.792	14.17
837.968	53.08
838.145	1.88
838.321	3.93
838.498	48.98
838.674	-43.18
838.851	48.98
839.027	59.22
839.203	116.56
839.38	55.12
839.556	36.69
839.732	32.6
839.909	-2.22
840.085	59.22
840.261	-2.22
840.437	20.31
840.614	26.45
840.79	-12.46
840.966	14.17
841.142	46.93
841.318	-10.41
841.494	3.93
841.671	65.36
841.847	22.36
842.023	46.93
842.199	83.8
842.375	79.7
842.551	18.26
842.727	24.4
842.903	81.75
843.079	-2.22
843.255	36.69
843.431	-16.55
843.607	44.88
843.783	32.6
843.959	8.02
844.134	-0.17
844.31	65.36
844.486	81.75
844.662	12.12
844.838	-4.27
845.013	102.23
845.189	18.26
845.365	73.56
845.541	57.17
845.716	53.08
845.892	-18.6
846.068	48.98
846.244	-14.51
846.419	-12.46
846.595	69.46
846.77	-10.41
846.946	108.37
847.122	-4.27
847.297	-10.41
847.473	61.27
847.648	-6.31
847.824	-16.55
847.999	38.74
848.175	46.93
848.35	30.55
848.526	75.6
848.701	55.12
848.876	102.23
849.052	81.75
849.227	32.6
849.403	126.8
849.578	83.8
849.753	91.99
849.929	85.84
850.104	14.17
850.279	18.26
850.454	30.55
850.63	114.52
850.805	36.69
850.98	36.69
851.155	5.97
851.33	139.09
851.505	-16.55
851.681	53.08
851.856	-32.94
852.031	53.08
852.206	46.93
852.381	38.74
852.556	-4.27
852.731	108.37
852.906	94.04
853.081	53.08
853.256	61.27
853.431	108.37
853.606	22.36
853.781	51.03
853.956	-34.99
854.131	14.17
854.305	24.4
854.48	-2.22
854.655	3.93
854.83	38.74
855.005	-14.51
855.18	36.69
855.354	71.51
855.529	16.21
855.704	5.97
855.879	53.08
856.053	-32.94
856.228	18.26
856.403	3.93
856.577	32.6
856.752	-67.75
856.926	-18.6
857.101	30.55
857.276	-20.65
857.45	106.32
857.625	-67.75
857.799	-14.51
857.974	26.45
858.148	83.8
858.323	42.84
858.497	-18.6
858.672	-6.31
858.846	65.36
859.02	14.17
859.195	40.79
859.369	18.26
859.543	69.46
859.718	8.02
859.892	28.5
860.066	3.93
860.241	-16.55
860.415	-12.46
860.589	-22.7
860.763	5.97
860.938	-10.41
861.112	77.65
861.286	36.69
861.46	44.88
861.634	53.08
861.808	53.08
861.982	120.66
862.157	30.55
862.331	24.4
862.505	12.12
862.679	5.97
862.853	34.64
863.027	-90.28
863.201	65.36
863.375	42.84
863.549	126.8
863.722	14.17
863.896	57.17
864.07	-51.37
864.244	-32.94
864.418	42.84
864.592	26.45
864.766	3.93
864.939	14.17
865.113	-26.79
865.287	-2.22
865.461	44.88
865.634	16.21
865.808	22.36
865.982	-22.7
866.156	1.88
866.329	-6.31
866.503	71.51
866.676	55.12
866.85	10.07
867.024	22.36
867.197	8.02
867.371	8.02
867.544	44.88
867.718	1.88
867.891	73.56
868.065	-30.89
868.238	10.07
868.412	28.5
868.585	5.97
868.759	-22.7
868.932	44.88
869.105	10.07
869.279	24.4
869.452	26.45
869.625	57.17
869.799	28.5
869.972	53.08
870.145	69.46
870.319	10.07
870.492	40.79
870.665	5.97
870.838	28.5
871.011	16.21
871.185	30.55
871.358	16.21
871.531	-0.17
871.704	14.17
871.877	30.55
872.05	18.26
872.223	-2.22
872.396	-14.51
872.569	57.17
872.742	-16.55
872.915	22.36
873.088	-32.94
873.261	18.26
873.434	24.4
873.607	-75.95
873.78	69.46
873.953	-4.27
874.126	-41.13
874.299	-30.89
874.471	38.74
874.644	-39.08
874.817	28.5
874.99	42.84
875.163	12.12
875.335	36.69
875.508	12.12
875.681	28.5
875.853	-8.36
876.026	38.74
876.199	40.79
876.371	63.32
876.544	-26.79
876.717	89.94
876.889	-4.27
877.062	-14.51
877.234	18.26
877.407	69.46
877.579	16.21
877.752	40.79
877.924	-6.31
878.097	44.88
878.269	118.61
878.442	-22.7
878.614	-12.46
878.786	10.07
878.959	42.84
879.131	-30.89
879.303	-14.51
879.476	-8.36
879.648	63.32
879.82	-26.79
879.993	38.74
880.165	59.22
880.337	36.69
880.509	53.08
880.681	-73.9
880.854	46.93
881.026	-10.41
881.198	46.93
881.37	-0.17
881.542	-2.22
881.714	36.69
881.886	-20.65
882.058	3.93
882.23	16.21
882.402	-8.36
882.574	-16.55
882.746	38.74
882.918	-28.84
883.09	-8.36
883.262	5.97
883.434	-16.55
883.606	22.36
883.778	8.02
883.95	22.36
884.122	-16.55
884.293	34.64
884.465	55.12
884.637	-30.89
884.809	14.17
884.98	18.26
885.152	1.88
885.324	-2.22
885.496	22.36
885.667	-34.99
885.839	-24.75
886.011	85.84
886.182	-28.84
886.354	-51.37
886.525	-26.79
886.697	-28.84
886.869	5.97
887.04	22.36
887.212	36.69
887.383	-22.7
887.555	63.32
887.726	-30.89
887.897	22.36
888.069	3.93
888.24	55.12
888.412	-47.27
888.583	10.07
888.754	36.69
888.926	-30.89
889.097	-24.75
889.268	22.36
889.44	20.31
889.611	-4.27
889.782	3.93
889.953	8.02
890.125	30.55
890.296	-41.13
890.467	-4.27
890.638	46.93
890.809	32.6
890.98	-28.84
891.151	32.6
891.323	28.5
891.494	14.17
891.665	38.74
891.836	-75.95
892.007	-22.7
892.178	71.51
892.349	8.02
892.52	-34.99
892.691	-4.27
892.862	55.12
893.032	-69.8
893.203	-39.08
893.374	-16.55
893.545	-14.51
893.716	-18.6
893.887	8.02
894.057	-8.36
894.228	14.17
894.399	-10.41
894.57	59.22
894.74	8.02
894.911	53.08
895.082	55.12
895.253	-34.99
895.423	-32.94
895.594	10.07
895.764	18.26
895.935	-18.6
896.106	-2.22
896.276	16.21
896.447	-71.85
896.617	-2.22
896.788	36.69
896.958	3.93
897.129	-2.22
897.299	40.79
897.47	61.27
897.64	10.07
897.81	51.03
897.981	96.08
898.151	5.97
898.322	67.41
898.492	16.21
898.662	53.08
898.832	-55.47
899.003	-2.22
899.173	-37.03
899.343	59.22
899.513	-28.84
