Data from USB4F104151__24__11-51-28-689.txt Node

Date: Fri Mar 14 11:51:28 EDT 2025
User: louis
Spectrometer: USB4F10415
Trigger mode: 4
Integration Time (sec): 2.000000E-2
Scans to average: 1
Electric dark correction enabled: true
Nonlinearity correction enabled: false
Boxcar width: 0
XAxis mode: Wavelengths
Number of Pixels in Spectrum: 3648
>>>>>Begin Spectral Data<<<<<
178.204	-65.54
178.424	-65.54
178.644	-65.54
178.864	-141.31
179.084	-53.25
179.304	-22.53
179.524	-8.19
179.744	22.53
179.964	71.68
180.184	8.19
180.404	-22.53
180.624	36.86
180.844	-18.43
181.064	-28.67
181.283	-6.14
181.503	-24.58
181.723	-8.19
181.943	-20.48
182.163	10.24
182.383	65.53
182.602	75.77
182.822	73.73
183.042	43.01
183.262	67.58
183.482	53.25
183.701	-0
183.921	34.82
184.141	-16.38
184.361	16.38
184.58	-28.67
184.8	51.2
185.02	-12.29
185.239	96.25
185.459	-36.86
185.679	43.01
185.898	18.43
186.118	49.15
186.338	71.68
186.557	34.82
186.777	-77.82
186.997	55.3
187.216	24.58
187.436	22.53
187.655	18.43
187.875	-8.19
188.095	30.72
188.314	-8.19
188.534	38.91
188.753	32.77
188.973	32.77
189.192	4.1
189.412	6.14
189.631	26.62
189.851	-26.62
190.07	16.38
190.29	-20.48
190.509	65.53
190.729	-30.72
190.948	34.82
191.168	43.01
191.387	100.35
191.607	-34.82
191.826	45.06
192.045	49.15
192.265	14.34
192.484	-18.43
192.704	94.21
192.923	59.39
193.142	90.11
193.362	65.53
193.581	86.01
193.8	49.15
194.02	-2.05
194.239	-38.91
194.458	38.91
194.678	49.15
194.897	-12.29
195.116	90.11
195.335	-12.29
195.555	-16.38
195.774	-57.34
195.993	-30.72
196.212	40.96
196.432	-16.38
196.651	40.96
196.87	10.24
197.089	45.06
197.308	45.06
197.528	-12.29
197.747	-8.19
197.966	6.14
198.185	-4.1
198.404	-4.1
198.623	34.82
198.842	8.19
199.062	4.1
199.281	59.39
199.5	96.25
199.719	98.3
199.938	38.91
200.157	28.67
200.376	53.25
200.595	92.16
200.814	26.62
201.033	26.62
201.252	98.3
201.471	-0
201.69	53.25
201.909	63.49
202.128	47.1
202.347	-10.24
202.566	81.92
202.785	14.34
203.004	4.1
203.223	38.91
203.442	18.43
203.661	24.58
203.879	18.43
204.098	-12.29
204.317	-2.05
204.536	-22.53
204.755	-38.91
204.974	18.43
205.193	43.01
205.411	8.19
205.63	81.92
205.849	-4.1
206.068	14.34
206.287	65.53
206.505	-2.05
206.724	36.86
206.943	-49.15
207.162	-12.29
207.381	61.44
207.599	67.58
207.818	12.29
208.037	-6.14
208.255	-26.62
208.474	-55.3
208.693	-40.96
208.911	22.53
209.13	43.01
209.349	2.05
209.567	2.05
209.786	-18.43
210.005	83.97
210.223	10.24
210.442	6.14
210.661	-2.05
210.879	49.15
211.098	-24.58
211.316	22.53
211.535	79.87
211.753	12.29
211.972	86.01
212.191	69.63
212.409	-38.91
212.628	8.19
212.846	71.68
213.065	6.14
213.283	4.1
213.502	94.21
213.72	53.25
213.938	-8.19
214.157	110.59
214.375	-8.19
214.594	-2.05
214.812	-10.24
215.031	-2.05
215.249	10.24
215.467	24.58
215.686	55.3
215.904	65.53
216.122	-34.82
216.341	4.1
216.559	86.01
216.778	61.44
216.996	45.06
217.214	-10.24
217.432	20.48
217.651	-24.58
217.869	-0
218.087	24.58
218.306	55.3
218.524	-51.2
218.742	16.38
218.96	92.16
219.179	-43.01
219.397	-8.19
219.615	4.1
219.833	88.06
220.051	18.43
220.27	63.49
220.488	40.96
220.706	26.62
220.924	6.14
221.142	69.63
221.36	63.49
221.578	38.91
221.796	-6.14
222.015	51.2
222.233	43.01
222.451	57.34
222.669	10.24
222.887	-12.29
223.105	-45.06
223.323	-14.34
223.541	88.06
223.759	-26.62
223.977	14.34
224.195	57.34
224.413	71.68
224.631	79.87
224.849	75.77
225.067	6.14
225.285	30.72
225.503	2.05
225.721	-2.05
225.939	51.2
226.157	63.49
226.375	81.92
226.592	38.91
226.81	-40.96
227.028	20.48
227.246	114.69
227.464	18.43
227.682	40.96
227.9	-26.62
228.117	26.62
228.335	75.77
228.553	6.14
228.771	-6.14
228.989	10.24
229.206	12.29
229.424	8.19
229.642	28.67
229.86	49.15
230.077	65.53
230.295	96.25
230.513	65.53
230.731	24.58
230.948	49.15
231.166	122.88
231.384	4.1
231.601	-16.38
231.819	77.82
232.037	30.72
232.254	-6.14
232.472	26.62
232.689	102.4
232.907	53.25
233.125	-10.24
233.342	6.14
233.56	16.38
233.777	30.72
233.995	55.3
234.213	67.58
234.43	18.43
234.648	88.06
234.865	-22.53
235.083	32.77
235.3	10.24
235.518	71.68
235.735	36.86
235.953	43.01
236.17	6.14
236.388	53.25
236.605	75.77
236.822	110.59
237.04	63.49
237.257	22.53
237.475	51.2
237.692	34.82
237.909	26.62
238.127	-47.1
238.344	24.58
238.562	10.24
238.779	-10.24
238.996	-16.38
239.214	18.43
239.431	8.19
239.648	-49.15
239.865	26.62
240.083	55.3
240.3	-34.82
240.517	55.3
240.735	-40.96
240.952	63.49
241.169	-28.67
241.386	20.48
241.603	49.15
241.821	8.19
242.038	129.02
242.255	40.96
242.472	14.34
242.689	71.68
242.907	32.77
243.124	-61.44
243.341	-0
243.558	-14.34
243.775	22.53
243.992	-36.86
244.209	2.05
244.426	71.68
244.643	43.01
244.86	20.48
245.078	30.72
245.295	57.34
245.512	18.43
245.729	36.86
245.946	63.49
246.163	32.77
246.38	51.2
246.597	-26.62
246.814	12.29
247.031	28.67
247.248	75.77
247.464	-14.34
247.681	36.86
247.898	-14.34
248.115	43.01
248.332	79.87
248.549	65.53
248.766	30.72
248.983	47.1
249.2	20.48
249.417	2.05
249.633	-38.91
249.85	102.4
250.067	32.77
250.284	-71.68
250.501	92.16
250.717	6.14
250.934	6.14
251.151	-47.1
251.368	43.01
251.585	-18.43
251.801	43.01
252.018	77.82
252.235	57.34
252.451	6.14
252.668	-24.58
252.885	22.53
253.102	40.96
253.318	40.96
253.535	-14.34
253.752	24.58
253.968	34.82
254.185	32.77
254.401	67.58
254.618	2.05
254.835	-18.43
255.051	83.97
255.268	6.14
255.484	38.91
255.701	69.63
255.917	155.65
256.134	14.34
256.351	20.48
256.567	47.1
256.784	57.34
257	-6.14
257.217	26.62
257.433	40.96
257.65	-6.14
257.866	24.58
258.082	40.96
258.299	30.72
258.515	51.2
258.732	-22.53
258.948	-34.82
259.165	28.67
259.381	-4.1
259.597	-8.19
259.814	59.39
260.03	-20.48
260.246	8.19
260.463	71.68
260.679	45.06
260.895	-24.58
261.112	38.91
261.328	22.53
261.544	63.49
261.761	43.01
261.977	-10.24
262.193	49.15
262.409	86.01
262.626	75.77
262.842	32.77
263.058	61.44
263.274	59.39
263.49	34.82
263.707	-0
263.923	51.2
264.139	-4.1
264.355	24.58
264.571	102.4
264.787	55.3
265.004	34.82
265.22	30.72
265.436	30.72
265.652	28.67
265.868	61.44
266.084	63.49
266.3	32.77
266.516	-12.29
266.732	100.35
266.948	-10.24
267.164	69.63
267.38	110.59
267.596	86.01
267.812	79.87
268.028	45.06
268.244	38.91
268.46	53.25
268.676	53.25
268.892	38.91
269.108	79.87
269.324	22.53
269.54	12.29
269.756	36.86
269.972	-12.29
270.188	-2.05
270.403	24.58
270.619	61.44
270.835	59.39
271.051	28.67
271.267	36.86
271.483	-0
271.698	24.58
271.914	69.63
272.13	2.05
272.346	-28.67
272.562	-30.72
272.777	116.73
272.993	26.62
273.209	6.14
273.425	28.67
273.64	-10.24
273.856	-8.19
274.072	-0
274.287	-20.48
274.503	79.87
274.719	98.3
274.934	26.62
275.15	-75.77
275.366	8.19
275.581	-26.62
275.797	-10.24
276.012	124.93
276.228	53.25
276.444	-55.3
276.659	51.2
276.875	4.1
277.09	38.91
277.306	12.29
277.521	77.82
277.737	28.67
277.952	77.82
278.168	71.68
278.383	53.25
278.599	-43.01
278.814	73.73
279.03	34.82
279.245	112.64
279.461	71.68
279.676	151.55
279.892	-6.14
280.107	-0
280.322	-38.91
280.538	10.24
280.753	51.2
280.969	45.06
281.184	30.72
281.399	98.3
281.615	20.48
281.83	18.43
282.045	10.24
282.26	-28.67
282.476	30.72
282.691	4.1
282.906	24.58
283.122	90.11
283.337	10.24
283.552	10.24
283.767	83.97
283.983	-24.58
284.198	-28.67
284.413	53.25
284.628	-14.34
284.843	28.67
285.058	67.58
285.274	26.62
285.489	-22.53
285.704	22.53
285.919	-73.73
286.134	-22.53
286.349	55.3
286.564	40.96
286.779	83.97
286.995	79.87
287.21	36.86
287.425	36.86
287.64	96.25
287.855	61.44
288.07	6.14
288.285	-4.1
288.5	-55.3
288.715	-2.05
288.93	-24.58
289.145	20.48
289.36	51.2
289.575	-12.29
289.79	2.05
290.004	8.19
290.219	18.43
290.434	6.14
290.649	-26.62
290.864	38.91
291.079	16.38
291.294	-38.91
291.509	63.49
291.724	-8.19
291.938	96.25
292.153	24.58
292.368	16.38
292.583	-10.24
292.798	65.53
293.012	20.48
293.227	20.48
293.442	12.29
293.657	2.05
293.871	129.02
294.086	40.96
294.301	53.25
294.516	-24.58
294.73	81.92
294.945	-38.91
295.16	45.06
295.374	16.38
295.589	26.62
295.804	-34.82
296.018	2.05
296.233	8.19
296.447	12.29
296.662	-18.43
296.877	73.73
297.091	-20.48
297.306	-6.14
297.52	-18.43
297.735	-43.01
297.949	-10.24
298.164	34.82
298.378	26.62
298.593	2.05
298.807	10.24
299.022	30.72
299.236	34.82
299.451	32.77
299.665	40.96
299.88	24.58
300.094	-34.82
300.309	102.4
300.523	-38.91
300.737	-65.54
300.952	-2.05
301.166	-0
301.381	59.39
301.595	20.48
301.809	-16.38
302.024	57.34
302.238	-2.05
302.452	94.21
302.667	6.14
302.881	12.29
303.095	65.53
303.309	38.91
303.524	-16.38
303.738	43.01
303.952	-16.38
304.166	16.38
304.381	20.48
304.595	51.2
304.809	-6.14
305.023	43.01
305.237	71.68
305.452	38.91
305.666	16.38
305.88	88.06
306.094	69.63
306.308	67.58
306.522	-47.1
306.736	102.4
306.95	32.77
307.164	6.14
307.379	-30.72
307.593	69.63
307.807	26.62
308.021	45.06
308.235	20.48
308.449	-14.34
308.663	14.34
308.877	75.77
309.091	57.34
309.305	79.87
309.519	18.43
309.733	139.26
309.947	100.35
310.161	24.58
310.374	47.1
310.588	6.14
310.802	-0
311.016	32.77
311.23	14.34
311.444	18.43
311.658	28.67
311.872	24.58
312.085	-4.1
312.299	155.65
312.513	36.86
312.727	51.2
312.941	-12.29
313.154	131.07
313.368	26.62
313.582	47.1
313.796	59.39
314.009	108.54
314.223	18.43
314.437	-0
314.651	83.97
314.864	51.2
315.078	-38.91
315.292	-20.48
315.505	51.2
315.719	49.15
315.933	-55.3
316.146	90.11
316.36	81.92
316.573	26.62
316.787	-4.1
317.001	40.96
317.214	55.3
317.428	51.2
317.641	-43.01
317.855	26.62
318.068	4.1
318.282	40.96
318.495	73.73
318.709	24.58
318.922	75.77
319.136	4.1
319.349	61.44
319.563	49.15
319.776	65.53
319.99	-0
320.203	30.72
320.417	-0
320.63	-22.53
320.843	71.68
321.057	28.67
321.27	45.06
321.483	-22.53
321.697	47.1
321.91	22.53
322.124	102.4
322.337	32.77
322.55	43.01
322.763	-0
322.977	22.53
323.19	-83.97
323.403	96.25
323.617	-2.05
323.83	118.78
324.043	-14.34
324.256	-14.34
324.469	-45.06
324.683	51.2
324.896	30.72
325.109	16.38
325.322	55.3
325.535	45.06
325.748	75.77
325.962	-12.29
326.175	94.21
326.388	61.44
326.601	-12.29
326.814	34.82
327.027	16.38
327.24	96.25
327.453	38.91
327.666	51.2
327.879	73.73
328.092	40.96
328.305	71.68
328.518	-6.14
328.731	16.38
328.944	49.15
329.157	90.11
329.37	-71.68
329.583	98.3
329.796	16.38
330.009	18.43
330.222	4.1
330.435	81.92
330.648	-10.24
330.861	-18.43
331.073	-8.19
331.286	53.25
331.499	20.48
331.712	26.62
331.925	-14.34
332.138	102.4
332.35	45.06
332.563	10.24
332.776	90.11
332.989	-8.19
333.202	-26.62
333.414	-2.05
333.627	86.01
333.84	34.82
334.053	53.25
334.265	-20.48
334.478	-14.34
334.691	-6.14
334.903	112.64
335.116	65.53
335.329	-12.29
335.541	22.53
335.754	126.97
335.966	59.39
336.179	-14.34
336.392	14.34
336.604	30.72
336.817	57.34
337.029	71.68
337.242	-28.67
337.454	-6.14
337.667	32.77
337.88	22.53
338.092	-6.14
338.305	57.34
338.517	38.91
338.729	98.3
338.942	120.83
339.154	59.39
339.367	32.77
339.579	108.54
339.792	10.24
340.004	14.34
340.217	79.87
340.429	-22.53
340.641	65.53
340.854	45.06
341.066	6.14
341.278	45.06
341.491	116.73
341.703	6.14
341.915	43.01
342.128	40.96
342.34	122.88
342.552	-32.77
342.764	81.92
342.977	-10.24
343.189	34.82
343.401	32.77
343.613	12.29
343.826	79.87
344.038	18.43
344.25	57.34
344.462	40.96
344.674	34.82
344.886	32.77
345.099	112.64
345.311	51.2
345.523	20.48
345.735	61.44
345.947	53.25
346.159	-32.77
346.371	81.92
346.583	51.2
346.795	12.29
347.007	40.96
347.219	120.83
347.431	32.77
347.643	43.01
347.855	-75.77
348.067	47.1
348.279	-20.48
348.491	32.77
348.703	118.78
348.915	81.92
349.127	12.29
349.339	49.15
349.551	-10.24
349.763	61.44
349.975	18.43
350.187	49.15
350.399	77.82
350.61	10.24
350.822	63.49
351.034	112.64
351.246	-26.62
351.458	28.67
351.669	32.77
351.881	55.3
352.093	51.2
352.305	36.86
352.517	32.77
352.728	73.73
352.94	47.1
353.152	-24.58
353.363	20.48
353.575	-4.1
353.787	94.21
353.999	12.29
354.21	96.25
354.422	8.19
354.633	22.53
354.845	65.53
355.057	86.01
355.268	77.82
355.48	49.15
355.692	51.2
355.903	43.01
356.115	-26.62
356.326	-59.39
356.538	38.91
356.749	12.29
356.961	71.68
357.172	137.21
357.384	16.38
357.595	104.45
357.807	8.19
358.018	28.67
358.23	26.62
358.441	43.01
358.653	137.21
358.864	16.38
359.075	38.91
359.287	88.06
359.498	63.49
359.709	-2.05
359.921	59.39
360.132	73.73
360.344	63.49
360.555	-30.72
360.766	81.92
360.977	67.58
361.189	-10.24
361.4	69.63
361.611	81.92
361.823	116.73
362.034	53.25
362.245	30.72
362.456	53.25
362.667	116.73
362.879	69.63
363.09	4.1
363.301	49.15
363.512	32.77
363.723	-59.39
363.935	2.05
364.146	88.06
364.357	55.3
364.568	10.24
364.779	28.67
364.99	65.53
365.201	43.01
365.412	43.01
365.623	12.29
365.834	43.01
366.045	-8.19
366.256	90.11
366.467	133.12
366.678	8.19
366.889	-18.43
367.1	-0
367.311	81.92
367.522	22.53
367.733	47.1
367.944	94.21
368.155	-8.19
368.366	4.1
368.577	71.68
368.788	77.82
368.999	-14.34
369.209	67.58
369.42	112.64
369.631	65.53
369.842	49.15
370.053	30.72
370.264	22.53
370.474	-2.05
370.685	43.01
370.896	4.1
371.107	14.34
371.317	-32.77
371.528	-18.43
371.739	24.58
371.95	55.3
372.16	102.4
372.371	57.34
372.582	118.78
372.792	49.15
373.003	65.53
373.214	40.96
373.424	32.77
373.635	20.48
373.846	131.07
374.056	81.92
374.267	43.01
374.477	55.3
374.688	69.63
374.898	34.82
375.109	2.05
375.319	61.44
375.53	6.14
375.74	67.58
375.951	67.58
376.161	104.45
376.372	36.86
376.582	26.62
376.793	67.58
377.003	71.68
377.214	16.38
377.424	69.63
377.635	69.63
377.845	102.4
378.055	100.35
378.266	-14.34
378.476	110.59
378.686	145.41
378.897	61.44
379.107	77.82
379.317	-0
379.528	-65.54
379.738	53.25
379.948	18.43
380.158	100.35
380.369	36.86
380.579	69.63
380.789	12.29
380.999	14.34
381.21	51.2
381.42	139.26
381.63	51.2
381.84	116.73
382.05	10.24
382.261	34.82
382.471	114.69
382.681	106.49
382.891	6.14
383.101	96.25
383.311	61.44
383.521	65.53
383.731	75.77
383.941	55.3
384.151	79.87
384.361	38.91
384.571	30.72
384.781	118.78
384.991	75.77
385.201	14.34
385.411	6.14
385.621	40.96
385.831	8.19
386.041	88.06
386.251	12.29
386.461	-12.29
386.671	22.53
386.881	94.21
387.091	10.24
387.301	63.49
387.511	26.62
387.72	86.01
387.93	34.82
388.14	32.77
388.35	57.34
388.56	114.69
388.769	22.53
388.979	10.24
389.189	75.77
389.399	36.86
389.609	96.25
389.818	75.77
390.028	110.59
390.238	28.67
390.447	20.48
390.657	94.21
390.867	108.54
391.076	88.06
391.286	53.25
391.496	-20.48
391.705	-8.19
391.915	81.92
392.125	143.36
392.334	-10.24
392.544	98.3
392.753	102.4
392.963	26.62
393.172	135.17
393.382	73.73
393.591	57.34
393.801	61.44
394.01	79.87
394.22	88.06
394.429	53.25
394.639	38.91
394.848	77.82
395.058	47.1
395.267	73.73
395.477	92.16
395.686	83.97
395.895	43.01
396.105	90.11
396.314	81.92
396.524	10.24
396.733	-32.77
396.942	118.78
397.152	124.93
397.361	30.72
397.57	79.87
397.78	145.41
397.989	55.3
398.198	129.02
398.407	73.73
398.617	63.49
398.826	139.26
399.035	153.6
399.244	65.53
399.453	124.93
399.663	151.55
399.872	75.77
400.081	2.05
400.29	63.49
400.499	65.53
400.708	106.49
400.917	45.06
401.127	129.02
401.336	59.39
401.545	118.78
401.754	129.02
401.963	204.8
402.172	104.45
402.381	61.44
402.59	122.88
402.799	90.11
403.008	98.3
403.217	169.98
403.426	67.58
403.635	83.97
403.844	116.73
404.053	131.07
404.262	114.69
404.471	77.82
404.68	106.49
404.888	135.17
405.097	135.17
405.306	149.5
405.515	81.92
405.724	86.01
405.933	133.12
406.142	143.36
406.35	194.56
406.559	227.32
406.768	67.58
406.977	133.12
407.185	180.22
407.394	110.59
407.603	161.79
407.812	176.13
408.02	178.17
408.229	239.61
408.438	151.55
408.646	165.89
408.855	286.72
409.064	221.18
409.272	210.94
409.481	311.29
409.69	212.99
409.898	296.96
410.107	311.29
410.315	356.35
410.524	262.14
410.733	344.06
410.941	317.44
411.15	333.82
411.358	313.34
411.567	315.39
411.775	299
411.984	382.97
412.192	407.55
412.401	329.72
412.609	374.78
412.818	411.64
413.026	387.07
413.234	346.11
413.443	514.04
413.651	434.17
413.86	458.74
414.068	481.27
414.276	544.76
414.485	407.55
414.693	452.6
414.901	653.3
415.11	600.05
415.318	530.42
415.526	620.53
415.734	583.67
415.943	612.34
416.151	657.4
416.359	706.55
416.567	673.78
416.776	765.94
416.984	765.94
417.192	802.8
417.4	884.72
417.608	739.32
417.817	872.43
418.025	901.11
418.233	964.59
418.441	923.63
418.649	995.31
418.857	1097.71
419.065	1110
419.273	1071.09
419.481	1136.62
419.689	1181.68
419.897	1177.58
420.105	1261.55
420.313	1308.65
420.521	1386.47
420.729	1384.43
420.937	1325.04
421.145	1517.54
421.353	1578.98
421.561	1540.07
421.769	1624.04
421.977	1632.23
422.185	1636.33
422.393	1736.68
422.601	1927.14
422.809	1912.8
423.017	1861.6
423.224	2086.88
423.432	2168.8
423.64	2115.55
423.848	2332.64
424.056	2158.56
424.263	2375.64
424.471	2365.4
424.679	2291.68
424.887	2519
425.094	2754.52
425.302	2629.59
425.51	2729.94
425.718	2717.65
425.925	2912.21
426.133	2887.64
426.341	3061.71
426.548	3260.37
426.756	3198.93
426.964	3186.64
427.171	3393.48
427.379	3592.14
427.586	3661.77
427.794	3751.88
428.001	3925.96
428.209	4202.43
428.417	4040.64
428.624	4376.51
428.832	4257.73
429.039	4130.75
429.247	4265.92
429.454	4808.63
429.662	5142.45
429.869	4829.11
430.076	5062.58
430.284	4882.36
430.491	5171.12
430.699	5377.97
430.906	5375.92
431.114	5447.6
431.321	5660.59
431.528	5687.21
431.736	6027.17
431.943	6514.59
432.15	6262.69
432.358	6270.88
432.565	6700.95
432.772	6639.51
432.979	6887.32
433.187	7085.97
433.394	7147.41
433.601	7669.64
433.808	7659.4
434.016	7475.09
434.223	7845.77
434.43	8415.1
434.637	7923.59
434.844	8603.52
435.052	8849.27
435.259	8716.15
435.466	8845.18
435.673	8742.78
435.88	9402.22
436.087	9828.2
436.294	9785.19
436.501	9498.48
436.708	9926.5
436.915	10151.78
437.122	10575.71
437.329	10631.01
437.537	10981.21
437.743	11173.72
437.95	11151.19
438.157	11423.57
438.364	11888.46
438.571	11962.19
438.778	11919.18
438.985	13088.57
439.192	12484.42
439.399	12857.15
439.606	12879.68
439.813	13565.74
440.02	14362.4
440.227	14292.77
440.433	13965.1
440.64	14487.33
440.847	14208.81
441.054	14683.94
441.261	15560.47
441.467	15400.73
441.674	15884.05
441.881	16330.5
442.088	16293.64
442.294	16060.17
442.501	16502.53
442.708	16905.98
442.914	17600.24
443.121	18632.42
443.328	17813.23
443.534	19144.41
443.741	18405.1
443.948	18061.04
444.154	19635.92
444.361	19801.81
444.568	19652.31
444.774	19711.7
444.981	19785.43
445.187	20319.95
445.394	21335.74
445.6	21253.82
445.807	23000.74
446.013	22089.39
446.22	22593.19
446.426	23303.84
446.633	23414.43
446.839	24235.66
447.046	23457.43
447.252	24596.1
447.459	24532.62
447.665	24540.81
447.871	25659
448.078	27016.8
448.284	25521.79
448.491	26097.27
448.697	27213.41
448.903	27506.27
449.11	27786.84
449.316	27276.9
449.522	27698.78
449.728	28487.25
449.935	28933.7
450.141	28710.47
450.347	29341.25
450.553	28540.49
450.76	28933.7
450.966	29754.94
451.172	29300.29
451.378	30109.24
451.584	29814.33
451.791	30189.11
451.997	30250.55
452.203	30350.9
452.409	31069.73
452.615	30631.47
452.821	29470.27
453.027	29097.54
453.233	30535.21
453.44	29558.33
453.646	29986.36
453.852	29830.71
454.058	30850.6
454.264	29666.88
454.47	29976.12
454.676	29417.02
454.882	30336.56
455.088	27784.79
455.294	28069.46
455.5	28558.92
455.705	28663.37
455.911	27995.73
456.117	27184.74
456.323	26695.27
456.529	25183.87
456.735	26519.15
456.941	25527.93
457.147	25104
457.352	24473.23
457.558	24364.68
457.764	24630.92
457.97	24180.37
458.176	23404.19
458.381	23615.13
458.587	22511.27
458.793	22361.77
458.999	21188.28
459.204	22722.21
459.41	21913.27
459.616	20463.3
459.821	20541.13
460.027	20418.25
460.233	20131.53
460.438	18970.33
460.644	19447.51
460.85	18056.94
461.055	18063.08
461.261	18038.51
461.466	16754.43
461.672	16078.6
461.878	17401.59
462.083	16137.99
462.289	15855.37
462.494	15705.87
462.7	15157.02
462.905	14757.66
463.111	15292.18
463.316	15253.27
463.522	14825.25
463.727	14825.25
463.932	14839.58
464.138	14726.94
464.343	14864.16
464.549	14200.62
464.754	14661.41
464.959	14755.61
465.165	14567.2
465.37	13952.81
465.575	13561.65
465.781	14042.92
465.986	14024.49
466.191	13604.66
466.397	13334.32
466.602	12721.98
466.807	13184.82
467.012	13428.53
467.218	13199.16
467.423	13180.73
467.628	13045.56
467.833	13682.48
468.038	13156.15
468.244	12699.45
468.449	13207.35
468.654	12840.76
468.859	13023.03
469.064	12828.48
469.269	11990.86
469.474	12386.11
469.679	12441.41
469.885	12187.46
470.09	12353.35
470.295	12435.27
470.5	11931.47
470.705	12115.78
470.91	11919.18
471.115	11747.15
471.32	12107.59
471.525	11835.21
471.73	11456.34
471.935	11466.58
472.139	10895.19
472.344	11099.99
472.549	10915.67
472.754	10882.91
472.959	10739.55
473.164	10450.78
473.369	10454.88
473.574	10657.63
473.778	10557.28
473.983	10766.17
474.188	10667.87
474.393	10045.29
474.598	10084.2
474.802	10106.73
475.007	9738.09
475.212	9889.64
475.417	9721.71
475.621	9707.37
475.826	9559.92
476.031	9736.04
476.235	9348.98
476.44	9432.94
476.645	9033.59
476.849	9275.25
477.054	9172.85
477.259	8888.18
477.463	8918.9
477.668	8806.27
477.872	8863.61
478.077	8714.11
478.282	8484.73
478.486	8413.06
478.691	8445.82
478.895	8550.27
479.1	8368
479.304	8103.81
479.509	8083.33
479.713	8298.37
479.918	8116.1
480.122	7948.17
480.326	8101.76
480.531	8064.9
480.735	7954.31
480.94	7849.86
481.144	7946.12
481.348	7686.03
481.553	7806.86
481.757	7487.37
481.961	7618.44
482.166	7913.35
482.37	7823.24
482.574	7597.96
482.778	7755.66
482.983	7950.21
483.187	7790.47
483.391	7868.3
483.595	7577.48
483.8	7565.2
484.004	7868.3
484.208	7679.88
484.412	7722.89
484.616	7843.72
484.821	7896.97
485.025	7577.48
485.229	7757.71
485.433	7798.66
485.637	7669.64
485.841	7679.88
486.045	7649.16
486.249	7661.45
486.453	7739.27
486.657	7853.96
486.861	7729.03
487.065	7427.98
487.269	7651.21
487.473	7528.33
487.677	7610.25
487.881	7761.8
488.085	7587.72
488.289	7585.68
488.493	7704.46
488.697	7802.76
488.901	7804.81
489.105	7784.33
489.309	7657.36
489.512	7630.73
489.716	7950.21
489.92	7608.2
490.124	7739.27
490.328	8030.09
490.531	7786.38
490.735	7864.2
490.939	8066.95
491.143	7821.19
491.346	7901.06
491.55	8032.13
491.754	8038.28
491.958	8159.11
492.161	7948.17
492.365	8230.79
492.569	8249.22
492.772	7978.89
492.976	8177.54
493.18	8253.31
493.383	8454.01
493.587	8312.71
493.79	8349.57
493.994	8318.85
494.197	8386.43
494.401	8464.25
494.605	8525.69
494.808	8658.81
495.012	8710.01
495.215	8839.03
495.419	8744.83
495.622	8714.11
495.825	8839.03
496.029	8753.02
496.232	9068.41
496.436	8957.82
496.639	9336.69
496.843	9195.38
497.046	9443.18
497.249	9504.62
497.453	9602.93
497.656	9596.78
497.859	9535.34
498.063	9926.5
498.266	10000.23
498.469	9873.26
498.673	10205.03
498.876	10370.91
499.079	10282.85
499.282	10192.74
499.485	10561.37
499.689	10919.77
499.892	10506.08
500.095	10717.02
500.298	10854.23
500.501	10833.75
500.705	11181.91
500.908	11462.48
501.111	11337.56
501.314	11515.73
501.517	11628.37
501.72	11591.5
501.923	11702.09
502.126	12148.55
502.329	12314.44
502.532	12158.79
502.735	12277.57
502.938	12652.35
503.141	12457.79
503.344	12713.79
503.547	12861.24
503.75	12947.26
503.953	13315.89
504.156	13334.32
504.359	13281.08
504.562	13641.52
504.765	13805.36
504.968	13694.77
505.17	14108.46
505.373	14010.15
505.576	14362.4
505.779	14728.99
505.982	14511.91
506.185	14653.22
506.387	14788.38
506.59	15007.51
506.793	15374.1
506.996	15124.25
507.198	15656.72
507.401	15861.52
507.604	15869.71
507.807	16170.76
508.009	16348.93
508.212	16209.67
508.415	16428.81
508.617	16604.93
508.82	16654.08
509.022	16869.12
509.225	17241.85
509.428	17264.38
509.63	17413.88
509.833	17530.61
510.035	18030.32
510.238	17626.87
510.44	18167.53
510.643	18325.22
510.845	18357.99
511.048	18396.9
511.25	18718.43
511.453	18951.9
511.655	19670.74
511.858	19074.78
512.06	19377.88
512.262	19502.81
512.465	19437.27
512.667	20043.47
512.87	20295.37
513.072	19947.22
513.274	20674.24
513.477	20776.64
513.679	20946.62
513.881	21235.39
514.084	21345.98
514.286	21272.25
514.488	21440.18
514.69	21984.94
514.893	22415.02
515.095	22453.93
515.297	22419.11
515.499	22769.32
515.701	22666.92
515.904	22873.76
516.106	23221.92
516.308	23934.61
516.51	23559.83
516.712	23656.09
516.914	23658.13
517.116	24501.9
517.318	24561.29
517.52	24323.72
517.722	24700.55
517.925	25067.14
518.127	25532.03
518.329	25421.44
518.531	25388.67
518.733	25867.89
518.935	26205.81
519.136	26181.23
519.338	26576.49
519.54	26410.6
519.742	26930.79
519.944	26920.55
520.146	27416.16
520.348	27633.24
520.55	27729.5
520.752	27907.67
520.954	28032.6
521.155	27704.92
521.357	28366.42
521.559	28790.34
521.761	29240.9
521.963	28827.21
522.164	29212.23
522.366	29595.2
522.568	29216.32
522.77	29554.24
522.971	30172.72
523.173	29630.01
523.375	30211.63
523.576	30352.94
523.778	30662.19
523.98	30875.18
524.181	30983.72
524.383	31153.7
524.584	31860.25
524.786	31718.94
524.988	31233.57
525.189	31829.53
525.391	31985.18
525.592	32013.85
525.794	32441.87
525.995	32149.01
526.197	32726.54
526.398	32435.73
526.6	32978.44
526.801	32753.16
527.003	33148.42
527.204	33476.1
527.406	33437.19
527.607	33725.95
527.808	33730.05
528.01	33230.34
528.211	33461.76
528.412	34065.91
528.614	33953.27
528.815	34082.3
529.016	33973.75
529.218	34242.04
529.419	34078.2
529.62	34500.08
529.822	34428.4
530.023	34315.76
530.224	34672.11
530.425	34516.47
530.626	34254.33
530.828	34420.21
531.029	35169.77
531.23	34704.88
531.431	34633.2
531.632	34940.39
531.833	34997.74
532.035	34948.59
532.236	35274.21
532.437	35253.73
532.638	35024.36
532.839	35182.06
533.04	35368.42
533.241	34848.24
533.442	35456.48
533.643	35223.01
533.844	35378.66
534.045	35440.1
534.246	35384.8
534.447	35735.01
534.648	35362.28
534.849	35141.1
535.05	35319.27
535.251	35343.84
535.451	35388.9
535.652	35757.53
535.853	35356.13
536.054	35534.31
536.255	35651.04
536.456	35466.72
536.657	35907.04
536.857	35458.53
537.058	35458.53
537.259	35575.27
537.46	35806.69
537.66	35540.45
537.861	35433.96
538.062	35436
538.263	35892.7
538.463	35192.29
538.664	35515.87
538.865	35864.03
539.065	35888.6
539.266	35184.1
539.466	35757.53
539.667	35153.38
539.868	35689.95
540.068	35294.69
540.269	35376.61
540.469	35536.35
540.67	35352.04
540.87	35565.03
541.071	35393
541.271	35829.21
541.472	35642.85
541.672	35757.53
541.873	35225.06
542.073	35446.24
542.274	35569.12
542.474	35585.5
542.675	35358.18
542.875	35388.9
543.075	35294.69
543.276	35177.96
543.476	35638.75
543.676	35511.78
543.877	35454.43
544.077	35337.7
544.277	35397.09
544.478	35001.83
544.678	35393
544.878	35407.33
545.078	35393
545.279	34934.25
545.479	35192.29
545.679	35608.03
545.879	35397.09
546.079	35198.44
546.28	34977.26
546.48	34831.85
546.68	35063.27
546.88	35227.11
547.08	35233.25
547.28	35157.48
547.48	34889.2
547.68	35186.15
547.88	34856.43
548.081	35325.41
548.281	35188.2
548.481	35145.19
548.681	35462.63
548.881	35171.82
549.081	35227.11
549.28	35196.39
549.48	35087.85
549.68	35010.03
549.88	35134.95
550.08	34987.5
550.28	35495.39
550.48	34887.15
550.68	35433.96
550.88	34985.45
551.08	34848.24
551.279	34973.16
551.479	34969.07
551.679	35065.32
551.879	34418.16
552.079	34977.26
552.278	34930.15
552.478	34704.88
552.678	34844.14
552.878	34928.11
553.077	34745.84
553.277	34801.13
553.477	35175.91
553.676	34954.73
553.876	34680.3
554.076	34620.91
554.275	34745.84
554.475	34375.16
554.674	35098.09
554.874	34518.51
555.074	34520.56
555.273	34811.37
555.473	34840.04
555.672	34276.85
555.872	34508.27
556.071	34180.6
556.271	34323.96
556.47	34133.5
556.67	33932.79
556.869	34010.62
557.068	34385.4
557.268	33975.8
557.467	34420.21
557.667	34403.83
557.866	34373.11
558.065	34369.01
558.265	33971.71
558.464	33969.66
558.663	34223.61
558.863	33623.55
559.062	34317.81
559.261	33797.63
559.461	33697.28
559.66	33525.25
559.859	33719.81
560.058	33482.24
560.258	33887.74
560.457	33469.95
560.656	33660.41
560.855	33498.62
561.054	33494.53
561.253	33484.29
561.453	33523.2
561.652	33304.07
561.851	33506.82
562.05	33381.89
562.249	32865.8
562.448	33375.75
562.647	33539.58
562.846	33054.22
563.045	32962.06
563.244	32730.64
563.443	32839.18
563.642	32593.42
563.841	32816.65
564.04	32507.41
564.239	32960.01
564.438	32271.89
564.637	32247.32
564.836	32456.21
565.035	32222.74
565.234	32179.73
565.432	32140.82
565.631	32019.99
565.83	32132.63
566.029	31768.09
566.228	32067.09
566.427	31940.12
566.625	31780.38
566.824	31675.93
567.023	32058.9
567.222	31366.69
567.42	31708.7
567.619	31348.26
567.818	31358.5
568.016	31321.63
568.215	31755.8
568.414	31143.46
568.612	31870.49
568.811	31237.67
569.01	31198.76
569.208	30742.06
569.407	30959.14
569.605	30676.52
569.804	30961.19
570.002	30428.72
570.201	30858.79
570.4	30373.42
570.598	30139.96
570.797	30219.83
570.995	30400.05
571.193	30068.28
571.392	30383.66
571.59	29945.4
571.789	30160.44
571.987	29756.99
572.186	30125.62
572.384	29521.47
572.582	29877.82
572.781	29763.13
572.979	29576.76
573.177	29673.02
573.376	29652.54
573.574	29269.57
573.772	29525.57
573.971	29296.19
574.169	29218.37
574.367	29247.04
574.565	29310.53
574.763	28905.03
574.962	28952.13
575.16	28612.17
575.358	29027.91
575.556	28530.25
575.754	28892.74
575.952	28231.25
576.151	28679.75
576.349	28366.42
576.547	28380.75
576.745	28350.03
576.943	28272.21
577.141	28118.61
577.339	28165.71
577.537	27977.3
577.735	27944.53
577.933	27846.23
578.131	27778.65
578.329	27661.91
578.527	27418.21
578.725	27711.07
578.923	27614.81
579.121	27547.23
579.319	27192.93
579.516	27293.28
579.714	27432.54
579.912	27211.36
580.11	26822.25
580.308	26840.68
580.506	27031.14
580.704	26531.44
580.901	27031.14
581.099	27221.6
581.297	26711.66
581.495	26842.73
581.692	26646.12
581.89	26154.61
582.088	26535.53
582.285	26095.22
582.483	26457.71
582.681	26254.96
582.878	26238.58
583.076	25720.44
583.274	26429.04
583.471	25812.6
583.669	26099.31
583.866	26084.98
584.064	25798.26
584.262	25476.73
584.459	25779.83
584.657	25726.58
584.854	25765.49
585.052	25392.76
585.249	25329.28
585.447	25396.86
585.644	25077.38
585.841	25216.64
586.039	25327.23
586.236	24786.57
586.434	25132.67
586.631	24655.5
586.828	24997.51
587.026	24643.21
587.223	24583.82
587.42	24710.79
587.618	24587.91
587.815	24503.95
588.012	24561.29
588.21	24131.22
588.407	24467.08
588.604	24331.92
588.801	23678.61
588.999	24086.16
589.196	23764.63
589.393	24022.67
589.59	23916.18
589.787	23492.25
589.984	23948.95
590.182	23584.41
590.379	23580.31
590.576	23432.86
590.773	23545.5
590.97	23424.67
591.167	23266.97
591.364	23113.38
591.561	23291.55
591.758	22959.78
591.955	22965.92
592.152	23201.44
592.349	22947.49
592.546	23041.7
592.743	22933.15
592.94	22517.42
593.137	22832.8
593.334	22707.88
593.531	22365.87
593.727	22595.24
593.924	22562.47
594.121	22173.36
594.318	22337.2
594.515	22161.07
594.712	22357.67
594.908	22103.73
595.105	21892.79
595.302	21970.61
595.499	21722.8
595.696	21974.7
595.892	21667.51
596.089	21923.51
596.286	21952.18
596.482	21589.69
596.679	21556.92
596.876	21702.32
597.072	21524.15
597.269	21411.51
597.466	21317.31
597.662	21006.02
597.859	21049.02
598.055	21141.18
598.252	20858.56
598.448	20827.84
598.645	20922.05
598.841	20709.06
599.038	20899.52
599.234	20876.99
599.431	20502.22
599.627	20393.67
599.824	20700.87
600.02	20129.48
600.217	20551.37
600.413	20113.1
600.609	20412.1
600.806	20045.52
601.002	20221.64
601.198	20389.58
601.395	19977.94
601.591	20016.85
601.787	19697.36
601.984	19984.08
602.18	19814.1
602.376	19633.88
602.572	19707.6
602.769	19734.23
602.965	19295.96
603.161	19549.91
603.357	19320.54
603.553	19416.79
603.75	19629.78
603.946	19001.05
604.142	19238.62
604.338	19011.29
604.534	19089.12
604.73	18888.42
604.926	18839.26
605.122	18964.19
605.318	18818.78
605.514	18857.7
605.71	18792.16
605.906	18814.69
606.102	18769.63
606.298	18738.91
606.494	19009.25
606.69	18491.11
606.886	18568.93
607.082	18347.75
607.278	18435.81
607.474	18288.36
607.67	18562.79
607.866	18376.42
608.062	18218.73
608.257	18288.36
608.453	18265.83
608.649	18378.47
608.845	18325.22
609.041	17925.87
609.236	17897.2
609.432	18061.04
609.628	17889.01
609.824	18067.18
610.019	17764.08
610.215	17960.69
610.411	17805.04
610.606	17581.81
610.802	17612.53
610.998	17716.98
611.193	17606.39
611.389	17641.2
611.584	17600.24
611.78	17438.45
611.976	17829.62
612.171	17241.85
612.367	17434.36
612.562	17442.55
612.758	16985.85
612.953	17118.97
613.149	17473.27
613.344	17164.03
613.539	17508.08
613.735	17219.32
613.93	17194.75
614.126	17035
614.321	17284.86
614.517	17211.13
614.712	17000.19
614.907	16830.21
615.103	16948.99
615.298	17024.76
615.493	16932.61
615.688	16951.04
615.884	17161.98
616.079	16680.71
616.274	16848.64
616.47	16643.84
616.665	16955.13
616.86	16762.62
617.055	16643.84
617.25	16799.49
617.445	16674.56
617.641	16477.96
617.836	16488.2
618.031	16168.71
618.226	16570.12
618.421	16551.68
618.616	16391.94
618.811	16074.51
619.006	16430.85
619.201	15875.85
619.396	16371.46
619.591	15791.89
619.786	16008.97
619.981	15890.19
620.176	15863.57
620.371	15662.86
620.566	15779.6
620.761	15626
620.956	15314.71
621.151	15281.94
621.346	15855.37
621.541	15167.26
621.735	15595.28
621.93	15288.09
622.125	15181.59
622.32	14765.85
622.515	15144.73
622.709	15023.9
622.904	14821.15
623.099	14827.29
623.294	14675.74
623.488	14354.21
623.683	14415.65
623.878	14194.47
624.072	14264.1
624.267	14581.54
624.462	14182.18
624.656	13956.91
624.851	14102.31
625.046	14100.26
625.24	13874.99
625.435	13860.65
625.629	13778.73
625.824	13549.36
626.018	13555.51
626.213	13219.64
626.407	13399.86
626.602	13377.33
626.796	13360.95
626.991	13225.78
627.185	13410.1
627.38	12988.22
627.574	12986.17
627.768	12875.58
627.963	13125.43
628.157	12824.38
628.352	12705.6
628.546	12652.35
628.74	12812.09
628.935	12533.57
629.129	12650.3
629.323	12361.54
629.517	12394.31
629.712	12308.29
629.906	12099.4
630.1	12025.67
630.294	11988.81
630.489	11849.55
630.683	12173.13
630.877	11642.7
631.071	11951.95
631.265	11833.16
631.459	11503.44
631.653	11644.75
631.848	11661.13
632.042	11466.58
632.236	11573.07
632.43	11286.36
632.624	11413.33
632.818	11360.08
633.012	11245.4
633.206	11226.96
633.4	11202.39
633.594	11202.39
633.788	11073.37
633.982	11030.36
634.176	10952.54
634.369	10983.26
634.563	10741.6
634.757	10788.7
634.951	10745.69
635.145	10688.35
635.339	10823.51
635.533	10463.07
635.726	10592.09
635.92	10495.84
636.114	10340.19
636.308	10458.98
636.501	10215.27
636.695	10145.64
636.889	10139.49
637.083	10215.27
637.276	10401.63
637.47	10094.44
637.664	10092.39
637.857	10020.71
638.051	9789.29
638.244	9744.24
638.438	9899.88
638.632	9668.46
638.825	9389.94
639.019	9639.79
639.212	9545.58
639.406	9695.08
639.599	9457.52
639.793	9484.14
639.986	9303.92
640.18	9267.06
640.373	9387.89
640.567	8988.53
640.76	9133.94
640.954	9105.27
641.147	8966.01
641.34	9009.01
641.534	9013.11
641.727	8931.19
641.92	8830.84
642.114	8820.6
642.307	8767.35
642.5	8689.53
642.694	8578.94
642.887	8361.86
643.08	8710.01
643.273	8466.3
643.467	8224.64
643.66	8439.68
643.853	8396.67
644.046	8292.23
644.239	8368
644.432	8238.98
644.626	8183.68
644.819	8077.19
645.012	8224.64
645.205	8284.03
645.398	7997.32
645.591	8075.14
645.784	8073.09
645.977	8044.42
646.17	7944.07
646.363	7794.57
646.556	7663.5
646.749	7831.43
646.942	7956.36
647.135	7604.11
647.328	7624.59
647.521	7538.57
647.714	7649.16
647.907	7632.78
648.099	7188.37
648.292	7352.21
648.485	7358.35
648.678	7329.68
648.871	7341.97
649.064	7290.77
649.256	7309.2
649.449	7157.65
649.642	7350.16
649.835	7264.15
650.027	6950.81
650.22	6985.62
650.413	7180.18
650.605	6862.74
650.798	6854.55
650.991	6934.42
651.183	6887.32
651.376	6807.45
651.568	6897.56
651.761	6840.22
651.954	6758.3
652.146	6584.22
652.339	6731.67
652.531	6659.99
652.724	6647.71
652.916	6705.05
653.109	6313.89
653.301	6563.74
653.494	6518.68
653.686	6328.22
653.879	6553.5
654.071	6459.29
654.263	6289.31
654.456	6342.56
654.648	6231.97
654.84	6012.84
655.033	6158.24
655.225	6209.44
655.417	6215.59
655.61	5978.02
655.802	6031.27
655.994	5984.16
656.186	5902.25
656.379	5978.02
656.571	5949.35
656.763	5898.15
656.955	5935.01
657.148	5832.61
657.34	5785.51
657.532	5762.98
657.724	5762.98
657.916	5808.04
658.108	5787.56
658.3	5767.08
658.492	5707.69
658.684	5658.54
658.876	5543.85
659.068	5652.39
659.26	5599.15
659.452	5533.61
659.644	5486.51
659.836	5463.98
660.028	5355.44
660.22	5359.53
660.412	5273.52
660.604	5343.15
660.796	5484.46
660.988	5351.34
661.18	5267.38
661.372	5164.98
661.563	5175.22
661.755	4966.32
661.947	5179.31
662.139	5035.96
662.331	5183.41
662.522	5117.87
662.714	5091.25
662.906	4984.76
663.097	5033.91
663.289	5021.62
663.481	5021.62
663.673	4915.12
663.864	4900.79
664.056	4861.88
664.247	4906.93
664.439	4847.54
664.631	4878.26
664.822	4736.95
665.014	4872.12
665.205	4816.82
665.397	4534.2
665.588	4720.57
665.78	4622.27
665.971	4732.86
666.163	4630.46
666.354	4681.66
666.546	4532.15
666.737	4650.94
666.929	4597.69
667.12	4595.64
667.311	4759.48
667.503	4616.12
667.694	4689.85
667.885	4505.53
668.077	4544.44
668.268	4349.89
668.459	4319.17
668.651	4444.09
668.842	4444.09
669.033	4272.06
669.224	4292.54
669.416	4263.87
669.607	4401.08
669.798	4384.7
669.989	4278.21
670.18	4267.97
670.371	4360.13
670.563	4200.38
670.754	4206.53
670.945	4161.47
671.136	4153.28
671.327	4216.77
671.518	4118.47
671.709	4116.42
671.9	4020.16
672.091	4054.98
672.282	4212.67
672.473	4057.03
672.664	4003.78
672.855	4011.97
673.046	3911.62
673.237	3993.54
673.428	3948.48
673.619	4075.46
673.809	3913.67
674	3958.72
674.191	3813.32
674.382	3958.72
674.573	3794.89
674.764	3946.44
674.954	3940.29
675.145	3899.33
675.336	3872.71
675.527	3860.42
675.717	3919.81
675.908	3815.37
676.099	3876.8
676.289	3844.04
676.48	3782.6
676.671	3794.89
676.861	3758.02
677.052	3792.84
677.243	3782.6
677.433	3661.77
677.624	3696.58
677.814	3860.42
678.005	3721.16
678.195	3708.87
678.386	3792.84
678.576	3753.93
678.767	3622.86
678.957	3747.78
679.148	3626.95
679.338	3751.88
679.529	3680.2
679.719	3760.07
679.909	3721.16
680.1	3676.1
680.29	3653.58
680.481	3577.8
680.671	3694.54
680.861	3483.59
681.052	3610.57
681.242	3571.66
681.432	3719.11
681.622	3567.56
681.813	3655.62
682.003	3532.75
682.193	3534.79
682.383	3594.19
682.573	3661.77
682.764	3563.47
682.954	3426.25
683.144	3567.56
683.334	3563.47
683.524	3520.46
683.714	3641.29
683.904	3403.72
684.094	3502.03
684.284	3510.22
684.474	3549.13
684.664	3463.12
684.854	3522.51
685.044	3534.79
685.234	3547.08
685.424	3416.01
685.614	3385.29
685.804	3407.82
685.994	3364.81
686.184	3375.05
686.374	3381.2
686.564	3135.44
686.753	3448.78
686.943	3307.47
687.133	3309.52
687.323	3149.78
687.513	3424.2
687.702	3295.18
687.892	3213.26
688.082	3366.86
688.272	3203.02
688.461	3215.31
688.651	3164.11
688.841	3203.02
689.03	3280.85
689.22	3121.1
689.41	3104.72
689.599	3170.26
689.789	3022.8
689.979	3033.04
690.168	3170.26
690.358	3047.38
690.547	2914.26
690.737	2955.22
690.926	2951.12
691.116	3051.47
691.305	3065.81
691.495	2852.82
691.684	2953.17
691.874	2990.03
692.063	2967.51
692.252	2967.51
692.442	2975.7
692.631	2895.83
692.82	2955.22
693.01	2938.84
693.199	2926.55
693.388	2861.01
693.578	2977.75
693.767	2867.16
693.956	2793.43
694.146	2789.33
694.335	2785.24
694.524	2828.24
694.713	2822.1
694.902	2820.05
695.092	2703.32
695.281	2719.7
695.47	2666.46
695.659	2791.38
695.848	2803.67
696.037	2881.49
696.226	2768.85
696.415	2742.23
696.604	2820.05
696.793	2731.99
696.982	2643.93
697.171	2711.51
697.36	2668.5
697.549	2752.47
697.738	2754.52
697.927	2576.34
698.116	2588.63
698.305	2766.81
698.494	2627.54
698.683	2670.55
698.872	2562.01
699.061	2619.35
699.25	2697.17
699.438	2639.83
699.627	2590.68
699.816	2635.74
700.005	2627.54
700.193	2674.65
700.382	2740.18
700.571	2580.44
700.76	2619.35
700.948	2562.01
701.137	2545.63
701.326	2611.16
701.514	2670.55
701.703	2613.21
701.892	2723.8
702.08	2648.02
702.269	2578.39
702.457	2430.94
702.646	2582.49
702.834	2602.97
703.023	2598.87
703.212	2688.98
703.4	2525.15
703.589	2609.11
703.777	2547.67
703.965	2490.33
704.154	2514.91
704.342	2475.99
704.531	2516.95
704.719	2564.06
704.907	2596.82
705.096	2523.1
705.284	2588.63
705.472	2545.63
705.661	2512.86
705.849	2615.26
706.037	2586.58
706.226	2449.37
706.414	2512.86
706.602	2533.34
706.79	2562.01
706.979	2570.2
707.167	2559.96
707.355	2650.07
707.543	2615.26
707.731	2627.54
707.919	2516.95
708.107	2609.11
708.296	2543.58
708.484	2566.1
708.672	2428.89
708.86	2432.99
709.048	2609.11
709.236	2551.77
709.424	2643.93
709.612	2498.52
709.8	2570.2
709.988	2521.05
710.176	2584.54
710.364	2594.78
710.551	2529.24
710.739	2475.99
710.927	2727.89
711.115	2625.5
711.303	2549.72
711.491	2574.3
711.679	2512.86
711.866	2621.4
712.054	2707.41
712.242	2584.54
712.43	2537.43
712.617	2658.26
712.805	2525.15
712.993	2572.25
713.181	2590.68
713.368	2627.54
713.556	2611.16
713.744	2607.06
713.931	2580.44
714.119	2588.63
714.306	2619.35
714.494	2664.41
714.682	2660.31
714.869	2639.83
715.057	2557.91
715.244	2574.3
715.432	2652.12
715.619	2783.19
715.807	2619.35
715.994	2594.78
716.182	2637.78
716.369	2621.4
716.556	2715.61
716.744	2594.78
716.931	2688.98
717.119	2576.34
717.306	2742.23
717.493	2701.27
717.681	2650.07
717.868	2584.54
718.055	2576.34
718.242	2725.85
718.43	2533.34
718.617	2693.08
718.804	2516.95
718.991	2721.75
719.179	2605.02
719.366	2711.51
719.553	2623.45
719.74	2617.3
719.927	2633.69
720.114	2656.22
720.301	2568.15
720.488	2598.87
720.676	2705.37
720.863	2627.54
721.05	2734.04
721.237	2711.51
721.424	2725.85
721.611	2666.46
721.798	2615.26
721.985	2680.79
722.172	2676.7
722.358	2731.99
722.545	2641.88
722.732	2605.02
722.919	2664.41
723.106	2535.39
723.293	2658.26
723.48	2820.05
723.667	2600.92
723.853	2656.22
724.04	2783.19
724.227	2664.41
724.414	2656.22
724.6	2582.49
724.787	2656.22
724.974	2672.6
725.161	2615.26
725.347	2615.26
725.534	2760.66
725.72	2562.01
725.907	2717.65
726.094	2627.54
726.28	2664.41
726.467	2586.58
726.653	2580.44
726.84	2656.22
727.027	2660.31
727.213	2549.72
727.4	2674.65
727.586	2772.95
727.773	2725.85
727.959	2566.1
728.145	2699.22
728.332	2592.73
728.518	2662.36
728.705	2629.59
728.891	2682.84
729.077	2686.93
729.264	2635.74
729.45	2734.04
729.636	2709.46
729.823	2691.03
730.009	2682.84
730.195	2641.88
730.382	2699.22
730.568	2801.62
730.754	2637.78
730.94	2670.55
731.126	2588.63
731.313	2731.99
731.499	2617.3
731.685	2660.31
731.871	2865.11
732.057	2631.64
732.243	2674.65
732.429	2725.85
732.615	2731.99
732.801	2627.54
732.987	2670.55
733.173	2570.2
733.359	2662.36
733.545	2662.36
733.731	2680.79
733.917	2818.01
734.103	2615.26
734.289	2707.41
734.475	2562.01
734.661	2576.34
734.847	2619.35
735.033	2639.83
735.219	2537.43
735.404	2551.77
735.59	2627.54
735.776	2543.58
735.962	2705.37
736.148	2656.22
736.333	2680.79
736.519	2688.98
736.705	2602.97
736.89	2564.06
737.076	2662.36
737.262	2578.39
737.447	2578.39
737.633	2660.31
737.819	2600.92
738.004	2553.82
738.19	2557.91
738.375	2512.86
738.561	2666.46
738.747	2609.11
738.932	2566.1
739.118	2453.47
739.303	2580.44
739.489	2506.71
739.674	2531.29
739.859	2498.52
740.045	2482.14
740.23	2471.9
740.416	2523.1
740.601	2621.4
740.786	2463.71
740.972	2402.27
741.157	2506.71
741.342	2467.8
741.528	2383.84
741.713	2504.67
741.898	2351.07
742.084	2441.18
742.269	2379.74
742.454	2375.64
742.639	2392.03
742.824	2416.6
743.01	2426.84
743.195	2338.78
743.38	2383.84
743.565	2426.84
743.75	2291.68
743.935	2439.13
744.12	2367.45
744.305	2314.2
744.49	2191.33
744.675	2330.59
744.86	2320.35
745.045	2244.57
745.23	2338.78
745.415	2232.29
745.6	2394.08
745.785	2224.09
745.97	2195.42
746.155	2144.22
746.34	2265.05
746.525	2189.28
746.71	2228.19
746.895	2144.22
747.079	2222.05
747.264	2131.94
747.449	2119.65
747.634	2013.15
747.819	2209.76
748.003	2056.16
748.188	2031.58
748.373	2021.35
748.557	2066.4
748.742	2011.11
748.927	2123.74
749.111	1992.67
749.296	2023.39
749.481	1966.05
749.665	1988.58
749.85	2021.35
750.034	2015.2
750.219	1828.84
750.404	2013.15
750.588	1814.5
750.773	1908.71
750.957	1888.23
751.141	1994.72
751.326	1943.52
751.51	1820.64
751.695	1902.56
751.879	1779.68
752.064	1830.88
752.248	1761.25
752.432	1824.74
752.617	1861.6
752.801	1808.36
752.985	1701.86
753.17	1748.97
753.354	1781.73
753.538	1685.48
753.722	1757.16
753.907	1697.77
754.091	1578.98
754.275	1636.33
754.459	1630.18
754.643	1671.14
754.828	1538.02
755.012	1685.48
755.196	1646.57
755.38	1648.61
755.564	1619.94
755.748	1646.57
755.932	1550.31
756.116	1490.92
756.3	1554.41
756.484	1527.78
756.668	1538.02
756.852	1454.06
757.036	1542.12
757.22	1462.25
757.404	1472.49
757.588	1441.77
757.772	1394.67
757.956	1460.2
758.14	1523.69
758.323	1386.47
758.507	1519.59
758.691	1400.81
758.875	1443.82
759.059	1380.33
759.242	1447.91
759.426	1400.81
759.61	1304.56
759.794	1447.91
759.977	1312.75
760.161	1433.58
760.345	1353.71
760.528	1316.84
760.712	1386.47
760.895	1372.14
761.079	1337.32
761.263	1370.09
761.446	1249.26
761.63	1210.35
761.813	1277.93
761.997	1298.41
762.18	1234.93
762.364	1171.44
762.547	1220.59
762.731	1292.27
762.914	1165.29
763.098	1249.26
763.281	1234.93
763.464	1200.11
763.648	1214.45
763.831	1206.25
764.015	1163.25
764.198	1222.64
764.381	1202.16
764.564	1206.25
764.748	1167.34
764.931	1167.34
765.114	1175.53
765.297	1132.53
765.481	1091.57
765.664	1107.95
765.847	1142.77
766.03	1243.12
766.213	1173.49
766.397	1155.05
766.58	1087.47
766.763	1132.53
766.946	1136.62
767.129	1095.66
767.312	1030.13
767.495	1009.65
767.678	1071.09
767.861	1040.37
768.044	1122.29
768.227	1036.27
768.41	993.26
768.593	991.22
768.776	1015.79
768.959	1040.37
769.142	1075.18
769.324	962.55
769.507	1052.66
769.69	1001.46
769.873	1005.55
770.056	1183.73
770.239	1046.51
770.421	1077.23
770.604	937.97
770.787	993.26
770.97	931.83
771.152	999.41
771.335	1013.74
771.518	974.83
771.7	952.31
771.883	1052.66
772.066	940.02
772.248	944.11
772.431	923.63
772.613	915.44
772.796	901.11
772.978	874.48
773.161	905.2
773.343	794.61
773.526	794.61
773.708	882.67
773.891	890.87
774.073	878.58
774.256	911.35
774.438	913.39
774.621	815.09
774.803	899.06
774.985	815.09
775.168	968.69
775.35	802.8
775.532	884.72
775.715	792.56
775.897	907.25
776.079	856.05
776.261	806.9
776.444	786.42
776.626	806.9
776.808	741.36
776.99	716.79
777.173	761.84
777.355	741.36
777.537	858.1
777.719	821.24
777.901	774.13
778.083	790.52
778.265	704.5
778.447	714.74
778.629	706.55
778.811	741.36
778.993	782.32
779.175	745.46
779.357	741.36
779.539	704.5
779.721	708.6
779.903	737.27
780.085	684.02
780.267	745.46
780.449	651.25
780.631	626.68
780.812	667.64
780.994	604.15
781.176	704.5
781.358	663.54
781.54	688.12
781.721	679.93
781.903	632.82
782.085	579.58
782.267	643.06
782.448	610.29
782.63	641.01
782.812	548.86
782.993	612.34
783.175	604.15
783.357	583.67
783.538	567.29
783.72	565.24
783.901	557.05
784.083	610.29
784.264	528.38
784.446	581.62
784.627	622.58
784.809	516.09
784.99	595.96
785.172	499.7
785.353	557.05
785.535	616.44
785.716	522.23
785.897	497.66
786.079	544.76
786.26	550.9
786.441	557.05
786.623	505.85
786.804	542.71
786.985	411.64
787.167	491.51
787.348	468.98
787.529	530.42
787.71	542.71
787.891	466.94
788.073	477.18
788.254	456.7
788.435	452.6
788.616	446.46
788.797	471.03
788.978	440.31
789.159	393.21
789.34	436.22
789.522	430.07
789.703	530.42
789.884	468.98
790.065	497.66
790.246	473.08
790.427	454.65
790.607	471.03
790.788	462.84
790.969	376.83
791.15	350.2
791.331	329.72
791.512	419.83
791.693	337.91
791.874	395.26
792.054	415.74
792.235	372.73
792.416	323.58
792.597	333.82
792.778	415.74
792.958	333.82
793.139	450.55
793.32	362.49
793.5	354.3
793.681	466.94
793.862	448.51
794.042	350.2
794.223	301.05
794.404	307.2
794.584	331.77
794.765	274.43
794.945	348.15
795.126	399.35
795.306	368.63
795.487	315.39
795.667	348.15
795.848	397.31
796.028	331.77
796.209	372.73
796.389	344.06
796.57	376.83
796.75	286.72
796.93	329.72
797.111	348.15
797.291	301.05
797.471	360.44
797.652	342.01
797.832	370.68
798.012	258.04
798.192	235.52
798.373	272.38
798.553	354.3
798.733	266.24
798.913	319.48
799.093	380.92
799.274	208.89
799.454	311.29
799.634	305.15
799.814	286.72
799.994	266.24
800.174	274.43
800.354	309.24
800.534	243.71
800.714	346.11
800.894	335.87
801.074	301.05
801.254	241.66
801.434	315.39
801.614	212.99
801.794	249.85
801.974	681.97
802.154	286.72
802.334	243.71
802.514	272.38
802.693	241.66
802.873	239.61
803.053	307.2
803.233	190.46
803.413	202.75
803.592	256
803.772	284.67
803.952	251.9
804.131	233.47
804.311	241.66
804.491	210.94
804.67	137.21
804.85	268.28
805.03	206.84
805.209	258.04
805.389	247.8
805.568	247.8
805.748	245.76
805.928	206.84
806.107	278.52
806.287	176.13
806.466	239.61
806.646	233.47
806.825	219.13
807.004	276.48
807.184	241.66
807.363	264.19
807.543	194.56
807.722	253.95
807.901	219.13
808.081	188.41
808.26	208.89
808.439	225.28
808.619	258.04
808.798	253.95
808.977	155.65
809.156	241.66
809.336	227.32
809.515	239.61
809.694	198.65
809.873	229.37
810.052	182.27
810.231	202.75
810.411	159.74
810.59	212.99
810.769	141.31
810.948	227.32
811.127	215.04
811.306	258.04
811.485	186.37
811.664	249.85
811.843	194.56
812.022	253.95
812.201	223.23
812.38	106.49
812.559	163.84
812.737	227.32
812.916	210.94
813.095	196.6
813.274	210.94
813.453	163.84
813.632	186.37
813.811	198.65
813.989	139.26
814.168	229.37
814.347	215.04
814.526	131.07
814.704	172.03
814.883	180.22
815.062	135.17
815.24	241.66
815.419	133.12
815.598	159.74
815.776	200.7
815.955	114.69
816.133	133.12
816.312	153.6
816.49	118.78
816.669	155.65
816.847	153.6
817.026	188.41
817.204	141.31
817.383	75.77
817.561	145.41
817.74	202.75
817.918	116.73
818.097	200.7
818.275	94.21
818.453	161.79
818.632	149.5
818.81	141.31
818.988	143.36
819.167	112.64
819.345	47.1
819.523	143.36
819.701	163.84
819.879	169.98
820.058	114.69
820.236	151.55
820.414	133.12
820.592	151.55
820.77	157.69
820.948	137.21
821.127	172.03
821.305	126.97
821.483	75.77
821.661	157.69
821.839	108.54
822.017	106.49
822.195	110.59
822.373	118.78
822.551	110.59
822.729	192.51
822.907	124.93
823.085	163.84
823.262	223.23
823.44	79.87
823.618	182.27
823.796	120.83
823.974	106.49
824.152	204.8
824.329	163.84
824.507	151.55
824.685	174.08
824.863	114.69
825.04	178.17
825.218	110.59
825.396	112.64
825.574	155.65
825.751	90.11
825.929	112.64
826.107	118.78
826.284	18.43
826.462	159.74
826.639	71.68
826.817	77.82
826.994	151.55
827.172	104.45
827.349	126.97
827.527	86.01
827.704	86.01
827.882	96.25
828.059	108.54
828.237	147.45
828.414	114.69
828.591	124.93
828.769	100.35
828.946	126.97
829.124	124.93
829.301	69.63
829.478	88.06
829.655	49.15
829.833	147.45
830.01	77.82
830.187	188.41
830.364	86.01
830.542	231.42
830.719	77.82
830.896	227.32
831.073	67.58
831.25	40.96
831.427	45.06
831.604	114.69
831.782	94.21
831.959	100.35
832.136	88.06
832.313	79.87
832.49	55.3
832.667	116.73
832.844	63.49
833.021	100.35
833.198	75.77
833.374	118.78
833.551	106.49
833.728	110.59
833.905	79.87
834.082	165.89
834.259	77.82
834.436	26.62
834.612	53.25
834.789	38.91
834.966	24.58
835.143	51.2
835.319	63.49
835.496	79.87
835.673	61.44
835.85	110.59
836.026	137.21
836.203	106.49
836.38	88.06
836.556	112.64
836.733	67.58
836.909	151.55
837.086	124.93
837.262	71.68
837.439	79.87
837.616	65.53
837.792	40.96
837.968	79.87
838.145	45.06
838.321	86.01
838.498	120.83
838.674	57.34
838.851	88.06
839.027	36.86
839.203	12.29
839.38	57.34
839.556	120.83
839.732	108.54
839.909	24.58
840.085	69.63
840.261	-14.34
840.437	96.25
840.614	55.3
840.79	100.35
840.966	30.72
841.142	61.44
841.318	98.3
841.494	69.63
841.671	73.73
841.847	69.63
842.023	118.78
842.199	79.87
842.375	36.86
842.551	75.77
842.727	-30.72
842.903	88.06
843.079	-12.29
843.255	98.3
843.431	71.68
843.607	16.38
843.783	2.05
843.959	86.01
844.134	110.59
844.31	45.06
844.486	83.97
844.662	116.73
844.838	-2.05
845.013	47.1
845.189	81.92
845.365	61.44
845.541	81.92
845.716	126.97
845.892	22.53
846.068	36.86
846.244	32.77
846.419	38.91
846.595	4.1
846.77	96.25
846.946	59.39
847.122	51.2
847.297	38.91
847.473	69.63
847.648	16.38
847.824	36.86
847.999	47.1
848.175	47.1
848.35	55.3
848.526	55.3
848.701	90.11
848.876	92.16
849.052	49.15
849.227	10.24
849.403	110.59
849.578	28.67
849.753	26.62
849.929	100.35
850.104	16.38
850.279	51.2
850.454	47.1
850.63	106.49
850.805	49.15
850.98	4.1
851.155	83.97
851.33	12.29
851.505	26.62
851.681	20.48
851.856	-20.48
852.031	73.73
852.206	102.4
852.381	38.91
852.556	32.77
852.731	24.58
852.906	-12.29
853.081	81.92
853.256	67.58
853.431	67.58
853.606	-6.14
853.781	81.92
853.956	96.25
854.131	22.53
854.305	65.53
854.48	22.53
854.655	12.29
854.83	4.1
855.005	83.97
855.18	30.72
855.354	83.97
855.529	55.3
855.704	32.77
855.879	55.3
856.053	22.53
856.228	20.48
856.403	77.82
856.577	118.78
856.752	8.19
856.926	71.68
857.101	-49.15
857.276	47.1
857.45	-22.53
857.625	92.16
857.799	69.63
857.974	-38.91
858.148	96.25
858.323	116.73
858.497	45.06
858.672	32.77
858.846	51.2
859.02	102.4
859.195	-0
859.369	-20.48
859.543	2.05
859.718	-22.53
859.892	63.49
860.066	-22.53
860.241	34.82
860.415	133.12
860.589	86.01
860.763	34.82
860.938	43.01
861.112	18.43
861.286	49.15
861.46	83.97
861.634	63.49
861.808	61.44
861.982	6.14
862.157	-6.14
862.331	-61.44
862.505	-0
862.679	57.34
862.853	53.25
863.027	22.53
863.201	32.77
863.375	14.34
863.549	88.06
863.722	61.44
863.896	47.1
864.07	53.25
864.244	26.62
864.418	30.72
864.592	71.68
864.766	26.62
864.939	55.3
865.113	26.62
865.287	14.34
865.461	-71.68
865.634	-28.67
865.808	40.96
865.982	6.14
866.156	36.86
866.329	79.87
866.503	55.3
866.676	-10.24
866.85	55.3
867.024	-36.86
867.197	-20.48
867.371	-32.77
867.544	-38.91
867.718	69.63
867.891	-20.48
868.065	-69.63
868.238	24.58
868.412	57.34
868.585	67.58
868.759	14.34
868.932	-16.38
869.105	-6.14
869.279	86.01
869.452	-16.38
869.625	-2.05
869.799	79.87
869.972	-22.53
870.145	86.01
870.319	-24.58
870.492	-40.96
870.665	-6.14
870.838	18.43
871.011	-0
871.185	40.96
871.358	67.58
871.531	34.82
871.704	-24.58
871.877	10.24
872.05	8.19
872.223	40.96
872.396	-43.01
872.569	32.77
872.742	-20.48
872.915	18.43
873.088	-30.72
873.261	-57.34
873.434	-20.48
873.607	-20.48
873.78	34.82
873.953	12.29
874.126	14.34
874.299	-6.14
874.471	22.53
874.644	63.49
874.817	36.86
874.99	38.91
875.163	-43.01
875.335	36.86
875.508	-0
875.681	51.2
875.853	-51.2
876.026	-6.14
876.199	-26.62
876.371	-6.14
876.544	36.86
876.717	32.77
876.889	-26.62
877.062	77.82
877.234	-22.53
877.407	32.77
877.579	26.62
877.752	24.58
877.924	38.91
878.097	92.16
878.269	61.44
878.442	34.82
878.614	-12.29
878.786	30.72
878.959	-4.1
879.131	53.25
879.303	-12.29
879.476	-2.05
879.648	-4.1
879.82	53.25
879.993	8.19
880.165	-28.67
880.337	32.77
880.509	92.16
880.681	-6.14
880.854	10.24
881.026	28.67
881.198	86.01
881.37	12.29
881.542	10.24
881.714	-51.2
881.886	-30.72
882.058	-22.53
882.23	10.24
882.402	20.48
882.574	47.1
882.746	-10.24
882.918	96.25
883.09	22.53
883.262	-6.14
883.434	6.14
883.606	-63.49
883.778	81.92
883.95	49.15
884.122	-0
884.293	55.3
884.465	26.62
884.637	92.16
884.809	30.72
884.98	69.63
885.152	4.1
885.324	-28.67
885.496	43.01
885.667	-34.82
885.839	34.82
886.011	90.11
886.182	57.34
886.354	-0
886.525	40.96
886.697	24.58
886.869	-2.05
887.04	28.67
887.212	-18.43
887.383	2.05
887.555	-12.29
887.726	6.14
887.897	-75.77
888.069	-18.43
888.24	-12.29
888.412	43.01
888.583	90.11
888.754	-2.05
888.926	-47.1
889.097	57.34
889.268	51.2
889.44	12.29
889.611	32.77
889.782	-8.19
889.953	12.29
890.125	18.43
890.296	34.82
890.467	-10.24
890.638	-40.96
890.809	14.34
890.98	-0
891.151	26.62
891.323	-16.38
891.494	30.72
891.665	-22.53
891.836	36.86
892.007	30.72
892.178	59.39
892.349	8.19
892.52	22.53
892.691	16.38
892.862	-6.14
893.032	-12.29
893.203	32.77
893.374	57.34
893.545	4.1
893.716	30.72
893.887	14.34
894.057	26.62
894.228	-47.1
894.399	14.34
894.57	26.62
894.74	18.43
894.911	-6.14
895.082	-24.58
895.253	-4.1
895.423	-83.97
895.594	-30.72
895.764	53.25
895.935	34.82
896.106	22.53
896.276	-14.34
896.447	-49.15
896.617	-2.05
896.788	-14.34
896.958	16.38
897.129	-90.11
897.299	12.29
897.47	2.05
897.64	40.96
897.81	-4.1
897.981	20.48
898.151	12.29
898.322	57.34
898.492	88.06
898.662	32.77
898.832	-100.35
899.003	51.2
899.173	-18.43
899.343	-10.24
899.513	26.62
