Data from USB4F104151__93__11-52-59-259.txt Node

Date: Fri Mar 14 11:52:59 EDT 2025
User: louis
Spectrometer: USB4F10415
Trigger mode: 4
Integration Time (sec): 2.000000E-2
Scans to average: 1
Electric dark correction enabled: true
Nonlinearity correction enabled: false
Boxcar width: 0
XAxis mode: Wavelengths
Number of Pixels in Spectrum: 3648
>>>>>Begin Spectral Data<<<<<
178.204	-98.13
178.424	-98.13
178.644	-98.13
178.864	-53.08
179.084	-87.89
179.304	16.55
179.524	-30.55
179.744	-8.02
179.964	18.6
180.184	-53.08
180.404	-36.69
180.624	-30.55
180.844	102.57
181.064	-3.93
181.283	-16.21
181.503	-8.02
181.723	49.32
181.943	-42.84
182.163	24.75
182.383	-8.02
182.602	-34.64
182.822	45.23
183.042	-12.12
183.262	57.51
183.482	82.09
183.701	-34.64
183.921	0.17
184.141	34.99
184.361	12.46
184.58	8.36
184.8	28.84
185.02	-26.45
185.239	104.62
185.459	18.6
185.679	39.08
185.898	-30.55
186.118	-10.07
186.338	-34.64
186.557	-5.97
186.777	41.13
186.997	51.37
187.216	37.03
187.436	45.23
187.655	32.94
187.875	-10.07
188.095	-10.07
188.314	57.51
188.534	49.32
188.753	-32.6
188.973	34.99
189.192	8.36
189.412	-34.64
189.631	24.75
189.851	-1.88
190.07	92.33
190.29	-20.31
190.509	47.27
190.729	-20.31
190.948	43.18
191.168	69.8
191.387	94.38
191.607	-1.88
191.826	39.08
192.045	22.7
192.265	10.41
192.484	10.41
192.704	-10.07
192.923	8.36
193.142	67.75
193.362	75.95
193.581	59.56
193.8	55.47
194.02	104.62
194.239	47.27
194.458	37.03
194.678	16.55
194.897	-1.88
195.116	55.47
195.335	20.65
195.555	41.13
195.774	16.55
195.993	8.36
196.212	24.75
196.432	51.37
196.651	12.46
196.87	-20.31
197.089	49.32
197.308	53.42
197.528	65.71
197.747	-1.88
197.966	-8.02
198.185	0.17
198.404	22.7
198.623	14.51
198.842	34.99
199.062	59.56
199.281	73.9
199.5	34.99
199.719	24.75
199.938	-65.36
200.157	67.75
200.376	55.47
200.595	45.23
200.814	37.03
201.033	-3.93
201.252	14.51
201.471	-36.69
201.69	-24.4
201.909	32.94
202.128	-30.55
202.347	12.46
202.566	34.99
202.785	-12.12
203.004	0.17
203.223	34.99
203.442	32.94
203.661	32.94
203.879	55.47
204.098	65.71
204.317	-40.79
204.536	4.27
204.755	47.27
204.974	65.71
205.193	-22.36
205.411	16.55
205.63	71.85
205.849	-36.69
206.068	-18.26
206.287	37.03
206.505	-36.69
206.724	-30.55
206.943	28.84
207.162	-20.31
207.381	-53.08
207.599	-53.08
207.818	12.46
208.037	-40.79
208.255	-12.12
208.474	12.46
208.693	-16.21
208.911	32.94
209.13	-28.5
209.349	34.99
209.567	-20.31
209.786	67.75
210.005	-10.07
210.223	118.95
210.442	-34.64
210.661	22.7
210.879	-44.88
211.098	39.08
211.316	18.6
211.535	59.56
211.753	-8.02
211.972	67.75
212.191	65.71
212.409	-1.88
212.628	-1.88
212.846	-85.84
213.065	77.99
213.283	-83.8
213.502	-38.74
213.72	10.41
213.938	73.9
214.157	6.31
214.375	-53.08
214.594	16.55
214.812	28.84
215.031	43.18
215.249	-10.07
215.467	37.03
215.686	49.32
215.904	34.99
216.122	-46.93
216.341	4.27
216.559	-5.97
216.778	34.99
216.996	-5.97
217.214	-12.12
217.432	41.13
217.651	-32.6
217.869	59.56
218.087	55.47
218.306	2.22
218.524	10.41
218.742	-10.07
218.96	65.71
219.179	22.7
219.397	-22.36
219.615	22.7
219.833	14.51
220.051	32.94
220.27	63.66
220.488	73.9
220.706	26.79
220.924	82.09
221.142	2.22
221.36	32.94
221.578	6.31
221.796	-16.21
222.015	-26.45
222.233	53.42
222.451	8.36
222.669	-28.5
222.887	112.81
223.105	-3.93
223.323	20.65
223.541	-32.6
223.759	12.46
223.977	26.79
224.195	77.99
224.413	16.55
224.631	77.99
224.849	-71.51
225.067	24.75
225.285	30.89
225.503	-12.12
225.721	-8.02
225.939	22.7
226.157	4.27
226.375	53.42
226.592	-3.93
226.81	-24.4
227.028	-3.93
227.246	80.04
227.464	-40.79
227.682	-18.26
227.9	-28.5
228.117	-26.45
228.335	110.76
228.553	82.09
228.771	22.7
228.989	75.95
229.206	-18.26
229.424	28.84
229.642	6.31
229.86	-1.88
230.077	69.8
230.295	82.09
230.513	2.22
230.731	26.79
230.948	-30.55
231.166	51.37
231.384	51.37
231.601	28.84
231.819	86.19
232.037	-53.08
232.254	-12.12
232.472	12.46
232.689	24.75
232.907	16.55
233.125	-8.02
233.342	75.95
233.56	24.75
233.777	-22.36
233.995	22.7
234.213	96.43
234.43	-24.4
234.648	14.51
234.865	-18.26
235.083	4.27
235.3	34.99
235.518	30.89
235.735	16.55
235.953	59.56
236.17	-24.4
236.388	-10.07
236.605	51.37
236.822	92.33
237.04	59.56
237.257	30.89
237.475	-34.64
237.692	51.37
237.909	-1.88
238.127	-8.02
238.344	6.31
238.562	59.56
238.779	14.51
238.996	32.94
239.214	41.13
239.431	34.99
239.648	12.46
239.865	30.89
240.083	114.86
240.3	-10.07
240.517	10.41
240.735	-18.26
240.952	108.71
241.169	37.03
241.386	47.27
241.603	59.56
241.821	6.31
242.038	12.46
242.255	2.22
242.472	-18.26
242.689	34.99
242.907	32.94
243.124	-3.93
243.341	37.03
243.558	-20.31
243.775	43.18
243.992	-40.79
244.209	67.75
244.426	28.84
244.643	-36.69
244.86	-1.88
245.078	16.55
245.295	-1.88
245.512	39.08
245.729	-30.55
245.946	61.61
246.163	-22.36
246.38	14.51
246.597	34.99
246.814	51.37
247.031	32.94
247.248	-16.21
247.464	-3.93
247.681	-28.5
247.898	63.66
248.115	92.33
248.332	45.23
248.549	49.32
248.766	69.8
248.983	24.75
249.2	16.55
249.417	37.03
249.633	-40.79
249.85	20.65
250.067	6.31
250.284	30.89
250.501	-12.12
250.717	0.17
250.934	-42.84
251.151	30.89
251.368	116.9
251.585	-14.17
251.801	14.51
252.018	22.7
252.235	-3.93
252.451	-5.97
252.668	6.31
252.885	-24.4
253.102	-57.17
253.318	-44.88
253.535	-8.02
253.752	-12.12
253.968	34.99
254.185	39.08
254.401	28.84
254.618	67.75
254.835	24.75
255.051	51.37
255.268	63.66
255.484	0.17
255.701	-44.88
255.917	8.36
256.134	6.31
256.351	59.56
256.567	-3.93
256.784	57.51
257	6.31
257.217	34.99
257.433	41.13
257.65	28.84
257.866	47.27
258.082	59.56
258.299	4.27
258.515	67.75
258.732	57.51
258.948	51.37
259.165	73.9
259.381	24.75
259.597	4.27
259.814	-34.64
260.03	24.75
260.246	-79.7
260.463	51.37
260.679	41.13
260.895	43.18
261.112	37.03
261.328	16.55
261.544	-14.17
261.761	108.71
261.977	-75.6
262.193	41.13
262.409	45.23
262.626	-30.55
262.842	51.37
263.058	-1.88
263.274	14.51
263.49	32.94
263.707	61.61
263.923	-22.36
264.139	28.84
264.355	45.23
264.571	59.56
264.787	4.27
265.004	22.7
265.22	-40.79
265.436	88.23
265.652	57.51
265.868	45.23
266.084	20.65
266.3	-46.93
266.516	-3.93
266.732	16.55
266.948	-59.22
267.164	34.99
267.38	-22.36
267.596	-22.36
267.812	22.7
268.028	71.85
268.244	-5.97
268.46	-22.36
268.676	-40.79
268.892	26.79
269.108	-12.12
269.324	45.23
269.54	-24.4
269.756	12.46
269.972	-28.5
270.188	-3.93
270.403	-20.31
270.619	20.65
270.835	-46.93
271.051	47.27
271.267	106.67
271.483	-1.88
271.698	39.08
271.914	92.33
272.13	-30.55
272.346	-1.88
272.562	37.03
272.777	-16.21
272.993	14.51
273.209	94.38
273.425	24.75
273.64	-20.31
273.856	10.41
274.072	100.52
274.287	12.46
274.503	-28.5
274.719	67.75
274.934	6.31
275.15	-24.4
275.366	-22.36
275.581	92.33
275.797	47.27
276.012	24.75
276.228	45.23
276.444	-16.21
276.659	102.57
276.875	20.65
277.09	6.31
277.306	-24.4
277.521	61.61
277.737	-77.65
277.952	73.9
278.168	53.42
278.383	22.7
278.599	24.75
278.814	45.23
279.03	90.28
279.245	69.8
279.461	32.94
279.676	49.32
279.892	4.27
280.107	49.32
280.322	41.13
280.538	59.56
280.753	22.7
280.969	47.27
281.184	18.6
281.399	34.99
281.615	67.75
281.83	94.38
282.045	-12.12
282.26	41.13
282.476	57.51
282.691	88.23
282.906	2.22
283.122	55.47
283.337	-8.02
283.552	77.99
283.767	-46.93
283.983	47.27
284.198	-22.36
284.413	30.89
284.628	-71.51
284.843	41.13
285.058	82.09
285.274	37.03
285.489	-59.22
285.704	67.75
285.919	84.14
286.134	20.65
286.349	28.84
286.564	47.27
286.779	59.56
286.995	57.51
287.21	18.6
287.425	41.13
287.64	-14.17
287.855	61.61
288.07	-12.12
288.285	-1.88
288.5	92.33
288.715	37.03
288.93	-73.56
289.145	14.51
289.36	10.41
289.575	41.13
289.79	10.41
290.004	43.18
290.219	2.22
290.434	-12.12
290.649	-1.88
290.864	-30.55
291.079	-22.36
291.294	49.32
291.509	51.37
291.724	45.23
291.938	-14.17
292.153	-42.84
292.368	-48.98
292.583	80.04
292.798	-38.74
293.012	0.17
293.227	39.08
293.442	6.31
293.657	8.36
293.871	4.27
294.086	6.31
294.301	4.27
294.516	-3.93
294.73	22.7
294.945	24.75
295.16	94.38
295.374	106.67
295.589	65.71
295.804	12.46
296.018	57.51
296.233	59.56
296.447	20.65
296.662	-3.93
296.877	20.65
297.091	96.43
297.306	71.85
297.52	82.09
297.735	77.99
297.949	18.6
298.164	10.41
298.378	0.17
298.593	34.99
298.807	8.36
299.022	0.17
299.236	20.65
299.451	-3.93
299.665	-10.07
299.88	18.6
300.094	57.51
300.309	-3.93
300.523	26.79
300.737	22.7
300.952	16.55
301.166	75.95
301.381	26.79
301.595	67.75
301.809	-36.69
302.024	-8.02
302.238	80.04
302.452	14.51
302.667	69.8
302.881	53.42
303.095	88.23
303.309	69.8
303.524	2.22
303.738	0.17
303.952	20.65
304.166	2.22
304.381	-44.88
304.595	32.94
304.809	22.7
305.023	45.23
305.237	-5.97
305.452	26.79
305.666	88.23
305.88	4.27
306.094	32.94
306.308	73.9
306.522	10.41
306.736	92.33
306.95	53.42
307.164	24.75
307.379	69.8
307.593	-12.12
307.807	49.32
308.021	98.47
308.235	51.37
308.449	71.85
308.663	-46.93
308.877	73.9
309.091	-26.45
309.305	94.38
309.519	43.18
309.733	71.85
309.947	-48.98
310.161	39.08
310.374	41.13
310.588	43.18
310.802	14.51
311.016	118.95
311.23	77.99
311.444	-69.46
311.658	26.79
311.872	57.51
312.085	-10.07
312.299	49.32
312.513	24.75
312.727	16.55
312.941	-32.6
313.154	-24.4
313.368	8.36
313.582	-14.17
313.796	6.31
314.009	28.84
314.223	32.94
314.437	28.84
314.651	43.18
314.864	61.61
315.078	26.79
315.292	53.42
315.505	43.18
315.719	-5.97
315.933	12.46
316.146	10.41
316.36	22.7
316.573	34.99
316.787	84.14
317.001	-12.12
317.214	32.94
317.428	18.6
317.641	20.65
317.855	96.43
318.068	92.33
318.282	55.47
318.495	39.08
318.709	37.03
318.922	43.18
319.136	55.47
319.349	-32.6
319.563	28.84
319.776	77.99
319.99	2.22
320.203	-12.12
320.417	92.33
320.63	61.61
320.843	26.79
321.057	16.55
321.27	77.99
321.483	30.89
321.697	63.66
321.91	20.65
322.124	67.75
322.337	53.42
322.55	51.37
322.763	24.75
322.977	63.66
323.19	20.65
323.403	34.99
323.617	12.46
323.83	45.23
324.043	20.65
324.256	37.03
324.469	47.27
324.683	82.09
324.896	-36.69
325.109	34.99
325.322	-32.6
325.535	45.23
325.748	49.32
325.962	84.14
326.175	43.18
326.388	45.23
326.601	88.23
326.814	26.79
327.027	37.03
327.24	110.76
327.453	24.75
327.666	61.61
327.879	43.18
328.092	75.95
328.305	37.03
328.518	6.31
328.731	-14.17
328.944	-1.88
329.157	2.22
329.37	-14.17
329.583	57.51
329.796	37.03
330.009	102.57
330.222	-1.88
330.435	12.46
330.648	55.47
330.861	94.38
331.073	47.27
331.286	63.66
331.499	28.84
331.712	26.79
331.925	24.75
332.138	18.6
332.35	90.28
332.563	-30.55
332.776	51.37
332.989	47.27
333.202	18.6
333.414	69.8
333.627	69.8
333.84	-3.93
334.053	37.03
334.265	14.51
334.478	-18.26
334.691	-73.56
334.903	20.65
335.116	-1.88
335.329	32.94
335.541	-28.5
335.754	55.47
335.966	-12.12
336.179	41.13
336.392	47.27
336.604	65.71
336.817	18.6
337.029	63.66
337.242	59.56
337.454	20.65
337.667	10.41
337.88	49.32
338.092	10.41
338.305	118.95
338.517	-40.79
338.729	-10.07
338.942	32.94
339.154	10.41
339.367	-24.4
339.579	59.56
339.792	49.32
340.004	59.56
340.217	12.46
340.429	26.79
340.641	57.51
340.854	-5.97
341.066	14.51
341.278	57.51
341.491	14.51
341.703	69.8
341.915	22.7
342.128	49.32
342.34	0.17
342.552	14.51
342.764	-30.55
342.977	30.89
343.189	82.09
343.401	57.51
343.613	4.27
343.826	45.23
344.038	10.41
344.25	34.99
344.462	-8.02
344.674	2.22
344.886	-5.97
345.099	73.9
345.311	14.51
345.523	41.13
345.735	57.51
345.947	53.42
346.159	14.51
346.371	49.32
346.583	8.36
346.795	57.51
347.007	82.09
347.219	43.18
347.431	45.23
347.643	24.75
347.855	59.56
348.067	84.14
348.279	-8.02
348.491	90.28
348.703	51.37
348.915	22.7
349.127	10.41
349.339	37.03
349.551	63.66
349.763	84.14
349.975	84.14
350.187	-5.97
350.399	75.95
350.61	77.99
350.822	14.51
351.034	16.55
351.246	-28.5
351.458	20.65
351.669	92.33
351.881	71.85
352.093	12.46
352.305	8.36
352.517	-28.5
352.728	77.99
352.94	82.09
353.152	61.61
353.363	14.51
353.575	26.79
353.787	57.51
353.999	18.6
354.21	55.47
354.422	71.85
354.633	14.51
354.845	37.03
355.057	45.23
355.268	39.08
355.48	57.51
355.692	39.08
355.903	28.84
356.115	-3.93
356.326	-48.98
356.538	98.47
356.749	53.42
356.961	16.55
357.172	39.08
357.384	75.95
357.595	71.85
357.807	-16.21
358.018	43.18
358.23	43.18
358.441	77.99
358.653	84.14
358.864	41.13
359.075	24.75
359.287	18.6
359.498	30.89
359.709	30.89
359.921	34.99
360.132	63.66
360.344	55.47
360.555	57.51
360.766	-71.51
360.977	-20.31
361.189	166.06
361.4	41.13
361.611	114.86
361.823	53.42
362.034	118.95
362.245	30.89
362.456	2.22
362.667	-28.5
362.879	59.56
363.09	0.17
363.301	-5.97
363.512	-20.31
363.723	65.71
363.935	26.79
364.146	114.86
364.357	43.18
364.568	28.84
364.779	14.51
364.99	10.41
365.201	22.7
365.412	20.65
365.623	-24.4
365.834	37.03
366.045	43.18
366.256	20.65
366.467	65.71
366.678	63.66
366.889	26.79
367.1	26.79
367.311	61.61
367.522	43.18
367.733	51.37
367.944	53.42
368.155	26.79
368.366	30.89
368.577	20.65
368.788	-12.12
368.999	8.36
369.209	-8.02
369.42	59.56
369.631	49.32
369.842	55.47
370.053	10.41
370.264	26.79
370.474	55.47
370.685	12.46
370.896	61.61
371.107	8.36
371.317	75.95
371.528	2.22
371.739	104.62
371.95	37.03
372.16	63.66
372.371	22.7
372.582	59.56
372.792	49.32
373.003	39.08
373.214	39.08
373.424	55.47
373.635	45.23
373.846	43.18
374.056	34.99
374.267	24.75
374.477	12.46
374.688	32.94
374.898	16.55
375.109	2.22
375.319	0.17
375.53	71.85
375.74	20.65
375.951	-3.93
376.161	77.99
376.372	94.38
376.582	2.22
376.793	53.42
377.003	57.51
377.214	-22.36
377.424	86.19
377.635	94.38
377.845	69.8
378.055	71.85
378.266	28.84
378.476	65.71
378.686	28.84
378.897	96.43
379.107	43.18
379.317	71.85
379.528	16.55
379.738	49.32
379.948	41.13
380.158	16.55
380.369	-20.31
380.579	71.85
380.789	43.18
380.999	51.37
381.21	20.65
381.42	59.56
381.63	-51.03
381.84	84.14
382.05	65.71
382.261	39.08
382.471	65.71
382.681	71.85
382.891	-10.07
383.101	94.38
383.311	71.85
383.521	92.33
383.731	86.19
383.941	65.71
384.151	26.79
384.361	32.94
384.571	47.27
384.781	20.65
384.991	86.19
385.201	59.56
385.411	57.51
385.621	49.32
385.831	86.19
386.041	168.1
386.251	20.65
386.461	24.75
386.671	8.36
386.881	30.89
387.091	88.23
387.301	-10.07
387.511	59.56
387.72	43.18
387.93	24.75
388.14	-28.5
388.35	98.47
388.56	45.23
388.769	125.1
388.979	49.32
389.189	12.46
389.399	71.85
389.609	67.75
389.818	-14.17
390.028	55.47
390.238	45.23
390.447	-18.26
390.657	49.32
390.867	104.62
391.076	108.71
391.286	86.19
391.496	71.85
391.705	77.99
391.915	-16.21
392.125	2.22
392.334	34.99
392.544	73.9
392.753	121
392.963	8.36
393.172	69.8
393.382	24.75
393.591	110.76
393.801	57.51
394.01	94.38
394.22	18.6
394.429	-8.02
394.639	88.23
394.848	75.95
395.058	55.47
395.267	12.46
395.477	69.8
395.686	47.27
395.895	129.19
396.105	125.1
396.314	108.71
396.524	-8.02
396.733	73.9
396.942	61.61
397.152	123.05
397.361	94.38
397.57	88.23
397.78	14.51
397.989	73.9
398.198	137.38
398.407	94.38
398.617	49.32
398.826	32.94
399.035	63.66
399.244	86.19
399.453	55.47
399.663	51.37
399.872	147.62
400.081	90.28
400.29	88.23
400.499	39.08
400.708	143.53
400.917	135.34
401.127	114.86
401.336	24.75
401.545	149.67
401.754	139.43
401.963	121
402.172	121
402.381	166.06
402.59	82.09
402.799	114.86
403.008	110.76
403.217	114.86
403.426	65.71
403.635	55.47
403.844	143.53
404.053	170.15
404.262	39.08
404.471	90.28
404.68	110.76
404.888	155.82
405.097	77.99
405.306	149.67
405.515	98.47
405.724	75.95
405.933	112.81
406.142	166.06
406.35	114.86
406.559	147.62
406.768	125.1
406.977	204.97
407.185	211.11
407.394	186.54
407.603	161.96
407.812	86.19
408.02	186.54
408.229	178.34
408.438	178.34
408.646	266.41
408.855	225.45
409.064	241.83
409.272	258.21
409.481	284.84
409.69	237.74
409.898	303.27
410.107	317.61
410.315	272.55
410.524	286.89
410.733	395.43
410.941	297.13
411.15	299.17
411.358	360.61
411.567	338.09
411.775	340.13
411.984	315.56
412.192	346.28
412.401	360.61
412.609	411.81
412.818	485.54
413.026	493.73
413.234	444.58
413.443	377
413.651	467.11
413.86	544.93
414.068	522.4
414.276	551.07
414.485	479.4
414.693	600.23
414.901	637.09
415.11	594.08
415.318	577.7
415.526	571.55
415.734	680.1
415.943	587.94
416.151	731.3
416.359	743.58
416.567	815.26
416.776	833.69
416.984	796.83
417.192	719.01
417.4	891.04
417.608	829.6
417.817	866.46
418.025	942.24
418.233	995.48
418.441	1034.39
418.649	1097.88
418.857	1132.7
419.065	1138.84
419.273	1089.69
419.481	1222.81
419.689	1216.66
419.897	1304.73
420.105	1276.06
420.313	1271.96
420.521	1325.21
420.729	1366.17
420.937	1493.14
421.145	1585.3
421.353	1607.83
421.561	1638.55
421.769	1630.35
421.977	1751.18
422.185	1755.28
422.393	1863.82
422.601	2044.04
422.809	2042
423.017	1962.12
423.224	2050.19
423.432	2228.36
423.64	2160.78
423.848	2308.23
424.056	2338.95
424.263	2375.81
424.471	2437.25
424.679	2535.56
424.887	2666.63
425.094	2773.12
425.302	2695.3
425.51	2861.18
425.718	2912.38
425.925	3043.45
426.133	3051.64
426.341	3293.3
426.548	3344.5
426.756	3330.17
426.964	3426.42
427.171	3684.47
427.379	3799.15
427.586	3831.92
427.794	3903.6
428.001	3965.04
428.209	4317.29
428.417	4178.03
428.624	4425.83
428.832	4497.51
429.039	4378.73
429.247	4501.61
429.454	4966.49
429.662	5171.29
429.869	4886.62
430.076	5255.26
430.284	5116
430.491	5296.22
430.699	5589.08
430.906	5560.41
431.114	5554.26
431.321	5818.45
431.528	6182.99
431.736	6158.41
431.943	6699.08
432.15	6525
432.358	6725.7
432.565	6928.45
432.772	6897.73
432.979	7206.97
433.187	7374.91
433.394	7376.95
433.601	8030.26
433.808	8101.94
434.016	7784.5
434.223	8366.12
434.43	8865.83
434.637	8532.01
434.844	9103.39
435.052	9207.84
435.259	9340.96
435.466	9349.15
435.673	9285.66
435.88	9809.94
436.087	10360.84
436.294	10518.54
436.501	10256.4
436.708	10405.9
436.915	10450.96
437.122	11196.42
437.329	11051.01
437.537	11644.92
437.743	11618.3
437.95	11433.98
438.157	12185.58
438.364	12525.55
438.571	12623.85
438.778	12705.77
438.985	13793.24
439.192	13246.43
439.399	13746.14
439.606	13508.57
439.813	14233.55
440.02	14931.91
440.227	14839.75
440.433	14444.49
440.64	14786.51
440.847	14927.81
441.054	15562.69
441.261	16000.95
441.467	16191.41
441.674	16467.89
441.881	17463.2
442.088	17092.52
442.294	16773.03
442.501	17293.22
442.708	17758.11
442.914	18347.92
443.121	18902.92
443.328	18804.62
443.534	20100.98
443.741	19230.6
443.948	19154.82
444.154	20291.45
444.361	20676.46
444.568	20551.54
444.774	20733.81
444.981	20973.42
445.187	21391.2
445.394	22265.69
445.6	22116.19
445.807	24543.03
446.013	23392.07
446.22	23924.54
446.426	24497.97
446.633	24803.12
446.839	25435.94
447.046	24397.62
447.252	25941.79
447.459	25964.32
447.665	25825.06
447.871	27352.84
448.078	28215.04
448.284	26834.71
448.491	27922.18
448.697	28462.84
448.903	29032.18
449.11	29527.78
449.316	28948.21
449.522	29480.68
449.728	29957.86
449.935	29992.67
450.141	30207.71
450.347	31014.61
450.553	29910.75
450.76	30367.45
450.966	31346.38
451.172	31063.76
451.378	31868.61
451.584	31332.04
451.791	32353.98
451.997	32167.62
452.203	32401.08
452.409	32388.8
452.615	32310.97
452.821	30975.7
453.027	30748.37
453.233	32313.02
453.44	31340.24
453.646	31622.86
453.852	31841.99
454.058	32171.71
454.264	31024.85
454.47	31870.66
454.676	30564.06
454.882	32038.59
455.088	29501.16
455.294	29959.91
455.5	30256.86
455.705	30629.59
455.911	29292.27
456.117	28931.83
456.323	28368.63
456.529	26996.49
456.735	27952.9
456.941	27283.21
457.147	27129.61
457.352	25904.93
457.558	26128.16
457.764	25747.23
457.97	25499.43
458.176	24753.97
458.381	24905.52
458.587	23598.91
458.793	23928.64
458.999	22378.33
459.204	23936.83
459.41	23600.96
459.616	21948.25
459.821	21864.29
460.027	21882.72
460.233	21071.72
460.438	20207.48
460.644	20258.68
460.85	19488.64
461.055	19179.4
461.261	19357.57
461.466	17788.83
461.672	17139.62
461.878	18450.32
462.083	17016.74
462.289	17008.55
462.494	16695.21
462.7	16056.25
462.905	15826.87
463.111	16142.26
463.316	16302
463.522	15863.74
463.727	15923.13
463.932	15888.31
464.138	15534.01
464.343	15855.54
464.549	15259.59
464.754	15728.57
464.959	15689.66
465.165	15556.54
465.37	14878.66
465.575	14634.96
465.781	15173.57
465.986	15173.57
466.191	14700.49
466.397	14317.52
466.602	13674.46
466.807	14190.55
467.012	14047.19
467.218	14096.34
467.423	13909.97
467.628	14036.95
467.833	14733.26
468.038	14100.44
468.244	13717.47
468.449	13952.98
468.654	13696.99
468.859	13418.46
469.064	13555.68
469.269	12916.71
469.474	13115.36
469.679	13428.7
469.885	13012.96
470.09	13344.74
470.295	13180.9
470.5	12724.2
470.705	12967.91
470.91	12462.06
471.115	12417.01
471.32	12707.82
471.525	12443.63
471.73	12122.1
471.935	12445.68
472.139	11534.33
472.344	11898.87
472.549	12013.56
472.754	11649.02
472.959	11540.47
473.164	11284.48
473.369	11110.4
473.574	11438.08
473.778	11274.24
473.983	11177.98
474.188	11266.05
474.393	10704.9
474.598	10930.18
474.802	10711.05
475.007	10725.38
475.212	10483.72
475.417	10080.27
475.621	10092.56
475.826	10104.85
476.031	10164.24
476.235	9867.28
476.44	10147.86
476.645	10117.14
476.849	9744.41
477.054	9785.37
477.259	9523.23
477.463	9582.62
477.668	9279.52
477.872	9433.11
478.077	9443.35
478.282	9082.91
478.486	9000.99
478.691	8843.3
478.895	8998.95
479.1	8747.05
479.304	8912.93
479.509	8568.87
479.713	8738.85
479.918	8904.74
480.122	8540.2
480.326	8374.31
480.531	8609.83
480.735	8652.84
480.94	8331.31
481.144	8701.99
481.348	8118.32
481.553	8425.51
481.757	8185.9
481.961	8378.41
482.166	8460.33
482.37	8495.15
482.574	8142.89
482.778	8247.34
482.983	8319.02
483.187	8357.93
483.391	8357.93
483.595	8040.5
483.8	8138.8
484.004	8290.35
484.208	8245.29
484.412	8146.99
484.616	8378.41
484.821	8118.32
485.025	8183.85
485.229	8214.57
485.433	8288.3
485.637	8308.78
485.841	8151.09
486.045	8017.97
486.249	8282.16
486.453	8097.84
486.657	8200.24
486.861	8484.91
487.065	8122.41
487.269	8366.12
487.473	8312.88
487.677	8106.03
487.881	8261.68
488.085	8081.46
488.289	8241.2
488.493	8280.11
488.697	8355.88
488.901	8308.78
489.105	8243.24
489.309	8245.29
489.512	8316.97
489.716	8417.32
489.92	8310.83
490.124	8329.26
490.328	8601.64
490.531	8468.52
490.735	8546.34
490.939	8593.45
491.143	8427.56
491.346	8450.09
491.55	8673.32
491.754	8603.69
491.958	8548.39
492.161	8636.45
492.365	8788
492.569	8493.1
492.772	8671.27
492.976	8781.86
493.18	8755.24
493.383	8984.61
493.587	8976.42
493.79	9187.36
493.994	9084.96
494.197	9125.92
494.401	9125.92
494.605	9156.64
494.808	9324.57
495.012	9318.43
495.215	9269.28
495.419	9435.16
495.622	9328.67
495.825	9261.09
496.029	9494.55
496.232	9705.49
496.436	9637.91
496.639	10135.57
496.843	9822.23
497.046	10082.32
497.249	10160.14
497.453	10221.58
497.656	10459.15
497.859	10442.76
498.063	10608.65
498.266	10725.38
498.469	10665.99
498.673	10928.13
498.876	11073.54
499.079	11098.11
499.282	10985.48
499.485	11343.87
499.689	11573.24
499.892	11583.48
500.095	11675.64
500.298	11788.28
500.501	11876.34
500.705	12152.82
500.908	12333.04
501.111	12445.68
501.314	12703.72
501.517	12795.88
501.72	12832.74
501.923	12789.74
502.126	13084.64
502.329	13275.1
502.532	13471.71
502.735	13430.75
502.938	13729.75
503.141	13766.62
503.344	14036.95
503.547	13899.73
503.75	14153.68
503.953	14491.6
504.156	14356.43
504.359	14499.79
504.562	14888.9
504.765	15032.26
504.968	15083.46
505.17	15609.79
505.373	15474.62
505.576	15822.78
505.779	15810.49
505.982	16054.2
506.185	16308.15
506.387	16181.17
506.59	16357.3
506.793	16566.19
506.996	16773.03
507.198	17121.19
507.401	17209.25
507.604	17407.91
507.807	17635.23
508.009	17706.91
508.212	17799.07
508.415	18311.06
508.617	18435.99
508.82	18470.8
509.022	18266
509.225	18800.52
509.428	19021.7
509.63	19367.81
509.833	19275.65
510.035	19511.17
510.238	19615.62
510.44	19849.08
510.643	20254.58
510.845	20463.47
511.048	20232.05
511.25	20813.68
511.453	20709.23
511.655	21530.47
511.858	21307.24
512.06	21493.6
512.262	21811.04
512.465	21608.29
512.667	22212.44
512.87	22607.7
513.072	22474.58
513.274	23275.34
513.477	23471.94
513.679	23279.43
513.881	23545.67
514.084	23932.73
514.286	23531.33
514.488	24348.47
514.69	24723.25
514.893	24788.78
515.095	24864.56
515.297	25061.16
515.499	24991.53
515.701	25644.84
515.904	25765.67
516.106	25820.96
516.308	26398.49
516.51	26369.82
516.712	26582.81
516.914	26879.76
517.116	27330.31
517.318	27168.52
517.52	27303.69
517.722	27696.9
517.925	28317.43
518.127	28264.19
518.329	28354.3
518.531	28593.91
518.733	28925.68
518.935	29302.51
519.136	29562.6
519.338	29820.64
519.54	29935.33
519.742	30019.3
519.944	30475.99
520.146	30983.89
520.348	31041.23
520.55	31149.78
520.752	31379.15
520.954	31745.73
521.155	31768.26
521.357	32265.92
521.559	32603.83
521.761	33375.92
521.963	33031.86
522.164	33009.33
522.366	33347.25
522.568	33582.76
522.77	33281.71
522.971	33840.81
523.173	34031.27
523.375	34520.73
523.576	34641.56
523.778	34293.41
523.98	35126.93
524.181	35137.17
524.383	35411.6
524.584	35608.2
524.786	35815.05
524.988	35759.75
525.189	36212.35
525.391	36537.98
525.592	36380.29
525.794	37039.73
525.995	36550.27
526.197	37015.16
526.398	37138.04
526.6	37525.1
526.801	37688.94
527.003	37860.97
527.204	37570.16
527.406	38336.1
527.607	37920.36
527.808	38227.56
528.01	37951.08
528.211	38299.23
528.412	39046.74
528.614	38641.25
528.815	38831.71
529.016	39452.24
529.218	38676.06
529.419	38745.69
529.62	39409.23
529.822	39030.36
530.023	39538.26
530.224	39560.78
530.425	39720.52
530.626	39257.68
530.828	39261.78
531.029	40083.02
531.23	39937.61
531.431	39884.36
531.632	39794.25
531.833	40066.63
532.035	39788.11
532.236	40267.33
532.437	40359.49
532.638	40412.74
532.839	40457.79
533.04	40713.79
533.241	40447.55
533.442	40861.24
533.643	40619.58
533.844	40863.29
534.045	41039.42
534.246	40177.22
534.447	40908.35
534.648	40900.15
534.849	41109.05
535.05	40185.41
535.251	40877.63
535.451	40728.13
535.652	40941.11
535.853	40914.49
536.054	41233.97
536.255	41043.51
536.456	40418.88
536.657	41444.91
536.857	40736.32
537.058	40564.29
537.259	40984.12
537.46	41377.33
537.66	40572.48
537.861	41326.13
538.062	41121.34
538.263	41029.18
538.463	40891.96
538.664	40939.07
538.865	41311.8
539.065	41291.32
539.266	40707.65
539.466	41133.62
539.667	40568.38
539.868	41498.16
540.068	40949.31
540.269	40398.4
540.469	41182.77
540.67	40805.95
540.87	41174.58
541.071	41387.57
541.271	41051.7
541.472	41049.66
541.672	40695.36
541.873	40764.99
542.073	40240.71
542.274	41072.18
542.474	40742.46
542.675	40844.86
542.875	41580.08
543.075	40937.02
543.276	40992.31
543.476	41338.42
543.676	40394.31
543.877	41008.7
544.077	41063.99
544.277	41195.06
544.478	41004.6
544.678	41330.23
544.878	40808
545.078	40928.83
545.279	40558.14
545.479	40537.66
545.679	41039.42
545.879	40762.94
546.079	41039.42
546.28	40717.89
546.48	40408.64
546.68	40902.2
546.88	41080.38
547.08	40939.07
547.28	40683.07
547.48	40277.57
547.68	40601.15
547.88	40390.21
548.081	40971.83
548.281	40857.15
548.481	40724.03
548.681	40959.55
548.881	41180.73
549.081	40541.76
549.28	40838.72
549.48	41168.44
549.68	40347.2
549.88	41373.24
550.08	40603.2
550.28	40703.55
550.48	40705.6
550.68	41082.42
550.88	40148.55
551.08	40926.78
551.279	40877.63
551.479	40554.05
551.679	40857.15
551.879	40582.72
552.079	40742.46
552.278	40818.24
552.478	40642.11
552.678	40547.9
552.878	40814.14
553.077	40300.1
553.277	40271.43
553.477	41127.48
553.676	40253
553.876	40267.33
554.076	40144.45
554.275	40552
554.475	40072.78
554.674	40595.01
554.874	40283.72
555.074	40085.06
555.273	40490.56
555.473	40617.53
555.672	40003.14
555.872	40306.24
556.071	40105.54
556.271	40140.36
556.47	39872.07
556.67	39689.81
556.869	39773.77
557.068	40377.92
557.268	39824.97
557.467	40218.18
557.667	39812.68
557.866	39552.59
558.065	39556.69
558.265	39179.86
558.464	39781.96
558.663	39861.83
558.863	39284.31
559.062	39755.34
559.261	39114.33
559.461	39657.04
559.66	39241.3
559.859	39263.83
560.058	39235.16
560.258	39456.34
560.457	38669.92
560.656	39188.05
560.855	39120.47
561.054	39214.68
561.253	38647.39
561.453	38958.68
561.652	38774.36
561.851	39149.14
562.05	38907.48
562.249	38348.39
562.448	38975.06
562.647	38438.5
562.846	38512.22
563.045	38432.35
563.244	38114.92
563.443	38575.71
563.642	38143.59
563.841	38295.14
564.04	37981.8
564.239	38465.12
564.438	37901.93
564.637	37869.16
564.836	37863.02
565.035	37297.78
565.234	37709.42
565.432	37523.05
565.631	37559.92
565.83	37244.53
566.029	37375.6
566.228	37453.42
566.427	37107.32
566.625	36714.11
566.824	36769.4
567.023	36802.17
567.222	36046.47
567.42	37045.88
567.619	36568.7
567.818	36347.52
568.016	36382.34
568.215	36843.13
568.414	36163.2
568.612	36802.17
568.811	36378.24
569.01	36329.09
569.208	35829.38
569.407	36095.62
569.605	35835.53
569.804	36122.24
570.002	35530.38
570.201	35769.99
570.4	35368.59
570.598	35374.73
570.797	34840.22
570.995	35206.8
571.193	34948.76
571.392	35251.86
571.59	35040.92
571.789	34922.13
571.987	34840.22
572.186	34408.09
572.384	34526.88
572.582	34649.75
572.781	34758.3
572.979	34270.88
573.177	34432.67
573.376	34539.16
573.574	34055.84
573.772	33892.01
573.971	34121.38
574.169	33672.87
574.367	33631.91
574.565	33947.3
574.763	33615.53
574.962	33375.92
575.16	33013.43
575.358	33242.8
575.556	33214.13
575.754	33584.81
575.952	32886.45
576.151	33226.42
576.349	32954.04
576.547	33009.33
576.745	32927.41
576.943	32638.65
577.141	32745.14
577.339	32394.94
577.537	32624.31
577.735	32552.63
577.933	32440
578.131	32351.93
578.329	32093.89
578.527	31741.64
578.725	31975.11
578.923	31870.66
579.121	31782.6
579.319	31735.49
579.516	31715.01
579.714	31811.27
579.912	31471.31
580.11	31448.78
580.308	31362.76
580.506	31168.21
580.704	30719.7
580.901	31248.08
581.099	31172.3
581.297	31110.86
581.495	30891.73
581.692	31028.95
581.89	30820.05
582.088	30695.13
582.285	30199.52
582.483	31137.49
582.681	30447.32
582.878	30467.8
583.076	29787.88
583.274	30224.09
583.471	30107.36
583.669	30119.65
583.866	29734.63
584.064	29847.27
584.262	29464.3
584.459	29970.15
584.657	29701.86
584.854	29759.2
585.052	28753.65
585.249	29511.4
585.447	29196.01
585.644	29134.57
585.841	29273.84
586.039	29171.44
586.236	28995.31
586.434	28511.99
586.631	28104.45
586.828	28784.37
587.026	28864.24
587.223	28761.84
587.42	28511.99
587.618	28157.69
587.815	27830.02
588.012	28051.2
588.21	27875.07
588.407	28126.97
588.604	27936.51
588.801	27643.65
588.999	27825.92
589.196	27823.87
589.393	27729.67
589.59	27641.6
589.787	27582.21
589.984	27326.22
590.182	27105.04
590.379	27643.65
590.576	27211.53
590.773	27158.28
590.97	26896.14
591.167	27084.56
591.364	26693.4
591.561	27014.93
591.758	26361.62
591.955	26560.28
592.152	26728.21
592.349	26476.31
592.546	26552.09
592.743	26492.69
592.94	26140.44
593.137	25923.36
593.334	26365.72
593.531	25757.47
593.727	26091.29
593.924	25945.89
594.121	25546.53
594.318	25812.77
594.515	25177.9
594.712	25798.43
594.908	25351.98
595.105	25493.29
595.302	25290.54
595.499	25407.27
595.696	25335.59
595.892	25130.8
596.089	25116.46
596.286	25198.38
596.482	24678.19
596.679	24813.36
596.876	24764.21
597.072	24235.83
597.269	24944.43
597.466	24495.92
597.662	24164.15
597.859	24102.71
598.055	24389.43
598.252	24127.29
598.448	23932.73
598.645	24147.77
598.841	23906.11
599.038	23770.94
599.234	23971.64
599.431	23828.29
599.627	23744.32
599.824	23871.29
600.02	23588.67
600.217	23623.49
600.413	23297.86
600.609	23291.72
600.806	23416.65
601.002	23330.63
601.198	23017.29
601.395	22978.38
601.591	22724.43
601.787	22736.72
601.984	22929.23
602.18	23035.72
602.376	22736.72
602.572	22706
602.769	22644.56
602.965	22234.97
603.161	22380.37
603.357	22363.99
603.553	22228.82
603.75	22323.03
603.946	22138.71
604.142	22148.95
604.338	21745.5
604.534	22200.15
604.73	21956.44
604.926	21983.07
605.122	21888.86
605.318	21786.46
605.514	21706.59
605.71	21559.14
605.906	21421.92
606.102	21342.05
606.298	21385.06
606.494	21401.44
606.69	20993.9
606.886	21454.69
607.082	21051.24
607.278	21073.77
607.474	20694.89
607.67	21057.39
607.866	20746.09
608.062	21032.81
608.257	20748.14
608.453	20883.31
608.649	20891.5
608.845	20817.77
609.041	20576.11
609.236	20578.16
609.432	20588.4
609.628	20658.03
609.824	20606.83
610.019	20516.72
610.215	20356.98
610.411	20426.61
610.606	20098.94
610.802	20115.32
610.998	20344.69
611.193	20045.69
611.389	20019.07
611.584	20006.78
611.78	19677.05
611.976	20129.66
612.171	19914.62
612.367	19926.91
612.562	19808.12
612.758	19414.91
612.953	19619.71
613.149	20053.88
613.344	19441.54
613.539	19761.02
613.735	19535.74
613.93	19564.42
614.126	19296.13
614.321	19672.96
614.517	19412.87
614.712	19468.16
614.907	19152.77
615.103	19545.98
615.298	19193.73
615.493	19404.67
615.688	19062.66
615.884	19412.87
616.079	18935.69
616.274	19128.2
616.47	18917.26
616.665	18902.92
616.86	18855.82
617.055	18880.39
617.25	18933.64
617.445	18898.83
617.641	18530.19
617.836	18841.48
618.031	18593.68
618.226	18794.38
618.421	18427.79
618.616	18667.41
618.811	18134.93
619.006	18474.9
619.201	18073.49
619.396	18274.2
619.591	17852.31
619.786	18413.46
619.981	17776.54
620.176	18046.87
620.371	17485.73
620.566	17641.37
620.761	17385.38
620.956	17565.6
621.151	17385.38
621.346	17588.13
621.541	17153.96
621.735	17381.28
621.93	17153.96
622.125	17149.86
622.32	16527.28
622.515	17002.41
622.709	17004.46
622.904	16838.57
623.099	16484.27
623.294	16705.45
623.488	16291.76
623.683	16773.03
623.878	15955.9
624.072	16158.64
624.267	16240.56
624.462	16048.05
624.656	15796.15
624.851	15904.7
625.046	15900.6
625.24	15966.14
625.435	15572.93
625.629	15603.64
625.824	15329.22
626.018	15427.52
626.213	15304.64
626.407	15300.55
626.602	15200.19
626.796	15202.24
626.991	14956.49
627.185	15079.36
627.38	14821.32
627.574	14706.63
627.768	14700.49
627.963	14571.47
628.157	14387.15
628.352	14712.78
628.546	14294.99
628.74	14505.93
628.935	14294.99
629.129	14211.03
629.323	13989.85
629.517	14211.03
629.712	13916.12
629.906	13934.55
630.1	13850.58
630.294	13393.89
630.489	13727.71
630.683	13709.27
630.877	13371.36
631.071	13473.76
631.265	13420.51
631.459	13101.03
631.653	13367.26
631.848	13400.03
632.042	13084.64
632.236	13109.22
632.43	12873.7
632.624	12838.89
632.818	12869.61
633.012	12771.3
633.206	12668.91
633.4	12658.67
633.594	12490.73
633.788	12500.97
633.982	12371.95
634.176	12367.85
634.369	12314.61
634.563	12519.4
634.757	12302.32
634.951	12216.3
635.145	12038.13
635.339	11905.01
635.533	12011.51
635.726	11814.9
635.92	11800.57
636.114	11810.81
636.308	11792.37
636.501	11739.13
636.695	11462.65
636.889	11411.45
637.083	11421.69
637.276	11411.45
637.47	11304.96
637.664	11276.29
637.857	11122.69
638.051	11096.07
638.244	10985.48
638.438	11180.03
638.632	10831.88
638.825	11010.05
639.019	10790.92
639.212	10874.88
639.406	10770.44
639.599	10713.1
639.793	10663.94
639.986	10199.06
640.18	10602.5
640.373	10371.08
640.567	10338.32
640.76	10561.55
640.954	10162.19
641.147	10180.62
641.34	10090.51
641.534	10154
641.727	9979.92
641.92	9879.57
642.114	9826.32
642.307	9807.89
642.5	9904.15
642.694	9558.04
642.887	9734.17
643.08	9652.25
643.273	9646.1
643.467	9488.41
643.66	9586.71
643.853	9404.44
644.046	9277.47
644.239	9224.22
644.432	9347.1
644.626	9263.13
644.819	9134.11
645.012	9087.01
645.205	9138.21
645.398	8853.54
645.591	8957.99
645.784	8886.31
645.977	8826.92
646.17	8749.09
646.363	8783.91
646.556	8669.22
646.749	8540.2
646.942	8681.51
647.135	8630.31
647.328	8497.19
647.521	8357.93
647.714	8493.1
647.907	8400.94
648.099	8284.2
648.292	8321.07
648.485	8243.24
648.678	8085.55
648.871	8169.52
649.064	8054.83
649.256	8081.46
649.449	8079.41
649.642	7948.34
649.835	7899.19
650.027	7743.54
650.22	7733.3
650.413	7958.58
650.605	7737.4
650.798	7710.77
650.991	7784.5
651.183	7622.71
651.376	7401.53
651.568	7534.65
651.761	7516.22
651.954	7426.11
652.146	7444.54
652.339	7524.41
652.531	7319.61
652.724	7319.61
652.916	7028.8
653.109	7098.43
653.301	7301.18
653.494	7182.4
653.686	7090.24
653.879	7061.57
654.071	7112.77
654.263	7151.68
654.456	7039.04
654.648	6867.01
654.84	6910.02
655.033	6799.43
655.225	6807.62
655.417	6862.91
655.61	6824
655.802	6875.2
655.994	6651.97
656.186	6750.28
656.379	6615.11
656.571	6623.3
656.763	6623.3
656.955	6586.44
657.148	6367.31
657.34	6484.04
657.532	6426.7
657.724	6393.93
657.916	6420.55
658.108	6314.06
658.3	6125.65
658.492	6111.31
658.684	6191.18
658.876	6207.56
659.068	6162.51
659.26	6232.14
659.452	6135.89
659.644	6086.73
659.836	5920.85
660.028	5935.18
660.22	5816.4
660.412	5982.29
660.604	5836.88
660.796	5812.31
660.988	5941.33
661.18	5961.81
661.372	5617.75
661.563	5711.96
661.755	5789.78
661.947	5773.39
662.139	5699.67
662.331	5589.08
662.522	5648.47
662.714	5568.6
662.906	5535.83
663.097	5408.86
663.289	5517.4
663.481	5376.09
663.673	5447.77
663.864	5421.14
664.056	5388.38
664.247	5378.14
664.439	5232.73
664.631	5296.22
664.822	5181.53
665.014	5193.82
665.205	5224.54
665.397	5068.89
665.588	5089.37
665.78	5101.66
665.971	5304.41
666.163	5173.34
666.354	5032.03
666.546	5062.75
666.737	4997.21
666.929	4964.45
667.12	4962.4
667.311	5019.74
667.503	4804.71
667.694	4976.73
667.885	4894.82
668.077	4874.34
668.268	4704.35
668.459	4905.06
668.651	4882.53
668.842	4700.26
669.033	4761.7
669.224	4649.06
669.416	4741.22
669.607	4622.44
669.798	4792.42
669.989	4735.07
670.18	4558.95
670.371	4595.81
670.563	4558.95
670.754	4802.66
670.945	4571.24
671.136	4624.48
671.327	4501.61
671.518	4495.46
671.709	4565.09
671.9	4636.77
672.091	4577.38
672.282	4493.41
672.473	4438.12
672.664	4358.25
672.855	4526.18
673.046	4419.69
673.237	4450.41
673.428	4368.49
673.619	4395.11
673.809	4456.55
674	4341.86
674.191	4245.61
674.382	4278.38
674.573	4374.63
674.764	4296.81
674.954	4358.25
675.145	4270.19
675.336	4278.38
675.527	4198.51
675.717	4202.6
675.908	4169.84
676.099	4276.33
676.289	4264.04
676.48	4065.39
676.671	4132.97
676.861	4085.87
677.052	4141.16
677.243	4139.12
677.433	4223.08
677.624	4116.59
677.814	4126.83
678.005	4028.53
678.195	4175.98
678.386	4096.11
678.576	4112.49
678.767	4110.44
678.957	4098.16
679.148	4077.68
679.338	4157.55
679.529	4143.21
679.719	3930.22
679.909	4012.14
680.1	4022.38
680.29	4104.3
680.481	3997.81
680.671	4102.25
680.861	4069.48
681.052	3911.79
681.242	3938.41
681.432	4057.2
681.622	3915.89
681.813	3928.17
682.003	4001.9
682.193	4014.19
682.383	3899.5
682.573	3838.06
682.764	3881.07
682.954	3887.22
683.144	3934.32
683.334	3840.11
683.524	3977.33
683.714	3868.78
683.904	3840.11
684.094	3956.85
684.284	3870.83
684.474	3969.13
684.664	3965.04
684.854	3872.88
685.044	3928.17
685.234	3842.16
685.424	3719.28
685.614	3750
685.804	4018.29
685.994	3801.2
686.184	3889.26
686.374	3975.28
686.564	3793.01
686.753	3692.66
686.943	3829.87
687.133	3688.56
687.323	3852.4
687.513	3706.99
687.702	3668.08
687.892	3676.27
688.082	3743.86
688.272	3719.28
688.461	3668.08
688.651	3682.42
688.841	3668.08
689.03	3700.85
689.22	3586.16
689.41	3735.67
689.599	3641.46
689.789	3545.2
689.979	3686.51
690.168	3522.68
690.358	3524.72
690.547	3508.34
690.737	3618.93
690.926	3502.2
691.116	3516.53
691.305	3451
691.495	3508.34
691.684	3422.33
691.874	3399.8
692.063	3530.87
692.252	3494.01
692.442	3412.09
692.631	3422.33
692.82	3414.13
693.01	3350.65
693.199	3289.21
693.388	3321.98
693.578	3272.82
693.767	3278.97
693.956	3317.88
694.146	3235.96
694.335	3244.15
694.524	3215.48
694.713	3375.22
694.902	3278.97
695.092	3276.92
695.281	3244.15
695.47	3272.82
695.659	3176.57
695.848	3266.68
696.037	3147.9
696.226	3211.39
696.415	3172.47
696.604	3240.06
696.793	3258.49
696.982	3250.3
697.171	3240.06
697.36	3258.49
697.549	3227.77
697.738	3184.76
697.927	3172.47
698.116	3174.52
698.305	3139.71
698.494	3176.57
698.683	3182.71
698.872	3162.23
699.061	3151.99
699.25	3301.5
699.438	3176.57
699.627	3131.51
699.816	3299.45
700.005	3119.23
700.193	3143.8
700.382	3086.46
700.571	3113.08
700.76	3084.41
700.948	3186.81
701.137	3084.41
701.326	3135.61
701.514	3119.23
701.703	3256.44
701.892	3100.8
702.08	3094.65
702.269	3027.07
702.457	3074.17
702.646	3012.73
702.834	3168.38
703.023	3102.84
703.212	3002.49
703.4	3061.88
703.589	3092.6
703.777	3127.42
703.965	3164.28
704.154	3047.55
704.342	2969.73
704.531	3113.08
704.719	3010.68
704.907	3094.65
705.096	3047.55
705.284	3137.66
705.472	3072.12
705.661	3104.89
705.849	3108.99
706.037	3061.88
706.226	3223.67
706.414	3115.13
706.602	2994.3
706.79	3059.84
706.979	3072.12
707.167	3059.84
707.355	3041.4
707.543	2990.21
707.731	3022.97
707.919	3010.68
708.107	2951.29
708.296	3033.21
708.484	3068.03
708.672	3125.37
708.86	3006.59
709.048	2957.44
709.236	2955.39
709.424	3086.46
709.612	3158.14
709.8	3022.97
709.988	2885.76
710.176	3037.31
710.364	3141.75
710.551	3039.36
710.739	2949.25
710.927	3063.93
711.115	3094.65
711.303	3141.75
711.491	3104.89
711.679	3035.26
711.866	2990.21
712.054	3176.57
712.242	3059.84
712.43	3049.6
712.617	2977.92
712.805	2963.58
712.993	3020.92
713.181	3076.22
713.368	3014.78
713.556	3022.97
713.744	2930.81
713.931	3098.75
714.119	3014.78
714.306	2992.25
714.494	2951.29
714.682	3065.98
714.869	2947.2
715.057	2998.4
715.244	3010.68
715.432	2914.43
715.619	3010.68
715.807	2959.49
715.994	3025.02
716.182	2961.53
716.369	3127.42
716.556	2941.05
716.744	2984.06
716.931	2947.2
717.119	3135.61
717.306	2879.61
717.493	3059.84
717.681	2988.16
717.868	3070.08
718.055	2986.11
718.242	2986.11
718.43	3027.07
718.617	2873.47
718.804	2975.87
718.991	2971.77
719.179	2967.68
719.366	3010.68
719.553	3094.65
719.74	2959.49
719.927	3111.04
720.114	2986.11
720.301	3000.44
720.488	2955.39
720.676	2939.01
720.863	2867.33
721.05	2908.29
721.237	3047.55
721.424	2973.82
721.611	3016.83
721.798	2910.33
721.985	2979.97
722.172	2879.61
722.358	2961.53
722.545	3031.16
722.732	2863.23
722.919	3070.08
723.106	2887.81
723.293	2881.66
723.48	2924.67
723.667	3029.12
723.853	2912.38
724.04	3020.92
724.227	2898.05
724.414	2834.56
724.6	2883.71
724.787	2955.39
724.974	2996.35
725.161	2910.33
725.347	2809.98
725.534	2914.43
725.72	2887.81
725.907	2957.44
726.094	2859.14
726.28	2961.53
726.467	2855.04
726.653	2928.77
726.84	2852.99
727.027	3051.64
727.213	3012.73
727.4	2855.04
727.586	2846.85
727.773	2836.61
727.959	2924.67
728.145	2881.66
728.332	2871.42
728.518	2769.02
728.705	2906.24
728.891	2914.43
729.077	2875.52
729.264	2932.86
729.45	2916.48
729.636	2846.85
729.823	3018.88
730.009	2910.33
730.195	2861.18
730.382	2979.97
730.568	2891.9
730.754	2961.53
730.94	2822.27
731.126	2883.71
731.313	2906.24
731.499	2863.23
731.685	2951.29
731.871	2834.56
732.057	2775.17
732.243	2846.85
732.429	2812.03
732.615	2793.6
732.801	2838.66
732.987	2846.85
733.173	2781.31
733.359	2820.22
733.545	2926.72
733.731	2852.99
733.917	2947.2
734.103	2809.98
734.289	2902.14
734.475	2873.47
734.661	2762.88
734.847	2818.18
735.033	2728.07
735.219	2812.03
735.404	2791.55
735.59	2857.09
735.776	2924.67
735.962	2867.33
736.148	2807.94
736.333	2701.44
736.519	2687.11
736.705	2766.98
736.89	2687.11
737.076	2769.02
737.262	2652.29
737.447	2775.17
737.633	2756.74
737.819	2680.96
738.004	2603.14
738.19	2728.07
738.375	2736.26
738.561	2719.87
738.747	2730.11
738.932	2785.41
739.118	2674.82
739.303	2637.95
739.489	2629.76
739.674	2670.72
739.859	2668.67
740.045	2683.01
740.23	2730.11
740.416	2701.44
740.601	2619.52
740.786	2717.83
740.972	2531.46
741.157	2584.71
741.342	2465.93
741.528	2515.08
741.713	2666.63
741.898	2472.07
742.084	2568.32
742.269	2640
742.454	2539.65
742.639	2572.42
742.824	2537.6
743.01	2533.51
743.195	2470.02
743.38	2416.77
743.565	2418.82
743.75	2482.31
743.935	2482.31
744.12	2416.77
744.305	2424.97
744.49	2433.16
744.675	2347.14
744.86	2365.57
745.045	2349.19
745.23	2347.14
745.415	2461.83
745.6	2232.46
745.785	2300.04
745.97	2275.46
746.155	2353.29
746.34	2267.27
746.525	2283.66
746.71	2224.26
746.895	2238.6
747.079	2195.59
747.264	2175.11
747.449	2218.12
747.634	2271.37
747.819	2152.59
748.003	2199.69
748.188	2095.24
748.373	2111.63
748.557	2146.44
748.742	2123.91
748.927	2058.38
749.111	2101.39
749.296	2052.24
749.481	2101.39
749.665	1984.65
749.85	2144.39
750.034	2001.04
750.219	1900.69
750.404	1976.46
750.588	1994.89
750.773	1829.01
750.957	1902.73
751.141	1874.06
751.326	1892.49
751.51	1824.91
751.695	1847.44
751.879	1872.01
752.064	1931.41
752.248	1869.97
752.432	1919.12
752.617	1874.06
752.801	1849.49
752.985	1734.8
753.17	1804.43
753.354	1736.85
753.538	1863.82
753.722	1798.29
753.907	1654.93
754.091	1765.52
754.275	1716.37
754.459	1720.46
754.643	1636.5
754.828	1659.03
755.012	1693.84
755.196	1695.89
755.38	1593.49
755.564	1722.51
755.748	1634.45
755.932	1693.84
756.116	1573.01
756.3	1626.26
756.484	1597.59
756.668	1603.73
756.852	1546.39
757.036	1546.39
757.22	1601.68
757.404	1609.87
757.588	1497.24
757.772	1685.65
757.956	1536.15
758.14	1487
758.323	1642.64
758.507	1495.19
758.691	1421.46
758.875	1419.41
759.059	1446.04
759.242	1319.06
759.426	1341.59
759.61	1349.78
759.794	1300.63
759.977	1405.08
760.161	1378.45
760.345	1353.88
760.528	1368.21
760.712	1321.11
760.895	1298.58
761.079	1308.82
761.263	1263.77
761.446	1403.03
761.63	1263.77
761.813	1278.1
761.997	1284.25
762.18	1321.11
762.364	1323.16
762.547	1269.91
762.731	1269.91
762.914	1310.87
763.098	1198.23
763.281	1153.18
763.464	1198.23
763.648	1233.05
763.831	1349.78
764.015	1216.66
764.198	1257.62
764.381	1226.9
764.564	1165.46
764.748	1142.94
764.931	1239.19
765.114	1171.61
765.297	1165.46
765.481	1118.36
765.664	1147.03
765.847	1177.75
766.03	1274.01
766.213	1050.78
766.397	1220.76
766.58	1185.94
766.763	1167.51
766.946	1126.55
767.129	1073.31
767.312	1095.83
767.495	1020.06
767.678	1144.99
767.861	1116.31
768.044	1065.11
768.227	1104.03
768.41	1142.94
768.593	1173.66
768.776	1054.87
768.959	1013.92
769.142	1142.94
769.324	1009.82
769.507	995.48
769.69	1011.87
769.873	1081.5
770.056	1044.63
770.239	1007.77
770.421	1013.92
770.604	1036.44
770.787	1036.44
770.97	997.53
771.152	1040.54
771.335	970.91
771.518	960.67
771.7	1054.87
771.883	1015.96
772.066	936.09
772.248	983.2
772.431	960.67
772.613	934.04
772.796	979.1
772.978	903.32
773.161	1015.96
773.343	987.29
773.526	864.41
773.708	936.09
773.891	872.61
774.073	880.8
774.256	946.33
774.438	1069.21
774.621	876.7
774.803	915.61
774.985	913.56
775.168	862.37
775.35	766.11
775.532	981.15
775.715	768.16
775.897	827.55
776.079	835.74
776.261	821.41
776.444	948.38
776.626	848.03
776.808	913.56
776.99	811.17
777.173	768.16
777.355	872.61
777.537	827.55
777.719	751.78
777.901	817.31
778.083	786.59
778.265	688.29
778.447	766.11
778.629	745.63
778.811	721.06
778.993	708.77
779.175	741.54
779.357	671.9
779.539	735.39
779.721	751.78
779.903	657.57
780.085	671.9
780.267	815.26
780.449	637.09
780.631	673.95
780.812	659.62
780.994	583.84
781.176	616.61
781.358	608.42
781.54	639.14
781.721	686.24
781.903	581.79
782.085	694.43
782.267	661.66
782.448	612.51
782.63	561.31
782.812	647.33
782.993	688.29
783.175	624.8
783.357	557.22
783.538	596.13
783.72	569.51
783.901	585.89
784.083	506.02
784.264	610.47
784.446	542.88
784.627	528.55
784.809	575.65
784.99	549.03
785.172	555.17
785.353	575.65
785.535	526.5
785.716	540.83
785.897	563.36
786.079	557.22
786.26	465.06
786.441	491.68
786.623	473.25
786.804	577.7
786.985	405.67
787.167	448.68
787.348	522.4
787.529	538.79
787.71	540.83
787.891	448.68
788.073	510.11
788.254	434.34
788.435	458.92
788.616	503.97
788.797	475.3
788.978	526.5
789.159	403.62
789.34	524.45
789.522	407.72
789.703	409.76
789.884	438.44
790.065	456.87
790.246	581.79
790.427	491.68
790.607	497.83
790.788	456.87
790.969	411.81
791.15	452.77
791.331	360.61
791.512	340.13
791.693	403.62
791.874	372.9
792.054	434.34
792.235	356.52
792.416	442.53
792.597	360.61
792.778	323.75
792.958	381.09
793.139	448.68
793.32	401.57
793.5	409.76
793.681	346.28
793.862	348.33
794.042	403.62
794.223	325.8
794.404	415.91
794.584	356.52
794.765	411.81
794.945	350.37
795.126	313.51
795.306	358.57
795.487	352.42
795.667	333.99
795.848	383.14
796.028	323.75
796.209	260.26
796.389	420
796.57	297.13
796.75	366.76
796.93	317.61
797.111	207.02
797.291	403.62
797.471	331.94
797.652	333.99
797.832	297.13
798.012	282.79
798.192	235.69
798.373	233.64
798.553	305.32
798.733	290.98
798.913	217.26
799.093	313.51
799.274	284.84
799.454	290.98
799.634	317.61
799.814	280.74
799.994	321.7
800.174	348.33
800.354	315.56
800.534	338.09
800.714	284.84
800.894	288.93
801.074	305.32
801.254	284.84
801.434	250.02
801.614	266.41
801.794	245.93
801.974	657.57
802.154	213.16
802.334	231.59
802.514	282.79
802.693	184.49
802.873	239.78
803.053	305.32
803.233	213.16
803.413	286.89
803.592	231.59
803.772	180.39
803.952	254.12
804.131	288.93
804.311	223.4
804.491	254.12
804.67	184.49
804.85	250.02
805.03	258.21
805.209	231.59
805.389	264.36
805.568	202.92
805.748	204.97
805.928	225.45
806.107	270.5
806.287	225.45
806.466	225.45
806.646	270.5
806.825	155.82
807.004	182.44
807.184	297.13
807.363	284.84
807.543	219.3
807.722	192.68
807.901	219.3
808.081	155.82
808.26	217.26
808.439	262.31
808.619	178.34
808.798	161.96
808.977	184.49
809.156	209.06
809.336	221.35
809.515	211.11
809.694	159.91
809.873	231.59
810.052	207.02
810.231	213.16
810.411	108.71
810.59	219.3
810.769	149.67
810.948	176.3
811.127	137.38
811.306	147.62
811.485	272.55
811.664	209.06
811.843	123.05
812.022	127.14
812.201	151.72
812.38	221.35
812.559	61.61
812.737	168.1
812.916	213.16
813.095	182.44
813.274	207.02
813.453	149.67
813.632	186.54
813.811	147.62
813.989	149.67
814.168	67.75
814.347	172.2
814.526	92.33
814.704	221.35
814.883	200.87
815.062	258.21
815.24	254.12
815.419	235.69
815.598	200.87
815.776	153.77
815.955	221.35
816.133	61.61
816.312	131.24
816.49	80.04
816.669	157.86
816.847	153.77
817.026	153.77
817.204	125.1
817.383	172.2
817.561	121
817.74	145.58
817.918	129.19
818.097	149.67
818.275	155.82
818.453	209.06
818.632	116.9
818.81	170.15
818.988	102.57
819.167	157.86
819.345	127.14
819.523	172.2
819.701	104.62
819.879	114.86
820.058	118.95
820.236	129.19
820.414	86.19
820.592	161.96
820.77	131.24
820.948	143.53
821.127	133.29
821.305	170.15
821.483	133.29
821.661	182.44
821.839	145.58
822.017	196.78
822.195	123.05
822.373	184.49
822.551	184.49
822.729	100.52
822.907	137.38
823.085	121
823.262	153.77
823.44	106.67
823.618	51.37
823.796	137.38
823.974	102.57
824.152	110.76
824.329	164.01
824.507	102.57
824.685	147.62
824.863	88.23
825.04	145.58
825.218	127.14
825.396	155.82
825.574	164.01
825.751	90.28
825.929	151.72
826.107	141.48
826.284	106.67
826.462	118.95
826.639	143.53
826.817	141.48
826.994	92.33
827.172	88.23
827.349	174.25
827.527	164.01
827.704	69.8
827.882	63.66
828.059	125.1
828.237	174.25
828.414	155.82
828.591	61.61
828.769	123.05
828.946	63.66
829.124	73.9
829.301	147.62
829.478	73.9
829.655	102.57
829.833	43.18
830.01	39.08
830.187	84.14
830.364	86.19
830.542	22.7
830.719	143.53
830.896	116.9
831.073	82.09
831.25	110.76
831.427	110.76
831.604	84.14
831.782	69.8
831.959	86.19
832.136	116.9
832.313	98.47
832.49	73.9
832.667	71.85
832.844	155.82
833.021	94.38
833.198	98.47
833.374	32.94
833.551	45.23
833.728	75.95
833.905	67.75
834.082	55.47
834.259	90.28
834.436	151.72
834.612	75.95
834.789	80.04
834.966	86.19
835.143	131.24
835.319	53.42
835.496	73.9
835.673	180.39
835.85	104.62
836.026	139.43
836.203	104.62
836.38	75.95
836.556	100.52
836.733	63.66
836.909	159.91
837.086	147.62
837.262	24.75
837.439	57.51
837.616	47.27
837.792	73.9
837.968	57.51
838.145	131.24
838.321	10.41
838.498	110.76
838.674	2.22
838.851	41.13
839.027	-30.55
839.203	106.67
839.38	90.28
839.556	86.19
839.732	90.28
839.909	47.27
840.085	-38.74
840.261	49.32
840.437	26.79
840.614	59.56
840.79	22.7
840.966	65.71
841.142	94.38
841.318	59.56
841.494	112.81
841.671	2.22
841.847	67.75
842.023	98.47
842.199	88.23
842.375	71.85
842.551	18.6
842.727	61.61
842.903	127.14
843.079	71.85
843.255	108.71
843.431	28.84
843.607	49.32
843.783	22.7
843.959	-12.12
844.134	43.18
844.31	73.9
844.486	10.41
844.662	16.55
844.838	96.43
845.013	-5.97
845.189	59.56
845.365	90.28
845.541	-5.97
845.716	39.08
845.892	100.52
846.068	61.61
846.244	18.6
846.419	102.57
846.595	8.36
846.77	-10.07
846.946	22.7
847.122	45.23
847.297	-5.97
847.473	63.66
847.648	61.61
847.824	26.79
847.999	-3.93
848.175	28.84
848.35	47.27
848.526	45.23
848.701	71.85
848.876	-24.4
849.052	39.08
849.227	26.79
849.403	8.36
849.578	59.56
849.753	-18.26
849.929	82.09
850.104	-18.26
850.279	6.31
850.454	6.31
850.63	100.52
850.805	43.18
850.98	6.31
851.155	30.89
851.33	16.55
851.505	94.38
851.681	-1.88
851.856	-12.12
852.031	39.08
852.206	49.32
852.381	59.56
852.556	47.27
852.731	47.27
852.906	90.28
853.081	71.85
853.256	53.42
853.431	-16.21
853.606	53.42
853.781	0.17
853.956	12.46
854.131	57.51
854.305	20.65
854.48	16.55
854.655	67.75
854.83	10.41
855.005	28.84
855.18	34.99
855.354	22.7
855.529	-36.69
855.704	10.41
855.879	49.32
856.053	-28.5
856.228	20.65
856.403	32.94
856.577	86.19
856.752	14.51
856.926	32.94
857.101	86.19
857.276	143.53
857.45	61.61
857.625	59.56
857.799	30.89
857.974	-10.07
858.148	-1.88
858.323	10.41
858.497	-3.93
858.672	22.7
858.846	59.56
859.02	57.51
859.195	2.22
859.369	92.33
859.543	80.04
859.718	45.23
859.892	-8.02
860.066	53.42
860.241	34.99
860.415	12.46
860.589	-36.69
860.763	71.85
860.938	10.41
861.112	84.14
861.286	14.51
861.46	-3.93
861.634	20.65
861.808	24.75
861.982	51.37
862.157	108.71
862.331	37.03
862.505	43.18
862.679	-36.69
862.853	51.37
863.027	22.7
863.201	69.8
863.375	-5.97
863.549	6.31
863.722	63.66
863.896	73.9
864.07	47.27
864.244	-34.64
864.418	92.33
864.592	118.95
864.766	24.75
864.939	47.27
865.113	18.6
865.287	110.76
865.461	14.51
865.634	43.18
865.808	26.79
865.982	45.23
866.156	-46.93
866.329	84.14
866.503	57.51
866.676	30.89
866.85	12.46
867.024	49.32
867.197	30.89
867.371	53.42
867.544	-79.7
867.718	-1.88
867.891	55.47
868.065	39.08
868.238	-73.56
868.412	32.94
868.585	26.79
868.759	12.46
868.932	6.31
869.105	-73.56
869.279	18.6
869.452	8.36
869.625	10.41
869.799	26.79
869.972	16.55
870.145	20.65
870.319	116.9
870.492	-18.26
870.665	47.27
870.838	-44.88
871.011	2.22
871.185	14.51
871.358	26.79
871.531	-3.93
871.704	77.99
871.877	45.23
872.05	-28.5
872.223	0.17
872.396	61.61
872.569	49.32
872.742	-3.93
872.915	28.84
873.088	-8.02
873.261	37.03
873.434	-32.6
873.607	-32.6
873.78	12.46
873.953	71.85
874.126	47.27
874.299	-20.31
874.471	-51.03
874.644	41.13
874.817	39.08
874.99	45.23
875.163	61.61
875.335	49.32
875.508	-8.02
875.681	37.03
875.853	82.09
876.026	4.27
876.199	45.23
876.371	94.38
876.544	-14.17
876.717	57.51
876.889	-32.6
877.062	45.23
877.234	-34.64
877.407	-44.88
877.579	28.84
877.752	61.61
877.924	-36.69
878.097	-1.88
878.269	-1.88
878.442	4.27
878.614	45.23
878.786	-61.27
878.959	53.42
879.131	59.56
879.303	-73.56
879.476	8.36
879.648	26.79
879.82	47.27
879.993	-34.64
880.165	37.03
880.337	34.99
880.509	2.22
880.681	0.17
880.854	51.37
881.026	26.79
881.198	14.51
881.37	-10.07
881.542	28.84
881.714	-22.36
881.886	2.22
882.058	-61.27
882.23	75.95
882.402	-16.21
882.574	16.55
882.746	24.75
882.918	39.08
883.09	77.99
883.262	-34.64
883.434	73.9
883.606	-63.32
883.778	-51.03
883.95	0.17
884.122	67.75
884.293	32.94
884.465	34.99
884.637	47.27
884.809	-12.12
884.98	-18.26
885.152	4.27
885.324	28.84
885.496	-38.74
885.667	24.75
885.839	-8.02
886.011	12.46
886.182	20.65
886.354	12.46
886.525	-3.93
886.697	37.03
886.869	20.65
887.04	-3.93
887.212	2.22
887.383	10.41
887.555	-1.88
887.726	8.36
887.897	90.28
888.069	24.75
888.24	-1.88
888.412	84.14
888.583	-5.97
888.754	53.42
888.926	-26.45
889.097	-75.6
889.268	-3.93
889.44	18.6
889.611	24.75
889.782	59.56
889.953	12.46
890.125	22.7
890.296	16.55
890.467	-16.21
890.638	20.65
890.809	45.23
890.98	-10.07
891.151	26.79
891.323	59.56
891.494	32.94
891.665	16.55
891.836	-38.74
892.007	-14.17
892.178	-12.12
892.349	-5.97
892.52	8.36
892.691	75.95
892.862	75.95
893.032	14.51
893.203	51.37
893.374	34.99
893.545	-32.6
893.716	-36.69
893.887	-10.07
894.057	-42.84
894.228	32.94
894.399	55.47
894.57	41.13
894.74	-48.98
894.911	2.22
895.082	30.89
895.253	2.22
895.423	34.99
895.594	63.66
895.764	-18.26
895.935	6.31
896.106	-12.12
896.276	-24.4
896.447	16.55
896.617	18.6
896.788	10.41
896.958	10.41
897.129	-40.79
897.299	34.99
897.47	22.7
897.64	24.75
897.81	-71.51
897.981	37.03
898.151	12.46
898.322	-24.4
898.492	-1.88
898.662	-44.88
898.832	-26.45
899.003	12.46
899.173	-14.17
899.343	14.51
899.513	24.75
