Data from USB4F104151__58__11-30-45-463.txt Node

Date: Fri Mar 14 11:30:45 EDT 2025
User: louis
Spectrometer: USB4F10415
Trigger mode: 4
Integration Time (sec): 5.000000E-2
Scans to average: 1
Electric dark correction enabled: true
Nonlinearity correction enabled: false
Boxcar width: 0
XAxis mode: Wavelengths
Number of Pixels in Spectrum: 3648
>>>>>Begin Spectral Data<<<<<
178.204	-108.2
178.424	-108.2
178.644	-108.2
178.864	-89.77
179.084	-126.63
179.304	6.49
179.524	-32.43
179.744	12.63
179.964	45.4
180.184	26.96
180.404	33.11
180.624	-52.91
180.844	16.73
181.064	-65.19
181.283	57.68
181.503	-40.62
181.723	-7.85
181.943	-71.34
182.163	39.25
182.383	10.58
182.602	61.78
182.822	80.21
183.042	37.2
183.262	69.97
183.482	55.64
183.701	-11.95
183.921	53.59
184.141	-5.8
184.361	53.59
184.58	4.44
184.8	-26.28
185.02	-36.52
185.239	37.2
185.459	29.01
185.679	88.4
185.898	33.11
186.118	47.44
186.338	-1.71
186.557	102.74
186.777	12.63
186.997	16.73
187.216	31.06
187.436	131.41
187.655	94.55
187.875	94.55
188.095	-24.23
188.314	16.73
188.534	137.56
188.753	16.73
188.973	96.6
189.192	55.64
189.412	18.77
189.631	-26.28
189.851	26.96
190.07	22.87
190.29	55.64
190.509	4.44
190.729	-3.75
190.948	4.44
191.168	155.99
191.387	92.5
191.607	-57
191.826	37.2
192.045	57.68
192.265	117.08
192.484	90.45
192.704	-24.23
192.923	0.34
193.142	141.65
193.362	6.49
193.581	117.08
193.8	35.16
194.02	147.8
194.239	41.3
194.458	14.68
194.678	-32.43
194.897	14.68
195.116	98.64
195.335	106.84
195.555	123.22
195.774	102.74
195.993	16.73
196.212	8.53
196.432	57.68
196.651	47.44
196.87	33.11
197.089	98.64
197.308	123.22
197.528	131.41
197.747	-3.75
197.966	69.97
198.185	57.68
198.404	33.11
198.623	-9.9
198.842	14.68
199.062	41.3
199.281	80.21
199.5	74.07
199.719	63.83
199.938	-1.71
200.157	55.64
200.376	41.3
200.595	49.49
200.814	57.68
201.033	41.3
201.252	63.83
201.471	41.3
201.69	104.79
201.909	80.21
202.128	137.56
202.347	86.36
202.566	94.55
202.785	-26.28
203.004	12.63
203.223	188.75
203.442	6.49
203.661	37.2
203.879	41.3
204.098	123.22
204.317	41.3
204.536	151.89
204.755	82.26
204.974	41.3
205.193	69.97
205.411	14.68
205.63	41.3
205.849	37.2
206.068	37.2
206.287	45.4
206.505	0.34
206.724	39.25
206.943	-24.23
207.162	94.55
207.381	49.49
207.599	55.64
207.818	90.45
208.037	-9.9
208.255	37.2
208.474	2.39
208.693	45.4
208.911	26.96
209.13	88.4
209.349	33.11
209.567	69.97
209.786	8.53
210.005	45.4
210.223	49.49
210.442	-18.09
210.661	33.11
210.879	35.16
211.098	65.88
211.316	41.3
211.535	184.66
211.753	-1.71
211.972	41.3
212.191	49.49
212.409	2.39
212.628	90.45
212.846	4.44
213.065	-16.04
213.283	115.03
213.502	20.82
213.72	-50.86
213.938	14.68
214.157	8.53
214.375	117.08
214.594	-11.95
214.812	119.12
215.031	16.73
215.249	78.16
215.467	16.73
215.686	24.92
215.904	106.84
216.122	57.68
216.341	59.73
216.559	-67.24
216.778	49.49
216.996	72.02
217.214	24.92
217.432	6.49
217.651	-13.99
217.869	55.64
218.087	6.49
218.306	39.25
218.524	57.68
218.742	29.01
218.96	74.07
219.179	6.49
219.397	16.73
219.615	151.89
219.833	8.53
220.051	-9.9
220.27	78.16
220.488	53.59
220.706	41.3
220.924	-28.33
221.142	53.59
221.36	33.11
221.578	31.06
221.796	37.2
222.015	10.58
222.233	82.26
222.451	61.78
222.669	29.01
222.887	94.55
223.105	-34.47
223.323	96.6
223.541	43.35
223.759	104.79
223.977	2.39
224.195	147.8
224.413	115.03
224.631	69.97
224.849	133.46
225.067	47.44
225.285	10.58
225.503	45.4
225.721	39.25
225.939	31.06
226.157	88.4
226.375	121.17
226.592	33.11
226.81	2.39
227.028	55.64
227.246	61.78
227.464	98.64
227.682	49.49
227.9	78.16
228.117	63.83
228.335	-3.75
228.553	33.11
228.771	102.74
228.989	-3.75
229.206	96.6
229.424	69.97
229.642	39.25
229.86	-9.9
230.077	39.25
230.295	-28.33
230.513	74.07
230.731	33.11
230.948	6.49
231.166	190.8
231.384	16.73
231.601	10.58
231.819	106.84
232.037	43.35
232.254	53.59
232.472	147.8
232.689	49.49
232.907	0.34
233.125	-22.19
233.342	69.97
233.56	-34.47
233.777	26.96
233.995	65.88
234.213	76.12
234.43	74.07
234.648	-22.19
234.865	31.06
235.083	41.3
235.3	78.16
235.518	37.2
235.735	8.53
235.953	74.07
236.17	78.16
236.388	33.11
236.605	33.11
236.822	102.74
237.04	72.02
237.257	33.11
237.475	31.06
237.692	123.22
237.909	8.53
238.127	57.68
238.344	108.88
238.562	37.2
238.779	6.49
238.996	43.35
239.214	49.49
239.431	74.07
239.648	16.73
239.865	-24.23
240.083	41.3
240.3	39.25
240.517	20.82
240.735	74.07
240.952	121.17
241.169	88.4
241.386	-32.43
241.603	41.3
241.821	0.34
242.038	74.07
242.255	96.6
242.472	98.64
242.689	14.68
242.907	94.55
243.124	-1.71
243.341	82.26
243.558	43.35
243.775	49.49
243.992	-1.71
244.209	98.64
244.426	88.4
244.643	65.88
244.86	41.3
245.078	63.83
245.295	6.49
245.512	127.32
245.729	20.82
245.946	20.82
246.163	63.83
246.38	57.68
246.597	24.92
246.814	51.54
247.031	90.45
247.248	63.83
247.464	8.53
247.681	65.88
247.898	14.68
248.115	72.02
248.332	-1.71
248.549	164.18
248.766	80.21
248.983	131.41
249.2	-40.62
249.417	59.73
249.633	96.6
249.85	33.11
250.067	-3.75
250.284	16.73
250.501	104.79
250.717	139.6
250.934	57.68
251.151	69.97
251.368	78.16
251.585	4.44
251.801	49.49
252.018	98.64
252.235	74.07
252.451	37.2
252.668	-1.71
252.885	121.17
253.102	10.58
253.318	20.82
253.535	39.25
253.752	57.68
253.968	33.11
254.185	31.06
254.401	8.53
254.618	139.6
254.835	0.34
255.051	37.2
255.268	100.69
255.484	61.78
255.701	104.79
255.917	12.63
256.134	104.79
256.351	112.98
256.567	-9.9
256.784	12.63
257	35.16
257.217	94.55
257.433	76.12
257.65	53.59
257.866	74.07
258.082	78.16
258.299	86.36
258.515	69.97
258.732	80.21
258.948	16.73
259.165	82.26
259.381	72.02
259.597	57.68
259.814	41.3
260.03	74.07
260.246	18.77
260.463	47.44
260.679	92.5
260.895	59.73
261.112	-52.91
261.328	47.44
261.544	61.78
261.761	90.45
261.977	135.51
262.193	24.92
262.409	57.68
262.626	49.49
262.842	-9.9
263.058	16.73
263.274	69.97
263.49	53.59
263.707	78.16
263.923	57.68
264.139	49.49
264.355	49.49
264.571	65.88
264.787	51.54
265.004	43.35
265.22	98.64
265.436	98.64
265.652	63.83
265.868	8.53
266.084	31.06
266.3	115.03
266.516	2.39
266.732	2.39
266.948	-16.04
267.164	29.01
267.38	110.93
267.596	-26.28
267.812	102.74
268.028	61.78
268.244	41.3
268.46	37.2
268.676	137.56
268.892	33.11
269.108	-24.23
269.324	-7.85
269.54	65.88
269.756	59.73
269.972	-28.33
270.188	51.54
270.403	14.68
270.619	57.68
270.835	84.31
271.051	12.63
271.267	92.5
271.483	45.4
271.698	57.68
271.914	53.59
272.13	24.92
272.346	57.68
272.562	33.11
272.777	47.44
272.993	63.83
273.209	92.5
273.425	80.21
273.64	-26.28
273.856	63.83
274.072	14.68
274.287	-61.1
274.503	67.92
274.719	57.68
274.934	31.06
275.15	8.53
275.366	94.55
275.581	84.31
275.797	65.88
276.012	18.77
276.228	10.58
276.444	12.63
276.659	86.36
276.875	22.87
277.09	94.55
277.306	29.01
277.521	29.01
277.737	92.5
277.952	43.35
278.168	86.36
278.383	43.35
278.599	74.07
278.814	104.79
279.03	6.49
279.245	53.59
279.461	61.78
279.676	74.07
279.892	55.64
280.107	96.6
280.322	-7.85
280.538	65.88
280.753	-11.95
280.969	98.64
281.184	69.97
281.399	12.63
281.615	61.78
281.83	26.96
282.045	-44.71
282.26	16.73
282.476	55.64
282.691	29.01
282.906	24.92
283.122	-5.8
283.337	35.16
283.552	106.84
283.767	-9.9
283.983	121.17
284.198	14.68
284.413	-7.85
284.628	26.96
284.843	49.49
285.058	57.68
285.274	47.44
285.489	12.63
285.704	94.55
285.919	33.11
286.134	69.97
286.349	29.01
286.564	47.44
286.779	86.36
286.995	-3.75
287.21	-26.28
287.425	82.26
287.64	69.97
287.855	-7.85
288.07	14.68
288.285	88.4
288.5	43.35
288.715	24.92
288.93	29.01
289.145	16.73
289.36	88.4
289.575	35.16
289.79	121.17
290.004	24.92
290.219	90.45
290.434	33.11
290.649	-32.43
290.864	78.16
291.079	121.17
291.294	37.2
291.509	53.59
291.724	43.35
291.938	37.2
292.153	92.5
292.368	33.11
292.583	57.68
292.798	131.41
293.012	108.88
293.227	33.11
293.442	69.97
293.657	176.47
293.871	61.78
294.086	61.78
294.301	137.56
294.516	96.6
294.73	10.58
294.945	49.49
295.16	67.92
295.374	104.79
295.589	108.88
295.804	55.64
296.018	106.84
296.233	119.12
296.447	31.06
296.662	20.82
296.877	49.49
297.091	115.03
297.306	0.34
297.52	24.92
297.735	65.88
297.949	90.45
298.164	41.3
298.378	26.96
298.593	24.92
298.807	47.44
299.022	-3.75
299.236	80.21
299.451	-28.33
299.665	8.53
299.88	96.6
300.094	49.49
300.309	74.07
300.523	22.87
300.737	8.53
300.952	47.44
301.166	31.06
301.381	31.06
301.595	90.45
301.809	8.53
302.024	51.54
302.238	63.83
302.452	162.13
302.667	39.25
302.881	94.55
303.095	33.11
303.309	69.97
303.524	20.82
303.738	33.11
303.952	2.39
304.166	4.44
304.381	37.2
304.595	106.84
304.809	4.44
305.023	78.16
305.237	55.64
305.452	49.49
305.666	47.44
305.88	49.49
306.094	67.92
306.308	131.41
306.522	45.4
306.736	6.49
306.95	139.6
307.164	24.92
307.379	-3.75
307.593	45.4
307.807	76.12
308.021	90.45
308.235	24.92
308.449	8.53
308.663	24.92
308.877	149.84
309.091	80.21
309.305	135.51
309.519	-67.24
309.733	135.51
309.947	20.82
310.161	67.92
310.374	74.07
310.588	51.54
310.802	18.77
311.016	24.92
311.23	82.26
311.444	47.44
311.658	24.92
311.872	47.44
312.085	65.88
312.299	82.26
312.513	65.88
312.727	115.03
312.941	-3.75
313.154	37.2
313.368	41.3
313.582	98.64
313.796	115.03
314.009	22.87
314.223	18.77
314.437	53.59
314.651	86.36
314.864	92.5
315.078	26.96
315.292	-28.33
315.505	82.26
315.719	92.5
315.933	41.3
316.146	43.35
316.36	24.92
316.573	24.92
316.787	53.59
317.001	47.44
317.214	51.54
317.428	18.77
317.641	90.45
317.855	96.6
318.068	98.64
318.282	49.49
318.495	49.49
318.709	119.12
318.922	37.2
319.136	86.36
319.349	69.97
319.563	67.92
319.776	123.22
319.99	-18.09
320.203	100.69
320.417	98.64
320.63	47.44
320.843	94.55
321.057	59.73
321.27	37.2
321.483	41.3
321.697	131.41
321.91	49.49
322.124	164.18
322.337	119.12
322.55	72.02
322.763	53.59
322.977	24.92
323.19	35.16
323.403	63.83
323.617	33.11
323.83	41.3
324.043	127.32
324.256	49.49
324.469	115.03
324.683	90.45
324.896	-28.33
325.109	76.12
325.322	-32.43
325.535	74.07
325.748	31.06
325.962	80.21
326.175	78.16
326.388	76.12
326.601	39.25
326.814	29.01
327.027	84.31
327.24	55.64
327.453	-16.04
327.666	65.88
327.879	61.78
328.092	104.79
328.305	-40.62
328.518	20.82
328.731	24.92
328.944	98.64
329.157	49.49
329.37	74.07
329.583	86.36
329.796	106.84
330.009	-26.28
330.222	16.73
330.435	139.6
330.648	16.73
330.861	53.59
331.073	49.49
331.286	115.03
331.499	57.68
331.712	35.16
331.925	57.68
332.138	-16.04
332.35	158.03
332.563	69.97
332.776	98.64
332.989	63.83
333.202	57.68
333.414	-9.9
333.627	59.73
333.84	53.59
334.053	76.12
334.265	57.68
334.478	63.83
334.691	39.25
334.903	96.6
335.116	-7.85
335.329	10.58
335.541	63.83
335.754	102.74
335.966	49.49
336.179	65.88
336.392	72.02
336.604	69.97
336.817	37.2
337.029	33.11
337.242	16.73
337.454	82.26
337.667	-1.71
337.88	108.88
338.092	90.45
338.305	96.6
338.517	0.34
338.729	106.84
338.942	47.44
339.154	18.77
339.367	29.01
339.579	20.82
339.792	29.01
340.004	115.03
340.217	29.01
340.429	123.22
340.641	-18.09
340.854	20.82
341.066	57.68
341.278	139.6
341.491	135.51
341.703	90.45
341.915	74.07
342.128	100.69
342.34	82.26
342.552	49.49
342.764	8.53
342.977	69.97
343.189	96.6
343.401	80.21
343.613	72.02
343.826	16.73
344.038	88.4
344.25	90.45
344.462	12.63
344.674	65.88
344.886	8.53
345.099	106.84
345.311	61.78
345.523	61.78
345.735	37.2
345.947	106.84
346.159	33.11
346.371	39.25
346.583	20.82
346.795	112.98
347.007	72.02
347.219	76.12
347.431	4.44
347.643	94.55
347.855	69.97
348.067	74.07
348.279	24.92
348.491	4.44
348.703	121.17
348.915	24.92
349.127	53.59
349.339	47.44
349.551	8.53
349.763	88.4
349.975	37.2
350.187	65.88
350.399	115.03
350.61	72.02
350.822	16.73
351.034	8.53
351.246	63.83
351.458	108.88
351.669	94.55
351.881	96.6
352.093	119.12
352.305	139.6
352.517	39.25
352.728	117.08
352.94	49.49
353.152	35.16
353.363	78.16
353.575	90.45
353.787	119.12
353.999	43.35
354.21	47.44
354.422	39.25
354.633	104.79
354.845	55.64
355.057	16.73
355.268	35.16
355.48	86.36
355.692	6.49
355.903	145.75
356.115	-20.14
356.326	51.54
356.538	98.64
356.749	155.99
356.961	65.88
357.172	31.06
357.384	16.73
357.595	180.56
357.807	49.49
358.018	41.3
358.23	80.21
358.441	160.08
358.653	110.93
358.864	57.68
359.075	43.35
359.287	61.78
359.498	69.97
359.709	115.03
359.921	76.12
360.132	65.88
360.344	43.35
360.555	39.25
360.766	92.5
360.977	-3.75
361.189	12.63
361.4	16.73
361.611	8.53
361.823	119.12
362.034	65.88
362.245	-16.04
362.456	43.35
362.667	98.64
362.879	65.88
363.09	76.12
363.301	24.92
363.512	86.36
363.723	74.07
363.935	20.82
364.146	88.4
364.357	57.68
364.568	82.26
364.779	-40.62
364.99	98.64
365.201	-52.91
365.412	123.22
365.623	-9.9
365.834	65.88
366.045	117.08
366.256	63.83
366.467	82.26
366.678	49.49
366.889	-20.14
367.1	63.83
367.311	119.12
367.522	6.49
367.733	33.11
367.944	123.22
368.155	65.88
368.366	98.64
368.577	115.03
368.788	67.92
368.999	69.97
369.209	123.22
369.42	123.22
369.631	145.75
369.842	16.73
370.053	86.36
370.264	153.94
370.474	92.5
370.685	96.6
370.896	16.73
371.107	160.08
371.317	61.78
371.528	22.87
371.739	102.74
371.95	80.21
372.16	127.32
372.371	16.73
372.582	74.07
372.792	55.64
373.003	51.54
373.214	78.16
373.424	106.84
373.635	39.25
373.846	151.89
374.056	65.88
374.267	80.21
374.477	55.64
374.688	80.21
374.898	115.03
375.109	0.34
375.319	47.44
375.53	76.12
375.74	65.88
375.951	55.64
376.161	-34.47
376.372	41.3
376.582	102.74
376.793	96.6
377.003	39.25
377.214	8.53
377.424	139.6
377.635	139.6
377.845	57.68
378.055	147.8
378.266	20.82
378.476	24.92
378.686	112.98
378.897	100.69
379.107	-24.23
379.317	88.4
379.528	41.3
379.738	69.97
379.948	-20.14
380.158	188.75
380.369	139.6
380.579	139.6
380.789	115.03
380.999	133.46
381.21	145.75
381.42	112.98
381.63	127.32
381.84	123.22
382.05	57.68
382.261	155.99
382.471	57.68
382.681	65.88
382.891	153.94
383.101	104.79
383.311	24.92
383.521	20.82
383.731	92.5
383.941	69.97
384.151	74.07
384.361	147.8
384.571	108.88
384.781	57.68
384.991	74.07
385.201	166.23
385.411	164.18
385.621	-11.95
385.831	125.27
386.041	-3.75
386.251	-7.85
386.461	180.56
386.671	65.88
386.881	96.6
387.091	55.64
387.301	133.46
387.511	63.83
387.72	72.02
387.93	112.98
388.14	45.4
388.35	92.5
388.56	106.84
388.769	139.6
388.979	47.44
389.189	67.92
389.399	63.83
389.609	88.4
389.818	158.03
390.028	98.64
390.238	141.65
390.447	78.16
390.657	121.17
390.867	139.6
391.076	37.2
391.286	72.02
391.496	57.68
391.705	39.25
391.915	88.4
392.125	129.36
392.334	65.88
392.544	151.89
392.753	69.97
392.963	41.3
393.172	14.68
393.382	-28.33
393.591	106.84
393.801	65.88
394.01	188.75
394.22	90.45
394.429	67.92
394.639	61.78
394.848	164.18
395.058	172.37
395.267	137.56
395.477	155.99
395.686	127.32
395.895	147.8
396.105	172.37
396.314	129.36
396.524	164.18
396.733	141.65
396.942	176.47
397.152	145.75
397.361	145.75
397.57	98.64
397.78	67.92
397.989	123.22
398.198	164.18
398.407	112.98
398.617	90.45
398.826	90.45
399.035	155.99
399.244	166.23
399.453	121.17
399.663	137.56
399.872	147.8
400.081	92.5
400.29	198.99
400.499	53.59
400.708	147.8
400.917	164.18
401.127	170.32
401.336	123.22
401.545	166.23
401.754	174.42
401.963	131.41
402.172	94.55
402.381	104.79
402.59	205.14
402.799	137.56
403.008	221.52
403.217	102.74
403.426	178.51
403.635	110.93
403.844	139.6
404.053	164.18
404.262	90.45
404.471	233.81
404.68	194.9
404.888	180.56
405.097	207.19
405.306	129.36
405.515	201.04
405.724	96.6
405.933	221.52
406.142	133.46
406.35	254.29
406.559	213.33
406.768	233.81
406.977	231.76
407.185	287.06
407.394	252.24
407.603	192.85
407.812	272.72
408.02	301.39
408.229	217.43
408.438	242
408.646	252.24
408.855	270.67
409.064	301.39
409.272	373.07
409.481	309.58
409.69	336.21
409.898	323.92
410.107	336.21
410.315	373.07
410.524	377.17
410.733	366.93
410.941	442.7
411.15	436.56
411.358	377.17
411.567	502.09
411.775	485.71
411.984	459.09
412.192	506.19
412.401	498
412.609	504.14
412.818	534.86
413.026	672.08
413.234	532.81
413.443	627.02
413.651	586.06
413.86	581.96
414.068	721.23
414.276	647.5
414.485	686.41
414.693	743.75
414.901	768.33
415.11	770.38
415.318	715.08
415.526	807.24
415.734	872.78
415.943	891.21
416.151	846.15
416.359	950.6
416.567	960.84
416.776	1022.28
416.984	1128.77
417.192	975.17
417.4	1081.67
417.608	1083.72
417.817	1200.45
418.025	1218.88
418.233	1237.31
418.441	1220.93
418.649	1210.69
418.857	1440.06
419.065	1483.07
419.273	1382.72
419.481	1417.54
419.689	1519.93
419.897	1626.43
420.105	1655.1
420.313	1630.52
420.521	1777.98
420.729	1790.27
420.937	1913.14
421.145	1808.7
421.353	2007.35
421.561	2064.69
421.769	2095.41
421.977	2185.52
422.185	2081.08
422.393	2328.88
422.601	2507.06
422.809	2537.77
423.017	2441.52
423.224	2537.77
423.432	2640.17
423.64	2693.42
423.848	3072.29
424.056	2865.45
424.263	3035.43
424.471	3131.69
424.679	3158.31
424.887	3316
425.094	3438.88
425.302	3387.68
425.51	3399.97
425.718	3707.16
425.925	3707.16
426.133	3961.11
426.341	4020.5
426.548	4315.41
426.756	4274.45
426.964	4299.03
427.171	4634.89
427.379	4655.37
427.586	4573.46
427.794	4864.27
428.001	5077.26
428.209	5300.48
428.417	5134.6
428.624	5441.79
428.832	5445.89
429.039	5515.52
429.247	5601.54
429.454	6125.82
429.662	6387.96
429.869	6004.99
430.076	6420.72
430.284	6441.2
430.491	6578.42
430.699	6971.63
430.906	6809.84
431.114	6963.44
431.321	7332.07
431.528	7526.63
431.736	7796.96
431.943	8073.43
432.15	8255.7
432.358	8134.87
432.565	8460.5
432.772	8597.71
432.979	9187.53
433.187	9171.15
433.394	9165
433.601	9740.48
433.808	9662.66
434.016	9937.09
434.223	10191.03
434.43	10969.26
434.637	10647.73
434.844	11141.29
435.052	11655.33
435.259	11616.42
435.466	11561.12
435.673	11485.35
435.88	12150.94
436.087	12898.45
436.294	12785.81
436.501	12417.18
436.708	12822.67
436.915	13222.03
437.122	13645.96
437.329	13721.73
437.537	13955.2
437.743	14334.07
437.95	14188.67
438.157	15001.71
438.364	15560.81
438.571	15480.94
438.778	15792.23
438.985	17174.61
439.192	16396.38
439.399	16969.81
439.606	16519.26
439.813	17565.77
440.02	18585.66
440.227	18241.6
440.433	18044.99
440.64	18483.26
440.847	18491.45
441.054	19314.73
441.261	20269.09
441.467	19947.56
441.674	20277.28
441.881	20989.97
442.088	20953.11
442.294	21020.69
442.501	21481.49
442.708	21641.23
442.914	22827
443.121	23844.84
443.328	23191.54
443.534	24770.52
443.741	24082.41
443.948	23848.94
444.154	25692.11
444.361	25069.53
444.568	25415.63
444.774	25354.19
444.981	25524.18
445.187	26208.2
445.394	27676.59
445.6	27142.07
445.807	29910.92
446.013	28807.07
446.22	29249.43
446.426	30197.64
446.633	30756.74
446.839	31721.33
447.046	30369.67
447.252	32261.99
447.459	32112.49
447.665	31905.65
447.871	33173.34
448.078	34570.05
448.284	33259.35
448.491	33883.98
448.697	35305.27
448.903	35698.48
449.11	35729.2
449.316	35145.53
449.522	36347.69
449.728	36890.4
449.935	37316.38
450.141	36992.8
450.347	38031.12
450.553	36722.47
450.76	37543.7
450.966	38598.41
451.172	38016.79
451.378	39198.46
451.584	38012.69
451.791	38883.08
451.997	38596.36
452.203	39536.38
452.409	39585.53
452.615	39149.31
452.821	37744.41
453.027	37390.11
453.233	39405.31
453.44	37965.59
453.646	38328.08
453.852	38348.56
454.058	39069.44
454.264	37605.14
454.47	38690.57
454.676	37613.34
454.882	38702.85
455.088	35770.16
455.294	36054.83
455.5	36267.82
455.705	36908.83
455.911	35149.63
456.117	35043.13
456.323	34002.77
456.529	32444.26
456.735	33714
456.941	32894.82
457.147	32339.82
457.352	31313.78
457.558	30875.52
457.764	31014.78
457.97	30226.31
458.176	29839.25
458.381	29886.35
458.587	28153.77
458.793	28579.75
458.999	26853.31
459.204	28880.8
459.41	27944.87
459.616	26054.6
459.821	26169.29
460.027	25978.82
460.233	25339.86
460.438	24487.9
460.644	24539.1
460.85	23537.65
461.055	23269.36
461.261	23111.67
461.466	21153.81
461.672	20783.13
461.878	21880.84
462.083	20869.14
462.289	20428.83
462.494	20066.34
462.7	19341.36
462.905	18763.83
463.111	19429.42
463.316	19425.32
463.522	19046.45
463.727	18882.61
463.932	18978.87
464.138	18720.82
464.343	18522.17
464.549	18198.59
464.754	18944.05
464.959	18667.58
465.165	18581.56
465.37	17905.73
465.575	17242.19
465.781	17999.94
465.986	18174.02
466.191	17401.93
466.397	17258.57
466.602	16486.49
466.807	16879.7
467.012	16873.56
467.218	16758.87
467.423	16355.42
467.628	16810.07
467.833	17174.61
468.038	16742.49
468.244	16126.05
468.449	16787.54
468.654	16242.78
468.859	16222.3
469.064	16169.05
469.269	15534.18
469.474	15663.21
469.679	16074.85
469.885	15358.06
470.09	15499.37
470.295	15677.54
470.5	15278.19
470.705	15114.35
470.91	14942.32
471.115	15061.1
471.32	15007.86
471.525	14819.44
471.73	14649.46
471.935	14506.1
472.139	14096.51
472.344	14061.69
472.549	14164.09
472.754	13871.23
472.959	13684.87
473.164	13291.66
473.369	13170.83
473.574	13666.44
473.778	13441.16
473.983	13437.06
474.188	13344.91
474.393	12767.38
474.598	12755.09
474.802	12683.41
475.007	12581.01
475.212	12472.47
475.417	12183.71
475.621	12384.41
475.826	12165.28
476.031	11753.63
476.235	11681.96
476.44	11970.72
476.645	11747.49
476.849	11763.87
477.054	11389.1
477.259	11370.66
477.463	11225.26
477.668	10848.43
477.872	11022.51
478.077	10873.01
478.282	10666.16
478.486	10635.44
478.691	10619.06
478.895	10531
479.1	10516.66
479.304	10655.92
479.509	10270.9
479.713	10334.39
479.918	9963.71
480.122	9797.82
480.326	10387.64
480.531	10303.67
480.735	10051.77
480.94	9951.42
481.144	10268.86
481.348	9715.91
481.553	9937.09
481.757	9576.64
481.961	9748.67
482.166	10037.44
482.37	9687.23
482.574	9638.08
482.778	9713.86
482.983	9902.27
483.187	9797.82
483.391	9810.11
483.595	9633.99
483.8	9584.84
484.004	9687.23
484.208	9593.03
484.412	9658.56
484.616	9765.06
484.821	9633.99
485.025	9582.79
485.229	9879.74
485.433	9826.5
485.637	9715.91
485.841	9554.12
486.045	9615.55
486.249	9693.38
486.453	9545.92
486.657	9691.33
486.861	9631.94
487.065	9615.55
487.269	9797.82
487.473	9394.37
487.677	9478.34
487.881	9877.69
488.085	9650.37
488.289	9570.5
488.493	9593.03
488.697	9732.29
488.901	9787.58
489.105	9580.74
489.309	9783.49
489.512	9760.96
489.716	9949.37
489.92	9769.15
490.124	9660.61
490.328	9984.19
490.531	9889.98
490.735	9967.81
490.939	10047.68
491.143	9806.02
491.346	9748.67
491.55	10225.85
491.754	10068.16
491.958	10162.36
492.161	9988.28
492.365	10066.11
492.569	10059.96
492.772	10281.14
492.976	10285.24
493.18	10277.05
493.383	10557.62
493.587	10496.18
493.79	10557.62
493.994	10334.39
494.197	10463.41
494.401	10817.71
494.605	10825.9
494.808	11049.13
495.012	10963.12
495.215	11124.91
495.419	11221.16
495.622	11163.82
495.825	11182.25
496.029	11296.94
496.232	11509.93
496.436	11430.05
496.639	11825.31
496.843	11724.96
497.046	12148.89
497.249	12048.54
497.453	12187.8
497.656	12169.37
497.859	12114.08
498.063	12656.79
498.266	12755.09
498.469	12521.62
498.673	12744.85
498.876	13156.49
499.079	12943.5
499.282	12890.26
499.485	13152.4
499.689	13385.87
499.892	13736.07
500.095	13496.46
500.298	13942.91
500.501	14039.17
500.705	14303.36
500.908	14395.51
501.111	14454.9
501.314	14958.71
501.517	14921.84
501.72	15161.45
501.923	14975.09
502.126	15464.55
502.329	15612.01
502.532	15552.62
502.735	15949.92
502.938	16197.73
503.141	16027.74
503.344	16463.96
503.547	16490.59
503.75	16769.11
503.953	17078.35
504.156	17102.93
504.359	17209.42
504.562	17737.8
504.765	17870.92
504.968	18092.1
505.17	18432.06
505.373	18286.65
505.576	18366.53
505.779	19159.09
505.982	19005.49
506.185	19333.17
506.387	19546.16
506.59	19662.89
506.793	19896.36
506.996	19990.56
507.198	20676.63
507.401	20611.1
507.604	20910.1
507.807	21424.14
508.009	21497.87
508.212	21557.26
508.415	21680.14
508.617	22169.6
508.82	22286.34
509.022	22212.61
509.225	22880.25
509.428	23132.15
509.63	23369.71
509.833	23392.24
510.035	23967.72
510.238	24068.07
510.44	24336.35
510.643	24737.76
510.845	24772.57
511.048	25073.62
511.25	25565.14
511.453	25802.7
511.655	26931.13
511.858	26150.85
512.06	26804.16
512.262	26775.48
512.465	27162.55
512.667	27572.14
512.87	27774.89
513.072	28321.7
513.274	28606.37
513.477	29052.83
513.679	29296.53
513.881	29620.11
514.084	29972.36
514.286	29820.81
514.488	30347.14
514.69	31567.73
514.893	31190.91
515.095	31715.19
515.297	32237.42
515.499	32153.45
515.701	32819.04
515.904	33003.36
516.106	33576.79
516.308	34101.07
516.51	34230.09
516.712	34408.26
516.914	35299.13
517.116	35792.69
517.318	35714.87
517.52	35981.1
517.722	36624.17
517.925	37087.01
518.127	37459.74
518.329	37844.76
518.531	37814.04
518.733	38596.36
518.935	39292.67
519.136	39472.89
519.338	40150.77
519.54	40306.41
519.742	41117.41
519.944	41121.51
520.146	41772.76
520.348	42612.43
520.55	43249.35
520.752	43185.86
520.954	43656.89
521.155	43658.94
521.357	44598.96
521.559	44676.78
521.761	45549.21
521.963	45827.74
522.164	46448.27
522.366	46487.18
522.568	46810.76
522.77	47498.88
522.971	48737.9
523.173	48105.08
523.375	48862.83
523.576	49133.16
523.778	49383.01
523.98	49655.39
524.181	50288.21
524.383	50755.15
524.584	52086.33
524.786	51899.97
524.988	51779.14
525.189	52526.64
525.391	53124.65
525.592	53012.01
525.794	53499.43
525.995	54011.42
526.197	53954.08
526.398	54404.63
526.6	54758.93
526.801	55150.09
527.003	55567.88
527.204	55727.62
527.406	56280.57
527.607	56157.69
527.808	57271.79
528.01	56571.38
528.211	57107.95
528.412	58697.17
528.614	58322.4
528.815	58410.46
529.016	58920.4
529.218	58648.02
529.419	58871.25
529.62	59557.32
529.822	59307.47
530.023	59352.52
530.224	59459.02
530.425	59798.98
530.626	59815.36
530.828	59784.65
531.029	61253.04
531.23	60192.19
531.431	60839.35
531.632	60929.46
531.833	61404.59
532.035	61404.59
532.236	61478.32
532.437	61758.89
532.638	61703.59
532.839	61881.77
533.04	62170.53
533.241	62051.75
533.442	63268.24
533.643	62363.04
533.844	62977.43
534.045	62604.7
534.246	62444.96
534.447	62760.34
534.648	62932.37
534.849	62703
535.05	62991.76
535.251	62956.95
535.451	62862.74
535.652	63505.8
535.853	63589.77
536.054	63153.55
536.255	63837.58
536.456	63243.66
536.657	64103.81
536.857	63268.24
537.058	63145.36
537.259	63931.78
537.46	64087.43
537.66	63632.78
537.861	64073.09
538.062	63870.34
538.263	64148.87
538.463	63651.21
538.664	64148.87
538.865	64124.29
539.065	64148.87
539.266	63802.76
539.466	64148.87
539.667	63743.37
539.868	64148.87
540.068	64073.09
540.269	64140.67
540.469	64148.87
540.67	64013.7
540.87	63972.74
541.071	64005.51
541.271	64148.87
541.472	64136.58
541.672	63870.34
541.873	64128.39
542.073	63335.82
542.274	64148.87
542.474	64056.71
542.675	63788.42
542.875	64148.87
543.075	64058.76
543.276	63765.9
543.476	64148.87
543.676	63837.58
543.877	64148.87
544.077	64097.67
544.277	64099.72
544.478	64148.87
544.678	64148.87
544.878	64148.87
545.078	64148.87
545.279	63817.1
545.479	63892.87
545.679	64148.87
545.879	64148.87
546.079	64073.09
546.28	64148.87
546.48	63722.89
546.68	64148.87
546.88	64148.87
547.08	64148.87
547.28	64148.87
547.48	63858.05
547.68	64148.87
547.88	63790.47
548.081	64148.87
548.281	64005.51
548.481	64148.87
548.681	64148.87
548.881	63985.03
549.081	64148.87
549.28	64077.19
549.48	64148.87
549.68	64136.58
549.88	64148.87
550.08	64114.05
550.28	64148.87
550.48	63800.71
550.68	64148.87
550.88	63856.01
551.08	63769.99
551.279	64148.87
551.479	63808.9
551.679	64148.87
551.879	63890.82
552.079	64148.87
552.278	63755.66
552.478	63833.48
552.678	64025.99
552.878	63980.93
553.077	63640.97
553.277	63485.32
553.477	64148.87
553.676	63731.08
553.876	63696.27
554.076	63843.72
554.275	63350.16
554.475	62893.46
554.674	63690.12
554.874	63640.97
555.074	63110.55
555.273	63538.57
555.473	63849.86
555.672	62952.85
555.872	63008.15
556.071	63120.79
556.271	62956.95
556.47	62932.37
556.67	62393.76
556.869	62903.7
557.068	62555.55
557.268	62223.78
557.467	62459.29
557.667	62145.95
557.866	62205.34
558.065	62090.66
558.265	62080.42
558.464	61752.74
558.663	62270.88
558.863	61203.89
559.062	62262.69
559.261	61314.48
559.461	61599.15
559.66	60958.13
559.859	61203.89
560.058	60679.61
560.258	60483
560.457	60231.1
560.656	60679.61
560.855	60102.08
561.054	60231.1
561.253	59872.71
561.453	60032.45
561.652	59983.3
561.851	60186.05
562.05	59360.72
562.249	59131.34
562.448	59639.24
562.647	58867.16
562.846	59180.49
563.045	58803.67
563.244	58344.92
563.443	58783.19
563.642	57994.72
563.841	58545.62
564.04	57722.34
564.239	58021.34
564.438	57757.16
564.637	57683.43
564.836	57267.69
565.035	56675.83
565.234	57066.99
565.432	56499.7
565.631	56528.37
565.83	56342.01
566.029	56094.21
566.228	55649.8
566.427	55637.51
566.625	55375.37
566.824	54785.55
567.023	55420.42
567.222	54359.58
567.42	55019.02
567.619	54371.86
567.818	54093.34
568.016	54027.8
568.215	54588.95
568.414	53351.98
568.612	53509.67
568.811	52854.32
569.01	53286.44
569.208	52389.43
569.407	52987.44
569.605	52024.89
569.804	52751.92
570.002	51385.93
570.201	51637.83
570.4	51191.37
570.598	51074.63
570.797	50736.72
570.995	51136.07
571.193	49831.52
571.392	50976.33
571.59	50140.76
571.789	49716.83
571.987	49722.97
572.186	49567.33
572.384	49096.3
572.582	49350.24
572.781	49184.36
572.979	48219.77
573.177	48498.29
573.376	48440.95
573.574	47638.14
573.772	48156.28
573.971	47703.68
574.169	47509.12
574.367	46874.25
574.565	47711.87
574.763	46982.79
574.962	46761.61
575.16	46339.73
575.358	46745.23
575.556	46073.49
575.754	46577.29
575.952	45373.09
576.151	45926.04
576.349	45397.66
576.547	45151.91
576.745	45004.45
576.943	44979.88
577.141	44582.57
577.339	44584.62
577.537	44201.65
577.735	44574.38
577.933	43964.09
578.131	44215.99
578.329	43929.27
578.527	43318.98
578.725	43151.04
578.923	43603.64
579.121	43005.64
579.319	42665.67
579.516	42571.47
579.714	42739.4
579.912	42114.77
580.11	42055.38
580.308	42182.35
580.506	42211.03
580.704	41453.28
580.901	41809.62
581.099	41576.15
581.297	41103.07
581.495	40978.15
581.692	41246.43
581.89	40832.74
582.088	41076.45
582.285	40445.68
582.483	40709.86
582.681	40417
582.878	40175.34
583.076	39675.64
583.274	40586.99
583.471	39403.26
583.669	39761.65
583.866	39274.24
584.064	39327.49
584.262	38676.23
584.459	39155.46
584.657	39003.91
584.854	38663.94
585.052	38588.17
585.249	38450.95
585.447	38498.06
585.644	38283.02
585.841	38027.03
586.039	38129.42
586.236	37754.65
586.434	37381.91
586.631	37652.25
586.828	37287.71
587.026	37261.08
587.223	37275.42
587.42	37218.08
587.618	37211.93
587.815	36056.88
588.012	36828.96
588.21	36278.06
588.407	36671.27
588.604	36165.42
588.801	36108.08
588.999	36026.16
589.196	35804.98
589.393	35655.48
589.59	35516.22
589.787	35452.73
589.984	35346.23
590.182	34805.57
590.379	34967.36
590.576	35071.81
590.773	34764.61
590.97	34715.46
591.167	34973.5
591.364	33994.57
591.561	34578.25
591.758	33900.37
591.955	33984.33
592.152	34236.23
592.349	33687.38
592.546	33728.34
592.743	33728.34
592.94	33378.14
593.137	33417.05
593.334	33689.43
593.531	33312.6
593.727	33144.67
593.924	33056.6
594.121	32413.54
594.318	32995.17
594.515	32237.42
594.712	32761.7
594.908	32327.53
595.105	32348.01
595.302	31948.65
595.499	32442.21
595.696	32049
595.892	31537.01
596.089	32059.24
596.286	31737.71
596.482	31647.6
596.679	31367.03
596.876	31444.85
597.072	31281.02
597.269	31227.77
597.466	30775.17
597.662	30635.91
597.859	30873.47
598.055	30656.39
598.252	30265.22
598.448	30771.07
598.645	30214.02
598.841	30238.6
599.038	30052.23
599.234	29910.92
599.431	30064.52
599.627	29456.28
599.824	29912.97
600.02	29753.23
600.217	29384.6
600.413	29538.19
600.609	29263.77
600.806	29255.57
601.002	29368.21
601.198	29108.12
601.395	28934.04
601.591	28696.48
601.787	28860.32
601.984	28559.27
602.18	29005.72
602.376	28133.29
602.572	28202.92
602.769	28086.18
602.965	28067.75
603.161	28059.56
603.357	27887.53
603.553	27989.93
603.75	27926.44
603.946	27770.8
604.142	27377.59
604.338	27527.09
604.534	27705.26
604.73	26904.51
604.926	26992.57
605.122	27357.11
605.318	26945.47
605.514	26918.84
605.71	26660.8
605.906	26658.75
606.102	26509.25
606.298	26888.12
606.494	26697.66
606.69	26556.35
606.886	26281.92
607.082	26027.98
607.278	26259.4
607.474	25427.92
607.67	26167.24
607.866	25761.74
608.062	25747.4
608.257	25638.86
608.453	25389.01
608.649	25645.01
608.845	25632.72
609.041	25227.22
609.236	25206.74
609.432	25157.59
609.628	25196.5
609.824	24819.67
610.019	25006.04
610.215	24883.16
610.411	24791
610.606	24672.22
610.802	24700.89
610.998	24532.96
611.193	24735.71
611.389	24324.07
611.584	24541.15
611.78	24158.18
611.976	24416.22
612.171	24127.46
612.367	23912.42
612.562	24205.28
612.758	23953.38
612.953	23617.52
613.149	23640.04
613.344	23572.46
613.539	24086.5
613.735	23781.35
613.93	23590.89
614.126	23265.27
614.321	23893.99
614.517	23326.71
614.712	23189.49
614.907	23396.34
615.103	23336.95
615.298	23029.75
615.493	23085.05
615.688	22765.56
615.884	23263.22
616.079	22669.31
616.274	23027.7
616.47	22925.3
616.665	22693.88
616.86	22552.57
617.055	22534.14
617.25	22407.17
617.445	22456.32
617.641	22089.73
617.836	22360.06
618.031	21809.16
618.226	22071.3
618.421	22130.69
618.616	22247.43
618.811	21475.34
619.006	21833.74
619.201	21356.56
619.396	21450.77
619.591	21168.15
619.786	21446.67
619.981	21008.4
620.176	21336.08
620.371	20908.05
620.566	20987.93
620.761	20772.89
620.956	20803.61
621.151	20787.22
621.346	20520.99
621.541	20240.42
621.735	20590.62
621.93	20037.67
622.125	20314.14
622.32	19709.99
622.515	19812.39
622.709	19781.67
622.904	19658.79
623.099	19546.16
623.294	19572.78
623.488	19439.66
623.683	19410.99
623.878	19058.74
624.072	19390.51
624.267	19077.17
624.462	18538.55
624.656	18677.82
624.851	18700.34
625.046	18544.7
625.24	18538.55
625.435	18542.65
625.629	18247.74
625.824	18012.23
626.018	18001.99
626.213	17813.57
626.407	18122.82
626.602	17768.52
626.796	17627.21
626.991	17565.77
627.185	17664.07
627.38	17205.33
627.574	17240.14
627.768	17391.69
627.963	17129.55
628.157	16939.09
628.352	16873.56
628.546	16787.54
628.74	16930.9
628.935	16789.59
629.129	16601.18
629.323	16226.4
629.517	16330.84
629.712	16523.35
629.906	16306.27
630.1	16279.64
630.294	16382.04
630.489	16009.31
630.683	16076.9
630.877	15659.11
631.071	15597.67
631.265	15913.06
631.459	15665.25
631.653	15528.04
631.848	15536.23
632.042	15392.87
632.236	15165.55
632.43	15046.77
632.624	15161.45
632.818	15067.25
633.012	14733.43
633.206	14825.59
633.4	15014
633.594	14669.94
633.788	14823.54
633.982	14692.47
634.176	14407.8
634.369	14452.86
634.563	14260.35
634.757	14227.58
634.951	14391.42
635.145	14194.81
635.339	14065.79
635.533	13768.84
635.726	13840.51
635.92	13781.12
636.114	13754.5
636.308	13742.21
636.501	13426.82
636.695	13496.46
636.889	13193.36
637.083	13293.71
637.276	13340.81
637.47	12980.37
637.664	13115.53
637.857	13105.29
638.051	13041.81
638.244	12791.95
638.438	12804.24
638.632	12765.33
638.825	12294.3
639.019	12736.66
639.212	12359.83
639.406	12431.51
639.599	12265.63
639.793	12198.04
639.986	11960.48
640.18	12333.21
640.373	12058.78
640.567	11622.56
640.76	11796.64
640.954	11532.45
641.147	11567.27
641.34	11577.51
641.534	11561.12
641.727	11403.43
641.92	11583.65
642.114	11294.89
642.307	11327.66
642.5	11229.35
642.694	10946.73
642.887	10997.93
643.08	10985.65
643.273	10797.23
643.467	10985.65
643.66	10567.86
643.853	10723.51
644.046	10750.13
644.239	10594.48
644.432	10514.61
644.626	10260.66
644.819	10221.75
645.012	10399.93
645.205	10272.95
645.398	10113.21
645.591	10178.75
645.784	10100.92
645.977	9949.37
646.17	10033.34
646.363	9601.22
646.556	9838.78
646.749	9795.78
646.942	9924.8
647.135	9699.52
647.328	9607.36
647.521	9232.58
647.714	9377.99
647.907	9287.88
648.099	9318.6
648.292	9367.75
648.485	9257.16
648.678	9068.75
648.871	9185.48
649.064	9271.5
649.256	9167.05
649.449	8868.05
649.642	9091.27
649.835	8960.2
650.027	9011.4
650.22	8845.52
650.413	8757.46
650.605	8788.18
650.798	8700.11
650.991	8626.39
651.183	8671.44
651.376	8442.07
651.568	8589.52
651.761	8222.94
651.954	8587.47
652.146	8394.97
652.339	8229.08
652.531	8245.46
652.724	8202.46
652.916	8151.26
653.109	8016.09
653.301	8175.83
653.494	7981.28
653.686	8171.74
653.879	8153.3
654.071	7817.44
654.263	7868.64
654.456	8063.19
654.648	7985.37
654.84	7657.7
655.033	7717.09
655.225	7786.72
655.417	7602.4
655.61	7637.22
655.802	7686.37
655.994	7559.39
656.186	7590.11
656.379	7336.17
656.571	7508.19
656.763	7446.76
656.955	7370.98
657.148	7377.12
657.34	7428.32
657.532	7076.07
657.724	7182.57
657.916	7209.19
658.108	7293.16
658.3	6981.87
658.492	7272.68
658.684	6957.29
658.876	7059.69
659.068	6985.96
659.26	6691.06
659.452	7037.16
659.644	6834.41
659.836	6648.05
660.028	6899.95
660.22	6775.02
660.412	6668.53
660.604	6707.44
660.796	6740.21
660.988	6697.2
661.18	6592.75
661.372	6504.69
661.563	6615.28
661.755	6545.65
661.947	6570.23
662.139	6621.42
662.331	6500.59
662.522	6363.38
662.714	6453.49
662.906	6336.76
663.097	6308.09
663.289	6439.16
663.481	6310.13
663.673	6385.91
663.864	6181.11
664.056	6162.68
664.247	6086.9
664.439	6064.38
664.631	6226.17
664.822	6045.95
665.014	6105.34
665.205	6185.21
665.397	6119.67
665.588	5961.98
665.78	5994.75
665.971	6068.47
666.163	6058.23
666.354	6105.34
666.546	5988.6
666.737	6095.1
666.929	6091
667.12	6019.32
667.311	5886.2
667.503	5785.85
667.694	5935.35
667.885	5646.59
668.077	5751.04
668.268	5759.23
668.459	5816.57
668.651	5837.05
668.842	5632.26
669.033	5775.61
669.224	5630.21
669.416	5753.09
669.607	5716.22
669.798	5837.05
669.989	5808.38
670.18	5675.26
670.371	5619.97
670.563	5716.22
670.754	5712.13
670.945	5595.39
671.136	5792
671.327	5511.43
671.518	5792
671.709	5767.42
671.9	5732.61
672.091	5689.6
672.282	5771.52
672.473	5574.91
672.664	5511.43
672.855	5603.58
673.046	5538.05
673.237	5652.74
673.428	5509.38
673.619	5560.58
673.809	5404.93
674	5759.23
674.191	5581.06
674.382	5519.62
674.573	5601.54
674.764	5587.2
674.954	5787.9
675.145	5626.11
675.336	5478.66
675.527	5626.11
675.717	5538.05
675.908	5609.73
676.099	5597.44
676.289	5542.14
676.48	5624.06
676.671	5554.43
676.861	5640.45
677.052	5562.62
677.243	5562.62
677.433	5695.74
677.624	5708.03
677.814	5691.65
678.005	5751.04
678.195	5650.69
678.386	5748.99
678.576	5710.08
678.767	5802.24
678.957	5843.2
679.148	5687.55
679.338	5878.01
679.529	5767.42
679.719	5808.38
679.909	5783.81
680.1	5781.76
680.29	5693.69
680.481	5884.16
680.671	5777.66
680.861	5906.68
681.052	5810.43
681.242	5900.54
681.432	5929.21
681.622	5773.57
681.813	6027.51
682.003	6058.23
682.193	5918.97
682.383	5871.87
682.573	6011.13
682.764	5951.74
682.954	6054.14
683.144	5988.6
683.334	6115.58
683.524	5912.83
683.714	6138.1
683.904	6099.19
684.094	6127.86
684.284	5968.12
684.474	6203.64
684.664	6015.23
684.854	5968.12
685.044	5986.55
685.234	5873.92
685.424	6099.19
685.614	6078.71
685.804	5955.83
685.994	5988.6
686.184	6041.85
686.374	6035.71
686.564	5748.99
686.753	6002.94
686.943	6021.37
687.133	5961.98
687.323	5859.58
687.513	5886.2
687.702	5859.58
687.892	5888.25
688.082	5738.75
688.272	5822.72
688.461	5861.63
688.651	5865.72
688.841	5665.02
689.03	5837.05
689.22	5789.95
689.41	5771.52
689.599	5740.8
689.789	5869.82
689.979	5679.36
690.168	5738.75
690.358	5714.17
690.547	5619.97
690.737	5658.88
690.926	5718.27
691.116	5615.87
691.305	5587.2
691.495	5486.85
691.684	5560.58
691.874	5529.86
692.063	5533.95
692.252	5589.25
692.442	5531.9
692.631	5394.69
692.82	5488.9
693.01	5456.13
693.199	5544.19
693.388	5406.98
693.578	5390.6
693.767	5425.41
693.956	5495.04
694.146	5374.21
694.335	5390.6
694.524	5437.7
694.713	5466.37
694.902	5443.84
695.092	5409.03
695.281	5421.31
695.47	5449.99
695.659	5447.94
695.848	5439.75
696.037	5419.27
696.226	5513.47
696.415	5538.05
696.604	5456.13
696.793	5566.72
696.982	5533.95
697.171	5517.57
697.36	5480.71
697.549	5452.03
697.738	5439.75
697.927	5488.9
698.116	5579.01
698.305	5548.29
698.494	5456.13
698.683	5665.02
698.872	5646.59
699.061	5732.61
699.25	5509.38
699.438	5658.88
699.627	5722.37
699.816	5546.24
700.005	5783.81
700.193	5718.27
700.382	5775.61
700.571	5878.01
700.76	5673.21
700.948	5759.23
701.137	5853.44
701.326	5689.6
701.514	5843.2
701.703	5820.67
701.892	5871.87
702.08	5923.07
702.269	5859.58
702.457	5806.33
702.646	5945.59
702.834	5929.21
703.023	5861.63
703.212	5916.92
703.4	6011.13
703.589	6017.27
703.777	5988.6
703.965	5751.04
704.154	5998.84
704.342	5892.35
704.531	5970.17
704.719	5896.44
704.907	6031.61
705.096	6029.56
705.284	6056.18
705.472	6172.92
705.661	6099.19
705.849	6054.14
706.037	6168.82
706.226	6043.9
706.414	6207.73
706.602	6166.78
706.79	6248.69
706.979	6095.1
707.167	6213.88
707.355	6105.34
707.543	6299.89
707.731	6281.46
707.919	6246.65
708.107	6166.78
708.296	5992.7
708.484	6123.77
708.672	6154.49
708.86	6234.36
709.048	6236.41
709.236	6312.18
709.424	6308.09
709.612	6437.11
709.8	6332.66
709.988	6148.34
710.176	6287.61
710.364	6312.18
710.551	6273.27
710.739	6379.76
710.927	6398.2
711.115	6404.34
711.303	6385.91
711.491	6410.48
711.679	6275.32
711.866	6332.66
712.054	6488.31
712.242	6267.13
712.43	6371.57
712.617	6484.21
712.805	6396.15
712.993	6471.92
713.181	6373.62
713.368	6488.31
713.556	6617.33
713.744	6310.13
713.931	6480.11
714.119	6486.26
714.306	6521.07
714.494	6476.02
714.682	6562.03
714.869	6443.25
715.057	6457.59
715.244	6559.99
715.432	6602.99
715.619	6512.88
715.807	6639.86
715.994	6566.13
716.182	6660.34
716.369	6582.51
716.556	6699.25
716.744	6553.84
716.931	6582.51
717.119	6766.83
717.306	6793.45
717.493	6465.78
717.681	6709.49
717.868	6666.48
718.055	6920.43
718.242	6707.44
718.43	6668.53
718.617	6764.78
718.804	6766.83
718.991	6627.57
719.179	6717.68
719.366	6641.9
719.553	6533.36
719.74	6682.86
719.927	6713.58
720.114	6693.1
720.301	6641.9
720.488	6729.97
720.676	6625.52
720.863	6682.86
721.05	6818.03
721.237	6711.53
721.424	6711.53
721.611	6791.41
721.798	6619.38
721.985	6562.03
722.172	6881.52
722.358	6818.03
722.545	6815.98
722.732	6715.63
722.919	6543.6
723.106	6613.23
723.293	6865.13
723.48	6664.43
723.667	6508.79
723.853	6717.68
724.04	6772.97
724.227	6668.53
724.414	6689.01
724.6	6580.46
724.787	6793.45
724.974	6666.48
725.161	6541.55
725.347	6369.52
725.534	6635.76
725.72	6793.45
725.907	6566.13
726.094	6783.21
726.28	6607.09
726.467	6772.97
726.653	6699.25
726.84	6654.19
727.027	6768.88
727.213	6676.72
727.4	6779.12
727.586	6697.2
727.773	6783.21
727.959	6637.81
728.145	6744.3
728.332	6566.13
728.518	6594.8
728.705	6654.19
728.891	6553.84
729.077	6613.23
729.264	6650.1
729.45	6570.23
729.636	6584.56
729.823	6602.99
730.009	6668.53
730.195	6533.36
730.382	6619.38
730.568	6721.77
730.754	6627.57
730.94	6582.51
731.126	6510.83
731.313	6605.04
731.499	6508.79
731.685	6504.69
731.871	6547.7
732.057	6654.19
732.243	6572.27
732.429	6650.1
732.615	6578.42
732.801	6627.57
732.987	6502.64
733.173	6494.45
733.359	6523.12
733.545	6545.65
733.731	6449.39
733.917	6488.31
734.103	6430.96
734.289	6641.9
734.475	6500.59
734.661	6476.02
734.847	6533.36
735.033	6471.92
735.219	6363.38
735.404	6377.72
735.59	6533.36
735.776	6295.8
735.962	6443.25
736.148	6471.92
736.333	6682.86
736.519	6439.16
736.705	6361.33
736.89	6289.65
737.076	6480.11
737.262	6160.63
737.447	6418.68
737.633	6371.57
737.819	6396.15
738.004	6312.18
738.19	6453.49
738.375	6123.77
738.561	6373.62
738.747	6095.1
738.932	6258.93
739.118	6150.39
739.303	6320.37
739.489	6125.82
739.674	6029.56
739.859	6295.8
740.045	6123.77
740.23	6101.24
740.416	6033.66
740.601	6076.66
740.786	5970.17
740.972	5808.38
741.157	6054.14
741.342	5808.38
741.528	5855.48
741.713	5843.2
741.898	5748.99
742.084	5816.57
742.269	5951.74
742.454	5753.09
742.639	5851.39
742.824	5755.13
743.01	5816.57
743.195	5861.63
743.38	5734.65
743.565	5589.25
743.75	5742.85
743.935	5716.22
744.12	5722.37
744.305	5538.05
744.49	5550.34
744.675	5429.51
744.86	5636.35
745.045	5433.6
745.23	5521.67
745.415	5419.27
745.6	5466.37
745.785	5394.69
745.97	5560.58
746.155	5337.35
746.34	5284.1
746.525	5128.46
746.71	5415.17
746.895	5206.28
747.079	5218.57
747.264	5267.72
747.449	5290.24
747.634	5101.83
747.819	5110.02
748.003	4954.38
748.188	5038.34
748.373	5038.34
748.557	4874.51
748.742	4856.08
748.927	4901.13
749.111	4860.17
749.296	4700.43
749.481	4856.08
749.665	4794.64
749.85	4610.32
750.034	4595.98
750.219	4727.05
750.404	4534.54
750.588	4481.3
750.773	4563.22
750.957	4571.41
751.141	4522.26
751.326	4415.76
751.51	4423.95
751.695	4456.72
751.879	4385.04
752.064	4397.33
752.248	4411.67
752.432	4366.61
752.617	4151.57
752.801	4131.09
752.985	4317.46
753.17	4059.42
753.354	4057.37
753.538	4032.79
753.722	3952.92
753.907	3948.83
754.091	3932.44
754.275	3928.35
754.459	3993.88
754.643	4045.08
754.828	3905.82
755.012	3959.06
755.196	3735.84
755.38	3766.56
755.564	3741.98
755.748	3727.64
755.932	3625.25
756.116	3584.29
756.3	3598.62
756.484	3522.85
756.668	3461.41
756.852	3715.36
757.036	3561.76
757.22	3522.85
757.404	3389.73
757.588	3510.56
757.772	3543.33
757.956	3273
758.14	3408.16
758.323	3326.24
758.507	3420.45
758.691	3311.91
758.875	3330.34
759.059	3252.52
759.242	3260.71
759.426	3326.24
759.61	3225.89
759.794	3074.34
759.977	3129.64
760.161	3248.42
760.345	3039.53
760.528	3125.54
760.712	3248.42
760.895	3039.53
761.079	3096.87
761.263	2969.9
761.446	2949.42
761.63	3010.86
761.813	2879.79
761.997	2990.38
762.18	2941.22
762.364	2898.22
762.547	2812.2
762.731	2908.46
762.914	2937.13
763.098	2732.33
763.281	2916.65
763.464	2787.63
763.648	2890.03
763.831	2652.46
764.015	2679.08
764.198	2728.24
764.381	2814.25
764.564	2849.07
764.748	2705.71
764.931	2783.53
765.114	2586.93
765.297	2681.13
765.481	2720.04
765.664	2629.93
765.847	2570.54
766.03	2666.8
766.213	2513.2
766.397	2593.07
766.58	2502.96
766.763	2552.11
766.946	2580.78
767.129	2511.15
767.312	2478.38
767.495	2437.42
767.678	2615.6
767.861	2457.9
768.044	2429.23
768.227	2425.14
768.41	2457.9
768.593	2617.65
768.776	2365.75
768.959	2326.83
769.142	2375.99
769.324	2281.78
769.507	2406.7
769.69	2343.22
769.873	2416.94
770.056	2482.48
770.239	2234.68
770.421	2189.62
770.604	2285.87
770.787	2289.97
770.97	2259.25
771.152	2187.57
771.335	2126.13
771.518	2146.61
771.7	2324.79
771.883	2109.75
772.066	2236.72
772.248	2160.95
772.431	2206
772.613	2148.66
772.796	2160.95
772.978	2140.47
773.161	2210.1
773.343	2089.27
773.526	2015.54
773.708	1990.97
773.891	1974.58
774.073	1929.53
774.256	1851.71
774.438	1900.86
774.621	1896.76
774.803	1880.38
774.985	1874.23
775.168	2095.41
775.35	1876.28
775.532	1927.48
775.715	1849.66
775.897	1798.46
776.079	1939.77
776.261	1808.7
776.444	1782.07
776.626	1847.61
776.808	1734.97
776.99	1634.62
777.173	1773.88
777.355	1679.68
777.537	1720.64
777.719	1675.58
777.901	1745.21
778.083	1577.28
778.265	1573.18
778.447	1628.48
778.629	1751.35
778.811	1655.1
778.993	1581.37
779.175	1515.84
779.357	1585.47
779.539	1470.78
779.721	1448.26
779.903	1663.29
780.085	1571.13
780.267	1558.85
780.449	1372.48
780.631	1573.18
780.812	1507.65
780.994	1472.83
781.176	1474.88
781.358	1397.06
781.54	1483.07
781.721	1464.64
781.903	1384.77
782.085	1308.99
782.267	1362.24
782.448	1364.29
782.63	1261.89
782.812	1368.38
782.993	1364.29
783.175	1411.39
783.357	1292.61
783.538	1390.91
783.72	1259.84
783.901	1212.74
784.083	1200.45
784.264	1241.41
784.446	1237.31
784.627	1145.16
784.809	1153.35
784.99	1057.09
785.172	1343.81
785.353	1227.07
785.535	1155.4
785.716	1130.82
785.897	1122.63
786.079	1167.68
786.26	1139.01
786.441	1055.05
786.623	1149.25
786.804	1032.52
786.985	1106.24
787.167	1020.23
787.348	1067.33
787.529	1091.91
787.71	1071.43
787.891	989.51
788.073	1071.43
788.254	1005.89
788.435	962.89
788.616	1048.9
788.797	1069.38
788.978	969.03
789.159	1005.89
789.34	1057.09
789.522	1007.94
789.703	1003.85
789.884	958.79
790.065	1009.99
790.246	1018.18
790.427	907.59
790.607	905.54
790.788	891.21
790.969	954.69
791.15	966.98
791.331	852.3
791.512	852.3
791.693	866.63
791.874	844.1
792.054	964.93
792.235	819.53
792.416	776.52
792.597	872.78
792.778	923.98
792.958	966.98
793.139	811.34
793.32	807.24
793.5	731.47
793.681	858.44
793.862	790.86
794.042	831.82
794.223	737.61
794.404	731.47
794.584	762.19
794.765	696.65
794.945	803.15
795.126	844.1
795.306	833.86
795.487	741.71
795.667	645.45
795.848	758.09
796.028	786.76
796.209	688.46
796.389	817.48
796.57	786.76
796.75	694.6
796.93	758.09
797.111	588.11
797.291	708.94
797.471	655.69
797.652	690.51
797.832	704.84
798.012	688.46
798.192	627.02
798.373	631.12
798.553	700.75
798.733	680.27
798.913	629.07
799.093	692.55
799.274	590.16
799.454	680.27
799.634	620.88
799.814	639.31
799.994	633.16
800.174	639.31
800.354	581.96
800.534	622.92
800.714	590.16
800.894	639.31
801.074	594.25
801.254	491.85
801.434	690.51
801.614	596.3
801.794	530.77
801.974	1356.1
802.154	663.88
802.334	645.45
802.514	549.2
802.693	637.26
802.873	530.77
803.053	633.16
803.233	557.39
803.413	522.57
803.592	549.2
803.772	571.72
803.952	526.67
804.131	444.75
804.311	543.05
804.491	477.52
804.67	508.24
804.85	498
805.03	569.68
805.209	598.35
805.389	475.47
805.568	541.01
805.748	520.53
805.928	491.85
806.107	512.33
806.287	481.61
806.466	508.24
806.646	493.9
806.825	541.01
807.004	483.66
807.184	442.7
807.363	502.09
807.543	477.52
807.722	446.8
807.901	565.58
808.081	479.57
808.26	487.76
808.439	487.76
808.619	489.81
808.798	506.19
808.977	516.43
809.156	534.86
809.336	506.19
809.515	450.89
809.694	473.42
809.873	454.99
810.052	495.95
810.231	543.05
810.411	454.99
810.59	465.23
810.769	409.94
810.948	541.01
811.127	424.27
811.306	424.27
811.485	348.5
811.664	475.47
811.843	381.26
812.022	352.59
812.201	442.7
812.38	399.7
812.559	377.17
812.737	368.98
812.916	401.74
813.095	409.94
813.274	403.79
813.453	342.35
813.632	260.43
813.811	446.8
813.989	358.74
814.168	364.88
814.347	397.65
814.526	418.13
814.704	393.55
814.883	483.66
815.062	328.02
815.24	389.46
815.419	350.54
815.598	459.09
815.776	344.4
815.955	313.68
816.133	360.78
816.312	438.61
816.49	328.02
816.669	344.4
816.847	266.58
817.026	319.82
817.204	317.78
817.383	330.06
817.561	352.59
817.74	317.78
817.918	301.39
818.097	364.88
818.275	270.67
818.453	307.54
818.632	323.92
818.81	311.63
818.988	301.39
819.167	278.87
819.345	301.39
819.523	274.77
819.701	301.39
819.879	295.25
820.058	315.73
820.236	303.44
820.414	211.28
820.592	325.97
820.77	315.73
820.948	256.34
821.127	229.71
821.305	287.06
821.483	311.63
821.661	348.5
821.839	344.4
822.017	270.67
822.195	332.11
822.373	391.5
822.551	262.48
822.729	266.58
822.907	227.67
823.085	321.87
823.262	291.15
823.44	237.91
823.618	289.1
823.796	217.43
823.974	278.87
824.152	270.67
824.329	192.85
824.507	250.19
824.685	289.1
824.863	311.63
825.04	246.1
825.218	274.77
825.396	219.47
825.574	254.29
825.751	244.05
825.929	287.06
826.107	252.24
826.284	307.54
826.462	272.72
826.639	262.48
826.817	221.52
826.994	254.29
827.172	211.28
827.349	295.25
827.527	188.75
827.704	319.82
827.882	205.14
828.059	285.01
828.237	209.23
828.414	285.01
828.591	149.84
828.769	211.28
828.946	233.81
829.124	244.05
829.301	188.75
829.478	254.29
829.655	289.1
829.833	237.91
830.01	184.66
830.187	274.77
830.364	198.99
830.542	258.39
830.719	270.67
830.896	209.23
831.073	170.32
831.25	244.05
831.427	229.71
831.604	213.33
831.782	139.6
831.959	153.94
832.136	278.87
832.313	209.23
832.49	274.77
832.667	143.7
832.844	235.86
833.021	229.71
833.198	211.28
833.374	198.99
833.551	217.43
833.728	186.71
833.905	196.95
834.082	129.36
834.259	184.66
834.436	262.48
834.612	78.16
834.789	221.52
834.966	100.69
835.143	221.52
835.319	55.64
835.496	135.51
835.673	242
835.85	153.94
836.026	211.28
836.203	272.72
836.38	170.32
836.556	102.74
836.733	143.7
836.909	201.04
837.086	225.62
837.262	164.18
837.439	135.51
837.616	196.95
837.792	112.98
837.968	215.38
838.145	129.36
838.321	196.95
838.498	211.28
838.674	129.36
838.851	180.56
839.027	125.27
839.203	160.08
839.38	217.43
839.556	141.65
839.732	176.47
839.909	117.08
840.085	186.71
840.261	115.03
840.437	147.8
840.614	112.98
840.79	225.62
840.966	176.47
841.142	194.9
841.318	112.98
841.494	123.22
841.671	129.36
841.847	74.07
842.023	110.93
842.199	90.45
842.375	205.14
842.551	104.79
842.727	123.22
842.903	149.84
843.079	55.64
843.255	119.12
843.431	100.69
843.607	137.56
843.783	74.07
843.959	176.47
844.134	115.03
844.31	250.19
844.486	205.14
844.662	37.2
844.838	123.22
845.013	168.27
845.189	131.41
845.365	151.89
845.541	151.89
845.716	147.8
845.892	65.88
846.068	115.03
846.244	74.07
846.419	76.12
846.595	139.6
846.77	100.69
846.946	170.32
847.122	147.8
847.297	158.03
847.473	151.89
847.648	49.49
847.824	129.36
847.999	-9.9
848.175	166.23
848.35	137.56
848.526	182.61
848.701	192.85
848.876	121.17
849.052	186.71
849.227	82.26
849.403	129.36
849.578	115.03
849.753	106.84
849.929	131.41
850.104	106.84
850.279	41.3
850.454	82.26
850.63	26.96
850.805	98.64
850.98	162.13
851.155	100.69
851.33	125.27
851.505	65.88
851.681	188.75
851.856	92.5
852.031	110.93
852.206	129.36
852.381	100.69
852.556	127.32
852.731	127.32
852.906	127.32
853.081	135.51
853.256	72.02
853.431	123.22
853.606	168.27
853.781	78.16
853.956	59.73
854.131	131.41
854.305	63.83
854.48	139.6
854.655	72.02
854.83	24.92
855.005	147.8
855.18	65.88
855.354	55.64
855.529	65.88
855.704	-3.75
855.879	137.56
856.053	63.83
856.228	59.73
856.403	-7.85
856.577	153.94
856.752	37.2
856.926	31.06
857.101	53.59
857.276	47.44
857.45	80.21
857.625	61.78
857.799	80.21
857.974	106.84
858.148	98.64
858.323	104.79
858.497	20.82
858.672	80.21
858.846	78.16
859.02	72.02
859.195	-18.09
859.369	0.34
859.543	164.18
859.718	86.36
859.892	110.93
860.066	61.78
860.241	117.08
860.415	65.88
860.589	55.64
860.763	53.59
860.938	14.68
861.112	102.74
861.286	63.83
861.46	145.75
861.634	69.97
861.808	106.84
861.982	31.06
862.157	78.16
862.331	76.12
862.505	0.34
862.679	104.79
862.853	74.07
863.027	24.92
863.201	246.1
863.375	57.68
863.549	86.36
863.722	74.07
863.896	80.21
864.07	22.87
864.244	108.88
864.418	76.12
864.592	33.11
864.766	72.02
864.939	129.36
865.113	4.44
865.287	119.12
865.461	49.49
865.634	51.54
865.808	4.44
865.982	2.39
866.156	74.07
866.329	57.68
866.503	0.34
866.676	147.8
866.85	67.92
867.024	104.79
867.197	47.44
867.371	82.26
867.544	74.07
867.718	-16.04
867.891	127.32
868.065	16.73
868.238	74.07
868.412	39.25
868.585	92.5
868.759	69.97
868.932	41.3
869.105	14.68
869.279	41.3
869.452	31.06
869.625	57.68
869.799	43.35
869.972	41.3
870.145	74.07
870.319	115.03
870.492	-16.04
870.665	127.32
870.838	41.3
871.011	39.25
871.185	-28.33
871.358	47.44
871.531	-3.75
871.704	33.11
871.877	55.64
872.05	65.88
872.223	-13.99
872.396	72.02
872.569	63.83
872.742	10.58
872.915	78.16
873.088	92.5
873.261	-22.19
873.434	82.26
873.607	-34.47
873.78	51.54
873.953	10.58
874.126	-16.04
874.299	41.3
874.471	57.68
874.644	55.64
874.817	29.01
874.99	127.32
875.163	24.92
875.335	61.78
875.508	-7.85
875.681	41.3
875.853	0.34
876.026	43.35
876.199	31.06
876.371	74.07
876.544	8.53
876.717	10.58
876.889	20.82
877.062	110.93
877.234	76.12
877.407	-3.75
877.579	35.16
877.752	57.68
877.924	88.4
878.097	47.44
878.269	47.44
878.442	6.49
878.614	37.2
878.786	78.16
878.959	65.88
879.131	-28.33
879.303	-20.14
879.476	-32.43
879.648	49.49
879.82	22.87
879.993	20.82
880.165	55.64
880.337	-65.19
880.509	16.73
880.681	57.68
880.854	-5.8
881.026	74.07
881.198	100.69
881.37	47.44
881.542	8.53
881.714	-30.38
881.886	98.64
882.058	90.45
882.23	127.32
882.402	22.87
882.574	18.77
882.746	31.06
882.918	98.64
883.09	65.88
883.262	31.06
883.434	33.11
883.606	47.44
883.778	139.6
883.95	106.84
884.122	14.68
884.293	41.3
884.465	47.44
884.637	74.07
884.809	16.73
884.98	63.83
885.152	31.06
885.324	22.87
885.496	-32.43
885.667	2.39
885.839	41.3
886.011	82.26
886.182	33.11
886.354	57.68
886.525	63.83
886.697	41.3
886.869	31.06
887.04	20.82
887.212	151.89
887.383	49.49
887.555	53.59
887.726	-7.85
887.897	-20.14
888.069	41.3
888.24	61.78
888.412	-34.47
888.583	4.44
888.754	-32.43
888.926	12.63
889.097	22.87
889.268	-26.28
889.44	20.82
889.611	26.96
889.782	24.92
889.953	-18.09
890.125	61.78
890.296	12.63
890.467	4.44
890.638	10.58
890.809	12.63
890.98	-16.04
891.151	6.49
891.323	12.63
891.494	20.82
891.665	-16.04
891.836	0.34
892.007	67.92
892.178	69.97
892.349	24.92
892.52	-38.57
892.691	43.35
892.862	-36.52
893.032	26.96
893.203	51.54
893.374	0.34
893.545	22.87
893.716	-13.99
893.887	57.68
894.057	-3.75
894.228	14.68
894.399	153.94
894.57	102.74
894.74	121.17
894.911	57.68
895.082	76.12
895.253	43.35
895.423	49.49
895.594	63.83
895.764	-7.85
895.935	-48.81
896.106	110.93
896.276	53.59
896.447	-89.77
896.617	-32.43
896.788	12.63
896.958	31.06
897.129	-71.34
897.299	-3.75
897.47	121.17
897.64	78.16
897.81	55.64
897.981	59.73
898.151	-18.09
898.322	100.69
898.492	55.64
898.662	8.53
898.832	-7.85
899.003	6.49
899.173	-13.99
899.343	14.68
899.513	49.49
