Data from USB4F104151__103__11-32-23-000.txt Node

Date: Fri Mar 14 11:32:23 EDT 2025
User: louis
Spectrometer: USB4F10415
Trigger mode: 4
Integration Time (sec): 5.000000E-2
Scans to average: 1
Electric dark correction enabled: true
Nonlinearity correction enabled: false
Boxcar width: 0
XAxis mode: Wavelengths
Number of Pixels in Spectrum: 3648
>>>>>Begin Spectral Data<<<<<
178.204	-159.91
178.424	-159.91
178.644	-159.91
178.864	-172.2
179.084	-192.68
179.304	44.88
179.524	12.12
179.744	-86.19
179.964	22.36
180.184	14.17
180.404	65.36
180.624	36.69
180.844	-0.17
181.064	-34.99
181.283	-22.7
181.503	-12.46
181.723	-39.08
181.943	-53.42
182.163	8.02
182.383	16.21
182.602	3.93
182.822	28.5
183.042	12.12
183.262	-2.22
183.482	3.93
183.701	-37.03
183.921	18.26
184.141	-51.37
184.361	71.51
184.58	24.4
184.8	10.07
185.02	-16.55
185.239	16.21
185.459	44.88
185.679	36.69
185.898	-8.36
186.118	20.31
186.338	10.07
186.557	73.56
186.777	-8.36
186.997	-28.84
187.216	-8.36
187.436	57.17
187.655	44.88
187.875	63.32
188.095	-18.6
188.314	3.93
188.534	16.21
188.753	-0.17
188.973	59.22
189.192	65.36
189.412	-20.65
189.631	-34.99
189.851	83.8
190.07	3.93
190.29	-12.46
190.509	8.02
190.729	-43.18
190.948	28.5
191.168	196.43
191.387	77.65
191.607	-12.46
191.826	8.02
192.045	20.31
192.265	28.5
192.484	10.07
192.704	63.32
192.923	-55.47
193.142	81.75
193.362	85.84
193.581	118.61
193.8	18.26
194.02	65.36
194.239	36.69
194.458	61.27
194.678	48.98
194.897	3.93
195.116	51.03
195.335	-32.94
195.555	61.27
195.774	28.5
195.993	22.36
196.212	77.65
196.432	-63.66
196.651	-6.31
196.87	-53.42
197.089	122.71
197.308	44.88
197.528	-14.51
197.747	-63.66
197.966	5.97
198.185	48.98
198.404	26.45
198.623	85.84
198.842	53.08
199.062	128.85
199.281	53.08
199.5	-0.17
199.719	36.69
199.938	5.97
200.157	32.6
200.376	36.69
200.595	83.8
200.814	34.64
201.033	-53.42
201.252	12.12
201.471	20.31
201.69	26.45
201.909	-65.71
202.128	-10.41
202.347	36.69
202.566	-6.31
202.785	-28.84
203.004	-69.8
203.223	94.04
203.442	55.12
203.661	-26.79
203.879	32.6
204.098	110.42
204.317	-4.27
204.536	65.36
204.755	87.89
204.974	-49.32
205.193	75.6
205.411	89.94
205.63	36.69
205.849	77.65
206.068	18.26
206.287	10.07
206.505	102.23
206.724	20.31
206.943	-55.47
207.162	12.12
207.381	28.5
207.599	48.98
207.818	24.4
208.037	53.08
208.255	-39.08
208.474	12.12
208.693	3.93
208.911	3.93
209.13	26.45
209.349	106.32
209.567	28.5
209.786	63.32
210.005	-10.41
210.223	10.07
210.442	-67.75
210.661	8.02
210.879	20.31
211.098	-20.65
211.316	38.74
211.535	28.5
211.753	-14.51
211.972	-2.22
212.191	-30.89
212.409	12.12
212.628	40.79
212.846	20.31
213.065	61.27
213.283	26.45
213.502	-14.51
213.72	8.02
213.938	-57.51
214.157	48.98
214.375	83.8
214.594	42.84
214.812	1.88
215.031	22.36
215.249	-37.03
215.467	20.31
215.686	-69.8
215.904	24.4
216.122	36.69
216.341	22.36
216.559	100.18
216.778	18.26
216.996	59.22
217.214	-2.22
217.432	42.84
217.651	16.21
217.869	5.97
218.087	65.36
218.306	24.4
218.524	87.89
218.742	-0.17
218.96	40.79
219.179	73.56
219.397	-73.9
219.615	67.41
219.833	-4.27
220.051	-22.7
220.27	53.08
220.488	-16.55
220.706	40.79
220.924	14.17
221.142	59.22
221.36	48.98
221.578	20.31
221.796	-47.27
222.015	-39.08
222.233	10.07
222.451	83.8
222.669	-51.37
222.887	26.45
223.105	-14.51
223.323	-37.03
223.541	14.17
223.759	65.36
223.977	42.84
224.195	38.74
224.413	75.6
224.631	69.46
224.849	8.02
225.067	38.74
225.285	81.75
225.503	44.88
225.721	-90.28
225.939	114.52
226.157	36.69
226.375	192.34
226.592	1.88
226.81	94.04
227.028	18.26
227.246	124.76
227.464	-20.65
227.682	53.08
227.9	26.45
228.117	3.93
228.335	18.26
228.553	44.88
228.771	65.36
228.989	32.6
229.206	22.36
229.424	53.08
229.642	-24.75
229.86	-86.19
230.077	20.31
230.295	-26.79
230.513	87.89
230.731	77.65
230.948	59.22
231.166	61.27
231.384	57.17
231.601	44.88
231.819	59.22
232.037	48.98
232.254	-10.41
232.472	-12.46
232.689	-24.75
232.907	-32.94
233.125	3.93
233.342	5.97
233.56	-6.31
233.777	-0.17
233.995	26.45
234.213	98.13
234.43	22.36
234.648	3.93
234.865	83.8
235.083	-0.17
235.3	-45.23
235.518	1.88
235.735	135
235.953	32.6
236.17	69.46
236.388	-22.7
236.605	16.21
236.822	34.64
237.04	55.12
237.257	-24.75
237.475	-45.23
237.692	48.98
237.909	-10.41
238.127	12.12
238.344	98.13
238.562	57.17
238.779	-37.03
238.996	-24.75
239.214	46.93
239.431	81.75
239.648	-10.41
239.865	-32.94
240.083	149.33
240.3	-6.31
240.517	-63.66
240.735	-14.51
240.952	46.93
241.169	96.08
241.386	14.17
241.603	34.64
241.821	18.26
242.038	79.7
242.255	65.36
242.472	-47.27
242.689	102.23
242.907	48.98
243.124	-45.23
243.341	-12.46
243.558	28.5
243.775	-4.27
243.992	53.08
244.209	48.98
244.426	114.52
244.643	53.08
244.86	-53.42
245.078	69.46
245.295	18.26
245.512	71.51
245.729	-47.27
245.946	-14.51
246.163	-8.36
246.38	-2.22
246.597	118.61
246.814	53.08
247.031	53.08
247.248	57.17
247.464	57.17
247.681	75.6
247.898	20.31
248.115	51.03
248.332	24.4
248.549	65.36
248.766	85.84
248.983	28.5
249.2	10.07
249.417	143.19
249.633	1.88
249.85	36.69
250.067	69.46
250.284	85.84
250.501	75.6
250.717	3.93
250.934	3.93
251.151	26.45
251.368	-30.89
251.585	34.64
251.801	-30.89
252.018	1.88
252.235	42.84
252.451	-55.47
252.668	-6.31
252.885	124.76
253.102	63.32
253.318	75.6
253.535	-14.51
253.752	-2.22
253.968	38.74
254.185	20.31
254.401	34.64
254.618	32.6
254.835	51.03
255.051	18.26
255.268	100.18
255.484	32.6
255.701	24.4
255.917	-22.7
256.134	-24.75
256.351	-57.51
256.567	-69.8
256.784	-4.27
257	-49.32
257.217	79.7
257.433	12.12
257.65	36.69
257.866	73.56
258.082	-47.27
258.299	12.12
258.515	-30.89
258.732	61.27
258.948	14.17
259.165	-8.36
259.381	-30.89
259.597	44.88
259.814	57.17
260.03	110.42
260.246	24.4
260.463	-0.17
260.679	65.36
260.895	10.07
261.112	53.08
261.328	36.69
261.544	-32.94
261.761	104.28
261.977	10.07
262.193	18.26
262.409	73.56
262.626	51.03
262.842	-28.84
263.058	-4.27
263.274	20.31
263.49	106.32
263.707	48.98
263.923	-0.17
264.139	18.26
264.355	96.08
264.571	28.5
264.787	-39.08
265.004	67.41
265.22	-45.23
265.436	-57.51
265.652	30.55
265.868	-4.27
266.084	10.07
266.3	3.93
266.516	-0.17
266.732	-0.17
266.948	3.93
267.164	-16.55
267.38	3.93
267.596	22.36
267.812	98.13
268.028	26.45
268.244	46.93
268.46	8.02
268.676	75.6
268.892	38.74
269.108	-20.65
269.324	36.69
269.54	16.21
269.756	59.22
269.972	12.12
270.188	-37.03
270.403	-28.84
270.619	-30.89
270.835	42.84
271.051	14.17
271.267	12.12
271.483	-28.84
271.698	24.4
271.914	8.02
272.13	44.88
272.346	-18.6
272.562	-4.27
272.777	38.74
272.993	-55.47
273.209	96.08
273.425	61.27
273.64	-12.46
273.856	34.64
274.072	38.74
274.287	8.02
274.503	-4.27
274.719	16.21
274.934	-4.27
275.15	3.93
275.366	53.08
275.581	3.93
275.797	53.08
276.012	112.47
276.228	3.93
276.444	44.88
276.659	20.31
276.875	-18.6
277.09	-6.31
277.306	91.99
277.521	10.07
277.737	-57.51
277.952	3.93
278.168	44.88
278.383	32.6
278.599	42.84
278.814	-37.03
279.03	-4.27
279.245	10.07
279.461	28.5
279.676	128.85
279.892	-20.65
280.107	-65.71
280.322	-2.22
280.538	51.03
280.753	36.69
280.969	67.41
281.184	-45.23
281.399	77.65
281.615	-0.17
281.83	132.95
282.045	-34.99
282.26	-49.32
282.476	12.12
282.691	67.41
282.906	-12.46
283.122	75.6
283.337	32.6
283.552	112.47
283.767	3.93
283.983	89.94
284.198	44.88
284.413	122.71
284.628	34.64
284.843	53.08
285.058	-10.41
285.274	59.22
285.489	-26.79
285.704	22.36
285.919	-18.6
286.134	30.55
286.349	1.88
286.564	24.4
286.779	-4.27
286.995	34.64
287.21	5.97
287.425	12.12
287.64	18.26
287.855	48.98
288.07	81.75
288.285	75.6
288.5	89.94
288.715	73.56
288.93	-45.23
289.145	8.02
289.36	96.08
289.575	-30.89
289.79	44.88
290.004	-20.65
290.219	87.89
290.434	5.97
290.649	40.79
290.864	-6.31
291.079	-8.36
291.294	59.22
291.509	44.88
291.724	-4.27
291.938	32.6
292.153	67.41
292.368	-34.99
292.583	110.42
292.798	118.61
293.012	-37.03
293.227	24.4
293.442	-4.27
293.657	26.45
293.871	81.75
294.086	14.17
294.301	85.84
294.516	42.84
294.73	10.07
294.945	-20.65
295.16	8.02
295.374	112.47
295.589	102.23
295.804	5.97
296.018	81.75
296.233	114.52
296.447	-37.03
296.662	-61.61
296.877	-4.27
297.091	28.5
297.306	-12.46
297.52	34.64
297.735	89.94
297.949	46.93
298.164	55.12
298.378	24.4
298.593	-16.55
298.807	40.79
299.022	28.5
299.236	28.5
299.451	8.02
299.665	-57.51
299.88	57.17
300.094	85.84
300.309	24.4
300.523	77.65
300.737	40.79
300.952	24.4
301.166	26.45
301.381	73.56
301.595	26.45
301.809	18.26
302.024	16.21
302.238	10.07
302.452	69.46
302.667	24.4
302.881	36.69
303.095	73.56
303.309	5.97
303.524	-59.56
303.738	40.79
303.952	-69.8
304.166	69.46
304.381	75.6
304.595	53.08
304.809	48.98
305.023	46.93
305.237	-16.55
305.452	-16.55
305.666	73.56
305.88	94.04
306.094	83.8
306.308	102.23
306.522	53.08
306.736	96.08
306.95	53.08
307.164	-4.27
307.379	44.88
307.593	77.65
307.807	75.6
308.021	94.04
308.235	16.21
308.449	-4.27
308.663	18.26
308.877	151.38
309.091	42.84
309.305	69.46
309.519	-16.55
309.733	110.42
309.947	-0.17
310.161	16.21
310.374	12.12
310.588	100.18
310.802	-114.86
311.016	40.79
311.23	42.84
311.444	-30.89
311.658	36.69
311.872	18.26
312.085	126.8
312.299	69.46
312.513	61.27
312.727	-12.46
312.941	87.89
313.154	22.36
313.368	-12.46
313.582	69.46
313.796	69.46
314.009	-14.51
314.223	69.46
314.437	26.45
314.651	40.79
314.864	16.21
315.078	28.5
315.292	87.89
315.505	-22.7
315.719	20.31
315.933	-55.47
316.146	65.36
316.36	-4.27
316.573	-0.17
316.787	57.17
317.001	69.46
317.214	-8.36
317.428	18.26
317.641	3.93
317.855	20.31
318.068	10.07
318.282	38.74
318.495	53.08
318.709	28.5
318.922	-77.99
319.136	51.03
319.349	75.6
319.563	77.65
319.776	63.32
319.99	26.45
320.203	61.27
320.417	1.88
320.63	42.84
320.843	139.09
321.057	36.69
321.27	-34.99
321.483	98.13
321.697	32.6
321.91	91.99
322.124	3.93
322.337	44.88
322.55	61.27
322.763	28.5
322.977	55.12
323.19	8.02
323.403	48.98
323.617	-28.84
323.83	63.32
324.043	44.88
324.256	22.36
324.469	-65.71
324.683	48.98
324.896	12.12
325.109	18.26
325.322	-30.89
325.535	40.79
325.748	63.32
325.962	16.21
326.175	28.5
326.388	40.79
326.601	28.5
326.814	-6.31
327.027	32.6
327.24	44.88
327.453	-118.95
327.666	34.64
327.879	8.02
328.092	94.04
328.305	38.74
328.518	69.46
328.731	8.02
328.944	67.41
329.157	36.69
329.37	44.88
329.583	34.64
329.796	87.89
330.009	32.6
330.222	89.94
330.435	118.61
330.648	73.56
330.861	46.93
331.073	65.36
331.286	24.4
331.499	24.4
331.712	53.08
331.925	69.46
332.138	26.45
332.35	71.51
332.563	-20.65
332.776	104.28
332.989	32.6
333.202	-4.27
333.414	94.04
333.627	18.26
333.84	-12.46
334.053	32.6
334.265	-53.42
334.478	67.41
334.691	-2.22
334.903	3.93
335.116	40.79
335.329	-47.27
335.541	16.21
335.754	34.64
335.966	-0.17
336.179	-24.75
336.392	20.31
336.604	83.8
336.817	65.36
337.029	40.79
337.242	46.93
337.454	59.22
337.667	42.84
337.88	53.08
338.092	73.56
338.305	12.12
338.517	-10.41
338.729	57.17
338.942	108.37
339.154	-8.36
339.367	1.88
339.579	1.88
339.792	57.17
340.004	22.36
340.217	34.64
340.429	22.36
340.641	-30.89
340.854	8.02
341.066	12.12
341.278	94.04
341.491	30.55
341.703	57.17
341.915	16.21
342.128	61.27
342.34	14.17
342.552	8.02
342.764	59.22
342.977	36.69
343.189	26.45
343.401	44.88
343.613	-47.27
343.826	34.64
344.038	-30.89
344.25	-4.27
344.462	10.07
344.674	87.89
344.886	38.74
345.099	53.08
345.311	30.55
345.523	-20.65
345.735	-12.46
345.947	38.74
346.159	32.6
346.371	20.31
346.583	-45.23
346.795	61.27
347.007	-22.7
347.219	122.71
347.431	12.12
347.643	28.5
347.855	12.12
348.067	85.84
348.279	-22.7
348.491	32.6
348.703	87.89
348.915	61.27
349.127	10.07
349.339	46.93
349.551	5.97
349.763	36.69
349.975	-10.41
350.187	77.65
350.399	-22.7
350.61	46.93
350.822	-6.31
351.034	83.8
351.246	3.93
351.458	65.36
351.669	46.93
351.881	79.7
352.093	69.46
352.305	87.89
352.517	-18.6
352.728	116.56
352.94	118.61
353.152	38.74
353.363	-10.41
353.575	-41.13
353.787	94.04
353.999	26.45
354.21	102.23
354.422	44.88
354.633	108.37
354.845	8.02
355.057	53.08
355.268	48.98
355.48	98.13
355.692	3.93
355.903	-41.13
356.115	-28.84
356.326	30.55
356.538	34.64
356.749	20.31
356.961	120.66
357.172	20.31
357.384	-4.27
357.595	85.84
357.807	44.88
358.018	-6.31
358.23	1.88
358.441	110.42
358.653	55.12
358.864	40.79
359.075	18.26
359.287	63.32
359.498	1.88
359.709	59.22
359.921	55.12
360.132	34.64
360.344	32.6
360.555	24.4
360.766	77.65
360.977	-41.13
361.189	53.08
361.4	104.28
361.611	61.27
361.823	48.98
362.034	48.98
362.245	61.27
362.456	-26.79
362.667	79.7
362.879	53.08
363.09	44.88
363.301	65.36
363.512	10.07
363.723	-8.36
363.935	-20.65
364.146	26.45
364.357	98.13
364.568	77.65
364.779	3.93
364.99	59.22
365.201	-55.47
365.412	44.88
365.623	-32.94
365.834	44.88
366.045	61.27
366.256	32.6
366.467	53.08
366.678	53.08
366.889	59.22
367.1	-22.7
367.311	10.07
367.522	-65.71
367.733	132.95
367.944	106.32
368.155	8.02
368.366	83.8
368.577	12.12
368.788	28.5
368.999	-30.89
369.209	57.17
369.42	94.04
369.631	69.46
369.842	100.18
370.053	69.46
370.264	116.56
370.474	24.4
370.685	91.99
370.896	94.04
371.107	44.88
371.317	22.36
371.528	-14.51
371.739	87.89
371.95	100.18
372.16	3.93
372.371	-59.56
372.582	63.32
372.792	20.31
373.003	36.69
373.214	85.84
373.424	40.79
373.635	3.93
373.846	51.03
374.056	65.36
374.267	83.8
374.477	-4.27
374.688	26.45
374.898	77.65
375.109	-6.31
375.319	16.21
375.53	87.89
375.74	198.48
375.951	77.65
376.161	67.41
376.372	110.42
376.582	26.45
376.793	77.65
377.003	28.5
377.214	22.36
377.424	24.4
377.635	-47.27
377.845	32.6
378.055	53.08
378.266	20.31
378.476	24.4
378.686	83.8
378.897	32.6
379.107	69.46
379.317	44.88
379.528	-6.31
379.738	20.31
379.948	-37.03
380.158	85.84
380.369	10.07
380.579	57.17
380.789	65.36
380.999	36.69
381.21	53.08
381.42	122.71
381.63	73.56
381.84	8.02
382.05	28.5
382.261	112.47
382.471	61.27
382.681	57.17
382.891	79.7
383.101	63.32
383.311	-8.36
383.521	-8.36
383.731	91.99
383.941	3.93
384.151	98.13
384.361	40.79
384.571	30.55
384.781	34.64
384.991	98.13
385.201	73.56
385.411	24.4
385.621	114.52
385.831	1.88
386.041	65.36
386.251	83.8
386.461	75.6
386.671	91.99
386.881	-14.51
387.091	18.26
387.301	63.32
387.511	59.22
387.72	12.12
387.93	143.19
388.14	24.4
388.35	-10.41
388.56	40.79
388.769	53.08
388.979	24.4
389.189	-14.51
389.399	67.41
389.609	44.88
389.818	59.22
390.028	83.8
390.238	-6.31
390.447	8.02
390.657	69.46
390.867	53.08
391.076	-12.46
391.286	79.7
391.496	-22.7
391.705	75.6
391.915	75.6
392.125	85.84
392.334	79.7
392.544	24.4
392.753	110.42
392.963	30.55
393.172	69.46
393.382	-14.51
393.591	149.33
393.801	81.75
394.01	126.8
394.22	151.38
394.429	32.6
394.639	16.21
394.848	98.13
395.058	94.04
395.267	-20.65
395.477	116.56
395.686	53.08
395.895	159.57
396.105	157.52
396.314	81.75
396.524	106.32
396.733	46.93
396.942	79.7
397.152	100.18
397.361	98.13
397.57	71.51
397.78	73.56
397.989	114.52
398.198	87.89
398.407	110.42
398.617	132.95
398.826	63.32
399.035	112.47
399.244	126.8
399.453	116.56
399.663	100.18
399.872	53.08
400.081	139.09
400.29	139.09
400.499	20.31
400.708	108.37
400.917	100.18
401.127	94.04
401.336	118.61
401.545	157.52
401.754	116.56
401.963	73.56
402.172	71.51
402.381	24.4
402.59	96.08
402.799	116.56
403.008	130.9
403.217	147.28
403.426	155.47
403.635	124.76
403.844	147.28
404.053	118.61
404.262	135
404.471	102.23
404.68	139.09
404.888	147.28
405.097	139.09
405.306	214.87
405.515	196.43
405.724	135
405.933	96.08
406.142	221.01
406.35	216.91
406.559	178
406.768	206.67
406.977	229.2
407.185	192.34
407.394	241.49
407.603	167.76
407.812	171.86
408.02	173.91
408.229	178
408.438	206.67
408.646	180.05
408.855	264.02
409.064	233.3
409.272	249.68
409.481	317.26
409.69	298.83
409.898	182.1
410.107	333.65
410.315	296.78
410.524	290.64
410.733	307.02
410.941	264.02
411.15	442.19
411.358	405.33
411.567	438.09
411.775	370.51
411.984	393.04
412.192	425.81
412.401	462.67
412.609	444.24
412.818	470.86
413.026	487.25
413.234	468.81
413.443	513.87
413.651	468.81
413.86	499.53
414.068	585.55
414.276	640.84
414.485	583.5
414.693	657.23
414.901	710.47
415.11	624.46
415.318	626.51
415.526	677.71
415.734	636.75
415.943	702.28
416.151	753.48
416.359	698.19
416.567	786.25
416.776	843.59
416.984	872.26
417.192	878.41
417.4	823.11
417.608	925.51
417.817	876.36
418.025	1025.86
418.233	1060.68
418.441	1068.87
418.649	1089.35
418.857	1161.03
419.065	1263.43
419.273	1204.03
419.481	1189.7
419.689	1267.52
419.897	1371.97
420.105	1339.2
420.313	1437.5
420.521	1574.72
420.729	1535.81
420.937	1503.04
421.145	1625.92
421.353	1693.5
421.561	1865.53
421.769	1806.14
421.977	1988.41
422.185	1883.96
422.393	1941.3
422.601	2060.09
422.809	2139.96
423.017	2246.45
423.224	2174.77
423.432	2295.6
423.64	2436.91
423.848	2514.73
424.056	2539.31
424.263	2701.1
424.471	2688.81
424.679	2740.01
424.887	2801.45
425.094	3133.22
425.302	3022.63
425.51	3073.83
425.718	3182.37
425.925	3110.69
426.133	3309.35
426.341	3469.09
426.548	3518.24
426.756	3782.43
426.964	3657.5
427.171	4005.66
427.379	3952.41
427.586	4114.2
427.794	4208.41
428.001	4476.69
428.209	4665.1
428.417	4499.22
428.624	4878.09
428.832	4851.47
429.039	4777.74
429.247	4779.79
429.454	5279.49
429.662	5566.21
429.869	5277.44
430.076	5611.26
430.284	5523.2
430.491	5869.31
430.699	6031.1
430.906	6039.29
431.114	6078.2
431.321	6358.77
431.528	6344.44
431.736	6831.85
431.943	7255.78
432.15	6893.29
432.358	6989.55
432.565	7562.98
432.772	7335.65
432.979	7775.97
433.187	7749.34
433.394	8015.58
433.601	8507.09
433.808	8558.29
434.016	8605.39
434.223	8845.01
434.43	9230.02
434.637	9162.44
434.844	9703.11
435.052	9936.57
435.259	9692.87
435.466	9940.67
435.673	9840.32
435.88	10561.2
436.087	11206.31
436.294	11157.16
436.501	10981.04
436.708	11216.55
436.915	11501.22
437.122	12218.01
437.329	11968.16
437.537	12291.74
437.743	12551.83
437.95	12433.05
438.157	13031.05
438.364	13450.89
438.571	13411.98
438.778	13567.62
438.985	14880.37
439.192	14167.68
439.399	14569.08
439.606	14435.96
439.813	15292.01
440.02	16113.25
440.227	15994.47
440.433	15650.41
440.64	16168.54
440.847	15941.22
441.054	16514.65
441.261	17712.71
441.467	17352.27
441.674	17802.82
441.881	18484.8
442.088	18378.3
442.294	18214.46
442.501	18636.34
442.708	18964.02
442.914	19707.43
443.121	20348.45
443.328	20137.51
443.534	21675.53
443.741	20911.64
443.948	20385.31
444.154	22271.49
444.361	22050.31
444.568	21999.11
444.774	22208
444.981	22484.48
445.187	23117.3
445.394	24088.04
445.6	23664.11
445.807	26183.11
446.013	24743.39
446.22	25431.51
446.426	26230.21
446.633	26451.39
446.839	27342.26
447.046	26056.14
447.252	27835.82
447.459	27837.87
447.665	27475.38
447.871	28745.12
448.078	29617.55
448.284	28745.12
448.491	29672.85
448.697	30530.95
448.903	31022.46
449.11	31192.44
449.316	30694.78
449.522	31296.89
449.728	31991.15
449.935	32542.05
450.141	32066.92
450.347	32695.65
450.553	31692.15
450.76	32376.17
450.966	33523.03
451.172	33074.52
451.378	33529.17
451.584	33281.37
451.791	33695.06
451.997	33875.28
452.203	34577.73
452.409	34295.11
452.615	34135.37
452.821	32879.97
453.027	32681.31
453.233	34409.8
453.44	33138.01
453.646	33537.37
453.852	33527.13
454.058	33903.95
454.264	32978.27
454.47	33420.63
454.676	32746.85
454.882	33797.46
455.088	31143.29
455.294	31452.53
455.5	31851.89
455.705	32216.43
455.911	31237.5
456.117	30727.55
456.323	29851.02
456.529	28071.34
456.735	29398.42
456.941	28911
457.147	28382.63
457.352	27530.67
457.558	27178.42
457.764	27125.18
457.97	26381.76
458.176	26109.38
458.381	26176.97
458.587	24882.65
458.793	24917.47
458.999	23365.1
459.204	25159.13
459.41	24419.81
459.616	23023.09
459.821	23047.67
460.027	22722.04
460.233	22310.4
460.438	21536.27
460.644	21702.15
460.85	20616.73
461.055	20041.25
461.261	20084.26
461.466	18681.4
461.672	18136.64
461.878	19359.28
462.083	18208.32
462.289	17876.55
462.494	17526.35
462.7	17045.07
462.905	16285.28
463.111	16977.49
463.316	16907.86
463.522	16774.74
463.727	16713.3
463.932	16574.04
464.138	16690.77
464.343	16438.87
464.549	15910.5
464.754	16479.83
464.959	16309.85
465.165	16133.73
465.37	15738.47
465.575	15273.58
465.781	15900.26
465.986	15904.35
466.191	15275.63
466.397	14802.55
466.602	13889.15
466.807	14902.9
467.012	14786.16
467.218	14909.04
467.423	14722.68
467.628	14595.7
467.833	15400.55
468.038	14630.52
468.244	14251.64
468.449	14790.26
468.654	14237.31
468.859	14165.63
469.064	14294.65
469.269	13819.52
469.474	13799.04
469.679	14261.88
469.885	13596.29
470.09	13729.41
470.295	13721.22
470.5	13323.91
470.705	13391.5
470.91	13164.17
471.115	13065.87
471.32	13311.63
471.525	13250.19
471.73	13069.97
471.935	12895.89
472.139	12177.05
472.344	12412.57
472.549	12385.94
472.754	12105.37
472.959	12129.95
473.164	11898.53
473.369	11749.03
473.574	11832.99
473.778	12084.89
473.983	11628.2
474.188	11761.31
474.393	11245.23
474.598	11318.95
474.802	10987.18
475.007	10968.75
475.212	10970.8
475.417	10731.19
475.621	10831.54
475.826	10630.84
476.031	10409.65
476.235	10233.53
476.44	10550.96
476.645	10200.76
476.849	10227.39
477.054	10313.4
477.259	9940.67
477.463	10065.6
477.668	9737.92
477.872	9850.56
478.077	9739.97
478.282	9338.57
478.486	9359.05
478.691	9209.54
478.895	9586.37
479.1	9285.32
479.304	9287.37
479.509	8976.08
479.713	9309.9
479.918	9060.04
480.122	8904.4
480.326	9023.18
480.531	8978.12
480.735	8857.29
480.94	8634.07
481.144	9158.35
481.348	8736.46
481.553	8593.11
481.757	8572.63
481.961	8515.28
482.166	8941.26
482.37	8654.55
482.574	8525.52
482.778	8445.65
482.983	8599.25
483.187	8644.31
483.391	8634.07
483.595	8537.81
483.8	8660.69
484.004	8722.13
484.208	8763.09
484.412	8584.91
484.616	8693.46
484.821	8449.75
485.025	8433.36
485.229	8543.95
485.433	8457.94
485.637	8632.02
485.841	8435.41
486.045	8494.8
486.249	8445.65
486.453	8494.8
486.657	8482.52
486.861	8562.39
487.065	8515.28
487.269	8345.3
487.473	8263.38
487.677	8355.54
487.881	8668.88
488.085	8466.13
488.289	8670.93
488.493	8507.09
488.697	8777.42
488.901	8617.68
489.105	8601.3
489.309	8556.24
489.512	8883.92
489.716	8713.94
489.92	8650.45
490.124	8589.01
490.328	8826.57
490.531	8515.28
490.735	8693.46
490.939	8799.95
491.143	8806.09
491.346	8589.01
491.55	8709.84
491.754	8867.53
491.958	8998.6
492.161	8842.96
492.365	8978.12
492.569	8984.27
492.772	9002.7
492.976	8978.12
493.18	9152.2
493.383	9191.11
493.587	9420.49
493.79	9418.44
493.994	9397.96
494.197	9320.14
494.401	9604.8
494.605	9449.16
494.808	9561.8
495.012	9531.08
495.215	9764.54
495.419	9922.24
495.622	9750.21
495.825	10159.8
496.029	9834.18
496.232	10133.18
496.436	10096.32
496.639	10282.68
496.843	10215.1
497.046	10669.75
497.249	10538.68
497.453	10673.84
497.656	10727.09
497.859	10763.95
498.063	10925.74
498.266	11062.96
498.469	11202.22
498.673	10999.47
498.876	11157.16
499.079	11308.71
499.282	11585.19
499.485	11835.04
499.689	11736.74
499.892	11773.6
500.095	11871.9
500.298	12258.97
500.501	11947.68
500.705	12377.75
500.908	12447.38
501.111	12555.93
501.314	13065.87
501.517	13151.88
501.72	13012.62
501.923	13086.35
502.126	13446.79
502.329	13620.87
502.532	13596.29
502.735	13956.74
502.938	13921.92
503.141	13983.36
503.344	14284.41
503.547	14472.82
503.75	14481.02
503.953	14737.01
504.156	15074.93
504.359	15240.81
504.562	15142.51
504.765	15631.97
504.968	15576.68
505.17	15689.32
505.373	15883.87
505.576	16174.69
505.779	16293.47
505.982	16234.08
506.185	16612.95
506.387	16662.1
506.59	16764.5
506.793	17555.02
506.996	17024.59
507.198	17591.88
507.401	17604.17
507.604	17796.68
507.807	18210.37
508.009	18374.2
508.212	18099.78
508.415	18787.89
508.617	18611.77
508.82	18921.01
509.022	19068.47
509.225	19394.09
509.428	19533.36
509.63	19594.79
509.833	19963.43
510.035	20475.42
510.238	20327.97
510.44	20354.59
510.643	20526.62
510.845	20839.96
511.048	20985.37
511.25	21138.96
511.453	21610
511.655	21986.82
511.858	21810.7
512.06	21966.34
512.262	22236.67
512.465	22363.65
512.667	22789.63
512.87	22642.17
513.072	22975.99
513.274	23361.01
513.477	24049.13
513.679	23903.72
513.881	24368.61
514.084	24538.59
514.286	24870.36
514.488	24704.48
514.69	25032.15
514.893	25648.59
515.095	25456.08
515.297	26035.66
515.499	25931.21
515.701	26365.38
515.904	26787.26
516.106	26846.65
516.308	27473.33
516.51	27299.25
516.712	27661.74
516.914	27921.84
517.116	28456.36
517.318	28573.09
517.52	28628.38
517.722	28655.01
517.925	29279.64
518.127	29799.82
518.329	29996.43
518.531	29676.94
518.733	30621.06
518.935	30643.59
519.136	30725.5
519.338	31186.3
519.54	31606.13
519.742	31917.42
519.944	31755.63
520.146	32920.93
520.348	32873.82
520.55	33027.42
520.752	32953.69
520.954	33928.53
521.155	33527.13
521.357	34073.93
521.559	34792.77
521.761	34952.51
521.963	34909.5
522.164	35276.09
522.366	35550.52
522.568	36218.16
522.77	36179.25
522.971	36861.22
523.173	36597.03
523.375	36975.91
523.576	37090.59
523.778	37360.92
523.98	37780.76
524.181	38352.14
524.383	38593.8
524.584	38771.97
524.786	39124.22
524.988	38896.9
525.189	39458.04
525.391	39855.35
525.592	39711.99
525.794	40318.19
525.995	40572.14
526.197	40731.88
526.398	41037.03
526.6	41800.92
526.801	41407.71
527.003	41944.28
527.204	41581.79
527.406	42325.2
527.607	42233.04
527.808	42423.5
528.01	42276.05
528.211	42644.68
528.412	43418.81
528.614	43521.21
528.815	43381.95
529.016	44084.4
529.218	43680.95
529.419	44102.84
529.62	44102.84
529.822	43820.22
530.023	44014.77
530.224	44735.66
530.425	44418.22
530.626	44194.99
530.828	44543.15
531.029	45569.18
531.23	44897.45
531.431	45135.01
531.632	45683.87
531.833	45927.58
532.035	45737.12
532.236	45728.92
532.437	46011.54
532.638	45831.32
532.839	46038.17
533.04	46216.34
533.241	46181.52
533.442	46793.87
533.643	46478.48
533.844	46550.16
534.045	46615.69
534.246	45798.55
534.447	46605.45
534.648	46480.53
534.849	46902.41
535.05	46290.07
535.251	46775.44
535.451	46644.37
535.652	47252.61
535.853	46775.44
536.054	47236.23
536.255	47066.25
536.456	46773.39
536.657	47774.84
536.857	46933.13
537.058	47174.79
537.259	47770.75
537.46	47389.83
537.66	46994.57
537.861	47594.62
538.062	47338.63
538.263	47547.52
538.463	47336.58
538.664	47230.08
538.865	47580.29
539.065	47938.68
539.266	47441.03
539.466	47936.63
539.667	47395.97
539.868	48239.73
540.068	47492.22
540.269	47201.41
540.469	47651.97
540.67	47363.2
540.87	47510.66
541.071	47330.44
541.271	47879.29
541.472	47535.23
541.672	46949.51
541.873	47531.14
542.073	46797.96
542.274	47985.79
542.474	47760.51
542.675	46935.18
542.875	47520.9
543.075	47725.69
543.276	47027.34
543.476	48006.26
543.676	47160.45
543.877	47922.3
544.077	47723.65
544.277	47385.73
544.478	47068.3
544.678	47934.59
544.878	47236.23
545.078	47617.15
545.279	47551.62
545.479	47051.91
545.679	47502.46
545.879	47395.97
546.079	47404.16
546.28	47318.15
546.48	47242.37
546.68	47793.28
546.88	47938.68
547.08	47387.78
547.28	47080.58
547.48	46969.99
547.68	47365.25
547.88	46900.36
548.081	47486.08
548.281	47398.02
548.481	47269
548.681	47973.5
548.881	47770.75
549.081	47330.44
549.28	47041.67
549.48	47651.97
549.68	47369.35
549.88	47905.91
550.08	46834.83
550.28	47471.74
550.48	47117.45
550.68	47355.01
550.88	47023.24
551.08	47887.48
551.279	46988.42
551.479	47072.39
551.679	47654.01
551.879	46986.38
552.079	47187.08
552.278	47285.38
552.478	46838.92
552.678	47201.41
552.878	47133.83
553.077	47060.1
553.277	46953.61
553.477	47385.73
553.676	46904.46
553.876	46883.98
554.076	46658.7
554.275	46546.06
554.475	46589.07
554.674	47099.01
554.874	46652.56
555.074	46437.52
555.273	46843.02
555.473	46947.46
555.672	46384.27
555.872	46597.26
556.071	46331.03
556.271	46601.36
556.47	46144.66
556.67	46177.43
556.869	45921.43
557.068	45962.39
557.268	46118.04
557.467	45786.27
557.667	45829.27
557.866	45782.17
558.065	45604
558.265	45784.22
558.464	45638.81
558.663	45690.01
558.863	44889.26
559.062	46011.54
559.261	44930.22
559.461	45784.22
559.66	44623.02
559.859	45114.53
560.058	44313.78
560.258	44823.72
560.457	44373.17
560.656	44680.36
560.855	44405.94
561.054	44795.05
561.253	43951.29
561.453	44137.65
561.652	44188.85
561.851	43914.42
562.05	43947.19
562.249	43488.45
562.448	43777.21
562.647	43713.72
562.846	43205.83
563.045	43291.84
563.244	42624.2
563.443	43154.63
563.642	42652.87
563.841	42628.3
564.04	42476.75
564.239	43275.46
564.438	42292.43
564.637	42374.35
564.836	42607.82
565.035	41792.73
565.234	41964.76
565.432	41563.36
565.631	41829.59
565.83	41882.84
566.029	41207.01
566.228	41522.4
566.427	41088.23
566.625	41002.21
566.824	40301.81
567.023	40764.65
567.222	40062.19
567.42	40746.22
567.619	40144.11
567.818	40047.86
568.016	39935.22
568.215	39910.64
568.414	39683.32
568.612	39892.21
568.811	39720.18
569.01	39255.29
569.208	39001.35
569.407	39163.14
569.605	38733.06
569.804	39146.75
570.002	38442.25
570.201	38581.51
570.4	38286.61
570.598	37930.26
570.797	37948.69
570.995	37700.89
571.193	37276.96
571.392	37954.83
571.59	37240.09
571.789	37379.35
571.987	36861.22
572.186	37053.73
572.384	36654.37
572.582	36361.51
572.781	37180.7
572.979	36328.75
573.177	36418.86
573.376	36566.31
573.574	36099.37
573.772	36175.15
573.971	36138.29
574.169	35519.8
574.367	35441.98
574.565	35910.96
574.763	35577.14
574.962	35362.11
575.16	35048.77
575.358	35151.16
575.556	34331.98
575.754	34911.55
575.952	34661.7
576.151	34743.62
576.349	34276.68
576.547	34194.76
576.745	34073.93
576.943	34297.16
577.141	34020.69
577.339	34118.99
577.537	33508.69
577.735	33561.94
577.933	33215.83
578.131	33715.54
578.329	33443.16
578.527	32998.75
578.725	33416.54
578.923	33381.72
579.121	32939.36
579.319	32894.3
579.516	32863.58
579.714	32644.45
579.912	32499.05
580.11	32284.01
580.308	32478.57
580.506	31937.9
580.704	31749.49
580.901	31778.16
581.099	32159.08
581.297	31421.81
581.495	31530.36
581.692	31513.97
581.89	31280.5
582.088	31761.78
582.285	30954.88
582.483	31272.31
582.681	31430.01
582.878	31126.91
583.076	30582.15
583.274	30723.46
583.471	30250.38
583.669	30829.95
583.866	30303.62
584.064	30655.87
584.262	29885.84
584.459	30541.19
584.657	29990.28
584.854	29947.28
585.052	29533.59
585.249	29840.78
585.447	29883.79
585.644	29541.78
585.841	29619.6
586.039	29869.45
586.236	28956.06
586.434	29193.62
586.631	28919.2
586.828	29095.32
587.026	29142.42
587.223	28704.16
587.42	28835.23
587.618	28704.16
587.815	28235.17
588.012	28550.56
588.21	28317.09
588.407	28552.61
588.604	28034.47
588.801	27796.91
588.999	27934.12
589.196	27973.03
589.393	27878.83
589.59	27786.67
589.787	27596.21
589.984	27499.95
590.182	27194.81
590.379	27518.39
590.576	27364.79
590.773	27311.54
590.97	26912.19
591.167	27299.25
591.364	26650.05
591.561	26832.32
591.758	26625.47
591.955	26615.23
592.152	26822.08
592.349	26699.2
592.546	26572.22
592.743	26332.61
592.94	26334.66
593.137	26314.18
593.334	26430.91
593.531	25880.01
593.727	26148.29
593.924	25677.26
594.121	25863.63
594.318	25974.22
594.515	25683.41
594.712	25732.56
594.908	25421.27
595.105	25363.92
595.302	25343.44
595.499	25486.8
595.696	25343.44
595.892	25173.46
596.089	24958.42
596.286	25144.79
596.482	24839.64
596.679	24858.07
596.876	25007.58
597.072	24557.02
597.269	24458.72
597.466	24448.48
597.662	24466.91
597.859	24309.22
598.055	24325.6
598.252	24126.95
598.448	24180.2
598.645	24022.5
598.841	23836.14
599.038	23975.4
599.234	23901.67
599.431	23700.97
599.627	23227.89
599.824	23571.95
600.02	23217.65
600.217	23600.62
600.413	23629.29
600.609	23125.49
600.806	23367.15
601.002	23244.27
601.198	22971.89
601.395	23098.87
601.591	23100.92
601.787	23023.09
601.984	22728.19
602.18	22781.43
602.376	22408.7
602.572	22423.04
602.769	22420.99
602.965	22564.35
603.161	22550.01
603.357	22494.72
603.553	22289.92
603.75	22136.32
603.946	21929.48
604.142	22146.56
604.338	21966.34
604.534	22027.78
604.73	21759.5
604.926	21528.08
605.122	21657.1
605.318	21339.66
605.514	21419.53
605.71	21382.67
605.906	21405.2
606.102	21175.83
606.298	21173.78
606.494	21444.11
606.69	21310.99
606.886	21126.67
607.082	21014.04
607.278	21270.03
607.474	20837.91
607.67	20964.89
607.866	20481.56
608.062	20987.41
608.257	20397.6
608.453	20532.76
608.649	20538.91
608.845	20317.73
609.041	20465.18
609.236	20370.97
609.432	20463.13
609.628	20180.51
609.824	20266.53
610.019	20223.52
610.215	20254.24
610.411	20112.93
610.606	20112.93
610.802	19797.54
610.998	19959.33
611.193	19865.13
611.389	19740.2
611.584	19936.81
611.78	19750.44
611.976	19658.28
612.171	19777.06
612.367	19570.22
612.562	19471.92
612.758	18966.07
612.953	19316.27
613.149	19635.75
613.344	19228.21
613.539	19639.85
613.735	19336.75
613.93	19600.94
614.126	19072.56
614.321	19185.2
614.517	19007.03
614.712	19101.23
614.907	18892.34
615.103	18959.92
615.298	18794.04
615.493	19113.52
615.688	18869.81
615.884	18980.4
616.079	18765.37
616.274	18796.09
616.47	18695.74
616.665	18667.06
616.86	18503.23
617.055	18871.86
617.25	18505.27
617.445	18601.53
617.641	18376.25
617.836	18654.78
618.031	18181.7
618.226	18245.18
618.421	18107.97
618.616	18271.81
618.811	17774.15
619.006	18232.9
619.201	17647.18
619.396	18077.25
619.591	17454.67
619.786	17757.77
619.981	17520.2
620.176	17669.7
620.371	17604.17
620.566	17741.38
620.761	17151.57
620.956	17196.62
621.151	17045.07
621.346	17038.93
621.541	16723.54
621.735	17147.47
621.93	16805.46
622.125	16903.76
622.32	16621.14
622.515	16662.1
622.709	16533.08
622.904	16389.72
623.099	16295.52
623.294	16225.89
623.488	16133.73
623.683	15951.46
623.878	15781.48
624.072	16043.62
624.267	15980.13
624.462	15855.2
624.656	15646.31
624.851	15851.11
625.046	15406.7
625.24	15353.45
625.435	15535.72
625.629	15285.87
625.824	15134.32
626.018	15345.26
626.213	14622.33
626.407	14868.08
626.602	14749.3
626.796	14614.13
626.991	14859.89
627.185	14603.89
627.38	14589.56
627.574	14536.31
627.768	14331.51
627.963	14493.3
628.157	14351.99
628.352	14220.92
628.546	13985.41
628.74	14087.81
628.935	13868.67
629.129	13946.5
629.323	13788.8
629.517	13569.67
629.712	13444.74
629.906	13567.62
630.1	13229.71
630.294	13467.27
630.489	13330.06
630.683	13424.26
630.877	13049.49
631.071	13069.97
631.265	13348.49
631.459	12936.85
631.653	13104.78
631.848	13008.53
632.042	12795.54
632.236	12799.63
632.43	12697.24
632.624	12672.66
632.818	12353.18
633.012	12447.38
633.206	12498.58
633.4	12396.18
633.594	12123.8
633.788	12414.62
633.982	12318.36
634.176	12125.85
634.369	11939.49
634.563	12023.45
634.757	11966.11
634.951	12088.99
635.145	11605.67
635.339	11812.51
635.533	11638.44
635.726	11730.59
635.92	11628.2
636.114	11388.58
636.308	11579.04
636.501	11390.63
636.695	11490.98
636.889	11251.37
637.083	11161.26
637.276	10999.47
637.47	11001.52
637.664	11034.28
637.857	10956.46
638.051	11024.05
638.244	10935.98
638.438	10653.36
638.632	10792.62
638.825	10481.33
639.019	10581.68
639.212	10462.9
639.406	10303.16
639.599	10368.7
639.793	10415.8
639.986	10348.22
640.18	10409.65
640.373	10041.02
640.567	10251.96
640.76	9998.01
640.954	9774.78
641.147	9899.71
641.34	9701.06
641.534	10014.4
641.727	9856.7
641.92	9801.41
642.114	9801.41
642.307	9555.65
642.5	9662.15
642.694	9348.81
642.887	9383.62
643.08	9623.23
643.273	9379.53
643.467	9336.52
643.66	9301.7
643.853	9258.7
644.046	9129.67
644.239	9191.11
644.432	9172.68
644.626	8920.78
644.819	8851.15
645.012	9105.1
645.205	9058
645.398	8814.29
645.591	9012.94
645.784	8742.61
645.977	8642.26
646.17	8662.74
646.363	8627.92
646.556	8513.24
646.749	8505.04
646.942	8558.29
647.135	8556.24
647.328	8541.91
647.521	8439.51
647.714	8210.14
647.907	8218.33
648.099	8318.68
648.292	8285.91
648.485	8167.13
648.678	7948
648.871	8138.46
649.064	7894.75
649.256	8011.48
649.449	7921.37
649.642	7880.41
649.835	7794.4
650.027	7698.14
650.22	7812.83
650.413	7806.69
650.605	7782.11
650.798	7724.77
650.991	7714.53
651.183	7626.46
651.376	7444.2
651.568	7481.06
651.761	7571.17
651.954	7450.34
652.146	7454.44
652.339	7423.72
652.531	7311.08
652.724	7358.18
652.916	7290.6
653.109	7112.42
653.301	7325.41
653.494	7245.54
653.686	7159.53
653.879	7220.97
654.071	7194.34
654.263	6891.24
654.456	6897.39
654.648	7186.15
654.84	6831.85
655.033	6893.29
655.225	6987.5
655.417	6850.28
655.61	6743.79
655.802	6852.33
655.994	6674.16
656.186	6713.07
656.379	6686.45
656.571	6637.3
656.763	6522.61
656.955	6549.23
657.148	6401.78
657.34	6596.34
657.532	6491.89
657.724	6391.54
657.916	6438.64
658.108	6274.81
658.3	6366.96
658.492	6278.9
658.684	6264.57
658.876	6387.44
659.068	6276.85
659.26	6340.34
659.452	6156.02
659.644	6153.98
659.836	6252.28
660.028	6307.57
660.22	6033.15
660.412	6080.25
660.604	5889.79
660.796	6041.34
660.988	5975.8
661.18	5934.84
661.372	6119.16
661.563	5924.6
661.755	6024.95
661.947	5996.28
662.139	5846.78
662.331	5881.6
662.522	5887.74
662.714	5668.61
662.906	5709.57
663.097	5832.44
663.289	5869.31
663.481	5705.47
663.673	5873.4
663.864	5664.51
664.056	5648.13
664.247	5553.92
664.439	5504.77
664.631	5664.51
664.822	5703.42
665.014	5658.37
665.205	5523.2
665.397	5627.65
665.588	5674.75
665.78	5508.87
665.971	5414.66
666.163	5512.96
666.354	5588.74
666.546	5500.67
666.737	5365.51
666.929	5375.75
667.12	5414.66
667.311	5388.04
667.503	5416.71
667.694	5398.27
667.885	5457.67
668.077	5261.06
668.268	5244.68
668.459	5279.49
668.651	5279.49
668.842	5385.99
669.033	5299.97
669.224	5193.48
669.416	5420.8
669.607	5334.79
669.798	5271.3
669.989	5263.11
670.18	5416.71
670.371	5170.95
670.563	5304.07
670.754	5306.12
670.945	5205.77
671.136	5173
671.327	5269.25
671.518	5322.5
671.709	5256.97
671.9	5236.49
672.091	5205.77
672.282	5078.79
672.473	5291.78
672.664	5293.83
672.855	5306.12
673.046	5117.7
673.237	5271.3
673.428	5191.43
673.619	5449.47
673.809	5123.85
674	5367.56
674.191	5234.44
674.382	5302.02
674.573	5293.83
674.764	5222.15
674.954	5224.2
675.145	5308.16
675.336	5177.09
675.527	5179.14
675.717	5349.12
675.908	5316.36
676.099	5377.8
676.289	5408.51
676.48	5345.03
676.671	5295.88
676.861	5410.56
677.052	5381.89
677.243	5443.33
677.433	5359.36
677.624	5492.48
677.814	5416.71
678.005	5529.34
678.195	5398.27
678.386	5396.23
678.576	5488.39
678.767	5508.87
678.957	5451.52
679.148	5609.22
679.338	5480.19
679.529	5439.23
679.719	5209.86
679.909	5627.65
680.1	5545.73
680.29	5582.59
680.481	5574.4
680.671	5562.11
680.861	5629.7
681.052	5607.17
681.242	5672.7
681.432	5715.71
681.622	5707.52
681.813	5709.57
682.003	5775.1
682.193	5693.18
682.383	5781.25
682.573	5734.14
682.764	5662.46
682.954	5807.87
683.144	5861.12
683.334	5572.35
683.524	5852.92
683.714	5779.2
683.904	5859.07
684.094	5971.71
684.284	5760.77
684.474	5742.33
684.664	5799.68
684.854	5820.16
685.044	5672.7
685.234	5736.19
685.424	5779.2
685.614	5768.96
685.804	5840.64
685.994	5773.05
686.184	5777.15
686.374	5691.13
686.564	5711.61
686.753	5750.53
686.943	5820.16
687.133	5748.48
687.323	5695.23
687.513	5713.66
687.702	5625.6
687.892	5574.4
688.082	5629.7
688.272	5586.69
688.461	5492.48
688.651	5512.96
688.841	5383.94
689.03	5459.71
689.22	5410.56
689.41	5478.15
689.599	5408.51
689.789	5439.23
689.979	5312.26
690.168	5424.9
690.358	5117.7
690.547	5357.32
690.737	5304.07
690.926	5302.02
691.116	5189.38
691.305	5209.86
691.495	5181.19
691.684	5154.57
691.874	5060.36
692.063	5160.71
692.252	5086.98
692.442	4951.82
692.631	5127.94
692.82	5009.16
693.01	5132.04
693.199	4855.56
693.388	4839.18
693.578	5007.11
693.767	4980.49
693.956	4812.56
694.146	4779.79
694.335	4853.52
694.524	4818.7
694.713	4839.18
694.902	4835.08
695.092	4871.95
695.281	4734.73
695.47	4771.6
695.659	4769.55
695.848	4773.64
696.037	4701.97
696.226	4808.46
696.415	4724.49
696.604	4931.34
696.793	4824.84
696.982	4722.45
697.171	4630.29
697.36	4605.71
697.549	4632.33
697.738	4779.79
697.927	4663.05
698.116	4656.91
698.305	4751.12
698.494	4525.84
698.683	4503.31
698.872	4697.87
699.061	4636.43
699.25	4611.85
699.438	4611.85
699.627	4515.6
699.816	4777.74
700.005	4607.76
700.193	4650.77
700.382	4722.45
700.571	4710.16
700.76	4665.1
700.948	4710.16
701.137	4744.97
701.326	4714.25
701.514	4726.54
701.703	4636.43
701.892	4679.44
702.08	4779.79
702.269	4738.83
702.457	4656.91
702.646	4669.2
702.834	4704.01
703.023	4790.03
703.212	4761.36
703.4	4792.08
703.589	4714.25
703.777	4937.48
703.965	4802.32
704.154	4843.28
704.342	4769.55
704.531	4833.04
704.719	4728.59
704.907	4980.49
705.096	4822.8
705.284	4978.44
705.472	4835.08
705.661	4867.85
705.849	4968.2
706.037	4787.98
706.226	4980.49
706.414	4927.24
706.602	4816.65
706.79	4935.43
706.979	4890.38
707.167	4976.39
707.355	4779.79
707.543	4960.01
707.731	5086.98
707.919	4978.44
708.107	4953.87
708.296	4908.81
708.484	5005.06
708.672	4968.2
708.86	5158.66
709.048	4974.35
709.236	5123.85
709.424	5213.96
709.612	5177.09
709.8	5031.69
709.988	5203.72
710.176	5320.45
710.364	5330.69
710.551	5148.42
710.739	5226.25
710.927	5367.56
711.115	5381.89
711.303	5400.32
711.491	5216.01
711.679	5385.99
711.866	5277.44
712.054	5492.48
712.242	5394.18
712.43	5508.87
712.617	5385.99
712.805	5433.09
712.993	5566.21
713.181	5287.68
713.368	5633.79
713.556	5594.88
713.744	5437.19
713.931	5658.37
714.119	5574.4
714.306	5639.94
714.494	5480.19
714.682	5680.89
714.869	5611.26
715.057	5627.65
715.244	5672.7
715.432	5695.23
715.619	5674.75
715.807	5818.11
715.994	5807.87
716.182	5760.77
716.369	5867.26
716.556	5932.79
716.744	5826.3
716.931	5744.38
717.119	5818.11
717.306	5906.17
717.493	5857.02
717.681	5930.75
717.868	5938.94
718.055	6016.76
718.242	5803.77
718.43	6135.54
718.617	5979.9
718.804	6010.62
718.991	5844.73
719.179	6110.97
719.366	6018.81
719.553	6047.48
719.74	6098.68
719.927	6115.06
720.114	5979.9
720.301	6164.22
720.488	6098.68
720.676	6123.26
720.863	6211.32
721.05	6229.75
721.237	6285.05
721.424	6147.83
721.611	6260.47
721.798	6186.74
721.985	6266.61
722.172	6252.28
722.358	6233.85
722.545	6235.89
722.732	6401.78
722.919	6416.12
723.106	6352.63
723.293	6287.09
723.48	6362.87
723.667	6344.44
723.853	6256.37
724.04	6391.54
724.227	6428.4
724.414	6459.12
724.6	6354.68
724.787	6489.84
724.974	6465.27
725.161	6383.35
725.347	6352.63
725.534	6498.03
725.72	6727.41
725.907	6559.47
726.094	6577.9
726.28	6565.62
726.467	6639.34
726.653	6532.85
726.84	6686.45
727.027	6711.02
727.213	6727.41
727.4	6579.95
727.586	6698.74
727.773	6532.85
727.959	6647.54
728.145	6829.81
728.332	6508.27
728.518	6721.26
728.705	6764.27
728.891	6704.88
729.077	6768.37
729.264	6903.53
729.45	6651.63
729.636	6790.89
729.823	6729.45
730.009	6760.17
730.195	6919.92
730.382	6842.09
730.568	6856.43
730.754	6930.16
730.94	6852.33
731.126	6702.83
731.313	6985.45
731.499	6840.04
731.685	6815.47
731.871	6885.1
732.057	6909.68
732.243	7055.08
732.429	6838
732.615	6897.39
732.801	6876.91
732.987	6651.63
733.173	6995.69
733.359	6932.2
733.545	6917.87
733.731	6876.91
733.917	6850.28
734.103	6967.02
734.289	7030.51
734.475	7036.65
734.661	6967.02
734.847	6934.25
735.033	6993.64
735.219	6952.68
735.404	7003.88
735.59	6962.92
735.776	6973.16
735.962	6885.1
736.148	7012.07
736.333	6852.33
736.519	6829.81
736.705	7065.32
736.89	6891.24
737.076	7001.83
737.262	6764.27
737.447	6868.72
737.633	6915.82
737.819	6895.34
738.004	6987.5
738.19	7014.12
738.375	6891.24
738.561	6911.72
738.747	6639.34
738.932	6776.56
739.118	6954.73
739.303	6928.11
739.489	6860.52
739.674	6749.93
739.859	6819.57
740.045	6831.85
740.23	6635.25
740.416	6758.13
740.601	6811.37
740.786	6631.15
740.972	6563.57
741.157	6643.44
741.342	6545.14
741.528	6657.78
741.713	6694.64
741.898	6702.83
742.084	6602.48
742.269	6606.58
742.454	6631.15
742.639	6590.19
742.824	6266.61
743.01	6430.45
743.195	6565.62
743.38	6434.55
743.565	6311.67
743.75	6491.89
743.935	6287.09
744.12	6430.45
744.305	6356.72
744.49	6387.44
744.675	5938.94
744.86	6188.79
745.045	6250.23
745.23	6356.72
745.415	6153.98
745.6	6141.69
745.785	6002.43
745.97	6043.39
746.155	5891.84
746.34	5900.03
746.525	6027
746.71	6008.57
746.895	5940.99
747.079	5828.35
747.264	5674.75
747.449	5807.87
747.634	5689.09
747.819	5771.01
748.003	5535.49
748.188	5510.91
748.373	5553.92
748.557	5523.2
748.742	5510.91
748.927	5564.16
749.111	5381.89
749.296	5459.71
749.481	5345.03
749.665	5396.23
749.85	5433.09
750.034	5318.4
750.219	5199.62
750.404	5185.29
750.588	5160.71
750.773	5086.98
750.957	5271.3
751.141	5109.51
751.326	4904.71
751.51	4968.2
751.695	4994.83
751.879	4935.43
752.064	4998.92
752.248	5021.45
752.432	4904.71
752.617	4904.71
752.801	4790.03
752.985	4669.2
753.17	4640.53
753.354	4747.02
753.538	4554.51
753.722	4439.83
753.907	4628.24
754.091	4517.65
754.275	4474.64
754.459	4413.2
754.643	4441.87
754.828	4402.96
755.012	4314.9
755.196	4230.93
755.38	4302.61
755.564	4329.24
755.748	4237.08
755.932	4253.46
756.116	4239.12
756.3	4140.82
756.484	4052.76
756.668	4161.3
756.852	3936.03
757.036	4001.56
757.22	4026.14
757.404	3950.36
757.588	3933.98
757.772	3825.43
757.956	3888.92
758.14	3929.88
758.323	3712.8
758.507	3884.83
758.691	3759.9
758.875	3790.62
759.059	3776.28
759.242	3751.71
759.426	3458.85
759.61	3657.5
759.794	3620.64
759.977	3596.06
760.161	3735.32
760.345	3563.29
760.528	3608.35
760.712	3575.58
760.895	3573.53
761.079	3428.13
761.263	3426.08
761.446	3442.46
761.63	3495.71
761.813	3313.44
761.997	3297.06
762.18	3319.59
762.364	3333.92
762.547	3231.52
762.731	3186.47
762.914	3327.78
763.098	3215.14
763.281	3204.9
763.464	3112.74
763.648	3133.22
763.831	3116.84
764.015	3049.25
764.198	3153.7
764.381	3133.22
764.564	3286.82
764.748	3100.45
764.931	3014.44
765.114	2901.8
765.297	3059.49
765.481	3008.3
765.664	3028.78
765.847	2936.62
766.03	2938.66
766.213	2901.8
766.397	2973.48
766.58	2953
766.763	2862.89
766.946	2891.56
767.129	2793.26
767.312	2746.16
767.495	2664.24
767.678	2866.99
767.861	2834.22
768.044	2815.79
768.227	2850.6
768.41	2725.68
768.593	2797.35
768.776	2565.93
768.959	2619.18
769.142	2697
769.324	2664.24
769.507	2758.44
769.69	2717.48
769.873	2629.42
770.056	2625.33
770.239	2686.76
770.421	2705.2
770.604	2666.28
770.787	2578.22
770.97	2522.93
771.152	2430.77
771.335	2551.6
771.518	2522.93
771.7	2551.6
771.883	2535.21
772.066	2457.39
772.248	2432.82
772.431	2412.34
772.613	2500.4
772.796	2522.93
772.978	2379.57
773.161	2451.25
773.343	2297.65
773.526	2219.83
773.708	2232.12
773.891	2207.54
774.073	2322.23
774.256	2207.54
774.438	2223.92
774.621	2260.79
774.803	2209.59
774.985	2068.28
775.168	2150.2
775.35	2158.39
775.532	2090.81
775.715	2066.23
775.897	2082.61
776.079	2019.13
776.261	2064.18
776.444	1984.31
776.626	1982.26
776.808	1926.97
776.99	1896.25
777.173	2008.89
777.355	1937.21
777.537	1883.96
777.719	1879.86
777.901	1904.44
778.083	1744.7
778.265	1744.7
778.447	1838.91
778.629	1744.7
778.811	1765.18
778.993	1922.87
779.175	1836.86
779.357	1771.32
779.539	1703.74
779.721	1697.6
779.903	1711.93
780.085	1797.95
780.267	1597.24
780.449	1699.64
780.631	1646.4
780.812	1699.64
780.994	1625.92
781.176	1656.64
781.358	1574.72
781.54	1578.81
781.721	1595.2
781.903	1539.9
782.085	1519.42
782.267	1550.14
782.448	1421.12
782.63	1457.98
782.812	1537.85
782.993	1486.65
783.175	1482.56
783.357	1429.31
783.538	1519.42
783.72	1408.83
783.901	1337.15
784.083	1402.69
784.264	1369.92
784.446	1367.87
784.627	1281.86
784.809	1431.36
784.99	1322.82
785.172	1355.58
785.353	1298.24
785.535	1388.35
785.716	1222.47
785.897	1316.67
786.079	1251.14
786.26	1314.63
786.441	1220.42
786.623	1201.99
786.804	1142.6
786.985	1206.08
787.167	1193.8
787.348	1144.64
787.529	1234.75
787.71	1193.8
787.891	1191.75
788.073	1150.79
788.254	1095.49
788.435	1208.13
788.616	1140.55
788.797	1058.63
788.978	1070.92
789.159	1064.77
789.34	1054.53
789.522	1101.64
789.703	1060.68
789.884	1079.11
790.065	1029.96
790.246	1001.29
790.427	1064.77
790.607	1040.2
790.788	1038.15
790.969	991.05
791.15	993.09
791.331	970.57
791.512	1017.67
791.693	905.03
791.874	954.18
792.054	952.13
792.235	960.33
792.416	894.79
792.597	823.11
792.778	880.46
792.958	986.95
793.139	837.45
793.32	984.9
793.5	812.87
793.681	927.56
793.862	855.88
794.042	884.55
794.223	831.3
794.404	907.08
794.584	827.21
794.765	839.5
794.945	847.69
795.126	798.54
795.306	792.39
795.487	780.11
795.667	831.3
795.848	853.83
796.028	900.94
796.209	855.88
796.389	905.03
796.57	823.11
796.75	718.67
796.93	782.15
797.111	761.67
797.291	800.59
797.471	831.3
797.652	757.58
797.832	784.2
798.012	730.95
798.192	681.8
798.373	720.71
798.553	692.04
798.733	726.86
798.913	735.05
799.093	724.81
799.274	720.71
799.454	747.34
799.634	595.79
799.814	663.37
799.994	622.41
800.174	776.01
800.354	692.04
800.534	692.04
800.714	655.18
800.894	618.32
801.074	657.23
801.254	630.6
801.434	724.81
801.614	610.12
801.794	597.84
801.974	1388.35
802.154	614.22
802.334	665.42
802.514	655.18
802.693	544.59
802.873	618.32
803.053	624.46
803.233	599.88
803.413	739.15
803.592	667.47
803.772	563.02
803.952	593.74
804.131	575.31
804.311	677.71
804.491	573.26
804.67	591.69
804.85	483.15
805.03	591.69
805.209	610.12
805.389	540.49
805.568	577.36
805.748	546.64
805.928	577.36
806.107	589.64
806.287	606.03
806.466	575.31
806.646	593.74
806.825	511.82
807.004	622.41
807.184	550.73
807.363	538.45
807.543	479.05
807.722	462.67
807.901	522.06
808.081	560.97
808.26	483.15
808.439	558.92
808.619	560.97
808.798	520.01
808.977	477.01
809.156	405.33
809.336	515.92
809.515	515.92
809.694	438.09
809.873	520.01
810.052	397.14
810.231	591.69
810.411	462.67
810.59	495.44
810.769	487.25
810.948	444.24
811.127	393.04
811.306	366.42
811.485	458.57
811.664	470.86
811.843	479.05
812.022	448.33
812.201	440.14
812.38	528.21
812.559	372.56
812.737	487.25
812.916	458.57
813.095	413.52
813.274	548.68
813.453	454.48
813.632	393.04
813.811	507.73
813.989	339.79
814.168	454.48
814.347	460.62
814.526	421.71
814.704	393.04
814.883	456.53
815.062	386.9
815.24	372.56
815.419	397.14
815.598	466.77
815.776	341.84
815.955	434
816.133	397.14
816.312	378.7
816.49	417.61
816.669	372.56
816.847	356.18
817.026	388.94
817.204	354.13
817.383	388.94
817.561	354.13
817.74	460.62
817.918	374.61
818.097	343.89
818.275	335.7
818.453	364.37
818.632	347.98
818.81	399.18
818.988	249.68
819.167	264.02
819.345	538.45
819.523	397.14
819.701	317.26
819.879	347.98
820.058	419.66
820.236	364.37
820.414	276.31
820.592	288.59
820.77	255.83
820.948	302.93
821.127	257.87
821.305	321.36
821.483	393.04
821.661	401.23
821.839	292.69
822.017	212.82
822.195	274.26
822.373	354.13
822.551	315.22
822.729	360.27
822.907	218.96
823.085	343.89
823.262	278.35
823.44	284.5
823.618	298.83
823.796	282.45
823.974	247.63
824.152	257.87
824.329	354.13
824.507	296.78
824.685	257.87
824.863	249.68
825.04	296.78
825.218	302.93
825.396	298.83
825.574	350.03
825.751	302.93
825.929	249.68
826.107	118.61
826.284	264.02
826.462	294.74
826.639	233.3
826.817	261.97
826.994	280.4
827.172	196.43
827.349	290.64
827.527	315.22
827.704	270.16
827.882	221.01
828.059	249.68
828.237	190.29
828.414	272.21
828.591	202.58
828.769	302.93
828.946	180.05
829.124	261.97
829.301	223.06
829.478	237.39
829.655	229.2
829.833	229.2
830.01	159.57
830.187	155.47
830.364	313.17
830.542	155.47
830.719	214.87
830.896	229.2
831.073	180.05
831.25	227.15
831.427	221.01
831.604	274.26
831.782	175.95
831.959	214.87
832.136	214.87
832.313	157.52
832.49	210.77
832.667	192.34
832.844	163.67
833.021	282.45
833.198	261.97
833.374	198.48
833.551	190.29
833.728	155.47
833.905	200.53
834.082	266.07
834.259	157.52
834.436	239.44
834.612	112.47
834.789	241.49
834.966	135
835.143	225.11
835.319	130.9
835.496	255.83
835.673	137.04
835.85	149.33
836.026	218.96
836.203	81.75
836.38	163.67
836.556	169.81
836.733	175.95
836.909	229.2
837.086	46.93
837.262	112.47
837.439	204.63
837.616	135
837.792	165.71
837.968	87.89
838.145	147.28
838.321	200.53
838.498	239.44
838.674	110.42
838.851	157.52
839.027	141.14
839.203	112.47
839.38	175.95
839.556	118.61
839.732	159.57
839.909	106.32
840.085	227.15
840.261	192.34
840.437	124.76
840.614	151.38
840.79	173.91
840.966	137.04
841.142	151.38
841.318	46.93
841.494	137.04
841.671	206.67
841.847	89.94
842.023	124.76
842.199	210.77
842.375	200.53
842.551	28.5
842.727	204.63
842.903	126.8
843.079	171.86
843.255	153.43
843.431	102.23
843.607	190.29
843.783	34.64
843.959	135
844.134	65.36
844.31	108.37
844.486	3.93
844.662	85.84
844.838	89.94
845.013	151.38
845.189	167.76
845.365	169.81
845.541	130.9
845.716	135
845.892	163.67
846.068	85.84
846.244	69.46
846.419	143.19
846.595	40.79
846.77	61.27
846.946	100.18
847.122	132.95
847.297	114.52
847.473	204.63
847.648	-12.46
847.824	98.13
847.999	69.46
848.175	1.88
848.35	89.94
848.526	163.67
848.701	132.95
848.876	143.19
849.052	153.43
849.227	59.22
849.403	94.04
849.578	65.36
849.753	98.13
849.929	180.05
850.104	69.46
850.279	87.89
850.454	61.27
850.63	112.47
850.805	126.8
850.98	122.71
851.155	42.84
851.33	159.57
851.505	75.6
851.681	202.58
851.856	85.84
852.031	118.61
852.206	65.36
852.381	89.94
852.556	94.04
852.731	143.19
852.906	135
853.081	87.89
853.256	116.56
853.431	63.32
853.606	-12.46
853.781	69.46
853.956	36.69
854.131	126.8
854.305	44.88
854.48	94.04
854.655	12.12
854.83	44.88
855.005	57.17
855.18	157.52
855.354	108.37
855.529	73.56
855.704	3.93
855.879	85.84
856.053	36.69
856.228	124.76
856.403	28.5
856.577	100.18
856.752	3.93
856.926	135
857.101	77.65
857.276	57.17
857.45	124.76
857.625	69.46
857.799	106.32
857.974	55.12
858.148	-26.79
858.323	32.6
858.497	71.51
858.672	28.5
858.846	32.6
859.02	102.23
859.195	55.12
859.369	48.98
859.543	124.76
859.718	40.79
859.892	65.36
860.066	-10.41
860.241	38.74
860.415	53.08
860.589	44.88
860.763	28.5
860.938	-32.94
861.112	77.65
861.286	32.6
861.46	71.51
861.634	83.8
861.808	110.42
861.982	28.5
862.157	-45.23
862.331	44.88
862.505	145.24
862.679	-20.65
862.853	-24.75
863.027	48.98
863.201	149.33
863.375	36.69
863.549	81.75
863.722	98.13
863.896	139.09
864.07	34.64
864.244	-14.51
864.418	75.6
864.592	98.13
864.766	85.84
864.939	46.93
865.113	-32.94
865.287	116.56
865.461	-4.27
865.634	18.26
865.808	44.88
865.982	57.17
866.156	20.31
866.329	-88.23
866.503	-26.79
866.676	81.75
866.85	12.12
867.024	1.88
867.197	16.21
867.371	89.94
867.544	34.64
867.718	-28.84
867.891	116.56
868.065	-6.31
868.238	85.84
868.412	85.84
868.585	30.55
868.759	38.74
868.932	-14.51
869.105	-0.17
869.279	20.31
869.452	30.55
869.625	114.52
869.799	44.88
869.972	116.56
870.145	-12.46
870.319	30.55
870.492	44.88
870.665	20.31
870.838	20.31
871.011	-39.08
871.185	26.45
871.358	53.08
871.531	69.46
871.704	77.65
871.877	73.56
872.05	69.46
872.223	-37.03
872.396	5.97
872.569	-28.84
872.742	10.07
872.915	-37.03
873.088	53.08
873.261	-77.99
873.434	-12.46
873.607	79.7
873.78	89.94
873.953	8.02
874.126	28.5
874.299	-4.27
874.471	98.13
874.644	44.88
874.817	91.99
874.99	57.17
875.163	24.4
875.335	59.22
875.508	8.02
875.681	12.12
875.853	-6.31
876.026	-37.03
876.199	77.65
876.371	40.79
876.544	-47.27
876.717	51.03
876.889	-104.62
877.062	77.65
877.234	-6.31
877.407	-0.17
877.579	-32.94
877.752	-4.27
877.924	32.6
878.097	-55.47
878.269	46.93
878.442	34.64
878.614	-10.41
878.786	32.6
878.959	38.74
879.131	55.12
879.303	-22.7
879.476	38.74
879.648	24.4
879.82	16.21
879.993	-0.17
880.165	16.21
880.337	-32.94
880.509	20.31
880.681	-125.1
880.854	-47.27
881.026	12.12
881.198	65.36
881.37	-12.46
881.542	-16.55
881.714	24.4
881.886	12.12
882.058	-34.99
882.23	-4.27
882.402	12.12
882.574	46.93
882.746	44.88
882.918	44.88
883.09	89.94
883.262	-20.65
883.434	-20.65
883.606	-51.37
883.778	20.31
883.95	32.6
884.122	-8.36
884.293	73.56
884.465	122.71
884.637	48.98
884.809	-69.8
884.98	24.4
885.152	32.6
885.324	59.22
885.496	3.93
885.667	-16.55
885.839	34.64
886.011	102.23
886.182	-0.17
886.354	-22.7
886.525	3.93
886.697	112.47
886.869	-8.36
887.04	10.07
887.212	34.64
887.383	61.27
887.555	59.22
887.726	59.22
887.897	3.93
888.069	1.88
888.24	51.03
888.412	-2.22
888.583	55.12
888.754	-6.31
888.926	40.79
889.097	-45.23
889.268	-86.19
889.44	-0.17
889.611	-69.8
889.782	-88.23
889.953	-30.89
890.125	24.4
890.296	-18.6
890.467	51.03
890.638	-8.36
890.809	51.03
890.98	10.07
891.151	34.64
891.323	3.93
891.494	8.02
891.665	8.02
891.836	12.12
892.007	3.93
892.178	81.75
892.349	20.31
892.52	1.88
892.691	26.45
892.862	-8.36
893.032	-4.27
893.203	8.02
893.374	-2.22
893.545	34.64
893.716	-22.7
893.887	-16.55
894.057	18.26
894.228	67.41
894.399	24.4
894.57	124.76
894.74	40.79
894.911	44.88
895.082	24.4
895.253	38.74
895.423	57.17
895.594	26.45
895.764	-12.46
895.935	-14.51
896.106	16.21
896.276	18.26
896.447	16.21
896.617	20.31
896.788	-71.85
896.958	-22.7
897.129	-6.31
897.299	-24.75
897.47	10.07
897.64	-16.55
897.81	-0.17
897.981	38.74
898.151	20.31
898.322	36.69
898.492	-12.46
898.662	48.98
898.832	-22.7
899.003	5.97
899.173	-6.31
899.343	-51.37
899.513	28.5
