Data from USB4F104151__31__11-30-09-165.txt Node

Date: Fri Mar 14 11:30:09 EDT 2025
User: louis
Spectrometer: USB4F10415
Trigger mode: 4
Integration Time (sec): 5.000000E-2
Scans to average: 1
Electric dark correction enabled: true
Nonlinearity correction enabled: false
Boxcar width: 0
XAxis mode: Wavelengths
Number of Pixels in Spectrum: 3648
>>>>>Begin Spectral Data<<<<<
178.204	-144.38
178.424	-144.38
178.644	-144.38
178.864	-160.77
179.084	-123.9
179.304	76.8
179.524	-82.94
179.744	-37.89
179.964	19.46
180.184	39.94
180.404	3.07
180.624	7.17
180.844	31.74
181.064	-62.46
181.283	11.26
181.503	-64.51
181.723	58.37
181.943	11.26
182.163	89.09
182.383	82.94
182.602	109.57
182.822	27.65
183.042	25.6
183.262	-13.31
183.482	31.74
183.701	27.65
183.921	-21.5
184.141	-37.89
184.361	80.89
184.58	31.74
184.8	19.46
185.02	44.03
185.239	41.98
185.459	64.51
185.679	74.75
185.898	-1.02
186.118	72.7
186.338	35.84
186.557	-21.5
186.777	-58.37
186.997	-3.07
187.216	-1.02
187.436	195.58
187.655	52.22
187.875	58.37
188.095	-23.55
188.314	70.65
188.534	91.13
188.753	-48.13
188.973	93.18
189.192	156.67
189.412	52.22
189.631	72.7
189.851	72.7
190.07	19.46
190.29	-17.41
190.509	76.8
190.729	93.18
190.948	64.51
191.168	183.29
191.387	-41.98
191.607	-23.55
191.826	60.42
192.045	23.55
192.265	101.37
192.484	27.65
192.704	68.61
192.923	5.12
193.142	99.33
193.362	84.99
193.581	107.52
193.8	31.74
194.02	121.85
194.239	84.99
194.458	-21.5
194.678	17.41
194.897	31.74
195.116	56.32
195.335	74.75
195.555	142.33
195.774	101.37
195.993	35.84
196.212	-21.5
196.432	60.42
196.651	82.94
196.87	-17.41
197.089	140.29
197.308	111.61
197.528	78.85
197.747	35.84
197.966	82.94
198.185	130.05
198.404	39.94
198.623	68.61
198.842	84.99
199.062	37.89
199.281	95.23
199.5	87.04
199.719	46.08
199.938	66.56
200.157	33.79
200.376	128
200.595	117.76
200.814	50.18
201.033	25.6
201.252	52.22
201.471	15.36
201.69	76.8
201.909	72.7
202.128	39.94
202.347	23.55
202.566	-1.02
202.785	91.13
203.004	-5.12
203.223	103.42
203.442	-37.89
203.661	-31.74
203.879	117.76
204.098	101.37
204.317	-62.46
204.536	76.8
204.755	58.37
204.974	21.5
205.193	121.85
205.411	154.62
205.63	52.22
205.849	130.05
206.068	60.42
206.287	39.94
206.505	82.94
206.724	35.84
206.943	50.18
207.162	-11.26
207.381	-21.5
207.599	128
207.818	27.65
208.037	101.37
208.255	23.55
208.474	76.8
208.693	113.66
208.911	27.65
209.13	9.22
209.349	39.94
209.567	134.14
209.786	64.51
210.005	72.7
210.223	62.46
210.442	-17.41
210.661	27.65
210.879	82.94
211.098	44.03
211.316	101.37
211.535	23.55
211.753	37.89
211.972	101.37
212.191	58.37
212.409	64.51
212.628	87.04
212.846	-27.65
213.065	-13.31
213.283	68.61
213.502	25.6
213.72	48.13
213.938	23.55
214.157	72.7
214.375	82.94
214.594	130.05
214.812	119.81
215.031	13.31
215.249	21.5
215.467	44.03
215.686	21.5
215.904	105.47
216.122	46.08
216.341	99.33
216.559	-3.07
216.778	76.8
216.996	80.89
217.214	-66.56
217.432	-13.31
217.651	41.98
217.869	27.65
218.087	64.51
218.306	-19.46
218.524	31.74
218.742	60.42
218.96	60.42
219.179	-29.7
219.397	19.46
219.615	44.03
219.833	56.32
220.051	7.17
220.27	80.89
220.488	68.61
220.706	66.56
220.924	56.32
221.142	84.99
221.36	97.28
221.578	95.23
221.796	99.33
222.015	56.32
222.233	31.74
222.451	-19.46
222.669	41.98
222.887	113.66
223.105	41.98
223.323	52.22
223.541	60.42
223.759	74.75
223.977	66.56
224.195	41.98
224.413	93.18
224.631	39.94
224.849	39.94
225.067	158.72
225.285	66.56
225.503	33.79
225.721	52.22
225.939	33.79
226.157	101.37
226.375	56.32
226.592	-5.12
226.81	-7.17
227.028	93.18
227.246	154.62
227.464	3.07
227.682	48.13
227.9	60.42
228.117	87.04
228.335	80.89
228.553	84.99
228.771	31.74
228.989	132.09
229.206	76.8
229.424	35.84
229.642	27.65
229.86	15.36
230.077	89.09
230.295	41.98
230.513	52.22
230.731	74.75
230.948	84.99
231.166	82.94
231.384	-1.02
231.601	25.6
231.819	68.61
232.037	-50.18
232.254	3.07
232.472	35.84
232.689	7.17
232.907	13.31
233.125	68.61
233.342	48.13
233.56	-56.32
233.777	7.17
233.995	48.13
234.213	93.18
234.43	70.65
234.648	13.31
234.865	-13.31
235.083	72.7
235.3	-5.12
235.518	35.84
235.735	62.46
235.953	9.22
236.17	27.65
236.388	60.42
236.605	68.61
236.822	84.99
237.04	7.17
237.257	35.84
237.475	52.22
237.692	95.23
237.909	95.23
238.127	84.99
238.344	76.8
238.562	15.36
238.779	23.55
238.996	37.89
239.214	41.98
239.431	46.08
239.648	60.42
239.865	74.75
240.083	109.57
240.3	68.61
240.517	66.56
240.735	68.61
240.952	105.47
241.169	125.95
241.386	-17.41
241.603	82.94
241.821	41.98
242.038	39.94
242.255	60.42
242.472	-9.22
242.689	60.42
242.907	91.13
243.124	91.13
243.341	25.6
243.558	5.12
243.775	52.22
243.992	29.7
244.209	101.37
244.426	68.61
244.643	107.52
244.86	7.17
245.078	50.18
245.295	119.81
245.512	84.99
245.729	27.65
245.946	1.02
246.163	64.51
246.38	11.26
246.597	66.56
246.814	41.98
247.031	-9.22
247.248	48.13
247.464	3.07
247.681	60.42
247.898	29.7
248.115	23.55
248.332	84.99
248.549	89.09
248.766	109.57
248.983	111.61
249.2	76.8
249.417	3.07
249.633	17.41
249.85	91.13
250.067	25.6
250.284	107.52
250.501	99.33
250.717	-37.89
250.934	-13.31
251.151	117.76
251.368	44.03
251.585	93.18
251.801	58.37
252.018	-25.6
252.235	15.36
252.451	13.31
252.668	52.22
252.885	39.94
253.102	70.65
253.318	101.37
253.535	33.79
253.752	76.8
253.968	23.55
254.185	11.26
254.401	48.13
254.618	54.27
254.835	-13.31
255.051	87.04
255.268	84.99
255.484	60.42
255.701	117.76
255.917	37.89
256.134	52.22
256.351	66.56
256.567	-46.08
256.784	39.94
257	-3.07
257.217	52.22
257.433	82.94
257.65	46.08
257.866	25.6
258.082	9.22
258.299	91.13
258.515	-9.22
258.732	52.22
258.948	52.22
259.165	105.47
259.381	-1.02
259.597	29.7
259.814	33.79
260.03	68.61
260.246	39.94
260.463	1.02
260.679	113.66
260.895	11.26
261.112	76.8
261.328	56.32
261.544	48.13
261.761	101.37
261.977	11.26
262.193	11.26
262.409	121.85
262.626	105.47
262.842	76.8
263.058	17.41
263.274	33.79
263.49	41.98
263.707	64.51
263.923	76.8
264.139	-3.07
264.355	76.8
264.571	132.09
264.787	39.94
265.004	138.24
265.22	-62.46
265.436	56.32
265.652	27.65
265.868	93.18
266.084	-5.12
266.3	74.75
266.516	11.26
266.732	95.23
266.948	105.47
267.164	62.46
267.38	68.61
267.596	19.46
267.812	68.61
268.028	117.76
268.244	44.03
268.46	19.46
268.676	54.27
268.892	91.13
269.108	39.94
269.324	113.66
269.54	-13.31
269.756	52.22
269.972	-37.89
270.188	128
270.403	27.65
270.619	44.03
270.835	23.55
271.051	48.13
271.267	-25.6
271.483	19.46
271.698	9.22
271.914	82.94
272.13	101.37
272.346	25.6
272.562	142.33
272.777	50.18
272.993	68.61
273.209	-1.02
273.425	117.76
273.64	56.32
273.856	52.22
274.072	-37.89
274.287	15.36
274.503	97.28
274.719	11.26
274.934	3.07
275.15	35.84
275.366	93.18
275.581	74.75
275.797	17.41
276.012	27.65
276.228	41.98
276.444	13.31
276.659	117.76
276.875	35.84
277.09	48.13
277.306	64.51
277.521	60.42
277.737	3.07
277.952	117.76
278.168	-7.17
278.383	56.32
278.599	-11.26
278.814	52.22
279.03	72.7
279.245	68.61
279.461	50.18
279.676	66.56
279.892	25.6
280.107	-37.89
280.322	-5.12
280.538	33.79
280.753	54.27
280.969	64.51
281.184	50.18
281.399	132.09
281.615	101.37
281.83	70.65
282.045	-21.5
282.26	70.65
282.476	31.74
282.691	3.07
282.906	89.09
283.122	15.36
283.337	41.98
283.552	76.8
283.767	97.28
283.983	25.6
284.198	27.65
284.413	48.13
284.628	-84.99
284.843	-17.41
285.058	56.32
285.274	39.94
285.489	50.18
285.704	134.14
285.919	-5.12
286.134	58.37
286.349	-13.31
286.564	11.26
286.779	50.18
286.995	25.6
287.21	13.31
287.425	21.5
287.64	15.36
287.855	74.75
288.07	-66.56
288.285	84.99
288.5	123.9
288.715	58.37
288.93	19.46
289.145	-31.74
289.36	134.14
289.575	-7.17
289.79	107.52
290.004	23.55
290.219	142.33
290.434	-27.65
290.649	37.89
290.864	33.79
291.079	-33.79
291.294	54.27
291.509	74.75
291.724	33.79
291.938	19.46
292.153	5.12
292.368	15.36
292.583	52.22
292.798	46.08
293.012	119.81
293.227	72.7
293.442	35.84
293.657	64.51
293.871	60.42
294.086	23.55
294.301	66.56
294.516	121.85
294.73	41.98
294.945	76.8
295.16	33.79
295.374	97.28
295.589	68.61
295.804	-23.55
296.018	66.56
296.233	115.71
296.447	-21.5
296.662	64.51
296.877	66.56
297.091	27.65
297.306	66.56
297.52	35.84
297.735	44.03
297.949	97.28
298.164	33.79
298.378	41.98
298.593	52.22
298.807	35.84
299.022	84.99
299.236	50.18
299.451	31.74
299.665	39.94
299.88	41.98
300.094	-9.22
300.309	101.37
300.523	31.74
300.737	35.84
300.952	93.18
301.166	41.98
301.381	-1.02
301.595	35.84
301.809	54.27
302.024	39.94
302.238	17.41
302.452	52.22
302.667	48.13
302.881	52.22
303.095	56.32
303.309	70.65
303.524	68.61
303.738	48.13
303.952	13.31
304.166	134.14
304.381	-66.56
304.595	119.81
304.809	15.36
305.023	27.65
305.237	-7.17
305.452	3.07
305.666	117.76
305.88	93.18
306.094	103.42
306.308	95.23
306.522	52.22
306.736	11.26
306.95	62.46
307.164	15.36
307.379	78.85
307.593	68.61
307.807	97.28
308.021	93.18
308.235	64.51
308.449	58.37
308.663	25.6
308.877	123.9
309.091	19.46
309.305	87.04
309.519	-7.17
309.733	13.31
309.947	-15.36
310.161	70.65
310.374	117.76
310.588	3.07
310.802	-17.41
311.016	33.79
311.23	56.32
311.444	56.32
311.658	-44.03
311.872	17.41
312.085	-17.41
312.299	111.61
312.513	27.65
312.727	113.66
312.941	33.79
313.154	37.89
313.368	95.23
313.582	46.08
313.796	64.51
314.009	107.52
314.223	115.71
314.437	23.55
314.651	113.66
314.864	50.18
315.078	93.18
315.292	37.89
315.505	15.36
315.719	-5.12
315.933	113.66
316.146	41.98
316.36	74.75
316.573	60.42
316.787	39.94
317.001	91.13
317.214	-11.26
317.428	56.32
317.641	17.41
317.855	72.7
318.068	74.75
318.282	93.18
318.495	148.48
318.709	58.37
318.922	68.61
319.136	103.42
319.349	58.37
319.563	3.07
319.776	17.41
319.99	-1.02
320.203	68.61
320.417	144.38
320.63	64.51
320.843	132.09
321.057	78.85
321.27	27.65
321.483	44.03
321.697	58.37
321.91	72.7
322.124	84.99
322.337	93.18
322.55	-21.5
322.763	33.79
322.977	-9.22
323.19	125.95
323.403	76.8
323.617	95.23
323.83	48.13
324.043	93.18
324.256	58.37
324.469	13.31
324.683	113.66
324.896	19.46
325.109	15.36
325.322	27.65
325.535	93.18
325.748	62.46
325.962	84.99
326.175	74.75
326.388	23.55
326.601	78.85
326.814	5.12
327.027	44.03
327.24	119.81
327.453	7.17
327.666	95.23
327.879	78.85
328.092	56.32
328.305	54.27
328.518	52.22
328.731	41.98
328.944	58.37
329.157	58.37
329.37	87.04
329.583	89.09
329.796	66.56
330.009	-56.32
330.222	11.26
330.435	52.22
330.648	97.28
330.861	33.79
331.073	66.56
331.286	35.84
331.499	-5.12
331.712	-9.22
331.925	171.01
332.138	17.41
332.35	76.8
332.563	-29.7
332.776	123.9
332.989	21.5
333.202	41.98
333.414	58.37
333.627	-3.07
333.84	48.13
334.053	66.56
334.265	60.42
334.478	109.57
334.691	3.07
334.903	101.37
335.116	56.32
335.329	68.61
335.541	66.56
335.754	109.57
335.966	31.74
336.179	3.07
336.392	64.51
336.604	103.42
336.817	68.61
337.029	74.75
337.242	56.32
337.454	35.84
337.667	23.55
337.88	48.13
338.092	68.61
338.305	105.47
338.517	11.26
338.729	123.9
338.942	144.38
339.154	-13.31
339.367	46.08
339.579	80.89
339.792	66.56
340.004	72.7
340.217	66.56
340.429	99.33
340.641	-29.7
340.854	7.17
341.066	56.32
341.278	39.94
341.491	134.14
341.703	87.04
341.915	15.36
342.128	23.55
342.34	-11.26
342.552	-31.74
342.764	15.36
342.977	58.37
343.189	93.18
343.401	78.85
343.613	-23.55
343.826	5.12
344.038	13.31
344.25	50.18
344.462	50.18
344.674	68.61
344.886	33.79
345.099	84.99
345.311	84.99
345.523	123.9
345.735	-3.07
345.947	-5.12
346.159	123.9
346.371	39.94
346.583	56.32
346.795	84.99
347.007	39.94
347.219	91.13
347.431	35.84
347.643	66.56
347.855	35.84
348.067	84.99
348.279	91.13
348.491	17.41
348.703	107.52
348.915	72.7
349.127	58.37
349.339	68.61
349.551	78.85
349.763	91.13
349.975	21.5
350.187	82.94
350.399	154.62
350.61	52.22
350.822	31.74
351.034	35.84
351.246	50.18
351.458	52.22
351.669	15.36
351.881	132.09
352.093	119.81
352.305	60.42
352.517	97.28
352.728	74.75
352.94	23.55
353.152	-9.22
353.363	41.98
353.575	76.8
353.787	84.99
353.999	60.42
354.21	125.95
354.422	52.22
354.633	84.99
354.845	64.51
355.057	7.17
355.268	52.22
355.48	29.7
355.692	46.08
355.903	25.6
356.115	1.02
356.326	48.13
356.538	66.56
356.749	50.18
356.961	117.76
357.172	50.18
357.384	-29.7
357.595	123.9
357.807	105.47
358.018	105.47
358.23	136.19
358.441	140.29
358.653	82.94
358.864	82.94
359.075	68.61
359.287	107.52
359.498	62.46
359.709	76.8
359.921	60.42
360.132	82.94
360.344	48.13
360.555	74.75
360.766	105.47
360.977	-9.22
361.189	35.84
361.4	97.28
361.611	158.72
361.823	82.94
362.034	68.61
362.245	50.18
362.456	52.22
362.667	134.14
362.879	21.5
363.09	3.07
363.301	93.18
363.512	50.18
363.723	15.36
363.935	48.13
364.146	74.75
364.357	37.89
364.568	52.22
364.779	39.94
364.99	142.33
365.201	35.84
365.412	50.18
365.623	13.31
365.834	-13.31
366.045	134.14
366.256	113.66
366.467	72.7
366.678	62.46
366.889	35.84
367.1	56.32
367.311	101.37
367.522	54.27
367.733	140.29
367.944	35.84
368.155	91.13
368.366	78.85
368.577	52.22
368.788	128
368.999	1.02
369.209	105.47
369.42	134.14
369.631	105.47
369.842	56.32
370.053	93.18
370.264	58.37
370.474	66.56
370.685	125.95
370.896	33.79
371.107	148.48
371.317	58.37
371.528	-17.41
371.739	93.18
371.95	7.17
372.16	107.52
372.371	17.41
372.582	19.46
372.792	50.18
373.003	150.53
373.214	138.24
373.424	80.89
373.635	44.03
373.846	125.95
374.056	11.26
374.267	142.33
374.477	19.46
374.688	76.8
374.898	84.99
375.109	113.66
375.319	74.75
375.53	142.33
375.74	142.33
375.951	1.02
376.161	68.61
376.372	60.42
376.582	15.36
376.793	146.43
377.003	-15.36
377.214	48.13
377.424	136.19
377.635	-13.31
377.845	105.47
378.055	84.99
378.266	-13.31
378.476	33.79
378.686	101.37
378.897	54.27
379.107	95.23
379.317	113.66
379.528	44.03
379.738	138.24
379.948	52.22
380.158	115.71
380.369	72.7
380.579	144.38
380.789	44.03
380.999	39.94
381.21	68.61
381.42	87.04
381.63	3.07
381.84	97.28
382.05	60.42
382.261	60.42
382.471	101.37
382.681	117.76
382.891	130.05
383.101	99.33
383.311	109.57
383.521	-50.18
383.731	91.13
383.941	123.9
384.151	68.61
384.361	99.33
384.571	107.52
384.781	113.66
384.991	158.72
385.201	132.09
385.411	125.95
385.621	11.26
385.831	52.22
386.041	64.51
386.251	136.19
386.461	105.47
386.671	134.14
386.881	39.94
387.091	121.85
387.301	66.56
387.511	138.24
387.72	119.81
387.93	109.57
388.14	76.8
388.35	140.29
388.56	125.95
388.769	140.29
388.979	31.74
389.189	46.08
389.399	123.9
389.609	166.91
389.818	136.19
390.028	46.08
390.238	60.42
390.447	39.94
390.657	125.95
390.867	97.28
391.076	105.47
391.286	93.18
391.496	105.47
391.705	-5.12
391.915	117.76
392.125	117.76
392.334	181.25
392.544	125.95
392.753	117.76
392.963	109.57
393.172	72.7
393.382	87.04
393.591	158.72
393.801	128
394.01	187.39
394.22	68.61
394.429	166.91
394.639	99.33
394.848	138.24
395.058	93.18
395.267	117.76
395.477	144.38
395.686	132.09
395.895	224.25
396.105	99.33
396.314	101.37
396.524	66.56
396.733	99.33
396.942	99.33
397.152	187.39
397.361	123.9
397.57	74.75
397.78	68.61
397.989	132.09
398.198	138.24
398.407	109.57
398.617	105.47
398.826	158.72
399.035	89.09
399.244	166.91
399.453	162.81
399.663	76.8
399.872	185.34
400.081	52.22
400.29	80.89
400.499	68.61
400.708	50.18
400.917	89.09
401.127	103.42
401.336	130.05
401.545	123.9
401.754	72.7
401.963	97.28
402.172	123.9
402.381	93.18
402.59	207.87
402.799	173.05
403.008	162.81
403.217	199.68
403.426	136.19
403.635	113.66
403.844	97.28
404.053	164.86
404.262	162.81
404.471	156.67
404.68	123.9
404.888	199.68
405.097	132.09
405.306	60.42
405.515	265.21
405.724	166.91
405.933	175.1
406.142	191.49
406.35	314.36
406.559	246.78
406.768	189.44
406.977	240.64
407.185	205.82
407.394	265.21
407.603	197.63
407.812	271.36
408.02	248.83
408.229	273.4
408.438	310.27
408.646	140.29
408.855	265.21
409.064	357.37
409.272	273.4
409.481	334.84
409.69	285.69
409.898	332.79
410.107	261.12
410.315	445.43
410.524	316.41
410.733	320.51
410.941	363.51
411.15	375.8
411.358	420.86
411.567	406.52
411.775	424.95
411.984	541.69
412.192	482.3
412.401	478.2
412.609	545.78
412.818	564.22
413.026	556.02
413.234	459.77
413.443	627.7
413.651	510.97
413.86	650.23
414.068	732.15
414.276	687.09
414.485	558.07
414.693	695.29
414.901	777.2
415.11	748.53
415.318	789.49
415.526	832.5
415.734	861.17
415.943	795.64
416.151	922.61
416.359	883.7
416.567	949.23
416.776	1014.77
416.984	1119.21
417.192	1031.15
417.4	1100.78
417.608	1065.97
417.817	1156.08
418.025	1297.39
418.233	1250.28
418.441	1201.13
418.649	1211.37
418.857	1350.64
419.065	1502.19
419.273	1367.02
419.481	1551.34
419.689	1561.58
419.897	1592.3
420.105	1541.1
420.313	1764.33
420.521	1762.28
420.729	1719.27
420.937	1756.13
421.145	1965.03
421.353	2010.08
421.561	2178.01
421.769	2108.38
421.977	2321.37
422.185	2165.73
422.393	2391
422.601	2497.5
422.809	2501.59
423.017	2493.4
423.224	2651.1
423.432	2622.42
423.64	2753.49
423.848	3009.49
424.056	2896.85
424.263	3083.22
424.471	2989.01
424.679	3345.36
424.887	3265.49
425.094	3435.47
425.302	3371.98
425.51	3763.14
425.718	3691.46
425.925	3875.78
426.133	3998.66
426.341	3949.51
426.548	4352.96
426.756	4352.96
426.964	4271.04
427.171	4551.61
427.379	4735.93
427.586	5002.16
427.794	5000.12
428.001	4965.3
428.209	5397.42
428.417	5206.96
428.624	5602.22
428.832	5643.18
429.039	5602.22
429.247	5540.78
429.454	6308.77
429.662	6540.19
429.869	6241.18
430.076	6507.42
430.284	6267.81
430.491	6757.27
430.699	7015.32
430.906	7091.09
431.114	7039.89
431.321	7523.21
431.528	7625.61
431.736	7986.05
431.943	8440.7
432.15	8149.89
432.358	8291.2
432.565	8842.11
432.772	8835.96
432.979	9290.61
433.187	9208.69
433.394	9489.26
433.601	9995.11
433.808	10003.3
434.016	9890.67
434.223	10349.41
434.43	11012.95
434.637	10832.73
434.844	11639.63
435.052	11651.92
435.259	11340.63
435.466	11608.91
435.673	11539.28
435.88	12528.45
436.087	12895.04
436.294	12983.1
436.501	12802.88
436.708	12870.46
436.915	13376.31
437.122	14023.47
437.329	13941.55
437.537	14512.93
437.743	14525.22
437.95	14271.27
438.157	15055.64
438.364	15952.65
438.571	15803.15
438.778	15794.96
438.985	17490.68
439.192	16644.87
439.399	17244.92
439.606	16708.35
439.813	17906.41
440.02	18846.43
440.227	18627.3
440.433	18123.5
440.64	19014.37
440.847	18795.23
441.054	19380.95
441.261	20431.56
441.467	20472.52
441.674	20759.24
441.881	21334.71
442.088	21439.16
442.294	21084.86
442.501	21920.43
442.708	22364.84
442.914	23358.11
443.121	24337.04
443.328	23354.01
443.534	24765.06
443.741	24130.19
443.948	24066.7
444.154	26016.37
444.361	25725.56
444.568	25801.33
444.774	25791.09
444.981	26006.13
445.187	26692.2
445.394	28107.35
445.6	27669.08
445.807	30433.84
446.013	29006.41
446.22	29637.18
446.426	30577.2
446.633	31121.96
446.839	31920.66
447.046	30915.11
447.252	32236.05
447.459	32731.66
447.665	32117.27
447.871	33839.61
448.078	35197.41
448.284	33516.03
448.491	34517.49
448.697	36098.52
448.903	36444.63
449.11	36108.76
449.316	35789.28
449.522	36602.32
449.728	37366.21
449.935	37327.3
450.141	37722.56
450.347	38551.99
450.553	37042.63
450.76	37945.79
450.966	38787.5
451.172	38523.32
451.378	39002.54
451.584	38361.53
451.791	39629.22
451.997	39068.08
452.203	39928.22
452.409	39858.59
452.615	39813.54
452.821	38263.22
453.027	37757.38
453.233	39817.63
453.44	38111.67
453.646	38736.3
453.852	38826.42
454.058	39039.4
454.264	37900.73
454.47	39008.68
454.676	37822.91
454.882	39070.12
455.088	35688.93
455.294	36073.95
455.5	36841.93
455.705	37147.08
455.911	35662.3
456.117	34726.38
456.323	34361.84
456.529	32168.47
456.735	34077.18
456.941	33102.34
457.147	32334.35
457.352	31576.61
457.558	30806.57
457.764	30921.26
457.97	30474.8
458.176	29508.16
458.381	29434.43
458.587	28512.84
458.793	28602.96
458.999	26991.2
459.204	28645.96
459.41	27912.79
459.616	26077.81
459.821	25963.12
460.027	26020.47
460.233	25541.24
460.438	24392.33
460.644	24525.45
460.85	23151.26
461.055	23143.07
461.261	22682.28
461.466	21256.89
461.672	20683.46
461.878	21971.63
462.083	20546.25
462.289	20150.99
462.494	19944.14
462.7	19045.09
462.905	18500.33
463.111	19135.2
463.316	19229.4
463.522	18903.78
463.727	19167.96
463.932	18778.85
464.138	18674.4
464.343	18879.2
464.549	18264.81
464.754	18873.06
464.959	18537.19
465.165	18631.4
465.37	17724.15
465.575	17259.26
465.781	17857.26
465.986	18014.96
466.191	17464.05
466.397	17242.87
466.602	16296.71
466.807	16907.01
467.012	16880.38
467.218	16831.23
467.423	16405.25
467.628	16696.07
467.833	17347.32
468.038	16644.87
468.244	16210.7
468.449	16999.16
468.654	16364.29
468.859	16268.04
469.064	15989.52
469.269	15317.78
469.474	15676.18
469.679	15880.97
469.885	15534.87
470.09	15579.92
470.295	15526.68
470.5	15250.2
470.705	15385.37
470.91	15002.4
471.115	14854.94
471.32	15180.57
471.525	14883.61
471.73	14502.69
471.935	14639.9
472.139	13847.34
472.344	14199.59
472.549	14037.8
472.754	14213.93
472.959	13617.97
473.164	13392.69
473.369	13220.66
473.574	13642.54
473.778	13421.36
473.983	13249.33
474.188	13290.29
474.393	12657.47
474.598	12839.74
474.802	12532.54
475.007	12577.6
475.212	12702.53
475.417	11998.02
475.621	12008.26
475.826	12016.46
476.031	11807.56
476.235	11709.26
476.44	11828.04
476.645	11529.04
476.849	11752.27
477.054	11373.39
477.259	11281.24
477.463	11432.79
477.668	11010.9
477.872	11086.68
478.077	10990.42
478.282	10576.73
478.486	10521.44
478.691	10357.6
478.895	10476.38
479.1	10419.04
479.304	10517.34
479.509	10232.68
479.713	10396.51
479.918	10290.02
480.122	9900.9
480.326	9980.78
480.531	10226.53
480.735	10150.76
480.94	9911.14
481.144	10197.86
481.348	9980.78
481.553	10052.45
481.757	9730.92
481.961	9700.2
482.166	10089.32
482.37	10113.89
482.574	9694.06
482.778	9698.16
482.983	9812.84
483.187	9509.74
483.391	9636.72
483.595	9735.02
483.8	9503.6
484.004	9603.95
484.208	9960.3
484.412	9632.62
484.616	9735.02
484.821	9890.67
485.025	9677.68
485.229	9773.93
485.433	9663.34
485.637	9562.99
485.841	9595.76
486.045	9767.79
486.249	9460.59
486.453	9493.36
486.657	9683.82
486.861	9732.97
487.065	9448.3
487.269	9657.2
487.473	9417.58
487.677	9728.88
487.881	9624.43
488.085	9784.17
488.289	9780.07
488.493	9540.46
488.697	9857.9
488.901	9593.71
489.105	9685.87
489.309	9841.51
489.512	9769.83
489.716	9632.62
489.92	9651.05
490.124	9907.05
490.328	9870.19
490.531	9718.64
490.735	10113.89
490.939	9945.96
491.143	9718.64
491.346	9681.77
491.55	9978.73
491.754	10195.81
491.958	10218.34
492.161	9966.44
492.365	10232.68
492.569	10101.61
492.772	9948.01
492.976	10318.69
493.18	10275.68
493.383	10449.76
493.587	10324.83
493.79	10738.52
493.994	10404.71
494.197	10613.6
494.401	10836.83
494.605	10832.73
494.808	10988.38
495.012	10998.62
495.215	10943.32
495.419	10978.14
495.622	11006.81
495.825	11117.4
496.029	11092.82
496.232	11447.12
496.436	11219.8
496.639	11639.63
496.843	11551.57
497.046	11758.41
497.249	12036.94
497.453	11914.06
497.656	12182.34
497.859	12139.33
498.063	12208.97
498.266	12616.51
498.469	12573.5
498.673	12559.17
498.876	13009.72
499.079	12821.31
499.282	13026.11
499.485	13230.9
499.689	13241.14
499.892	13728.56
500.095	13593.39
500.298	13933.36
500.501	13865.77
500.705	14293.8
500.908	14435.11
501.111	14426.92
501.314	14486.31
501.517	14871.33
501.72	14912.28
501.923	14852.89
502.126	14992.16
502.329	15518.48
502.532	15418.13
502.735	15356.69
502.938	15774.48
503.141	15999.76
503.344	16110.35
503.547	16499.46
503.75	16249.61
503.953	16771.84
504.156	16833.28
504.359	16954.11
504.562	16681.73
504.765	17562.36
504.968	17582.84
505.17	17691.38
505.373	17967.85
505.576	18068.2
505.779	18248.43
505.982	18279.15
506.185	18868.96
506.387	18924.26
506.59	18766.56
506.793	19292.89
506.996	19376.86
507.198	19827.41
507.401	19753.68
507.604	20017.87
507.807	20273.87
508.009	20679.36
508.212	20708.04
508.415	21109.44
508.617	21183.16
508.82	21144.25
509.022	21254.84
509.225	21734.07
509.428	21965.49
509.63	21715.64
509.833	22256.3
510.035	23100.06
510.238	22497.96
510.44	22936.23
510.643	23444.12
510.845	23460.51
511.048	23323.29
511.25	23534.23
511.453	23827.09
511.655	24578.7
511.858	24464.01
512.06	24521.35
512.262	25367.16
512.465	24836.74
512.667	25774.71
512.87	25371.26
513.072	25524.86
513.274	26190.45
513.477	26509.93
513.679	26655.34
513.881	26860.13
514.084	27239.01
514.286	27208.29
514.488	27134.56
514.69	28086.87
514.893	28105.3
515.095	28275.28
515.297	28779.08
515.499	28488.27
515.701	29073.99
515.904	29667.9
516.106	29649.47
516.308	30016.05
516.51	30265.91
516.712	30368.3
516.914	30280.24
517.116	31015.46
517.318	31046.18
517.52	31650.33
517.722	31547.93
517.925	31930.9
518.127	32121.37
518.329	32641.55
518.531	32354.83
518.733	33135.11
518.935	33337.86
519.136	33272.32
519.338	34093.56
519.54	34279.92
519.742	34312.69
519.944	34853.36
520.146	35213.8
520.348	35439.08
520.55	35238.37
520.752	35572.19
520.954	36399.57
521.155	36590.03
521.357	36798.93
521.559	37054.92
521.761	37702.08
521.963	37413.32
522.164	37302.73
522.366	37945.79
522.568	38687.15
522.77	38287.8
522.971	39008.68
523.173	39023.02
523.375	39395.75
523.576	39256.49
523.778	39270.82
523.98	40047
524.181	40075.68
524.383	40225.18
524.584	40501.65
524.786	41083.28
524.988	40774.03
525.189	41539.97
525.391	41759.11
525.592	42031.49
525.794	42195.32
525.995	42256.76
526.197	42545.53
526.398	42463.61
526.6	43153.77
526.801	43014.51
527.003	43280.75
527.204	43645.29
527.406	43737.44
527.607	43549.03
527.808	44118.37
528.01	43350.38
528.211	43954.53
528.412	44994.9
528.614	44882.26
528.815	44757.33
529.016	45011.28
529.218	44763.48
529.419	45283.66
529.62	45728.07
529.822	45441.35
530.023	45668.68
530.224	45664.58
530.425	45814.08
530.626	45349.2
530.828	45410.64
531.029	46838.07
531.23	46311.74
531.431	46293.31
531.632	46608.7
531.833	47008.05
532.035	46416.19
532.236	46422.33
532.437	47038.77
532.638	46381.37
532.839	47175.98
533.04	47053.11
533.241	46524.73
533.442	47538.47
533.643	46870.84
533.844	47063.35
534.045	47665.45
534.246	47386.92
534.447	47323.44
534.648	47239.47
534.849	47569.19
535.05	47608.11
535.251	47522.09
535.451	47292.72
535.652	47780.13
535.853	47802.66
536.054	47753.51
536.255	47517.99
536.456	47421.74
536.657	47999.27
536.857	47173.94
537.058	47520.04
537.259	48009.51
537.46	48085.28
537.66	47501.61
537.861	47700.26
538.062	47532.33
538.263	48066.85
538.463	48267.55
538.664	47831.33
538.865	47997.22
539.065	48042.27
539.266	47223.09
539.466	48279.84
539.667	47403.31
539.868	48116
540.068	48109.86
540.269	47585.58
540.469	48249.12
540.67	47464.75
540.87	47905.06
541.071	47888.68
541.271	48320.8
541.472	47558.95
541.672	47595.82
541.873	47483.18
542.073	47327.53
542.274	48058.66
542.474	47952.16
542.675	47210.8
542.875	48392.48
543.075	47773.99
543.276	47259.95
543.476	47864.1
543.676	47595.82
543.877	48148.77
544.077	47659.3
544.277	47538.47
544.478	47528.23
544.678	48118.05
544.878	47421.74
545.078	47812.9
545.279	47341.87
545.479	47067.44
545.679	47821.09
545.879	47733.03
546.079	47722.79
546.28	47567.15
546.48	47216.94
546.68	47585.58
546.88	47634.73
547.08	47767.85
547.28	47614.25
547.48	47173.94
547.68	47649.06
547.88	47321.39
548.081	47356.21
548.281	47614.25
548.481	47515.95
548.681	47634.73
548.881	47786.28
549.081	47391.02
549.28	47341.87
549.48	48083.23
549.68	47214.9
549.88	47974.69
550.08	46756.15
550.28	47405.36
550.48	47517.99
550.68	47833.38
550.88	46881.08
551.08	47337.77
551.279	47329.58
551.479	46979.38
551.679	47092.02
551.879	47290.67
552.079	47075.63
552.278	47151.41
552.478	47137.07
552.678	47083.83
552.878	47436.08
553.077	47165.74
553.277	46938.42
553.477	47503.66
553.676	47051.06
553.876	46907.7
554.076	46684.47
554.275	46831.93
554.475	46219.58
554.674	47042.87
554.874	46874.93
555.074	46537.02
555.273	46786.87
555.473	46733.62
555.672	46520.63
555.872	46604.6
556.071	46379.32
556.271	46526.78
556.47	46534.97
556.67	45707.59
556.869	45877.57
557.068	46113.09
557.268	46108.99
557.467	46248.25
557.667	45920.58
557.866	45846.85
558.065	45699.4
558.265	45629.77
558.464	45234.51
558.663	45445.45
558.863	45287.76
559.062	45785.41
559.261	45019.47
559.461	45451.59
559.66	44669.27
559.859	44953.94
560.058	44740.95
560.258	44796.24
560.457	44685.65
560.656	44972.37
560.855	44945.75
561.054	44933.46
561.253	44179.81
561.453	44392.79
561.652	44437.85
561.851	44355.93
562.05	44380.51
562.249	43782.5
562.448	44267.87
562.647	44228.96
562.846	43811.17
563.045	43643.24
563.244	43247.98
563.443	43919.71
563.642	42998.13
563.841	43282.8
564.04	43145.58
564.239	43731.3
564.438	42824.05
564.637	43071.85
564.836	43143.53
565.035	42819.95
565.234	42625.4
565.432	42031.49
565.631	42588.53
565.83	42258.81
566.029	42172.8
566.228	41775.49
566.427	41824.64
566.625	41486.73
566.824	41222.54
567.023	41703.81
567.222	40939.92
567.42	41222.54
567.619	41132.43
567.818	40530.33
568.016	40997.26
568.215	41453.96
568.414	40520.09
568.612	40886.67
568.811	40182.17
569.01	40456.6
569.208	39838.11
569.407	40372.63
569.605	40016.29
569.804	40118.68
570.002	39377.32
570.201	39418.28
570.4	39281.06
570.598	39010.73
570.797	38595
570.995	39201.19
571.193	38734.26
571.392	38998.44
571.59	38189.5
571.789	38439.35
571.987	38465.97
572.186	38549.94
572.384	37925.31
572.582	38625.71
572.781	37935.55
572.979	37525.96
573.177	37968.32
573.376	38029.76
573.574	37771.71
573.772	37767.62
573.971	37366.21
574.169	37589.44
574.367	36942.28
574.565	37167.56
574.763	36778.45
574.962	36630.99
575.16	36352.47
575.358	36547.03
575.556	36000.22
575.754	36618.71
575.952	35766.75
576.151	36467.16
576.349	35654.11
576.547	35699.17
576.745	35758.56
576.943	35836.38
577.141	35289.57
577.339	35736.03
577.537	35213.8
577.735	35336.68
577.933	34916.84
578.131	34871.79
578.329	34576.88
578.527	34683.37
578.725	35170.79
578.923	34679.28
579.121	34572.78
579.319	34701.81
579.516	34226.68
579.714	34257.4
579.912	34329.08
580.11	34234.87
580.308	33743.36
580.506	33985.02
580.704	33444.35
580.901	33655.29
581.099	33866.24
581.297	33301
581.495	33190.41
581.692	33509.89
581.89	32928.27
582.088	33157.64
582.285	32801.29
582.483	33202.69
582.681	32780.81
582.878	32936.46
583.076	32324.11
583.274	32616.97
583.471	32465.42
583.669	32582.16
583.866	32109.08
584.064	32348.69
584.262	31777.31
584.459	32027.16
584.657	31609.37
584.854	31853.08
585.052	31191.59
585.249	31920.66
585.447	31582.75
585.644	31115.81
585.841	31222.31
586.039	31511.07
586.236	30894.63
586.434	31076.9
586.631	30657.07
586.828	30812.71
587.026	30964.26
587.223	30552.62
587.42	30409.26
587.618	30644.78
587.815	30169.65
588.012	30280.24
588.21	30200.37
588.407	30458.42
588.604	30050.87
588.801	29745.72
588.999	29930.04
589.196	29549.12
589.393	29364.8
589.59	29968.95
589.787	29350.46
589.984	29909.56
590.182	29071.94
590.379	28977.73
590.576	28940.87
590.773	29180.48
590.97	28711.5
591.167	28926.53
591.364	28799.56
591.561	28766.79
591.758	28248.66
591.955	28269.14
592.152	28572.24
592.349	28213.84
592.546	28338.77
592.743	27986.52
592.94	27939.41
593.137	28213.84
593.334	28111.44
593.531	27716.19
593.727	27617.88
593.924	27593.31
594.121	27241.06
594.318	27683.42
594.515	27423.33
594.712	27382.37
594.908	26868.33
595.105	27185.76
595.302	26978.92
595.499	26983.01
595.696	26810.98
595.892	26753.64
596.089	26899.05
596.286	26684.01
596.482	26651.24
596.679	26663.53
596.876	26554.99
597.072	26319.47
597.269	26368.62
597.466	25870.97
597.662	25987.7
597.859	26081.91
598.055	25795.19
598.252	26182.26
598.448	25879.16
598.645	26088.05
598.841	25707.13
599.038	25772.66
599.234	25750.14
599.431	24916.61
599.627	25139.84
599.824	25256.57
600.02	24943.24
600.217	25287.29
600.413	24935.04
600.609	24767.11
600.806	24562.31
601.002	24750.73
601.198	24455.82
601.395	24795.78
601.591	24478.35
601.787	24697.48
601.984	24519.31
602.18	24664.71
602.376	24132.24
602.572	24040.08
602.769	24074.9
602.965	23913.11
603.161	24025.75
603.357	23736.98
603.553	23782.04
603.75	23601.82
603.946	23456.41
604.142	23532.18
604.338	23227.04
604.534	23493.27
604.73	22968.99
604.926	23284.38
605.122	23343.77
605.318	22766.24
605.514	23122.59
605.71	22772.39
605.906	22950.56
606.102	22977.19
606.298	22635.17
606.494	22833.83
606.69	22514.34
606.886	23112.35
607.082	22639.27
607.278	22432.43
607.474	22016.69
607.67	22430.38
607.866	22084.27
608.062	22463.15
608.257	22250.16
608.453	21988.02
608.649	22153.9
608.845	21994.16
609.041	21945.01
609.236	22129.33
609.432	21928.63
609.628	21619.38
609.824	21512.89
610.019	21586.61
610.215	21502.65
610.411	21785.27
610.606	21543.61
610.802	21557.94
610.998	21508.79
611.193	21592.76
611.389	21344.95
611.584	21332.67
611.78	21131.97
611.976	21400.25
612.171	21328.57
612.367	20861.63
612.562	20972.22
612.758	20562.63
612.953	20884.16
613.149	21060.29
613.344	20736.71
613.539	21185.21
613.735	20945.6
613.93	20835.01
614.126	20472.52
614.321	20826.82
614.517	20837.06
614.712	20570.82
614.907	20218.57
615.103	20617.93
615.298	20310.73
615.493	20404.94
615.688	19927.76
615.884	20552.39
616.079	20286.15
616.274	20327.11
616.47	20007.63
616.665	20243.15
616.86	20146.89
617.055	19950.29
617.25	19729.11
617.445	20067.02
617.641	19593.94
617.836	19772.11
618.031	19366.62
618.226	19815.12
618.421	19616.47
618.616	19741.39
618.811	19503.83
619.006	19413.72
619.201	19256.03
619.396	19239.64
619.591	18770.66
619.786	19454.68
619.981	19012.32
620.176	19346.14
620.371	18952.93
620.566	18901.73
620.761	18750.18
620.956	18717.41
621.151	18459.37
621.346	18580.2
621.541	18125.55
621.735	18455.27
621.93	17930.99
622.125	18268.91
622.32	18127.6
622.515	17875.7
622.709	17830.64
622.904	17722.1
623.099	17773.3
623.294	17640.18
623.488	17314.55
623.683	17591.03
623.878	17193.72
624.072	17302.26
624.267	17296.12
624.462	16839.42
624.656	16775.94
624.851	16661.25
625.046	16864
625.24	16614.15
625.435	16407.3
625.629	16489.22
625.824	16317.19
626.018	16360.2
626.213	15866.64
626.407	15907.6
626.602	15926.03
626.796	16028.43
626.991	16016.14
627.185	15704.85
627.38	15741.71
627.574	15350.55
627.768	15579.92
627.963	15594.26
628.157	15289.11
628.352	15358.74
628.546	15026.97
628.74	15227.67
628.935	15069.98
629.129	15242.01
629.323	14697.25
629.517	14603.04
629.712	14883.61
629.906	14695.2
630.1	14467.88
630.294	14293.8
630.489	14263.08
630.683	14451.49
630.877	14181.16
631.071	13998.89
631.265	14091.05
631.459	13982.51
631.653	13908.78
631.848	13892.4
632.042	13798.19
632.236	13779.76
632.43	13679.41
632.624	13697.84
632.818	13564.72
633.012	13564.72
633.206	13421.36
633.4	13372.21
633.594	13245.24
633.788	13374.26
633.982	13136.7
634.176	13222.71
634.369	13046.58
634.563	13067.06
634.757	12622.66
634.951	13026.11
635.145	12639.04
635.339	12620.61
635.533	12610.37
635.726	12553.02
635.92	12417.86
636.114	12528.45
636.308	12403.52
636.501	12327.75
636.695	12069.7
636.889	12129.09
637.083	11993.93
637.276	12086.09
637.47	12034.89
637.664	11785.04
637.857	11948.87
638.051	11791.18
638.244	11518.8
638.438	11758.41
638.632	11627.34
638.825	11273.04
639.019	11451.22
639.212	11504.46
639.406	11402.07
639.599	11373.39
639.793	11131.73
639.986	11127.64
640.18	11258.71
640.373	11096.92
640.567	10953.56
640.76	10867.55
640.954	10771.29
641.147	10857.31
641.34	10574.69
641.534	10713.95
641.727	10580.83
641.92	10705.76
642.114	10609.5
642.307	10519.39
642.5	10484.58
642.694	10283.88
642.887	10251.11
643.08	10273.64
643.273	10171.24
643.467	10027.88
643.66	9802.6
643.853	9988.97
644.046	9929.58
644.239	10040.17
644.432	9655.15
644.626	9700.2
644.819	9663.34
645.012	9804.65
645.205	9464.69
645.398	9720.68
645.591	9628.53
645.784	9534.32
645.977	9481.07
646.17	9366.39
646.363	9253.75
646.556	9239.41
646.749	9223.03
646.942	9225.08
647.135	9061.24
647.328	9159.54
647.521	9233.27
647.714	9100.15
647.907	8874.87
648.099	9022.33
648.292	8897.4
648.485	8848.25
648.678	8797.05
648.871	8790.91
649.064	8645.5
649.256	8446.85
649.449	8665.98
649.642	8670.08
649.835	8199.04
650.027	8369.02
650.22	8362.88
650.413	8397.7
650.605	8551.29
650.798	8334.21
650.991	8280.96
651.183	8252.29
651.376	8063.88
651.568	8278.91
651.761	8055.69
651.954	8055.69
652.146	8067.97
652.339	7883.66
652.531	8092.55
652.724	7916.42
652.916	7773.07
653.109	7787.4
653.301	7771.02
653.494	7613.32
653.686	7674.76
653.879	7705.48
654.071	7500.69
654.263	7607.18
654.456	7537.55
654.648	7517.07
654.84	7388.05
655.033	7494.54
655.225	7472.01
655.417	7342.99
655.61	7390.1
655.802	7373.71
655.994	7302.03
656.186	7121.81
656.379	7236.5
656.571	7103.38
656.763	7048.08
656.955	7015.32
657.148	7080.85
657.34	7080.85
657.532	6976.41
657.724	7031.7
657.916	7072.66
658.108	6931.35
658.3	6828.95
658.492	6990.74
658.684	6878.1
658.876	6843.29
659.068	6679.45
659.26	6620.06
659.452	6679.45
659.644	6671.26
659.836	6695.83
660.028	6636.44
660.22	6556.57
660.412	6452.13
660.604	6566.81
660.796	6478.75
660.988	6497.18
661.18	6517.66
661.372	6486.94
661.563	6491.04
661.755	6448.03
661.947	6407.07
662.139	6007.72
662.331	6134.69
662.522	6261.66
662.714	6177.7
662.906	6101.92
663.097	6079.4
663.289	6036.39
663.481	5989.28
663.673	6163.36
663.864	5989.28
664.056	6140.83
664.247	6056.87
664.439	5796.78
664.631	6048.68
664.822	5960.61
665.014	5811.11
665.205	5827.5
665.397	5893.03
665.588	6032.29
665.78	5753.77
665.971	5839.78
666.163	5872.55
666.354	5704.62
666.546	5890.98
666.737	5792.68
666.929	5557.16
667.12	5804.97
667.311	5745.58
667.503	5510.06
667.694	5688.23
667.885	5694.38
668.077	5655.47
668.268	5577.64
668.459	5579.69
668.651	5663.66
668.842	5491.63
669.033	5544.88
669.224	5532.59
669.416	5571.5
669.607	5522.35
669.798	5606.31
669.989	5508.01
670.18	5524.4
670.371	5479.34
670.563	5565.36
670.754	5462.96
670.945	5393.33
671.136	5450.67
671.327	5442.48
671.518	5313.45
671.709	5434.29
671.9	5401.52
672.091	5385.13
672.282	5335.98
672.473	5344.17
672.664	5415.85
672.855	5301.17
673.046	5483.44
673.237	5489.58
673.428	5456.81
673.619	5444.52
673.809	5413.81
674	5454.76
674.191	5491.63
674.382	5385.13
674.573	5395.37
674.764	5401.52
674.954	5311.41
675.145	5315.5
675.336	5360.56
675.527	5393.33
675.717	5417.9
675.908	5233.58
676.099	5448.62
676.289	5462.96
676.48	5460.91
676.671	5462.96
676.861	5385.13
677.052	5311.41
677.243	5487.53
677.433	5317.55
677.624	5424.05
677.814	5229.49
678.005	5360.56
678.195	5465
678.386	5340.08
678.576	5434.29
678.767	5446.57
678.957	5454.76
679.148	5440.43
679.338	5411.76
679.529	5393.33
679.719	5499.82
679.909	5497.77
680.1	5555.12
680.29	5477.29
680.481	5516.2
680.671	5475.24
680.861	5565.36
681.052	5573.55
681.242	5483.44
681.432	5639.08
681.622	5413.81
681.813	5690.28
682.003	5569.45
682.193	5598.12
682.383	5632.94
682.573	5645.23
682.764	5583.79
682.954	5663.66
683.144	5702.57
683.334	5454.76
683.524	5600.17
683.714	5741.48
683.904	5641.13
684.094	5741.48
684.284	5563.31
684.474	5721
684.664	5649.32
684.854	5667.75
685.044	5508.01
685.234	5505.96
685.424	5630.89
685.614	5516.2
685.804	5559.21
685.994	5555.12
686.184	5555.12
686.374	5645.23
686.564	5319.6
686.753	5565.36
686.943	5489.58
687.133	5569.45
687.323	5411.76
687.513	5430.19
687.702	5368.75
687.892	5340.08
688.082	5280.69
688.272	5241.78
688.461	5254.06
688.651	5362.61
688.841	5241.78
689.03	5245.87
689.22	5268.4
689.41	5241.78
689.599	5088.18
689.789	5172.15
689.979	5094.32
690.168	5053.36
690.358	5114.8
690.547	5041.08
690.737	5082.03
690.926	5014.45
691.116	5028.79
691.305	4862.9
691.495	4860.85
691.684	4803.51
691.874	4891.57
692.063	4830.13
692.252	4877.24
692.442	4672.44
692.631	4570.04
692.82	4574.14
693.01	4580.28
693.199	4627.39
693.388	4629.43
693.578	4529.08
693.767	4590.52
693.956	4637.63
694.146	4443.07
694.335	4443.07
694.524	4504.51
694.713	4598.71
694.902	4232.13
695.092	4416.44
695.281	4486.08
695.47	4451.26
695.659	4361.15
695.848	4365.25
696.037	4258.75
696.226	4230.08
696.415	4234.18
696.604	4307.9
696.793	4385.73
696.982	4187.07
697.171	4164.54
697.36	4365.25
697.549	4187.07
697.738	4142.02
697.927	4004.8
698.116	4254.66
698.305	4150.21
698.494	4174.78
698.683	4123.59
698.872	4367.29
699.061	4074.43
699.25	4152.26
699.438	4092.87
699.627	4115.39
699.816	4180.93
700.005	4236.22
700.193	4121.54
700.382	4303.81
700.571	4262.85
700.76	4156.35
700.948	4254.66
701.137	4109.25
701.326	4262.85
701.514	4017.09
701.703	4162.5
701.892	4193.22
702.08	4299.71
702.269	4246.46
702.457	4211.65
702.646	4115.39
702.834	4088.77
703.023	4017.09
703.212	4203.46
703.4	4131.78
703.589	4068.29
703.777	4189.12
703.965	4111.3
704.154	4281.28
704.342	4180.93
704.531	4180.93
704.719	4115.39
704.907	4201.41
705.096	4172.74
705.284	4283.33
705.472	4312
705.661	4066.24
705.849	4193.22
706.037	4225.98
706.226	4205.5
706.414	4254.66
706.602	4279.23
706.79	4410.3
706.979	4244.42
707.167	4176.83
707.355	4238.27
707.543	4416.44
707.731	4250.56
707.919	4223.94
708.107	4285.37
708.296	4240.32
708.484	4385.73
708.672	4484.03
708.86	4205.5
709.048	4365.25
709.236	4250.56
709.424	4592.57
709.612	4322.24
709.8	4445.12
709.988	4477.88
710.176	4377.53
710.364	4371.39
710.551	4430.78
710.739	4424.64
710.927	4414.4
711.115	4447.16
711.303	4613.05
711.491	4549.56
711.679	4492.22
711.866	4606.91
712.054	4563.9
712.242	4477.88
712.43	4598.71
712.617	4488.12
712.805	4539.32
712.993	4631.48
713.181	4477.88
713.368	4731.83
713.556	4805.56
713.744	4514.75
713.931	4768.7
714.119	4692.92
714.306	4633.53
714.494	4678.58
714.682	4582.33
714.869	4553.66
715.057	4785.08
715.244	4705.21
715.432	4836.28
715.619	4744.12
715.807	4889.53
715.994	4811.7
716.182	4877.24
716.369	4916.15
716.556	4971.44
716.744	4862.9
716.931	4959.16
717.119	4903.86
717.306	5057.46
717.493	4948.92
717.681	5118.9
717.868	5133.23
718.055	4967.35
718.242	5122.99
718.43	5118.9
718.617	4977.59
718.804	4946.87
718.991	5096.37
719.179	5161.91
719.366	5204.91
719.553	5307.31
719.74	5217.2
719.927	5237.68
720.114	5247.92
720.301	5176.24
720.488	5178.29
720.676	5219.25
720.863	5360.56
721.05	5254.06
721.237	5397.42
721.424	5465
721.611	5342.13
721.798	5471.15
721.985	5360.56
722.172	5374.89
722.358	5374.89
722.545	5548.97
722.732	5411.76
722.919	5489.58
723.106	5401.52
723.293	5438.38
723.48	5540.78
723.667	5317.55
723.853	5374.89
724.04	5557.16
724.227	5602.22
724.414	5508.01
724.6	5544.88
724.787	5637.03
724.974	5860.26
725.161	5540.78
725.347	5565.36
725.534	5708.71
725.72	5784.49
725.907	5784.49
726.094	5761.96
726.28	5712.81
726.467	5688.23
726.653	5634.99
726.84	5708.71
727.027	5790.63
727.213	5714.86
727.4	5751.72
727.586	5688.23
727.773	5839.78
727.959	5850.02
728.145	5790.63
728.332	5796.78
728.518	5878.69
728.705	6048.68
728.891	5882.79
729.077	5802.92
729.264	5909.41
729.45	5991.33
729.636	5995.43
729.823	6085.54
730.009	5946.28
730.195	5974.95
730.382	5952.42
730.568	5983.14
730.754	5991.33
730.94	6069.16
731.126	6052.77
731.313	6022.05
731.499	6095.78
731.685	6073.25
731.871	6026.15
732.057	6005.67
732.243	6026.15
732.429	5933.99
732.615	6165.41
732.801	6095.78
732.987	6290.34
733.173	6044.58
733.359	6171.55
733.545	6087.59
733.731	6048.68
733.917	6095.78
734.103	6257.57
734.289	6126.5
734.475	6048.68
734.661	6169.51
734.847	6144.93
735.033	6122.4
735.219	6388.64
735.404	6237.09
735.59	6114.21
735.776	6110.11
735.962	6194.08
736.148	6251.42
736.333	6261.66
736.519	6155.17
736.705	6290.34
736.89	6128.55
737.076	6210.47
737.262	6103.97
737.447	6183.84
737.633	6056.87
737.819	6124.45
738.004	6087.59
738.19	6237.09
738.375	6249.38
738.561	6237.09
738.747	6081.44
738.932	6343.58
739.118	6069.16
739.303	6024.1
739.489	6069.16
739.674	6101.92
739.859	6106.02
740.045	6040.48
740.23	6130.59
740.416	5921.7
740.601	6187.94
740.786	6163.36
740.972	5981.09
741.157	6048.68
741.342	5917.61
741.528	6089.64
741.713	6048.68
741.898	5977
742.084	5958.57
742.269	5907.37
742.454	6124.45
742.639	5923.75
742.824	5819.3
743.01	6007.72
743.195	6003.62
743.38	5751.72
743.565	5798.82
743.75	5692.33
743.935	5745.58
744.12	5710.76
744.305	5565.36
744.49	5718.95
744.675	5655.47
744.86	5610.41
745.045	5710.76
745.23	5688.23
745.415	5450.67
745.6	5520.3
745.785	5499.82
745.97	5653.42
746.155	5551.02
746.34	5333.93
746.525	5335.98
746.71	5422
746.895	5393.33
747.079	5335.98
747.264	5184.43
747.449	5262.26
747.634	5315.5
747.819	5120.95
748.003	5157.81
748.188	5137.33
748.373	5102.51
748.557	4856.76
748.742	5030.84
748.927	4918.2
749.111	5063.6
749.296	4934.58
749.481	4918.2
749.665	4893.62
749.85	4803.51
750.034	4950.96
750.219	4893.62
750.404	4852.66
750.588	4805.56
750.773	4606.91
750.957	4662.2
751.141	4615.1
751.326	4623.29
751.51	4580.28
751.695	4455.36
751.879	4549.56
752.064	4426.68
752.248	4574.14
752.432	4412.35
752.617	4424.64
752.801	4473.79
752.985	4262.85
753.17	4332.48
753.354	4344.77
753.538	4332.48
753.722	4156.35
753.907	4232.13
754.091	4232.13
754.275	4051.91
754.459	4004.8
754.643	4025.28
754.828	4211.65
755.012	4008.9
755.196	3886.02
755.38	4053.95
755.564	3990.47
755.748	3906.5
755.932	3935.17
756.116	3763.14
756.3	3883.97
756.484	3681.22
756.668	3797.96
756.852	3611.59
757.036	3806.15
757.22	3476.43
757.404	3544.01
757.588	3490.76
757.772	3808.2
757.956	3449.8
758.14	3605.45
758.323	3468.24
758.507	3458
758.691	3386.32
758.875	3361.74
759.059	3490.76
759.242	3484.62
759.426	3304.4
759.61	3326.93
759.794	3414.99
759.977	3423.18
760.161	3318.73
760.345	3253.2
760.528	3263.44
760.712	3222.48
760.895	3314.64
761.079	3175.38
761.263	3230.67
761.446	3232.72
761.63	3056.59
761.813	3191.76
761.997	3032.02
762.18	3208.14
762.364	3038.16
762.547	2878.42
762.731	3009.49
762.914	3005.39
763.098	3001.3
763.281	3040.21
763.464	2984.91
763.648	3023.83
763.831	2903
764.015	2898.9
764.198	2853.84
764.381	2847.7
764.564	2831.32
764.748	2808.79
764.931	2878.42
765.114	2794.45
765.297	2821.08
765.481	2792.41
765.664	2632.66
765.847	2673.62
766.03	2700.25
766.213	2741.21
766.397	2730.97
766.58	2618.33
766.763	2737.11
766.946	2597.85
767.129	2614.23
767.312	2649.05
767.495	2671.58
767.678	2534.36
767.861	2589.66
768.044	2491.35
768.227	2636.76
768.41	2608.09
768.593	2599.9
768.776	2374.62
768.959	2487.26
769.142	2483.16
769.324	2411.48
769.507	2534.36
769.69	2477.02
769.873	2427.87
770.056	2491.35
770.239	2464.73
770.421	2466.78
770.604	2436.06
770.787	2335.71
770.97	2362.33
771.152	2370.52
771.335	2296.8
771.518	2171.87
771.7	2345.95
771.883	2235.36
772.066	2362.33
772.248	2280.41
772.431	2206.69
772.613	2190.3
772.796	2231.26
772.978	2241.5
773.161	2307.04
773.343	2135.01
773.526	2096.1
773.708	1987.55
773.891	2022.37
774.073	2040.8
774.256	2118.62
774.438	2081.76
774.621	2044.9
774.803	2063.33
774.985	2038.75
775.168	2010.08
775.35	1956.83
775.532	1995.75
775.715	1967.07
775.897	2024.42
776.079	1960.93
776.261	1821.67
776.444	1911.78
776.626	1774.56
776.808	1780.71
776.99	1784.8
777.173	1829.86
777.355	1876.96
777.537	1760.23
777.719	1737.7
777.901	1780.71
778.083	1674.21
778.265	1715.17
778.447	1706.98
778.629	1788.9
778.811	1696.74
778.993	1739.75
779.175	1633.26
779.357	1649.64
779.539	1592.3
779.721	1530.86
779.903	1518.57
780.085	1608.68
780.267	1567.72
780.449	1543.14
780.631	1580.01
780.812	1633.26
780.994	1479.66
781.176	1559.53
781.358	1502.19
781.54	1448.94
781.721	1438.7
781.903	1426.41
782.085	1448.94
782.267	1334.25
782.448	1313.77
782.63	1416.17
782.812	1420.27
782.993	1338.35
783.175	1442.79
783.357	1268.72
783.538	1330.16
783.72	1215.47
783.901	1235.95
784.083	1332.2
784.264	1309.68
784.446	1172.46
784.627	1311.72
784.809	1285.1
784.99	1143.79
785.172	1051.63
785.353	1213.42
785.535	1229.81
785.716	1190.89
785.897	1145.84
786.079	1205.23
786.26	1174.51
786.441	1203.18
786.623	1092.59
786.804	1180.65
786.985	1088.5
787.167	1088.5
787.348	1084.4
787.529	1070.06
787.71	1252.33
787.891	1055.73
788.073	1084.4
788.254	1033.2
788.435	1090.54
788.616	1141.74
788.797	992.24
788.978	1018.86
789.159	1031.15
789.34	1043.44
789.522	938.99
789.703	1025.01
789.884	984.05
790.065	971.76
790.246	1035.25
790.427	1029.1
790.607	934.9
790.788	906.23
790.969	951.28
791.15	922.61
791.331	994.29
791.512	1070.06
791.693	908.27
791.874	936.95
792.054	963.57
792.235	900.08
792.416	805.88
792.597	824.31
792.778	918.51
792.958	820.21
793.139	904.18
793.32	887.79
793.5	855.03
793.681	871.41
793.862	842.74
794.042	834.55
794.223	760.82
794.404	791.54
794.584	736.24
794.765	803.83
794.945	838.64
795.126	842.74
795.306	764.92
795.487	762.87
795.667	695.29
795.848	748.53
796.028	785.4
796.209	779.25
796.389	699.38
796.57	701.43
796.75	699.38
796.93	666.61
797.111	756.72
797.291	742.39
797.471	764.92
797.652	713.72
797.832	693.24
798.012	887.79
798.192	707.57
798.373	625.65
798.553	762.87
798.733	613.37
798.913	674.81
799.093	662.52
799.274	697.33
799.454	601.08
799.634	697.33
799.814	633.85
799.994	631.8
800.174	699.38
800.354	635.89
800.534	609.27
800.714	707.57
800.894	656.37
801.074	582.65
801.254	601.08
801.434	705.53
801.614	672.76
801.794	533.5
801.974	1305.58
802.154	615.41
802.334	576.5
802.514	547.83
802.693	564.22
802.873	648.18
803.053	617.46
803.233	531.45
803.413	570.36
803.592	582.65
803.772	568.31
803.952	605.17
804.131	523.26
804.311	543.74
804.491	596.98
804.67	519.16
804.85	517.11
805.03	596.98
805.209	574.46
805.389	549.88
805.568	551.93
805.748	574.46
805.928	470.01
806.107	549.88
806.287	494.58
806.466	508.92
806.646	474.1
806.825	502.78
807.004	498.68
807.184	515.06
807.363	594.93
807.543	535.54
807.722	484.34
807.901	529.4
808.081	572.41
808.26	392.19
808.439	476.15
808.619	459.77
808.798	422.91
808.977	553.98
809.156	478.2
809.336	410.62
809.515	535.54
809.694	535.54
809.873	404.47
810.052	486.39
810.231	519.16
810.411	490.49
810.59	459.77
810.769	474.1
810.948	500.73
811.127	343.03
811.306	453.63
811.485	433.15
811.664	429.05
811.843	404.47
812.022	437.24
812.201	470.01
812.38	383.99
812.559	379.9
812.737	418.81
812.916	304.12
813.095	412.67
813.274	437.24
813.453	416.76
813.632	414.71
813.811	457.72
813.989	408.57
814.168	386.04
814.347	373.75
814.526	437.24
814.704	359.42
814.883	383.99
815.062	379.9
815.24	367.61
815.419	363.51
815.598	402.43
815.776	310.27
815.955	324.6
816.133	353.27
816.312	359.42
816.49	293.88
816.669	386.04
816.847	345.08
817.026	433.15
817.204	306.17
817.383	386.04
817.561	318.46
817.74	461.82
817.918	408.57
818.097	289.79
818.275	424.95
818.453	330.75
818.632	398.33
818.81	338.94
818.988	338.94
819.167	330.75
819.345	289.79
819.523	400.38
819.701	289.79
819.879	252.92
820.058	345.08
820.236	326.65
820.414	291.84
820.592	310.27
820.77	320.51
820.948	334.84
821.127	338.94
821.305	291.84
821.483	351.23
821.661	334.84
821.839	265.21
822.017	314.36
822.195	353.27
822.373	232.44
822.551	326.65
822.729	302.08
822.907	230.4
823.085	379.9
823.262	171.01
823.44	322.56
823.618	277.5
823.796	302.08
823.974	273.4
824.152	281.6
824.329	304.12
824.507	361.47
824.685	238.59
824.863	281.6
825.04	281.6
825.218	230.4
825.396	177.15
825.574	281.6
825.751	222.2
825.929	312.32
826.107	265.21
826.284	214.01
826.462	302.08
826.639	197.63
826.817	216.06
826.994	279.55
827.172	240.64
827.349	361.47
827.527	293.88
827.704	287.74
827.882	293.88
828.059	220.16
828.237	191.49
828.414	289.79
828.591	189.44
828.769	293.88
828.946	295.93
829.124	281.6
829.301	226.3
829.478	293.88
829.655	230.4
829.833	220.16
830.01	248.83
830.187	224.25
830.364	238.59
830.542	234.49
830.719	189.44
830.896	279.55
831.073	175.1
831.25	150.53
831.427	168.96
831.604	214.01
831.782	218.11
831.959	281.6
832.136	201.72
832.313	289.79
832.49	220.16
832.667	232.44
832.844	232.44
833.021	275.45
833.198	138.24
833.374	222.2
833.551	175.1
833.728	185.34
833.905	211.96
834.082	117.76
834.259	224.25
834.436	218.11
834.612	171.01
834.789	175.1
834.966	240.64
835.143	156.67
835.319	156.67
835.496	287.74
835.673	175.1
835.85	134.14
836.026	254.97
836.203	199.68
836.38	218.11
836.556	150.53
836.733	171.01
836.909	224.25
837.086	158.72
837.262	142.33
837.439	168.96
837.616	89.09
837.792	162.81
837.968	216.06
838.145	84.99
838.321	191.49
838.498	175.1
838.674	166.91
838.851	238.59
839.027	117.76
839.203	234.49
839.38	154.62
839.556	140.29
839.732	203.77
839.909	160.77
840.085	173.05
840.261	138.24
840.437	164.86
840.614	154.62
840.79	195.58
840.966	107.52
841.142	230.4
841.318	156.67
841.494	203.77
841.671	168.96
841.847	199.68
842.023	123.9
842.199	224.25
842.375	150.53
842.551	58.37
842.727	107.52
842.903	160.77
843.079	113.66
843.255	195.58
843.431	134.14
843.607	125.95
843.783	117.76
843.959	162.81
844.134	101.37
844.31	158.72
844.486	117.76
844.662	175.1
844.838	166.91
845.013	121.85
845.189	138.24
845.365	60.42
845.541	166.91
845.716	128
845.892	158.72
846.068	107.52
846.244	101.37
846.419	166.91
846.595	115.71
846.77	117.76
846.946	93.18
847.122	87.04
847.297	117.76
847.473	177.15
847.648	140.29
847.824	179.2
847.999	76.8
848.175	84.99
848.35	68.61
848.526	142.33
848.701	158.72
848.876	125.95
849.052	156.67
849.227	134.14
849.403	113.66
849.578	164.86
849.753	162.81
849.929	119.81
850.104	66.56
850.279	160.77
850.454	91.13
850.63	125.95
850.805	60.42
850.98	23.55
851.155	101.37
851.33	62.46
851.505	17.41
851.681	80.89
851.856	58.37
852.031	138.24
852.206	158.72
852.381	70.65
852.556	99.33
852.731	91.13
852.906	101.37
853.081	117.76
853.256	93.18
853.431	146.43
853.606	70.65
853.781	44.03
853.956	60.42
854.131	144.38
854.305	107.52
854.48	76.8
854.655	58.37
854.83	74.75
855.005	115.71
855.18	158.72
855.354	91.13
855.529	31.74
855.704	109.57
855.879	68.61
856.053	56.32
856.228	99.33
856.403	72.7
856.577	99.33
856.752	68.61
856.926	138.24
857.101	101.37
857.276	48.13
857.45	93.18
857.625	117.76
857.799	62.46
857.974	138.24
858.148	74.75
858.323	56.32
858.497	119.81
858.672	33.79
858.846	3.07
859.02	183.29
859.195	68.61
859.369	3.07
859.543	52.22
859.718	46.08
859.892	89.09
860.066	56.32
860.241	52.22
860.415	58.37
860.589	74.75
860.763	93.18
860.938	84.99
861.112	52.22
861.286	-48.13
861.46	50.18
861.634	109.57
861.808	134.14
861.982	9.22
862.157	35.84
862.331	19.46
862.505	31.74
862.679	93.18
862.853	105.47
863.027	33.79
863.201	130.05
863.375	31.74
863.549	74.75
863.722	68.61
863.896	74.75
864.07	64.51
864.244	5.12
864.418	113.66
864.592	125.95
864.766	33.79
864.939	87.04
865.113	-9.22
865.287	27.65
865.461	44.03
865.634	125.95
865.808	27.65
865.982	62.46
866.156	58.37
866.329	84.99
866.503	117.76
866.676	115.71
866.85	115.71
867.024	27.65
867.197	70.65
867.371	113.66
867.544	80.89
867.718	-5.12
867.891	89.09
868.065	60.42
868.238	50.18
868.412	181.25
868.585	64.51
868.759	-7.17
868.932	25.6
869.105	56.32
869.279	-1.02
869.452	-33.79
869.625	56.32
869.799	19.46
869.972	80.89
870.145	119.81
870.319	-15.36
870.492	5.12
870.665	74.75
870.838	68.61
871.011	-5.12
871.185	56.32
871.358	58.37
871.531	48.13
871.704	107.52
871.877	-1.02
872.05	-5.12
872.223	66.56
872.396	60.42
872.569	105.47
872.742	33.79
872.915	74.75
873.088	87.04
873.261	11.26
873.434	41.98
873.607	84.99
873.78	87.04
873.953	-23.55
874.126	56.32
874.299	46.08
874.471	17.41
874.644	27.65
874.817	64.51
874.99	97.28
875.163	74.75
875.335	19.46
875.508	23.55
875.681	41.98
875.853	35.84
876.026	35.84
876.199	39.94
876.371	68.61
876.544	-23.55
876.717	27.65
876.889	11.26
877.062	99.33
877.234	-46.08
877.407	-7.17
877.579	105.47
877.752	39.94
877.924	48.13
878.097	7.17
878.269	5.12
878.442	44.03
878.614	46.08
878.786	29.7
878.959	95.23
879.131	27.65
879.303	52.22
879.476	93.18
879.648	123.9
879.82	-15.36
879.993	66.56
880.165	33.79
880.337	64.51
880.509	76.8
880.681	-39.94
880.854	3.07
881.026	9.22
881.198	154.62
881.37	11.26
881.542	44.03
881.714	23.55
881.886	-44.03
882.058	91.13
882.23	66.56
882.402	17.41
882.574	-37.89
882.746	-13.31
882.918	101.37
883.09	56.32
883.262	58.37
883.434	-54.27
883.606	44.03
883.778	68.61
883.95	27.65
884.122	93.18
884.293	66.56
884.465	31.74
884.637	35.84
884.809	-39.94
884.98	-25.6
885.152	68.61
885.324	117.76
885.496	1.02
885.667	-13.31
885.839	-15.36
886.011	68.61
886.182	72.7
886.354	101.37
886.525	29.7
886.697	7.17
886.869	-21.5
887.04	15.36
887.212	50.18
887.383	41.98
887.555	72.7
887.726	27.65
887.897	-7.17
888.069	35.84
888.24	70.65
888.412	-5.12
888.583	134.14
888.754	11.26
888.926	-25.6
889.097	-5.12
889.268	27.65
889.44	93.18
889.611	23.55
889.782	91.13
889.953	-7.17
890.125	93.18
890.296	-23.55
890.467	-35.84
890.638	-25.6
890.809	66.56
890.98	82.94
891.151	19.46
891.323	142.33
891.494	72.7
891.665	56.32
891.836	11.26
892.007	-21.5
892.178	62.46
892.349	19.46
892.52	19.46
892.691	-13.31
892.862	125.95
893.032	-70.65
893.203	-7.17
893.374	58.37
893.545	117.76
893.716	3.07
893.887	27.65
894.057	87.04
894.228	33.79
894.399	-21.5
894.57	119.81
894.74	-46.08
894.911	95.23
895.082	56.32
895.253	15.36
895.423	35.84
895.594	-3.07
895.764	17.41
895.935	50.18
896.106	-21.5
896.276	-7.17
896.447	95.23
896.617	54.27
896.788	41.98
896.958	29.7
897.129	97.28
897.299	13.31
897.47	37.89
897.64	35.84
897.81	19.46
897.981	23.55
898.151	50.18
898.322	-25.6
898.492	19.46
898.662	-5.12
898.832	3.07
899.003	27.65
899.173	27.65
899.343	-39.94
899.513	-50.18
