Data from USB4F104151__60__11-30-48-360.txt Node

Date: Fri Mar 14 11:30:48 EDT 2025
User: louis
Spectrometer: USB4F10415
Trigger mode: 4
Integration Time (sec): 5.000000E-2
Scans to average: 1
Electric dark correction enabled: true
Nonlinearity correction enabled: false
Boxcar width: 0
XAxis mode: Wavelengths
Number of Pixels in Spectrum: 3648
>>>>>Begin Spectral Data<<<<<
178.204	-87.89
178.424	-87.89
178.644	-87.89
178.864	-169.81
179.084	-147.28
179.304	6.31
179.524	-30.55
179.744	14.51
179.964	86.19
180.184	-14.17
180.404	24.75
180.624	10.41
180.844	30.89
181.064	-100.18
181.283	10.41
181.503	-61.27
181.723	22.7
181.943	-44.88
182.163	45.23
182.383	10.41
182.602	26.79
182.822	4.27
183.042	2.22
183.262	51.37
183.482	28.84
183.701	-8.02
183.921	59.56
184.141	51.37
184.361	98.47
184.58	34.99
184.8	41.13
185.02	2.22
185.239	63.66
185.459	28.84
185.679	14.51
185.898	6.31
186.118	69.8
186.338	67.75
186.557	63.66
186.777	-8.02
186.997	12.46
187.216	61.61
187.436	69.8
187.655	8.36
187.875	67.75
188.095	32.94
188.314	77.99
188.534	98.47
188.753	-14.17
188.973	10.41
189.192	26.79
189.412	34.99
189.631	-1.88
189.851	-8.02
190.07	86.19
190.29	-3.93
190.509	-8.02
190.729	100.52
190.948	-5.97
191.168	96.43
191.387	106.67
191.607	2.22
191.826	-8.02
192.045	28.84
192.265	12.46
192.484	20.65
192.704	-42.84
192.923	-20.31
193.142	75.95
193.362	57.51
193.581	-5.97
193.8	45.23
194.02	67.75
194.239	26.79
194.458	125.1
194.678	55.47
194.897	12.46
195.116	39.08
195.335	61.61
195.555	53.42
195.774	12.46
195.993	-8.02
196.212	61.61
196.432	4.27
196.651	45.23
196.87	24.75
197.089	69.8
197.308	114.86
197.528	-8.02
197.747	77.99
197.966	-28.5
198.185	28.84
198.404	-36.69
198.623	67.75
198.842	71.85
199.062	45.23
199.281	139.43
199.5	-44.88
199.719	118.95
199.938	41.13
200.157	69.8
200.376	63.66
200.595	10.41
200.814	10.41
201.033	-1.88
201.252	67.75
201.471	4.27
201.69	57.51
201.909	-28.5
202.128	45.23
202.347	69.8
202.566	32.94
202.785	12.46
203.004	-24.4
203.223	96.43
203.442	41.13
203.661	45.23
203.879	61.61
204.098	24.75
204.317	-12.12
204.536	77.99
204.755	65.71
204.974	100.52
205.193	10.41
205.411	77.99
205.63	67.75
205.849	20.65
206.068	4.27
206.287	8.36
206.505	106.67
206.724	-12.12
206.943	26.79
207.162	-34.64
207.381	55.47
207.599	24.75
207.818	57.51
208.037	-40.79
208.255	125.1
208.474	-46.93
208.693	77.99
208.911	-14.17
209.13	69.8
209.349	-3.93
209.567	41.13
209.786	37.03
210.005	59.56
210.223	53.42
210.442	49.32
210.661	45.23
210.879	43.18
211.098	59.56
211.316	24.75
211.535	51.37
211.753	39.08
211.972	67.75
212.191	-65.36
212.409	32.94
212.628	73.9
212.846	32.94
213.065	55.47
213.283	69.8
213.502	37.03
213.72	37.03
213.938	61.61
214.157	-5.97
214.375	69.8
214.594	4.27
214.812	51.37
215.031	-5.97
215.249	53.42
215.467	-36.69
215.686	-8.02
215.904	57.51
216.122	51.37
216.341	14.51
216.559	-55.12
216.778	-28.5
216.996	67.75
217.214	24.75
217.432	-16.21
217.651	59.56
217.869	84.14
218.087	108.71
218.306	24.75
218.524	59.56
218.742	28.84
218.96	41.13
219.179	43.18
219.397	82.09
219.615	143.53
219.833	8.36
220.051	53.42
220.27	75.95
220.488	69.8
220.706	80.04
220.924	-12.12
221.142	16.55
221.36	43.18
221.578	4.27
221.796	4.27
222.015	22.7
222.233	45.23
222.451	51.37
222.669	53.42
222.887	65.71
223.105	-28.5
223.323	61.61
223.541	-5.97
223.759	6.31
223.977	10.41
224.195	77.99
224.413	63.66
224.631	45.23
224.849	65.71
225.067	123.05
225.285	-12.12
225.503	10.41
225.721	-26.45
225.939	61.61
226.157	37.03
226.375	86.19
226.592	51.37
226.81	12.46
227.028	18.6
227.246	26.79
227.464	67.75
227.682	108.71
227.9	67.75
228.117	-1.88
228.335	-3.93
228.553	37.03
228.771	67.75
228.989	37.03
229.206	51.37
229.424	-3.93
229.642	-3.93
229.86	4.27
230.077	53.42
230.295	26.79
230.513	45.23
230.731	-16.21
230.948	28.84
231.166	61.61
231.384	51.37
231.601	57.51
231.819	100.52
232.037	-20.31
232.254	2.22
232.472	69.8
232.689	37.03
232.907	69.8
233.125	59.56
233.342	41.13
233.56	4.27
233.777	0.17
233.995	18.6
234.213	45.23
234.43	47.27
234.648	-20.31
234.865	-28.5
235.083	69.8
235.3	-1.88
235.518	90.28
235.735	69.8
235.953	55.47
236.17	65.71
236.388	47.27
236.605	-20.31
236.822	96.43
237.04	61.61
237.257	82.09
237.475	24.75
237.692	24.75
237.909	20.65
238.127	26.79
238.344	57.51
238.562	45.23
238.779	-55.12
238.996	-28.5
239.214	43.18
239.431	102.57
239.648	-53.08
239.865	102.57
240.083	26.79
240.3	43.18
240.517	26.79
240.735	53.42
240.952	98.47
241.169	157.86
241.386	39.08
241.603	26.79
241.821	0.17
242.038	4.27
242.255	98.47
242.472	26.79
242.689	71.85
242.907	41.13
243.124	55.47
243.341	61.61
243.558	-5.97
243.775	2.22
243.992	-44.88
244.209	67.75
244.426	45.23
244.643	63.66
244.86	-40.79
245.078	77.99
245.295	77.99
245.512	41.13
245.729	34.99
245.946	59.56
246.163	51.37
246.38	-38.74
246.597	10.41
246.814	26.79
247.031	-42.84
247.248	37.03
247.464	102.57
247.681	-69.46
247.898	41.13
248.115	127.14
248.332	-22.36
248.549	94.38
248.766	118.95
248.983	121
249.2	125.1
249.417	32.94
249.633	12.46
249.85	43.18
250.067	12.46
250.284	8.36
250.501	57.51
250.717	16.55
250.934	28.84
251.151	59.56
251.368	-34.64
251.585	77.99
251.801	69.8
252.018	28.84
252.235	92.33
252.451	45.23
252.668	67.75
252.885	110.76
253.102	16.55
253.318	53.42
253.535	47.27
253.752	6.31
253.968	-3.93
254.185	24.75
254.401	84.14
254.618	94.38
254.835	16.55
255.051	123.05
255.268	118.95
255.484	67.75
255.701	10.41
255.917	43.18
256.134	4.27
256.351	0.17
256.567	43.18
256.784	10.41
257	-28.5
257.217	108.71
257.433	16.55
257.65	61.61
257.866	32.94
258.082	22.7
258.299	2.22
258.515	45.23
258.732	20.65
258.948	14.51
259.165	59.56
259.381	20.65
259.597	-3.93
259.814	63.66
260.03	-28.5
260.246	61.61
260.463	77.99
260.679	59.56
260.895	26.79
261.112	-20.31
261.328	92.33
261.544	73.9
261.761	118.95
261.977	26.79
262.193	-14.17
262.409	-44.88
262.626	51.37
262.842	49.32
263.058	53.42
263.274	20.65
263.49	12.46
263.707	43.18
263.923	30.89
264.139	6.31
264.355	51.37
264.571	77.99
264.787	39.08
265.004	45.23
265.22	4.27
265.436	86.19
265.652	47.27
265.868	73.9
266.084	4.27
266.3	45.23
266.516	18.6
266.732	73.9
266.948	53.42
267.164	49.32
267.38	24.75
267.596	14.51
267.812	88.23
268.028	16.55
268.244	4.27
268.46	77.99
268.676	-5.97
268.892	63.66
269.108	86.19
269.324	26.79
269.54	-12.12
269.756	102.57
269.972	73.9
270.188	12.46
270.403	-14.17
270.619	73.9
270.835	65.71
271.051	86.19
271.267	-28.5
271.483	108.71
271.698	-3.93
271.914	-8.02
272.13	82.09
272.346	10.41
272.562	-12.12
272.777	94.38
272.993	10.41
273.209	67.75
273.425	69.8
273.64	39.08
273.856	51.37
274.072	-22.36
274.287	69.8
274.503	26.79
274.719	69.8
274.934	-30.55
275.15	32.94
275.366	92.33
275.581	20.65
275.797	4.27
276.012	8.36
276.228	28.84
276.444	57.51
276.659	55.47
276.875	-3.93
277.09	24.75
277.306	45.23
277.521	47.27
277.737	34.99
277.952	145.58
278.168	49.32
278.383	34.99
278.599	37.03
278.814	57.51
279.03	53.42
279.245	108.71
279.461	32.94
279.676	73.9
279.892	20.65
280.107	-67.41
280.322	20.65
280.538	94.38
280.753	32.94
280.969	86.19
281.184	69.8
281.399	98.47
281.615	86.19
281.83	47.27
282.045	28.84
282.26	14.51
282.476	69.8
282.691	41.13
282.906	26.79
283.122	37.03
283.337	71.85
283.552	-5.97
283.767	-53.08
283.983	112.81
284.198	6.31
284.413	59.56
284.628	24.75
284.843	45.23
285.058	98.47
285.274	75.95
285.489	43.18
285.704	32.94
285.919	12.46
286.134	53.42
286.349	51.37
286.564	51.37
286.779	26.79
286.995	57.51
287.21	45.23
287.425	63.66
287.64	37.03
287.855	12.46
288.07	-34.64
288.285	59.56
288.5	86.19
288.715	139.43
288.93	20.65
289.145	12.46
289.36	114.86
289.575	59.56
289.79	53.42
290.004	-18.26
290.219	147.62
290.434	12.46
290.649	14.51
290.864	47.27
291.079	45.23
291.294	-44.88
291.509	90.28
291.724	41.13
291.938	-12.12
292.153	0.17
292.368	-3.93
292.583	67.75
292.798	86.19
293.012	102.57
293.227	43.18
293.442	-3.93
293.657	55.47
293.871	86.19
294.086	20.65
294.301	28.84
294.516	20.65
294.73	4.27
294.945	-55.12
295.16	51.37
295.374	18.6
295.589	57.51
295.804	32.94
296.018	47.27
296.233	84.14
296.447	-30.55
296.662	-53.08
296.877	28.84
297.091	73.9
297.306	77.99
297.52	12.46
297.735	127.14
297.949	28.84
298.164	39.08
298.378	51.37
298.593	37.03
298.807	65.71
299.022	26.79
299.236	100.52
299.451	32.94
299.665	20.65
299.88	-5.97
300.094	6.31
300.309	4.27
300.523	41.13
300.737	37.03
300.952	84.14
301.166	-3.93
301.381	53.42
301.595	49.32
301.809	94.38
302.024	59.56
302.238	18.6
302.452	16.55
302.667	-3.93
302.881	118.95
303.095	75.95
303.309	18.6
303.524	-16.21
303.738	-14.17
303.952	8.36
304.166	69.8
304.381	-18.26
304.595	131.24
304.809	18.6
305.023	92.33
305.237	16.55
305.452	53.42
305.666	57.51
305.88	51.37
306.094	92.33
306.308	102.57
306.522	123.05
306.736	94.38
306.95	51.37
307.164	28.84
307.379	12.46
307.593	123.05
307.807	51.37
308.021	73.9
308.235	73.9
308.449	-73.56
308.663	37.03
308.877	67.75
309.091	57.51
309.305	26.79
309.519	-10.07
309.733	84.14
309.947	-14.17
310.161	12.46
310.374	94.38
310.588	96.43
310.802	-34.64
311.016	45.23
311.23	-20.31
311.444	14.51
311.658	10.41
311.872	51.37
312.085	51.37
312.299	77.99
312.513	45.23
312.727	100.52
312.941	-5.97
313.154	10.41
313.368	57.51
313.582	77.99
313.796	43.18
314.009	16.55
314.223	94.38
314.437	16.55
314.651	108.71
314.864	37.03
315.078	10.41
315.292	16.55
315.505	-12.12
315.719	110.76
315.933	28.84
316.146	37.03
316.36	30.89
316.573	94.38
316.787	20.65
317.001	4.27
317.214	4.27
317.428	-16.21
317.641	12.46
317.855	69.8
318.068	73.9
318.282	-1.88
318.495	-1.88
318.709	92.33
318.922	16.55
319.136	139.43
319.349	2.22
319.563	32.94
319.776	12.46
319.99	77.99
320.203	24.75
320.417	24.75
320.63	114.86
320.843	110.76
321.057	84.14
321.27	69.8
321.483	51.37
321.697	96.43
321.91	59.56
322.124	57.51
322.337	51.37
322.55	43.18
322.763	28.84
322.977	20.65
323.19	77.99
323.403	-8.02
323.617	43.18
323.83	12.46
324.043	-12.12
324.256	47.27
324.469	47.27
324.683	57.51
324.896	8.36
325.109	32.94
325.322	10.41
325.535	164.01
325.748	114.86
325.962	94.38
326.175	75.95
326.388	4.27
326.601	55.47
326.814	-36.69
327.027	94.38
327.24	116.9
327.453	-20.31
327.666	20.65
327.879	45.23
328.092	39.08
328.305	51.37
328.518	2.22
328.731	4.27
328.944	61.61
329.157	20.65
329.37	-61.27
329.583	135.34
329.796	61.61
330.009	16.55
330.222	80.04
330.435	100.52
330.648	135.34
330.861	69.8
331.073	34.99
331.286	57.51
331.499	75.95
331.712	84.14
331.925	65.71
332.138	118.95
332.35	53.42
332.563	-46.93
332.776	51.37
332.989	-18.26
333.202	-8.02
333.414	53.42
333.627	43.18
333.84	37.03
334.053	43.18
334.265	6.31
334.478	4.27
334.691	63.66
334.903	39.08
335.116	-16.21
335.329	37.03
335.541	18.6
335.754	86.19
335.966	26.79
336.179	18.6
336.392	51.37
336.604	90.28
336.817	57.51
337.029	65.71
337.242	86.19
337.454	51.37
337.667	-20.31
337.88	61.61
338.092	32.94
338.305	127.14
338.517	110.76
338.729	53.42
338.942	108.71
339.154	-14.17
339.367	45.23
339.579	16.55
339.792	2.22
340.004	90.28
340.217	24.75
340.429	90.28
340.641	73.9
340.854	-44.88
341.066	-30.55
341.278	86.19
341.491	159.91
341.703	20.65
341.915	65.71
342.128	51.37
342.34	112.81
342.552	82.09
342.764	16.55
342.977	49.32
343.189	106.67
343.401	69.8
343.613	-14.17
343.826	-14.17
344.038	-73.56
344.25	26.79
344.462	12.46
344.674	51.37
344.886	71.85
345.099	12.46
345.311	86.19
345.523	24.75
345.735	-32.6
345.947	110.76
346.159	49.32
346.371	65.71
346.583	37.03
346.795	118.95
347.007	30.89
347.219	-38.74
347.431	69.8
347.643	80.04
347.855	84.14
348.067	20.65
348.279	34.99
348.491	45.23
348.703	67.75
348.915	34.99
349.127	2.22
349.339	73.9
349.551	59.56
349.763	71.85
349.975	14.51
350.187	100.52
350.399	55.47
350.61	80.04
350.822	16.55
351.034	106.67
351.246	69.8
351.458	41.13
351.669	61.61
351.881	102.57
352.093	28.84
352.305	92.33
352.517	118.95
352.728	61.61
352.94	20.65
353.152	28.84
353.363	-10.07
353.575	57.51
353.787	110.76
353.999	12.46
354.21	123.05
354.422	49.32
354.633	34.99
354.845	41.13
355.057	20.65
355.268	28.84
355.48	57.51
355.692	82.09
355.903	26.79
356.115	-16.21
356.326	20.65
356.538	84.14
356.749	90.28
356.961	82.09
357.172	41.13
357.384	2.22
357.595	135.34
357.807	32.94
358.018	59.56
358.23	59.56
358.441	37.03
358.653	157.86
358.864	180.39
359.075	37.03
359.287	125.1
359.498	39.08
359.709	123.05
359.921	-5.97
360.132	37.03
360.344	69.8
360.555	4.27
360.766	-36.69
360.977	94.38
361.189	-3.93
361.4	10.41
361.611	84.14
361.823	84.14
362.034	43.18
362.245	-26.45
362.456	61.61
362.667	69.8
362.879	2.22
363.09	30.89
363.301	90.28
363.512	47.27
363.723	67.75
363.935	86.19
364.146	24.75
364.357	-38.74
364.568	164.01
364.779	-22.36
364.99	114.86
365.201	55.47
365.412	77.99
365.623	53.42
365.834	75.95
366.045	82.09
366.256	0.17
366.467	39.08
366.678	8.36
366.889	65.71
367.1	69.8
367.311	102.57
367.522	22.7
367.733	94.38
367.944	118.95
368.155	51.37
368.366	8.36
368.577	49.32
368.788	45.23
368.999	32.94
369.209	102.57
369.42	45.23
369.631	90.28
369.842	53.42
370.053	12.46
370.264	67.75
370.474	86.19
370.685	69.8
370.896	34.99
371.107	88.23
371.317	57.51
371.528	86.19
371.739	-20.31
371.95	24.75
372.16	164.01
372.371	32.94
372.582	57.51
372.792	157.86
373.003	104.62
373.214	43.18
373.424	106.67
373.635	102.57
373.846	127.14
374.056	24.75
374.267	30.89
374.477	34.99
374.688	37.03
374.898	-10.07
375.109	100.52
375.319	37.03
375.53	155.82
375.74	86.19
375.951	43.18
376.161	118.95
376.372	80.04
376.582	39.08
376.793	59.56
377.003	116.9
377.214	32.94
377.424	129.19
377.635	71.85
377.845	32.94
378.055	94.38
378.266	28.84
378.476	73.9
378.686	84.14
378.897	71.85
379.107	53.42
379.317	96.43
379.528	104.62
379.738	41.13
379.948	73.9
380.158	55.47
380.369	61.61
380.579	157.86
380.789	108.71
380.999	77.99
381.21	86.19
381.42	139.43
381.63	2.22
381.84	133.29
382.05	94.38
382.261	133.29
382.471	131.24
382.681	121
382.891	92.33
383.101	37.03
383.311	-12.12
383.521	63.66
383.731	102.57
383.941	82.09
384.151	77.99
384.361	61.61
384.571	20.65
384.781	57.51
384.991	188.58
385.201	149.67
385.411	108.71
385.621	6.31
385.831	102.57
386.041	6.31
386.251	77.99
386.461	143.53
386.671	49.32
386.881	73.9
387.091	102.57
387.301	94.38
387.511	135.34
387.72	32.94
387.93	34.99
388.14	34.99
388.35	37.03
388.56	180.39
388.769	110.76
388.979	16.55
389.189	84.14
389.399	37.03
389.609	135.34
389.818	94.38
390.028	51.37
390.238	127.14
390.447	26.79
390.657	145.58
390.867	86.19
391.076	55.47
391.286	155.82
391.496	61.61
391.705	45.23
391.915	98.47
392.125	90.28
392.334	125.1
392.544	69.8
392.753	110.76
392.963	-28.5
393.172	86.19
393.382	28.84
393.591	39.08
393.801	53.42
394.01	118.95
394.22	188.58
394.429	61.61
394.639	69.8
394.848	90.28
395.058	45.23
395.267	82.09
395.477	176.3
395.686	43.18
395.895	159.91
396.105	192.68
396.314	94.38
396.524	20.65
396.733	88.23
396.942	100.52
397.152	151.72
397.361	100.52
397.57	147.62
397.78	145.58
397.989	80.04
398.198	170.15
398.407	133.29
398.617	151.72
398.826	94.38
399.035	194.73
399.244	114.86
399.453	127.14
399.663	143.53
399.872	49.32
400.081	92.33
400.29	121
400.499	116.9
400.708	166.06
400.917	145.58
401.127	57.51
401.336	73.9
401.545	172.2
401.754	153.77
401.963	168.1
402.172	116.9
402.381	82.09
402.59	94.38
402.799	135.34
403.008	200.87
403.217	131.24
403.426	100.52
403.635	168.1
403.844	188.58
404.053	141.48
404.262	116.9
404.471	307.37
404.68	153.77
404.888	127.14
405.097	94.38
405.306	188.58
405.515	225.45
405.724	159.91
405.933	241.83
406.142	209.06
406.35	209.06
406.559	258.21
406.768	215.21
406.977	290.98
407.185	196.78
407.394	350.37
407.603	239.78
407.812	274.6
408.02	264.36
408.229	196.78
408.438	256.17
408.646	235.69
408.855	233.64
409.064	223.4
409.272	252.07
409.481	344.23
409.69	303.27
409.898	288.93
410.107	395.43
410.315	348.33
410.524	315.56
410.733	430.24
410.941	336.04
411.15	393.38
411.358	364.71
411.567	469.16
411.775	444.58
411.984	438.44
412.192	450.72
412.401	493.73
412.609	524.45
412.818	506.02
413.026	520.35
413.234	573.6
413.443	559.27
413.651	573.6
413.86	542.88
414.068	678.05
414.276	710.82
414.485	589.99
414.693	823.45
414.901	716.96
415.11	731.3
415.318	745.63
415.526	796.83
415.734	839.84
415.943	860.32
416.151	923.8
416.359	850.08
416.567	907.42
416.776	927.9
416.984	985.24
417.192	1011.87
417.4	921.76
417.608	999.58
417.817	1077.4
418.025	1104.03
418.233	1296.53
418.441	1165.46
418.649	1298.58
418.857	1405.08
419.065	1417.37
419.273	1368.21
419.481	1425.56
419.689	1546.39
419.897	1484.95
420.105	1640.59
420.313	1699.98
420.521	1738.9
420.729	1738.9
420.937	1714.32
421.145	1849.49
421.353	1876.11
421.561	2062.48
421.769	2078.86
421.977	2097.29
422.185	2152.59
422.393	2207.88
422.601	2381.96
422.809	2312.33
423.017	2437.25
423.224	2619.52
423.432	2648.19
423.64	2666.63
423.848	2957.44
424.056	2861.18
424.263	3108.99
424.471	2994.3
424.679	3090.56
424.887	3215.48
425.094	3301.5
425.302	3264.63
425.51	3557.49
425.718	3592.31
425.925	3694.71
426.133	3674.23
426.341	4071.53
426.548	4237.42
426.756	4145.26
426.964	4290.67
427.171	4542.57
427.379	4581.48
427.586	4501.61
427.794	4780.13
428.001	4872.29
428.209	5169.24
428.417	5195.87
428.624	5560.41
428.832	5584.98
429.039	5550.17
429.247	5709.91
429.454	6031.44
429.662	6303.82
429.869	5986.38
430.076	6479.94
430.284	6160.46
430.491	6606.92
430.699	6907.97
430.906	7000.13
431.114	6981.7
431.321	7032.9
431.528	7407.67
431.736	7796.79
431.943	8106.03
432.15	7944.24
432.358	8036.4
432.565	8456.23
432.772	8542.25
432.979	8892.45
433.187	9289.76
433.394	9158.69
433.601	9721.88
433.808	9760.79
434.016	9670.68
434.223	10000.4
434.43	10747.91
434.637	10616.84
434.844	11149.31
435.052	11438.08
435.259	11198.46
435.466	11452.41
435.673	11405.31
435.88	12177.39
436.087	12675.05
436.294	12529.64
436.501	12212.21
436.708	12834.79
436.915	13086.69
437.122	13848.54
437.329	13486.04
437.537	13893.59
437.743	14075.86
437.95	14327.76
438.157	14872.52
438.364	15527.87
438.571	15622.08
438.778	15538.11
438.985	17059.75
439.192	16306.1
439.399	16897.96
439.606	16543.66
439.813	17055.65
440.02	18642.83
440.227	18065.3
440.433	17690.52
440.64	18503.57
440.847	18388.88
441.054	18778
441.261	20279.16
441.467	19732.35
441.674	20270.97
441.881	21159.78
442.088	21137.26
442.294	20662.13
442.501	21266.28
442.708	21759.84
442.914	22812.49
443.121	23650.11
443.328	22865.74
443.534	24414.01
443.741	24004.41
443.948	23400.26
444.154	25333.54
444.361	25589.54
444.568	25378.6
444.774	25155.37
444.981	25716.51
445.187	26347.29
445.394	27236.11
445.6	27037.45
445.807	29716.2
446.013	28415.74
446.22	28944.11
446.426	29941.47
446.633	30170.85
446.839	31303.37
447.046	30389.98
447.252	31563.47
447.459	31422.16
447.665	31360.72
447.871	32800.44
448.078	34463.39
448.284	32849.59
448.491	33545.9
448.697	34795.16
448.903	35432.08
449.11	35643.02
449.316	34899.61
449.522	35681.93
449.728	36501.12
449.935	36386.43
450.141	36605.56
450.347	37713.52
450.553	36599.42
450.76	37074.55
450.966	38327.91
451.172	37545.58
451.378	38544.99
451.584	37805.67
451.791	38708.83
451.997	38332
452.203	39093.85
452.409	39063.13
452.615	39433.81
452.821	37717.61
453.027	37410.42
453.233	39376.47
453.44	37449.33
453.646	37953.13
453.852	38057.57
454.058	38590.05
454.264	37023.35
454.47	38004.33
454.676	37326.45
454.882	38235.75
455.088	35192.47
455.294	35716.75
455.5	36251.27
455.705	36202.11
455.911	34813.59
456.117	34154.15
456.323	33838.76
456.529	32016.07
456.735	33255.09
456.941	32384.7
457.147	31979.2
457.352	30985.94
457.558	30584.54
457.764	30525.14
457.97	30054.11
458.176	29527.78
458.381	29581.03
458.587	27920.13
458.793	27862.79
458.999	26267.42
459.204	28493.56
459.41	27744
459.616	25775.91
459.821	25526.05
460.027	25628.45
460.233	25173.8
460.438	23783.23
460.644	23951.17
460.85	23109.45
461.055	22681.42
461.261	22802.25
461.466	21180.26
461.672	20256.63
461.878	21876.57
462.083	20553.59
462.289	19912.57
462.494	19822.46
462.7	18929.55
462.905	18509.71
463.111	19070.86
463.316	19353.48
463.522	18577.3
463.727	18870.15
463.932	18573.2
464.138	18177.94
464.343	18593.68
464.549	18143.13
464.754	18509.71
464.959	18798.48
465.165	18255.76
465.37	17440.67
465.575	17219.49
465.781	17696.67
465.986	17880.99
466.191	17366.95
466.397	16873.39
466.602	16093.11
466.807	16746.41
467.012	16779.18
467.218	16478.13
467.423	16271.28
467.628	16404.4
467.833	17141.67
468.038	16402.35
468.244	16050.1
468.449	16754.6
468.654	15962.04
468.859	16279.47
469.064	16062.39
469.269	15638.46
469.474	15347.65
469.679	15722.43
469.885	15263.68
470.09	15480.77
470.295	15302.59
470.5	14929.86
470.705	15300.55
470.91	14712.78
471.115	14557.13
471.32	14710.73
471.525	14862.28
471.73	14520.27
471.935	14399.44
472.139	13805.53
472.344	13912.02
472.549	13637.59
472.754	13764.57
472.959	13545.44
473.164	13166.56
473.369	13027.3
473.574	13670.36
473.778	13510.62
473.983	13275.1
474.188	13160.42
474.393	12447.72
474.598	12615.66
474.802	12503.02
475.007	12335.09
475.212	12425.2
475.417	11943.92
475.621	11845.62
475.826	11956.21
476.031	11825.14
476.235	11632.63
476.44	11698.17
476.645	11831.29
476.849	11550.71
477.054	11276.29
477.259	11132.93
477.463	11288.57
477.668	10895.36
477.872	11061.25
478.077	10657.8
478.282	10608.65
478.486	10577.93
478.691	10635.27
478.895	10430.48
479.1	10205.2
479.304	10366.99
479.509	9973.78
479.713	10328.08
479.918	10231.82
480.122	9914.39
480.326	10188.82
480.531	10047.51
480.735	9820.18
480.94	9895.96
481.144	10266.64
481.348	9768.98
481.553	9662.49
481.757	9512.99
481.961	9816.08
482.166	10037.27
482.37	9758.74
482.574	9592.86
482.778	9715.73
482.983	9717.78
483.187	9537.56
483.391	9650.2
483.595	9650.2
483.8	9635.86
484.004	9564.18
484.208	9742.36
484.412	9639.96
484.616	9809.94
484.821	9633.82
485.025	9396.25
485.229	9642.01
485.433	9496.6
485.637	9424.92
485.841	9543.71
486.045	9463.83
486.249	9701.4
486.453	9615.38
486.657	9449.5
486.861	9564.18
487.065	9424.92
487.269	9750.55
487.473	9375.77
487.677	9572.38
487.881	9637.91
488.085	9431.07
488.289	9627.67
488.493	9543.71
488.697	9793.56
488.901	9619.48
489.105	9478.17
489.309	9603.1
489.512	9744.41
489.716	9740.31
489.92	9713.69
490.124	9662.49
490.328	9869.33
490.531	9824.28
490.735	9752.6
490.939	9834.52
491.143	9885.72
491.346	9789.46
491.55	10108.94
491.754	10102.8
491.958	10049.55
492.161	9889.81
492.365	10143.76
492.569	10027.03
492.772	10037.27
492.976	10323.98
493.18	10108.94
493.383	10371.08
493.587	10350.6
493.79	10457.1
493.994	10233.87
494.197	10584.07
494.401	10754.05
494.605	10606.6
494.808	10792.97
495.012	10766.34
495.215	11114.5
495.419	10981.38
495.622	11010.05
495.825	11102.21
496.029	11225.09
496.232	11366.4
496.436	11384.83
496.639	11786.23
496.843	11573.24
497.046	11798.52
497.249	12197.87
497.453	12152.82
497.656	11929.59
497.859	12062.71
498.063	12287.98
498.266	12484.59
498.469	12691.43
498.673	12658.67
498.876	12640.23
499.079	12957.67
499.282	13015.01
499.485	13408.22
499.689	13361.12
499.892	13512.67
500.095	13783
500.298	13834.2
500.501	13903.83
500.705	14028.76
500.908	14286.8
501.111	14170.07
501.314	14745.55
501.517	14751.69
501.72	14804.94
501.923	15001.54
502.126	15445.95
502.329	15448
502.532	15599.55
502.735	15775.67
502.938	15914.94
503.141	16037.81
503.344	16199.6
503.547	16197.56
503.75	16680.88
503.953	16885.67
504.156	16848.81
504.359	17067.94
504.562	17291.17
504.765	17897.37
504.968	17649.57
505.17	17981.34
505.373	17852.31
505.576	18612.11
505.779	18552.72
505.982	18769.8
506.185	19287.94
506.387	19122.05
506.59	19296.13
506.793	19808.12
506.996	19982.2
507.198	20330.36
507.401	20440.95
507.604	20762.48
507.807	21069.67
508.009	21260.13
508.212	20911.98
508.415	21411.68
508.617	21784.41
508.82	21938.01
509.022	21950.3
509.225	22140.76
509.428	22636.37
509.63	22744.91
509.833	23291.72
510.035	23637.83
510.238	23650.11
510.44	24151.87
510.643	24500.02
510.845	24878.9
511.048	24532.79
511.25	25138.99
511.453	25184.04
511.655	26281.75
511.858	25954.08
512.06	26332.95
512.262	26279.71
512.465	26550.04
512.667	27352.84
512.87	27668.23
513.072	27414.28
513.274	28104.45
513.477	28569.33
513.679	28710.64
513.881	29126.38
514.084	29423.34
514.286	29812.45
514.488	29898.47
514.69	30668.5
514.893	30996.18
515.095	31317.71
515.297	31518.41
515.499	31733.45
515.701	31895.24
515.904	32749.24
516.106	32900.79
516.308	33447.6
516.51	33865.38
516.712	34215.58
516.914	34735.77
517.116	35071.64
517.318	35708.55
517.52	35503.76
517.722	36290.18
517.925	36472.45
518.127	36933.24
518.329	37281.39
518.531	37762.67
518.733	38420.06
518.935	39102.04
519.136	38393.44
519.338	39478.86
519.54	40107.59
519.742	40508.99
519.944	40681.02
520.146	41334.32
520.348	41707.05
520.55	42147.37
520.752	42384.93
520.954	43251.22
521.155	43195.93
521.357	43974.16
521.559	44611.07
521.761	45471.22
521.963	45450.74
522.164	45655.54
522.366	46200.3
522.568	46921.18
522.77	47298.01
522.971	47889.87
523.173	47936.98
523.375	48627.14
523.576	48432.58
523.778	48768.45
523.98	49620.41
524.181	50144.69
524.383	50386.35
524.584	51228.06
524.786	51295.64
524.988	51344.8
525.189	51996.05
525.391	52477.32
525.592	53091.71
525.794	53638.52
525.995	54015.35
526.197	54183.28
526.398	54130.03
526.6	54975.84
526.801	55334.24
527.003	55276.9
527.204	55811.42
527.406	56186.19
527.607	56278.35
527.808	56892.74
528.01	56415.57
528.211	57212.23
528.412	58131.76
528.614	58565.93
528.815	58271.03
529.016	59176.23
529.218	58791.21
529.419	59438.37
529.62	59100.45
529.822	59452.7
530.023	59684.12
530.224	59790.62
530.425	60065.05
530.626	60366.1
530.828	60204.31
531.029	61109.51
531.23	60675.34
531.431	61136.13
531.632	61441.28
531.833	61971.71
532.035	61465.86
532.236	61947.13
532.437	62375.15
532.638	61916.41
532.839	62680.3
533.04	62510.32
533.241	62145.78
533.442	62852.33
533.643	63247.59
533.844	62895.34
534.045	63231.21
534.246	62790.89
534.447	63436
534.648	63272.17
534.849	63526.11
535.05	63472.87
535.251	63780.06
535.451	63452.39
535.652	63460.58
535.853	63861.98
536.054	64136.41
536.255	64136.41
536.456	63964.38
536.657	64136.41
536.857	64136.41
537.058	64136.41
537.259	64136.41
537.46	64136.41
537.66	64136.41
537.861	64136.41
538.062	64136.41
538.263	64136.41
538.463	64136.41
538.664	64136.41
538.865	64136.41
539.065	64136.41
539.266	64136.41
539.466	64136.41
539.667	64136.41
539.868	64136.41
540.068	64136.41
540.269	64136.41
540.469	64136.41
540.67	64136.41
540.87	64136.41
541.071	64136.41
541.271	64136.41
541.472	64136.41
541.672	64136.41
541.873	64136.41
542.073	64136.41
542.274	64136.41
542.474	64136.41
542.675	64136.41
542.875	64136.41
543.075	64136.41
543.276	64136.41
543.476	64136.41
543.676	64136.41
543.877	64136.41
544.077	64136.41
544.277	64136.41
544.478	64136.41
544.678	64136.41
544.878	64136.41
545.078	64136.41
545.279	64136.41
545.479	64136.41
545.679	64136.41
545.879	64136.41
546.079	64136.41
546.28	64136.41
546.48	64136.41
546.68	64136.41
546.88	64136.41
547.08	64136.41
547.28	64136.41
547.48	64136.41
547.68	64136.41
547.88	64136.41
548.081	64136.41
548.281	64136.41
548.481	64136.41
548.681	64136.41
548.881	64136.41
549.081	64136.41
549.28	64136.41
549.48	64136.41
549.68	64136.41
549.88	64136.41
550.08	64136.41
550.28	64136.41
550.48	64136.41
550.68	64136.41
550.88	64136.41
551.08	64136.41
551.279	64136.41
551.479	64136.41
551.679	64136.41
551.879	64136.41
552.079	64136.41
552.278	64136.41
552.478	64136.41
552.678	64136.41
552.878	64136.41
553.077	64136.41
553.277	64136.41
553.477	64136.41
553.676	64136.41
553.876	64136.41
554.076	64136.41
554.275	64136.41
554.475	63800.54
554.674	64136.41
554.874	64136.41
555.074	64136.41
555.273	64136.41
555.473	64136.41
555.672	63931.61
555.872	64136.41
556.071	63861.98
556.271	64136.41
556.47	63804.64
556.67	63632.61
556.869	63648.99
557.068	64070.87
557.268	63329.51
557.467	63380.71
557.667	63476.96
557.866	62840.04
558.065	62825.71
558.265	62952.68
558.464	62668.01
558.663	63091.94
558.863	62143.73
559.062	62911.72
559.261	61764.86
559.461	62805.23
559.66	61553.92
559.859	62129.4
560.058	61338.88
560.258	62108.92
560.457	60980.49
560.656	61586.69
560.855	61400.32
561.054	61691.13
561.253	60650.77
561.453	60919.05
561.652	60855.56
561.851	60732.68
562.05	60718.35
562.249	60325.14
562.448	60527.89
562.647	60237.08
562.846	59536.67
563.045	59614.49
563.244	58506.54
563.443	59847.96
563.642	58430.77
563.841	59192.61
564.04	58228.02
564.239	58987.81
564.438	58058.04
564.637	57840.95
564.836	58154.29
565.035	57267.52
565.234	57656.63
565.432	57724.22
565.631	57126.21
565.83	57058.63
566.029	56698.19
566.228	56390.99
566.427	56317.26
566.625	55983.44
566.824	55506.27
567.023	55829.85
567.222	54613.35
567.42	55151.97
567.619	55014.76
567.818	54787.43
568.016	54463.85
568.215	54445.42
568.414	54170.99
568.612	54508.91
568.811	53556.6
569.01	53775.73
569.208	52678.02
569.407	53417.34
569.605	52280.72
569.804	53083.52
570.002	51819.92
570.201	52172.17
570.4	51697.05
570.598	51486.11
570.797	51215.77
570.995	50967.97
571.193	50464.17
571.392	51070.37
571.59	50431.4
571.789	50716.07
571.987	50191.79
572.186	49821.11
572.384	49579.45
572.582	49372.6
572.781	49264.06
572.979	48084.43
573.177	48473.54
573.376	49059.26
573.574	48190.92
573.772	48240.07
573.971	48039.37
574.169	47601.11
574.367	46915.04
574.565	47496.66
574.763	46841.31
574.962	46626.28
575.16	46474.73
575.358	47013.34
575.556	45743.6
575.754	46779.87
575.952	45493.75
576.151	45925.87
576.349	45278.71
576.547	45157.88
576.745	45039.1
576.943	45213.18
577.141	44635.65
577.339	44529.16
577.537	44389.89
577.735	44504.58
577.933	43914.76
578.131	44017.16
578.329	43482.64
578.527	43566.61
578.725	43564.56
578.923	43623.95
579.121	42954.27
579.319	42921.5
579.516	43087.39
579.714	42038.83
579.912	42223.14
580.11	42243.62
580.308	42034.73
580.506	42194.47
580.704	41481.78
580.901	42028.59
581.099	41854.51
581.297	41309.75
581.495	40779.32
581.692	40810.04
581.89	40658.49
582.088	40840.76
582.285	40613.44
582.483	40959.55
582.681	40402.5
582.878	39927.37
583.076	39747.15
583.274	40136.26
583.471	39511.63
583.669	40033.86
583.866	39126.61
584.064	39495.25
584.262	39237.2
584.459	39065.17
584.657	38817.37
584.854	39122.52
585.052	37930.6
585.249	38633.05
585.447	38442.59
585.644	37856.87
585.841	38116.97
586.039	38352.48
586.236	37158.52
586.434	37385.84
586.631	37164.66
586.828	37484.14
587.026	37498.48
587.223	36974.2
587.42	36535.93
587.618	37086.84
587.815	36392.58
588.012	36503.17
588.21	36269.7
588.407	36476.54
588.604	36173.44
588.801	36077.19
588.999	35780.23
589.196	35870.34
589.393	35806.86
589.59	35653.26
589.787	35296.91
589.984	34784.92
590.182	35341.97
590.379	34928.28
590.576	34936.47
590.773	34678.43
590.97	34479.77
591.167	34850.45
591.364	33986.21
591.561	34379.42
591.758	33834.66
591.955	33785.51
592.152	33810.09
592.349	33732.26
592.546	33470.12
592.743	33570.47
592.94	33005.24
593.137	33595.05
593.334	33234.61
593.531	32894.64
593.727	33060.53
593.924	32933.56
594.121	32704.18
594.318	32827.06
594.515	32124.61
594.712	32351.93
594.908	32009.92
595.105	32085.7
595.302	31807.17
595.499	32108.22
595.696	31766.21
595.892	31655.62
596.089	31823.56
596.286	31545.03
596.482	31565.51
596.679	31112.91
596.876	31170.26
597.072	30994.13
597.269	30930.64
597.466	30637.78
597.662	30688.98
597.859	30529.24
598.055	30602.97
598.252	30324.44
598.448	30426.84
598.645	30238.43
598.841	29734.63
599.038	30009.06
599.234	29896.42
599.431	29669.09
599.627	29654.76
599.824	29912.8
600.02	29492.97
600.217	29456.11
600.413	29409
600.609	29177.58
600.806	28983.02
601.002	29267.69
601.198	28929.78
601.395	29163.25
601.591	28600.05
601.787	28907.25
601.984	28301.05
602.18	28792.56
602.376	28208.89
602.572	28303.1
602.769	28251.9
602.965	28296.95
603.161	28057.34
603.357	27952.9
603.553	27608.84
603.75	27725.57
603.946	27774.72
604.142	27418.38
604.338	27031.31
604.534	27352.84
604.73	27143.95
604.926	26892.05
605.122	26943.25
605.318	26765.07
605.514	26703.64
605.71	26416.92
605.906	26574.61
606.102	26500.89
606.298	26339.1
606.494	26130.2
606.69	26269.47
606.886	26210.07
607.082	25706.27
607.278	26375.96
607.474	25745.19
607.67	25782.05
607.866	25734.95
608.062	25550.63
608.257	25536.29
608.453	25274.15
608.649	25573.16
608.845	25251.63
609.041	24856.37
609.236	25106.22
609.432	25159.47
609.628	25212.71
609.824	24862.51
610.019	24702.77
610.215	24885.04
610.411	24676.15
610.606	24581.94
610.802	24375.09
610.998	24311.61
611.193	24442.68
611.389	24354.62
611.584	24321.85
611.78	24121.15
611.976	24160.06
612.171	24264.5
612.367	24100.67
612.562	23803.71
612.758	23594.82
612.953	23770.94
613.149	24102.71
613.344	23318.34
613.539	23742.27
613.735	23629.63
613.93	23586.63
614.126	23267.14
614.321	23826.24
614.517	23394.12
614.712	22968.14
614.907	22814.54
615.103	22925.13
615.298	22955.85
615.493	23050.06
615.688	22835.02
615.884	23164.75
616.079	22851.41
616.274	22755.15
616.47	22263.64
616.665	22423.38
616.86	22185.82
617.055	22407
617.25	22134.62
617.445	22460.24
617.641	21903.2
617.836	22138.71
618.031	21712.74
618.226	22097.75
618.421	21872.48
618.616	21833.57
618.811	21546.85
619.006	21935.96
619.201	21231.46
619.396	21471.08
619.591	21141.35
619.786	21311.33
619.981	20909.93
620.176	21264.23
620.371	20926.32
620.566	20748.14
620.761	20838.25
620.956	20897.64
621.151	20520.82
621.346	20479.86
621.541	20137.85
621.735	20402.04
621.93	19937.15
622.125	20053.88
622.32	19922.81
622.515	19830.65
622.709	19836.8
622.904	19498.88
623.099	19525.5
623.294	19459.97
623.488	19320.71
623.683	19326.85
623.878	18913.16
624.072	18972.55
624.267	19021.7
624.462	18810.76
624.656	18565.01
624.851	18763.66
625.046	18524.05
625.24	18509.71
625.435	18349.97
625.629	18216.85
625.824	18091.93
626.018	18132.89
626.213	17588.13
626.407	17555.36
626.602	17670.05
626.796	17780.64
626.991	17614.75
627.185	17414.05
627.38	17305.51
627.574	17121.19
627.768	17131.43
627.963	17278.88
628.157	16805.8
628.352	16877.48
628.546	16723.88
628.74	17006.5
628.935	16730.03
629.129	16658.35
629.323	16338.87
629.517	16265.14
629.712	16099.25
629.906	16168.88
630.1	15941.56
630.294	16021.43
630.489	15806.39
630.683	16373.68
630.877	15605.69
631.071	15611.84
631.265	15560.64
631.459	15595.45
631.653	15421.38
631.848	15441.86
632.042	15448
632.236	15181.76
632.43	14976.97
632.624	15378.37
632.818	14999.49
633.012	14669.77
633.206	14561.23
633.4	14901.19
633.594	14389.2
633.788	14755.79
633.982	14532.56
634.176	14493.65
634.369	14434.25
634.563	14458.83
634.757	14141.39
634.951	14155.73
635.145	14008.28
635.339	14053.33
635.533	13703.13
635.726	13805.53
635.92	13516.76
636.114	13461.47
636.308	13451.23
636.501	13565.92
636.695	13432.8
636.889	13397.98
637.083	13023.2
637.276	13019.11
637.47	13066.21
637.664	12926.95
637.857	12967.91
638.051	12746.73
638.244	12568.55
638.438	12750.82
638.632	12517.36
638.825	12300.27
639.019	12408.81
639.212	12326.89
639.406	12257.26
639.599	12048.37
639.793	12163.06
639.986	12083.19
640.18	11819
640.373	11886.58
640.567	11784.18
640.76	11804.66
640.954	11638.78
641.147	11386.88
641.34	11554.81
641.534	11288.57
641.727	11489.28
641.92	11421.69
642.114	11286.53
642.307	11051.01
642.5	10979.33
642.694	10878.98
642.887	10735.62
643.08	11020.29
643.273	10981.38
643.467	10659.85
643.66	10498.06
643.853	10627.08
644.046	10444.81
644.239	10512.39
644.432	10350.6
644.626	10442.76
644.819	10072.08
645.012	10260.49
645.205	10414.09
645.398	10131.47
645.591	9830.42
645.784	10086.42
645.977	9994.26
646.17	9965.59
646.363	9654.3
646.556	9707.54
646.749	9510.94
646.942	9662.49
647.135	9627.67
647.328	9619.48
647.521	9568.28
647.714	9406.49
647.907	9375.77
648.099	9426.97
648.292	9351.2
648.485	9162.78
648.678	8908.83
648.871	9285.66
649.064	9142.3
649.256	8968.23
649.449	9007.14
649.642	8941.6
649.835	8849.44
650.027	8874.02
650.22	8820.77
650.413	8544.3
650.605	8658.98
650.798	8630.31
650.991	8489
651.183	8437.8
651.376	8392.75
651.568	8587.3
651.761	8441.9
651.954	8544.3
652.146	8427.56
652.339	8327.21
652.531	8192.05
652.724	8253.48
652.916	7956.53
653.109	8001.58
653.301	8103.98
653.494	8300.59
653.686	8038.45
653.879	8218.67
654.071	8069.17
654.263	7913.52
654.456	7841.84
654.648	7788.6
654.84	7770.16
655.033	7759.92
655.225	7620.66
655.417	7680.05
655.61	7770.16
655.802	7745.59
655.994	7686.2
656.186	7655.48
656.379	7460.92
656.571	7581.75
656.763	7467.06
656.955	7331.9
657.148	7424.06
657.34	7372.86
657.532	7350.33
657.724	7340.09
657.916	7131.2
658.108	7407.67
658.3	7172.16
658.492	7335.99
658.684	6942.78
658.876	7174.21
659.068	7172.16
659.26	7032.9
659.452	6948.93
659.644	7120.96
659.836	7065.66
660.028	6983.74
660.22	6838.34
660.412	6959.17
660.604	6725.7
660.796	6854.72
660.988	6750.28
661.18	6795.33
661.372	6654.02
661.563	6811.71
661.755	6588.49
661.947	6553.67
662.139	6434.89
662.331	6445.13
662.522	6459.46
662.714	6500.42
662.906	6527.05
663.097	6332.49
663.289	6410.31
663.481	6545.48
663.673	6406.22
663.864	6481.99
664.056	6357.07
664.247	6455.37
664.439	6119.5
664.631	6285.39
664.822	6434.89
665.014	6299.72
665.205	6127.69
665.397	6275.15
665.588	6266.96
665.78	6182.99
665.971	6269
666.163	6207.56
666.354	6217.8
666.546	6000.72
666.737	6133.84
666.929	6146.12
667.12	6236.24
667.311	6113.36
667.503	6082.64
667.694	5943.38
667.885	5980.24
668.077	6260.81
668.268	6019.15
668.459	6025.29
668.651	5793.87
668.842	6088.78
669.033	5877.84
669.224	5939.28
669.416	5888.08
669.607	5894.22
669.798	5920.85
669.989	5974.1
670.18	5967.95
670.371	5959.76
670.563	5910.61
670.754	6010.96
670.945	5775.44
671.136	5816.4
671.327	6013.01
671.518	5970
671.709	5838.93
671.9	5892.18
672.091	5967.95
672.282	6039.63
672.473	5949.52
672.664	5998.67
672.855	5935.18
673.046	6021.2
673.237	6000.72
673.428	6008.91
673.619	6006.86
673.809	5912.66
674	5935.18
674.191	5982.29
674.382	5916.75
674.573	6111.31
674.764	6058.06
674.954	6086.73
675.145	5926.99
675.336	6056.01
675.527	5965.9
675.717	6094.93
675.908	5992.53
676.099	6008.91
676.289	6021.2
676.48	6068.3
676.671	6053.97
676.861	6168.65
677.052	6152.27
677.243	6266.96
677.433	6152.27
677.624	6254.67
677.814	6164.56
678.005	6271.05
678.195	6246.48
678.386	6185.04
678.576	6277.19
678.767	6309.96
678.957	6277.19
679.148	6367.31
679.338	6350.92
679.529	6320.2
679.719	6342.73
679.909	6453.32
680.1	6457.42
680.29	6492.23
680.481	6291.53
680.671	6522.95
680.861	6473.8
681.052	6459.46
681.242	6514.76
681.432	6584.39
681.622	6457.42
681.813	6451.27
682.003	6565.96
682.193	6627.4
682.383	6494.28
682.573	6635.59
682.764	6608.97
682.954	6574.15
683.144	6649.93
683.334	6737.99
683.524	6682.69
683.714	6918.21
683.904	6824
684.094	6586.44
684.284	6615.11
684.474	6781
684.664	6758.47
684.854	6774.85
685.044	6637.64
685.234	6481.99
685.424	6617.16
685.614	6635.59
685.804	6639.69
685.994	6737.99
686.184	6717.51
686.374	6758.47
686.564	6803.52
686.753	6682.69
686.943	6658.12
687.133	6656.07
687.323	6621.25
687.513	6590.53
687.702	6598.73
687.892	6492.23
688.082	6586.44
688.272	6674.5
688.461	6434.89
688.651	6369.35
688.841	6391.88
689.03	6479.94
689.22	6400.07
689.41	6369.35
689.599	6471.75
689.789	6336.59
689.979	6352.97
690.168	6385.74
690.358	6324.3
690.547	6203.47
690.737	6430.79
690.926	6367.31
691.116	6168.65
691.305	6352.97
691.495	6205.52
691.684	6070.35
691.874	6139.98
692.063	6203.47
692.252	6129.74
692.442	6244.43
692.631	6205.52
692.82	6166.6
693.01	6242.38
693.199	6025.29
693.388	6156.36
693.578	6107.21
693.767	6252.62
693.956	6107.21
694.146	6033.49
694.335	5976.14
694.524	6254.67
694.713	6115.41
694.902	5943.38
695.092	6008.91
695.281	6035.53
695.47	6244.43
695.659	6064.21
695.848	6076.49
696.037	6088.78
696.226	6006.86
696.415	6043.73
696.604	6279.24
696.793	6074.45
696.982	6221.9
697.171	6252.62
697.36	6178.89
697.549	6035.53
697.738	6303.82
697.927	6387.79
698.116	6217.8
698.305	6117.45
698.494	6379.59
698.683	6365.26
698.872	6260.81
699.061	6254.67
699.25	6275.15
699.438	6279.24
699.627	6334.54
699.816	6361.16
700.005	6275.15
700.193	6334.54
700.382	6492.23
700.571	6484.04
700.76	6494.28
700.948	6553.67
701.137	6629.45
701.326	6533.19
701.514	6402.12
701.703	6400.07
701.892	6475.85
702.08	6611.01
702.269	6598.73
702.457	6481.99
702.646	6496.33
702.834	6660.17
703.023	6742.08
703.212	6701.12
703.4	6606.92
703.589	6754.37
703.777	6725.7
703.965	6584.39
704.154	6752.32
704.342	6666.31
704.531	6725.7
704.719	6762.56
704.907	6703.17
705.096	6869.06
705.284	6770.76
705.472	6684.74
705.661	6848.58
705.849	6887.49
706.037	6891.59
706.226	6811.71
706.414	6873.15
706.602	6910.02
706.79	7000.13
706.979	6938.69
707.167	7088.19
707.355	6850.63
707.543	7139.39
707.731	7120.96
707.919	6983.74
708.107	6760.52
708.296	7063.61
708.484	6817.86
708.672	7116.86
708.86	7063.61
709.048	7200.83
709.236	7036.99
709.424	7204.92
709.612	7073.85
709.8	7221.31
709.988	7163.97
710.176	7204.92
710.364	7032.9
710.551	7227.45
710.739	7219.26
710.927	7139.39
711.115	7200.83
711.303	7397.43
711.491	7262.27
711.679	7049.28
711.866	7303.23
712.054	7166.01
712.242	7233.6
712.43	7313.47
712.617	7397.43
712.805	7082.05
712.993	7288.89
713.181	7352.38
713.368	7180.35
713.556	7401.53
713.744	7252.03
713.931	7546.94
714.119	7454.78
714.306	7479.35
714.494	7381.05
714.682	7301.18
714.869	7663.67
715.057	7563.32
715.244	7405.63
715.432	7503.93
715.619	7528.5
715.807	7557.18
715.994	7718.96
716.182	7462.97
716.369	7485.5
716.556	7620.66
716.744	7524.41
716.931	7469.11
717.119	7919.67
717.306	7831.6
717.493	7637.05
717.681	7862.32
717.868	7536.7
718.055	7567.42
718.242	7749.68
718.43	7594.04
718.617	7639.09
718.804	7747.64
718.991	7639.09
719.179	7710.77
719.366	7571.51
719.553	7557.18
719.74	7641.14
719.927	7868.47
720.114	7602.23
720.301	7847.99
720.488	7434.3
720.676	7770.16
720.863	7819.32
721.05	7903.28
721.237	7706.68
721.424	7811.12
721.611	7807.03
721.798	7725.11
721.985	7653.43
722.172	7698.49
722.358	7696.44
722.545	7807.03
722.732	7778.36
722.919	7819.32
723.106	7548.98
723.293	7698.49
723.48	7725.11
723.667	7745.59
723.853	7630.9
724.04	7788.6
724.227	7794.74
724.414	7862.32
724.6	7604.28
724.787	7737.4
724.974	7850.03
725.161	7778.36
725.347	7694.39
725.534	7761.97
725.72	7710.77
725.907	7874.61
726.094	7778.36
726.28	7516.22
726.467	7864.37
726.653	7710.77
726.84	7497.78
727.027	7807.03
727.213	7596.09
727.4	7686.2
727.586	7802.93
727.773	7751.73
727.959	7919.67
728.145	7741.49
728.332	7815.22
728.518	7702.58
728.705	7921.71
728.891	7872.56
729.077	7821.36
729.264	7667.77
729.45	7663.67
729.636	7686.2
729.823	7678.01
730.009	7714.87
730.195	7718.96
730.382	7669.81
730.568	7716.92
730.754	7628.85
730.94	7614.52
731.126	7714.87
731.313	7688.25
731.499	7659.57
731.685	7596.09
731.871	7688.25
732.057	7704.63
732.243	7610.42
732.429	7536.7
732.615	7784.5
732.801	7557.18
732.987	7514.17
733.173	7686.2
733.359	7630.9
733.545	7675.96
733.731	7587.89
733.917	7626.81
734.103	7565.37
734.289	7596.09
734.475	7450.68
734.661	7491.64
734.847	7741.49
735.033	7481.4
735.219	7692.34
735.404	7647.29
735.59	7567.42
735.776	7503.93
735.962	7458.87
736.148	7585.85
736.333	7428.15
736.519	7526.46
736.705	7415.87
736.89	7340.09
737.076	7436.35
737.262	7278.65
737.447	7524.41
737.633	7356.47
737.819	7503.93
738.004	7383.1
738.19	7555.13
738.375	7182.4
738.561	7405.63
738.747	7356.47
738.932	7391.29
739.118	7313.47
739.303	7235.64
739.489	7184.45
739.674	7206.97
739.859	7305.28
740.045	7231.55
740.23	7094.33
740.416	6985.79
740.601	7088.19
740.786	7161.92
740.972	6946.88
741.157	7045.18
741.342	6885.44
741.528	6926.4
741.713	6998.08
741.898	7082.05
742.084	6883.39
742.269	6938.69
742.454	6885.44
742.639	6791.24
742.824	6805.57
743.01	6850.63
743.195	6856.77
743.38	6797.38
743.565	6701.12
743.75	6631.49
743.935	6752.32
744.12	6664.26
744.305	6744.13
744.49	6594.63
744.675	6608.97
744.86	6465.61
745.045	6348.87
745.23	6447.18
745.415	6473.8
745.6	6420.55
745.785	6363.21
745.97	6408.26
746.155	6324.3
746.34	6254.67
746.525	6189.13
746.71	6398.03
746.895	5984.34
747.079	6123.6
747.264	5984.34
747.449	6021.2
747.634	5951.57
747.819	6074.45
748.003	5890.13
748.188	5949.52
748.373	5851.22
748.557	5789.78
748.742	5804.11
748.927	5824.59
749.111	5714
749.296	5750.87
749.481	5664.85
749.665	5744.72
749.85	5480.54
750.034	5615.7
750.219	5531.73
750.404	5476.44
750.588	5232.73
750.773	5214.3
750.957	5312.6
751.141	5224.54
751.326	5091.42
751.51	5199.96
751.695	5152.86
751.879	5290.07
752.064	5318.75
752.248	4972.64
752.432	4995.17
752.617	5005.41
752.801	4808.8
752.985	4997.21
753.17	5050.46
753.354	4784.23
753.538	4710.5
753.722	4724.83
753.907	4751.46
754.091	4626.53
754.275	4624.48
754.459	4601.96
754.643	4522.09
754.828	4604
755.012	4513.89
755.196	4485.22
755.38	4419.69
755.564	4452.45
755.748	4440.17
755.932	4370.54
756.116	4409.45
756.3	4247.66
756.484	4239.47
756.668	4155.5
756.852	4132.97
757.036	4216.94
757.22	4108.4
757.404	4075.63
757.588	4057.2
757.772	4083.82
757.956	4083.82
758.14	3934.32
758.323	3879.02
758.507	3829.87
758.691	3766.39
758.875	3915.89
759.059	3909.74
759.242	3745.91
759.426	3788.91
759.61	3670.13
759.794	3688.56
759.977	3618.93
760.161	3670.13
760.345	3739.76
760.528	3659.89
760.712	3657.84
760.895	3502.2
761.079	3668.08
761.263	3491.96
761.446	3489.91
761.63	3412.09
761.813	3412.09
761.997	3455.09
762.18	3354.74
762.364	3295.35
762.547	3428.47
762.731	3373.18
762.914	3272.82
763.098	3291.26
763.281	3262.58
763.464	3205.24
763.648	3346.55
763.831	3301.5
764.015	3178.62
764.198	3215.48
764.381	3143.8
764.564	3213.43
764.748	2990.21
764.931	3149.95
765.114	3217.53
765.297	3084.41
765.481	2963.58
765.664	2910.33
765.847	2986.11
766.03	3076.22
766.213	3049.6
766.397	2955.39
766.58	2961.53
766.763	2961.53
766.946	2977.92
767.129	2910.33
767.312	2852.99
767.495	2834.56
767.678	2982.01
767.861	2885.76
768.044	2807.94
768.227	2871.42
768.41	2850.94
768.593	2949.25
768.776	2746.5
768.959	2756.74
769.142	2748.54
769.324	2732.16
769.507	2723.97
769.69	2642.05
769.873	2633.86
770.056	2726.02
770.239	2713.73
770.421	2685.06
770.604	2758.78
770.787	2496.64
770.97	2578.56
771.152	2547.84
771.335	2599.04
771.518	2504.84
771.7	2648.19
771.883	2625.67
772.066	2480.26
772.248	2642.05
772.431	2433.16
772.613	2465.93
772.796	2396.29
772.978	2326.66
773.161	2476.16
773.343	2359.43
773.526	2345.09
773.708	2257.03
773.891	2328.71
774.073	2201.74
774.256	2465.93
774.438	2310.28
774.621	2240.65
774.803	2197.64
774.985	2121.87
775.168	2214.02
775.35	2279.56
775.532	2214.02
775.715	2166.92
775.897	2175.11
776.079	2093.19
776.261	2142.35
776.444	2074.76
776.626	2109.58
776.808	1929.36
776.99	1953.93
777.173	2023.56
777.355	1968.27
777.537	2035.85
777.719	1937.55
777.901	1960.08
778.083	1923.21
778.265	1937.55
778.447	1919.12
778.629	1829.01
778.811	1919.12
778.993	1867.92
779.175	1865.87
779.357	1831.05
779.539	1773.71
779.721	1753.23
779.903	1802.38
780.085	1757.33
780.267	1751.18
780.449	1716.37
780.631	1777.81
780.812	1681.55
780.994	1616.02
781.176	1519.76
781.358	1540.24
781.54	1542.29
781.721	1628.31
781.903	1589.39
782.085	1487
782.267	1722.51
782.448	1552.53
782.63	1556.63
782.812	1503.38
782.993	1466.52
783.175	1497.24
783.357	1493.14
783.538	1441.94
783.72	1398.93
783.901	1509.52
784.083	1411.22
784.264	1417.37
784.446	1470.61
784.627	1343.64
784.809	1355.93
784.99	1243.29
785.172	1364.12
785.353	1368.21
785.535	1233.05
785.716	1331.35
785.897	1337.49
786.079	1280.15
786.26	1288.34
786.441	1372.31
786.623	1126.55
786.804	1233.05
786.985	1247.38
787.167	1269.91
787.348	1171.61
787.529	1202.33
787.71	1278.1
787.891	1231
788.073	1155.23
788.254	1134.75
788.435	1190.04
788.616	1177.75
788.797	1159.32
788.978	1200.28
789.159	1063.07
789.34	1233.05
789.522	1147.03
789.703	1052.83
789.884	1044.63
790.065	1058.97
790.246	1130.65
790.427	1042.59
790.607	1069.21
790.788	1132.7
790.969	950.43
791.15	1028.25
791.331	979.1
791.512	981.15
791.693	919.71
791.874	942.24
792.054	1044.63
792.235	1050.78
792.416	905.37
792.597	975
792.778	1044.63
792.958	987.29
793.139	958.62
793.32	944.28
793.5	823.45
793.681	905.37
793.862	987.29
794.042	983.2
794.223	815.26
794.404	921.76
794.584	831.65
794.765	942.24
794.945	848.03
795.126	903.32
795.306	880.8
795.487	848.03
795.667	829.6
795.848	809.12
796.028	925.85
796.209	827.55
796.389	880.8
796.57	823.45
796.75	776.35
796.93	772.25
797.111	802.97
797.291	729.25
797.471	948.38
797.652	774.3
797.832	809.12
798.012	905.37
798.192	768.16
798.373	739.49
798.553	737.44
798.733	667.81
798.913	770.21
799.093	782.49
799.274	673.95
799.454	745.63
799.634	749.73
799.814	780.45
799.994	667.81
800.174	698.53
800.354	684.19
800.534	600.23
800.714	708.77
800.894	682.14
801.074	684.19
801.254	626.85
801.434	770.21
801.614	731.3
801.794	567.46
801.974	1456.28
802.154	602.27
802.334	725.15
802.514	604.32
802.693	651.42
802.873	630.95
803.053	692.38
803.233	632.99
803.413	647.33
803.592	542.88
803.772	671.9
803.952	551.07
804.131	551.07
804.311	612.51
804.491	688.29
804.67	688.29
804.85	538.79
805.03	583.84
805.209	630.95
805.389	596.13
805.568	602.27
805.748	653.47
805.928	577.7
806.107	592.03
806.287	589.99
806.466	575.65
806.646	557.22
806.825	610.47
807.004	622.75
807.184	569.51
807.363	647.33
807.543	555.17
807.722	446.63
807.901	606.37
808.081	561.31
808.26	448.68
808.439	544.93
808.619	544.93
808.798	503.97
808.977	463.01
809.156	549.03
809.336	542.88
809.515	438.44
809.694	428.2
809.873	520.35
810.052	520.35
810.231	501.92
810.411	495.78
810.59	555.17
810.769	442.53
810.948	526.5
811.127	428.2
811.306	477.35
811.485	403.62
811.664	598.18
811.843	479.4
812.022	481.44
812.201	503.97
812.38	467.11
812.559	491.68
812.737	454.82
812.916	356.52
813.095	420
813.274	467.11
813.453	448.68
813.632	493.73
813.811	479.4
813.989	352.42
814.168	405.67
814.347	387.24
814.526	379.04
814.704	444.58
814.883	481.44
815.062	372.9
815.24	368.81
815.419	456.87
815.598	360.61
815.776	340.13
815.955	442.53
816.133	284.84
816.312	411.81
816.49	321.7
816.669	387.24
816.847	364.71
817.026	379.04
817.204	354.47
817.383	381.09
817.561	311.46
817.74	381.09
817.918	397.48
818.097	387.24
818.275	364.71
818.453	379.04
818.632	233.64
818.81	366.76
818.988	329.89
819.167	305.32
819.345	250.02
819.523	278.69
819.701	364.71
819.879	280.74
820.058	329.89
820.236	321.7
820.414	415.91
820.592	301.22
820.77	340.13
820.948	325.8
821.127	387.24
821.305	336.04
821.483	377
821.661	348.33
821.839	385.19
822.017	282.79
822.195	295.08
822.373	348.33
822.551	272.55
822.729	358.57
822.907	319.65
823.085	393.38
823.262	327.85
823.44	270.5
823.618	354.47
823.796	340.13
823.974	309.41
824.152	321.7
824.329	280.74
824.507	303.27
824.685	321.7
824.863	264.36
825.04	266.41
825.218	331.94
825.396	356.52
825.574	284.84
825.751	225.45
825.929	350.37
826.107	299.17
826.284	284.84
826.462	284.84
826.639	295.08
826.817	147.62
826.994	321.7
827.172	266.41
827.349	329.89
827.527	256.17
827.704	254.12
827.882	307.37
828.059	301.22
828.237	250.02
828.414	303.27
828.591	135.34
828.769	250.02
828.946	237.74
829.124	231.59
829.301	364.71
829.478	278.69
829.655	237.74
829.833	321.7
830.01	159.91
830.187	196.78
830.364	196.78
830.542	264.36
830.719	356.52
830.896	211.11
831.073	256.17
831.25	260.26
831.427	221.35
831.604	217.26
831.782	237.74
831.959	202.92
832.136	172.2
832.313	178.34
832.49	233.64
832.667	258.21
832.844	200.87
833.021	305.32
833.198	229.54
833.374	262.31
833.551	225.45
833.728	190.63
833.905	250.02
834.082	155.82
834.259	209.06
834.436	258.21
834.612	168.1
834.789	264.36
834.966	166.06
835.143	192.68
835.319	192.68
835.496	272.55
835.673	135.34
835.85	194.73
836.026	202.92
836.203	147.62
836.38	121
836.556	229.54
836.733	166.06
836.909	233.64
837.086	159.91
837.262	159.91
837.439	239.78
837.616	149.67
837.792	217.26
837.968	217.26
838.145	110.76
838.321	182.44
838.498	127.14
838.674	188.58
838.851	151.72
839.027	110.76
839.203	153.77
839.38	157.86
839.556	215.21
839.732	225.45
839.909	159.91
840.085	164.01
840.261	151.72
840.437	166.06
840.614	184.49
840.79	274.6
840.966	192.68
841.142	127.14
841.318	149.67
841.494	164.01
841.671	190.63
841.847	86.19
842.023	116.9
842.199	192.68
842.375	258.21
842.551	86.19
842.727	57.51
842.903	200.87
843.079	100.52
843.255	207.02
843.431	190.63
843.607	143.53
843.783	118.95
843.959	153.77
844.134	176.3
844.31	170.15
844.486	118.95
844.662	114.86
844.838	209.06
845.013	207.02
845.189	176.3
845.365	125.1
845.541	121
845.716	147.62
845.892	168.1
846.068	98.47
846.244	127.14
846.419	157.86
846.595	63.66
846.77	125.1
846.946	57.51
847.122	168.1
847.297	100.52
847.473	102.57
847.648	166.06
847.824	69.8
847.999	41.13
848.175	135.34
848.35	100.52
848.526	84.14
848.701	147.62
848.876	92.33
849.052	102.57
849.227	110.76
849.403	123.05
849.578	106.67
849.753	135.34
849.929	51.37
850.104	47.27
850.279	168.1
850.454	77.99
850.63	116.9
850.805	157.86
850.98	184.49
851.155	84.14
851.33	34.99
851.505	168.1
851.681	125.1
851.856	71.85
852.031	100.52
852.206	86.19
852.381	110.76
852.556	67.75
852.731	100.52
852.906	43.18
853.081	190.63
853.256	147.62
853.431	77.99
853.606	65.71
853.781	37.03
853.956	-3.93
854.131	129.19
854.305	77.99
854.48	100.52
854.655	102.57
854.83	82.09
855.005	108.71
855.18	-20.31
855.354	110.76
855.529	108.71
855.704	123.05
855.879	63.66
856.053	80.04
856.228	135.34
856.403	51.37
856.577	51.37
856.752	-8.02
856.926	98.47
857.101	57.51
857.276	49.32
857.45	51.37
857.625	73.9
857.799	75.95
857.974	69.8
858.148	37.03
858.323	26.79
858.497	141.48
858.672	12.46
858.846	106.67
859.02	26.79
859.195	32.94
859.369	-8.02
859.543	90.28
859.718	104.62
859.892	86.19
860.066	118.95
860.241	77.99
860.415	-16.21
860.589	82.09
860.763	90.28
860.938	69.8
861.112	77.99
861.286	102.57
861.46	75.95
861.634	73.9
861.808	67.75
861.982	22.7
862.157	-5.97
862.331	77.99
862.505	92.33
862.679	24.75
862.853	43.18
863.027	18.6
863.201	71.85
863.375	-3.93
863.549	47.27
863.722	94.38
863.896	84.14
864.07	28.84
864.244	84.14
864.418	65.71
864.592	90.28
864.766	53.42
864.939	16.55
865.113	59.56
865.287	108.71
865.461	34.99
865.634	22.7
865.808	12.46
865.982	-3.93
866.156	39.08
866.329	39.08
866.503	90.28
866.676	24.75
866.85	49.32
867.024	16.55
867.197	51.37
867.371	123.05
867.544	28.84
867.718	34.99
867.891	77.99
868.065	-28.5
868.238	37.03
868.412	53.42
868.585	61.61
868.759	22.7
868.932	10.41
869.105	2.22
869.279	-40.79
869.452	37.03
869.625	47.27
869.799	12.46
869.972	16.55
870.145	59.56
870.319	59.56
870.492	-3.93
870.665	24.75
870.838	32.94
871.011	2.22
871.185	84.14
871.358	-61.27
871.531	12.46
871.704	12.46
871.877	-5.97
872.05	34.99
872.223	-42.84
872.396	75.95
872.569	57.51
872.742	34.99
872.915	69.8
873.088	8.36
873.261	6.31
873.434	20.65
873.607	-28.5
873.78	112.81
873.953	-36.69
874.126	16.55
874.299	-14.17
874.471	28.84
874.644	59.56
874.817	110.76
874.99	164.01
875.163	26.79
875.335	69.8
875.508	53.42
875.681	77.99
875.853	-24.4
876.026	12.46
876.199	53.42
876.371	45.23
876.544	-40.79
876.717	-12.12
876.889	-5.97
877.062	26.79
877.234	24.75
877.407	24.75
877.579	69.8
877.752	10.41
877.924	118.95
878.097	24.75
878.269	45.23
878.442	6.31
878.614	-8.02
878.786	57.51
878.959	135.34
879.131	69.8
879.303	-1.88
879.476	65.71
879.648	80.04
879.82	45.23
879.993	-34.64
880.165	-22.36
880.337	49.32
880.509	67.75
880.681	14.51
880.854	-48.98
881.026	-14.17
881.198	57.51
881.37	-61.27
881.542	-20.31
881.714	-28.5
881.886	75.95
882.058	-32.6
882.23	26.79
882.402	-44.88
882.574	4.27
882.746	14.51
882.918	-22.36
883.09	67.75
883.262	59.56
883.434	-10.07
883.606	-22.36
883.778	43.18
883.95	65.71
884.122	-3.93
884.293	32.94
884.465	-44.88
884.637	75.95
884.809	8.36
884.98	-3.93
885.152	49.32
885.324	59.56
885.496	53.42
885.667	-14.17
885.839	14.51
886.011	86.19
886.182	12.46
886.354	90.28
886.525	110.76
886.697	4.27
886.869	-34.64
887.04	18.6
887.212	43.18
887.383	67.75
887.555	-26.45
887.726	28.84
887.897	-12.12
888.069	12.46
888.24	49.32
888.412	2.22
888.583	0.17
888.754	26.79
888.926	-14.17
889.097	61.61
889.268	-3.93
889.44	45.23
889.611	-20.31
889.782	-1.88
889.953	-8.02
890.125	123.05
890.296	-3.93
890.467	2.22
890.638	32.94
890.809	32.94
890.98	6.31
891.151	80.04
891.323	41.13
891.494	-22.36
891.665	61.61
891.836	67.75
892.007	10.41
892.178	26.79
892.349	41.13
892.52	-30.55
892.691	22.7
892.862	41.13
893.032	-12.12
893.203	16.55
893.374	-73.56
893.545	37.03
893.716	24.75
893.887	24.75
894.057	-16.21
894.228	28.84
894.399	49.32
894.57	51.37
894.74	-26.45
894.911	61.61
895.082	26.79
895.253	-22.36
895.423	-48.98
895.594	20.65
895.764	100.52
895.935	-8.02
896.106	22.7
896.276	65.71
896.447	0.17
896.617	2.22
896.788	26.79
896.958	102.57
897.129	12.46
897.299	-53.08
897.47	-3.93
897.64	69.8
897.81	41.13
897.981	92.33
898.151	-20.31
898.322	94.38
898.492	-8.02
898.662	28.84
898.832	77.99
899.003	-85.84
899.173	37.03
899.343	37.03
899.513	-28.5
