Data from USB4F104151__6__11-29-35-568.txt Node

Date: Fri Mar 14 11:29:35 EDT 2025
User: louis
Spectrometer: USB4F10415
Trigger mode: 4
Integration Time (sec): 5.000000E-2
Scans to average: 1
Electric dark correction enabled: true
Nonlinearity correction enabled: false
Boxcar width: 0
XAxis mode: Wavelengths
Number of Pixels in Spectrum: 3648
>>>>>Begin Spectral Data<<<<<
178.204	-162.47
178.424	-162.47
178.644	-162.47
178.864	-129.7
179.084	-180.9
179.304	19.8
179.524	-47.79
179.744	-37.55
179.964	1.37
180.184	27.99
180.404	91.48
180.624	9.56
180.844	32.08
181.064	-51.88
181.283	-64.17
181.503	-29.35
181.723	48.47
181.943	-35.5
182.163	79.19
182.383	23.89
182.602	87.38
182.822	9.56
183.042	17.75
183.262	1.37
183.482	17.75
183.701	66.9
183.921	3.41
184.141	5.46
184.361	73.04
184.58	50.52
184.8	56.66
185.02	95.57
185.239	77.14
185.459	-19.11
185.679	66.9
185.898	21.85
186.118	-15.02
186.338	-17.07
186.557	17.75
186.777	-47.79
186.997	-15.02
187.216	34.13
187.436	64.85
187.655	23.89
187.875	89.43
188.095	60.76
188.314	15.7
188.534	58.71
188.753	-21.16
188.973	75.09
189.192	97.62
189.412	1.37
189.631	99.67
189.851	58.71
190.07	52.56
190.29	-15.02
190.509	48.47
190.729	71
190.948	25.94
191.168	165.2
191.387	48.47
191.607	-19.11
191.826	34.13
192.045	19.8
192.265	1.37
192.484	7.51
192.704	77.14
192.923	-64.17
193.142	89.43
193.362	50.52
193.581	87.38
193.8	-35.5
194.02	120.15
194.239	34.13
194.458	25.94
194.678	1.37
194.897	13.65
195.116	23.89
195.335	9.56
195.555	50.52
195.774	5.46
195.993	-17.07
196.212	32.08
196.432	54.61
196.651	85.33
196.87	42.32
197.089	140.63
197.308	-55.98
197.528	75.09
197.747	15.7
197.966	-19.11
198.185	62.8
198.404	79.19
198.623	-15.02
198.842	-19.11
199.062	25.94
199.281	1.37
199.5	-19.11
199.719	13.65
199.938	-33.45
200.157	93.52
200.376	132.44
200.595	15.7
200.814	3.41
201.033	9.56
201.252	-2.73
201.471	-0.68
201.69	79.19
201.909	89.43
202.128	-8.87
202.347	-6.83
202.566	15.7
202.785	-6.83
203.004	15.7
203.223	46.42
203.442	7.51
203.661	-21.16
203.879	38.23
204.098	165.2
204.317	19.8
204.536	58.71
204.755	48.47
204.974	42.32
205.193	40.28
205.411	109.91
205.63	32.08
205.849	30.04
206.068	5.46
206.287	9.56
206.505	5.46
206.724	103.76
206.943	32.08
207.162	19.8
207.381	54.61
207.599	5.46
207.818	38.23
208.037	-15.02
208.255	32.08
208.474	97.62
208.693	13.65
208.911	25.94
209.13	54.61
209.349	95.57
209.567	38.23
209.786	50.52
210.005	40.28
210.223	42.32
210.442	-58.03
210.661	-15.02
210.879	58.71
211.098	-8.87
211.316	-4.78
211.535	114
211.753	48.47
211.972	-10.92
212.191	42.32
212.409	-15.02
212.628	89.43
212.846	-6.83
213.065	42.32
213.283	66.9
213.502	42.32
213.72	-6.83
213.938	66.9
214.157	34.13
214.375	15.7
214.594	-0.68
214.812	-4.78
215.031	1.37
215.249	-23.21
215.467	116.05
215.686	-15.02
215.904	-6.83
216.122	58.71
216.341	95.57
216.559	-8.87
216.778	64.85
216.996	60.76
217.214	3.41
217.432	-60.07
217.651	5.46
217.869	13.65
218.087	103.76
218.306	42.32
218.524	124.24
218.742	62.8
218.96	103.76
219.179	21.85
219.397	17.75
219.615	114
219.833	56.66
220.051	1.37
220.27	27.99
220.488	5.46
220.706	17.75
220.924	91.48
221.142	-53.93
221.36	38.23
221.578	-27.31
221.796	-8.87
222.015	30.04
222.233	-19.11
222.451	161.11
222.669	11.61
222.887	56.66
223.105	75.09
223.323	1.37
223.541	38.23
223.759	114
223.977	128.34
224.195	95.57
224.413	30.04
224.631	50.52
224.849	25.94
225.067	103.76
225.285	-55.98
225.503	-12.97
225.721	-55.98
225.939	50.52
226.157	87.38
226.375	157.01
226.592	-55.98
226.81	17.75
227.028	71
227.246	60.76
227.464	44.37
227.682	-43.69
227.9	-23.21
228.117	13.65
228.335	30.04
228.553	15.7
228.771	19.8
228.989	34.13
229.206	25.94
229.424	-21.16
229.642	27.99
229.86	-27.31
230.077	23.89
230.295	15.7
230.513	5.46
230.731	42.32
230.948	7.51
231.166	42.32
231.384	-17.07
231.601	36.18
231.819	107.86
232.037	25.94
232.254	-19.11
232.472	15.7
232.689	-47.79
232.907	73.04
233.125	23.89
233.342	-84.65
233.56	17.75
233.777	32.08
233.995	-2.73
234.213	-4.78
234.43	116.05
234.648	-17.07
234.865	54.61
235.083	68.95
235.3	32.08
235.518	23.89
235.735	103.76
235.953	38.23
236.17	-6.83
236.388	-6.83
236.605	75.09
236.822	54.61
237.04	30.04
237.257	9.56
237.475	54.61
237.692	-15.02
237.909	-66.22
238.127	15.7
238.344	9.56
238.562	40.28
238.779	34.13
238.996	15.7
239.214	58.71
239.431	89.43
239.648	13.65
239.865	66.9
240.083	75.09
240.3	71
240.517	15.7
240.735	38.23
240.952	13.65
241.169	54.61
241.386	66.9
241.603	-15.02
241.821	-39.59
242.038	64.85
242.255	48.47
242.472	60.76
242.689	9.56
242.907	66.9
243.124	79.19
243.341	-10.92
243.558	-66.22
243.775	44.37
243.992	48.47
244.209	-23.21
244.426	83.28
244.643	5.46
244.86	-2.73
245.078	30.04
245.295	17.75
245.512	32.08
245.729	5.46
245.946	99.67
246.163	46.42
246.38	136.53
246.597	-25.26
246.814	75.09
247.031	25.94
247.248	36.18
247.464	30.04
247.681	-33.45
247.898	13.65
248.115	44.37
248.332	25.94
248.549	83.28
248.766	120.15
248.983	-8.87
249.2	40.28
249.417	93.52
249.633	-2.73
249.85	126.29
250.067	-27.31
250.284	30.04
250.501	62.8
250.717	44.37
250.934	-101.03
251.151	50.52
251.368	-12.97
251.585	62.8
251.801	85.33
252.018	-2.73
252.235	46.42
252.451	-25.26
252.668	17.75
252.885	9.56
253.102	91.48
253.318	38.23
253.535	48.47
253.752	3.41
253.968	58.71
254.185	-12.97
254.401	42.32
254.618	66.9
254.835	7.51
255.051	87.38
255.268	34.13
255.484	15.7
255.701	17.75
255.917	81.24
256.134	40.28
256.351	7.51
256.567	-17.07
256.784	27.99
257	27.99
257.217	64.85
257.433	83.28
257.65	46.42
257.866	17.75
258.082	-23.21
258.299	52.56
258.515	56.66
258.732	9.56
258.948	15.7
259.165	68.95
259.381	-29.35
259.597	54.61
259.814	34.13
260.03	7.51
260.246	42.32
260.463	101.72
260.679	62.8
260.895	-39.59
261.112	64.85
261.328	75.09
261.544	19.8
261.761	42.32
261.977	-31.4
262.193	13.65
262.409	42.32
262.626	56.66
262.842	87.38
263.058	62.8
263.274	71
263.49	1.37
263.707	54.61
263.923	50.52
264.139	-29.35
264.355	23.89
264.571	87.38
264.787	46.42
265.004	38.23
265.22	60.76
265.436	11.61
265.652	-23.21
265.868	73.04
266.084	-39.59
266.3	-29.35
266.516	-17.07
266.732	30.04
266.948	-8.87
267.164	85.33
267.38	83.28
267.596	9.56
267.812	58.71
268.028	97.62
268.244	-25.26
268.46	34.13
268.676	-21.16
268.892	-23.21
269.108	-15.02
269.324	-0.68
269.54	-10.92
269.756	-6.83
269.972	11.61
270.188	19.8
270.403	1.37
270.619	7.51
270.835	23.89
271.051	64.85
271.267	34.13
271.483	-4.78
271.698	54.61
271.914	103.76
272.13	73.04
272.346	-25.26
272.562	48.47
272.777	-17.07
272.993	-25.26
273.209	-6.83
273.425	68.95
273.64	-33.45
273.856	56.66
274.072	-0.68
274.287	-64.17
274.503	58.71
274.719	-8.87
274.934	-53.93
275.15	48.47
275.366	34.13
275.581	21.85
275.797	75.09
276.012	5.46
276.228	-23.21
276.444	38.23
276.659	99.67
276.875	5.46
277.09	32.08
277.306	-6.83
277.521	91.48
277.737	38.23
277.952	105.81
278.168	32.08
278.383	19.8
278.599	116.05
278.814	48.47
279.03	60.76
279.245	40.28
279.461	30.04
279.676	34.13
279.892	34.13
280.107	34.13
280.322	-31.4
280.538	21.85
280.753	17.75
280.969	21.85
281.184	38.23
281.399	122.2
281.615	-51.88
281.83	54.61
282.045	3.41
282.26	-78.51
282.476	68.95
282.691	114
282.906	23.89
283.122	42.32
283.337	17.75
283.552	42.32
283.767	-4.78
283.983	-33.45
284.198	-15.02
284.413	17.75
284.628	-15.02
284.843	9.56
285.058	50.52
285.274	42.32
285.489	3.41
285.704	71
285.919	23.89
286.134	25.94
286.349	-15.02
286.564	15.7
286.779	62.8
286.995	9.56
287.21	-0.68
287.425	-10.92
287.64	38.23
287.855	-29.35
288.07	-76.46
288.285	77.14
288.5	5.46
288.715	-39.59
288.93	38.23
289.145	1.37
289.36	-15.02
289.575	32.08
289.79	21.85
290.004	7.51
290.219	9.56
290.434	25.94
290.649	-15.02
290.864	40.28
291.079	1.37
291.294	91.48
291.509	58.71
291.724	62.8
291.938	-27.31
292.153	58.71
292.368	30.04
292.583	111.96
292.798	75.09
293.012	32.08
293.227	25.94
293.442	40.28
293.657	50.52
293.871	103.76
294.086	9.56
294.301	81.24
294.516	21.85
294.73	23.89
294.945	-2.73
295.16	58.71
295.374	58.71
295.589	-15.02
295.804	54.61
296.018	46.42
296.233	38.23
296.447	15.7
296.662	1.37
296.877	9.56
297.091	13.65
297.306	38.23
297.52	15.7
297.735	46.42
297.949	17.75
298.164	79.19
298.378	91.48
298.593	58.71
298.807	13.65
299.022	38.23
299.236	97.62
299.451	30.04
299.665	15.7
299.88	64.85
300.094	42.32
300.309	23.89
300.523	25.94
300.737	34.13
300.952	91.48
301.166	42.32
301.381	1.37
301.595	-17.07
301.809	32.08
302.024	23.89
302.238	87.38
302.452	38.23
302.667	38.23
302.881	107.86
303.095	-8.87
303.309	-17.07
303.524	42.32
303.738	89.43
303.952	-31.4
304.166	34.13
304.381	-4.78
304.595	50.52
304.809	-27.31
305.023	17.75
305.237	32.08
305.452	34.13
305.666	68.95
305.88	99.67
306.094	42.32
306.308	38.23
306.522	40.28
306.736	5.46
306.95	66.9
307.164	17.75
307.379	58.71
307.593	81.24
307.807	157.01
308.021	30.04
308.235	73.04
308.449	-4.78
308.663	32.08
308.877	136.53
309.091	48.47
309.305	-37.55
309.519	34.13
309.733	93.52
309.947	-78.51
310.161	105.81
310.374	50.52
310.588	138.58
310.802	-2.73
311.016	-84.65
311.23	83.28
311.444	79.19
311.658	9.56
311.872	-2.73
312.085	-15.02
312.299	81.24
312.513	50.52
312.727	30.04
312.941	30.04
313.154	25.94
313.368	54.61
313.582	58.71
313.796	-31.4
314.009	68.95
314.223	146.77
314.437	79.19
314.651	52.56
314.864	1.37
315.078	21.85
315.292	-51.88
315.505	-0.68
315.719	36.18
315.933	9.56
316.146	75.09
316.36	9.56
316.573	13.65
316.787	17.75
317.001	58.71
317.214	-33.45
317.428	107.86
317.641	-2.73
317.855	58.71
318.068	34.13
318.282	-10.92
318.495	85.33
318.709	30.04
318.922	54.61
319.136	-33.45
319.349	62.8
319.563	56.66
319.776	17.75
319.99	-35.5
320.203	42.32
320.417	7.51
320.63	60.76
320.843	68.95
321.057	34.13
321.27	30.04
321.483	56.66
321.697	83.28
321.91	71
322.124	11.61
322.337	9.56
322.55	-2.73
322.763	42.32
322.977	32.08
323.19	23.89
323.403	107.86
323.617	73.04
323.83	64.85
324.043	60.76
324.256	25.94
324.469	-10.92
324.683	56.66
324.896	30.04
325.109	11.61
325.322	-23.21
325.535	73.04
325.748	-4.78
325.962	-4.78
326.175	-31.4
326.388	25.94
326.601	75.09
326.814	9.56
327.027	-31.4
327.24	75.09
327.453	48.47
327.666	32.08
327.879	48.47
328.092	159.06
328.305	83.28
328.518	19.8
328.731	42.32
328.944	64.85
329.157	13.65
329.37	-53.93
329.583	58.71
329.796	32.08
330.009	-12.97
330.222	-6.83
330.435	19.8
330.648	17.75
330.861	27.99
331.073	30.04
331.286	116.05
331.499	85.33
331.712	-43.69
331.925	-0.68
332.138	50.52
332.35	40.28
332.563	-6.83
332.776	32.08
332.989	-55.98
333.202	27.99
333.414	83.28
333.627	103.76
333.84	9.56
334.053	54.61
334.265	-47.79
334.478	-25.26
334.691	-27.31
334.903	42.32
335.116	34.13
335.329	27.99
335.541	25.94
335.754	107.86
335.966	19.8
336.179	17.75
336.392	32.08
336.604	64.85
336.817	48.47
337.029	19.8
337.242	58.71
337.454	42.32
337.667	-33.45
337.88	5.46
338.092	42.32
338.305	34.13
338.517	23.89
338.729	34.13
338.942	68.95
339.154	11.61
339.367	-6.83
339.579	46.42
339.792	75.09
340.004	36.18
340.217	-41.64
340.429	21.85
340.641	1.37
340.854	38.23
341.066	75.09
341.278	1.37
341.491	144.72
341.703	25.94
341.915	30.04
342.128	58.71
342.34	15.7
342.552	50.52
342.764	25.94
342.977	-15.02
343.189	71
343.401	27.99
343.613	1.37
343.826	75.09
344.038	9.56
344.25	66.9
344.462	23.89
344.674	17.75
344.886	-2.73
345.099	38.23
345.311	79.19
345.523	21.85
345.735	27.99
345.947	85.33
346.159	50.52
346.371	-35.5
346.583	-43.69
346.795	17.75
347.007	17.75
347.219	17.75
347.431	5.46
347.643	116.05
347.855	34.13
348.067	91.48
348.279	1.37
348.491	34.13
348.703	17.75
348.915	13.65
349.127	-0.68
349.339	36.18
349.551	62.8
349.763	99.67
349.975	42.32
350.187	9.56
350.399	46.42
350.61	7.51
350.822	-27.31
351.034	23.89
351.246	30.04
351.458	38.23
351.669	-2.73
351.881	54.61
352.093	93.52
352.305	50.52
352.517	23.89
352.728	34.13
352.94	52.56
353.152	50.52
353.363	-6.83
353.575	66.9
353.787	124.24
353.999	40.28
354.21	148.82
354.422	85.33
354.633	-33.45
354.845	3.41
355.057	89.43
355.268	40.28
355.48	15.7
355.692	13.65
355.903	17.75
356.115	13.65
356.326	54.61
356.538	169.3
356.749	42.32
356.961	19.8
357.172	99.67
357.384	-33.45
357.595	38.23
357.807	42.32
358.018	66.9
358.23	62.8
358.441	56.66
358.653	52.56
358.864	54.61
359.075	-15.02
359.287	56.66
359.498	89.43
359.709	52.56
359.921	-2.73
360.132	99.67
360.344	-8.87
360.555	17.75
360.766	56.66
360.977	-33.45
361.189	81.24
361.4	-31.4
361.611	107.86
361.823	50.52
362.034	52.56
362.245	-17.07
362.456	54.61
362.667	99.67
362.879	40.28
363.09	-15.02
363.301	54.61
363.512	15.7
363.723	30.04
363.935	79.19
364.146	103.76
364.357	21.85
364.568	36.18
364.779	-47.79
364.99	52.56
365.201	19.8
365.412	15.7
365.623	-35.5
365.834	83.28
366.045	71
366.256	46.42
366.467	27.99
366.678	34.13
366.889	36.18
367.1	34.13
367.311	40.28
367.522	-17.07
367.733	66.9
367.944	44.37
368.155	34.13
368.366	73.04
368.577	27.99
368.788	103.76
368.999	66.9
369.209	19.8
369.42	140.63
369.631	58.71
369.842	91.48
370.053	56.66
370.264	87.38
370.474	83.28
370.685	11.61
370.896	77.14
371.107	97.62
371.317	91.48
371.528	25.94
371.739	71
371.95	40.28
372.16	136.53
372.371	-2.73
372.582	-23.21
372.792	91.48
373.003	17.75
373.214	9.56
373.424	85.33
373.635	-23.21
373.846	38.23
374.056	38.23
374.267	116.05
374.477	75.09
374.688	34.13
374.898	21.85
375.109	5.46
375.319	105.81
375.53	75.09
375.74	101.72
375.951	30.04
376.161	50.52
376.372	103.76
376.582	-6.83
376.793	1.37
377.003	23.89
377.214	50.52
377.424	114
377.635	116.05
377.845	30.04
378.055	138.58
378.266	21.85
378.476	68.95
378.686	-2.73
378.897	5.46
379.107	1.37
379.317	-58.03
379.528	46.42
379.738	66.9
379.948	1.37
380.158	46.42
380.369	91.48
380.579	71
380.789	38.23
380.999	40.28
381.21	81.24
381.42	83.28
381.63	87.38
381.84	159.06
382.05	134.48
382.261	42.32
382.471	19.8
382.681	13.65
382.891	97.62
383.101	66.9
383.311	-15.02
383.521	17.75
383.731	5.46
383.941	66.9
384.151	1.37
384.361	42.32
384.571	154.96
384.781	99.67
384.991	36.18
385.201	83.28
385.411	48.47
385.621	99.67
385.831	91.48
386.041	58.71
386.251	1.37
386.461	116.05
386.671	64.85
386.881	-25.26
387.091	23.89
387.301	68.95
387.511	17.75
387.72	89.43
387.93	64.85
388.14	56.66
388.35	42.32
388.56	56.66
388.769	46.42
388.979	9.56
389.189	-35.5
389.399	-6.83
389.609	54.61
389.818	27.99
390.028	62.8
390.238	64.85
390.447	146.77
390.657	136.53
390.867	81.24
391.076	-53.93
391.286	17.75
391.496	-15.02
391.705	25.94
391.915	157.01
392.125	75.09
392.334	40.28
392.544	34.13
392.753	79.19
392.963	-31.4
393.172	3.41
393.382	34.13
393.591	93.52
393.801	58.71
394.01	202.07
394.22	83.28
394.429	81.24
394.639	64.85
394.848	3.41
395.058	17.75
395.267	79.19
395.477	56.66
395.686	165.2
395.895	146.77
396.105	75.09
396.314	95.57
396.524	19.8
396.733	27.99
396.942	116.05
397.152	95.57
397.361	134.48
397.57	40.28
397.78	25.94
397.989	132.44
398.198	75.09
398.407	99.67
398.617	99.67
398.826	66.9
399.035	73.04
399.244	101.72
399.453	97.62
399.663	128.34
399.872	116.05
400.081	75.09
400.29	85.33
400.499	75.09
400.708	105.81
400.917	81.24
401.127	163.15
401.336	58.71
401.545	99.67
401.754	114
401.963	185.68
402.172	152.91
402.381	-15.02
402.59	111.96
402.799	85.33
403.008	107.86
403.217	111.96
403.426	66.9
403.635	9.56
403.844	95.57
404.053	99.67
404.262	118.1
404.471	193.87
404.68	146.77
404.888	116.05
405.097	77.14
405.306	34.13
405.515	157.01
405.724	97.62
405.933	124.24
406.142	195.92
406.35	132.44
406.559	99.67
406.768	124.24
406.977	159.06
407.185	75.09
407.394	210.26
407.603	159.06
407.812	148.82
408.02	204.11
408.229	269.65
408.438	206.16
408.646	185.68
408.855	167.25
409.064	240.98
409.272	251.22
409.481	259.41
409.69	247.12
409.898	259.41
410.107	290.13
410.315	331.09
410.524	249.17
410.733	247.12
410.941	279.89
411.15	333.14
411.358	329.04
411.567	361.81
411.775	361.81
411.984	392.53
412.192	304.46
412.401	281.94
412.609	402.77
412.818	372.05
413.026	521.55
413.234	419.15
413.443	378.19
413.651	492.88
413.86	537.93
414.068	558.41
414.276	537.93
414.485	591.18
414.693	621.9
414.901	621.9
415.11	640.33
415.318	630.09
415.526	652.62
415.734	714.06
415.943	695.63
416.151	757.07
416.359	761.16
416.567	916.81
416.776	877.9
416.984	841.03
417.192	916.81
417.4	785.74
417.608	841.03
417.817	908.62
418.025	1000.77
418.233	1002.82
418.441	908.62
418.649	1004.87
418.857	1074.5
419.065	1142.08
419.273	1172.8
419.481	1254.72
419.689	1332.54
419.897	1217.86
420.105	1398.08
420.313	1473.85
420.521	1543.49
420.729	1574.21
420.937	1615.16
421.145	1647.93
421.353	1735.99
421.561	1795.39
421.769	1733.95
421.977	1934.65
422.185	1787.19
422.393	2006.33
422.601	2059.57
422.809	2045.24
423.017	2123.06
423.224	2192.69
423.432	2313.52
423.64	2262.32
423.848	2635.05
424.056	2340.15
424.263	2555.18
424.471	2530.61
424.679	2784.55
424.887	2868.52
425.094	2917.67
425.302	2852.14
425.51	3020.07
425.718	3138.85
425.925	3077.41
426.133	3108.13
426.341	3450.14
426.548	3376.42
426.756	3474.72
426.964	3659.04
427.171	3779.87
427.379	3925.27
427.586	3958.04
427.794	4177.17
428.001	4316.44
428.209	4437.27
428.417	4424.98
428.624	4683.02
428.832	4775.18
429.039	4664.59
429.247	4726.03
429.454	5184.77
429.662	5494.02
429.869	5133.57
430.076	5577.98
430.284	5399.81
430.491	5764.35
430.699	5842.17
430.906	5934.33
431.114	5924.09
431.321	6102.26
431.528	6302.97
431.736	6726.89
431.943	6974.7
432.15	6782.19
432.358	6900.97
432.565	7558.37
432.772	7195.88
432.979	7705.82
433.187	7851.23
433.394	7791.84
433.601	8297.69
433.808	8451.28
434.016	8486.1
434.223	8680.66
434.43	9145.55
434.637	9106.63
434.844	9827.52
435.052	9700.55
435.259	9757.89
435.466	9741.5
435.673	9723.07
435.88	10542.26
436.087	10724.53
436.294	10958
436.501	10681.52
436.708	10781.87
436.915	11220.14
437.122	11740.32
437.329	11781.28
437.537	12166.3
437.743	12336.28
437.95	12246.17
438.157	12991.63
438.364	13145.23
438.571	13329.55
438.778	13536.39
438.985	14589.05
439.192	14054.53
439.399	14615.67
439.606	13796.48
439.813	14877.81
440.02	16024.67
440.227	15662.18
440.433	15479.91
440.64	15760.48
440.847	15930.47
441.054	16313.44
441.261	17312.85
441.467	16921.68
441.674	17245.26
441.881	17980.48
442.088	18015.3
442.294	17878.08
442.501	18711.61
442.708	18500.67
442.914	19471.4
443.121	20120.61
443.328	19610.67
443.534	21279.76
443.741	20509.72
443.948	20182.05
444.154	21718.03
444.361	21656.59
444.568	21871.62
444.774	21910.53
444.981	22041.6
445.187	22565.88
445.394	23575.53
445.6	23464.94
445.807	25916.36
446.013	24368.1
446.22	24890.33
446.426	25940.94
446.633	26297.28
446.839	26928.06
447.046	26076.1
447.252	27268.02
447.459	27274.17
447.665	27087.8
447.871	28580.77
448.078	29803.41
448.284	28128.17
448.491	29318.04
448.697	29997.96
448.903	30595.97
449.11	30690.18
449.316	30020.49
449.522	30532.48
449.728	31673.2
449.935	31857.52
450.141	32224.11
450.347	32467.81
450.553	31112.06
450.76	31566.71
450.966	32701.28
451.172	32433
451.378	33125.21
451.584	32725.86
451.791	33323.86
451.997	33465.17
452.203	34018.13
452.409	33512.28
452.615	33626.96
452.821	32199.53
453.027	31501.17
453.233	33649.49
453.44	32250.73
453.646	32686.95
453.852	32654.18
454.058	33348.44
454.264	31966.06
454.47	32721.76
454.676	31724.4
454.882	32852.83
455.088	30223.24
455.294	30446.47
455.5	30475.14
455.705	31417.21
455.911	29811.6
456.117	29291.41
456.323	29131.67
456.529	27562.93
456.735	28375.97
456.941	27796.4
457.147	27419.57
457.352	26399.68
457.558	26215.37
457.764	26139.59
457.97	25672.65
458.176	24814.55
458.381	25183.19
458.587	24069.09
458.793	23747.56
458.999	22551.55
459.204	24271.84
459.41	23593.97
459.616	21974.02
459.821	21840.9
460.027	21867.53
460.233	21586.96
460.438	20321.31
460.644	20337.69
460.85	19571.75
461.055	19481.64
461.261	19246.13
461.466	17798.21
461.672	17374.28
461.878	18273.34
462.083	17585.22
462.289	17040.47
462.494	16704.6
462.7	16192.61
462.905	15713.38
463.111	16284.76
463.316	16268.38
463.522	15961.19
463.727	16057.44
463.932	15850.6
464.138	15643.75
464.343	15807.59
464.549	15408.23
464.754	15838.31
464.959	15905.89
465.165	15602.79
465.37	14937.2
465.575	14492.79
465.781	15060.08
465.986	15053.94
466.191	14677.11
466.397	14425.21
466.602	13651.08
466.807	14107.77
467.012	14173.31
467.218	14017.66
467.423	14107.77
467.628	14152.83
467.833	14707.83
468.038	14146.69
468.244	13833.35
468.449	14025.86
468.654	13431.94
468.859	13571.21
469.064	13436.04
469.269	12950.67
469.474	13190.28
469.679	13558.92
469.885	12809.36
470.09	13106.32
470.295	13065.36
470.5	12596.37
470.705	12848.27
470.91	12416.15
471.115	12244.12
471.32	12723.35
471.525	12551.32
471.73	12207.26
471.935	12219.55
472.139	11605.16
472.344	11758.75
472.549	11801.76
472.754	11867.3
472.959	11508.9
473.164	11236.52
473.369	11130.03
473.574	11588.77
473.778	11316.39
473.983	11150.51
474.188	11177.13
474.393	10513.59
474.598	10712.24
474.802	10509.49
475.007	10532.02
475.212	10429.62
475.417	10245.31
475.621	10194.11
475.826	10353.85
476.031	9966.78
476.235	9856.19
476.44	10089.66
476.645	9856.19
476.849	9727.17
477.054	9450.69
477.259	9413.83
477.463	9604.29
477.668	9352.39
477.872	9233.61
478.077	9188.55
478.282	9028.81
478.486	9057.48
478.691	8813.77
478.895	8752.34
479.1	8903.89
479.304	8828.11
479.509	8664.27
479.713	8905.93
479.918	8516.82
480.122	8561.87
480.326	8439
480.531	8570.07
480.735	8432.85
480.94	8453.33
481.144	8672.47
481.348	8119.51
481.553	8307.93
481.757	8125.66
481.961	8404.18
482.166	8389.85
482.37	8283.35
482.574	8039.64
482.778	8053.98
482.983	8406.23
483.187	8254.68
483.391	8207.58
483.595	8049.88
483.8	8172.76
484.004	8127.71
484.208	8211.67
484.412	7963.87
484.616	8172.76
484.821	8281.3
485.025	8039.64
485.229	8160.47
485.433	8068.31
485.637	8168.66
485.841	8105.18
486.045	8236.25
486.249	8238.3
486.453	8088.79
486.657	8185.05
486.861	8086.75
487.065	8049.88
487.269	8021.21
487.473	7976.16
487.677	8283.35
487.881	8303.83
488.085	8058.07
488.289	8115.42
488.493	8103.13
488.697	8246.49
488.901	8080.6
489.105	8027.35
489.309	8340.69
489.512	8303.83
489.716	8164.57
489.92	8240.34
490.124	8127.71
490.328	8426.71
490.531	8303.83
490.735	8373.46
490.939	8287.45
491.143	8439
491.346	8193.24
491.55	8619.22
491.754	8484.05
491.958	8488.15
492.161	8576.21
492.365	8625.36
492.569	8365.27
492.772	8598.74
492.976	8682.7
493.18	8840.4
493.383	8860.88
493.587	8746.19
493.79	8981.71
493.994	8713.42
494.197	8975.56
494.401	8910.03
494.605	8887.5
494.808	9227.46
495.012	9295.05
495.215	9264.33
495.419	9323.72
495.622	9356.49
495.825	9370.82
496.029	9356.49
496.232	9542.85
496.436	9555.14
496.639	9979.07
496.843	9987.26
497.046	9938.11
497.249	10216.63
497.453	9970.88
497.656	10179.77
497.859	10161.34
498.063	10446.01
498.266	10435.77
498.469	10638.51
498.673	10763.44
498.876	10697.91
499.079	10898.61
499.282	10980.53
499.485	11166.89
499.689	11244.71
499.892	11476.13
500.095	11369.64
500.298	11787.43
500.501	11680.93
500.705	12065.95
500.908	11951.26
501.111	12094.62
501.314	12362.9
501.517	12321.95
501.72	12477.59
501.923	12579.99
502.126	12772.5
502.329	13120.65
502.532	13173.9
502.735	13036.69
502.938	13464.71
503.141	13577.35
503.344	13692.04
503.547	13784.19
503.75	14056.57
503.953	14005.38
504.156	14255.23
504.359	14230.65
504.562	14351.48
504.765	14730.36
504.968	14713.97
505.17	14881.91
505.373	15070.32
505.576	15330.41
505.779	15680.61
505.982	15334.51
506.185	15942.75
506.387	15934.56
506.59	16047.2
506.793	16307.29
506.996	16403.55
507.198	16614.49
507.401	16987.22
507.604	17009.75
507.807	17464.39
508.009	17216.59
508.212	17593.42
508.415	17675.34
508.617	17935.43
508.82	17906.76
509.022	17636.42
509.225	18160.7
509.428	18269.25
509.63	18662.46
509.833	18648.12
510.035	19194.93
510.238	18875.45
510.44	19375.15
510.643	19366.96
510.845	19794.98
511.048	19647.53
511.25	20253.73
511.453	20075.56
511.655	20769.82
511.858	20491.29
512.06	20689.95
512.262	20837.4
512.465	21070.87
512.667	21183.51
512.87	21447.69
513.072	21546
513.274	22105.09
513.477	22125.57
513.679	22377.47
513.881	22787.07
514.084	22838.26
514.286	22957.05
514.488	22920.18
514.69	23825.39
514.893	23745.51
515.095	23602.16
515.297	23935.98
515.499	24042.47
515.701	24386.53
515.904	24521.7
516.106	24853.47
516.308	25058.26
516.51	25373.65
516.712	25451.47
516.914	25478.1
517.116	25867.21
517.318	26041.29
517.52	25893.83
517.722	26665.92
517.925	26565.57
518.127	27059.13
518.329	27165.62
518.531	27087.8
518.733	27528.11
518.935	27931.56
519.136	27814.83
519.338	28386.21
519.54	28150.7
519.742	28971.93
519.944	28789.66
520.146	29565.84
520.348	29576.08
520.55	29408.15
520.752	29569.94
520.954	30315.4
521.155	30004.11
521.357	30643.07
521.559	30843.77
521.761	31452.02
521.963	31019.9
522.164	31093.63
522.366	31751.02
522.568	31937.39
522.77	32064.36
522.971	32676.71
523.173	32334.7
523.375	32926.56
523.576	32904.03
523.778	33213.27
523.98	33332.06
524.181	33762.13
524.383	33598.29
524.584	34313.03
524.786	34132.81
524.988	34155.34
525.189	34659.14
525.391	35154.75
525.592	35130.17
525.794	35040.06
525.995	35162.94
526.197	35404.6
526.398	35531.58
526.6	35924.79
526.801	35773.24
527.003	36371.24
527.204	35986.22
527.406	36537.13
527.607	36236.08
527.808	36709.16
528.01	36483.88
528.211	37022.5
528.412	37780.24
528.614	37911.31
528.815	37821.2
529.016	37868.31
529.218	37602.07
529.419	37808.92
529.62	37982.99
529.822	37972.75
530.023	37845.78
530.224	38185.74
530.425	38652.68
530.626	38361.87
530.828	38288.14
531.029	39136
531.23	38189.84
531.431	38972.16
531.632	39123.71
531.833	39297.79
532.035	38816.52
532.236	39322.37
532.437	39228.16
532.638	38976.26
532.839	39385.85
533.04	39539.45
533.241	39207.68
533.442	40252.14
533.643	39564.03
533.844	39510.78
534.045	39467.77
534.246	39527.16
534.447	39936.76
534.648	39838.45
534.849	40235.76
535.05	39650.04
535.251	39920.37
535.451	39820.02
535.652	39985.91
535.853	40458.99
536.054	39731.96
536.255	40057.59
536.456	39774.97
536.657	40618.73
536.857	40037.11
537.058	40188.66
537.259	40753.9
537.46	40276.72
537.66	40202.99
537.861	40368.88
538.062	39985.91
538.263	40348.4
538.463	39908.08
538.664	39828.21
538.865	40280.81
539.065	40616.68
539.266	40272.62
539.466	40495.85
539.667	39944.95
539.868	40639.21
540.068	40481.52
540.269	40065.78
540.469	40422.12
540.67	40137.46
540.87	40137.46
541.071	39998.19
541.271	40385.26
541.472	39949.04
541.672	39703.29
541.873	39631.61
542.073	39594.75
542.274	40342.25
542.474	40026.87
542.675	40336.11
542.875	40254.19
543.075	40342.25
543.276	39713.53
543.476	40311.53
543.676	39736.05
543.877	40340.21
544.077	40020.72
544.277	40553.19
544.478	40100.59
544.678	40028.91
544.878	39844.6
545.078	40594.15
545.279	39834.36
545.479	39852.79
545.679	40295.15
545.879	40049.39
546.079	39881.46
546.28	40311.53
546.48	39400.19
546.68	40405.74
546.88	40487.66
547.08	39885.56
547.28	39688.95
547.48	39224.06
547.68	40114.93
547.88	39668.47
548.081	39891.7
548.281	39942.9
548.481	39643.9
548.681	40209.14
548.881	40141.55
549.081	39836.41
549.28	40196.85
549.48	40159.98
549.68	39803.64
549.88	40458.99
550.08	39586.55
550.28	39992.05
550.48	39693.05
550.68	39881.46
550.88	39885.56
551.08	39600.89
551.279	40094.45
551.479	39922.42
551.679	39731.96
551.879	39736.05
552.079	39848.69
552.278	39496.44
552.478	40057.59
552.678	39801.59
552.878	40010.48
553.077	39619.32
553.277	39242.49
553.477	39906.04
553.676	39222.01
553.876	39725.82
554.076	39136
554.275	39408.38
554.475	38916.87
554.674	39414.52
554.874	39455.48
555.074	39238.4
555.273	39262.97
555.473	39682.81
555.672	39320.32
555.872	38757.13
556.071	39328.51
556.271	39238.4
556.47	38624.01
556.67	38673.16
556.869	38628.1
557.068	38744.84
557.268	38624.01
557.467	38624.01
557.667	38574.86
557.866	38499.08
558.065	38454.03
558.265	38423.31
558.464	38175.5
558.663	38345.48
558.863	37792.53
559.062	38679.3
559.261	37960.47
559.461	38300.43
559.66	37710.61
559.859	37575.45
560.058	37237.53
560.258	37833.49
560.457	37407.51
560.656	37774.1
560.855	37376.79
561.054	37325.6
561.253	37149.47
561.453	37348.12
561.652	37352.22
561.851	37542.68
562.05	36893.47
562.249	36762.4
562.448	36952.87
562.647	36662.05
562.846	36539.18
563.045	36729.64
563.244	36023.09
563.443	36694.82
563.642	36107.05
563.841	36569.9
564.04	35855.15
564.239	36498.22
564.438	35840.82
564.637	36062
564.836	36180.78
565.035	35687.22
565.234	35496.76
565.432	35613.49
565.631	35328.83
565.83	35562.29
566.029	34925.38
566.228	34954.05
566.427	34923.33
566.625	34247.5
566.824	34198.35
567.023	34696
567.222	34339.66
567.42	34716.48
567.619	34581.32
567.818	34716.48
568.016	34286.41
568.215	33907.54
568.414	33971.02
568.612	34231.11
568.811	33766.23
569.01	33803.09
569.208	33332.06
569.407	33504.09
569.605	32607.08
569.804	33590.1
570.002	32795.49
570.201	32578.4
570.4	32695.14
570.598	32836.45
570.797	32340.84
570.995	32637.8
571.193	32047.98
571.392	32312.17
571.59	32389.99
571.789	32445.29
571.987	31599.48
572.186	32068.46
572.384	31841.14
572.582	31937.39
572.781	31906.67
572.979	31748.98
573.177	31624.05
573.376	31603.57
573.574	31058.81
573.772	31210.36
573.971	30952.32
574.169	30886.78
574.367	30935.93
574.565	30972.8
574.763	30331.78
574.962	30481.28
575.16	29995.92
575.358	30270.34
575.556	29940.62
575.754	30602.11
575.952	29883.28
576.151	30151.56
576.349	29647.76
576.547	30133.13
576.745	29987.72
576.943	29537.17
577.141	29266.84
577.339	29842.32
577.537	29330.33
577.735	29469.59
577.933	29326.23
578.131	29211.54
578.329	29103
578.527	28892.06
578.725	28922.78
578.923	29041.56
579.121	28701.6
579.319	28816.29
579.516	28806.05
579.714	28556.19
579.912	28269.48
580.11	28259.24
580.308	28382.12
580.506	28234.66
580.704	27919.28
580.901	28072.87
581.099	28234.66
581.297	27896.75
581.495	27796.4
581.692	27827.12
581.89	27079.61
582.088	27665.33
582.285	27300.79
582.483	27591.6
582.681	27399.09
582.878	26993.59
583.076	26928.06
583.274	27339.7
583.471	26811.32
583.669	27212.73
583.866	26696.64
584.064	26858.43
584.262	26536.9
584.459	26784.7
584.657	26432.45
584.854	26829.76
585.052	26336.2
585.249	26233.8
585.447	26348.48
585.644	25670.61
585.841	26076.1
586.039	26500.03
586.236	25668.56
586.434	25975.75
586.631	25689.04
586.828	25727.95
587.026	25625.55
587.223	25613.26
587.42	25428.95
587.618	25414.61
587.815	24980.44
588.012	25267.16
588.21	24888.28
588.407	25134.04
588.604	24882.14
588.801	24587.23
588.999	24837.08
589.196	25066.45
589.393	24835.03
589.59	24581.09
589.787	24407.01
589.984	24161.25
590.182	23974.89
590.379	24234.98
590.576	24286.18
590.773	24175.59
590.97	23915.5
591.167	24296.42
591.364	23874.54
591.561	24167.4
591.758	23677.93
591.955	24048.61
592.152	23686.12
592.349	23520.24
592.546	23442.42
592.743	23553.01
592.94	23213.04
593.137	23235.57
593.334	23405.55
593.531	22651.9
593.727	22955
593.924	22924.28
594.121	22875.13
594.318	22922.23
594.515	22653.95
594.712	22828.02
594.908	22375.42
595.105	22666.24
595.302	22428.67
595.499	22664.19
595.696	22217.73
595.892	21941.25
596.089	22289.41
596.286	22598.65
596.482	22082.56
596.679	22000.65
596.876	22021.13
597.072	22014.98
597.269	21937.16
597.466	21466.13
597.662	21908.49
597.859	21918.73
598.055	21621.77
598.252	21478.41
598.448	21443.6
598.645	21527.56
598.841	21265.42
599.038	21191.7
599.234	21386.26
599.431	21179.41
599.627	20759.58
599.824	21181.46
600.02	21009.43
600.217	20851.74
600.413	21027.86
600.609	20427.81
600.806	20524.06
601.002	20753.43
601.198	20691.99
601.395	20395.04
601.591	20286.5
601.787	20556.83
601.984	20175.91
602.18	20216.86
602.376	20036.64
602.572	20132.9
602.769	20192.29
602.965	20053.03
603.161	19977.25
603.357	19749.93
603.553	19696.68
603.75	19768.36
603.946	19803.18
604.142	19780.65
604.338	19395.63
604.534	19504.17
604.73	19295.28
604.926	19287.09
605.122	19758.12
605.318	19051.57
605.514	19321.9
605.71	19088.43
605.906	19168.3
606.102	19336.24
606.298	18998.32
606.494	18824.25
606.69	19182.64
606.886	18811.96
607.082	18934.84
607.278	18840.63
607.474	18265.15
607.67	18629.69
607.866	18334.78
608.062	18598.97
608.257	18543.67
608.453	18373.69
608.649	18318.4
608.845	18398.27
609.041	18152.51
609.236	18289.73
609.432	18062.4
609.628	18263.1
609.824	18218.05
610.019	18029.63
610.215	18129.98
610.411	18463.8
610.606	18074.69
610.802	18103.36
610.998	18019.39
611.193	17996.87
611.389	17759.3
611.584	17914.95
611.78	17704.01
611.976	17726.53
612.171	17771.59
612.367	17597.51
612.562	17554.51
612.758	17273.93
612.953	17413.2
613.149	17542.22
613.344	17507.4
613.539	17429.58
613.735	17505.35
613.93	17218.64
614.126	17243.21
614.321	17488.97
614.517	17077.33
614.712	17226.83
614.907	17228.88
615.103	17251.41
615.298	17048.66
615.493	16958.55
615.688	16854.1
615.884	17099.86
616.079	16919.64
616.274	16858.2
616.47	16925.78
616.665	16737.37
616.86	16792.66
617.055	16577.62
617.25	16557.14
617.445	16704.6
617.641	16395.36
617.836	16626.78
618.031	16397.4
618.226	16727.13
618.421	16329.82
618.616	16391.26
618.811	16200.8
619.006	16424.03
619.201	16237.66
619.396	16028.77
619.591	15852.64
619.786	16376.92
619.981	15746.15
620.176	15819.88
620.371	15840.36
620.566	15783.01
620.761	15920.23
620.956	15914.08
621.151	15508.58
621.346	15830.12
621.541	15287.4
621.735	15547.5
621.93	15240.3
622.125	15305.84
622.32	14963.83
622.515	15064.18
622.709	14945.39
622.904	15058.03
623.099	14673.01
623.294	14695.54
623.488	14769.27
623.683	14845.04
623.878	14326.91
624.072	14513.27
624.267	14466.17
624.462	14410.87
624.656	14130.3
624.851	13915.26
625.046	14142.59
625.24	13862.02
625.435	13735.04
625.629	14052.48
625.824	13640.84
626.018	13704.32
626.213	13292.68
626.407	13616.26
626.602	13517.96
626.796	13442.18
626.991	13323.4
627.185	13266.06
627.38	13057.17
627.574	13194.38
627.768	13272.2
627.963	12991.63
628.157	12653.72
628.352	13044.88
628.546	12938.38
628.74	12874.9
628.935	12412.06
629.129	12600.47
629.323	12532.89
629.517	12399.77
629.712	12076.19
629.906	12237.98
630.1	12194.97
630.294	12211.35
630.489	12217.5
630.683	12149.92
630.877	12154.01
631.071	11928.74
631.265	11902.11
631.459	11842.72
631.653	11742.37
631.848	11699.36
632.042	11533.48
632.236	11623.59
632.43	11562.15
632.624	11596.96
632.818	11336.87
633.012	11224.23
633.206	11396.26
633.4	11238.57
633.594	10894.51
633.788	11246.76
633.982	11107.5
634.176	11068.59
634.369	10984.62
634.563	10900.66
634.757	10794.16
634.951	10548.4
635.145	10824.88
635.339	10841.26
635.533	10685.62
635.726	10802.35
635.92	10368.18
636.114	10413.24
636.308	10312.89
636.501	10577.08
636.695	10226.87
636.889	10114.24
637.083	10228.92
637.276	9970.88
637.47	9960.64
637.664	9962.69
637.857	9807.04
638.051	9845.95
638.244	10001.6
638.438	9911.49
638.632	9848
638.825	9657.54
639.019	9542.85
639.212	9520.32
639.406	9307.34
639.599	9571.52
639.793	9444.55
639.986	9309.38
640.18	9336.01
640.373	9229.51
640.567	9143.5
640.76	9067.72
640.954	9053.39
641.147	9012.43
641.34	9178.31
641.534	8869.07
641.727	9004.24
641.92	8891.6
642.114	8733.9
642.307	8899.79
642.5	8815.82
642.694	8748.24
642.887	8733.9
643.08	8862.93
643.273	8455.38
643.467	8756.43
643.66	8527.06
643.853	8359.13
644.046	8309.97
644.239	8398.04
644.432	8357.08
644.626	8168.66
644.819	8103.13
645.012	8260.82
645.205	8230.1
645.398	8332.5
645.591	8119.51
645.784	7947.48
645.977	7681.25
646.17	7980.25
646.363	7865.57
646.556	7812.32
646.749	7869.66
646.942	7797.98
647.135	7703.78
647.328	7525.6
647.521	7484.64
647.714	7558.37
647.907	7433.44
648.099	7429.35
648.292	7648.48
648.485	7451.88
648.678	7601.38
648.871	7439.59
649.064	7298.28
649.256	7359.72
649.449	7324.9
649.642	7329
649.835	7257.32
650.027	7206.12
650.22	7079.15
650.413	7169.26
650.605	7281.89
650.798	7060.71
650.991	6964.46
651.183	6964.46
651.376	7126.25
651.568	6927.6
651.761	6927.6
651.954	6694.13
652.146	6888.68
652.339	6814.96
652.531	6683.89
652.724	6651.12
652.916	6620.4
653.109	6591.73
653.301	6571.25
653.494	6546.67
653.686	6515.95
653.879	6554.87
654.071	6405.36
654.263	6391.03
654.456	6464.75
654.648	6489.33
654.84	6348.02
655.033	6251.77
655.225	6290.68
655.417	6116.6
655.61	6257.91
655.802	6159.61
655.994	6276.34
656.186	6309.11
656.379	6145.27
656.571	6030.59
656.763	6053.11
656.955	6046.97
657.148	6001.91
657.34	6194.42
657.532	5911.8
657.724	5932.28
657.916	5707.01
658.108	5829.88
658.3	5819.64
658.492	5897.47
658.684	5801.21
658.876	5698.81
659.068	5793.02
659.26	5782.78
659.452	5676.29
659.644	5741.82
659.836	5526.78
660.028	5608.7
660.22	5557.5
660.412	5541.12
660.604	5483.78
660.796	5698.81
660.988	5430.53
661.18	5444.87
661.372	5436.67
661.563	5444.87
661.755	5498.11
661.947	5319.94
662.139	5137.67
662.331	5489.92
662.522	5285.12
662.714	5315.84
662.906	5287.17
663.097	5358.85
663.289	5281.03
663.481	5225.73
663.673	5158.15
663.864	5192.97
664.056	5149.96
664.247	5235.97
664.439	4977.93
664.631	5137.67
664.822	5113.1
665.014	5074.18
665.205	5014.79
665.397	4902.15
665.588	5063.94
665.78	4949.26
665.971	4914.44
666.163	5111.05
666.354	4955.4
666.546	5014.79
666.737	4891.91
666.929	4918.54
667.12	4840.72
667.311	4963.59
667.503	4883.72
667.694	4973.83
667.885	4787.47
668.077	4832.52
668.268	4793.61
668.459	4867.34
668.651	4756.75
668.842	4703.5
669.033	4789.52
669.224	4805.9
669.416	4928.78
669.607	4801.8
669.798	4787.47
669.989	4723.98
670.18	4840.72
670.371	4873.48
670.563	4640.01
670.754	4797.71
670.945	4736.27
671.136	4867.34
671.327	4568.34
671.518	4818.19
671.709	4762.89
671.9	4775.18
672.091	4822.28
672.282	4674.83
672.473	4752.65
672.664	4789.52
672.855	4742.41
673.046	4734.22
673.237	4707.6
673.428	4752.65
673.619	4791.56
673.809	4797.71
674	4797.71
674.191	4801.8
674.382	4697.36
674.573	4613.39
674.764	4723.98
674.954	4748.56
675.145	4734.22
675.336	4654.35
675.527	4660.49
675.717	4703.5
675.908	4820.24
676.099	4826.38
676.289	4820.24
676.48	4625.68
676.671	4840.72
676.861	4646.16
677.052	4691.21
677.243	4764.94
677.433	4748.56
677.624	4873.48
677.814	4670.73
678.005	4922.63
678.195	4783.37
678.386	4766.99
678.576	4656.4
678.767	4945.16
678.957	4828.43
679.148	4879.63
679.338	4859.15
679.529	4891.91
679.719	4820.24
679.909	4945.16
680.1	4963.59
680.29	4973.83
680.481	5010.7
680.671	5113.1
680.861	5004.55
681.052	4998.41
681.242	4910.35
681.432	5104.9
681.622	4949.26
681.813	5055.75
682.003	4941.07
682.193	4986.12
682.383	5080.33
682.573	5070.09
682.764	5016.84
682.954	5090.57
683.144	5063.94
683.334	4979.98
683.524	5043.46
683.714	5154.05
683.904	4850.96
684.094	5188.87
684.284	4930.83
684.474	5080.33
684.664	5006.6
684.854	5170.44
685.044	4984.07
685.234	4951.31
685.424	4889.87
685.614	4922.63
685.804	5068.04
685.994	5029.13
686.184	5080.33
686.374	4932.87
686.564	4875.53
686.753	4945.16
686.943	4850.96
687.133	4936.97
687.323	4875.53
687.513	5047.56
687.702	4914.44
687.892	4726.03
688.082	4902.15
688.272	4873.48
688.461	4810
688.651	4865.29
688.841	4762.89
689.03	4906.25
689.22	4752.65
689.41	4633.87
689.599	4660.49
689.789	4625.68
689.979	4588.82
690.168	4719.89
690.358	4658.45
690.547	4564.24
690.737	4572.43
690.926	4490.51
691.116	4482.32
691.305	4367.63
691.495	4521.23
691.684	4314.39
691.874	4357.39
692.063	4359.44
692.252	4203.8
692.442	4285.72
692.631	4216.08
692.82	4275.48
693.01	4189.46
693.199	4240.66
693.388	4179.22
693.578	3949.85
693.767	4218.13
693.956	4216.08
694.146	3933.47
694.335	4128.02
694.524	4158.74
694.713	4097.3
694.902	3974.42
695.092	3949.85
695.281	3888.41
695.47	4072.73
695.659	3919.13
695.848	4019.48
696.037	3810.59
696.226	3812.64
696.415	3837.21
696.604	3933.47
696.793	3826.97
696.982	3908.89
697.171	3867.93
697.36	3822.88
697.549	3714.33
697.738	3753.24
697.927	3691.8
698.116	3806.49
698.305	3499.3
698.494	3743
698.683	3736.86
698.872	3783.96
699.061	3781.92
699.25	3677.47
699.438	3767.58
699.627	3786.01
699.816	3851.55
700.005	3679.52
700.193	3710.24
700.382	3732.76
700.571	3695.9
700.76	3632.41
700.948	3751.2
701.137	3673.37
701.326	3695.9
701.514	3667.23
701.703	3695.9
701.892	3675.42
702.08	3898.65
702.269	3702.04
702.457	3679.52
702.646	3720.48
702.834	3691.8
703.023	3630.37
703.212	3843.35
703.4	3732.76
703.589	3783.96
703.777	3704.09
703.965	3693.85
704.154	3671.33
704.342	3654.94
704.531	3826.97
704.719	3712.28
704.907	3751.2
705.096	3722.52
705.284	3616.03
705.472	3802.4
705.661	3890.46
705.849	3843.35
706.037	3724.57
706.226	3671.33
706.414	3765.53
706.602	3757.34
706.79	3845.4
706.979	3831.07
707.167	3837.21
707.355	3779.87
707.543	3900.7
707.731	3917.08
707.919	3900.7
708.107	3810.59
708.296	3904.79
708.484	3945.75
708.672	3904.79
708.86	3888.41
709.048	3867.93
709.236	3818.78
709.424	3921.18
709.612	3882.27
709.8	3968.28
709.988	4042.01
710.176	4060.44
710.364	4093.21
710.551	4056.34
710.739	4044.06
710.927	4048.15
711.115	4175.13
711.303	4289.81
711.491	4080.92
711.679	4105.49
711.866	4109.59
712.054	4195.61
712.242	4168.98
712.43	4230.42
712.617	4185.37
712.805	4162.84
712.993	4302.1
713.181	4218.13
713.368	4226.32
713.556	4293.91
713.744	4255
713.931	4240.66
714.119	4232.47
714.306	4375.83
714.494	4474.13
714.682	4478.22
714.869	4326.68
715.057	4406.55
715.244	4494.61
715.432	4527.38
715.619	4486.42
715.807	4441.36
715.994	4441.36
716.182	4482.32
716.369	4578.58
716.556	4494.61
716.744	4506.9
716.931	4601.1
717.119	4637.97
717.306	4791.56
717.493	4764.94
717.681	4711.69
717.868	4814.09
718.055	4801.8
718.242	4773.13
718.43	4713.74
718.617	4742.41
718.804	4723.98
718.991	4814.09
719.179	4924.68
719.366	4908.3
719.553	5195.01
719.74	4904.2
719.927	4912.39
720.114	4953.35
720.301	4916.49
720.488	4988.17
720.676	4914.44
720.863	5072.14
721.05	4969.74
721.237	5047.56
721.424	5076.23
721.611	5059.85
721.798	5178.63
721.985	5002.5
722.172	5035.27
722.358	5070.09
722.545	5201.16
722.732	5215.49
722.919	5170.44
723.106	5219.59
723.293	5152.01
723.48	5192.97
723.667	5235.97
723.853	5231.88
724.04	5301.51
724.227	5391.62
724.414	5315.84
724.6	5313.8
724.787	5383.43
724.974	5354.76
725.161	5467.39
725.347	5365
725.534	5612.8
725.72	5496.07
725.907	5514.5
726.094	5438.72
726.28	5528.83
726.467	5373.19
726.653	5436.67
726.84	5465.35
727.027	5643.52
727.213	5262.6
727.4	5678.33
727.586	5620.99
727.773	5594.37
727.959	5674.24
728.145	5743.87
728.332	5733.63
728.518	5526.78
728.705	5704.96
728.891	5864.7
729.077	5819.64
729.264	5713.15
729.45	5827.84
729.636	5866.75
729.823	5788.92
730.009	5987.58
730.195	5983.48
730.382	5776.64
730.568	5954.81
730.754	5846.27
730.94	5790.97
731.126	5889.28
731.313	5827.84
731.499	5889.28
731.685	5977.34
731.871	5971.19
732.057	5973.24
732.243	5960.95
732.429	5885.18
732.615	5954.81
732.801	6096.12
732.987	5946.62
733.173	5817.6
733.359	6012.15
733.545	6104.31
733.731	5981.43
733.917	6192.37
734.103	6036.73
734.289	6132.98
734.475	6083.83
734.661	6083.83
734.847	6022.39
735.033	5944.57
735.219	6044.92
735.404	6012.15
735.59	6069.5
735.776	5903.61
735.962	6167.8
736.148	6130.94
736.333	6085.88
736.519	5940.47
736.705	6126.84
736.89	6243.57
737.076	6006.01
737.262	6077.69
737.447	6079.74
737.633	5979.39
737.819	6137.08
738.004	6071.54
738.19	5856.51
738.375	5991.67
738.561	6108.41
738.747	5872.89
738.932	6116.6
739.118	6016.25
739.303	6046.97
739.489	6079.74
739.674	5928.19
739.859	6028.54
740.045	5973.24
740.23	6036.73
740.416	5782.78
740.601	5965.05
740.786	5893.37
740.972	5840.12
741.157	5911.8
741.342	5932.28
741.528	5897.47
741.713	5852.41
741.898	5924.09
742.084	5913.85
742.269	5981.43
742.454	5821.69
742.639	5897.47
742.824	5766.4
743.01	5889.28
743.195	5686.53
743.38	5758.21
743.565	5698.81
743.75	5723.39
743.935	5692.67
744.12	5733.63
744.305	5537.02
744.49	5508.35
744.675	5700.86
744.86	5395.71
745.045	5385.48
745.23	5522.69
745.415	5432.58
745.6	5420.29
745.785	5328.13
745.97	5412.1
746.155	5403.91
746.34	5440.77
746.525	5426.43
746.71	5600.51
746.895	5319.94
747.079	5371.14
747.264	5096.71
747.449	5178.63
747.634	5080.33
747.819	5235.97
748.003	5094.66
748.188	5127.43
748.373	5053.7
748.557	5203.21
748.742	5006.6
748.927	4998.41
749.111	4891.91
749.296	4908.3
749.481	4832.52
749.665	4881.67
749.85	4674.83
750.034	4769.04
750.219	4855.05
750.404	4799.76
750.588	4642.06
750.773	4752.65
750.957	4723.98
751.141	4621.58
751.326	4609.29
751.51	4597.01
751.695	4461.84
751.879	4533.52
752.064	4619.53
752.248	4406.55
752.432	4375.83
752.617	4338.96
752.801	4420.88
752.985	4179.22
753.17	4240.66
753.354	4281.62
753.538	4220.18
753.722	4031.77
753.907	4119.83
754.091	4111.64
754.275	4154.65
754.459	3964.18
754.643	3937.56
754.828	3923.23
755.012	3802.4
755.196	3831.07
755.38	4021.53
755.564	3933.47
755.748	3876.12
755.932	3716.38
756.116	3812.64
756.3	3702.04
756.484	3826.97
756.668	3683.61
756.852	3673.37
757.036	3573.02
757.22	3648.8
757.404	3519.78
757.588	3630.37
757.772	3470.62
757.956	3515.68
758.14	3581.21
758.323	3482.91
758.507	3472.67
758.691	3423.52
758.875	3505.44
759.059	3274.02
759.242	3337.51
759.426	3282.21
759.61	3370.27
759.794	3384.61
759.977	3198.24
760.161	3282.21
760.345	3310.88
760.528	3220.77
760.712	3140.9
760.895	3097.89
761.079	3251.49
761.263	3106.09
761.446	3048.74
761.63	3130.66
761.813	3073.32
761.997	3077.41
762.18	3075.37
762.364	2899.24
762.547	2993.45
762.731	2909.48
762.914	2979.11
763.098	2952.49
763.281	2884.91
763.464	2817.32
763.648	2946.34
763.831	2813.23
764.015	2917.67
764.198	2817.32
764.381	2802.99
764.564	2882.86
764.748	2911.53
764.931	2874.67
765.114	2802.99
765.297	2759.98
765.481	2712.88
765.664	2606.38
765.847	2684.2
766.03	2755.88
766.213	2661.68
766.397	2630.96
766.58	2520.37
766.763	2573.61
766.946	2647.34
767.129	2512.18
767.312	2532.65
767.495	2463.02
767.678	2508.08
767.861	2555.18
768.044	2694.44
768.227	2467.12
768.41	2438.45
768.593	2583.85
768.776	2514.22
768.959	2475.31
769.142	2506.03
769.324	2426.16
769.507	2516.27
769.69	2475.31
769.873	2409.78
770.056	2389.3
770.239	2342.19
770.421	2352.43
770.604	2317.62
770.787	2299.19
770.97	2311.47
771.152	2233.65
771.335	2344.24
771.518	2299.19
771.7	2258.23
771.883	2338.1
772.066	2168.12
772.248	2180.4
772.431	2258.23
772.613	2323.76
772.796	2080.05
772.978	2194.74
773.161	2178.36
773.343	2086.2
773.526	2151.73
773.708	2024.76
773.891	1996.09
774.073	2043.19
774.256	2004.28
774.438	2073.91
774.621	1991.99
774.803	1975.61
774.985	1948.98
775.168	1959.22
775.35	1957.18
775.532	1946.94
775.715	1877.3
775.897	1883.45
776.079	1996.09
776.261	1776.95
776.444	1844.54
776.626	1895.74
776.808	1883.45
776.99	1652.03
777.173	1844.54
777.355	1832.25
777.537	1754.43
777.719	1807.67
777.901	1709.37
778.083	1672.51
778.265	1668.41
778.447	1721.66
778.629	1678.65
778.811	1643.84
778.993	1656.12
779.175	1719.61
779.357	1637.69
779.539	1563.97
779.721	1711.42
779.903	1621.31
780.085	1500.48
780.267	1531.2
780.449	1342.78
780.631	1533.25
780.812	1408.32
780.994	1512.77
781.176	1514.81
781.358	1469.76
781.54	1490.24
781.721	1369.41
781.903	1391.94
782.085	1377.6
782.267	1459.52
782.448	1389.89
782.63	1262.91
782.812	1334.59
782.993	1385.79
783.175	1369.41
783.357	1348.93
783.538	1359.17
783.72	1271.11
783.901	1217.86
784.083	1361.22
784.264	1221.95
784.446	1199.43
784.627	1156.42
784.809	1236.29
784.99	1221.95
785.172	1254.72
785.353	1191.24
785.535	1287.49
785.716	1187.14
785.897	1076.55
786.079	1127.75
786.26	1285.44
786.441	1078.6
786.623	1107.27
786.804	1008.97
786.985	980.29
787.167	1082.69
787.348	1156.42
787.529	1045.83
787.71	1129.8
787.891	1078.6
788.073	974.15
788.254	992.58
788.435	1013.06
788.616	914.76
788.797	922.95
788.978	947.53
789.159	931.14
789.34	965.96
789.522	955.72
789.703	890.18
789.884	1049.93
790.065	1021.25
790.246	949.57
790.427	855.37
790.607	937.29
790.788	933.19
790.969	865.61
791.15	922.95
791.331	925
791.512	861.51
791.693	855.37
791.874	845.13
792.054	931.14
792.235	1033.54
792.416	929.1
792.597	804.17
792.778	812.36
792.958	900.42
793.139	828.74
793.32	812.36
793.5	795.98
793.681	900.42
793.862	769.35
794.042	730.44
794.223	693.58
794.404	738.63
794.584	738.63
794.765	746.83
794.945	769.35
795.126	712.01
795.306	771.4
795.487	718.15
795.667	734.54
795.848	828.74
796.028	720.2
796.209	691.53
796.389	744.78
796.57	724.3
796.75	693.58
796.93	714.06
797.111	726.35
797.291	746.83
797.471	697.67
797.652	697.67
797.832	730.44
798.012	691.53
798.192	605.52
798.373	689.48
798.553	714.06
798.733	607.56
798.913	613.71
799.093	750.92
799.274	589.13
799.454	679.24
799.634	646.48
799.814	646.48
799.994	646.48
800.174	623.95
800.354	611.66
800.534	632.14
800.714	607.56
800.894	566.6
801.074	578.89
801.254	630.09
801.434	646.48
801.614	611.66
801.794	529.74
801.974	1328.45
802.154	490.83
802.334	640.33
802.514	531.79
802.693	589.13
802.873	615.76
803.053	572.75
803.233	562.51
803.413	529.74
803.592	525.65
803.772	556.36
803.952	517.45
804.131	582.99
804.311	499.02
804.491	505.17
804.67	607.56
804.85	576.84
805.03	529.74
805.209	542.03
805.389	480.59
805.568	509.26
805.748	519.5
805.928	488.78
806.107	427.34
806.287	546.12
806.466	587.08
806.646	513.36
806.825	499.02
807.004	472.4
807.184	558.41
807.363	488.78
807.543	519.5
807.722	441.68
807.901	490.83
808.081	509.26
808.26	513.36
808.439	462.16
808.619	427.34
808.798	419.15
808.977	443.73
809.156	417.1
809.336	406.86
809.515	425.29
809.694	410.96
809.873	415.06
810.052	490.83
810.231	449.87
810.411	462.16
810.59	468.3
810.769	484.69
810.948	458.06
811.127	419.15
811.306	415.06
811.485	443.73
811.664	431.44
811.843	431.44
812.022	496.97
812.201	441.68
812.38	382.29
812.559	304.46
812.737	402.77
812.916	345.42
813.095	322.9
813.274	382.29
813.453	326.99
813.632	402.77
813.811	398.67
813.989	308.56
814.168	415.06
814.347	361.81
814.526	410.96
814.704	431.44
814.883	349.52
815.062	363.86
815.24	343.38
815.419	343.38
815.598	357.71
815.776	247.12
815.955	382.29
816.133	380.24
816.312	255.31
816.49	349.52
816.669	263.51
816.847	249.17
817.026	376.14
817.204	337.23
817.383	314.7
817.561	243.03
817.74	310.61
817.918	316.75
818.097	370
818.275	320.85
818.453	380.24
818.632	320.85
818.81	312.66
818.988	288.08
819.167	370
819.345	324.94
819.523	288.08
819.701	279.89
819.879	326.99
820.058	324.94
820.236	370
820.414	253.27
820.592	214.35
820.77	326.99
820.948	253.27
821.127	294.22
821.305	275.79
821.483	255.31
821.661	355.66
821.839	296.27
822.017	294.22
822.195	281.94
822.373	367.95
822.551	238.93
822.729	320.85
822.907	312.66
823.085	361.81
823.262	269.65
823.44	236.88
823.618	232.79
823.796	234.83
823.974	374.1
824.152	286.03
824.329	265.55
824.507	296.27
824.685	294.22
824.863	316.75
825.04	357.71
825.218	238.93
825.396	279.89
825.574	298.32
825.751	267.6
825.929	193.87
826.107	197.97
826.284	286.03
826.462	245.07
826.639	185.68
826.817	208.21
826.994	263.51
827.172	243.03
827.349	269.65
827.527	286.03
827.704	220.5
827.882	202.07
828.059	243.03
828.237	206.16
828.414	240.98
828.591	111.96
828.769	197.97
828.946	171.35
829.124	197.97
829.301	210.26
829.478	238.93
829.655	167.25
829.833	204.11
830.01	124.24
830.187	329.04
830.364	124.24
830.542	255.31
830.719	255.31
830.896	144.72
831.073	191.83
831.25	234.83
831.427	212.31
831.604	173.39
831.782	136.53
831.959	193.87
832.136	206.16
832.313	220.5
832.49	185.68
832.667	165.2
832.844	159.06
833.021	177.49
833.198	163.15
833.374	177.49
833.551	128.34
833.728	95.57
833.905	230.74
834.082	124.24
834.259	189.78
834.436	181.59
834.612	181.59
834.789	148.82
834.966	189.78
835.143	142.68
835.319	163.15
835.496	148.82
835.673	171.35
835.85	312.66
836.026	206.16
836.203	251.22
836.38	159.06
836.556	132.44
836.733	105.81
836.909	230.74
837.086	163.15
837.262	152.91
837.439	150.87
837.616	152.91
837.792	144.72
837.968	185.68
838.145	114
838.321	146.77
838.498	177.49
838.674	130.39
838.851	140.63
839.027	120.15
839.203	189.78
839.38	140.63
839.556	114
839.732	181.59
839.909	99.67
840.085	214.35
840.261	152.91
840.437	167.25
840.614	169.3
840.79	154.96
840.966	189.78
841.142	138.58
841.318	109.91
841.494	181.59
841.671	179.54
841.847	79.19
842.023	93.52
842.199	124.24
842.375	167.25
842.551	120.15
842.727	75.09
842.903	200.02
843.079	152.91
843.255	107.86
843.431	120.15
843.607	197.97
843.783	99.67
843.959	144.72
844.134	64.85
844.31	197.97
844.486	130.39
844.662	107.86
844.838	79.19
845.013	40.28
845.189	73.04
845.365	152.91
845.541	81.24
845.716	97.62
845.892	97.62
846.068	116.05
846.244	132.44
846.419	159.06
846.595	54.61
846.77	138.58
846.946	101.72
847.122	30.04
847.297	109.91
847.473	189.78
847.648	85.33
847.824	138.58
847.999	3.41
848.175	124.24
848.35	87.38
848.526	128.34
848.701	15.7
848.876	99.67
849.052	103.76
849.227	130.39
849.403	103.76
849.578	146.77
849.753	79.19
849.929	140.63
850.104	-10.92
850.279	132.44
850.454	169.3
850.63	93.52
850.805	130.39
850.98	91.48
851.155	116.05
851.33	66.9
851.505	87.38
851.681	187.73
851.856	58.71
852.031	103.76
852.206	75.09
852.381	136.53
852.556	68.95
852.731	58.71
852.906	107.86
853.081	77.14
853.256	83.28
853.431	101.72
853.606	68.95
853.781	66.9
853.956	81.24
854.131	75.09
854.305	68.95
854.48	34.13
854.655	54.61
854.83	17.75
855.005	38.23
855.18	25.94
855.354	75.09
855.529	89.43
855.704	105.81
855.879	40.28
856.053	79.19
856.228	48.47
856.403	56.66
856.577	111.96
856.752	17.75
856.926	132.44
857.101	56.66
857.276	87.38
857.45	71
857.625	111.96
857.799	91.48
857.974	-10.92
858.148	79.19
858.323	87.38
858.497	-23.21
858.672	68.95
858.846	-15.02
859.02	83.28
859.195	-10.92
859.369	5.46
859.543	19.8
859.718	107.86
859.892	68.95
860.066	87.38
860.241	56.66
860.415	54.61
860.589	17.75
860.763	93.52
860.938	38.23
861.112	89.43
861.286	95.57
861.46	3.41
861.634	91.48
861.808	118.1
861.982	21.85
862.157	46.42
862.331	-27.31
862.505	71
862.679	93.52
862.853	50.52
863.027	54.61
863.201	58.71
863.375	34.13
863.549	25.94
863.722	-23.21
863.896	157.01
864.07	38.23
864.244	81.24
864.418	120.15
864.592	-15.02
864.766	32.08
864.939	46.42
865.113	-10.92
865.287	71
865.461	-17.07
865.634	75.09
865.808	34.13
865.982	23.89
866.156	5.46
866.329	17.75
866.503	75.09
866.676	79.19
866.85	103.76
867.024	138.58
867.197	50.52
867.371	58.71
867.544	71
867.718	11.61
867.891	58.71
868.065	34.13
868.238	-35.5
868.412	130.39
868.585	-10.92
868.759	-53.93
868.932	25.94
869.105	58.71
869.279	-10.92
869.452	11.61
869.625	11.61
869.799	-8.87
869.972	38.23
870.145	3.41
870.319	42.32
870.492	68.95
870.665	9.56
870.838	-39.59
871.011	1.37
871.185	66.9
871.358	-47.79
871.531	-6.83
871.704	15.7
871.877	36.18
872.05	91.48
872.223	73.04
872.396	7.51
872.569	34.13
872.742	38.23
872.915	48.47
873.088	-33.45
873.261	-10.92
873.434	42.32
873.607	5.46
873.78	62.8
873.953	-27.31
874.126	32.08
874.299	36.18
874.471	105.81
874.644	21.85
874.817	95.57
874.99	44.37
875.163	48.47
875.335	111.96
875.508	-15.02
875.681	13.65
875.853	11.61
876.026	-37.55
876.199	71
876.371	-0.68
876.544	3.41
876.717	11.61
876.889	-49.83
877.062	32.08
877.234	-2.73
877.407	1.37
877.579	50.52
877.752	7.51
877.924	27.99
878.097	50.52
878.269	9.56
878.442	91.48
878.614	32.08
878.786	11.61
878.959	42.32
879.131	21.85
879.303	-23.21
879.476	91.48
879.648	58.71
879.82	23.89
879.993	-17.07
880.165	-6.83
880.337	42.32
880.509	-10.92
880.681	17.75
880.854	42.32
881.026	-6.83
881.198	91.48
881.37	32.08
881.542	103.76
881.714	54.61
881.886	9.56
882.058	-6.83
882.23	66.9
882.402	25.94
882.574	21.85
882.746	48.47
882.918	75.09
883.09	-47.79
883.262	87.38
883.434	-0.68
883.606	-23.21
883.778	34.13
883.95	71
884.122	13.65
884.293	46.42
884.465	-33.45
884.637	21.85
884.809	-4.78
884.98	-2.73
885.152	-39.59
885.324	32.08
885.496	-49.83
885.667	9.56
885.839	-31.4
886.011	89.43
886.182	17.75
886.354	25.94
886.525	50.52
886.697	-43.69
886.869	-23.21
887.04	-15.02
887.212	66.9
887.383	122.2
887.555	23.89
887.726	-47.79
887.897	-41.64
888.069	11.61
888.24	73.04
888.412	32.08
888.583	48.47
888.754	-15.02
888.926	66.9
889.097	42.32
889.268	-31.4
889.44	91.48
889.611	-55.98
889.782	17.75
889.953	-31.4
890.125	3.41
890.296	-76.46
890.467	1.37
890.638	-10.92
890.809	114
890.98	-23.21
891.151	15.7
891.323	25.94
891.494	-17.07
891.665	5.46
891.836	15.7
892.007	-10.92
892.178	19.8
892.349	13.65
892.52	-10.92
892.691	25.94
892.862	40.28
893.032	-80.55
893.203	9.56
893.374	-25.26
893.545	66.9
893.716	-25.26
893.887	46.42
894.057	17.75
894.228	-10.92
894.399	-21.16
894.57	-39.59
894.74	-12.97
894.911	-25.26
895.082	-55.98
895.253	-23.21
895.423	46.42
895.594	48.47
895.764	50.52
895.935	-31.4
896.106	-27.31
896.276	40.28
896.447	30.04
896.617	48.47
896.788	46.42
896.958	40.28
897.129	3.41
897.299	17.75
897.47	42.32
897.64	34.13
897.81	25.94
897.981	3.41
898.151	-49.83
898.322	-10.92
898.492	40.28
898.662	-2.73
898.832	-10.92
899.003	7.51
899.173	38.23
899.343	-43.69
899.513	-45.74
