Data from USB4F104151__44__11-30-25-362.txt Node

Date: Fri Mar 14 11:30:25 EDT 2025
User: louis
Spectrometer: USB4F10415
Trigger mode: 4
Integration Time (sec): 5.000000E-2
Scans to average: 1
Electric dark correction enabled: true
Nonlinearity correction enabled: false
Boxcar width: 0
XAxis mode: Wavelengths
Number of Pixels in Spectrum: 3648
>>>>>Begin Spectral Data<<<<<
178.204	-146.09
178.424	-146.09
178.644	-146.09
178.864	-146.09
179.084	-152.23
179.304	-66.22
179.524	-39.59
179.744	30.04
179.964	73.04
180.184	-39.59
180.404	21.85
180.624	11.61
180.844	-58.03
181.064	-27.31
181.283	23.89
181.503	-45.74
181.723	116.05
181.943	-2.73
182.163	91.48
182.383	-17.07
182.602	27.99
182.822	89.43
183.042	103.76
183.262	13.65
183.482	11.61
183.701	23.89
183.921	83.28
184.141	30.04
184.361	34.13
184.58	42.32
184.8	68.95
185.02	9.56
185.239	66.9
185.459	-49.83
185.679	79.19
185.898	27.99
186.118	71
186.338	-55.98
186.557	66.9
186.777	17.75
186.997	50.52
187.216	30.04
187.436	87.38
187.655	130.39
187.875	1.37
188.095	34.13
188.314	54.61
188.534	122.2
188.753	48.47
188.973	42.32
189.192	142.68
189.412	-2.73
189.631	34.13
189.851	17.75
190.07	27.99
190.29	-8.87
190.509	73.04
190.729	9.56
190.948	97.62
191.168	152.91
191.387	5.46
191.607	89.43
191.826	75.09
192.045	-15.02
192.265	71
192.484	-10.92
192.704	9.56
192.923	17.75
193.142	132.44
193.362	73.04
193.581	68.95
193.8	42.32
194.02	87.38
194.239	1.37
194.458	34.13
194.678	21.85
194.897	-12.97
195.116	73.04
195.335	42.32
195.555	107.86
195.774	32.08
195.993	68.95
196.212	34.13
196.432	-17.07
196.651	56.66
196.87	17.75
197.089	58.71
197.308	-12.97
197.528	89.43
197.747	99.67
197.966	-8.87
198.185	64.85
198.404	1.37
198.623	64.85
198.842	34.13
199.062	87.38
199.281	107.86
199.5	91.48
199.719	17.75
199.938	5.46
200.157	73.04
200.376	-2.73
200.595	95.57
200.814	58.71
201.033	-12.97
201.252	83.28
201.471	71
201.69	85.33
201.909	-6.83
202.128	58.71
202.347	54.61
202.566	62.8
202.785	23.89
203.004	50.52
203.223	83.28
203.442	58.71
203.661	122.2
203.879	9.56
204.098	17.75
204.317	62.8
204.536	21.85
204.755	101.72
204.974	25.94
205.193	107.86
205.411	114
205.63	68.95
205.849	38.23
206.068	66.9
206.287	-39.59
206.505	52.56
206.724	116.05
206.943	73.04
207.162	-4.78
207.381	23.89
207.599	-15.02
207.818	25.94
208.037	77.14
208.255	-2.73
208.474	21.85
208.693	15.7
208.911	40.28
209.13	17.75
209.349	120.15
209.567	9.56
209.786	75.09
210.005	23.89
210.223	46.42
210.442	44.37
210.661	34.13
210.879	66.9
211.098	50.52
211.316	-25.26
211.535	111.96
211.753	54.61
211.972	93.52
212.191	50.52
212.409	87.38
212.628	97.62
212.846	1.37
213.065	50.52
213.283	81.24
213.502	-17.07
213.72	1.37
213.938	-8.87
214.157	-2.73
214.375	87.38
214.594	38.23
214.812	42.32
215.031	27.99
215.249	-37.55
215.467	95.57
215.686	21.85
215.904	83.28
216.122	66.9
216.341	103.76
216.559	50.52
216.778	66.9
216.996	75.09
217.214	13.65
217.432	13.65
217.651	-47.79
217.869	89.43
218.087	19.8
218.306	48.47
218.524	77.14
218.742	9.56
218.96	71
219.179	19.8
219.397	66.9
219.615	109.91
219.833	122.2
220.051	93.52
220.27	7.51
220.488	81.24
220.706	95.57
220.924	48.47
221.142	66.9
221.36	52.56
221.578	-10.92
221.796	50.52
222.015	73.04
222.233	-21.16
222.451	103.76
222.669	11.61
222.887	52.56
223.105	42.32
223.323	83.28
223.541	1.37
223.759	32.08
223.977	81.24
224.195	54.61
224.413	124.24
224.631	19.8
224.849	54.61
225.067	62.8
225.285	42.32
225.503	64.85
225.721	-12.97
225.939	15.7
226.157	54.61
226.375	97.62
226.592	56.66
226.81	118.1
227.028	75.09
227.246	62.8
227.464	17.75
227.682	62.8
227.9	64.85
228.117	66.9
228.335	1.37
228.553	62.8
228.771	75.09
228.989	62.8
229.206	-10.92
229.424	17.75
229.642	13.65
229.86	34.13
230.077	9.56
230.295	-23.21
230.513	11.61
230.731	71
230.948	89.43
231.166	91.48
231.384	-2.73
231.601	-6.83
231.819	64.85
232.037	50.52
232.254	-21.16
232.472	101.72
232.689	-2.73
232.907	-0.68
233.125	-0.68
233.342	93.52
233.56	17.75
233.777	83.28
233.995	38.23
234.213	81.24
234.43	105.81
234.648	-0.68
234.865	38.23
235.083	54.61
235.3	52.56
235.518	-23.21
235.735	97.62
235.953	66.9
236.17	42.32
236.388	21.85
236.605	64.85
236.822	140.63
237.04	-12.97
237.257	30.04
237.475	32.08
237.692	1.37
237.909	-15.02
238.127	48.47
238.344	62.8
238.562	89.43
238.779	15.7
238.996	-2.73
239.214	-10.92
239.431	62.8
239.648	58.71
239.865	34.13
240.083	105.81
240.3	-8.87
240.517	107.86
240.735	77.14
240.952	163.15
241.169	130.39
241.386	23.89
241.603	36.18
241.821	54.61
242.038	77.14
242.255	17.75
242.472	58.71
242.689	130.39
242.907	68.95
243.124	71
243.341	75.09
243.558	-8.87
243.775	-53.93
243.992	-15.02
244.209	116.05
244.426	38.23
244.643	99.67
244.86	-31.4
245.078	64.85
245.295	40.28
245.512	21.85
245.729	32.08
245.946	91.48
246.163	-2.73
246.38	81.24
246.597	105.81
246.814	13.65
247.031	-12.97
247.248	111.96
247.464	42.32
247.681	23.89
247.898	54.61
248.115	54.61
248.332	52.56
248.549	48.47
248.766	79.19
248.983	30.04
249.2	75.09
249.417	7.51
249.633	5.46
249.85	60.76
250.067	-6.83
250.284	40.28
250.501	83.28
250.717	48.47
250.934	7.51
251.151	54.61
251.368	-39.59
251.585	58.71
251.801	-0.68
252.018	-6.83
252.235	46.42
252.451	30.04
252.668	54.61
252.885	81.24
253.102	-21.16
253.318	44.37
253.535	60.76
253.752	54.61
253.968	75.09
254.185	25.94
254.401	89.43
254.618	21.85
254.835	-4.78
255.051	136.53
255.268	93.52
255.484	85.33
255.701	44.37
255.917	34.13
256.134	3.41
256.351	91.48
256.567	-10.92
256.784	42.32
257	85.33
257.217	3.41
257.433	66.9
257.65	58.71
257.866	46.42
258.082	-19.11
258.299	1.37
258.515	79.19
258.732	46.42
258.948	-10.92
259.165	81.24
259.381	73.04
259.597	68.95
259.814	21.85
260.03	46.42
260.246	38.23
260.463	118.1
260.679	21.85
260.895	89.43
261.112	120.15
261.328	-6.83
261.544	-0.68
261.761	64.85
261.977	42.32
262.193	9.56
262.409	-8.87
262.626	71
262.842	1.37
263.058	58.71
263.274	120.15
263.49	7.51
263.707	130.39
263.923	62.8
264.139	66.9
264.355	23.89
264.571	48.47
264.787	52.56
265.004	124.24
265.22	-0.68
265.436	15.7
265.652	91.48
265.868	105.81
266.084	40.28
266.3	54.61
266.516	-23.21
266.732	38.23
266.948	21.85
267.164	93.52
267.38	71
267.596	66.9
267.812	56.66
268.028	66.9
268.244	34.13
268.46	50.52
268.676	34.13
268.892	50.52
269.108	17.75
269.324	-4.78
269.54	-2.73
269.756	66.9
269.972	27.99
270.188	15.7
270.403	-15.02
270.619	40.28
270.835	99.67
271.051	-19.11
271.267	32.08
271.483	44.37
271.698	87.38
271.914	89.43
272.13	97.62
272.346	60.76
272.562	105.81
272.777	134.48
272.993	46.42
273.209	95.57
273.425	66.9
273.64	25.94
273.856	107.86
274.072	11.61
274.287	19.8
274.503	30.04
274.719	50.52
274.934	-21.16
275.15	17.75
275.366	75.09
275.581	58.71
275.797	-0.68
276.012	19.8
276.228	73.04
276.444	34.13
276.659	107.86
276.875	25.94
277.09	75.09
277.306	48.47
277.521	23.89
277.737	11.61
277.952	87.38
278.168	71
278.383	73.04
278.599	54.61
278.814	77.14
279.03	21.85
279.245	44.37
279.461	75.09
279.676	79.19
279.892	-25.26
280.107	48.47
280.322	34.13
280.538	89.43
280.753	30.04
280.969	93.52
281.184	5.46
281.399	138.58
281.615	71
281.83	40.28
282.045	42.32
282.26	71
282.476	111.96
282.691	95.57
282.906	-6.83
283.122	50.52
283.337	54.61
283.552	81.24
283.767	-15.02
283.983	134.48
284.198	-0.68
284.413	89.43
284.628	48.47
284.843	48.47
285.058	71
285.274	9.56
285.489	-47.79
285.704	91.48
285.919	38.23
286.134	81.24
286.349	134.48
286.564	21.85
286.779	146.77
286.995	85.33
287.21	66.9
287.425	5.46
287.64	50.52
287.855	34.13
288.07	-0.68
288.285	50.52
288.5	79.19
288.715	87.38
288.93	30.04
289.145	-19.11
289.36	64.85
289.575	23.89
289.79	87.38
290.004	25.94
290.219	97.62
290.434	56.66
290.649	58.71
290.864	-2.73
291.079	17.75
291.294	-15.02
291.509	7.51
291.724	-25.26
291.938	30.04
292.153	46.42
292.368	-29.35
292.583	68.95
292.798	105.81
293.012	66.9
293.227	56.66
293.442	17.75
293.657	1.37
293.871	114
294.086	15.7
294.301	130.39
294.516	50.52
294.73	54.61
294.945	11.61
295.16	75.09
295.374	50.52
295.589	124.24
295.804	42.32
296.018	71
296.233	91.48
296.447	114
296.662	62.8
296.877	79.19
297.091	11.61
297.306	27.99
297.52	40.28
297.735	111.96
297.949	99.67
298.164	109.91
298.378	42.32
298.593	-15.02
298.807	25.94
299.022	50.52
299.236	107.86
299.451	30.04
299.665	75.09
299.88	23.89
300.094	38.23
300.309	-23.21
300.523	130.39
300.737	32.08
300.952	66.9
301.166	58.71
301.381	83.28
301.595	81.24
301.809	62.8
302.024	64.85
302.238	66.9
302.452	79.19
302.667	-6.83
302.881	177.49
303.095	54.61
303.309	46.42
303.524	1.37
303.738	42.32
303.952	30.04
304.166	48.47
304.381	23.89
304.595	71
304.809	17.75
305.023	40.28
305.237	64.85
305.452	34.13
305.666	52.56
305.88	99.67
306.094	11.61
306.308	165.2
306.522	103.76
306.736	13.65
306.95	68.95
307.164	-33.45
307.379	25.94
307.593	107.86
307.807	9.56
308.021	73.04
308.235	144.72
308.449	-55.98
308.663	77.14
308.877	185.68
309.091	17.75
309.305	128.34
309.519	17.75
309.733	85.33
309.947	42.32
310.161	97.62
310.374	25.94
310.588	38.23
310.802	1.37
311.016	42.32
311.23	62.8
311.444	-35.5
311.658	34.13
311.872	73.04
312.085	73.04
312.299	17.75
312.513	71
312.727	66.9
312.941	-2.73
313.154	83.28
313.368	50.52
313.582	34.13
313.796	40.28
314.009	50.52
314.223	54.61
314.437	87.38
314.651	1.37
314.864	95.57
315.078	50.52
315.292	50.52
315.505	1.37
315.719	136.53
315.933	34.13
316.146	30.04
316.36	60.76
316.573	25.94
316.787	64.85
317.001	32.08
317.214	44.37
317.428	34.13
317.641	9.56
317.855	3.41
318.068	111.96
318.282	66.9
318.495	150.87
318.709	62.8
318.922	50.52
319.136	116.05
319.349	66.9
319.563	128.34
319.776	91.48
319.99	21.85
320.203	40.28
320.417	73.04
320.63	13.65
320.843	32.08
321.057	48.47
321.27	124.24
321.483	-2.73
321.697	148.82
321.91	48.47
322.124	50.52
322.337	77.14
322.55	-0.68
322.763	66.9
322.977	-6.83
323.19	62.8
323.403	7.51
323.617	62.8
323.83	116.05
324.043	89.43
324.256	85.33
324.469	7.51
324.683	105.81
324.896	40.28
325.109	30.04
325.322	1.37
325.535	105.81
325.748	21.85
325.962	-8.87
326.175	85.33
326.388	-6.83
326.601	132.44
326.814	17.75
327.027	42.32
327.24	87.38
327.453	-0.68
327.666	58.71
327.879	109.91
328.092	79.19
328.305	5.46
328.518	60.76
328.731	48.47
328.944	17.75
329.157	81.24
329.37	81.24
329.583	105.81
329.796	136.53
330.009	34.13
330.222	50.52
330.435	23.89
330.648	34.13
330.861	17.75
331.073	19.8
331.286	85.33
331.499	52.56
331.712	25.94
331.925	15.7
332.138	48.47
332.35	50.52
332.563	3.41
332.776	83.28
332.989	13.65
333.202	40.28
333.414	40.28
333.627	64.85
333.84	5.46
334.053	13.65
334.265	-0.68
334.478	21.85
334.691	-74.41
334.903	48.47
335.116	87.38
335.329	36.18
335.541	-10.92
335.754	91.48
335.966	118.1
336.179	85.33
336.392	34.13
336.604	50.52
336.817	60.76
337.029	-17.07
337.242	58.71
337.454	-8.87
337.667	13.65
337.88	64.85
338.092	58.71
338.305	66.9
338.517	-2.73
338.729	77.14
338.942	91.48
339.154	-6.83
339.367	64.85
339.579	134.48
339.792	58.71
340.004	13.65
340.217	62.8
340.429	48.47
340.641	34.13
340.854	30.04
341.066	83.28
341.278	38.23
341.491	38.23
341.703	81.24
341.915	42.32
342.128	48.47
342.34	124.24
342.552	79.19
342.764	77.14
342.977	105.81
343.189	48.47
343.401	103.76
343.613	54.61
343.826	34.13
344.038	56.66
344.25	42.32
344.462	99.67
344.674	56.66
344.886	32.08
345.099	79.19
345.311	40.28
345.523	87.38
345.735	58.71
345.947	-27.31
346.159	-0.68
346.371	85.33
346.583	85.33
346.795	87.38
347.007	75.09
347.219	32.08
347.431	89.43
347.643	75.09
347.855	50.52
348.067	89.43
348.279	15.7
348.491	64.85
348.703	81.24
348.915	58.71
349.127	56.66
349.339	73.04
349.551	34.13
349.763	48.47
349.975	25.94
350.187	34.13
350.399	128.34
350.61	146.77
350.822	46.42
351.034	15.7
351.246	38.23
351.458	54.61
351.669	73.04
351.881	62.8
352.093	36.18
352.305	107.86
352.517	73.04
352.728	60.76
352.94	32.08
353.152	36.18
353.363	42.32
353.575	66.9
353.787	111.96
353.999	87.38
354.21	148.82
354.422	91.48
354.633	66.9
354.845	19.8
355.057	50.52
355.268	34.13
355.48	83.28
355.692	-23.21
355.903	95.57
356.115	-27.31
356.326	-17.07
356.538	107.86
356.749	25.94
356.961	75.09
357.172	50.52
357.384	91.48
357.595	150.87
357.807	81.24
358.018	95.57
358.23	-2.73
358.441	148.82
358.653	42.32
358.864	-23.21
359.075	44.37
359.287	105.81
359.498	103.76
359.709	40.28
359.921	144.72
360.132	71
360.344	50.52
360.555	-2.73
360.766	99.67
360.977	87.38
361.189	114
361.4	50.52
361.611	120.15
361.823	87.38
362.034	73.04
362.245	-41.64
362.456	83.28
362.667	32.08
362.879	15.7
363.09	32.08
363.301	85.33
363.512	68.95
363.723	9.56
363.935	34.13
364.146	99.67
364.357	50.52
364.568	87.38
364.779	13.65
364.99	120.15
365.201	13.65
365.412	75.09
365.623	42.32
365.834	25.94
366.045	46.42
366.256	64.85
366.467	50.52
366.678	34.13
366.889	111.96
367.1	75.09
367.311	89.43
367.522	58.71
367.733	81.24
367.944	25.94
368.155	21.85
368.366	9.56
368.577	-8.87
368.788	91.48
368.999	7.51
369.209	73.04
369.42	124.24
369.631	212.31
369.842	75.09
370.053	-10.92
370.264	136.53
370.474	1.37
370.685	48.47
370.896	75.09
371.107	89.43
371.317	60.76
371.528	50.52
371.739	132.44
371.95	25.94
372.16	68.95
372.371	-19.11
372.582	17.75
372.792	-10.92
373.003	23.89
373.214	62.8
373.424	40.28
373.635	52.56
373.846	87.38
374.056	83.28
374.267	91.48
374.477	58.71
374.688	-35.5
374.898	54.61
375.109	42.32
375.319	-6.83
375.53	83.28
375.74	42.32
375.951	15.7
376.161	97.62
376.372	52.56
376.582	79.19
376.793	103.76
377.003	93.52
377.214	1.37
377.424	42.32
377.635	25.94
377.845	7.51
378.055	157.01
378.266	-19.11
378.476	46.42
378.686	83.28
378.897	-25.26
379.107	1.37
379.317	79.19
379.528	91.48
379.738	91.48
379.948	38.23
380.158	95.57
380.369	44.37
380.579	25.94
380.789	9.56
380.999	116.05
381.21	83.28
381.42	87.38
381.63	142.68
381.84	103.76
382.05	54.61
382.261	30.04
382.471	-6.83
382.681	27.99
382.891	105.81
383.101	-33.45
383.311	34.13
383.521	5.46
383.731	122.2
383.941	99.67
384.151	58.71
384.361	46.42
384.571	114
384.781	42.32
384.991	148.82
385.201	99.67
385.411	99.67
385.621	101.72
385.831	116.05
386.041	44.37
386.251	-17.07
386.461	79.19
386.671	7.51
386.881	48.47
387.091	34.13
387.301	44.37
387.511	75.09
387.72	17.75
387.93	165.2
388.14	73.04
388.35	73.04
388.56	124.24
388.769	173.39
388.979	66.9
389.189	62.8
389.399	58.71
389.609	152.91
389.818	89.43
390.028	105.81
390.238	103.76
390.447	34.13
390.657	56.66
390.867	52.56
391.076	23.89
391.286	56.66
391.496	114
391.705	83.28
391.915	120.15
392.125	159.06
392.334	50.52
392.544	116.05
392.753	138.58
392.963	-27.31
393.172	-21.16
393.382	44.37
393.591	116.05
393.801	62.8
394.01	132.44
394.22	132.44
394.429	66.9
394.639	126.29
394.848	109.91
395.058	48.47
395.267	118.1
395.477	99.67
395.686	124.24
395.895	116.05
396.105	148.82
396.314	30.04
396.524	34.13
396.733	109.91
396.942	120.15
397.152	79.19
397.361	93.52
397.57	27.99
397.78	60.76
397.989	89.43
398.198	177.49
398.407	138.58
398.617	103.76
398.826	175.44
399.035	79.19
399.244	120.15
399.453	165.2
399.663	152.91
399.872	165.2
400.081	83.28
400.29	120.15
400.499	17.75
400.708	95.57
400.917	122.2
401.127	91.48
401.336	52.56
401.545	138.58
401.754	138.58
401.963	169.3
402.172	30.04
402.381	40.28
402.59	99.67
402.799	124.24
403.008	200.02
403.217	124.24
403.426	214.35
403.635	107.86
403.844	99.67
404.053	136.53
404.262	138.58
404.471	167.25
404.68	150.87
404.888	114
405.097	140.63
405.306	114
405.515	120.15
405.724	48.47
405.933	185.68
406.142	161.11
406.35	187.73
406.559	142.68
406.768	181.59
406.977	255.31
407.185	140.63
407.394	181.59
407.603	140.63
407.812	191.83
408.02	218.45
408.229	185.68
408.438	136.53
408.646	208.21
408.855	154.96
409.064	200.02
409.272	212.31
409.481	253.27
409.69	187.73
409.898	230.74
410.107	247.12
410.315	314.7
410.524	230.74
410.733	265.55
410.941	271.7
411.15	318.8
411.358	292.18
411.567	341.33
411.775	304.46
411.984	351.57
412.192	326.99
412.401	394.58
412.609	468.3
412.818	451.92
413.026	390.48
413.234	429.39
413.443	451.92
413.651	394.58
413.86	462.16
414.068	466.25
414.276	484.69
414.485	480.59
414.693	564.56
414.901	630.09
415.11	537.93
415.318	525.65
415.526	636.24
415.734	666.96
415.943	619.85
416.151	679.24
416.359	656.72
416.567	726.35
416.776	767.31
416.984	712.01
417.192	783.69
417.4	671.05
417.608	771.4
417.817	777.55
418.025	812.36
418.233	939.33
418.441	855.37
418.649	894.28
418.857	963.91
419.065	984.39
419.273	1041.73
419.481	988.49
419.689	1140.04
419.897	1123.65
420.105	1148.23
420.313	1252.67
420.521	1185.09
420.729	1357.12
420.937	1105.22
421.145	1324.35
421.353	1350.98
421.561	1473.85
421.769	1475.9
421.977	1543.49
422.185	1506.62
422.393	1654.08
422.601	1697.08
422.809	1838.39
423.017	1752.38
423.224	1869.11
423.432	1858.87
423.64	2016.57
423.848	2174.26
424.056	1955.13
424.263	2065.72
424.471	2057.53
424.679	2104.63
424.887	2221.36
425.094	2297.14
425.302	2368.82
425.51	2485.55
425.718	2372.91
425.925	2454.83
426.133	2596.14
426.341	2835.75
426.548	2786.6
426.756	2876.71
426.964	3013.93
427.171	3054.89
427.379	3278.12
427.586	3183.91
427.794	3450.14
428.001	3650.85
428.209	3736.86
428.417	3646.75
428.624	3882.27
428.832	3786.01
429.039	3915.03
429.247	3851.55
429.454	4199.7
429.662	4560.14
429.869	4218.13
430.076	4519.18
430.284	4396.31
430.491	4609.29
430.699	4795.66
430.906	4810
431.114	4832.52
431.321	5115.14
431.528	5162.25
431.736	5610.75
431.943	5743.87
432.15	5604.61
432.358	5659.9
432.565	6018.3
432.772	5885.18
432.979	6190.33
433.187	6307.06
433.394	6497.52
433.601	6876.4
433.808	6817.01
434.016	6810.86
434.223	7167.21
434.43	7447.78
434.637	7423.2
434.844	7744.74
435.052	7922.91
435.259	7730.4
435.466	8041.69
435.673	8058.07
435.88	8441.04
436.087	8821.97
436.294	8844.49
436.501	8850.64
436.708	8840.4
436.915	9329.86
437.122	9594.05
437.329	9721.02
437.537	9733.31
437.743	9891.01
437.95	9917.63
438.157	10288.31
438.364	10708.15
438.571	10790.06
438.778	10990.77
438.985	11852.96
439.192	11334.82
439.399	11785.38
439.606	11719.84
439.813	12123.29
440.02	12932.24
440.227	12653.72
440.433	12424.34
440.64	12960.91
440.847	12815.51
441.054	13603.97
441.261	14046.33
441.467	13743.24
441.674	14152.83
441.881	14820.47
442.088	14580.85
442.294	14754.93
442.501	14990.45
442.708	15371.37
442.914	15586.41
443.121	16524.38
443.328	15860.84
443.534	17146.96
443.741	16561.24
443.948	16385.12
444.154	17560.65
444.361	17564.75
444.568	17667.14
444.774	17593.42
444.981	17693.77
445.187	18160.7
445.394	19014.71
445.6	18926.64
445.807	20509.72
446.013	19678.25
446.22	20096.03
446.426	21183.51
446.633	21253.14
446.839	22086.66
447.046	21113.88
447.252	22387.71
447.459	22270.98
447.665	22041.6
447.871	22905.85
448.078	23931.88
448.284	23020.53
448.491	23235.57
448.697	24394.72
448.903	24620
449.11	24914.91
449.316	24259.56
449.522	24890.33
449.728	25525.2
449.935	25646.03
450.141	25914.31
450.347	26162.12
450.553	25420.75
450.76	25617.36
450.966	26532.8
451.172	26252.23
451.378	26966.97
451.584	26534.85
451.791	27249.59
451.997	26954.68
452.203	27204.53
452.409	27610.03
452.615	27118.52
452.821	26262.47
453.027	26014.66
453.233	27214.77
453.44	26196.93
453.646	26403.78
453.852	26313.67
454.058	26960.83
454.264	25793.48
454.47	26358.72
454.676	25967.56
454.882	26805.18
455.088	24638.43
455.294	24763.36
455.5	25000.92
455.705	25611.21
455.911	24280.03
456.117	23800.81
456.323	23520.24
456.529	22277.12
456.735	23182.32
456.941	22762.49
457.147	22416.38
457.352	21627.92
457.558	21242.9
457.764	21410.83
457.97	21150.74
458.176	20661.27
458.381	20608.03
458.587	19551.28
458.793	19287.09
458.999	18560.06
459.204	19577.9
459.41	19170.35
459.616	17980.48
459.821	17908.8
460.027	17826.89
460.233	17380.43
460.438	16749.65
460.644	16876.63
460.85	16122.98
461.055	15959.14
461.261	15656.04
461.466	14546.04
461.672	14255.23
461.878	15131.76
462.083	14148.73
462.289	13839.49
462.494	13862.02
462.7	13264.01
462.905	12747.92
463.111	13274.25
463.316	13091.98
463.522	12885.14
463.727	13124.75
463.932	12792.98
464.138	12709.01
464.343	12706.96
464.549	12299.42
464.754	12799.12
464.959	12532.89
465.165	12780.69
465.37	12252.31
465.575	11809.95
465.781	12108.96
465.986	12276.89
466.191	12092.57
466.397	11891.87
466.602	11097.26
466.807	11812
467.012	11547.81
467.218	11510.95
467.423	11439.27
467.628	11404.46
467.833	12029.09
468.038	11381.93
468.244	11027.63
468.449	11777.19
468.654	11089.07
468.859	11222.19
469.064	11189.42
469.269	10540.21
469.474	10589.36
469.679	10992.81
469.885	10695.86
470.09	10691.76
470.295	10556.6
470.5	10372.28
470.705	10671.28
470.91	10173.63
471.115	9974.97
471.32	10345.66
471.525	10278.07
471.73	10104
471.935	10044.6
472.139	9450.69
472.344	9655.49
472.549	9614.53
472.754	9536.71
472.959	9383.11
473.164	9020.62
473.369	9026.76
473.574	9299.14
473.778	9200.84
473.983	9190.6
474.188	9157.83
474.393	8738
474.598	8928.46
474.802	8791.25
475.007	8643.79
475.212	8705.23
475.417	8332.5
475.621	8221.91
475.826	8307.93
476.031	8139.99
476.235	7881.95
476.44	8203.48
476.645	7853.28
476.849	7828.7
477.054	7812.32
477.259	7693.54
477.463	7838.94
477.668	7605.47
477.872	7541.99
478.077	7433.44
478.282	7275.75
478.486	7279.85
478.691	7259.37
478.895	7257.32
479.1	7132.39
479.304	7146.73
479.509	7009.51
479.713	7222.5
479.918	6958.32
480.122	6853.87
480.326	6956.27
480.531	6964.46
480.735	6800.62
480.94	6935.79
481.144	7003.37
481.348	6710.51
481.553	6829.29
481.757	6472.95
481.961	6788.33
482.166	6847.72
482.37	6851.82
482.574	6616.3
482.778	6571.25
482.983	6868.2
483.187	6937.84
483.391	6595.82
483.595	6864.11
483.8	6515.95
484.004	6730.99
484.208	6653.17
484.412	6526.19
484.616	6776.05
484.821	6585.58
485.025	6569.2
485.229	6730.99
485.433	6546.67
485.637	6520.05
485.841	6540.53
486.045	6720.75
486.249	6522.1
486.453	6585.58
486.657	6601.97
486.861	6554.87
487.065	6522.1
487.269	6780.14
487.473	6474.99
487.677	6808.81
487.881	6632.69
488.085	6679.79
488.289	6722.8
488.493	6544.63
488.697	6819.05
488.901	6698.22
489.105	6616.3
489.309	6634.74
489.512	6769.9
489.716	6585.58
489.92	6632.69
490.124	6833.39
490.328	6874.35
490.531	6698.22
490.735	6808.81
490.939	6796.53
491.143	7013.61
491.346	6714.61
491.55	6931.69
491.754	6991.08
491.958	6976.75
492.161	6989.03
492.365	6997.23
492.569	7019.75
492.772	7062.76
492.976	7130.34
493.18	6995.18
493.383	7341.29
493.587	7195.88
493.79	7515.36
493.994	7060.71
494.197	7265.51
494.401	7279.85
494.605	7333.09
494.808	7505.12
495.012	7671.01
495.215	7705.82
495.419	7763.17
495.622	7507.17
495.825	7695.58
496.029	7793.89
496.232	7953.63
496.436	7517.41
496.639	8176.86
496.843	7892.19
497.046	8242.39
497.249	8389.85
497.453	8273.11
497.656	8273.11
497.859	8412.37
498.063	8613.07
498.266	8764.62
498.469	8541.4
498.673	8680.66
498.876	9024.72
499.079	8856.78
499.282	8752.34
499.485	9303.24
499.689	9258.18
499.892	9200.84
500.095	9387.21
500.298	9583.81
500.501	9571.52
500.705	9946.3
500.908	10056.89
501.111	10060.99
501.314	10214.59
501.517	10036.41
501.72	10271.93
501.923	10321.08
502.126	10611.89
502.329	10667.19
502.532	10642.61
502.735	10712.24
502.938	11037.87
503.141	11191.47
503.344	11089.07
503.547	11383.98
503.75	11418.79
503.953	11660.45
504.156	11472.04
504.359	11701.41
504.562	11816.1
504.765	12205.21
504.968	12350.62
505.17	12260.51
505.373	12346.52
505.576	12682.39
505.779	12706.96
505.982	12758.16
506.185	12846.23
506.387	13077.65
506.59	13055.12
506.793	13585.54
506.996	13354.12
507.198	13722.76
507.401	13698.18
507.604	14019.71
507.807	14322.81
508.009	14451.83
508.212	14390.39
508.415	14656.63
508.617	14720.12
508.82	14869.62
509.022	14822.52
509.225	15109.23
509.428	15357.03
509.63	15340.65
509.833	15424.62
510.035	15787.11
510.238	15803.49
510.44	16229.47
510.643	16647.26
510.845	16450.65
511.048	16260.19
511.25	16647.26
511.453	16907.35
511.655	17652.81
511.858	17075.28
512.06	17390.67
512.262	17783.88
512.465	17546.31
512.667	17824.84
512.87	18103.36
513.072	18091.07
513.274	18588.73
513.477	18719.8
513.679	18816.05
513.881	18836.53
514.084	19309.61
514.286	19328.05
514.488	19647.53
514.69	20169.76
514.893	20055.08
515.095	20061.22
515.297	20689.95
515.499	20491.29
515.701	20759.58
515.904	21396.49
516.106	21505.04
516.308	21285.9
516.51	21560.33
516.712	21982.21
516.914	22023.17
517.116	22131.72
517.318	22371.33
517.52	22533.12
517.722	22723.58
517.925	23108.6
518.127	23587.82
518.329	23774.19
518.531	23811.05
518.733	24284.13
518.935	24163.3
519.136	24384.48
519.338	24771.55
519.54	24849.37
519.742	25197.52
519.944	24978.39
520.146	25926.6
520.348	26135.49
520.55	26155.97
520.752	26354.63
520.954	26770.36
521.155	26450.88
521.357	27308.98
521.559	27337.65
521.761	27868.08
521.963	27552.69
522.164	28033.96
522.366	28070.83
522.568	28642.21
522.77	28730.27
522.971	29234.07
523.173	29135.77
523.375	29639.57
523.576	29510.55
523.778	29647.76
523.98	30389.13
524.181	30272.39
524.383	30651.27
524.584	30798.72
524.786	31054.72
524.988	31333.24
525.189	31615.86
525.391	31458.17
525.592	32220.01
525.794	32090.99
525.995	32222.06
526.197	32543.59
526.398	32652.13
526.6	32742.24
526.801	33221.47
527.003	33407.83
527.204	33375.06
527.406	33749.84
527.607	33780.56
527.808	34181.96
528.01	33844.05
528.211	34054.99
528.412	34528.07
528.614	34777.92
528.815	34700.1
529.016	35138.37
529.218	34839.36
529.419	35310.39
529.62	35011.39
529.822	35433.27
530.023	35328.83
530.224	35679.03
530.425	35812.15
530.626	35468.09
530.828	35623.73
531.029	36483.88
531.23	36197.16
531.431	36182.83
531.632	36772.64
531.833	36428.59
532.035	36371.24
532.236	36594.47
532.437	37004.06
532.638	37014.3
532.839	36946.72
533.04	36987.68
533.241	36891.43
533.442	37849.88
533.643	37602.07
533.844	37274.4
534.045	37624.6
534.246	37622.55
534.447	37786.39
534.648	37509.91
534.849	37968.66
535.05	37425.95
535.251	38060.82
535.451	37597.98
535.652	37849.88
535.853	38148.88
536.054	37638.93
536.255	37948.18
536.456	37982.99
536.657	38226.7
536.857	37880.6
537.058	38079.25
537.259	38056.72
537.46	38097.68
537.66	37905.17
537.861	38513.42
538.062	37993.23
538.263	38007.57
538.463	37876.5
538.664	38120.21
538.865	38380.3
539.065	38351.63
539.266	37866.26
539.466	38785.8
539.667	37851.92
539.868	38630.15
540.068	38359.82
540.269	38220.56
540.469	38204.17
540.67	37948.18
540.87	38003.47
541.071	38472.46
541.271	38218.51
541.472	38695.69
541.672	38011.67
541.873	38298.38
542.073	37837.59
542.274	38304.52
542.474	38408.97
542.675	37989.14
542.875	39117.57
543.075	38353.68
543.276	38095.63
543.476	38490.89
543.676	37860.12
543.877	38425.35
544.077	38175.5
544.277	38167.31
544.478	38359.82
544.678	38001.43
544.878	38638.34
545.078	38605.58
545.279	37958.42
545.479	38105.87
545.679	38503.18
545.879	38435.59
546.079	38140.69
546.28	38159.12
546.48	38286.09
546.68	38415.12
546.88	38406.92
547.08	38408.97
547.28	38587.14
547.48	37835.54
547.68	38374.16
547.88	38130.45
548.081	38773.51
548.281	38009.62
548.481	38083.34
548.681	38476.55
548.881	38165.26
549.081	38179.6
549.28	37884.69
549.48	38718.21
549.68	37974.8
549.88	38535.95
550.08	38161.17
550.28	38898.44
550.48	38079.25
550.68	38263.57
550.88	38152.98
551.08	38069.01
551.279	38359.82
551.479	37970.71
551.679	38333.2
551.879	38058.77
552.079	38308.62
552.278	37901.07
552.478	38140.69
552.678	38232.85
552.878	38484.75
553.077	38081.3
553.277	37743.38
553.477	38245.13
553.676	37673.75
553.876	37866.26
554.076	37591.83
554.275	37604.12
554.475	37335.84
554.674	37942.03
554.874	38134.54
555.074	37344.03
555.273	37968.66
555.473	37419.8
555.672	37155.61
555.872	37178.14
556.071	37583.64
556.271	37727
556.47	37200.67
556.67	37223.2
556.869	37325.6
557.068	37124.89
557.268	36703.01
557.467	37178.14
557.667	37221.15
557.866	36293.42
558.065	36817.7
558.265	36301.61
558.464	36133.68
558.663	36852.51
558.863	36293.42
559.062	36711.21
559.261	35881.78
559.461	36522.79
559.66	35844.91
559.859	35904.31
560.058	35558.2
560.258	35949.36
560.457	35441.46
560.656	35871.54
560.855	35459.9
561.054	36051.76
561.253	35371.83
561.453	35375.93
561.652	35402.55
561.851	35343.16
562.05	35156.8
562.249	34964.29
562.448	35486.52
562.647	35011.39
562.846	34550.6
563.045	34636.61
563.244	34181.96
563.443	34759.49
563.642	34157.39
563.841	34308.94
564.04	34077.52
564.239	34138.96
564.438	33766.23
564.637	33868.62
564.836	33815.38
565.035	33086.3
565.234	33555.29
565.432	33209.18
565.631	32934.75
565.83	33170.27
566.029	32893.79
566.228	32832.35
566.427	32566.12
566.625	32047.98
566.824	32150.38
567.023	32199.53
567.222	31570.8
567.42	32256.87
567.619	31947.63
567.818	31630.19
568.016	31691.63
568.215	31802.22
568.414	31468.41
568.612	31826.8
568.811	31218.55
569.01	31261.56
569.208	30663.55
569.407	31351.67
569.605	30411.65
569.804	30669.7
570.002	30423.94
570.201	30618.5
570.4	30104.46
570.598	29922.19
570.797	29684.62
570.995	29995.92
571.193	29782.93
571.392	29823.89
571.59	29363.09
571.789	29488.02
571.987	29299.61
572.186	29285.27
572.384	28726.17
572.582	28957.6
572.781	28971.93
572.979	28474.27
573.177	28644.26
573.376	28552.1
573.574	28541.86
573.772	28709.79
573.971	27995.05
574.169	28091.3
574.367	28007.34
574.565	28091.3
574.763	27714.48
574.962	27605.94
575.16	27380.66
575.358	27265.97
575.556	27239.35
575.754	27505.59
575.952	26983.35
576.151	27139
576.349	26858.43
576.547	26774.46
576.745	26682.3
576.943	26561.47
577.141	26366.92
577.339	26235.84
577.537	26170.31
577.735	26356.68
577.933	26153.93
578.131	26196.93
578.329	25947.08
578.527	25764.81
578.725	25742.28
578.923	25613.26
579.121	25701.33
579.319	25373.65
579.516	25863.11
579.714	25226.2
579.912	25232.34
580.11	24949.72
580.308	25207.76
580.506	25123.8
580.704	24783.84
580.901	24916.95
581.099	25117.65
581.297	24841.18
581.495	24394.72
581.692	24746.97
581.89	23819.24
582.088	24550.37
582.285	24214.5
582.483	24466.4
582.681	24173.54
582.878	24224.74
583.076	23704.56
583.274	24108.01
583.471	23563.25
583.669	23872.49
583.866	23331.83
584.064	23628.78
584.262	23294.96
584.459	23657.45
584.657	23364.59
584.854	23245.81
585.052	22911.99
585.249	23176.18
585.447	23061.49
585.644	22928.38
585.841	22782.97
586.039	22928.38
586.236	22578.17
586.434	22682.62
586.631	22256.64
586.828	22477.82
587.026	22420.48
587.223	22225.92
587.42	22113.28
587.618	22141.96
587.815	21996.55
588.012	21877.77
588.21	21984.26
588.407	21715.98
588.604	21681.16
588.801	21589
588.999	21541.9
589.196	21619.72
589.393	21851.14
589.59	21386.26
589.787	21306.38
589.984	21386.26
590.182	20898.84
590.379	21003.28
590.576	20714.52
590.773	21120.02
590.97	20714.52
591.167	21140.5
591.364	20679.71
591.561	20818.97
591.758	20352.03
591.955	20382.75
592.152	20632.6
592.349	20499.48
592.546	20337.69
592.743	20343.84
592.94	20165.67
593.137	20360.22
593.334	20347.93
593.531	20030.5
593.727	20161.57
593.924	19901.48
594.121	19665.96
594.318	19739.69
594.515	19993.64
594.712	19956.77
594.908	19614.76
595.105	19584.04
595.302	19305.52
595.499	19278.9
595.696	19489.84
595.892	19233.84
596.089	19356.72
596.286	19082.29
596.482	19176.5
596.679	19248.18
596.876	19024.95
597.072	18844.73
597.269	18834.49
597.466	18883.64
597.662	18754.62
597.859	18705.46
598.055	18811.96
598.252	18435.13
598.448	18605.11
598.645	18521.15
598.841	18129.98
599.038	18287.68
599.234	18293.82
599.431	18242.62
599.627	17982.53
599.824	18166.85
600.02	17796.17
600.217	17837.13
600.413	17949.76
600.609	17642.57
600.806	17982.53
601.002	17671.24
601.198	17640.52
601.395	17689.67
601.591	17468.49
601.787	17398.86
601.984	17321.04
602.18	17531.98
602.376	17560.65
602.572	17237.07
602.769	17421.39
602.965	17286.22
603.161	17177.68
603.357	17149.01
603.553	16995.41
603.75	16913.49
603.946	16706.65
604.142	16735.32
604.338	16737.37
604.534	16755.8
604.73	16661.59
604.926	16688.21
605.122	16573.53
605.318	16704.6
605.514	16360.54
605.71	16274.53
605.906	16327.77
606.102	16096.35
606.298	16252
606.494	16295
606.69	16118.88
606.886	16059.49
607.082	15805.54
607.278	16305.24
607.474	15940.71
607.67	15834.21
607.866	15701.09
608.062	15942.75
608.257	15656.04
608.453	15793.25
608.649	15817.83
608.845	15621.22
609.041	15635.56
609.236	15674.47
609.432	15578.22
609.628	15363.18
609.824	15604.84
610.019	15021.17
610.215	15123.57
610.411	15285.36
610.606	15305.84
610.802	15391.85
610.998	15377.51
611.193	15230.06
611.389	15004.78
611.584	14992.5
611.78	14984.3
611.976	14914.67
612.171	15010.93
612.367	14959.73
612.562	14875.76
612.758	14791.8
612.953	14451.83
613.149	14900.34
613.344	14804.08
613.539	14992.5
613.735	14605.43
613.93	14640.25
614.126	14695.54
614.321	14521.46
614.517	14537.85
614.712	14531.7
614.907	14574.71
615.103	14455.93
615.298	14417.02
615.493	14681.21
615.688	13964.42
615.884	14494.84
616.079	14199.93
616.274	14388.35
616.47	14222.46
616.665	14193.79
616.86	14189.69
617.055	13939.84
617.25	13853.83
617.445	14187.64
617.641	13798.53
617.836	14228.6
618.031	13657.22
618.226	13755.52
618.421	13526.15
618.616	14054.53
618.811	13575.3
619.006	13669.51
619.201	13425.8
619.396	13503.62
619.591	13524.1
619.786	13634.69
619.981	13208.72
620.176	13171.85
620.371	13180.04
620.566	13374.6
620.761	13083.79
620.956	13069.45
621.151	12930.19
621.346	13143.18
621.541	12723.35
621.735	12666
621.93	12870.8
622.125	12854.42
622.32	12416.15
622.515	12633.24
622.709	12450.97
622.904	12467.35
623.099	12313.75
623.294	12407.96
623.488	12182.68
623.683	12264.6
623.878	12121.24
624.072	11994.27
624.267	11916.45
624.462	11895.97
624.656	11822.24
624.851	11805.86
625.046	11754.66
625.24	11805.86
625.435	11388.07
625.629	11433.13
625.824	11642.02
626.018	11365.54
626.213	11068.59
626.407	11429.03
626.602	11066.54
626.796	11226.28
626.991	11371.69
627.185	10880.18
627.38	11011.25
627.574	10831.02
627.768	10702
627.963	10654.9
628.157	10699.95
628.352	10699.95
628.546	10609.84
628.74	10687.67
628.935	10394.81
629.129	10538.16
629.323	10198.2
629.517	10263.74
629.712	10196.15
629.906	10050.75
630.1	10003.64
630.294	10233.02
630.489	9891.01
630.683	10183.87
630.877	10020.03
631.071	10003.64
631.265	9833.66
631.459	9891.01
631.653	9831.62
631.848	9637.06
632.042	9690.31
632.236	9667.78
632.43	9788.61
632.624	9663.68
632.818	9530.56
633.012	9460.93
633.206	9288.9
633.4	9376.97
633.594	9333.96
633.788	9239.75
633.982	9297.1
634.176	9348.29
634.369	9051.34
634.563	9082.06
634.757	8910.03
634.951	9059.53
635.145	8819.92
635.339	8897.74
635.533	8699.09
635.726	8768.72
635.92	8727.76
636.114	8428.76
636.308	8799.44
636.501	8662.23
636.695	8508.63
636.889	8441.04
637.083	8469.72
637.276	8295.64
637.47	8379.61
637.664	8238.3
637.857	8275.16
638.051	8221.91
638.244	8090.84
638.438	8316.12
638.632	8152.28
638.825	7976.16
639.019	7976.16
639.212	7847.13
639.406	8127.71
639.599	7861.47
639.793	7943.39
639.986	7726.3
640.18	7906.52
640.373	7677.15
640.567	7619.81
640.76	7605.47
640.954	7533.79
641.147	7570.66
641.34	7402.72
641.534	7404.77
641.727	7263.46
641.92	7394.53
642.114	7273.7
642.307	7326.95
642.5	7159.02
642.694	7019.75
642.887	7161.06
643.08	7210.22
643.273	6915.31
643.467	7070.95
643.66	7101.67
643.853	7064.81
644.046	6894.83
644.239	6866.16
644.432	6794.48
644.626	6726.89
644.819	6665.46
645.012	6653.17
645.205	6683.89
645.398	6487.28
645.591	6575.34
645.784	6741.23
645.977	6616.3
646.17	6587.63
646.363	6397.17
646.556	6292.73
646.749	6364.4
646.942	6323.44
647.135	6497.52
647.328	6487.28
647.521	6249.72
647.714	6311.16
647.907	6165.75
648.099	6055.16
648.292	6280.44
648.485	6173.94
648.678	6171.9
648.871	6178.04
649.064	6178.04
649.256	6067.45
649.449	5985.53
649.642	5942.52
649.835	5846.27
650.027	5981.43
650.22	5977.34
650.413	5784.83
650.605	5715.2
650.798	5750.01
650.991	5821.69
651.183	5661.95
651.376	5719.29
651.568	5588.22
651.761	5541.12
651.954	5637.38
652.146	5651.71
652.339	5649.66
652.531	5623.04
652.724	5498.11
652.916	5448.96
653.109	5422.34
653.301	5479.68
653.494	5391.62
653.686	5235.97
653.879	5469.44
654.071	5467.39
654.263	5242.12
654.456	5264.64
654.648	5266.69
654.84	5309.7
655.033	5205.25
655.225	5283.08
655.417	5022.98
655.61	5180.68
655.802	5227.78
655.994	5149.96
656.186	5045.51
656.379	5145.86
656.571	5018.89
656.763	5057.8
656.955	4930.83
657.148	5190.92
657.34	5043.46
657.532	5016.84
657.724	4934.92
657.916	5049.61
658.108	4748.56
658.3	4754.7
658.492	4906.25
658.684	4697.36
658.876	4883.72
659.068	4785.42
659.26	4810
659.452	4898.06
659.644	4801.8
659.836	4748.56
660.028	4736.27
660.22	4678.93
660.412	4597.01
660.604	4597.01
660.796	4715.79
660.988	4580.62
661.18	4578.58
661.372	4513.04
661.563	4482.32
661.755	4668.69
661.947	4629.77
662.139	4539.66
662.331	4549.9
662.522	4478.22
662.714	4431.12
662.906	4498.7
663.097	4474.13
663.289	4396.31
663.481	4461.84
663.673	4465.94
663.864	4349.2
664.056	4252.95
664.247	4474.13
664.439	4349.2
664.631	4283.67
664.822	4388.11
665.014	4281.62
665.205	4209.94
665.397	4341.01
665.588	4250.9
665.78	4232.47
665.971	4195.61
666.163	4205.85
666.354	4365.59
666.546	4257.04
666.737	4322.58
666.929	4293.91
667.12	4300.05
667.311	4404.5
667.503	4314.39
667.694	4201.75
667.885	4322.58
668.077	4377.87
668.268	4105.49
668.459	4259.09
668.651	4246.8
668.842	4205.85
669.033	4257.04
669.224	4244.76
669.416	4275.48
669.607	4197.65
669.798	4363.54
669.989	4400.4
670.18	4216.08
670.371	4220.18
670.563	4128.02
670.754	4216.08
670.945	4132.12
671.136	4269.33
671.327	4275.48
671.518	4367.63
671.709	4308.24
671.9	4351.25
672.091	4355.35
672.282	4252.95
672.473	4369.68
672.664	4402.45
672.855	4300.05
673.046	4291.86
673.237	4431.12
673.428	4343.06
673.619	4326.68
673.809	4402.45
674	4418.83
674.191	4441.36
674.382	4322.58
674.573	4445.46
674.764	4285.72
674.954	4502.8
675.145	4490.51
675.336	4406.55
675.527	4482.32
675.717	4695.31
675.908	4539.66
676.099	4461.84
676.289	4504.85
676.48	4474.13
676.671	4521.23
676.861	4543.76
677.052	4672.78
677.243	4510.99
677.433	4603.15
677.624	4709.65
677.814	4826.38
678.005	4726.03
678.195	4744.46
678.386	4732.17
678.576	4850.96
678.767	4732.17
678.957	4865.29
679.148	4803.85
679.338	4871.43
679.529	4830.48
679.719	4879.63
679.909	4889.87
680.1	4832.52
680.29	4949.26
680.481	4953.35
680.671	5014.79
680.861	5012.74
681.052	5080.33
681.242	4961.55
681.432	5321.99
681.622	4934.92
681.813	5004.55
682.003	5266.69
682.193	5045.51
682.383	5078.28
682.573	5141.77
682.764	5190.92
682.954	5246.21
683.144	5293.32
683.334	5213.45
683.524	5436.67
683.714	5209.35
683.904	5305.6
684.094	5246.21
684.284	5262.6
684.474	5334.28
684.664	5309.7
684.854	5215.49
685.044	5338.37
685.234	5096.71
685.424	5350.66
685.614	5250.31
685.804	5262.6
685.994	5416.19
686.184	5330.18
686.374	5444.87
686.564	5342.47
686.753	5317.89
686.943	5225.73
687.133	5326.08
687.323	5096.71
687.513	5205.25
687.702	5068.04
687.892	5203.21
688.082	5106.95
688.272	5172.49
688.461	5190.92
688.651	4975.88
688.841	4961.55
689.03	5002.5
689.22	5063.94
689.41	4832.52
689.599	4797.71
689.789	4881.67
689.979	4795.66
690.168	4928.78
690.358	4988.17
690.547	4934.92
690.737	4771.08
690.926	4662.54
691.116	4701.45
691.305	4680.97
691.495	4613.39
691.684	4635.92
691.874	4541.71
692.063	4619.53
692.252	4627.73
692.442	4648.21
692.631	4455.7
692.82	4662.54
693.01	4396.31
693.199	4449.55
693.388	4521.23
693.578	4424.98
693.767	4472.08
693.956	4377.87
694.146	4410.64
694.335	4390.16
694.524	4398.35
694.713	4283.67
694.902	4285.72
695.092	4263.19
695.281	4154.65
695.47	4281.62
695.659	4175.13
695.848	4152.6
696.037	4259.09
696.226	4199.7
696.415	4162.84
696.604	4179.22
696.793	4181.27
696.982	4269.33
697.171	4341.01
697.36	4193.56
697.549	4101.4
697.738	4113.69
697.927	4115.73
698.116	4068.63
698.305	4015.38
698.494	4109.59
698.683	4232.47
698.872	4193.56
699.061	4162.84
699.25	4138.26
699.438	4111.64
699.627	4085.01
699.816	4285.72
700.005	4218.13
700.193	4214.04
700.382	4240.66
700.571	4123.93
700.76	4199.7
700.948	4275.48
701.137	4336.92
701.326	4228.37
701.514	4234.52
701.703	4228.37
701.892	4160.79
702.08	4252.95
702.269	4316.44
702.457	4101.4
702.646	4236.56
702.834	4220.18
703.023	4498.7
703.212	4367.63
703.4	4281.62
703.589	4236.56
703.777	4250.9
703.965	4263.19
704.154	4316.44
704.342	4183.32
704.531	4490.51
704.719	4293.91
704.907	4572.43
705.096	4390.16
705.284	4152.6
705.472	4338.96
705.661	4420.88
705.849	4410.64
706.037	4267.28
706.226	4363.54
706.414	4537.62
706.602	4494.61
706.79	4588.82
706.979	4482.32
707.167	4482.32
707.355	4293.91
707.543	4539.66
707.731	4332.82
707.919	4500.75
708.107	4705.55
708.296	4652.3
708.484	4494.61
708.672	4664.59
708.86	4594.96
709.048	4568.34
709.236	4513.04
709.424	4506.9
709.612	4719.89
709.8	4615.44
709.988	4588.82
710.176	4932.87
710.364	4521.23
710.551	4816.14
710.739	4658.45
710.927	4769.04
711.115	4812.04
711.303	4732.17
711.491	4863.24
711.679	4932.87
711.866	5018.89
712.054	4908.3
712.242	4934.92
712.43	4994.31
712.617	4998.41
712.805	4998.41
712.993	4994.31
713.181	4977.93
713.368	4994.31
713.556	5002.5
713.744	5014.79
713.931	5137.67
714.119	5033.22
714.306	5088.52
714.494	5045.51
714.682	5182.73
714.869	5090.57
715.057	5238.02
715.244	5045.51
715.432	5209.35
715.619	5270.79
715.807	5305.6
715.994	5291.27
716.182	5393.67
716.369	5453.06
716.556	5440.77
716.744	5432.58
716.931	5440.77
717.119	5541.12
717.306	5317.89
717.493	5561.6
717.681	5305.6
717.868	5436.67
718.055	5711.1
718.242	5588.22
718.43	5612.8
718.617	5586.18
718.804	5649.66
718.991	5618.94
719.179	5807.36
719.366	5612.8
719.553	5629.18
719.74	5643.52
719.927	5825.79
720.114	5686.53
720.301	5874.94
720.488	5649.66
720.676	5752.06
720.863	5709.05
721.05	5885.18
721.237	5793.02
721.424	5952.76
721.611	6006.01
721.798	5866.75
721.985	5850.36
722.172	5895.42
722.358	6032.63
722.545	5907.71
722.732	5850.36
722.919	6046.97
723.106	5897.47
723.293	6124.79
723.48	6087.93
723.667	6038.78
723.853	6108.41
724.04	6180.09
724.227	6165.75
724.414	5897.47
724.6	6051.06
724.787	6100.22
724.974	6296.82
725.161	6284.53
725.347	5993.72
725.534	6274.29
725.72	6266.1
725.907	6198.52
726.094	6292.73
726.28	6257.91
726.467	6126.84
726.653	6399.22
726.84	6411.51
727.027	6380.79
727.213	6206.71
727.4	6464.75
727.586	6280.44
727.773	6292.73
727.959	6388.98
728.145	6384.88
728.332	6364.4
728.518	6438.13
728.705	6407.41
728.891	6333.68
729.077	6454.51
729.264	6409.46
729.45	6411.51
729.636	6669.55
729.823	6655.22
730.009	6481.14
730.195	6604.02
730.382	6571.25
730.568	6466.8
730.754	6540.53
730.94	6554.87
731.126	6610.16
731.313	6698.22
731.499	6558.96
731.685	6513.91
731.871	6556.91
732.057	6628.59
732.243	6649.07
732.429	6601.97
732.615	6702.32
732.801	6589.68
732.987	6677.74
733.173	6528.24
733.359	6593.78
733.545	6841.58
733.731	6628.59
733.917	6806.77
734.103	6786.29
734.289	6841.58
734.475	6655.22
734.661	6798.57
734.847	6802.67
735.033	6767.85
735.219	6907.12
735.404	6921.45
735.59	6814.96
735.776	6571.25
735.962	6913.26
736.148	6714.61
736.333	6708.46
736.519	6741.23
736.705	6472.95
736.89	6692.08
737.076	6669.55
737.262	6591.73
737.447	6706.41
737.633	6677.74
737.819	6845.68
738.004	6720.75
738.19	6743.28
738.375	6624.5
738.561	6833.39
738.747	6745.33
738.932	6790.38
739.118	6800.62
739.303	6679.79
739.489	6755.57
739.674	6606.06
739.859	6622.45
740.045	6513.91
740.23	6687.98
740.416	6485.23
740.601	6571.25
740.786	6595.82
740.972	6386.93
741.157	6716.65
741.342	6456.56
741.528	6554.87
741.713	6284.53
741.898	6407.41
742.084	6446.32
742.269	6382.84
742.454	6362.36
742.639	6644.98
742.824	6339.83
743.01	6415.6
743.195	6345.97
743.38	6245.62
743.565	6315.25
743.75	6309.11
743.935	6137.08
744.12	6309.11
744.305	6055.16
744.49	6153.46
744.675	6087.93
744.86	6018.3
745.045	6040.83
745.23	6108.41
745.415	6063.35
745.6	6157.56
745.785	5950.71
745.97	5969.15
746.155	5825.79
746.34	6061.3
746.525	5758.21
746.71	5907.71
746.895	5678.33
747.079	5758.21
747.264	5741.82
747.449	5821.69
747.634	5786.88
747.819	5661.95
748.003	5592.32
748.188	5539.07
748.373	5528.83
748.557	5551.36
748.742	5561.6
748.927	5475.59
749.111	5473.54
749.296	5498.11
749.481	5395.71
749.665	5240.07
749.85	5270.79
750.034	5315.84
750.219	5162.25
750.404	5305.6
750.588	5111.05
750.773	5207.3
750.957	5000.46
751.141	4998.41
751.326	4887.82
751.51	4914.44
751.695	4973.83
751.879	4750.6
752.064	4857.1
752.248	4742.41
752.432	4687.12
752.617	4734.22
752.801	4760.84
752.985	4691.21
753.17	4701.45
753.354	4697.36
753.538	4644.11
753.722	4531.47
753.907	4545.81
754.091	4478.22
754.275	4379.92
754.459	4275.48
754.643	4322.58
754.828	4324.63
755.012	4179.22
755.196	4293.91
755.38	4175.13
755.564	4279.57
755.748	4048.15
755.932	4171.03
756.116	4007.19
756.3	4130.07
756.484	4072.73
756.668	4101.4
756.852	3882.27
757.036	3917.08
757.22	3822.88
757.404	3976.47
757.588	3796.25
757.772	3984.66
757.956	3818.78
758.14	3906.84
758.323	3654.94
758.507	3702.04
758.691	3810.59
758.875	3714.33
759.059	3685.66
759.242	3810.59
759.426	3538.21
759.61	3667.23
759.794	3575.07
759.977	3589.41
760.161	3464.48
760.345	3548.45
760.528	3482.91
760.712	3530.02
760.895	3425.57
761.079	3321.12
761.263	3308.83
761.446	3546.4
761.63	3314.98
761.813	3243.3
761.997	3269.92
762.18	3355.94
762.364	3300.64
762.547	3097.89
762.731	3314.98
762.914	3196.2
763.098	3126.57
763.281	3155.24
763.464	3112.23
763.648	3200.29
763.831	3054.89
764.015	3212.58
764.198	2993.45
764.381	3085.61
764.564	3085.61
764.748	3079.46
764.931	3085.61
765.114	2993.45
765.297	3075.37
765.481	2954.54
765.664	2975.02
765.847	2972.97
766.03	2823.47
766.213	2878.76
766.397	2757.93
766.58	2757.93
766.763	2866.47
766.946	2899.24
767.129	2759.98
767.312	2825.51
767.495	2790.7
767.678	2764.08
767.861	2725.16
768.044	2782.51
768.227	2727.21
768.41	2727.21
768.593	2841.9
768.776	2719.02
768.959	2546.99
769.142	2735.4
769.324	2544.94
769.507	2581.81
769.69	2549.04
769.873	2659.63
770.056	2528.56
770.239	2532.65
770.421	2534.7
770.604	2532.65
770.787	2442.54
770.97	2549.04
771.152	2360.63
771.335	2518.32
771.518	2293.04
771.7	2483.5
771.883	2463.02
772.066	2360.63
772.248	2329.91
772.431	2426.16
772.613	2290.99
772.796	2213.17
772.978	2245.94
773.161	2444.59
773.343	2288.95
773.526	2233.65
773.708	2145.59
773.891	2215.22
774.073	1983.8
774.256	2094.39
774.438	2305.33
774.621	2155.83
774.803	2110.77
774.985	2127.16
775.168	2147.64
775.35	2157.88
775.532	2221.36
775.715	2065.72
775.897	1940.79
776.079	2053.43
776.261	2047.29
776.444	1989.94
776.626	2045.24
776.808	1951.03
776.99	1865.02
777.173	1948.98
777.355	1826.11
777.537	1918.26
777.719	1889.59
777.901	1910.07
778.083	1822.01
778.265	1793.34
778.447	1785.15
778.629	1774.91
778.811	1709.37
778.993	1779
779.175	1744.19
779.357	1670.46
779.539	1561.92
779.721	1674.56
779.903	1723.71
780.085	1647.93
780.267	1629.5
780.449	1727.8
780.631	1656.12
780.812	1701.18
780.994	1553.73
781.176	1502.53
781.358	1436.99
781.54	1557.82
781.721	1625.4
781.903	1563.97
782.085	1563.97
782.267	1555.77
782.448	1453.38
782.63	1482.05
782.812	1408.32
782.993	1510.72
783.175	1357.12
783.357	1369.41
783.538	1477.95
783.72	1377.6
783.901	1383.74
784.083	1369.41
784.264	1393.98
784.446	1246.53
784.627	1295.68
784.809	1359.17
784.99	1269.06
785.172	1305.92
785.353	1262.91
785.535	1195.33
785.716	1324.35
785.897	1176.9
786.079	1187.14
786.26	1213.76
786.441	1224
786.623	1176.9
786.804	1205.57
786.985	1144.13
787.167	1119.56
787.348	1162.56
787.529	1158.47
787.71	1154.37
787.891	1146.18
788.073	1092.93
788.254	1121.6
788.435	1172.8
788.616	1115.46
788.797	1043.78
788.978	1092.93
789.159	1070.4
789.34	1111.36
789.522	1090.88
789.703	1062.21
789.884	992.58
790.065	1056.07
790.246	1094.98
790.427	974.15
790.607	963.91
790.788	1006.92
790.969	943.43
791.15	933.19
791.331	900.42
791.512	853.32
791.693	998.73
791.874	935.24
792.054	982.34
792.235	988.49
792.416	832.84
792.597	795.98
792.778	845.13
792.958	931.14
793.139	916.81
793.32	902.47
793.5	890.18
793.681	906.57
793.862	906.57
794.042	884.04
794.223	800.07
794.404	902.47
794.584	746.83
794.765	812.36
794.945	865.61
795.126	902.47
795.306	836.94
795.487	861.51
795.667	750.92
795.848	845.13
796.028	785.74
796.209	781.64
796.389	744.78
796.57	820.55
796.75	771.4
796.93	804.17
797.111	775.5
797.291	746.83
797.471	763.21
797.652	693.58
797.832	755.02
798.012	800.07
798.192	621.9
798.373	767.31
798.553	714.06
798.733	740.68
798.913	716.11
799.093	646.48
799.274	697.67
799.454	677.19
799.634	720.2
799.814	722.25
799.994	705.87
800.174	648.52
800.354	769.35
800.534	687.43
800.714	671.05
800.894	611.66
801.074	656.72
801.254	564.56
801.434	689.48
801.614	632.14
801.794	623.95
801.974	1336.64
802.154	623.95
802.334	656.72
802.514	589.13
802.693	548.17
802.873	679.24
803.053	615.76
803.233	605.52
803.413	591.18
803.592	558.41
803.772	615.76
803.952	595.28
804.131	669
804.311	580.94
804.491	720.2
804.67	572.75
804.85	576.84
805.03	630.09
805.209	539.98
805.389	566.6
805.568	589.13
805.748	468.3
805.928	548.17
806.107	562.51
806.287	525.65
806.466	607.56
806.646	529.74
806.825	570.7
807.004	513.36
807.184	574.8
807.363	494.93
807.543	591.18
807.722	392.53
807.901	628.04
808.081	476.49
808.26	433.49
808.439	472.4
808.619	486.73
808.798	433.49
808.977	501.07
809.156	451.92
809.336	517.45
809.515	439.63
809.694	544.08
809.873	488.78
810.052	529.74
810.231	519.5
810.411	464.21
810.59	562.51
810.769	443.73
810.948	517.45
811.127	476.49
811.306	431.44
811.485	419.15
811.664	492.88
811.843	490.83
812.022	468.3
812.201	466.25
812.38	445.77
812.559	382.29
812.737	496.97
812.916	396.62
813.095	445.77
813.274	427.34
813.453	451.92
813.632	462.16
813.811	480.59
813.989	433.49
814.168	464.21
814.347	374.1
814.526	312.66
814.704	533.84
814.883	435.53
815.062	353.62
815.24	402.77
815.419	419.15
815.598	339.28
815.776	347.47
815.955	451.92
816.133	279.89
816.312	415.06
816.49	353.62
816.669	345.42
816.847	380.24
817.026	460.11
817.204	335.18
817.383	365.9
817.561	404.82
817.74	337.23
817.918	435.53
818.097	462.16
818.275	329.04
818.453	384.34
818.632	378.19
818.81	298.32
818.988	351.57
819.167	300.37
819.345	314.7
819.523	335.18
819.701	382.29
819.879	312.66
820.058	349.52
820.236	353.62
820.414	421.2
820.592	353.62
820.77	386.38
820.948	269.65
821.127	308.56
821.305	384.34
821.483	292.18
821.661	363.86
821.839	310.61
822.017	306.51
822.195	324.94
822.373	370
822.551	353.62
822.729	365.9
822.907	316.75
823.085	329.04
823.262	283.98
823.44	261.46
823.618	273.75
823.796	261.46
823.974	208.21
824.152	263.51
824.329	283.98
824.507	324.94
824.685	370
824.863	302.42
825.04	322.9
825.218	349.52
825.396	316.75
825.574	333.14
825.751	310.61
825.929	353.62
826.107	277.84
826.284	195.92
826.462	216.4
826.639	206.16
826.817	222.55
826.994	261.46
827.172	243.03
827.349	351.57
827.527	255.31
827.704	238.93
827.882	359.76
828.059	259.41
828.237	214.35
828.414	269.65
828.591	224.59
828.769	222.55
828.946	222.55
829.124	259.41
829.301	230.74
829.478	222.55
829.655	200.02
829.833	220.5
830.01	259.41
830.187	234.83
830.364	208.21
830.542	222.55
830.719	300.37
830.896	234.83
831.073	228.69
831.25	173.39
831.427	277.84
831.604	238.93
831.782	140.63
831.959	243.03
832.136	240.98
832.313	273.75
832.49	251.22
832.667	195.92
832.844	234.83
833.021	267.6
833.198	208.21
833.374	263.51
833.551	247.12
833.728	281.94
833.905	197.97
834.082	116.05
834.259	159.06
834.436	277.84
834.612	140.63
834.789	279.89
834.966	177.49
835.143	304.46
835.319	111.96
835.496	169.3
835.673	148.82
835.85	195.92
836.026	210.26
836.203	228.69
836.38	206.16
836.556	210.26
836.733	146.77
836.909	279.89
837.086	177.49
837.262	169.3
837.439	165.2
837.616	140.63
837.792	206.16
837.968	255.31
838.145	103.76
838.321	187.73
838.498	230.74
838.674	179.54
838.851	202.07
839.027	200.02
839.203	152.91
839.38	208.21
839.556	140.63
839.732	200.02
839.909	132.44
840.085	214.35
840.261	140.63
840.437	146.77
840.614	173.39
840.79	99.67
840.966	206.16
841.142	255.31
841.318	161.11
841.494	181.59
841.671	177.49
841.847	165.2
842.023	146.77
842.199	177.49
842.375	281.94
842.551	101.72
842.727	107.86
842.903	212.31
843.079	134.48
843.255	193.87
843.431	83.28
843.607	169.3
843.783	83.28
843.959	107.86
844.134	202.07
844.31	202.07
844.486	159.06
844.662	120.15
844.838	89.43
845.013	165.2
845.189	212.31
845.365	193.87
845.541	146.77
845.716	144.72
845.892	130.39
846.068	134.48
846.244	120.15
846.419	142.68
846.595	48.47
846.77	140.63
846.946	132.44
847.122	60.76
847.297	124.24
847.473	240.98
847.648	62.8
847.824	122.2
847.999	42.32
848.175	111.96
848.35	177.49
848.526	202.07
848.701	189.78
848.876	142.68
849.052	122.2
849.227	134.48
849.403	120.15
849.578	152.91
849.753	165.2
849.929	148.82
850.104	91.48
850.279	105.81
850.454	107.86
850.63	103.76
850.805	107.86
850.98	157.01
851.155	73.04
851.33	144.72
851.505	118.1
851.681	177.49
851.856	81.24
852.031	99.67
852.206	148.82
852.381	91.48
852.556	148.82
852.731	148.82
852.906	157.01
853.081	116.05
853.256	177.49
853.431	144.72
853.606	154.96
853.781	89.43
853.956	-23.21
854.131	62.8
854.305	-6.83
854.48	75.09
854.655	105.81
854.83	107.86
855.005	109.91
855.18	142.68
855.354	38.23
855.529	122.2
855.704	140.63
855.879	107.86
856.053	66.9
856.228	136.53
856.403	40.28
856.577	157.01
856.752	107.86
856.926	68.95
857.101	83.28
857.276	111.96
857.45	118.1
857.625	171.35
857.799	138.58
857.974	64.85
858.148	25.94
858.323	132.44
858.497	99.67
858.672	66.9
858.846	120.15
859.02	91.48
859.195	71
859.369	83.28
859.543	157.01
859.718	87.38
859.892	152.91
860.066	97.62
860.241	75.09
860.415	111.96
860.589	46.42
860.763	71
860.938	91.48
861.112	140.63
861.286	124.24
861.46	46.42
861.634	124.24
861.808	89.43
861.982	107.86
862.157	42.32
862.331	89.43
862.505	-4.78
862.679	122.2
862.853	99.67
863.027	44.37
863.201	81.24
863.375	107.86
863.549	83.28
863.722	42.32
863.896	116.05
864.07	48.47
864.244	77.14
864.418	95.57
864.592	148.82
864.766	77.14
864.939	91.48
865.113	27.99
865.287	103.76
865.461	40.28
865.634	107.86
865.808	34.13
865.982	36.18
866.156	99.67
866.329	-6.83
866.503	58.71
866.676	111.96
866.85	27.99
867.024	52.56
867.197	66.9
867.371	17.75
867.544	73.04
867.718	-17.07
867.891	83.28
868.065	62.8
868.238	44.37
868.412	163.15
868.585	-2.73
868.759	5.46
868.932	71
869.105	17.75
869.279	91.48
869.452	97.62
869.625	40.28
869.799	-6.83
869.972	-6.83
870.145	1.37
870.319	68.95
870.492	97.62
870.665	30.04
870.838	19.8
871.011	-8.87
871.185	66.9
871.358	15.7
871.531	30.04
871.704	17.75
871.877	34.13
872.05	62.8
872.223	85.33
872.396	17.75
872.569	34.13
872.742	30.04
872.915	83.28
873.088	-6.83
873.261	27.99
873.434	38.23
873.607	66.9
873.78	66.9
873.953	-33.45
874.126	81.24
874.299	60.76
874.471	58.71
874.644	66.9
874.817	42.32
874.99	111.96
875.163	30.04
875.335	60.76
875.508	7.51
875.681	107.86
875.853	62.8
876.026	9.56
876.199	62.8
876.371	9.56
876.544	1.37
876.717	99.67
876.889	32.08
877.062	130.39
877.234	25.94
877.407	58.71
877.579	50.52
877.752	103.76
877.924	48.47
878.097	17.75
878.269	75.09
878.442	71
878.614	107.86
878.786	105.81
878.959	56.66
879.131	91.48
879.303	-19.11
879.476	21.85
879.648	136.53
879.82	66.9
879.993	56.66
880.165	38.23
880.337	7.51
880.509	87.38
880.681	-21.16
880.854	-0.68
881.026	-0.68
881.198	38.23
881.37	1.37
881.542	40.28
881.714	-8.87
881.886	50.52
882.058	-35.5
882.23	42.32
882.402	-25.26
882.574	-4.78
882.746	40.28
882.918	34.13
883.09	66.9
883.262	40.28
883.434	73.04
883.606	-10.92
883.778	71
883.95	23.89
884.122	58.71
884.293	27.99
884.465	79.19
884.637	81.24
884.809	27.99
884.98	62.8
885.152	9.56
885.324	19.8
885.496	-0.68
885.667	27.99
885.839	58.71
886.011	17.75
886.182	21.85
886.354	1.37
886.525	-0.68
886.697	66.9
886.869	21.85
887.04	103.76
887.212	50.52
887.383	38.23
887.555	30.04
887.726	7.51
887.897	-0.68
888.069	-43.69
888.24	48.47
888.412	66.9
888.583	-10.92
888.754	87.38
888.926	1.37
889.097	46.42
889.268	17.75
889.44	42.32
889.611	-58.03
889.782	50.52
889.953	34.13
890.125	9.56
890.296	46.42
890.467	15.7
890.638	64.85
890.809	-0.68
890.98	-23.21
891.151	34.13
891.323	46.42
891.494	77.14
891.665	52.56
891.836	-0.68
892.007	9.56
892.178	89.43
892.349	73.04
892.52	58.71
892.691	15.7
892.862	40.28
893.032	48.47
893.203	48.47
893.374	1.37
893.545	97.62
893.716	-27.31
893.887	58.71
894.057	-19.11
894.228	36.18
894.399	32.08
894.57	46.42
894.74	40.28
894.911	46.42
895.082	60.76
895.253	-0.68
895.423	5.46
895.594	48.47
895.764	81.24
895.935	23.89
896.106	17.75
896.276	25.94
896.447	17.75
896.617	46.42
896.788	17.75
896.958	-6.83
897.129	62.8
897.299	-10.92
897.47	13.65
897.64	9.56
897.81	56.66
897.981	56.66
898.151	36.18
898.322	52.56
898.492	89.43
898.662	-8.87
898.832	-25.26
899.003	15.7
899.173	58.71
899.343	-47.79
899.513	17.75
