Data from USB4F104151__97__11-32-15-301.txt Node

Date: Fri Mar 14 11:32:15 EDT 2025
User: louis
Spectrometer: USB4F10415
Trigger mode: 4
Integration Time (sec): 5.000000E-2
Scans to average: 1
Electric dark correction enabled: true
Nonlinearity correction enabled: false
Boxcar width: 0
XAxis mode: Wavelengths
Number of Pixels in Spectrum: 3648
>>>>>Begin Spectral Data<<<<<
178.204	-182.61
178.424	-182.61
178.644	-182.61
178.864	-153.94
179.084	-207.19
179.304	-14.68
179.524	-0.34
179.744	18.09
179.964	54.95
180.184	-45.4
180.404	11.95
180.624	-6.49
180.844	-16.73
181.064	-12.63
181.283	-18.77
181.503	-22.87
181.723	52.91
181.943	-92.5
182.163	91.82
182.383	-78.16
182.602	20.14
182.822	44.71
183.042	5.8
183.262	-45.4
183.482	-72.02
183.701	34.47
183.921	-39.25
184.141	-86.36
184.361	26.28
184.58	20.14
184.8	-35.16
185.02	-47.44
185.239	40.62
185.459	22.19
185.679	95.91
185.898	-94.55
186.118	44.71
186.338	63.15
186.557	-18.77
186.777	26.28
186.997	-16.73
187.216	-37.2
187.436	71.34
187.655	-14.68
187.875	20.14
188.095	-82.26
188.314	54.95
188.534	67.24
188.753	-39.25
188.973	59.05
189.192	89.77
189.412	-26.96
189.631	52.91
189.851	110.25
190.07	93.87
190.29	-20.82
190.509	38.57
190.729	1.71
190.948	-20.82
191.168	128.68
191.387	26.28
191.607	-35.16
191.826	30.38
192.045	-39.25
192.265	46.76
192.484	-10.58
192.704	-61.78
192.923	-14.68
193.142	44.71
193.362	5.8
193.581	-0.34
193.8	85.67
194.02	-10.58
194.239	-16.73
194.458	22.19
194.678	22.19
194.897	34.47
195.116	-76.12
195.335	42.67
195.555	18.09
195.774	28.33
195.993	102.06
196.212	-16.73
196.432	-4.44
196.651	32.43
196.87	20.14
197.089	81.58
197.308	1.71
197.528	11.95
197.747	-43.35
197.966	32.43
198.185	38.57
198.404	-4.44
198.623	-26.96
198.842	61.1
199.062	57
199.281	42.67
199.5	34.47
199.719	71.34
199.938	44.71
200.157	46.76
200.376	-39.25
200.595	-14.68
200.814	95.91
201.033	9.9
201.252	57
201.471	26.28
201.69	69.29
201.909	52.91
202.128	52.91
202.347	16.04
202.566	-37.2
202.785	-37.2
203.004	-35.16
203.223	91.82
203.442	59.05
203.661	-53.59
203.879	38.57
204.098	13.99
204.317	-43.35
204.536	38.57
204.755	-26.96
204.974	26.28
205.193	-20.82
205.411	36.52
205.63	-35.16
205.849	-12.63
206.068	-6.49
206.287	46.76
206.505	-2.39
206.724	42.67
206.943	-0.34
207.162	36.52
207.381	-10.58
207.599	28.33
207.818	-72.02
208.037	-2.39
208.255	-31.06
208.474	38.57
208.693	38.57
208.911	28.33
209.13	42.67
209.349	-26.96
209.567	-18.77
209.786	116.39
210.005	46.76
210.223	-35.16
210.442	-10.58
210.661	-14.68
210.879	22.19
211.098	-110.93
211.316	-31.06
211.535	63.15
211.753	-12.63
211.972	-31.06
212.191	-20.82
212.409	-33.11
212.628	30.38
212.846	-6.49
213.065	38.57
213.283	34.47
213.502	11.95
213.72	-12.63
213.938	-18.77
214.157	16.04
214.375	-12.63
214.594	5.8
214.812	-31.06
215.031	-33.11
215.249	26.28
215.467	36.52
215.686	-31.06
215.904	50.86
216.122	-20.82
216.341	44.71
216.559	-6.49
216.778	83.63
216.996	18.09
217.214	-45.4
217.432	3.75
217.651	-29.01
217.869	-10.58
218.087	26.28
218.306	7.85
218.524	54.95
218.742	22.19
218.96	5.8
219.179	20.14
219.397	-35.16
219.615	46.76
219.833	77.48
220.051	-26.96
220.27	71.34
220.488	7.85
220.706	36.52
220.924	42.67
221.142	-37.2
221.36	40.62
221.578	38.57
221.796	42.67
222.015	30.38
222.233	-47.44
222.451	30.38
222.669	9.9
222.887	20.14
223.105	-86.36
223.323	40.62
223.541	-69.97
223.759	30.38
223.977	7.85
224.195	1.71
224.413	57
224.631	30.38
224.849	22.19
225.067	50.86
225.285	-72.02
225.503	-18.77
225.721	-43.35
225.939	-0.34
226.157	-26.96
226.375	140.97
226.592	-4.44
226.81	3.75
227.028	-29.01
227.246	120.49
227.464	-12.63
227.682	32.43
227.9	30.38
228.117	-29.01
228.335	104.11
228.553	-6.49
228.771	32.43
228.989	20.14
229.206	-4.44
229.424	-10.58
229.642	-10.58
229.86	-55.64
230.077	112.3
230.295	-12.63
230.513	79.53
230.731	16.04
230.948	71.34
231.166	13.99
231.384	-39.25
231.601	42.67
231.819	34.47
232.037	-14.68
232.254	-55.64
232.472	18.09
232.689	44.71
232.907	54.95
233.125	-94.55
233.342	-6.49
233.56	69.29
233.777	-67.92
233.995	-14.68
234.213	13.99
234.43	42.67
234.648	-26.96
234.865	28.33
235.083	9.9
235.3	-8.53
235.518	22.19
235.735	59.05
235.953	36.52
236.17	13.99
236.388	-10.58
236.605	7.85
236.822	44.71
237.04	30.38
237.257	-29.01
237.475	1.71
237.692	7.85
237.909	44.71
238.127	-6.49
238.344	11.95
238.562	75.43
238.779	-51.54
238.996	-41.3
239.214	-45.4
239.431	83.63
239.648	11.95
239.865	-14.68
240.083	22.19
240.3	46.76
240.517	18.09
240.735	9.9
240.952	9.9
241.169	34.47
241.386	11.95
241.603	-16.73
241.821	-33.11
242.038	-49.49
242.255	42.67
242.472	-24.92
242.689	54.95
242.907	61.1
243.124	-4.44
243.341	-4.44
243.558	13.99
243.775	-4.44
243.992	-24.92
244.209	-37.2
244.426	61.1
244.643	34.47
244.86	18.09
245.078	-2.39
245.295	-45.4
245.512	-2.39
245.729	-12.63
245.946	40.62
246.163	-12.63
246.38	22.19
246.597	-12.63
246.814	-35.16
247.031	3.75
247.248	22.19
247.464	-35.16
247.681	9.9
247.898	59.05
248.115	42.67
248.332	-49.49
248.549	91.82
248.766	30.38
248.983	42.67
249.2	26.28
249.417	52.91
249.633	3.75
249.85	-59.73
250.067	54.95
250.284	-31.06
250.501	22.19
250.717	-6.49
250.934	-69.97
251.151	-45.4
251.368	26.28
251.585	-18.77
251.801	-53.59
252.018	-67.92
252.235	1.71
252.451	11.95
252.668	-39.25
252.885	-45.4
253.102	-39.25
253.318	-4.44
253.535	-14.68
253.752	-82.26
253.968	42.67
254.185	-133.46
254.401	-4.44
254.618	91.82
254.835	-35.16
255.051	73.39
255.268	-31.06
255.484	-29.01
255.701	20.14
255.917	81.58
256.134	-18.77
256.351	-55.64
256.567	-53.59
256.784	24.23
257	-47.44
257.217	48.81
257.433	61.1
257.65	44.71
257.866	22.19
258.082	26.28
258.299	30.38
258.515	73.39
258.732	83.63
258.948	-8.53
259.165	1.71
259.381	-63.83
259.597	71.34
259.814	-2.39
260.03	-51.54
260.246	-26.96
260.463	18.09
260.679	-10.58
260.895	95.91
261.112	77.48
261.328	-45.4
261.544	-100.69
261.761	52.91
261.977	-100.69
262.193	-88.4
262.409	54.95
262.626	91.82
262.842	-20.82
263.058	22.19
263.274	34.47
263.49	22.19
263.707	36.52
263.923	-10.58
264.139	-18.77
264.355	-14.68
264.571	59.05
264.787	3.75
265.004	3.75
265.22	13.99
265.436	-35.16
265.652	-26.96
265.868	-26.96
266.084	-26.96
266.3	-12.63
266.516	-8.53
266.732	30.38
266.948	85.67
267.164	-39.25
267.38	65.19
267.596	-12.63
267.812	87.72
268.028	71.34
268.244	-14.68
268.46	-29.01
268.676	-10.58
268.892	20.14
269.108	-33.11
269.324	3.75
269.54	-2.39
269.756	-10.58
269.972	36.52
270.188	-22.87
270.403	-10.58
270.619	-18.77
270.835	52.91
271.051	-37.2
271.267	-2.39
271.483	38.57
271.698	-10.58
271.914	-2.39
272.13	1.71
272.346	67.24
272.562	13.99
272.777	61.1
272.993	32.43
273.209	46.76
273.425	-6.49
273.64	-80.21
273.856	5.8
274.072	75.43
274.287	-35.16
274.503	26.28
274.719	71.34
274.934	-90.45
275.15	-82.26
275.366	38.57
275.581	-69.97
275.797	-20.82
276.012	-43.35
276.228	9.9
276.444	-0.34
276.659	46.76
276.875	-51.54
277.09	9.9
277.306	-106.84
277.521	42.67
277.737	-16.73
277.952	59.05
278.168	52.91
278.383	1.71
278.599	-4.44
278.814	26.28
279.03	-14.68
279.245	57
279.461	-39.25
279.676	1.71
279.892	-47.44
280.107	30.38
280.322	52.91
280.538	83.63
280.753	-37.2
280.969	-8.53
281.184	16.04
281.399	52.91
281.615	-35.16
281.83	42.67
282.045	-6.49
282.26	85.67
282.476	13.99
282.691	42.67
282.906	-10.58
283.122	-45.4
283.337	-2.39
283.552	71.34
283.767	-2.39
283.983	28.33
284.198	-10.58
284.413	75.43
284.628	-4.44
284.843	61.1
285.058	18.09
285.274	-37.2
285.489	-43.35
285.704	36.52
285.919	7.85
286.134	-63.83
286.349	91.82
286.564	-26.96
286.779	44.71
286.995	52.91
287.21	-6.49
287.425	-6.49
287.64	-26.96
287.855	7.85
288.07	-80.21
288.285	11.95
288.5	46.76
288.715	13.99
288.93	-49.49
289.145	61.1
289.36	-14.68
289.575	38.57
289.79	3.75
290.004	3.75
290.219	34.47
290.434	50.86
290.649	26.28
290.864	26.28
291.079	79.53
291.294	-2.39
291.509	13.99
291.724	91.82
291.938	-26.96
292.153	36.52
292.368	44.71
292.583	-12.63
292.798	5.8
293.012	24.23
293.227	11.95
293.442	30.38
293.657	5.8
293.871	69.29
294.086	83.63
294.301	110.25
294.516	3.75
294.73	40.62
294.945	-35.16
295.16	24.23
295.374	9.9
295.589	67.24
295.804	-10.58
296.018	1.71
296.233	-10.58
296.447	3.75
296.662	9.9
296.877	9.9
297.091	46.76
297.306	-49.49
297.52	44.71
297.735	32.43
297.949	95.91
298.164	-18.77
298.378	32.43
298.593	13.99
298.807	5.8
299.022	13.99
299.236	-14.68
299.451	18.09
299.665	22.19
299.88	16.04
300.094	-43.35
300.309	-29.01
300.523	-29.01
300.737	7.85
300.952	3.75
301.166	71.34
301.381	-16.73
301.595	-6.49
301.809	-2.39
302.024	-4.44
302.238	-4.44
302.452	97.96
302.667	24.23
302.881	48.81
303.095	38.57
303.309	-10.58
303.524	63.15
303.738	-0.34
303.952	38.57
304.166	26.28
304.381	-29.01
304.595	-45.4
304.809	-69.97
305.023	-55.64
305.237	32.43
305.452	5.8
305.666	11.95
305.88	1.71
306.094	108.2
306.308	5.8
306.522	36.52
306.736	5.8
306.95	71.34
307.164	20.14
307.379	-2.39
307.593	57
307.807	5.8
308.021	38.57
308.235	48.81
308.449	52.91
308.663	-20.82
308.877	57
309.091	-8.53
309.305	95.91
309.519	-123.22
309.733	30.38
309.947	-106.84
310.161	18.09
310.374	48.81
310.588	69.29
310.802	-31.06
311.016	9.9
311.23	18.09
311.444	-16.73
311.658	20.14
311.872	59.05
312.085	63.15
312.299	24.23
312.513	104.11
312.727	22.19
312.941	13.99
313.154	28.33
313.368	11.95
313.582	-14.68
313.796	-57.68
314.009	20.14
314.223	3.75
314.437	-59.73
314.651	-6.49
314.864	42.67
315.078	-67.92
315.292	-2.39
315.505	-45.4
315.719	48.81
315.933	-61.78
316.146	93.87
316.36	-18.77
316.573	57
316.787	44.71
317.001	59.05
317.214	-35.16
317.428	48.81
317.641	-65.88
317.855	91.82
318.068	-41.3
318.282	59.05
318.495	112.3
318.709	79.53
318.922	-2.39
319.136	13.99
319.349	16.04
319.563	1.71
319.776	22.19
319.99	-29.01
320.203	81.58
320.417	67.24
320.63	89.77
320.843	24.23
321.057	30.38
321.27	-37.2
321.483	-6.49
321.697	91.82
321.91	26.28
322.124	24.23
322.337	42.67
322.55	-31.06
322.763	-39.25
322.977	-6.49
323.19	-10.58
323.403	32.43
323.617	-10.58
323.83	22.19
324.043	42.67
324.256	30.38
324.469	-20.82
324.683	36.52
324.896	-35.16
325.109	13.99
325.322	-39.25
325.535	-6.49
325.748	18.09
325.962	-53.59
326.175	57
326.388	18.09
326.601	54.95
326.814	13.99
327.027	24.23
327.24	79.53
327.453	42.67
327.666	52.91
327.879	13.99
328.092	38.57
328.305	73.39
328.518	-41.3
328.731	-31.06
328.944	30.38
329.157	5.8
329.37	5.8
329.583	-2.39
329.796	63.15
330.009	-18.77
330.222	13.99
330.435	44.71
330.648	22.19
330.861	13.99
331.073	-57.68
331.286	24.23
331.499	22.19
331.712	-78.16
331.925	-108.88
332.138	-29.01
332.35	85.67
332.563	3.75
332.776	20.14
332.989	-63.83
333.202	-14.68
333.414	-12.63
333.627	5.8
333.84	-20.82
334.053	26.28
334.265	-26.96
334.478	13.99
334.691	-69.97
334.903	-2.39
335.116	-2.39
335.329	3.75
335.541	-10.58
335.754	145.06
335.966	54.95
336.179	-24.92
336.392	-18.77
336.604	81.58
336.817	54.95
337.029	22.19
337.242	36.52
337.454	59.05
337.667	-33.11
337.88	100.01
338.092	52.91
338.305	-6.49
338.517	-4.44
338.729	71.34
338.942	59.05
339.154	-16.73
339.367	-45.4
339.579	-37.2
339.792	-22.87
340.004	26.28
340.217	-20.82
340.429	-20.82
340.641	-29.01
340.854	13.99
341.066	-55.64
341.278	44.71
341.491	54.95
341.703	20.14
341.915	1.71
342.128	7.85
342.34	77.48
342.552	-6.49
342.764	-10.58
342.977	132.78
343.189	36.52
343.401	-18.77
343.613	-33.11
343.826	44.71
344.038	-84.31
344.25	38.57
344.462	-10.58
344.674	59.05
344.886	-22.87
345.099	42.67
345.311	42.67
345.523	18.09
345.735	-67.92
345.947	22.19
346.159	7.85
346.371	30.38
346.583	-2.39
346.795	69.29
347.007	20.14
347.219	5.8
347.431	-4.44
347.643	42.67
347.855	-29.01
348.067	97.96
348.279	-20.82
348.491	38.57
348.703	-16.73
348.915	16.04
349.127	1.71
349.339	79.53
349.551	7.85
349.763	54.95
349.975	-18.77
350.187	42.67
350.399	48.81
350.61	-74.07
350.822	-10.58
351.034	-4.44
351.246	50.86
351.458	34.47
351.669	13.99
351.881	69.29
352.093	34.47
352.305	87.72
352.517	22.19
352.728	46.76
352.94	13.99
353.152	1.71
353.363	42.67
353.575	77.48
353.787	61.1
353.999	46.76
354.21	110.25
354.422	-39.25
354.633	67.24
354.845	-35.16
355.057	38.57
355.268	13.99
355.48	46.76
355.692	5.8
355.903	-6.49
356.115	-12.63
356.326	-55.64
356.538	63.15
356.749	71.34
356.961	73.39
357.172	-65.88
357.384	28.33
357.595	102.06
357.807	-22.87
358.018	-41.3
358.23	-12.63
358.441	75.43
358.653	11.95
358.864	-59.73
359.075	-14.68
359.287	3.75
359.498	44.71
359.709	18.09
359.921	28.33
360.132	-29.01
360.344	52.91
360.555	32.43
360.766	44.71
360.977	32.43
361.189	71.34
361.4	42.67
361.611	57
361.823	83.63
362.034	83.63
362.245	-41.3
362.456	-43.35
362.667	75.43
362.879	34.47
363.09	26.28
363.301	93.87
363.512	75.43
363.723	54.95
363.935	-2.39
364.146	34.47
364.357	16.04
364.568	28.33
364.779	-29.01
364.99	30.38
365.201	-2.39
365.412	28.33
365.623	-10.58
365.834	11.95
366.045	-2.39
366.256	48.81
366.467	77.48
366.678	-10.58
366.889	13.99
367.1	36.52
367.311	69.29
367.522	5.8
367.733	13.99
367.944	102.06
368.155	20.14
368.366	-24.92
368.577	134.82
368.788	136.87
368.999	-35.16
369.209	26.28
369.42	81.58
369.631	71.34
369.842	42.67
370.053	-24.92
370.264	59.05
370.474	-14.68
370.685	-53.59
370.896	20.14
371.107	3.75
371.317	9.9
371.528	26.28
371.739	7.85
371.95	-18.77
372.16	46.76
372.371	24.23
372.582	1.71
372.792	7.85
373.003	-20.82
373.214	32.43
373.424	-2.39
373.635	11.95
373.846	-20.82
374.056	-43.35
374.267	46.76
374.477	26.28
374.688	1.71
374.898	30.38
375.109	46.76
375.319	16.04
375.53	85.67
375.74	5.8
375.951	22.19
376.161	-4.44
376.372	-0.34
376.582	-35.16
376.793	-8.53
377.003	-22.87
377.214	-37.2
377.424	87.72
377.635	106.15
377.845	-12.63
378.055	59.05
378.266	-2.39
378.476	18.09
378.686	73.39
378.897	57
379.107	36.52
379.317	30.38
379.528	34.47
379.738	26.28
379.948	-53.59
380.158	26.28
380.369	-29.01
380.579	11.95
380.789	-2.39
380.999	-22.87
381.21	-24.92
381.42	71.34
381.63	30.38
381.84	75.43
382.05	30.38
382.261	54.95
382.471	77.48
382.681	-55.64
382.891	5.8
383.101	13.99
383.311	-22.87
383.521	-6.49
383.731	79.53
383.941	95.91
384.151	22.19
384.361	59.05
384.571	18.09
384.781	59.05
384.991	71.34
385.201	38.57
385.411	-26.96
385.621	67.24
385.831	5.8
386.041	48.81
386.251	61.1
386.461	61.1
386.671	-2.39
386.881	18.09
387.091	36.52
387.301	130.73
387.511	-20.82
387.72	18.09
387.93	32.43
388.14	-16.73
388.35	-39.25
388.56	26.28
388.769	132.78
388.979	20.14
389.189	18.09
389.399	42.67
389.609	38.57
389.818	42.67
390.028	22.19
390.238	44.71
390.447	-24.92
390.657	61.1
390.867	46.76
391.076	102.06
391.286	44.71
391.496	75.43
391.705	59.05
391.915	171.69
392.125	63.15
392.334	46.76
392.544	81.58
392.753	83.63
392.963	-26.96
393.172	69.29
393.382	26.28
393.591	63.15
393.801	30.38
394.01	102.06
394.22	38.57
394.429	52.91
394.639	16.04
394.848	22.19
395.058	42.67
395.267	28.33
395.477	79.53
395.686	11.95
395.895	167.59
396.105	79.53
396.314	54.95
396.524	-4.44
396.733	9.9
396.942	85.67
397.152	36.52
397.361	69.29
397.57	59.05
397.78	83.63
397.989	65.19
398.198	128.68
398.407	32.43
398.617	-6.49
398.826	61.1
399.035	102.06
399.244	104.11
399.453	65.19
399.663	132.78
399.872	126.63
400.081	50.86
400.29	136.87
400.499	13.99
400.708	38.57
400.917	-14.68
401.127	95.91
401.336	50.86
401.545	153.26
401.754	30.38
401.963	81.58
402.172	38.57
402.381	42.67
402.59	95.91
402.799	22.19
403.008	71.34
403.217	97.96
403.426	102.06
403.635	79.53
403.844	136.87
404.053	34.47
404.262	65.19
404.471	194.22
404.68	1.71
404.888	102.06
405.097	167.59
405.306	79.53
405.515	118.44
405.724	-2.39
405.933	106.15
406.142	85.67
406.35	165.54
406.559	-14.68
406.768	190.12
406.977	102.06
407.185	136.87
407.394	128.68
407.603	95.91
407.812	165.54
408.02	159.4
408.229	128.68
408.438	104.11
408.646	93.87
408.855	218.79
409.064	190.12
409.272	226.98
409.481	239.27
409.69	183.98
409.898	140.97
410.107	202.41
410.315	229.03
410.524	179.88
410.733	173.74
410.941	280.23
411.15	310.95
411.358	280.23
411.567	401.06
411.775	216.74
411.984	329.38
412.192	251.56
412.401	345.77
412.609	284.33
412.818	294.57
413.026	347.81
413.234	296.61
413.443	390.82
413.651	349.86
413.86	437.92
414.068	384.68
414.276	466.6
414.485	403.11
414.693	462.5
414.901	579.23
415.11	480.93
415.318	505.51
415.526	497.32
415.734	669.34
415.943	568.99
416.151	640.67
416.359	525.99
416.567	577.19
416.776	640.67
416.984	659.1
417.192	628.39
417.4	636.58
417.608	677.54
417.817	663.2
418.025	773.79
418.233	849.57
418.441	728.74
418.649	810.65
418.857	954.01
419.065	972.44
419.273	865.95
419.481	1009.31
419.689	978.59
419.897	1080.99
420.105	1042.07
420.313	1095.32
420.521	1201.82
420.729	1160.86
420.937	1105.56
421.145	1216.15
421.353	1285.78
421.561	1377.94
421.769	1291.93
421.977	1453.72
422.185	1328.79
422.393	1482.39
422.601	1513.11
422.809	1537.68
423.017	1617.55
423.224	1672.85
423.432	1832.59
423.64	1701.52
423.848	1832.59
424.056	1885.84
424.263	1914.51
424.471	1963.66
424.679	2070.16
424.887	2164.36
425.094	2262.66
425.302	2186.89
425.51	2299.53
425.718	2326.15
425.925	2434.69
426.133	2371.21
426.341	2545.28
426.548	2760.32
426.756	2760.32
426.964	2741.89
427.171	2889.34
427.379	2958.97
427.586	3061.37
427.794	3124.86
428.001	3360.38
428.209	3405.43
428.417	3399.29
428.624	3724.91
428.832	3559.03
429.039	3614.32
429.247	3532.4
429.454	4017.77
429.662	4238.95
429.869	3847.79
430.076	4163.18
430.284	4089.45
430.491	4386.41
430.699	4466.28
430.906	4462.18
431.114	4558.44
431.321	4886.11
431.528	4826.72
431.736	5101.15
431.943	5285.47
432.15	5248.6
432.358	5355.1
432.565	5555.8
432.772	5570.13
432.979	6026.83
433.187	6024.78
433.394	5865.04
433.601	6387.27
433.808	6458.95
434.016	6264.4
434.223	6645.32
434.43	7079.49
434.637	7069.25
434.844	7325.24
435.052	7398.97
435.259	7429.69
435.466	7439.93
435.673	7401.02
435.88	7814.71
436.087	8281.64
436.294	8271.4
436.501	8160.81
436.708	8441.39
436.915	8519.21
437.122	8986.15
437.329	8930.85
437.537	9260.57
437.743	9586.2
437.95	9322.01
438.157	9762.33
438.364	10184.21
438.571	9930.26
438.778	10196.5
438.985	10905.09
439.192	10792.45
439.399	11046.4
439.606	10851.85
439.813	11318.78
440.02	11980.28
440.227	12043.76
440.433	11695.61
440.64	11961.84
440.847	12254.7
441.054	12527.08
441.261	13172.19
441.467	13172.19
441.674	13231.58
441.881	13770.2
442.088	13569.5
442.294	13706.71
442.501	13970.9
442.708	14257.62
442.914	14665.16
443.121	15308.23
443.328	14779.85
443.534	16201.14
443.741	15697.34
443.948	15392.19
444.154	16389.55
444.361	16381.36
444.568	16553.39
444.774	16725.42
444.981	16813.48
445.187	17311.14
445.394	18023.83
445.6	17773.98
445.807	19289.48
446.013	18582.93
446.22	18726.28
446.426	19438.98
446.633	19873.15
446.839	20424.05
447.046	19752.32
447.252	20925.8
447.459	20997.48
447.665	20620.66
447.871	21575.01
448.078	22609.23
448.284	21384.55
448.491	22017.37
448.697	22893.9
448.903	23151.95
449.11	23215.43
449.316	22871.37
449.522	23594.31
449.728	24048.96
449.935	23993.66
450.141	23854.4
450.347	24554.8
450.553	23858.49
450.76	24315.19
450.966	25019.69
451.172	24700.21
451.378	25419.05
451.584	24438.07
451.791	25238.83
451.997	25236.78
452.203	25687.33
452.409	25556.26
452.615	25726.24
452.821	24606
453.027	24417.59
453.233	25672.99
453.44	24616.24
453.646	24868.14
453.852	24761.65
454.058	25267.5
454.264	24493.36
454.47	25130.28
454.676	24513.84
454.882	25230.63
455.088	23082.31
455.294	23244.1
455.5	23602.5
455.705	23901.5
455.911	22922.57
456.117	22652.24
456.323	22064.47
456.529	21024.11
456.735	22068.57
456.941	21331.3
457.147	21149.03
457.352	20387.19
457.558	20270.45
457.764	20333.94
457.97	19770.75
458.176	19373.44
458.381	19273.09
458.587	18275.73
458.793	18511.25
458.999	17397.15
459.204	18533.78
459.41	18234.77
459.616	16821.67
459.821	17190.31
460.027	16897.45
460.233	16551.34
460.438	15758.78
460.644	15947.19
460.85	15177.16
461.055	15017.41
461.261	14904.78
461.466	13620.7
461.672	13417.95
461.878	14458.32
462.083	13401.57
462.289	13077.99
462.494	13010.4
462.7	12426.73
462.905	12187.12
463.111	12486.12
463.316	12334.57
463.522	12170.74
463.727	12262.9
463.932	12439.02
464.138	12221.94
464.343	12318.19
464.549	11873.78
464.754	12361.2
464.959	12023.28
465.165	11974.13
465.37	11599.35
465.575	11148.8
465.781	11755
465.986	11884.02
466.191	11449.85
466.397	11105.79
466.602	10565.13
466.807	10925.57
467.012	11075.07
467.218	10849.8
467.423	10726.92
467.628	10892.8
467.833	11259.39
468.038	10806.79
468.244	10507.79
468.449	10929.67
468.654	10591.75
468.859	10515.98
469.064	10339.85
469.269	10032.66
469.474	10401.29
469.679	10274.32
469.885	10053.14
470.09	10139.15
470.295	10153.49
470.5	9862.68
470.705	9852.44
470.91	9537.05
471.115	9704.98
471.32	9643.54
471.525	9688.6
471.73	9496.09
471.935	9459.23
472.139	8871.46
472.344	9131.55
472.549	9117.22
472.754	9172.51
472.959	8797.73
473.164	8621.61
473.369	8541.74
473.574	8906.27
473.778	8924.71
473.983	8812.07
474.188	8513.06
474.393	8222.25
474.598	8336.94
474.802	8123.95
475.007	7988.78
475.212	8236.59
475.417	7804.47
475.621	7814.71
475.826	7845.43
476.031	7734.84
476.235	7515.7
476.44	7577.14
476.645	7507.51
476.849	7530.04
477.054	7505.46
477.259	7384.63
477.463	7521.85
477.668	7200.32
477.872	7177.79
478.077	6977.09
478.282	6874.69
478.486	6817.35
478.691	6747.72
478.895	6733.38
479.1	6757.96
479.304	6975.04
479.509	6606.41
479.713	6536.77
479.918	6671.94
480.122	6469.19
480.326	6620.74
480.531	6528.58
480.735	6506.06
480.94	6354.51
481.144	6575.69
481.348	6401.61
481.553	6467.14
481.757	6202.96
481.961	6389.32
482.166	6305.35
482.37	6276.68
482.574	6166.09
482.778	6305.35
482.983	6706.76
483.187	6190.67
483.391	6172.24
483.595	6311.5
483.8	6145.61
484.004	6129.23
484.208	6417.99
484.412	6297.16
484.616	6295.11
484.821	6409.8
485.025	6180.43
485.229	6401.61
485.433	6207.05
485.637	6321.74
485.841	6102.61
486.045	6321.74
486.249	6370.89
486.453	6002.26
486.657	6297.16
486.861	6284.87
487.065	6075.98
487.269	6311.5
487.473	6182.48
487.677	6436.42
487.881	6346.31
488.085	6303.31
488.289	6452.81
488.493	6190.67
488.697	6366.79
488.901	6352.46
489.105	6170.19
489.309	6329.93
489.512	6422.09
489.716	6305.35
489.92	6239.82
490.124	6301.26
490.328	6555.21
490.531	6465.1
490.735	6489.67
490.939	6518.34
491.143	6334.03
491.346	6407.75
491.55	6360.65
491.754	6393.42
491.958	6567.49
492.161	6583.88
492.365	6544.97
492.569	6305.35
492.772	6659.65
492.976	6805.06
493.18	6717
493.383	6882.88
493.587	6764.1
493.79	6819.39
493.994	6774.34
494.197	6936.13
494.401	7056.96
494.605	7030.34
494.808	7177.79
495.012	7157.31
495.215	7138.88
495.419	7263.8
495.622	7153.21
495.825	7364.15
496.029	7462.46
496.232	7484.98
496.436	7501.37
496.639	7616.05
496.843	7556.66
497.046	7630.39
497.249	7763.51
497.453	7753.27
497.656	7882.29
497.859	7886.39
498.063	8185.39
498.266	8089.14
498.469	8072.75
498.673	8117.81
498.876	8224.3
499.079	8279.6
499.282	8412.71
499.485	8678.95
499.689	8867.36
499.892	8869.41
500.095	8721.96
500.298	8898.08
500.501	8887.84
500.705	9195.04
500.908	9260.57
501.111	9348.64
501.314	9299.48
501.517	9537.05
501.72	9535
501.923	9520.67
502.126	9928.21
502.329	9913.88
502.532	9920.02
502.735	10210.83
502.938	10503.69
503.141	10350.09
503.344	10628.62
503.547	10540.55
503.75	10565.13
503.953	10882.56
504.156	10831.37
504.359	11064.83
504.562	11073.03
504.765	11376.13
504.968	11640.31
505.17	11785.72
505.373	11550.2
505.576	11900.41
505.779	11916.79
505.982	11990.52
506.185	12301.81
506.387	12367.34
506.59	12377.58
506.793	12533.23
506.996	12752.36
507.198	13041.12
507.401	12899.81
507.604	13118.95
507.807	13290.98
508.009	13307.36
508.212	13538.78
508.415	13401.57
508.617	13716.95
508.82	13805.02
509.022	13848.02
509.225	14476.75
509.428	14726.6
509.63	14310.86
509.833	14595.53
510.035	14849.48
510.238	14716.36
510.44	15093.19
510.643	15441.34
510.845	15465.92
511.048	15392.19
511.25	15613.37
511.453	15672.76
511.655	16487.86
511.858	16016.82
512.06	16405.94
512.262	16225.72
512.465	16455.09
512.667	16604.59
512.87	16860.59
513.072	16919.98
513.274	17196.45
513.477	17501.6
513.679	17489.31
513.881	17825.18
514.084	17692.06
514.286	18126.23
514.488	17993.11
514.69	18546.06
514.893	18603.41
515.095	18765.2
515.297	18918.79
515.499	19088.78
515.701	19416.45
515.904	19481.99
516.106	19404.16
516.308	20186.49
516.51	20247.93
516.712	20190.58
516.914	20587.89
517.116	21091.69
517.318	20923.76
517.52	21230.95
517.722	21138.79
517.925	21716.32
518.127	21828.96
518.329	22029.66
518.531	21720.42
518.733	22361.43
518.935	22697.3
519.136	22549.84
519.338	22840.65
519.54	23242.06
519.742	23467.33
519.944	23377.22
520.146	24030.52
520.348	24198.46
520.55	24415.54
520.752	24345.91
520.954	24821.04
521.155	24988.97
521.357	25146.67
521.559	25634.08
521.761	25918.75
521.963	25857.31
522.164	26238.23
522.366	26211.61
522.568	26305.82
522.77	26768.66
522.971	27135.24
523.173	26760.47
523.375	27776.26
523.576	27794.69
523.778	27712.77
523.98	28265.72
524.181	28140.8
524.383	28347.64
524.584	28808.44
524.786	28701.94
524.988	28665.08
525.189	29140.21
525.391	29656.29
525.592	29560.04
525.794	29701.35
525.995	29928.67
526.197	30547.16
526.398	30129.37
526.6	30700.76
526.801	30639.32
527.003	30899.41
527.204	30870.74
527.406	31538.38
527.607	31628.49
527.808	31857.86
528.01	31620.3
528.211	31763.65
528.412	32339.13
528.614	32154.82
528.815	32398.52
529.016	33062.07
529.218	32560.31
529.419	33121.46
529.62	32793.78
529.822	32847.03
530.023	32922.8
530.224	33469.61
530.425	33164.46
530.626	33137.84
530.828	33340.59
531.029	34294.94
531.23	33893.54
531.431	33854.63
531.632	33918.12
531.833	34231.46
532.035	34170.02
532.236	34536.6
532.437	34260.13
532.638	33983.65
532.839	34475.16
533.04	34798.74
533.241	34614.43
533.442	35226.77
533.643	34829.46
533.844	34899.09
534.045	35091.6
534.246	34892.95
534.447	35265.68
534.648	34886.81
534.849	35669.13
535.05	35093.65
535.251	35169.43
535.451	35476.62
535.652	35466.38
535.853	35523.72
536.054	35406.99
536.255	35667.08
536.456	35333.26
536.657	35921.03
536.857	35404.94
537.058	35392.65
537.259	35830.92
537.46	35613.84
537.66	35855.5
537.861	35800.2
538.062	35579.02
538.263	35705.99
538.463	35697.8
538.664	35955.85
538.865	35515.53
539.065	35828.87
539.266	35751.05
539.466	35990.66
539.667	35462.29
539.868	36166.79
540.068	35720.33
540.269	35796.1
540.469	36054.15
540.67	35396.75
540.87	35990.66
541.071	36019.33
541.271	35908.74
541.472	35695.75
541.672	35882.12
541.873	35939.46
542.073	35243.15
542.274	35947.65
542.474	35310.74
542.675	35904.65
542.875	36199.55
543.075	35632.27
543.276	35847.3
543.476	36082.82
543.676	35693.71
543.877	36107.4
544.077	35761.29
544.277	35939.46
544.478	35884.17
544.678	35808.39
544.878	35925.13
545.078	35777.67
545.279	35613.84
545.479	35529.87
545.679	35730.57
545.879	35832.97
546.079	35986.57
546.28	35746.95
546.48	35493.01
546.68	35966.09
546.88	35912.84
547.08	35792.01
547.28	35624.08
547.48	35560.59
547.68	35740.81
547.88	35531.92
548.081	35564.68
548.281	35636.36
548.481	35538.06
548.681	36392.06
548.881	35824.78
549.081	35708.04
549.28	35298.45
549.48	35785.86
549.68	35961.99
549.88	36142.21
550.08	35386.51
550.28	35880.07
550.48	35708.04
550.68	36129.92
550.88	35110.03
551.08	35536.01
551.279	35323.02
551.479	35585.16
551.679	35517.58
551.879	35871.88
552.079	35632.27
552.278	35353.74
552.478	35130.51
552.678	35226.77
552.878	35450
553.077	35329.17
553.277	35456.14
553.477	35443.85
553.676	35349.65
553.876	35232.91
554.076	35392.65
554.275	35427.47
554.475	34815.13
554.674	35341.46
554.874	35050.64
555.074	35159.19
555.273	35050.64
555.473	35056.79
555.672	34923.67
555.872	35122.32
556.071	34890.9
556.271	35011.73
556.47	34587.8
556.67	34438.3
556.869	34858.13
557.068	34733.21
557.268	34522.27
557.467	34262.18
557.667	34184.35
557.866	34440.35
558.065	34340
558.265	33975.46
558.464	33729.7
558.663	34512.03
558.863	33522.86
559.062	34327.71
559.261	33449.13
559.461	33791.14
559.66	33340.59
559.859	33750.18
560.058	32953.52
560.258	33270.96
560.457	33266.86
560.656	33209.52
560.855	33205.42
561.054	33305.77
561.253	32959.67
561.453	32732.34
561.652	32922.8
561.851	33053.87
562.05	32353.47
562.249	32693.43
562.448	32978.1
562.647	31886.53
562.846	32054.47
563.045	32365.76
563.244	31925.44
563.443	32040.13
563.642	31427.79
563.841	32099.52
564.04	31597.77
564.239	31915.2
564.438	31263.95
564.637	31300.81
564.836	31456.46
565.035	31192.27
565.234	31251.66
565.432	30747.86
565.631	30733.53
565.83	30635.22
566.029	30760.15
566.228	30352.6
566.427	30199.01
566.625	29990.11
566.824	29687.01
567.023	30022.88
567.222	29404.39
567.42	29965.54
567.619	29709.54
567.818	29469.93
568.016	29609.19
568.215	29357.29
568.414	29015.28
568.612	29183.21
568.811	28929.27
569.01	28865.78
569.208	28302.59
569.407	28796.15
569.605	28222.72
569.804	28837.11
570.002	27946.24
570.201	28380.41
570.4	27892.99
570.598	27817.22
570.797	27555.08
570.995	27958.53
571.193	27387.14
571.392	27868.42
571.59	26938.64
571.789	27403.53
571.987	27376.9
572.186	26995.98
572.384	26807.57
572.582	27041.04
572.781	26948.88
572.979	26627.35
573.177	26713.36
573.376	26537.24
573.574	26197.27
573.772	26623.25
573.971	26051.87
574.169	25873.7
574.367	25859.36
574.565	26064.16
574.763	25943.33
574.962	25664.8
575.16	25283.88
575.358	25533.73
575.556	25292.07
575.754	25464.1
575.952	25003.31
576.151	25044.27
576.349	25031.98
576.547	24884.53
576.745	24905.01
576.943	24784.18
577.141	24415.54
577.339	24780.08
577.537	24440.12
577.735	24329.53
577.933	24214.84
578.131	24503.6
578.329	24110.39
578.527	23715.14
578.725	24212.79
578.923	23964.99
579.121	23504.2
579.319	23643.46
579.516	23723.33
579.714	23594.31
579.912	23610.69
580.11	23252.3
580.308	22996.3
580.506	23197
580.704	22945.1
580.901	23139.66
581.099	23418.18
581.297	22895.95
581.495	22934.86
581.692	22893.9
581.89	22867.28
582.088	22789.45
582.285	22318.42
582.483	22367.57
582.681	22486.36
582.878	22369.62
583.076	21988.7
583.274	22521.17
583.471	21951.84
583.669	22254.94
583.866	21839.2
584.064	21761.37
584.262	21871.96
584.459	21681.5
584.657	21525.86
584.854	21558.63
585.052	21235.05
585.249	21851.49
585.447	21327.21
585.644	21122.41
585.841	21214.57
586.039	21431.65
586.236	20710.77
586.434	20944.24
586.631	20784.49
586.828	21038.44
587.026	20909.42
587.223	20723.05
587.42	20624.75
587.618	20774.25
587.815	20622.7
588.012	20432.24
588.21	20049.27
588.407	20376.95
588.604	20245.88
588.801	19998.07
588.999	20147.58
589.196	19948.92
589.393	20170.1
589.59	19758.46
589.787	19883.39
589.984	19944.83
590.182	19641.73
590.379	19533.18
590.576	19678.59
590.773	19273.09
590.97	19430.79
591.167	19531.14
591.364	19350.92
591.561	18883.98
591.758	19041.67
591.955	19154.31
592.152	19123.59
592.349	19158.41
592.546	19004.81
592.743	19236.23
592.94	18576.78
593.137	18689.42
593.334	19033.48
593.531	18593.17
593.727	18640.27
593.924	18644.37
594.121	18326.93
594.318	18412.95
594.515	18304.4
594.712	18189.72
594.908	18257.3
595.105	18197.91
595.302	17892.76
595.499	18066.84
595.696	18034.07
595.892	17874.33
596.089	17833.37
596.286	17831.32
596.482	17943.96
596.679	17702.3
596.876	17714.59
597.072	17567.13
597.269	17563.04
597.466	17690.01
597.662	17237.41
597.859	17331.62
598.055	17307.04
598.252	17276.32
598.448	17444.26
598.645	17280.42
598.841	17229.22
599.038	17333.67
599.234	17163.68
599.431	16758.19
599.627	17112.49
599.824	16969.13
600.02	16709.04
600.217	16979.37
600.413	16641.45
600.609	16491.95
600.806	16545.2
601.002	16756.14
601.198	16426.42
601.395	16405.94
601.591	16147.89
601.787	16385.46
601.984	16344.5
602.18	16360.88
602.376	16129.46
602.572	16272.82
602.769	16029.11
602.965	15865.27
603.161	15859.13
603.357	15961.53
603.553	15785.4
603.75	15742.39
603.946	15691.2
604.142	15646.14
604.338	15418.82
604.534	15549.89
604.73	15310.27
604.926	15494.59
605.122	15314.37
605.318	15214.02
605.514	15422.91
605.71	15160.77
605.906	15293.89
606.102	15140.29
606.298	15238.59
606.494	15107.52
606.69	15050.18
606.886	14906.82
607.082	14921.16
607.278	15039.94
607.474	14759.37
607.67	14912.97
607.866	14603.72
608.062	14771.66
608.257	14650.83
608.453	14654.92
608.649	14988.74
608.845	14525.9
609.041	14513.61
609.236	14507.47
609.432	14370.26
609.628	14501.33
609.824	14626.25
610.019	14292.43
610.215	14530
610.411	14546.38
610.606	14366.16
610.802	14323.15
610.998	14308.82
611.193	14292.43
611.389	13909.46
611.584	14118.36
611.78	14187.99
611.976	13975
612.171	14130.64
612.367	13972.95
612.562	13919.7
612.758	13741.53
612.953	13698.52
613.149	13856.22
613.344	13794.78
613.539	13702.62
613.735	13870.55
613.93	14054.87
614.126	13626.84
614.321	13628.89
614.517	13700.57
614.712	13645.27
614.907	13479.39
615.103	13549.02
615.298	13510.11
615.493	13653.47
615.688	13250.02
615.884	13422.05
616.079	13319.65
616.274	13428.19
616.47	13305.31
616.665	13399.52
616.86	13233.63
617.055	13047.27
617.25	13243.87
617.445	13256.16
617.641	12922.34
617.836	12860.9
618.031	12748.26
618.226	12983.78
618.421	12850.66
618.616	13047.27
618.811	12752.36
619.006	12834.28
619.201	12654.06
619.396	12580.33
619.591	12551.66
619.786	12619.24
619.981	12537.32
620.176	12518.89
620.371	12068.34
620.566	12533.23
620.761	12441.07
620.956	12281.33
621.151	12131.83
621.346	11875.83
621.541	11935.22
621.735	12269.04
621.93	12054
622.125	11937.27
622.32	11838.97
622.515	11709.94
622.709	11759.1
622.904	11646.46
623.099	11697.66
623.294	11572.73
623.488	11490.81
623.683	11570.68
623.878	11243.01
624.072	11441.66
624.267	11326.97
624.462	11240.96
624.656	11036.16
624.851	11275.77
625.046	10808.84
625.24	11103.75
625.435	10704.39
625.629	10757.64
625.824	10735.11
626.018	10931.72
626.213	10704.39
626.407	10636.81
626.602	10526.22
626.796	10485.26
626.991	10593.8
627.185	10423.82
627.38	10124.82
627.574	10161.68
627.768	10106.38
627.963	10081.81
628.157	10196.5
628.352	10069.52
628.546	9991.7
628.74	9862.68
628.935	9897.49
629.129	9848.34
629.323	9821.72
629.517	9612.82
629.712	9496.09
629.906	9610.78
630.1	9657.88
630.294	9573.91
630.489	9301.53
630.683	9338.4
630.877	9256.48
631.071	9434.65
631.265	9381.4
631.459	9309.72
631.653	9057.82
631.848	9170.46
632.042	9055.78
632.236	9004.58
632.43	9059.87
632.624	9076.26
632.818	8830.5
633.012	8982.05
633.206	8709.67
633.4	8992.29
633.594	8777.25
633.788	8646.18
633.982	8627.75
634.176	8859.17
634.369	8560.17
634.563	8529.45
634.757	8201.77
634.951	8537.64
635.145	8496.68
635.339	8259.12
635.533	8384.04
635.726	8394.28
635.92	7929.39
636.114	8275.5
636.308	8140.33
636.501	8228.4
636.695	7947.83
636.889	7898.67
637.083	7939.63
637.276	7849.52
637.47	7898.67
637.664	7900.72
637.857	7933.49
638.051	7716.4
638.244	7597.62
638.438	7544.38
638.632	7767.6
638.825	7544.38
639.019	7685.69
639.212	7419.45
639.406	7497.27
639.599	7218.75
639.793	7319.1
639.986	7355.96
640.18	7173.69
640.373	7284.28
640.567	7177.79
640.76	7181.89
640.954	7192.12
641.147	7067.2
641.34	7046.72
641.534	6925.89
641.727	7079.49
641.92	6983.23
642.114	6753.86
642.307	6729.28
642.5	6788.68
642.694	6643.27
642.887	6688.32
643.08	6710.85
643.273	6579.78
643.467	6606.41
643.66	6526.54
643.853	6592.07
644.046	6469.19
644.239	6536.77
644.432	6286.92
644.626	6362.7
644.819	6327.88
645.012	6448.71
645.205	6227.53
645.398	6379.08
645.591	6243.92
645.784	6069.84
645.977	6037.07
646.17	6090.32
646.363	5914.19
646.556	5934.67
646.749	5967.44
646.942	6067.79
647.135	5830.23
647.328	6014.54
647.521	6032.97
647.714	5955.15
647.907	5789.27
648.099	5906
648.292	6000.21
648.485	5758.55
648.678	5899.86
648.871	5674.58
649.064	5752.4
649.256	5768.79
649.449	5568.09
649.642	5578.33
649.835	5592.66
650.027	5703.25
650.22	5443.16
650.413	5465.69
650.605	5500.5
650.798	5424.73
650.991	5330.52
651.183	5461.59
651.376	5351
651.568	5264.99
651.761	5273.18
651.954	5174.88
652.146	5297.75
652.339	5324.38
652.531	5197.4
652.724	5187.16
652.916	5156.44
653.109	4882.02
653.301	5027.42
653.494	4990.56
653.686	5076.57
653.879	5334.62
654.071	5146.2
654.263	4965.98
654.456	5047.9
654.648	5041.76
654.84	4968.03
655.033	4900.45
655.225	4830.82
655.417	4953.7
655.61	4978.27
655.802	4859.49
655.994	4822.63
656.186	4808.29
656.379	4761.19
656.571	4716.13
656.763	4806.24
656.955	4732.51
657.148	4744.8
657.34	4716.13
657.532	4615.78
657.724	4505.19
657.916	4769.38
658.108	4709.99
658.3	4558.44
658.492	4617.83
658.684	4531.81
658.876	4609.64
659.068	4585.06
659.26	4523.62
659.452	4451.94
659.644	4501.09
659.836	4503.14
660.028	4413.03
660.22	4476.52
660.412	4447.85
660.604	4468.33
660.796	4347.5
660.988	4429.42
661.18	4425.32
661.372	4249.19
661.563	4355.69
661.755	4191.85
661.947	4265.58
662.139	4118.12
662.331	4333.16
662.522	4314.73
662.714	4263.53
662.906	4290.15
663.097	4255.34
663.289	4218.47
663.481	4154.99
663.673	4161.13
663.864	4040.3
664.056	4204.14
664.247	4220.52
664.439	4062.83
664.631	4183.66
664.822	4195.95
665.014	4118.12
665.205	4128.36
665.397	4226.67
665.588	4197.99
665.78	4167.28
665.971	4089.45
666.163	4019.82
666.354	4118.12
666.546	4007.53
666.737	4116.08
666.929	4017.77
667.12	4142.7
667.311	4025.97
667.503	4071.02
667.694	4238.95
667.885	4036.21
668.077	4068.97
668.268	4064.88
668.459	4130.41
668.651	3989.1
668.842	4181.61
669.033	4085.36
669.224	3923.57
669.416	4157.04
669.607	4224.62
669.798	4032.11
669.989	4099.69
670.18	3946.09
670.371	3931.76
670.563	4132.46
670.754	4066.92
670.945	4111.98
671.136	4167.28
671.327	4075.12
671.518	4130.41
671.709	4159.08
671.9	4169.32
672.091	4210.28
672.282	4083.31
672.473	4177.51
672.664	4107.88
672.855	4140.65
673.046	4236.91
673.237	4286.06
673.428	4300.39
673.619	4281.96
673.809	4150.89
674	4114.03
674.191	4243.05
674.382	4312.68
674.573	4150.89
674.764	4238.95
674.954	4327.02
675.145	4265.58
675.336	4347.5
675.527	4355.69
675.717	4310.63
675.908	4367.98
676.099	4476.52
676.289	4396.65
676.48	4591.2
676.671	4318.82
676.861	4603.49
677.052	4402.79
677.243	4492.9
677.433	4410.98
677.624	4492.9
677.814	4640.36
678.005	4515.43
678.195	4662.88
678.386	4640.36
678.576	4556.39
678.767	4603.49
678.957	4642.4
679.148	4839.01
679.338	4796
679.529	4734.56
679.719	4787.81
679.909	4695.65
680.1	4781.67
680.29	4933.22
680.481	4728.42
680.671	5017.18
680.861	4847.2
681.052	5062.24
681.242	4978.27
681.432	5031.52
681.622	4890.21
681.813	4961.89
682.003	5068.38
682.193	4994.65
682.383	5082.72
682.573	5109.34
682.764	5166.68
682.954	5086.81
683.144	5191.26
683.334	5183.07
683.524	5207.64
683.714	5135.96
683.904	5101.15
684.094	5150.3
684.284	5260.89
684.474	5217.88
684.664	5303.9
684.854	5248.6
685.044	5338.71
685.234	5221.98
685.424	5248.6
685.614	5310.04
685.804	5273.18
685.994	5303.9
686.184	5389.91
686.374	5160.54
686.564	5289.56
686.753	5314.14
686.943	5279.32
687.133	5148.25
687.323	5215.84
687.513	5150.3
687.702	5103.2
687.892	5150.3
688.082	5133.92
688.272	5232.22
688.461	5078.62
688.651	5183.07
688.841	5101.15
689.03	5043.81
689.22	4978.27
689.41	5011.04
689.599	5011.04
689.789	5095
689.979	5183.07
690.168	4931.17
690.358	4789.86
690.547	4970.08
690.737	5021.28
690.926	4906.59
691.116	4830.82
691.305	4867.68
691.495	4898.4
691.684	4769.38
691.874	4628.07
692.063	4736.61
692.252	4761.19
692.442	4679.27
692.631	4642.4
692.82	4712.03
693.01	4607.59
693.199	4650.6
693.388	4615.78
693.578	4501.09
693.767	4640.36
693.956	4507.24
694.146	4595.3
694.335	4425.32
694.524	4544.1
694.713	4535.91
694.902	4478.57
695.092	4484.71
695.281	4531.81
695.47	4623.97
695.659	4335.21
695.848	4548.2
696.037	4380.26
696.226	4372.07
696.415	4355.69
696.604	4421.22
696.793	4333.16
696.982	4408.94
697.171	4486.76
697.36	4410.98
697.549	4327.02
697.738	4345.45
697.927	4271.72
698.116	4462.18
698.305	4355.69
698.494	4400.74
698.683	4349.54
698.872	4525.67
699.061	4378.22
699.25	4249.19
699.438	4480.61
699.627	4261.48
699.816	4419.18
700.005	4314.73
700.193	4415.08
700.382	4453.99
700.571	4335.21
700.76	4468.33
700.948	4503.14
701.137	4462.18
701.326	4476.52
701.514	4515.43
701.703	4429.42
701.892	4429.42
702.08	4443.75
702.269	4472.42
702.457	4509.29
702.646	4523.62
702.834	4451.94
703.023	4576.87
703.212	4531.81
703.4	4648.55
703.589	4519.53
703.777	4617.83
703.965	4499.05
704.154	4691.56
704.342	4720.23
704.531	4740.71
704.719	4517.48
704.907	4607.59
705.096	4599.4
705.284	4503.14
705.472	4677.22
705.661	4636.26
705.849	4656.74
706.037	4820.58
706.226	4746.85
706.414	4683.36
706.602	4847.2
706.79	4945.5
706.979	4712.03
707.167	4912.74
707.355	4765.28
707.543	4830.82
707.731	4798.05
707.919	4931.17
708.107	4695.65
708.296	4779.62
708.484	4626.02
708.672	5035.61
708.86	4824.67
709.048	4998.75
709.236	4886.11
709.424	4986.46
709.612	4949.6
709.8	5090.91
709.988	4929.12
710.176	5135.96
710.364	5099.1
710.551	5117.53
710.739	5029.47
710.927	5150.3
711.115	5174.88
711.303	5166.68
711.491	5150.3
711.679	5109.34
711.866	5238.36
712.054	5340.76
712.242	5115.48
712.43	5389.91
712.617	5289.56
712.805	5465.69
712.993	5387.86
713.181	5236.31
713.368	5301.85
713.556	5510.74
713.744	5449.3
713.931	5314.14
714.119	5482.07
714.306	5572.18
714.494	5631.57
714.682	5525.08
714.869	5451.35
715.057	5621.33
715.244	5555.8
715.432	5617.24
715.619	5848.66
715.807	5584.47
715.994	5611.09
716.182	5709.4
716.369	5776.98
716.556	5928.53
716.744	5715.54
716.931	5768.79
717.119	5867.09
717.306	5834.32
717.493	5852.75
717.681	6037.07
717.868	5967.44
718.055	5824.08
718.242	6014.54
718.43	5922.38
718.617	5938.77
718.804	6035.02
718.991	6032.97
719.179	6205
719.366	6067.79
719.553	6366.79
719.74	6106.7
719.927	6213.2
720.114	6256.2
720.301	6131.28
720.488	6196.81
720.676	6346.31
720.863	6147.66
721.05	6100.56
721.237	6383.18
721.424	6225.48
721.611	6420.04
721.798	6372.94
721.985	6207.05
722.172	6411.85
722.358	6366.79
722.545	6403.66
722.732	6194.76
722.919	6442.57
723.106	6368.84
723.293	6461
723.48	6538.82
723.667	6325.83
723.853	6477.38
724.04	6721.09
724.227	6692.42
724.414	6553.16
724.6	6696.52
724.787	6534.73
724.974	6721.09
725.161	6653.51
725.347	6637.13
725.534	6704.71
725.72	6661.7
725.907	6592.07
726.094	6721.09
726.28	6805.06
726.467	6592.07
726.653	6909.51
726.84	6676.04
727.027	6700.61
727.213	6602.31
727.4	6907.46
727.586	6710.85
727.773	6768.2
727.959	6878.79
728.145	7044.67
728.332	6874.69
728.518	6749.76
728.705	6897.22
728.891	6835.78
729.077	6983.23
729.264	6729.28
729.45	6901.31
729.636	7097.92
729.823	6940.22
730.009	7069.25
730.195	7081.53
730.382	7118.4
730.568	7210.56
730.754	7009.86
730.94	7181.89
731.126	7061.05
731.313	7196.22
731.499	7001.66
731.685	7044.67
731.871	7149.12
732.057	7243.32
732.243	7097.92
732.429	7003.71
732.615	7198.27
732.801	7286.33
732.987	7147.07
733.173	7200.32
733.359	7312.96
733.545	7247.42
733.731	7247.42
733.917	7220.8
734.103	7181.89
734.289	7257.66
734.475	7220.8
734.661	7517.75
734.847	7292.48
735.033	7095.87
735.219	7321.15
735.404	7044.67
735.59	7390.78
735.776	7276.09
735.962	7319.1
736.148	7390.78
736.333	7220.8
736.519	7163.45
736.705	7312.96
736.89	7259.71
737.076	7226.94
737.262	7212.6
737.447	7149.12
737.633	7202.36
737.819	7241.28
738.004	7136.83
738.19	7104.06
738.375	7104.06
738.561	7325.24
738.747	7269.95
738.932	7237.18
739.118	7200.32
739.303	7169.6
739.489	7085.63
739.674	7231.04
739.859	7022.14
740.045	7153.21
740.23	7261.76
740.416	6975.04
740.601	7116.35
740.786	6997.57
740.972	6968.9
741.157	7048.77
741.342	7052.86
741.528	6850.11
741.713	7081.53
741.898	6915.65
742.084	7013.95
742.269	6827.59
742.454	7091.77
742.639	6760
742.824	6794.82
743.01	6891.07
743.195	6753.86
743.38	6676.04
743.565	6661.7
743.75	6790.72
743.935	6729.28
744.12	6846.02
744.305	6606.41
744.49	6688.32
744.675	6514.25
744.86	6508.1
745.045	6405.7
745.23	6604.36
745.415	6391.37
745.6	6639.17
745.785	6334.03
745.97	6428.23
746.155	6395.47
746.34	6485.58
746.525	6456.9
746.71	6280.78
746.895	6381.13
747.079	6198.86
747.264	6075.98
747.449	6258.25
747.634	5977.68
747.819	6149.71
748.003	6000.21
748.188	5924.43
748.373	5910.1
748.557	6153.8
748.742	5854.8
748.927	6037.07
749.111	5822.03
749.296	5846.61
749.481	5774.93
749.665	5752.4
749.85	5613.14
750.034	5674.58
750.219	5604.95
750.404	5559.89
750.588	5338.71
750.773	5396.06
750.957	5449.3
751.141	5396.06
751.326	5183.07
751.51	5267.03
751.695	5269.08
751.879	5076.57
752.064	5123.68
752.248	5092.96
752.432	5170.78
752.617	5164.64
752.801	5031.52
752.985	5062.24
753.17	4978.27
753.354	4918.88
753.538	4953.7
753.722	4863.58
753.907	4773.47
754.091	4789.86
754.275	4666.98
754.459	4703.84
754.643	4482.66
754.828	4632.16
755.012	4558.44
755.196	4566.63
755.38	4480.61
755.564	4525.67
755.748	4443.75
755.932	4501.09
756.116	4427.37
756.3	4306.54
756.484	4212.33
756.668	4413.03
756.852	4132.46
757.036	4312.68
757.22	4085.36
757.404	4173.42
757.588	4046.44
757.772	4234.86
757.956	4066.92
758.14	4173.42
758.323	3956.33
758.507	3970.67
758.691	3868.27
758.875	4028.01
759.059	3898.99
759.242	3911.28
759.426	3753.59
759.61	3761.78
759.794	3751.54
759.977	3745.39
760.161	3872.37
760.345	3776.11
760.528	3700.34
760.712	3761.78
760.895	3538.55
761.079	3681.91
761.263	3546.74
761.446	3622.52
761.63	3526.26
761.813	3647.09
761.997	3513.97
762.18	3454.58
762.364	3626.61
762.547	3389.05
762.731	3364.47
762.914	3524.21
763.098	3454.58
763.281	3389.05
763.464	3350.14
763.648	3401.33
763.831	3284.6
764.015	3300.98
764.198	3264.12
764.381	3249.79
764.564	3221.11
764.748	3335.8
764.931	3176.06
765.114	3100.28
765.297	3065.47
765.481	3135.1
765.664	3184.25
765.847	3063.42
766.03	3090.04
766.213	3229.31
766.397	3118.72
766.58	3012.22
766.763	2956.93
766.946	2891.39
767.129	2967.17
767.312	2991.74
767.495	3044.99
767.678	2834.05
767.861	3063.42
768.044	2971.26
768.227	2840.19
768.41	2860.67
768.593	2930.3
768.776	2752.13
768.959	2897.53
769.142	2764.42
769.324	2795.14
769.507	2750.08
769.69	2735.74
769.873	2741.89
770.056	2815.62
770.239	2702.98
770.421	2758.27
770.604	2725.51
770.787	2649.73
770.97	2659.97
771.152	2602.63
771.335	2668.16
771.518	2608.77
771.7	2492.04
771.883	2551.43
772.066	2487.94
772.248	2543.24
772.431	2487.94
772.613	2475.65
772.796	2578.05
772.978	2379.4
773.161	2430.6
773.343	2508.42
773.526	2340.49
773.708	2403.97
773.891	2375.3
774.073	2258.57
774.256	2285.19
774.438	2340.49
774.621	2293.38
774.803	2305.67
774.985	2311.82
775.168	2279.05
775.35	2274.95
775.532	2137.74
775.715	2197.13
775.897	2092.68
776.079	2258.57
776.261	2135.69
776.444	2064.01
776.626	1984.14
776.808	2150.03
776.99	2027.15
777.173	2053.77
777.355	2000.52
777.537	1912.46
777.719	1889.93
777.901	1851.02
778.083	1937.04
778.265	1910.41
778.447	1920.65
778.629	1939.09
778.811	1988.24
778.993	1941.13
779.175	1898.13
779.357	1822.35
779.539	1840.78
779.721	1742.48
779.903	1801.87
780.085	1752.72
780.267	1756.82
780.449	1801.87
780.631	1752.72
780.812	1822.35
780.994	1738.38
781.176	1545.88
781.358	1613.46
781.54	1560.21
781.721	1707.66
781.903	1570.45
782.085	1552.02
782.267	1539.73
782.448	1490.58
782.63	1638.03
782.812	1470.1
782.993	1533.59
783.175	1535.64
783.357	1566.35
783.538	1513.11
783.72	1486.48
783.901	1414.81
784.083	1545.88
784.264	1449.62
784.446	1459.86
784.627	1332.89
784.809	1365.65
784.99	1265.3
785.172	1314.45
785.353	1394.33
785.535	1365.65
785.716	1234.58
785.897	1300.12
786.079	1351.32
786.26	1353.37
786.441	1201.82
786.623	1293.97
786.804	1291.93
786.985	1259.16
787.167	1246.87
787.348	1132.19
787.529	1181.34
787.71	1324.69
787.891	1181.34
788.073	1140.38
788.254	1060.51
788.435	1164.95
788.616	1150.62
788.797	1107.61
788.978	1087.13
789.159	1148.57
789.34	1156.76
789.522	1037.98
789.703	1099.42
789.884	1040.03
790.065	994.97
790.246	1078.94
790.427	992.92
790.607	1066.65
790.788	1042.07
790.969	1070.75
791.15	1025.69
791.331	974.49
791.512	947.87
791.693	976.54
791.874	982.68
792.054	1035.93
792.235	1078.94
792.416	931.48
792.597	972.44
792.778	972.44
792.958	1007.26
793.139	945.82
793.32	943.77
793.5	931.48
793.681	915.1
793.862	865.95
794.042	915.1
794.223	835.23
794.404	802.46
794.584	931.48
794.765	874.14
794.945	870.05
795.126	882.33
795.306	921.24
795.487	898.72
795.667	859.81
795.848	855.71
796.028	761.5
796.209	820.89
796.389	800.41
796.57	738.98
796.75	812.7
796.93	816.8
797.111	784.03
797.291	857.76
797.471	824.99
797.652	718.5
797.832	710.3
798.012	872.09
798.192	773.79
798.373	642.72
798.553	777.89
798.733	839.33
798.913	728.74
799.093	794.27
799.274	685.73
799.454	716.45
799.634	730.78
799.814	745.12
799.994	687.78
800.174	773.79
800.354	726.69
800.534	644.77
800.714	695.97
800.894	700.06
801.074	628.39
801.254	640.67
801.434	677.54
801.614	636.58
801.794	530.08
801.974	1302.17
802.154	644.77
802.334	691.87
802.514	601.76
802.693	677.54
802.873	607.91
803.053	702.11
803.233	616.1
803.413	599.71
803.592	558.75
803.772	513.7
803.952	655.01
804.131	571.04
804.311	620.19
804.491	657.06
804.67	568.99
804.85	558.75
805.03	716.45
805.209	579.23
805.389	583.33
805.568	568.99
805.748	542.37
805.928	575.14
806.107	659.1
806.287	562.85
806.466	640.67
806.646	534.18
806.825	480.93
807.004	568.99
807.184	566.95
807.363	552.61
807.543	538.27
807.722	476.84
807.901	599.71
808.081	622.24
808.26	487.08
808.439	485.03
808.619	476.84
808.798	480.93
808.977	554.66
809.156	517.79
809.336	544.42
809.515	530.08
809.694	485.03
809.873	462.5
810.052	509.6
810.231	624.29
810.411	427.68
810.59	460.45
810.769	542.37
810.948	427.68
811.127	462.5
811.306	435.88
811.485	394.92
811.664	497.32
811.843	466.6
812.022	411.3
812.201	454.31
812.38	485.03
812.559	427.68
812.737	450.21
812.916	351.91
813.095	458.4
813.274	464.55
813.453	366.25
813.632	464.55
813.811	530.08
813.989	390.82
814.168	546.47
814.347	435.88
814.526	437.92
814.704	505.51
814.883	415.4
815.062	421.54
815.24	431.78
815.419	464.55
815.598	421.54
815.776	386.72
815.955	423.59
816.133	353.96
816.312	403.11
816.49	317.09
816.669	390.82
816.847	411.3
817.026	431.78
817.204	396.96
817.383	347.81
817.561	423.59
817.74	394.92
817.918	313
818.097	298.66
818.275	315.05
818.453	366.25
818.632	356.01
818.81	370.34
818.988	231.08
819.167	349.86
819.345	341.67
819.523	390.82
819.701	399.01
819.879	335.53
820.058	308.9
820.236	356.01
820.414	360.1
820.592	296.61
820.77	341.67
820.948	329.38
821.127	382.63
821.305	374.44
821.483	325.29
821.661	341.67
821.839	401.06
822.017	304.81
822.195	251.56
822.373	386.72
822.551	308.9
822.729	321.19
822.907	292.52
823.085	274.09
823.262	358.05
823.44	374.44
823.618	294.57
823.796	239.27
823.974	243.37
824.152	282.28
824.329	284.33
824.507	267.94
824.685	308.9
824.863	292.52
825.04	212.65
825.218	304.81
825.396	226.98
825.574	235.18
825.751	235.18
825.929	317.09
826.107	145.06
826.284	237.22
826.462	306.85
826.639	188.07
826.817	265.89
826.994	249.51
827.172	202.41
827.349	243.37
827.527	302.76
827.704	196.26
827.882	286.37
828.059	282.28
828.237	169.64
828.414	226.98
828.591	143.02
828.769	257.7
828.946	218.79
829.124	280.23
829.301	263.85
829.478	241.32
829.655	276.13
829.833	214.7
830.01	190.12
830.187	177.83
830.364	243.37
830.542	181.93
830.719	267.94
830.896	257.7
831.073	210.6
831.25	198.31
831.427	247.46
831.604	231.08
831.782	186.02
831.959	265.89
832.136	171.69
832.313	229.03
832.49	186.02
832.667	216.74
832.844	161.45
833.021	200.36
833.198	181.93
833.374	214.7
833.551	208.55
833.728	214.7
833.905	249.51
834.082	147.11
834.259	173.74
834.436	214.7
834.612	126.63
834.789	222.89
834.966	200.36
835.143	194.22
835.319	126.63
835.496	247.46
835.673	91.82
835.85	292.52
836.026	190.12
836.203	151.21
836.38	183.98
836.556	173.74
836.733	175.78
836.909	226.98
837.086	145.06
837.262	134.82
837.439	143.02
837.616	145.06
837.792	91.82
837.968	194.22
838.145	136.87
838.321	116.39
838.498	190.12
838.674	169.64
838.851	157.35
839.027	136.87
839.203	122.54
839.38	196.26
839.556	136.87
839.732	124.58
839.909	65.19
840.085	179.88
840.261	151.21
840.437	97.96
840.614	114.34
840.79	179.88
840.966	153.26
841.142	188.07
841.318	190.12
841.494	126.63
841.671	118.44
841.847	79.53
842.023	104.11
842.199	179.88
842.375	186.02
842.551	102.06
842.727	120.49
842.903	173.74
843.079	102.06
843.255	102.06
843.431	120.49
843.607	147.11
843.783	11.95
843.959	104.11
844.134	95.91
844.31	136.87
844.486	120.49
844.662	153.26
844.838	112.3
845.013	167.59
845.189	161.45
845.365	13.99
845.541	71.34
845.716	136.87
845.892	167.59
846.068	79.53
846.244	93.87
846.419	114.34
846.595	91.82
846.77	124.58
846.946	104.11
847.122	38.57
847.297	73.39
847.473	212.65
847.648	50.86
847.824	169.64
847.999	26.28
848.175	145.06
848.35	157.35
848.526	151.21
848.701	120.49
848.876	95.91
849.052	77.48
849.227	75.43
849.403	97.96
849.578	159.4
849.753	91.82
849.929	67.24
850.104	22.19
850.279	85.67
850.454	67.24
850.63	120.49
850.805	67.24
850.98	16.04
851.155	102.06
851.33	134.82
851.505	42.67
851.681	54.95
851.856	91.82
852.031	63.15
852.206	130.73
852.381	7.85
852.556	48.81
852.731	20.14
852.906	38.57
853.081	52.91
853.256	118.44
853.431	104.11
853.606	63.15
853.781	54.95
853.956	-20.82
854.131	95.91
854.305	93.87
854.48	116.39
854.655	-51.54
854.83	75.43
855.005	95.91
855.18	97.96
855.354	46.76
855.529	93.87
855.704	108.2
855.879	120.49
856.053	-65.88
856.228	83.63
856.403	71.34
856.577	75.43
856.752	22.19
856.926	11.95
857.101	120.49
857.276	-43.35
857.45	54.95
857.625	71.34
857.799	108.2
857.974	7.85
858.148	18.09
858.323	102.06
858.497	59.05
858.672	42.67
858.846	11.95
859.02	9.9
859.195	1.71
859.369	61.1
859.543	38.57
859.718	71.34
859.892	44.71
860.066	61.1
860.241	11.95
860.415	1.71
860.589	65.19
860.763	36.52
860.938	-6.49
861.112	110.25
861.286	18.09
861.46	67.24
861.634	22.19
861.808	54.95
861.982	54.95
862.157	44.71
862.331	13.99
862.505	50.86
862.679	-6.49
862.853	13.99
863.027	61.1
863.201	59.05
863.375	-20.82
863.549	52.91
863.722	28.33
863.896	32.43
864.07	13.99
864.244	-2.39
864.418	24.23
864.592	81.58
864.766	24.23
864.939	13.99
865.113	-2.39
865.287	63.15
865.461	-2.39
865.634	59.05
865.808	42.67
865.982	61.1
866.156	3.75
866.329	-65.88
866.503	-2.39
866.676	7.85
866.85	-51.54
867.024	-100.69
867.197	44.71
867.371	112.3
867.544	-16.73
867.718	3.75
867.891	89.77
868.065	-0.34
868.238	22.19
868.412	95.91
868.585	75.43
868.759	-29.01
868.932	20.14
869.105	-65.88
869.279	-29.01
869.452	-39.25
869.625	3.75
869.799	52.91
869.972	54.95
870.145	-4.44
870.319	104.11
870.492	57
870.665	36.52
870.838	71.34
871.011	-78.16
871.185	-2.39
871.358	44.71
871.531	5.8
871.704	24.23
871.877	67.24
872.05	-84.31
872.223	-0.34
872.396	77.48
872.569	36.52
872.742	-12.63
872.915	1.71
873.088	50.86
873.261	5.8
873.434	87.72
873.607	-6.49
873.78	-29.01
873.953	20.14
874.126	1.71
874.299	-76.12
874.471	22.19
874.644	-20.82
874.817	36.52
874.99	59.05
875.163	-16.73
875.335	77.48
875.508	16.04
875.681	71.34
875.853	1.71
876.026	32.43
876.199	-18.77
876.371	32.43
876.544	-18.77
876.717	16.04
876.889	-26.96
877.062	30.38
877.234	-43.35
877.407	-4.44
877.579	-24.92
877.752	81.58
877.924	30.38
878.097	16.04
878.269	-14.68
878.442	18.09
878.614	91.82
878.786	-22.87
878.959	-16.73
879.131	-10.58
879.303	-8.53
879.476	-45.4
879.648	-18.77
879.82	42.67
879.993	-35.16
880.165	38.57
880.337	-53.59
880.509	30.38
880.681	-10.58
880.854	-6.49
881.026	28.33
881.198	81.58
881.37	32.43
881.542	-22.87
881.714	-35.16
881.886	-59.73
882.058	1.71
882.23	-72.02
882.402	11.95
882.574	5.8
882.746	3.75
882.918	-0.34
883.09	44.71
883.262	-69.97
883.434	28.33
883.606	-37.2
883.778	59.05
883.95	50.86
884.122	-16.73
884.293	-51.54
884.465	-20.82
884.637	-2.39
884.809	-39.25
884.98	83.63
885.152	42.67
885.324	104.11
885.496	18.09
885.667	-24.92
885.839	-41.3
886.011	71.34
886.182	-2.39
886.354	106.15
886.525	7.85
886.697	61.1
886.869	-24.92
887.04	-43.35
887.212	42.67
887.383	46.76
887.555	-26.96
887.726	-31.06
887.897	-18.77
888.069	30.38
888.24	71.34
888.412	-67.92
888.583	22.19
888.754	-18.77
888.926	-76.12
889.097	5.8
889.268	-6.49
889.44	13.99
889.611	-67.92
889.782	-129.36
889.953	18.09
890.125	-4.44
890.296	11.95
890.467	30.38
890.638	-76.12
890.809	46.76
890.98	16.04
891.151	61.1
891.323	38.57
891.494	-33.11
891.665	18.09
891.836	7.85
892.007	24.23
892.178	-10.58
892.349	71.34
892.52	11.95
892.691	13.99
892.862	-26.96
893.032	-45.4
893.203	-53.59
893.374	-10.58
893.545	85.67
893.716	11.95
893.887	-0.34
894.057	44.71
894.228	-18.77
894.399	-16.73
894.57	5.8
894.74	-45.4
894.911	-20.82
895.082	-51.54
895.253	-0.34
895.423	-35.16
895.594	13.99
895.764	9.9
895.935	42.67
896.106	-41.3
896.276	-12.63
896.447	9.9
896.617	-37.2
896.788	57
896.958	54.95
897.129	-117.08
897.299	11.95
897.47	97.96
897.64	-18.77
897.81	-18.77
897.981	-31.06
898.151	-61.78
898.322	-4.44
898.492	71.34
898.662	-55.64
898.832	-18.77
899.003	13.99
899.173	-8.53
899.343	40.62
899.513	-78.16
