Data from USB4F104151__47__11-30-30-162.txt Node

Date: Fri Mar 14 11:30:30 EDT 2025
User: louis
Spectrometer: USB4F10415
Trigger mode: 4
Integration Time (sec): 5.000000E-2
Scans to average: 1
Electric dark correction enabled: true
Nonlinearity correction enabled: false
Boxcar width: 0
XAxis mode: Wavelengths
Number of Pixels in Spectrum: 3648
>>>>>Begin Spectral Data<<<<<
178.204	-125.1
178.424	-125.1
178.644	-125.1
178.864	-127.14
179.084	-110.76
179.304	3.93
179.524	-53.42
179.744	-49.32
179.964	-22.7
180.184	26.45
180.404	10.07
180.624	-4.27
180.844	69.46
181.064	-28.84
181.283	85.84
181.503	-55.47
181.723	18.26
181.943	-4.27
182.163	114.52
182.383	-37.03
182.602	42.84
182.822	34.64
183.042	3.93
183.262	20.31
183.482	-57.51
183.701	51.03
183.921	-4.27
184.141	71.51
184.361	-43.18
184.58	-4.27
184.8	42.84
185.02	3.93
185.239	69.46
185.459	22.36
185.679	12.12
185.898	26.45
186.118	59.22
186.338	77.65
186.557	85.84
186.777	-63.66
186.997	20.31
187.216	-53.42
187.436	110.42
187.655	63.32
187.875	114.52
188.095	-32.94
188.314	75.6
188.534	108.37
188.753	-69.8
188.973	53.08
189.192	48.98
189.412	65.36
189.631	8.02
189.851	53.08
190.07	34.64
190.29	8.02
190.509	81.75
190.729	18.26
190.948	44.88
191.168	173.91
191.387	91.99
191.607	-30.89
191.826	-30.89
192.045	20.31
192.265	8.02
192.484	42.84
192.704	69.46
192.923	10.07
193.142	79.7
193.362	116.56
193.581	71.51
193.8	28.5
194.02	-4.27
194.239	26.45
194.458	94.04
194.678	8.02
194.897	36.69
195.116	12.12
195.335	34.64
195.555	28.5
195.774	85.84
195.993	34.64
196.212	20.31
196.432	5.97
196.651	-26.79
196.87	32.6
197.089	73.56
197.308	102.23
197.528	-18.6
197.747	-47.27
197.966	69.46
198.185	118.61
198.404	-20.65
198.623	-8.36
198.842	28.5
199.062	5.97
199.281	126.8
199.5	24.4
199.719	-45.23
199.938	81.75
200.157	63.32
200.376	91.99
200.595	51.03
200.814	57.17
201.033	-28.84
201.252	53.08
201.471	10.07
201.69	87.89
201.909	89.94
202.128	67.41
202.347	73.56
202.566	-77.99
202.785	-49.32
203.004	-47.27
203.223	126.8
203.442	3.93
203.661	16.21
203.879	12.12
204.098	42.84
204.317	-39.08
204.536	34.64
204.755	-4.27
204.974	18.26
205.193	55.12
205.411	198.48
205.63	77.65
205.849	28.5
206.068	53.08
206.287	-24.75
206.505	44.88
206.724	51.03
206.943	65.36
207.162	91.99
207.381	44.88
207.599	135
207.818	44.88
208.037	-2.22
208.255	57.17
208.474	-6.31
208.693	91.99
208.911	38.74
209.13	85.84
209.349	48.98
209.567	53.08
209.786	73.56
210.005	81.75
210.223	40.79
210.442	38.74
210.661	20.31
210.879	53.08
211.098	3.93
211.316	81.75
211.535	65.36
211.753	3.93
211.972	38.74
212.191	67.41
212.409	42.84
212.628	57.17
212.846	38.74
213.065	65.36
213.283	42.84
213.502	36.69
213.72	-34.99
213.938	34.64
214.157	48.98
214.375	-28.84
214.594	-18.6
214.812	40.79
215.031	48.98
215.249	71.51
215.467	42.84
215.686	38.74
215.904	3.93
216.122	3.93
216.341	40.79
216.559	22.36
216.778	28.5
216.996	106.32
217.214	24.4
217.432	36.69
217.651	-6.31
217.869	8.02
218.087	-10.41
218.306	5.97
218.524	67.41
218.742	-55.47
218.96	44.88
219.179	-77.99
219.397	-10.41
219.615	71.51
219.833	20.31
220.051	-24.75
220.27	42.84
220.488	55.12
220.706	44.88
220.924	1.88
221.142	67.41
221.36	28.5
221.578	61.27
221.796	100.18
222.015	16.21
222.233	-26.79
222.451	10.07
222.669	-51.37
222.887	51.03
223.105	-80.04
223.323	10.07
223.541	-6.31
223.759	53.08
223.977	-2.22
224.195	-67.75
224.413	69.46
224.631	36.69
224.849	51.03
225.067	73.56
225.285	-22.7
225.503	26.45
225.721	-80.04
225.939	98.13
226.157	-4.27
226.375	67.41
226.592	20.31
226.81	-32.94
227.028	20.31
227.246	108.37
227.464	44.88
227.682	30.55
227.9	61.27
228.117	26.45
228.335	81.75
228.553	-14.51
228.771	61.27
228.989	91.99
229.206	-12.46
229.424	51.03
229.642	-24.75
229.86	16.21
230.077	32.6
230.295	30.55
230.513	85.84
230.731	44.88
230.948	104.28
231.166	57.17
231.384	-30.89
231.601	-65.71
231.819	67.41
232.037	-10.41
232.254	-4.27
232.472	-26.79
232.689	28.5
232.907	1.88
233.125	18.26
233.342	-67.75
233.56	42.84
233.777	-16.55
233.995	-77.99
234.213	79.7
234.43	16.21
234.648	36.69
234.865	89.94
235.083	98.13
235.3	12.12
235.518	28.5
235.735	102.23
235.953	81.75
236.17	36.69
236.388	-22.7
236.605	12.12
236.822	81.75
237.04	36.69
237.257	106.32
237.475	44.88
237.692	-30.89
237.909	-0.17
238.127	32.6
238.344	28.5
238.562	44.88
238.779	-77.99
238.996	40.79
239.214	-49.32
239.431	79.7
239.648	-0.17
239.865	65.36
240.083	79.7
240.3	5.97
240.517	57.17
240.735	73.56
240.952	51.03
241.169	61.27
241.386	34.64
241.603	3.93
241.821	-2.22
242.038	3.93
242.255	53.08
242.472	20.31
242.689	51.03
242.907	53.08
243.124	5.97
243.341	57.17
243.558	57.17
243.775	-22.7
243.992	-14.51
244.209	32.6
244.426	102.23
244.643	65.36
244.86	16.21
245.078	-2.22
245.295	67.41
245.512	-84.14
245.729	-16.55
245.946	57.17
246.163	-10.41
246.38	22.36
246.597	85.84
246.814	12.12
247.031	30.55
247.248	16.21
247.464	-10.41
247.681	67.41
247.898	34.64
248.115	32.6
248.332	44.88
248.549	12.12
248.766	77.65
248.983	100.18
249.2	53.08
249.417	132.95
249.633	-10.41
249.85	75.6
250.067	77.65
250.284	44.88
250.501	61.27
250.717	34.64
250.934	20.31
251.151	61.27
251.368	3.93
251.585	51.03
251.801	10.07
252.018	-22.7
252.235	130.9
252.451	-24.75
252.668	44.88
252.885	12.12
253.102	36.69
253.318	-37.03
253.535	-4.27
253.752	24.4
253.968	1.88
254.185	53.08
254.401	114.52
254.618	8.02
254.835	46.93
255.051	-6.31
255.268	22.36
255.484	-12.46
255.701	55.12
255.917	51.03
256.134	-24.75
256.351	-12.46
256.567	-0.17
256.784	85.84
257	10.07
257.217	18.26
257.433	24.4
257.65	-22.7
257.866	28.5
258.082	-32.94
258.299	1.88
258.515	30.55
258.732	12.12
258.948	-22.7
259.165	20.31
259.381	-14.51
259.597	65.36
259.814	22.36
260.03	-30.89
260.246	20.31
260.463	85.84
260.679	48.98
260.895	75.6
261.112	34.64
261.328	28.5
261.544	24.4
261.761	94.04
261.977	28.5
262.193	3.93
262.409	94.04
262.626	40.79
262.842	20.31
263.058	-0.17
263.274	16.21
263.49	34.64
263.707	16.21
263.923	-6.31
264.139	3.93
264.355	8.02
264.571	-0.17
264.787	110.42
265.004	102.23
265.22	1.88
265.436	12.12
265.652	36.69
265.868	8.02
266.084	-4.27
266.3	59.22
266.516	59.22
266.732	20.31
266.948	14.17
267.164	24.4
267.38	81.75
267.596	32.6
267.812	85.84
268.028	34.64
268.244	-22.7
268.46	10.07
268.676	30.55
268.892	53.08
269.108	10.07
269.324	59.22
269.54	44.88
269.756	143.19
269.972	36.69
270.188	57.17
270.403	10.07
270.619	-4.27
270.835	42.84
271.051	-16.55
271.267	1.88
271.483	-6.31
271.698	42.84
271.914	28.5
272.13	32.6
272.346	65.36
272.562	20.31
272.777	73.56
272.993	12.12
273.209	-26.79
273.425	69.46
273.64	26.45
273.856	5.97
274.072	-22.7
274.287	44.88
274.503	77.65
274.719	55.12
274.934	8.02
275.15	26.45
275.366	28.5
275.581	-43.18
275.797	-0.17
276.012	44.88
276.228	1.88
276.444	53.08
276.659	40.79
276.875	-18.6
277.09	48.98
277.306	61.27
277.521	77.65
277.737	48.98
277.952	69.46
278.168	38.74
278.383	20.31
278.599	79.7
278.814	53.08
279.03	81.75
279.245	-2.22
279.461	-4.27
279.676	75.6
279.892	26.45
280.107	-2.22
280.322	-30.89
280.538	44.88
280.753	46.93
280.969	73.56
281.184	22.36
281.399	61.27
281.615	-4.27
281.83	20.31
282.045	12.12
282.26	28.5
282.476	32.6
282.691	42.84
282.906	48.98
283.122	98.13
283.337	63.32
283.552	-14.51
283.767	32.6
283.983	12.12
284.198	67.41
284.413	-14.51
284.628	-2.22
284.843	57.17
285.058	102.23
285.274	63.32
285.489	-12.46
285.704	36.69
285.919	8.02
286.134	-8.36
286.349	36.69
286.564	-53.42
286.779	57.17
286.995	12.12
287.21	69.46
287.425	77.65
287.64	28.5
287.855	26.45
288.07	-39.08
288.285	94.04
288.5	12.12
288.715	48.98
288.93	-37.03
289.145	44.88
289.36	26.45
289.575	77.65
289.79	81.75
290.004	-8.36
290.219	77.65
290.434	65.36
290.649	-12.46
290.864	20.31
291.079	8.02
291.294	28.5
291.509	12.12
291.724	-8.36
291.938	20.31
292.153	42.84
292.368	-18.6
292.583	-61.61
292.798	20.31
293.012	110.42
293.227	83.8
293.442	-0.17
293.657	81.75
293.871	98.13
294.086	-24.75
294.301	108.37
294.516	71.51
294.73	18.26
294.945	-24.75
295.16	36.69
295.374	40.79
295.589	102.23
295.804	10.07
296.018	110.42
296.233	69.46
296.447	44.88
296.662	44.88
296.877	42.84
297.091	48.98
297.306	91.99
297.52	73.56
297.735	10.07
297.949	53.08
298.164	102.23
298.378	5.97
298.593	24.4
298.807	32.6
299.022	42.84
299.236	36.69
299.451	53.08
299.665	100.18
299.88	5.97
300.094	-47.27
300.309	8.02
300.523	-28.84
300.737	20.31
300.952	8.02
301.166	44.88
301.381	61.27
301.595	28.5
301.809	34.64
302.024	-61.61
302.238	-0.17
302.452	48.98
302.667	53.08
302.881	55.12
303.095	77.65
303.309	-12.46
303.524	69.46
303.738	30.55
303.952	3.93
304.166	-28.84
304.381	-32.94
304.595	89.94
304.809	-45.23
305.023	-61.61
305.237	-30.89
305.452	18.26
305.666	42.84
305.88	40.79
306.094	118.61
306.308	12.12
306.522	-22.7
306.736	81.75
306.95	-2.22
307.164	-22.7
307.379	67.41
307.593	79.7
307.807	81.75
308.021	36.69
308.235	65.36
308.449	-6.31
308.663	30.55
308.877	53.08
309.091	83.8
309.305	24.4
309.519	-24.75
309.733	77.65
309.947	42.84
310.161	98.13
310.374	51.03
310.588	53.08
310.802	40.79
311.016	34.64
311.23	-24.75
311.444	46.93
311.658	44.88
311.872	61.27
312.085	24.4
312.299	65.36
312.513	83.8
312.727	-12.46
312.941	57.17
313.154	18.26
313.368	40.79
313.582	-14.51
313.796	-16.55
314.009	3.93
314.223	-39.08
314.437	85.84
314.651	69.46
314.864	34.64
315.078	-69.8
315.292	38.74
315.505	-73.9
315.719	-30.89
315.933	85.84
316.146	-37.03
316.36	8.02
316.573	114.52
316.787	36.69
317.001	63.32
317.214	-6.31
317.428	-10.41
317.641	-28.84
317.855	79.7
318.068	18.26
318.282	44.88
318.495	108.37
318.709	124.76
318.922	12.12
319.136	71.51
319.349	116.56
319.563	44.88
319.776	63.32
319.99	5.97
320.203	98.13
320.417	12.12
320.63	22.36
320.843	16.21
321.057	55.12
321.27	44.88
321.483	94.04
321.697	22.36
321.91	38.74
322.124	-24.75
322.337	44.88
322.55	10.07
322.763	36.69
322.977	-20.65
323.19	34.64
323.403	22.36
323.617	10.07
323.83	96.08
324.043	24.4
324.256	94.04
324.469	81.75
324.683	10.07
324.896	32.6
325.109	20.31
325.322	-28.84
325.535	5.97
325.748	132.95
325.962	24.4
326.175	-53.42
326.388	114.52
326.601	122.71
326.814	48.98
327.027	69.46
327.24	151.38
327.453	12.12
327.666	30.55
327.879	157.52
328.092	112.47
328.305	44.88
328.518	-8.36
328.731	20.31
328.944	-32.94
329.157	-2.22
329.37	65.36
329.583	116.56
329.796	53.08
330.009	-53.42
330.222	89.94
330.435	-16.55
330.648	28.5
330.861	22.36
331.073	94.04
331.286	73.56
331.499	26.45
331.712	-2.22
331.925	44.88
332.138	67.41
332.35	85.84
332.563	14.17
332.776	75.6
332.989	-10.41
333.202	79.7
333.414	16.21
333.627	10.07
333.84	26.45
334.053	83.8
334.265	1.88
334.478	28.5
334.691	-24.75
334.903	67.41
335.116	32.6
335.329	26.45
335.541	53.08
335.754	141.14
335.966	3.93
336.179	102.23
336.392	-4.27
336.604	10.07
336.817	12.12
337.029	-4.27
337.242	112.47
337.454	16.21
337.667	108.37
337.88	61.27
338.092	20.31
338.305	81.75
338.517	-4.27
338.729	24.4
338.942	83.8
339.154	-2.22
339.367	3.93
339.579	32.6
339.792	122.71
340.004	36.69
340.217	12.12
340.429	61.27
340.641	24.4
340.854	-16.55
341.066	-30.89
341.278	75.6
341.491	55.12
341.703	44.88
341.915	10.07
342.128	51.03
342.34	48.98
342.552	67.41
342.764	-8.36
342.977	28.5
343.189	34.64
343.401	14.17
343.613	32.6
343.826	77.65
344.038	-4.27
344.25	-10.41
344.462	26.45
344.674	-12.46
344.886	-28.84
345.099	18.26
345.311	65.36
345.523	81.75
345.735	8.02
345.947	81.75
346.159	94.04
346.371	53.08
346.583	24.4
346.795	67.41
347.007	26.45
347.219	18.26
347.431	-24.75
347.643	157.52
347.855	-2.22
348.067	143.19
348.279	-32.94
348.491	46.93
348.703	51.03
348.915	-32.94
349.127	28.5
349.339	63.32
349.551	-10.41
349.763	40.79
349.975	28.5
350.187	89.94
350.399	102.23
350.61	59.22
350.822	32.6
351.034	81.75
351.246	34.64
351.458	44.88
351.669	114.52
351.881	100.18
352.093	20.31
352.305	30.55
352.517	30.55
352.728	102.23
352.94	3.93
353.152	46.93
353.363	24.4
353.575	65.36
353.787	-0.17
353.999	3.93
354.21	75.6
354.422	40.79
354.633	3.93
354.845	28.5
355.057	28.5
355.268	67.41
355.48	53.08
355.692	24.4
355.903	40.79
356.115	28.5
356.326	18.26
356.538	124.76
356.749	12.12
356.961	77.65
357.172	-86.19
357.384	12.12
357.595	91.99
357.807	48.98
358.018	69.46
358.23	75.6
358.441	16.21
358.653	137.04
358.864	-6.31
359.075	-32.94
359.287	26.45
359.498	48.98
359.709	55.12
359.921	73.56
360.132	40.79
360.344	18.26
360.555	20.31
360.766	81.75
360.977	20.31
361.189	94.04
361.4	36.69
361.611	40.79
361.823	110.42
362.034	34.64
362.245	-12.46
362.456	-14.51
362.667	-22.7
362.879	44.88
363.09	32.6
363.301	59.22
363.512	79.7
363.723	135
363.935	51.03
364.146	94.04
364.357	20.31
364.568	63.32
364.779	10.07
364.99	53.08
365.201	14.17
365.412	57.17
365.623	51.03
365.834	22.36
366.045	53.08
366.256	28.5
366.467	28.5
366.678	57.17
366.889	67.41
367.1	83.8
367.311	10.07
367.522	-10.41
367.733	75.6
367.944	24.4
368.155	28.5
368.366	53.08
368.577	18.26
368.788	94.04
368.999	42.84
369.209	85.84
369.42	91.99
369.631	110.42
369.842	59.22
370.053	3.93
370.264	51.03
370.474	16.21
370.685	61.27
370.896	-53.42
371.107	65.36
371.317	61.27
371.528	32.6
371.739	3.93
371.95	116.56
372.16	61.27
372.371	-32.94
372.582	10.07
372.792	34.64
373.003	22.36
373.214	51.03
373.424	40.79
373.635	53.08
373.846	48.98
374.056	10.07
374.267	61.27
374.477	102.23
374.688	42.84
374.898	55.12
375.109	57.17
375.319	-47.27
375.53	87.89
375.74	-0.17
375.951	44.88
376.161	16.21
376.372	94.04
376.582	-14.51
376.793	24.4
377.003	24.4
377.214	44.88
377.424	102.23
377.635	108.37
377.845	-30.89
378.055	14.17
378.266	-16.55
378.476	-47.27
378.686	81.75
378.897	34.64
379.107	-20.65
379.317	77.65
379.528	-55.47
379.738	48.98
379.948	46.93
380.158	102.23
380.369	42.84
380.579	63.32
380.789	28.5
380.999	8.02
381.21	-6.31
381.42	151.38
381.63	-37.03
381.84	10.07
382.05	116.56
382.261	85.84
382.471	65.36
382.681	-69.8
382.891	104.28
383.101	118.61
383.311	-28.84
383.521	18.26
383.731	83.8
383.941	8.02
384.151	57.17
384.361	100.18
384.571	34.64
384.781	153.43
384.991	53.08
385.201	96.08
385.411	-4.27
385.621	12.12
385.831	42.84
386.041	1.88
386.251	-4.27
386.461	67.41
386.671	20.31
386.881	20.31
387.091	61.27
387.301	159.57
387.511	26.45
387.72	28.5
387.93	85.84
388.14	40.79
388.35	53.08
388.56	85.84
388.769	75.6
388.979	69.46
389.189	44.88
389.399	69.46
389.609	110.42
389.818	61.27
390.028	61.27
390.238	26.45
390.447	91.99
390.657	145.24
390.867	28.5
391.076	26.45
391.286	65.36
391.496	42.84
391.705	61.27
391.915	44.88
392.125	122.71
392.334	75.6
392.544	147.28
392.753	53.08
392.963	3.93
393.172	67.41
393.382	-12.46
393.591	122.71
393.801	114.52
394.01	200.53
394.22	114.52
394.429	85.84
394.639	-43.18
394.848	126.8
395.058	8.02
395.267	-20.65
395.477	116.56
395.686	135
395.895	143.19
396.105	77.65
396.314	26.45
396.524	53.08
396.733	75.6
396.942	139.09
397.152	141.14
397.361	118.61
397.57	98.13
397.78	63.32
397.989	36.69
398.198	112.47
398.407	85.84
398.617	87.89
398.826	67.41
399.035	122.71
399.244	110.42
399.453	85.84
399.663	83.8
399.872	196.43
400.081	102.23
400.29	182.1
400.499	40.79
400.708	124.76
400.917	40.79
401.127	94.04
401.336	53.08
401.545	153.43
401.754	159.57
401.963	61.27
402.172	100.18
402.381	36.69
402.59	59.22
402.799	126.8
403.008	200.53
403.217	63.32
403.426	89.94
403.635	75.6
403.844	85.84
404.053	132.95
404.262	112.47
404.471	157.52
404.68	118.61
404.888	102.23
405.097	143.19
405.306	96.08
405.515	36.69
405.724	118.61
405.933	143.19
406.142	118.61
406.35	87.89
406.559	145.24
406.768	198.48
406.977	188.24
407.185	264.02
407.394	184.15
407.603	175.95
407.812	196.43
408.02	245.59
408.229	169.81
408.438	200.53
408.646	231.25
408.855	155.47
409.064	231.25
409.272	255.83
409.481	208.72
409.69	266.07
409.898	216.91
410.107	175.95
410.315	313.17
410.524	253.78
410.733	313.17
410.941	350.03
411.15	294.74
411.358	282.45
411.567	331.6
411.775	339.79
411.984	280.4
412.192	434
412.401	370.51
412.609	370.51
412.818	448.33
413.026	470.86
413.234	419.66
413.443	427.85
413.651	493.39
413.86	507.73
414.068	620.36
414.276	477.01
414.485	583.5
414.693	599.88
414.901	563.02
415.11	624.46
415.318	608.08
415.526	663.37
415.734	706.38
415.943	644.94
416.151	708.43
416.359	714.57
416.567	728.91
416.776	823.11
416.984	833.35
417.192	909.13
417.4	778.06
417.608	882.5
417.817	814.92
418.025	972.61
418.233	941.89
418.441	925.51
418.649	966.47
418.857	1083.2
419.065	1156.93
419.273	1064.77
419.481	1142.6
419.689	1175.36
419.897	1216.32
420.105	1236.8
420.313	1353.54
420.521	1369.92
420.729	1400.64
420.937	1347.39
421.145	1404.74
421.353	1632.06
421.561	1636.16
421.769	1589.05
421.977	1754.94
422.185	1795.9
422.393	1867.58
422.601	1896.25
422.809	1908.54
423.017	1943.35
423.224	1945.4
423.432	2125.62
423.64	2109.24
423.848	2246.45
424.056	2207.54
424.263	2322.23
424.471	2318.13
424.679	2463.54
424.887	2516.78
425.094	2606.89
425.302	2619.18
425.51	2733.87
425.718	2737.96
425.925	2832.17
426.133	2901.8
426.341	3338.02
426.548	3286.82
426.756	3233.57
426.964	3370.79
427.171	3471.14
427.379	3598.11
427.586	3598.11
427.794	3866.39
428.001	3835.67
428.209	4112.15
428.417	4144.92
428.624	4333.33
428.832	4302.61
429.039	4407.06
429.247	4226.84
429.454	4779.79
429.662	5037.83
429.869	4742.92
430.076	4951.82
430.284	4859.66
430.491	5117.7
430.699	5445.38
430.906	5508.87
431.114	5572.35
431.321	5803.77
431.528	5857.02
431.736	6139.64
431.943	6403.83
432.15	6151.93
432.358	6274.81
432.565	6780.65
432.772	6614.77
432.979	6774.51
433.187	7030.51
433.394	7196.39
433.601	7802.59
433.808	7532.26
434.016	7524.07
434.223	7855.84
434.43	8478.42
434.637	8244.95
434.844	8873.68
435.052	8941.26
435.259	8892.11
435.466	8859.34
435.673	8838.86
435.88	9545.41
436.087	10022.59
436.294	10030.78
436.501	9801.41
436.708	9758.4
436.915	10249.91
437.122	10772.14
437.329	10706.61
437.537	10995.37
437.743	11337.38
437.95	11267.75
438.157	11587.24
438.364	12117.66
438.571	12177.05
438.778	12232.35
438.985	13217.42
439.192	12818.07
439.399	13409.93
439.606	12801.68
439.813	13725.32
440.02	14259.84
440.227	14323.32
440.433	14044.8
440.64	14794.36
440.847	14386.81
441.054	14642.81
441.261	15871.59
441.467	15523.43
441.674	16035.42
441.881	16391.77
442.088	16502.36
442.294	16309.85
442.501	16744.02
442.708	17032.79
442.914	17804.87
443.121	18683.45
443.328	18234.94
443.534	19334.7
443.741	18892.34
443.948	18421.31
444.154	19820.07
444.361	19922.47
444.568	20033.06
444.774	19885.61
444.981	20194.85
445.187	20741.66
445.394	21472.78
445.6	21450.25
445.807	23467.5
446.013	22136.32
446.22	22730.23
446.426	23496.17
446.633	23961.06
446.839	24647.13
447.046	23627.24
447.252	25011.67
447.459	24690.14
447.665	25073.11
447.871	25773.52
448.078	27311.54
448.284	25877.96
448.491	26252.74
448.697	27745.71
448.903	28263.85
449.11	28175.78
449.316	27698.61
449.522	28300.71
449.728	28935.58
449.935	28818.85
450.141	29054.36
450.347	29488.53
450.553	29078.94
450.76	29222.3
450.966	30174.6
451.172	29719.95
451.378	30553.48
451.584	29836.69
451.791	30741.89
451.997	30524.8
452.203	30901.63
452.409	30811.52
452.615	30733.7
452.821	29709.71
453.027	28751.26
453.233	31077.76
453.44	29506.96
453.646	29709.71
453.852	30186.89
454.058	30510.47
454.264	29480.34
454.47	30360.97
454.676	29322.65
454.882	30225.8
455.088	27780.53
455.294	28235.17
455.5	28466.59
455.705	28777.89
455.911	27749.81
456.117	26971.58
456.323	26944.95
456.529	25066.97
456.735	26547.65
456.941	25361.87
457.147	25572.82
457.352	24528.35
457.558	24444.38
457.764	24491.49
457.97	23723.5
458.176	23215.6
458.381	23150.07
458.587	22298.11
458.793	22068.74
458.999	20809.24
459.204	22214.15
459.41	21620.24
459.616	20284.96
459.821	20330.02
460.027	20157.99
460.233	19813.93
460.438	18949.68
460.644	19504.68
460.85	18404.92
461.055	17991.23
461.261	17956.42
461.466	16543.32
461.672	16135.78
461.878	17114.7
462.083	16119.39
462.289	15863.4
462.494	15642.21
462.7	14931.57
462.905	14487.16
463.111	14843.51
463.316	15064.69
463.522	14653.05
463.727	14802.55
463.932	14618.23
464.138	14376.57
464.343	14626.42
464.549	14149.25
464.754	14724.72
464.959	14386.81
465.165	14632.57
465.37	13692.55
465.575	13452.94
465.781	13692.55
465.986	13801.09
466.191	13753.99
466.397	13252.24
466.602	12480.15
466.807	13340.3
467.012	13110.93
467.218	13084.3
467.423	12889.74
467.628	13106.83
467.833	13289.1
468.038	13002.38
468.244	12783.25
468.449	13041.29
468.654	12760.72
468.859	12748.43
469.064	12523.16
469.269	12166.81
469.474	12285.59
469.679	12312.22
469.885	11857.57
470.09	12191.39
470.295	12045.98
470.5	11681.44
470.705	12009.12
470.91	11628.2
471.115	11495.08
471.32	11636.39
471.525	11577
471.73	11402.92
471.935	11327.14
472.139	10909.36
472.344	11062.96
472.549	10866.35
472.754	10663.6
472.959	10577.59
473.164	10399.41
473.369	10038.97
473.574	10501.81
473.778	10481.33
473.983	10391.22
474.188	10520.24
474.393	9856.7
474.598	9774.78
474.802	9772.74
475.007	9864.89
475.212	9873.09
475.417	9420.49
475.621	9535.17
475.826	9455.3
476.031	9326.28
476.235	9221.83
476.44	8998.6
476.645	9049.8
476.849	9164.49
477.054	8931.02
477.259	8826.57
477.463	8912.59
477.668	8617.68
477.872	8734.42
478.077	8308.44
478.282	8363.73
478.486	8363.73
478.691	8167.13
478.895	8158.94
479.1	7986.91
479.304	8296.15
479.509	7913.18
479.713	8040.15
479.918	7917.28
480.122	7644.9
480.326	7864.03
480.531	7880.41
480.735	7775.97
480.94	7548.64
481.144	7843.55
481.348	7581.41
481.553	7638.75
481.757	7503.59
481.961	7595.75
482.166	7790.3
482.37	7515.87
482.574	7458.53
482.778	7687.9
482.983	7673.57
483.187	7589.6
483.391	7515.87
483.595	7560.93
483.8	7423.72
484.004	7548.64
484.208	7638.75
484.412	7638.75
484.616	7603.94
484.821	7554.79
485.025	7503.59
485.229	7618.27
485.433	7687.9
485.637	7628.51
485.841	7526.11
486.045	7550.69
486.249	7466.72
486.453	7446.24
486.657	7485.16
486.861	7661.28
487.065	7388.9
487.269	7622.37
487.473	7393
487.677	7306.98
487.881	7743.2
488.085	7638.75
488.289	7630.56
488.493	7511.78
488.697	7587.55
488.901	7642.85
489.105	7581.41
489.309	7687.9
489.512	7685.86
489.716	7481.06
489.92	7581.41
490.124	7745.25
490.328	7616.23
490.531	7663.33
490.735	7812.83
490.939	7857.89
491.143	7718.62
491.346	7735.01
491.55	7747.3
491.754	7747.3
491.958	7902.94
492.161	7694.05
492.365	8048.35
492.569	7784.16
492.772	7886.56
492.976	8152.79
493.18	8097.5
493.383	8126.17
493.587	8130.27
493.79	8308.44
493.994	8154.84
494.197	8195.8
494.401	8281.81
494.605	8351.45
494.808	8535.76
495.012	8453.84
495.215	8734.42
495.419	8644.31
495.622	8560.34
495.825	8851.15
496.029	8638.16
496.232	8933.07
496.436	8888.01
496.639	9101
496.843	9178.83
497.046	9133.77
497.249	9258.7
497.453	9207.5
497.656	9596.61
497.859	9479.88
498.063	9582.28
498.266	9756.35
498.469	9699.01
498.673	9862.85
498.876	10000.06
499.079	10112.7
499.282	10145.47
499.485	10497.72
499.689	10557.11
499.892	10522.29
500.095	10788.53
500.298	10817.2
500.501	10632.88
500.705	11009.71
500.908	11345.58
501.111	11167.4
501.314	11490.98
501.517	11531.94
501.72	11818.66
501.923	11509.41
502.126	11697.83
502.329	12086.94
502.532	12041.89
502.735	12115.61
502.938	12355.22
503.141	12431
503.344	12420.76
503.547	12674.71
503.75	12891.79
503.953	13053.58
504.156	13276.81
504.359	13295.24
504.562	13424.26
504.765	13627.01
504.968	13696.64
505.17	13870.72
505.373	13827.71
505.576	14091.9
505.779	14286.46
505.982	14253.69
506.185	14796.4
506.387	14622.33
506.59	14777.97
506.793	15160.94
506.996	15136.37
507.198	15527.53
507.401	15226.48
507.604	15576.68
507.807	15779.43
508.009	15933.03
508.212	15853.16
508.415	16148.06
508.617	16465.5
508.82	16737.88
509.022	16285.28
509.225	17106.51
509.428	17159.76
509.63	17176.14
509.833	17002.07
510.035	17858.12
510.238	17618.5
510.44	17741.38
510.643	18341.44
510.845	18269.76
511.048	18417.21
511.25	18697.78
511.453	18658.87
511.655	19418.67
511.858	18802.23
512.06	19240.5
512.262	19482.16
512.465	19713.58
512.667	19938.85
512.87	19824.17
513.072	20035.11
513.274	20264.48
513.477	20549.15
513.679	20491.8
513.881	20817.43
514.084	21007.89
514.286	21007.89
514.488	21091.86
514.69	21966.34
514.893	22074.88
515.095	21919.24
515.297	22296.07
515.499	22363.65
515.701	22828.54
515.904	22855.16
516.106	23008.76
516.308	23051.77
516.51	23432.69
516.712	23293.43
516.914	23862.76
517.116	24135.14
517.318	24253.92
517.52	24303.07
517.722	24258.02
517.925	24899.03
518.127	25183.7
518.329	25490.9
518.531	25224.66
518.733	25734.6
518.935	25955.79
519.136	26076.62
519.338	26484.16
519.54	26293.7
519.742	27155.89
519.944	26899.9
520.146	27551.15
520.348	27301.3
520.55	27714.99
520.752	27758
520.954	28106.15
521.155	28061.1
521.357	28921.24
521.559	29097.37
521.761	29058.46
521.963	29250.97
522.164	29244.82
522.366	29396.37
522.568	29853.07
522.77	29640.08
522.971	30459.27
523.173	30397.83
523.375	30399.88
523.576	30889.34
523.778	30713.22
523.98	31364.47
524.181	31448.44
524.383	31753.58
524.584	32019.82
524.786	32148.84
524.988	32028.01
525.189	32453.99
525.391	32613.73
525.592	33000.8
525.794	32953.69
525.995	33320.28
526.197	33414.49
526.398	33611.09
526.6	33596.76
526.801	33815.89
527.003	33834.32
527.204	34018.64
527.406	34440.52
527.607	34485.58
527.808	34510.15
528.01	34538.82
528.211	34637.12
528.412	35032.38
528.614	35542.33
528.815	35155.26
529.016	35564.85
529.218	35243.32
529.419	35726.64
529.62	35689.78
529.822	35620.15
530.023	35890.48
530.224	36035.89
530.425	36230.44
530.626	35822.9
530.828	36216.11
531.029	36992.29
531.23	36623.65
531.431	36130.09
531.632	36705.57
531.833	36713.77
532.035	36599.08
532.236	37233.95
532.437	37231.9
532.638	36869.41
532.839	37397.79
533.04	37491.99
533.241	37035.3
533.442	37844.24
533.643	37084.45
533.844	37342.49
534.045	37365.02
534.246	37127.45
534.447	37754.13
534.648	38126.86
534.849	37795.09
535.05	37365.02
535.251	37541.14
535.451	37645.59
535.652	37838.1
535.853	37623.06
536.054	37860.63
536.255	38141.2
536.456	37563.67
536.657	38763.78
536.857	37915.92
537.058	37844.24
537.259	38065.42
537.46	38085.9
537.66	38012.18
537.861	38147.34
538.062	38016.27
538.263	38407.44
538.463	37598.49
538.664	38032.66
538.865	38118.67
539.065	37885.2
539.266	37694.74
539.466	38364.43
539.667	37924.11
539.868	38470.92
540.068	38389
540.269	38014.23
540.469	38356.24
540.67	38204.69
540.87	38245.65
541.071	37891.35
541.271	38253.84
541.472	37647.64
541.672	37739.8
541.873	37559.58
542.073	37565.72
542.274	38393.1
542.474	37877.01
542.675	37967.12
542.875	38010.13
543.075	37891.35
543.276	37688.6
543.476	38421.77
543.676	37704.98
543.877	38343.95
544.077	37897.49
544.277	37958.93
544.478	38022.42
544.678	38223.12
544.878	37641.49
545.078	38184.21
545.279	37975.31
545.479	37799.19
545.679	37969.17
545.879	37797.14
546.079	38122.77
546.28	38077.71
546.48	37752.09
546.68	37965.07
546.88	37899.54
547.08	38065.42
547.28	37655.83
547.48	37805.33
547.68	38040.85
547.88	37465.37
548.081	38141.2
548.281	37700.89
548.481	37567.77
548.681	38108.43
548.881	37825.81
549.081	38061.33
549.28	37883.16
549.48	37852.44
549.68	37606.68
549.88	38374.67
550.08	37827.86
550.28	38061.33
550.48	37770.52
550.68	37784.85
550.88	37559.58
551.08	37801.24
551.279	37879.06
551.479	37184.8
551.679	38020.37
551.879	37483.8
552.079	37827.86
552.278	37369.12
552.478	37649.69
552.678	37764.37
552.878	37754.13
553.077	37858.58
553.277	37238.05
553.477	38071.57
553.676	37518.62
553.876	37479.71
554.076	37491.99
554.275	37483.8
554.475	36848.93
554.674	37510.42
554.874	37524.76
555.074	37090.59
555.273	37264.67
555.473	37405.98
555.672	36898.08
555.872	37047.58
556.071	37109.02
556.271	37299.48
556.47	36984.1
556.67	36451.63
556.869	36924.71
557.068	36934.95
557.268	36650.28
557.467	36711.72
557.667	36842.79
557.866	36703.53
558.065	36361.51
558.265	36545.83
558.464	35738.93
558.663	36468.01
558.863	35808.56
559.062	36666.66
559.261	35476.79
559.461	36527.4
559.66	35593.53
559.859	36019.5
560.058	35474.74
560.258	35315
560.457	35532.09
560.656	35534.14
560.855	35310.91
561.054	35386.68
561.253	35329.34
561.453	35102.01
561.652	35177.79
561.851	35358.01
562.05	35110.21
562.249	34891.07
562.448	35380.54
562.647	34993.47
562.846	34680.13
563.045	34731.33
563.244	34200.91
563.443	34448.71
563.642	34198.86
563.841	34112.84
564.04	34174.28
564.239	34735.43
564.438	34059.6
564.637	33998.16
564.836	34073.93
565.035	33183.07
565.234	33951.06
565.432	33451.35
565.631	33422.68
565.83	33293.66
566.029	33183.07
566.228	33174.88
566.427	32906.59
566.625	32617.83
566.824	32775.52
567.023	32554.34
567.222	32245.1
567.42	32730.47
567.619	32365.93
567.818	32238.95
568.016	32068.97
568.215	32703.84
568.414	31907.18
568.612	32269.67
568.811	31757.68
569.01	31434.1
569.208	31231.35
569.407	31673.71
569.605	31061.37
569.804	31796.59
570.002	31276.41
570.201	31249.78
570.4	30856.57
570.598	30895.49
570.797	30303.62
570.995	30932.35
571.193	30150.03
571.392	30391.69
571.59	30463.36
571.789	30352.77
571.987	29848.97
572.186	30406.02
572.384	29885.84
572.582	30274.95
572.781	29777.29
572.979	29224.34
573.177	29908.36
573.376	29580.69
573.574	29156.76
573.772	29722
573.971	29052.31
574.169	29269.4
574.367	28951.96
574.565	28882.33
574.763	28988.83
574.962	28845.47
575.16	28163.5
575.358	28599.71
575.556	28464.55
575.754	28530.08
575.952	28042.67
576.151	28370.34
576.349	27815.34
576.547	28093.86
576.745	28253.61
576.943	28161.45
577.141	27524.53
577.339	27803.05
577.537	27641.26
577.735	27538.87
577.933	27071.93
578.131	27368.88
578.329	27239.86
578.527	26926.52
578.725	27114.94
578.923	27102.65
579.121	26860.99
579.319	27039.16
579.516	26967.48
579.714	26756.54
579.912	26664.38
580.11	26478.02
580.308	26533.31
580.506	26336.71
580.704	26002.89
580.901	26185.16
581.099	26236.36
581.297	25980.36
581.495	25900.49
581.692	26217.93
581.89	25785.8
582.088	26033.61
582.285	25662.93
582.483	25546.19
582.681	25716.17
582.878	25675.21
583.076	25224.66
583.274	25613.77
583.471	25077.21
583.669	25331.15
583.866	25026.01
584.064	25040.34
584.262	24571.36
584.459	25015.77
584.657	24694.24
584.854	24833.5
585.052	24483.3
585.249	24610.27
585.447	24581.6
585.644	24323.55
585.841	24477.15
586.039	24468.96
586.236	23932.39
586.434	24024.55
586.631	23963.11
586.828	23819.75
587.026	23977.45
587.223	24049.13
587.42	23907.82
587.618	23932.39
587.815	23541.23
588.012	23553.52
588.21	23604.72
588.407	23666.16
588.604	23268.85
588.801	23291.38
588.999	23180.79
589.196	23254.51
589.393	23059.96
589.59	23137.78
589.787	23002.61
589.984	22744.57
590.182	22672.89
590.379	22783.48
590.576	22525.44
590.773	22830.58
590.97	22277.63
591.167	22640.12
591.364	22365.7
591.561	22361.6
591.758	21982.73
591.955	22294.02
592.152	22476.29
592.349	22095.36
592.546	22113.8
592.743	21921.29
592.94	21657.1
593.137	22081.03
593.334	21765.64
593.531	21485.07
593.727	21544.46
593.924	21849.61
594.121	21141.01
594.318	21528.08
594.515	21419.53
594.712	21569.04
594.908	21300.75
595.105	21192.21
595.302	20876.82
595.499	20827.67
595.696	20735.51
595.892	20850.2
596.089	20907.54
596.286	20860.44
596.482	20637.21
596.679	20659.74
596.876	20731.42
597.072	20434.46
597.269	20442.65
597.466	20327.97
597.662	20153.89
597.859	20338.21
598.055	20409.89
598.252	20076.07
598.448	20061.73
598.645	20024.87
598.841	19883.56
599.038	19936.81
599.234	20260.38
599.431	19447.34
599.627	19486.25
599.824	19875.37
600.02	19377.71
600.217	19631.66
600.413	19328.56
600.609	19435.05
600.806	19279.41
601.002	19359.28
601.198	19326.51
601.395	19052.08
601.591	18957.88
601.787	19131.95
601.984	18839.09
602.18	19189.3
602.376	18755.13
602.572	18800.18
602.769	18744.89
602.965	18652.73
603.161	18626.11
603.357	18431.55
603.553	18409.02
603.75	18282.05
603.946	18073.15
604.142	18316.86
604.338	18069.06
604.534	18222.66
604.73	18019.91
604.926	17995.33
605.122	18191.94
605.318	18239.04
605.514	17858.12
605.71	17690.18
605.906	17679.94
606.102	17741.38
606.298	17681.99
606.494	17710.66
606.69	17780.29
606.886	17655.37
607.082	17262.16
607.278	17630.79
607.474	17290.83
607.67	17471.05
607.866	17454.67
608.062	17573.45
608.257	17182.29
608.453	17294.93
608.649	17147.47
608.845	16791.13
609.041	17034.83
609.236	17395.28
609.432	16692.82
609.628	17026.64
609.824	16821.84
610.019	16498.27
610.215	16840.28
610.411	16594.52
610.606	16717.4
610.802	16780.89
610.998	16574.04
611.193	16539.22
611.389	16418.39
611.584	16483.93
611.78	16432.73
611.976	16770.65
612.171	16402.01
612.367	16293.47
612.562	16309.85
612.758	16131.68
612.953	16080.48
613.149	16481.88
613.344	16322.14
613.539	16254.56
613.735	16154.21
613.93	16160.35
614.126	16051.81
614.321	16176.73
614.517	16080.48
614.712	15935.07
614.907	16031.33
615.103	15851.11
615.298	15631.97
615.493	15920.74
615.688	15599.21
615.884	15857.25
616.079	15347.31
616.274	15869.54
616.47	15552.1
616.665	15740.52
616.86	15566.44
617.055	15392.36
617.25	15509.1
617.445	15656.55
617.641	15228.52
617.836	15461.99
618.031	15193.71
618.226	15349.36
618.421	15367.79
618.616	15394.41
618.811	15316.59
619.006	15187.57
619.201	14902.9
619.396	14913.14
619.591	14765.68
619.786	15031.92
619.981	14669.43
620.176	14933.62
620.371	14470.78
620.566	14595.7
620.761	14552.7
620.956	14698.1
621.151	14540.41
621.346	14372.47
621.541	14292.6
621.735	14276.22
621.93	14255.74
622.125	14280.32
622.32	13776.52
622.515	13985.41
622.709	13721.22
622.904	13899.39
623.099	13663.88
623.294	13510.28
623.488	13534.85
623.683	13610.63
623.878	13086.35
624.072	13401.74
624.267	13442.7
624.462	13104.78
624.656	12893.84
624.851	13323.91
625.046	12699.28
625.24	12828.31
625.435	13008.53
625.629	12869.26
625.824	12949.14
626.018	12744.34
626.213	12539.54
626.407	12521.11
626.602	12338.84
626.796	12613.27
626.991	12371.61
627.185	12332.7
627.38	12152.48
627.574	12183.2
627.768	11990.69
627.963	12060.32
628.157	11873.95
628.352	11792.03
628.546	11738.79
628.74	11808.42
628.935	11599.52
629.129	11851.42
629.323	11478.69
629.517	11769.51
629.712	11425.45
629.906	11550.37
630.1	11232.94
630.294	11161.26
630.489	11337.38
630.683	11323.05
630.877	10985.13
631.071	11087.53
631.265	11083.44
631.459	10882.74
631.653	10962.61
631.848	11003.57
632.042	10772.14
632.236	10667.7
632.43	10538.68
632.624	10694.32
632.818	10716.85
633.012	10266.3
633.206	10610.36
633.4	10636.98
633.594	10223.29
633.788	10233.53
633.982	10393.27
634.176	10243.77
634.369	9952.96
634.563	10165.95
634.757	10077.88
634.951	9916.09
635.145	9883.33
635.339	9971.39
635.533	9864.89
635.726	10192.57
635.92	9725.63
636.114	9670.34
636.308	9770.69
636.501	9563.84
636.695	9756.35
636.889	9488.07
637.083	9486.02
637.276	9330.37
637.47	9313.99
637.664	9139.91
637.857	9184.97
638.051	9152.2
638.244	9125.58
638.438	9217.74
638.632	9137.87
638.825	8986.32
639.019	8871.63
639.212	8924.88
639.406	8750.8
639.599	8658.64
639.793	8752.85
639.986	8662.74
640.18	8838.86
640.373	8517.33
640.567	8466.13
640.76	8543.95
640.954	8445.65
641.147	8431.32
641.34	8464.08
641.534	8474.32
641.727	8218.33
641.92	8318.68
642.114	8341.21
642.307	8212.18
642.5	8138.46
642.694	8005.34
642.887	8048.35
643.08	8109.79
643.273	8085.21
643.467	7837.41
643.66	7737.06
643.853	7868.13
644.046	7677.66
644.239	7741.15
644.432	7632.61
644.626	7843.55
644.819	7595.75
645.012	7741.15
645.205	7632.61
645.398	7505.63
645.591	7532.26
645.784	7376.61
645.977	7333.61
646.17	7397.09
646.363	7401.19
646.556	7073.51
646.749	7167.72
646.942	7184.1
647.135	7163.62
647.328	7120.62
647.521	7139.05
647.714	7110.38
647.907	7032.55
648.099	7030.51
648.292	7065.32
648.485	6842.09
648.678	6794.99
648.871	6983.4
649.064	6872.81
649.256	6958.83
649.449	6694.64
649.642	6694.64
649.835	6655.73
650.027	6842.09
650.22	6622.96
650.413	6532.85
650.605	6432.5
650.798	6471.41
650.991	6579.95
651.183	6414.07
651.376	6221.56
651.568	6483.7
651.761	6397.68
651.954	6283
652.146	6297.33
652.339	6328.05
652.531	6108.92
652.724	6262.52
652.916	6184.69
653.109	6123.26
653.301	6141.69
653.494	6254.33
653.686	5967.61
653.879	6174.46
654.071	5951.23
654.263	5965.56
654.456	5875.45
654.648	5914.36
654.84	5959.42
655.033	5811.96
655.225	5943.03
655.417	5664.51
655.61	5949.18
655.802	5709.57
655.994	5787.39
656.186	5631.74
656.379	5582.59
656.571	5662.46
656.763	5422.85
656.955	5547.78
657.148	5650.18
657.34	5570.3
657.532	5553.92
657.724	5596.93
657.916	5537.54
658.108	5414.66
658.3	5506.82
658.492	5336.84
658.684	5340.93
658.876	5422.85
659.068	5283.59
659.26	5230.34
659.452	5234.44
659.644	5297.92
659.836	5232.39
660.028	5345.03
660.22	5013.26
660.412	5205.77
660.604	5121.8
660.796	5175.05
660.988	5148.42
661.18	5099.27
661.372	5056.26
661.563	5230.34
661.755	4777.74
661.947	5080.84
662.139	4902.67
662.331	4998.92
662.522	4943.63
662.714	4884.23
662.906	4816.65
663.097	4945.67
663.289	4812.56
663.481	4865.8
663.673	4998.92
663.864	4654.86
664.056	4736.78
664.247	4824.84
664.439	4839.18
664.631	4808.46
664.822	4720.4
665.014	4681.49
665.205	4679.44
665.397	4706.06
665.588	4689.68
665.78	4599.57
665.971	4742.92
666.163	4531.98
666.354	4574.99
666.546	4568.85
666.737	4603.66
666.929	4595.47
667.12	4554.51
667.311	4546.32
667.503	4556.56
667.694	4591.38
667.885	4534.03
668.077	4542.22
668.268	4484.88
668.459	4384.53
668.651	4405.01
668.842	4517.65
669.033	4370.19
669.224	4402.96
669.416	4386.58
669.607	4468.5
669.798	4484.88
669.989	4480.78
670.18	4560.66
670.371	4484.88
670.563	4433.68
670.754	4400.91
670.945	4372.24
671.136	4509.46
671.327	4376.34
671.518	4591.38
671.709	4554.51
671.9	4546.32
672.091	4386.58
672.282	4337.43
672.473	4534.03
672.664	4362
672.855	4425.49
673.046	4466.45
673.237	4581.14
673.428	4323.09
673.619	4607.76
673.809	4349.71
674	4394.77
674.191	4480.78
674.382	4300.56
674.573	4519.7
674.764	4335.38
674.954	4605.71
675.145	4353.81
675.336	4497.17
675.527	4370.19
675.717	4452.11
675.908	4439.83
676.099	4362
676.289	4343.57
676.48	4476.69
676.671	4441.87
676.861	4476.69
677.052	4415.25
677.243	4458.26
677.433	4425.49
677.624	4501.26
677.814	4493.07
678.005	4503.31
678.195	4497.17
678.386	4464.4
678.576	4542.22
678.767	4396.82
678.957	4564.75
679.148	4480.78
679.338	4728.59
679.529	4679.44
679.719	4611.85
679.909	4806.41
680.1	4611.85
680.29	4667.15
680.481	4652.81
680.671	4624.14
680.861	4673.29
681.052	4548.37
681.242	4869.9
681.432	4704.01
681.622	4749.07
681.813	4790.03
682.003	4708.11
682.193	4661.01
682.383	4761.36
682.573	4738.83
682.764	4779.79
682.954	4673.29
683.144	4765.45
683.334	4853.52
683.524	4867.85
683.714	4808.46
683.904	4724.49
684.094	4706.06
684.284	4622.09
684.474	4841.23
684.664	4824.84
684.854	4876.04
685.044	4757.26
685.234	4826.89
685.424	4794.12
685.614	4869.9
685.804	4933.39
685.994	4996.87
686.184	4693.77
686.374	4792.08
686.564	4558.61
686.753	4730.64
686.943	4761.36
687.133	4681.49
687.323	4720.4
687.513	4667.15
687.702	4581.14
687.892	4568.85
688.082	4597.52
688.272	4665.1
688.461	4581.14
688.651	4595.47
688.841	4527.89
689.03	4306.71
689.22	4536.08
689.41	4427.54
689.599	4390.67
689.789	4407.06
689.979	4390.67
690.168	4484.88
690.358	4237.08
690.547	4316.95
690.737	4362
690.926	4288.28
691.116	4040.47
691.305	4300.56
691.495	4124.44
691.684	4067.1
691.874	4169.49
692.063	4099.86
692.252	4017.94
692.442	4146.97
692.631	4054.81
692.82	3921.69
693.01	3999.51
693.199	3987.22
693.388	3843.87
693.578	3841.82
693.767	3817.24
693.956	3870.49
694.146	3886.87
694.335	3895.07
694.524	3677.98
694.713	3768.09
694.902	3647.26
695.092	3850.01
695.281	3749.66
695.47	3759.9
695.659	3714.84
695.848	3598.11
696.037	3604.25
696.226	3587.87
696.415	3630.88
696.604	3706.65
696.793	3614.49
696.982	3854.11
697.171	3614.49
697.36	3641.12
697.549	3510.05
697.738	3630.88
697.927	3473.18
698.116	3530.53
698.305	3604.25
698.494	3481.38
698.683	3479.33
698.872	3467.04
699.061	3264.29
699.25	3385.12
699.438	3452.7
699.627	3432.22
699.816	3598.11
700.005	3432.22
700.193	3526.43
700.382	3526.43
700.571	3460.9
700.76	3411.75
700.948	3424.03
701.137	3473.18
701.326	3469.09
701.514	3358.5
701.703	3366.69
701.892	3473.18
702.08	3464.99
702.269	3378.98
702.457	3378.98
702.646	3495.71
702.834	3415.84
703.023	3319.59
703.212	3456.8
703.4	3557.15
703.589	3385.12
703.777	3469.09
703.965	3395.36
704.154	3628.83
704.342	3381.03
704.531	3493.66
704.719	3442.46
704.907	3510.05
705.096	3387.17
705.284	3415.84
705.472	3606.3
705.661	3391.27
705.849	3411.75
706.037	3524.38
706.226	3424.03
706.414	3456.8
706.602	3495.71
706.79	3649.31
706.979	3696.41
707.167	3696.41
707.355	3503.9
707.543	3710.75
707.731	3669.79
707.919	3630.88
708.107	3524.38
708.296	3600.16
708.484	3473.18
708.672	3663.65
708.86	3610.4
709.048	3716.89
709.236	3653.41
709.424	3755.8
709.612	3661.6
709.8	3739.42
709.988	3698.46
710.176	3698.46
710.364	3723.04
710.551	3800.86
710.739	3723.04
710.927	3729.18
711.115	3821.34
711.303	3684.13
711.491	3845.91
711.679	3886.87
711.866	3852.06
712.054	3991.32
712.242	3927.83
712.43	3919.64
712.617	4007.7
712.805	3862.3
712.993	3911.45
713.181	3870.49
713.368	3841.82
713.556	3985.18
713.744	3874.59
713.931	4042.52
714.119	4009.75
714.306	3972.89
714.494	4114.2
714.682	4124.44
714.869	3964.7
715.057	4124.44
715.244	4132.63
715.432	4120.34
715.619	4067.1
715.807	4189.97
715.994	4026.14
716.182	4335.38
716.369	4267.8
716.556	4362
716.744	4312.85
716.931	4124.44
717.119	4386.58
717.306	4390.67
717.493	4314.9
717.681	4364.05
717.868	4486.93
718.055	4443.92
718.242	4382.48
718.43	4554.51
718.617	4427.54
718.804	4527.89
718.991	4556.56
719.179	4536.08
719.366	4450.07
719.553	4382.48
719.74	4556.56
719.927	4671.25
720.114	4501.26
720.301	4673.29
720.488	4591.38
720.676	4652.81
720.863	4527.89
721.05	4712.21
721.237	4673.29
721.424	4572.94
721.611	4730.64
721.798	4695.82
721.985	4759.31
722.172	4673.29
722.358	4720.4
722.545	4681.49
722.732	4710.16
722.919	4720.4
723.106	4937.48
723.293	4835.08
723.48	4988.68
723.667	4921.1
723.853	4931.34
724.04	4976.39
724.227	5082.89
724.414	4939.53
724.6	5091.08
724.787	4951.82
724.974	5050.12
725.161	5050.12
725.347	4906.76
725.534	4941.58
725.72	5115.66
725.907	5035.78
726.094	4906.76
726.28	4923.15
726.467	5066.5
726.653	5222.15
726.84	5160.71
727.027	5259.01
727.213	5046.02
727.4	5115.66
727.586	5226.25
727.773	5275.4
727.959	5267.2
728.145	5252.87
728.332	5283.59
728.518	5250.82
728.705	5209.86
728.891	5195.53
729.077	5238.53
729.264	5336.84
729.45	5252.87
729.636	5418.75
729.823	5234.44
730.009	5287.68
730.195	5373.7
730.382	5498.63
730.568	5291.78
730.754	5439.23
730.94	5187.33
731.126	5371.65
731.313	5467.91
731.499	5478.15
731.685	5404.42
731.871	5375.75
732.057	5314.31
732.243	5490.43
732.429	5445.38
732.615	5598.98
732.801	5723.9
732.987	5533.44
733.173	5441.28
733.359	5521.15
733.545	5506.82
733.731	5426.95
733.917	5437.19
734.103	5494.53
734.289	5506.82
734.475	5543.68
734.661	5672.7
734.847	5527.3
735.033	5537.54
735.219	5682.94
735.404	5594.88
735.59	5490.43
735.776	5504.77
735.962	5627.65
736.148	5742.33
736.333	5721.85
736.519	5590.78
736.705	5580.54
736.89	5582.59
737.076	5570.3
737.262	5531.39
737.447	5570.3
737.633	5515.01
737.819	5797.63
738.004	5459.71
738.19	5525.25
738.375	5453.57
738.561	5545.73
738.747	5656.32
738.932	5424.9
739.118	5539.58
739.303	5539.58
739.489	5449.47
739.674	5455.62
739.859	5492.48
740.045	5476.1
740.23	5525.25
740.416	5541.63
740.601	5576.45
740.786	5531.39
740.972	5459.71
741.157	5359.36
741.342	5340.93
741.528	5336.84
741.713	5441.28
741.898	5414.66
742.084	5363.46
742.269	5324.55
742.454	5367.56
742.639	5336.84
742.824	5275.4
743.01	5385.99
743.195	5246.73
743.38	5418.75
743.565	5089.03
743.75	5340.93
743.935	5140.23
744.12	5213.96
744.305	4910.86
744.49	5295.88
744.675	5158.66
744.86	5179.14
745.045	4972.3
745.23	5000.97
745.415	5089.03
745.6	5072.65
745.785	5134.09
745.97	4851.47
746.155	4960.01
746.34	5015.3
746.525	4859.66
746.71	4839.18
746.895	4806.41
747.079	4898.57
747.264	4792.08
747.449	4755.21
747.634	4644.62
747.819	4722.45
748.003	4730.64
748.188	4726.54
748.373	4640.53
748.557	4656.91
748.742	4593.42
748.927	4759.31
749.111	4525.84
749.296	4646.67
749.481	4445.97
749.665	4448.02
749.85	4538.13
750.034	4433.68
750.219	4316.95
750.404	4407.06
750.588	4263.7
750.773	4163.35
750.957	4228.88
751.141	4271.89
751.326	4275.99
751.51	4198.17
751.695	4099.86
751.879	4259.6
752.064	4153.11
752.248	3987.22
752.432	4120.34
752.617	4050.71
752.801	4110.1
752.985	4038.42
753.17	4009.75
753.354	3970.84
753.538	3903.26
753.722	3682.08
753.907	3874.59
754.091	3807
754.275	3829.53
754.459	3755.8
754.643	3690.27
754.828	3518.24
755.012	3645.21
755.196	3600.16
755.38	3649.31
755.564	3600.16
755.748	3561.25
755.932	3483.42
756.116	3567.39
756.3	3657.5
756.484	3516.19
756.668	3501.86
756.852	3364.64
757.036	3387.17
757.22	3383.07
757.404	3329.83
757.588	3288.87
757.772	3202.85
757.956	3260.2
758.14	3319.59
758.323	3155.75
758.507	3170.08
758.691	3159.85
758.875	3161.89
759.059	3157.8
759.242	3163.94
759.426	3184.42
759.61	3133.22
759.794	3043.11
759.977	2961.19
760.161	3067.69
760.345	2971.43
760.528	2948.9
760.712	3047.21
760.895	2924.33
761.079	3036.97
761.263	2969.38
761.446	2907.94
761.63	2838.31
761.813	2928.42
761.997	2795.31
762.18	2860.84
762.364	2678.57
762.547	2694.96
762.731	2844.46
762.914	2821.93
763.098	2742.06
763.281	2709.29
763.464	2756.4
763.648	2570.03
763.831	2754.35
764.015	2537.26
764.198	2664.24
764.381	2594.61
764.564	2576.17
764.748	2524.97
764.931	2637.61
765.114	2494.26
765.297	2465.58
765.481	2438.96
765.664	2516.78
765.847	2580.27
766.03	2408.24
766.213	2547.5
766.397	2293.55
766.58	2445.1
766.763	2420.53
766.946	2428.72
767.129	2453.3
767.312	2361.14
767.495	2479.92
767.678	2344.75
767.861	2305.84
768.044	2406.19
768.227	2426.67
768.41	2185.01
768.593	2383.66
768.776	2408.24
768.959	2318.13
769.142	2346.8
769.324	2215.73
769.507	2254.64
769.69	2213.68
769.873	2234.16
770.056	2305.84
770.239	2199.35
770.421	2092.85
770.604	2236.21
770.787	2070.33
770.97	2111.29
771.152	2041.65
771.335	2117.43
771.518	2152.24
771.7	2146.1
771.883	2133.81
772.066	2137.91
772.248	2109.24
772.431	2060.09
772.613	2006.84
772.796	1949.5
772.978	2090.81
773.161	1953.59
773.343	1892.15
773.526	1929.02
773.708	1984.31
773.891	1894.2
774.073	1900.34
774.256	1838.91
774.438	1892.15
774.621	1806.14
774.803	1855.29
774.985	1892.15
775.168	1779.51
775.35	1855.29
775.532	1898.3
775.715	1851.19
775.897	1773.37
776.079	1810.23
776.261	1826.62
776.444	1709.88
776.626	1763.13
776.808	1683.26
776.99	1646.4
777.173	1646.4
777.355	1630.01
777.537	1740.6
777.719	1519.42
777.901	1613.63
778.083	1478.46
778.265	1529.66
778.447	1638.2
778.629	1537.85
778.811	1609.53
778.993	1576.77
779.175	1574.72
779.357	1462.08
779.539	1474.37
779.721	1511.23
779.903	1460.03
780.085	1445.7
780.267	1433.41
780.449	1443.65
780.631	1472.32
780.812	1392.45
780.994	1433.41
781.176	1337.15
781.358	1369.92
781.54	1357.63
781.721	1277.76
781.903	1367.87
782.085	1275.71
782.267	1347.39
782.448	1265.47
782.63	1261.38
782.812	1265.47
782.993	1314.63
783.175	1259.33
783.357	1249.09
783.538	1195.84
783.72	1128.26
783.901	1183.56
784.083	1158.98
784.264	1163.08
784.446	1113.92
784.627	997.19
784.809	1175.36
784.99	1075.01
785.172	1072.96
785.353	1150.79
785.535	1068.87
785.716	1009.48
785.897	1122.12
786.079	1036.1
786.26	999.24
786.441	1204.03
786.623	1009.48
786.804	1025.86
786.985	993.09
787.167	1044.29
787.348	945.99
787.529	1064.77
787.71	1036.1
787.891	1048.39
788.073	954.18
788.254	933.7
788.435	1009.48
788.616	937.8
788.797	909.13
788.978	921.42
789.159	925.51
789.34	913.22
789.522	862.02
789.703	864.07
789.884	825.16
790.065	839.5
790.246	888.65
790.427	866.12
790.607	960.33
790.788	866.12
790.969	814.92
791.15	925.51
791.331	722.76
791.512	843.59
791.693	847.69
791.874	847.69
792.054	894.79
792.235	739.15
792.416	819.02
792.597	763.72
792.778	849.74
792.958	757.58
793.139	735.05
793.32	722.76
793.5	755.53
793.681	712.52
793.862	763.72
794.042	810.82
794.223	769.87
794.404	749.39
794.584	667.47
794.765	741.19
794.945	765.77
795.126	841.54
795.306	700.23
795.487	649.04
795.667	608.08
795.848	622.41
796.028	708.43
796.209	626.51
796.389	677.71
796.57	700.23
796.75	646.99
796.93	706.38
797.111	589.64
797.291	624.46
797.471	698.19
797.652	626.51
797.832	665.42
798.012	687.95
798.192	589.64
798.373	655.18
798.553	634.7
798.733	681.8
798.913	591.69
799.093	626.51
799.274	665.42
799.454	638.8
799.634	626.51
799.814	540.49
799.994	554.83
800.174	638.8
800.354	522.06
800.534	552.78
800.714	618.32
800.894	563.02
801.074	567.12
801.254	581.45
801.434	622.41
801.614	520.01
801.794	462.67
801.974	1337.15
802.154	597.84
802.334	550.73
802.514	591.69
802.693	581.45
802.873	583.5
803.053	608.08
803.233	491.34
803.413	479.05
803.592	489.29
803.772	413.52
803.952	388.94
804.131	362.32
804.311	577.36
804.491	558.92
804.67	536.4
804.85	444.24
805.03	503.63
805.209	536.4
805.389	470.86
805.568	554.83
805.748	530.25
805.928	493.39
806.107	446.29
806.287	524.11
806.466	491.34
806.646	440.14
806.825	436.05
807.004	427.85
807.184	530.25
807.363	509.77
807.543	477.01
807.722	409.42
807.901	458.57
808.081	548.68
808.26	386.9
808.439	415.57
808.619	397.14
808.798	462.67
808.977	513.87
809.156	563.02
809.336	411.47
809.515	434
809.694	397.14
809.873	450.38
810.052	450.38
810.231	454.48
810.411	419.66
810.59	409.42
810.769	487.25
810.948	378.7
811.127	341.84
811.306	395.09
811.485	354.13
811.664	503.63
811.843	376.66
812.022	390.99
812.201	354.13
812.38	388.94
812.559	317.26
812.737	405.33
812.916	274.26
813.095	286.54
813.274	417.61
813.453	384.85
813.632	419.66
813.811	411.47
813.989	393.04
814.168	343.89
814.347	284.5
814.526	343.89
814.704	362.32
814.883	395.09
815.062	274.26
815.24	425.81
815.419	323.41
815.598	407.38
815.776	331.6
815.955	327.5
816.133	227.15
816.312	401.23
816.49	210.77
816.669	290.64
816.847	317.26
817.026	368.46
817.204	243.54
817.383	255.83
817.561	315.22
817.74	323.41
817.918	343.89
818.097	368.46
818.275	319.31
818.453	341.84
818.632	347.98
818.81	225.11
818.988	214.87
819.167	255.83
819.345	331.6
819.523	253.78
819.701	294.74
819.879	347.98
820.058	298.83
820.236	323.41
820.414	249.68
820.592	257.87
820.77	323.41
820.948	321.36
821.127	216.91
821.305	261.97
821.483	253.78
821.661	272.21
821.839	290.64
822.017	216.91
822.195	241.49
822.373	313.17
822.551	235.35
822.729	241.49
822.907	214.87
823.085	296.78
823.262	243.54
823.44	278.35
823.618	261.97
823.796	235.35
823.974	216.91
824.152	218.96
824.329	290.64
824.507	317.26
824.685	216.91
824.863	280.4
825.04	200.53
825.218	253.78
825.396	208.72
825.574	218.96
825.751	307.02
825.929	245.59
826.107	169.81
826.284	175.95
826.462	233.3
826.639	229.2
826.817	225.11
826.994	171.86
827.172	135
827.349	300.88
827.527	268.11
827.704	167.76
827.882	192.34
828.059	198.48
828.237	188.24
828.414	237.39
828.591	163.67
828.769	225.11
828.946	169.81
829.124	210.77
829.301	241.49
829.478	171.86
829.655	214.87
829.833	225.11
830.01	259.92
830.187	192.34
830.364	214.87
830.542	159.57
830.719	143.19
830.896	173.91
831.073	192.34
831.25	190.29
831.427	214.87
831.604	208.72
831.782	214.87
831.959	143.19
832.136	151.38
832.313	175.95
832.49	239.44
832.667	182.1
832.844	165.71
833.021	241.49
833.198	173.91
833.374	198.48
833.551	135
833.728	100.18
833.905	184.15
834.082	112.47
834.259	114.52
834.436	278.35
834.612	118.61
834.789	165.71
834.966	159.57
835.143	175.95
835.319	112.47
835.496	104.28
835.673	192.34
835.85	274.26
836.026	114.52
836.203	173.91
836.38	141.14
836.556	141.14
836.733	137.04
836.909	167.76
837.086	135
837.262	132.95
837.439	159.57
837.616	141.14
837.792	98.13
837.968	171.86
838.145	118.61
838.321	75.6
838.498	132.95
838.674	100.18
838.851	147.28
839.027	147.28
839.203	108.37
839.38	196.43
839.556	26.45
839.732	171.86
839.909	135
840.085	167.76
840.261	124.76
840.437	118.61
840.614	118.61
840.79	163.67
840.966	167.76
841.142	155.47
841.318	12.12
841.494	196.43
841.671	143.19
841.847	141.14
842.023	87.89
842.199	106.32
842.375	130.9
842.551	116.56
842.727	126.8
842.903	89.94
843.079	91.99
843.255	126.8
843.431	63.32
843.607	139.09
843.783	26.45
843.959	167.76
844.134	65.36
844.31	180.05
844.486	61.27
844.662	126.8
844.838	83.8
845.013	91.99
845.189	200.53
845.365	137.04
845.541	94.04
845.716	57.17
845.892	151.38
846.068	75.6
846.244	65.36
846.419	89.94
846.595	73.56
846.77	44.88
846.946	59.22
847.122	61.27
847.297	153.43
847.473	147.28
847.648	63.32
847.824	83.8
847.999	-30.89
848.175	67.41
848.35	126.8
848.526	106.32
848.701	102.23
848.876	151.38
849.052	94.04
849.227	137.04
849.403	26.45
849.578	42.84
849.753	34.64
849.929	145.24
850.104	44.88
850.279	69.46
850.454	34.64
850.63	89.94
850.805	126.8
850.98	10.07
851.155	67.41
851.33	85.84
851.505	149.33
851.681	73.56
851.856	65.36
852.031	73.56
852.206	137.04
852.381	73.56
852.556	79.7
852.731	91.99
852.906	65.36
853.081	81.75
853.256	48.98
853.431	51.03
853.606	126.8
853.781	24.4
853.956	65.36
854.131	42.84
854.305	1.88
854.48	94.04
854.655	34.64
854.83	118.61
855.005	24.4
855.18	34.64
855.354	28.5
855.529	145.24
855.704	51.03
855.879	110.42
856.053	20.31
856.228	61.27
856.403	44.88
856.577	59.22
856.752	61.27
856.926	40.79
857.101	71.51
857.276	53.08
857.45	44.88
857.625	91.99
857.799	34.64
857.974	106.32
858.148	-18.6
858.323	59.22
858.497	91.99
858.672	26.45
858.846	81.75
859.02	110.42
859.195	44.88
859.369	28.5
859.543	77.65
859.718	53.08
859.892	85.84
860.066	-18.6
860.241	71.51
860.415	48.98
860.589	73.56
860.763	102.23
860.938	-8.36
861.112	77.65
861.286	10.07
861.46	42.84
861.634	69.46
861.808	36.69
861.982	34.64
862.157	32.6
862.331	26.45
862.505	40.79
862.679	69.46
862.853	16.21
863.027	-37.03
863.201	44.88
863.375	-8.36
863.549	42.84
863.722	10.07
863.896	67.41
864.07	55.12
864.244	-12.46
864.418	-0.17
864.592	98.13
864.766	67.41
864.939	16.21
865.113	12.12
865.287	65.36
865.461	-0.17
865.634	122.71
865.808	10.07
865.982	36.69
866.156	-8.36
866.329	-88.23
866.503	26.45
866.676	36.69
866.85	5.97
867.024	28.5
867.197	59.22
867.371	-20.65
867.544	-4.27
867.718	-39.08
867.891	44.88
868.065	30.55
868.238	67.41
868.412	1.88
868.585	44.88
868.759	61.27
868.932	108.37
869.105	81.75
869.279	-12.46
869.452	16.21
869.625	44.88
869.799	48.98
869.972	-28.84
870.145	38.74
870.319	67.41
870.492	12.12
870.665	51.03
870.838	-6.31
871.011	-88.23
871.185	44.88
871.358	24.4
871.531	3.93
871.704	-16.55
871.877	-16.55
872.05	44.88
872.223	-6.31
872.396	10.07
872.569	53.08
872.742	22.36
872.915	18.26
873.088	-18.6
873.261	40.79
873.434	48.98
873.607	81.75
873.78	63.32
873.953	-2.22
874.126	1.88
874.299	61.27
874.471	-20.65
874.644	-4.27
874.817	94.04
874.99	-20.65
875.163	-8.36
875.335	-6.31
875.508	-12.46
875.681	55.12
875.853	-18.6
876.026	3.93
876.199	10.07
876.371	55.12
876.544	16.21
876.717	34.64
876.889	5.97
877.062	77.65
877.234	57.17
877.407	-6.31
877.579	3.93
877.752	-8.36
877.924	1.88
878.097	42.84
878.269	1.88
878.442	24.4
878.614	53.08
878.786	16.21
878.959	57.17
879.131	-39.08
879.303	-63.66
879.476	16.21
879.648	89.94
879.82	12.12
879.993	77.65
880.165	55.12
880.337	10.07
880.509	42.84
880.681	-28.84
880.854	-14.51
881.026	20.31
881.198	12.12
881.37	69.46
881.542	-59.56
881.714	20.31
881.886	53.08
882.058	28.5
882.23	-2.22
882.402	18.26
882.574	24.4
882.746	-10.41
882.918	141.14
883.09	83.8
883.262	20.31
883.434	16.21
883.606	-39.08
883.778	34.64
883.95	40.79
884.122	34.64
884.293	65.36
884.465	61.27
884.637	34.64
884.809	14.17
884.98	53.08
885.152	94.04
885.324	-53.42
885.496	8.02
885.667	32.6
885.839	12.12
886.011	59.22
886.182	42.84
886.354	20.31
886.525	53.08
886.697	28.5
886.869	-22.7
887.04	-4.27
887.212	59.22
887.383	73.56
887.555	67.41
887.726	-18.6
887.897	-10.41
888.069	-12.46
888.24	42.84
888.412	-28.84
888.583	-4.27
888.754	18.26
888.926	-30.89
889.097	-32.94
889.268	20.31
889.44	-4.27
889.611	-37.03
889.782	-20.65
889.953	51.03
890.125	77.65
890.296	-49.32
890.467	69.46
890.638	-10.41
890.809	16.21
890.98	10.07
891.151	-0.17
891.323	77.65
891.494	69.46
891.665	-6.31
891.836	20.31
892.007	44.88
892.178	51.03
892.349	-6.31
892.52	57.17
892.691	26.45
892.862	-45.23
893.032	-71.85
893.203	8.02
893.374	32.6
893.545	22.36
893.716	34.64
893.887	89.94
894.057	36.69
894.228	3.93
894.399	32.6
894.57	94.04
894.74	-75.95
894.911	8.02
895.082	16.21
895.253	20.31
895.423	5.97
895.594	3.93
895.764	-55.47
895.935	-0.17
896.106	-18.6
896.276	20.31
896.447	12.12
896.617	-28.84
896.788	10.07
896.958	-16.55
897.129	-53.42
897.299	-12.46
897.47	36.69
897.64	48.98
897.81	-22.7
897.981	16.21
898.151	-39.08
898.322	3.93
898.492	53.08
898.662	10.07
898.832	-45.23
899.003	-0.17
899.173	81.75
899.343	-6.31
899.513	-67.75
