Data from USB4F104151__19__11-29-50-217.txt Node

Date: Fri Mar 14 11:29:50 EDT 2025
User: louis
Spectrometer: USB4F10415
Trigger mode: 4
Integration Time (sec): 5.000000E-2
Scans to average: 1
Electric dark correction enabled: true
Nonlinearity correction enabled: false
Boxcar width: 0
XAxis mode: Wavelengths
Number of Pixels in Spectrum: 3648
>>>>>Begin Spectral Data<<<<<
178.204	-94.55
178.424	-94.55
178.644	-94.55
178.864	-119.12
179.084	-90.45
179.304	-20.82
179.524	-53.59
179.744	-2.39
179.964	63.15
180.184	13.99
180.404	5.8
180.624	26.28
180.844	3.75
181.064	-31.06
181.283	1.71
181.503	-16.73
181.723	9.9
181.943	-35.16
182.163	126.63
182.383	28.33
182.602	24.23
182.822	44.71
183.042	104.11
183.262	18.09
183.482	-2.39
183.701	79.53
183.921	30.38
184.141	38.57
184.361	95.91
184.58	-2.39
184.8	85.67
185.02	36.52
185.239	79.53
185.459	24.23
185.679	118.44
185.898	-18.77
186.118	81.58
186.338	77.48
186.557	50.86
186.777	32.43
186.997	50.86
187.216	34.47
187.436	95.91
187.655	114.34
187.875	34.47
188.095	5.8
188.314	95.91
188.534	120.49
188.753	5.8
188.973	26.28
189.192	95.91
189.412	28.33
189.631	63.15
189.851	-35.16
190.07	95.91
190.29	-26.96
190.509	87.72
190.729	30.38
190.948	63.15
191.168	126.63
191.387	1.71
191.607	5.8
191.826	20.14
192.045	38.57
192.265	38.57
192.484	-12.63
192.704	71.34
192.923	18.09
193.142	143.02
193.362	32.43
193.581	50.86
193.8	140.97
194.02	95.91
194.239	44.71
194.458	22.19
194.678	26.28
194.897	16.04
195.116	20.14
195.335	30.38
195.555	63.15
195.774	26.28
195.993	104.11
196.212	44.71
196.432	20.14
196.651	1.71
196.87	34.47
197.089	44.71
197.308	97.96
197.528	38.57
197.747	-10.58
197.966	71.34
198.185	63.15
198.404	59.05
198.623	59.05
198.842	59.05
199.062	42.67
199.281	79.53
199.5	52.91
199.719	65.19
199.938	50.86
200.157	54.95
200.376	5.8
200.595	42.67
200.814	54.95
201.033	120.49
201.252	22.19
201.471	112.3
201.69	38.57
201.909	87.72
202.128	-10.58
202.347	48.81
202.566	3.75
202.785	34.47
203.004	38.57
203.223	104.11
203.442	-10.58
203.661	-18.77
203.879	36.52
204.098	143.02
204.317	-29.01
204.536	52.91
204.755	54.95
204.974	3.75
205.193	102.06
205.411	79.53
205.63	46.76
205.849	26.28
206.068	9.9
206.287	-4.44
206.505	69.29
206.724	-10.58
206.943	11.95
207.162	67.24
207.381	28.33
207.599	104.11
207.818	-29.01
208.037	46.76
208.255	36.52
208.474	38.57
208.693	100.01
208.911	59.05
209.13	-18.77
209.349	95.91
209.567	26.28
209.786	3.75
210.005	63.15
210.223	-26.96
210.442	16.04
210.661	50.86
210.879	-10.58
211.098	38.57
211.316	75.43
211.535	30.38
211.753	59.05
211.972	85.67
212.191	54.95
212.409	5.8
212.628	54.95
212.846	69.29
213.065	32.43
213.283	65.19
213.502	-6.49
213.72	-10.58
213.938	100.01
214.157	38.57
214.375	54.95
214.594	28.33
214.812	30.38
215.031	40.62
215.249	52.91
215.467	11.95
215.686	52.91
215.904	71.34
216.122	67.24
216.341	38.57
216.559	-76.12
216.778	140.97
216.996	-4.44
217.214	52.91
217.432	22.19
217.651	-43.35
217.869	20.14
218.087	42.67
218.306	44.71
218.524	-2.39
218.742	77.48
218.96	110.25
219.179	40.62
219.397	83.63
219.615	13.99
219.833	91.82
220.051	63.15
220.27	71.34
220.488	126.63
220.706	9.9
220.924	9.9
221.142	-16.73
221.36	42.67
221.578	130.73
221.796	20.14
222.015	-53.59
222.233	54.95
222.451	116.39
222.669	42.67
222.887	50.86
223.105	-6.49
223.323	-10.58
223.541	44.71
223.759	7.85
223.977	34.47
224.195	79.53
224.413	128.68
224.631	110.25
224.849	-2.39
225.067	59.05
225.285	46.76
225.503	22.19
225.721	-84.31
225.939	3.75
226.157	1.71
226.375	93.87
226.592	-53.59
226.81	-10.58
227.028	75.43
227.246	128.68
227.464	32.43
227.682	-18.77
227.9	108.2
228.117	52.91
228.335	104.11
228.553	36.52
228.771	18.09
228.989	61.1
229.206	71.34
229.424	9.9
229.642	102.06
229.86	5.8
230.077	89.77
230.295	-4.44
230.513	59.05
230.731	16.04
230.948	38.57
231.166	34.47
231.384	22.19
231.601	59.05
231.819	89.77
232.037	120.49
232.254	18.09
232.472	38.57
232.689	30.38
232.907	85.67
233.125	5.8
233.342	52.91
233.56	63.15
233.777	5.8
233.995	5.8
234.213	7.85
234.43	46.76
234.648	16.04
234.865	87.72
235.083	95.91
235.3	44.71
235.518	67.24
235.735	79.53
235.953	40.62
236.17	-37.2
236.388	30.38
236.605	-2.39
236.822	28.33
237.04	-6.49
237.257	116.39
237.475	-51.54
237.692	110.25
237.909	83.63
238.127	18.09
238.344	26.28
238.562	30.38
238.779	-8.53
238.996	-84.31
239.214	22.19
239.431	30.38
239.648	85.67
239.865	79.53
240.083	128.68
240.3	34.47
240.517	52.91
240.735	63.15
240.952	36.52
241.169	46.76
241.386	13.99
241.603	63.15
241.821	-45.4
242.038	106.15
242.255	85.67
242.472	26.28
242.689	91.82
242.907	110.25
243.124	59.05
243.341	16.04
243.558	28.33
243.775	32.43
243.992	20.14
244.209	122.54
244.426	87.72
244.643	71.34
244.86	20.14
245.078	97.96
245.295	38.57
245.512	9.9
245.729	30.38
245.946	132.78
246.163	32.43
246.38	67.24
246.597	28.33
246.814	59.05
247.031	50.86
247.248	97.96
247.464	-6.49
247.681	18.09
247.898	73.39
248.115	87.72
248.332	-26.96
248.549	83.63
248.766	126.63
248.983	81.58
249.2	-0.34
249.417	26.28
249.633	77.48
249.85	61.1
250.067	36.52
250.284	32.43
250.501	67.24
250.717	44.71
250.934	16.04
251.151	69.29
251.368	36.52
251.585	61.1
251.801	26.28
252.018	-35.16
252.235	57
252.451	57
252.668	59.05
252.885	93.87
253.102	46.76
253.318	16.04
253.535	-43.35
253.752	54.95
253.968	36.52
254.185	-29.01
254.401	59.05
254.618	102.06
254.835	46.76
255.051	-6.49
255.268	116.39
255.484	173.74
255.701	32.43
255.917	149.16
256.134	30.38
256.351	140.97
256.567	-82.26
256.784	-2.39
257	22.19
257.217	79.53
257.433	71.34
257.65	48.81
257.866	44.71
258.082	-4.44
258.299	97.96
258.515	20.14
258.732	114.34
258.948	-6.49
259.165	32.43
259.381	-18.77
259.597	24.23
259.814	34.47
260.03	-10.58
260.246	11.95
260.463	48.81
260.679	69.29
260.895	24.23
261.112	57
261.328	-31.06
261.544	22.19
261.761	77.48
261.977	30.38
262.193	32.43
262.409	42.67
262.626	85.67
262.842	-2.39
263.058	42.67
263.274	38.57
263.49	116.39
263.707	26.28
263.923	87.72
264.139	-53.59
264.355	30.38
264.571	169.64
264.787	44.71
265.004	52.91
265.22	69.29
265.436	28.33
265.652	77.48
265.868	63.15
266.084	1.71
266.3	7.85
266.516	-31.06
266.732	79.53
266.948	28.33
267.164	50.86
267.38	-10.58
267.596	50.86
267.812	120.49
268.028	30.38
268.244	32.43
268.46	-35.16
268.676	-35.16
268.892	13.99
269.108	-14.68
269.324	-26.96
269.54	63.15
269.756	69.29
269.972	-18.77
270.188	93.87
270.403	63.15
270.619	81.58
270.835	77.48
271.051	67.24
271.267	22.19
271.483	65.19
271.698	59.05
271.914	36.52
272.13	91.82
272.346	3.75
272.562	63.15
272.777	36.52
272.993	28.33
273.209	22.19
273.425	67.24
273.64	9.9
273.856	97.96
274.072	-2.39
274.287	28.33
274.503	61.1
274.719	75.43
274.934	20.14
275.15	5.8
275.366	77.48
275.581	38.57
275.797	48.81
276.012	-12.63
276.228	28.33
276.444	52.91
276.659	71.34
276.875	3.75
277.09	-31.06
277.306	75.43
277.521	73.39
277.737	91.82
277.952	67.24
278.168	61.1
278.383	128.68
278.599	-4.44
278.814	54.95
279.03	36.52
279.245	104.11
279.461	61.1
279.676	42.67
279.892	-76.12
280.107	9.9
280.322	-10.58
280.538	83.63
280.753	59.05
280.969	71.34
281.184	81.58
281.399	59.05
281.615	30.38
281.83	79.53
282.045	-22.87
282.26	-37.2
282.476	69.29
282.691	83.63
282.906	3.75
283.122	30.38
283.337	5.8
283.552	-29.01
283.767	-6.49
283.983	50.86
284.198	-10.58
284.413	95.91
284.628	-51.54
284.843	36.52
285.058	38.57
285.274	83.63
285.489	28.33
285.704	22.19
285.919	20.14
286.134	79.53
286.349	38.57
286.564	-0.34
286.779	93.87
286.995	71.34
287.21	11.95
287.425	52.91
287.64	52.91
287.855	52.91
288.07	44.71
288.285	24.23
288.5	11.95
288.715	-2.39
288.93	34.47
289.145	54.95
289.36	59.05
289.575	46.76
289.79	85.67
290.004	36.52
290.219	75.43
290.434	11.95
290.649	30.38
290.864	44.71
291.079	-2.39
291.294	89.77
291.509	28.33
291.724	52.91
291.938	7.85
292.153	65.19
292.368	13.99
292.583	73.39
292.798	50.86
293.012	42.67
293.227	28.33
293.442	79.53
293.657	24.23
293.871	85.67
294.086	77.48
294.301	71.34
294.516	30.38
294.73	20.14
294.945	-10.58
295.16	3.75
295.374	5.8
295.589	69.29
295.804	24.23
296.018	59.05
296.233	112.3
296.447	50.86
296.662	22.19
296.877	57
297.091	81.58
297.306	67.24
297.52	36.52
297.735	57
297.949	-4.44
298.164	79.53
298.378	-12.63
298.593	-14.68
298.807	-26.96
299.022	42.67
299.236	-2.39
299.451	59.05
299.665	-10.58
299.88	-31.06
300.094	63.15
300.309	22.19
300.523	30.38
300.737	69.29
300.952	28.33
301.166	104.11
301.381	-18.77
301.595	57
301.809	-10.58
302.024	26.28
302.238	36.52
302.452	83.63
302.667	85.67
302.881	120.49
303.095	46.76
303.309	95.91
303.524	5.8
303.738	89.77
303.952	-6.49
304.166	52.91
304.381	110.25
304.595	136.87
304.809	13.99
305.023	61.1
305.237	36.52
305.452	50.86
305.666	54.95
305.88	87.72
306.094	126.63
306.308	75.43
306.522	30.38
306.736	63.15
306.95	38.57
307.164	-6.49
307.379	-22.87
307.593	71.34
307.807	5.8
308.021	22.19
308.235	104.11
308.449	5.8
308.663	42.67
308.877	104.11
309.091	9.9
309.305	95.91
309.519	95.91
309.733	1.71
309.947	34.47
310.161	100.01
310.374	-16.73
310.588	106.15
310.802	22.19
311.016	-24.92
311.23	3.75
311.444	-6.49
311.658	44.71
311.872	44.71
312.085	61.1
312.299	13.99
312.513	13.99
312.727	128.68
312.941	93.87
313.154	79.53
313.368	54.95
313.582	-35.16
313.796	85.67
314.009	46.76
314.223	83.63
314.437	71.34
314.651	26.28
314.864	42.67
315.078	-72.02
315.292	-33.11
315.505	30.38
315.719	52.91
315.933	-59.73
316.146	20.14
316.36	5.8
316.573	87.72
316.787	57
317.001	42.67
317.214	11.95
317.428	36.52
317.641	5.8
317.855	67.24
318.068	20.14
318.282	83.63
318.495	91.82
318.709	52.91
318.922	93.87
319.136	83.63
319.349	-2.39
319.563	38.57
319.776	9.9
319.99	-59.73
320.203	67.24
320.417	40.62
320.63	52.91
320.843	114.34
321.057	95.91
321.27	34.47
321.483	63.15
321.697	95.91
321.91	7.85
322.124	65.19
322.337	32.43
322.55	-29.01
322.763	136.87
322.977	38.57
323.19	116.39
323.403	32.43
323.617	52.91
323.83	93.87
324.043	5.8
324.256	104.11
324.469	-47.44
324.683	50.86
324.896	79.53
325.109	79.53
325.322	30.38
325.535	87.72
325.748	91.82
325.962	38.57
326.175	13.99
326.388	75.43
326.601	102.06
326.814	48.81
327.027	52.91
327.24	93.87
327.453	-24.92
327.666	52.91
327.879	38.57
328.092	63.15
328.305	7.85
328.518	46.76
328.731	54.95
328.944	65.19
329.157	26.28
329.37	18.09
329.583	54.95
329.796	104.11
330.009	7.85
330.222	42.67
330.435	95.91
330.648	69.29
330.861	57
331.073	95.91
331.286	73.39
331.499	30.38
331.712	34.47
331.925	-33.11
332.138	13.99
332.35	108.2
332.563	36.52
332.776	59.05
332.989	-22.87
333.202	24.23
333.414	71.34
333.627	85.67
333.84	87.72
334.053	50.86
334.265	71.34
334.478	59.05
334.691	32.43
334.903	44.71
335.116	3.75
335.329	46.76
335.541	110.25
335.754	87.72
335.966	54.95
336.179	52.91
336.392	13.99
336.604	50.86
336.817	59.05
337.029	24.23
337.242	87.72
337.454	71.34
337.667	46.76
337.88	59.05
338.092	48.81
338.305	26.28
338.517	-33.11
338.729	40.62
338.942	93.87
339.154	59.05
339.367	32.43
339.579	75.43
339.792	77.48
340.004	38.57
340.217	102.06
340.429	-10.58
340.641	46.76
340.854	71.34
341.066	69.29
341.278	79.53
341.491	85.67
341.703	128.68
341.915	18.09
342.128	95.91
342.34	71.34
342.552	20.14
342.764	85.67
342.977	71.34
343.189	46.76
343.401	20.14
343.613	-20.82
343.826	-12.63
344.038	40.62
344.25	59.05
344.462	11.95
344.674	30.38
344.886	36.52
345.099	16.04
345.311	75.43
345.523	18.09
345.735	-18.77
345.947	122.54
346.159	102.06
346.371	59.05
346.583	24.23
346.795	155.3
347.007	16.04
347.219	65.19
347.431	44.71
347.643	126.63
347.855	16.04
348.067	173.74
348.279	24.23
348.491	57
348.703	71.34
348.915	22.19
349.127	-31.06
349.339	13.99
349.551	18.09
349.763	20.14
349.975	-18.77
350.187	91.82
350.399	59.05
350.61	110.25
350.822	-37.2
351.034	42.67
351.246	36.52
351.458	83.63
351.669	44.71
351.881	54.95
352.093	54.95
352.305	77.48
352.517	26.28
352.728	75.43
352.94	63.15
353.152	28.33
353.363	26.28
353.575	38.57
353.787	112.3
353.999	100.01
354.21	147.11
354.422	-0.34
354.633	34.47
354.845	71.34
355.057	100.01
355.268	104.11
355.48	147.11
355.692	65.19
355.903	59.05
356.115	24.23
356.326	26.28
356.538	71.34
356.749	83.63
356.961	95.91
357.172	57
357.384	28.33
357.595	77.48
357.807	16.04
358.018	28.33
358.23	116.39
358.441	114.34
358.653	75.43
358.864	32.43
359.075	11.95
359.287	30.38
359.498	38.57
359.709	77.48
359.921	63.15
360.132	-22.87
360.344	1.71
360.555	50.86
360.766	54.95
360.977	7.85
361.189	104.11
361.4	28.33
361.611	52.91
361.823	30.38
362.034	20.14
362.245	-14.68
362.456	100.01
362.667	13.99
362.879	20.14
363.09	20.14
363.301	61.1
363.512	46.76
363.723	30.38
363.935	63.15
364.146	24.23
364.357	44.71
364.568	126.63
364.779	1.71
364.99	122.54
365.201	54.95
365.412	46.76
365.623	67.24
365.834	50.86
366.045	114.34
366.256	145.06
366.467	77.48
366.678	24.23
366.889	116.39
367.1	36.52
367.311	85.67
367.522	28.33
367.733	79.53
367.944	126.63
368.155	48.81
368.366	145.06
368.577	-10.58
368.788	95.91
368.999	3.75
369.209	30.38
369.42	118.44
369.631	134.82
369.842	59.05
370.053	48.81
370.264	120.49
370.474	44.71
370.685	13.99
370.896	42.67
371.107	214.7
371.317	114.34
371.528	77.48
371.739	89.77
371.95	28.33
372.16	128.68
372.371	48.81
372.582	69.29
372.792	38.57
373.003	44.71
373.214	71.34
373.424	95.91
373.635	79.53
373.846	85.67
374.056	3.75
374.267	48.81
374.477	42.67
374.688	65.19
374.898	79.53
375.109	95.91
375.319	67.24
375.53	100.01
375.74	46.76
375.951	89.77
376.161	106.15
376.372	134.82
376.582	-35.16
376.793	65.19
377.003	9.9
377.214	50.86
377.424	71.34
377.635	83.63
377.845	71.34
378.055	112.3
378.266	44.71
378.476	89.77
378.686	24.23
378.897	48.81
379.107	87.72
379.317	69.29
379.528	75.43
379.738	102.06
379.948	52.91
380.158	85.67
380.369	32.43
380.579	83.63
380.789	-2.39
380.999	67.24
381.21	65.19
381.42	147.11
381.63	161.45
381.84	71.34
382.05	42.67
382.261	87.72
382.471	83.63
382.681	-35.16
382.891	120.49
383.101	11.95
383.311	3.75
383.521	54.95
383.731	112.3
383.941	128.68
384.151	50.86
384.361	61.1
384.571	91.82
384.781	77.48
384.991	145.06
385.201	134.82
385.411	18.09
385.621	65.19
385.831	11.95
386.041	100.01
386.251	61.1
386.461	54.95
386.671	1.71
386.881	11.95
387.091	48.81
387.301	83.63
387.511	3.75
387.72	69.29
387.93	134.82
388.14	3.75
388.35	52.91
388.56	120.49
388.769	69.29
388.979	50.86
389.189	-4.44
389.399	120.49
389.609	67.24
389.818	89.77
390.028	28.33
390.238	93.87
390.447	20.14
390.657	100.01
390.867	-18.77
391.076	75.43
391.286	157.35
391.496	28.33
391.705	91.82
391.915	108.2
392.125	110.25
392.334	40.62
392.544	50.86
392.753	106.15
392.963	120.49
393.172	5.8
393.382	18.09
393.591	85.67
393.801	116.39
394.01	183.98
394.22	44.71
394.429	42.67
394.639	122.54
394.848	145.06
395.058	54.95
395.267	36.52
395.477	87.72
395.686	112.3
395.895	124.58
396.105	214.7
396.314	81.58
396.524	196.26
396.733	149.16
396.942	186.02
397.152	149.16
397.361	153.26
397.57	132.78
397.78	112.3
397.989	116.39
398.198	204.46
398.407	128.68
398.617	13.99
398.826	126.63
399.035	75.43
399.244	81.58
399.453	116.39
399.663	79.53
399.872	190.12
400.081	28.33
400.29	153.26
400.499	122.54
400.708	167.59
400.917	140.97
401.127	136.87
401.336	110.25
401.545	149.16
401.754	186.02
401.963	87.72
402.172	153.26
402.381	104.11
402.59	95.91
402.799	71.34
403.008	143.02
403.217	192.17
403.426	136.87
403.635	118.44
403.844	173.74
404.053	128.68
404.262	112.3
404.471	204.46
404.68	143.02
404.888	161.45
405.097	110.25
405.306	140.97
405.515	128.68
405.724	151.21
405.933	190.12
406.142	188.07
406.35	167.59
406.559	192.17
406.768	181.93
406.977	198.31
407.185	216.74
407.394	280.23
407.603	126.63
407.812	247.46
408.02	202.41
408.229	298.66
408.438	210.6
408.646	249.51
408.855	204.46
409.064	290.47
409.272	263.85
409.481	278.18
409.69	245.41
409.898	308.9
410.107	366.25
410.315	341.67
410.524	378.53
410.733	370.34
410.941	366.25
411.15	419.49
411.358	388.77
411.567	476.84
411.775	333.48
411.984	433.83
412.192	429.73
412.401	480.93
412.609	472.74
412.818	505.51
413.026	452.26
413.234	437.92
413.443	505.51
413.651	534.18
413.86	632.48
414.068	585.38
414.276	593.57
414.485	609.95
414.693	669.34
414.901	695.97
415.11	677.54
415.318	730.78
415.526	743.07
415.734	847.52
415.943	784.03
416.151	915.1
416.359	814.75
416.567	865.95
416.776	915.1
416.984	982.68
417.192	1019.55
417.4	951.96
417.608	974.49
417.817	1029.79
418.025	1087.13
418.233	1091.23
418.441	1160.86
418.649	1171.1
418.857	1259.16
419.065	1398.42
419.273	1275.54
419.481	1306.26
419.689	1517.2
419.897	1504.92
420.105	1580.69
420.313	1578.64
420.521	1658.51
420.729	1646.23
420.937	1666.71
421.145	1633.94
421.353	1797.78
421.561	1967.76
421.769	1947.28
421.977	1994.38
422.185	2000.52
422.393	2147.98
422.601	2143.88
422.809	2299.53
423.017	2264.71
423.224	2354.82
423.432	2494.08
423.64	2567.81
423.848	2844.29
424.056	2614.91
424.263	2920.06
424.471	2832
424.679	2879.1
424.887	2983.55
425.094	3206.78
425.302	3171.96
425.51	3296.89
425.718	3452.53
425.925	3397.24
426.133	3585.65
426.341	3786.35
426.548	3962.48
426.756	3970.67
426.964	4019.82
427.171	4085.36
427.379	4349.54
427.586	4433.51
427.794	4517.48
428.001	4546.15
428.209	4925.02
428.417	4836.96
428.624	5256.79
428.832	5193.31
429.039	5133.92
429.247	5181.02
429.454	5674.58
429.662	6053.45
429.869	5647.96
430.076	6102.61
430.284	5729.88
430.491	6278.73
430.699	6512.2
430.906	6415.94
431.114	6469.19
431.321	6811.2
431.528	6856.26
431.736	7482.94
431.943	7829.04
432.15	7519.8
432.358	7558.71
432.565	7945.78
432.772	7988.78
432.979	8298.03
433.187	8433.19
433.394	8525.35
433.601	8959.52
433.808	9102.88
434.016	9180.7
434.223	9500.19
434.43	9903.64
434.637	9860.63
434.844	10561.03
435.052	10647.05
435.259	10743.3
435.466	10782.21
435.673	10702.34
435.88	11372.03
436.087	11802.1
436.294	12135.92
436.501	11630.07
436.708	11937.27
436.915	12310
437.122	12821.99
437.329	12797.42
437.537	13202.91
437.743	13477.34
437.95	13424.09
438.157	13999.57
438.364	14511.57
438.571	14575.05
438.778	14552.52
438.985	16092.6
439.192	15388.1
439.399	15705.53
439.606	15531.45
439.813	16473.52
440.02	17345.95
440.227	17135.01
440.433	17120.68
440.64	17370.53
440.847	17264.04
441.054	17534.37
441.261	18916.75
441.467	18568.59
441.674	18965.9
441.881	19867
442.088	19740.03
442.294	19713.41
442.501	20202.87
442.708	20180.34
442.914	21249.38
443.121	22373.72
443.328	21714.27
443.534	22773.07
443.741	22226.26
443.948	22027.61
444.154	23737.66
444.361	23502.15
444.568	23821.63
444.774	23512.39
444.981	23872.83
445.187	25218.35
445.394	25759.01
445.6	25730.34
445.807	27921.66
446.013	26914.06
446.22	27022.61
446.426	28538.1
446.633	28493.05
446.839	29412.59
447.046	28245.24
447.252	29891.81
447.459	29807.84
447.665	29613.29
447.871	30854.36
448.078	32054.47
448.284	30631.13
448.491	31737.03
448.697	33098.93
448.903	33492.14
449.11	33449.13
449.316	32943.28
449.522	33547.43
449.728	34315.42
449.935	34526.36
450.141	34401.44
450.347	35576.97
450.553	34307.23
450.76	34749.59
450.966	35724.43
451.172	35085.46
451.378	36273.28
451.584	35452.05
451.791	36732.03
451.997	36117.64
452.203	36449.41
452.409	36707.45
452.615	36686.97
452.821	35085.46
453.027	34698.39
453.233	36684.92
453.44	35259.54
453.646	35363.98
453.852	35835.02
454.058	36207.75
454.264	34827.42
454.47	35558.54
454.676	35245.2
454.882	36412.54
455.088	32711.86
455.294	33438.89
455.5	33770.66
455.705	34258.08
455.911	32912.56
456.117	31786.18
456.323	31675.59
456.529	29695.21
456.735	31284.43
456.941	30487.77
457.147	29674.73
457.352	29226.22
457.558	28837.11
457.764	28589.3
457.97	28380.41
458.176	27385.1
458.381	27452.68
458.587	25931.04
458.793	25904.42
458.999	24749.36
459.204	26486.04
459.41	25769.25
459.616	23919.93
459.821	24073.53
460.027	24018.24
460.233	23188.81
460.438	22191.45
460.644	22639.95
460.85	21521.76
461.055	21345.64
461.261	21069.16
461.466	19377.54
461.672	19230.09
461.878	20217.21
462.083	18974.09
462.289	18597.26
462.494	18435.47
462.7	17767.84
462.905	17493.41
463.111	17644.96
463.316	17913.24
463.522	17479.07
463.727	17440.16
463.932	17517.98
464.138	17085.86
464.343	17405.35
464.549	16567.73
464.754	17298.85
464.959	17243.56
465.165	16819.63
465.37	16340.4
465.575	15803.83
465.781	16704.94
465.986	16737.71
466.191	16367.02
466.397	15820.22
466.602	15054.28
466.807	15435.2
467.012	15564.22
467.218	15486.4
467.423	15158.72
467.628	15463.87
467.833	15945.14
468.038	15566.27
468.244	14915.02
468.449	15424.96
468.654	15054.28
468.859	15111.62
469.064	14749.13
469.269	14339.54
469.474	14208.47
469.679	14630.35
469.885	14136.79
470.09	14425.55
470.295	14136.79
470.5	13678.04
470.705	14114.26
470.91	13719
471.115	13649.37
471.32	13749.72
471.525	13630.94
471.73	13456.86
471.935	13231.58
472.139	12967.4
472.344	13155.81
472.549	12944.87
472.754	12885.48
472.959	12793.32
473.164	12385.77
473.369	12185.07
473.574	12375.53
473.778	12461.55
473.983	12232.18
474.188	12199.41
474.393	11738.62
474.598	11621.88
474.802	11341.31
475.007	11679.22
475.212	11470.33
475.417	11195.9
475.621	11111.94
475.826	11220.48
476.031	11083.27
476.235	10731.01
476.44	10866.18
476.645	10808.84
476.849	10724.87
477.054	10323.47
477.259	10475.02
477.463	10348.04
477.668	10147.34
477.872	10384.91
478.077	9967.12
478.282	9899.54
478.486	9582.1
478.691	9834
478.895	9872.92
479.1	9569.82
479.304	9580.06
479.509	9246.24
479.713	9457.18
479.918	9252.38
480.122	9129.5
480.326	9283.1
480.531	9197.09
480.735	9229.85
480.94	9076.26
481.144	9422.36
481.348	8992.29
481.553	9031.2
481.757	8924.71
481.961	9055.78
482.166	9020.96
482.37	8930.85
482.574	8945.19
482.778	8801.83
482.983	9270.81
483.187	8906.27
483.391	9111.07
483.595	8916.51
483.8	8877.6
484.004	8992.29
484.208	9061.92
484.412	8871.46
484.616	8795.68
484.821	9147.94
485.025	8914.47
485.229	9121.31
485.433	8861.22
485.637	8955.43
485.841	8717.86
486.045	8922.66
486.249	8795.68
486.453	8717.86
486.657	8881.7
486.861	9041.44
487.065	8662.57
487.269	8844.84
487.473	8889.89
487.677	8885.8
487.881	8885.8
488.085	8881.7
488.289	8934.95
488.493	8918.56
488.697	8850.98
488.901	8703.53
489.105	9008.67
489.309	8885.8
489.512	8963.62
489.716	9072.16
489.92	9035.3
490.124	8926.75
490.328	9203.23
490.531	8953.38
490.735	8959.52
490.939	9231.9
491.143	9135.65
491.346	9127.46
491.55	9354.78
491.754	9410.08
491.958	9461.27
492.161	9180.7
492.365	9496.09
492.569	9211.42
492.772	9440.79
492.976	9514.52
493.18	9397.79
493.383	9672.22
493.587	9811.48
493.79	9733.65
493.994	9688.6
494.197	9782.81
494.401	9823.76
494.605	9803.29
494.808	10057.23
495.012	10145.3
495.215	10176.02
495.419	10475.02
495.622	10302.99
495.825	10229.26
496.029	10368.52
496.232	10526.22
496.436	10493.45
496.639	10833.41
496.843	10886.66
497.046	10905.09
497.249	11142.66
497.453	11095.55
497.656	11171.33
497.859	11277.82
498.063	11625.98
498.266	11509.24
498.469	11576.83
498.673	11695.61
498.876	11666.94
499.079	12056.05
499.282	11834.87
499.485	12146.16
499.689	12125.68
499.892	12549.61
500.095	12598.76
500.298	12692.97
500.501	12389.87
500.705	13051.36
500.908	13149.67
501.111	13147.62
501.314	13489.63
501.517	13546.97
501.72	13686.23
501.923	13641.18
502.126	14079.44
502.329	14056.92
502.532	14165.46
502.735	14298.58
502.938	14912.97
503.141	14783.95
503.344	14908.87
503.547	14888.39
503.75	15273.41
503.953	15543.74
504.156	15750.59
504.359	15623.61
504.562	15898.04
504.765	15820.22
504.968	16211.38
505.17	16588.21
505.373	16307.63
505.576	16539.05
505.779	16848.3
505.982	17141.16
506.185	17315.23
506.387	17395.11
506.59	17415.58
506.793	17749.4
506.996	17806.75
507.198	18378.13
507.401	18132.37
507.604	18408.85
507.807	18707.85
508.009	18771.34
508.212	18914.7
508.415	19258.76
508.617	19414.4
508.82	19410.31
509.022	19453.31
509.225	20014.46
509.428	20049.27
509.63	20260.21
509.833	20249.97
510.035	20946.28
510.238	20602.22
510.44	21083.5
510.643	21402.98
510.845	21413.22
511.048	21222.76
511.25	21900.64
511.453	21925.21
511.655	22355.29
511.858	22234.46
512.06	22598.99
512.262	22822.22
512.465	22873.42
512.667	23321.93
512.87	23422.28
513.072	23577.92
513.274	23858.49
513.477	24190.27
513.679	24046.91
513.881	24747.31
514.084	24923.44
514.286	24808.75
514.488	25163.05
514.69	25722.15
514.893	25650.47
515.095	25912.61
515.297	26064.16
515.499	26264.86
515.701	26932.5
515.904	26756.37
516.106	26965.26
516.308	27002.13
516.51	27890.95
516.712	27802.88
516.914	28011.78
517.116	28544.25
517.318	28151.04
517.52	28957.94
517.722	28783.86
517.925	29291.76
518.127	29365.48
518.329	29789.41
518.531	29879.52
518.733	29975.78
518.935	30741.72
519.136	30330.08
519.338	31130.83
519.54	30868.69
519.742	31497.42
519.944	31612.1
520.146	31720.65
520.348	32056.51
520.55	32496.83
520.752	32459.96
520.954	32810.17
521.155	32824.5
521.357	33354.93
521.559	33447.08
521.761	34065.57
521.963	34180.26
522.164	34210.98
522.366	34614.43
522.568	34536.6
522.77	35075.22
522.971	35388.56
523.173	35347.6
523.375	35925.13
523.576	35769.48
523.778	36238.47
523.98	36461.69
524.181	36818.04
524.383	37004.41
524.584	36949.11
524.786	37160.05
524.988	37231.73
525.189	37227.63
525.391	37839.98
525.592	38132.84
525.794	38538.33
525.995	38337.63
526.197	38302.82
526.398	38632.54
526.6	39177.3
526.801	39799.88
527.003	39664.72
527.204	39494.74
527.406	39830.6
527.607	39861.32
527.808	40504.38
528.01	39421.01
528.211	40141.89
528.412	40868.92
528.614	40940.6
528.815	40451.14
529.016	41272.37
529.218	40653.89
529.419	41159.73
529.62	41239.61
529.822	41407.54
530.023	41393.2
530.224	41337.91
530.425	41659.44
530.626	41358.39
530.828	41514.03
531.029	42499.11
531.23	41708.59
531.431	41851.95
531.632	42351.65
531.833	42826.78
532.035	42032.17
532.236	42224.68
532.437	42511.39
532.638	42533.92
532.839	42986.52
533.04	43037.72
533.241	42605.6
533.442	43285.53
533.643	43140.12
533.844	43043.87
534.045	43007
534.246	42449.95
534.447	43187.22
534.648	42890.27
534.849	43607.06
535.05	43328.53
535.251	43240.47
535.451	43406.36
535.652	43353.11
535.853	43263
536.054	43666.45
536.255	43592.72
536.456	43240.47
536.657	43740.18
536.857	43299.86
537.058	42953.76
537.259	43525.14
537.46	43691.02
537.66	43285.53
537.861	43662.35
538.062	43273.24
538.263	43596.82
538.463	43295.77
538.664	43506.71
538.865	43445.27
539.065	44194.82
539.266	43451.41
539.466	43705.36
539.667	43199.51
539.868	44174.34
540.068	43727.89
540.269	43953.16
540.469	43910.16
540.67	43199.51
540.87	43525.14
541.071	43504.66
541.271	43781.13
541.472	43508.75
541.672	43674.64
541.873	42806.3
542.073	43232.28
542.274	43379.73
542.474	43662.35
542.675	43330.58
542.875	43965.45
543.075	43580.43
543.276	42988.57
543.476	43717.65
543.676	43121.69
543.877	43402.26
544.077	43645.97
544.277	43551.76
544.478	43402.26
544.678	43473.94
544.878	43322.39
545.078	43379.73
545.279	42785.82
545.479	43353.11
545.679	43451.41
545.879	43441.17
546.079	43172.89
546.28	43310.1
546.48	42949.66
546.68	43375.64
546.88	43219.99
547.08	43250.71
547.28	43062.3
547.48	42634.27
547.68	43064.35
547.88	42990.62
548.081	43226.14
548.281	43258.9
548.481	42994.71
548.681	43375.64
548.881	42779.68
549.081	43285.53
549.28	42900.51
549.48	43240.47
549.68	43011.1
549.88	43842.57
550.08	42896.41
550.28	43189.27
550.48	43232.28
550.68	43461.65
550.88	42785.82
551.08	43047.96
551.279	43283.48
551.479	42759.2
551.679	42933.28
551.879	42961.95
552.079	42902.56
552.278	42966.04
552.478	43076.63
552.678	42697.76
552.878	43185.18
553.077	42994.71
553.277	42775.58
553.477	43125.78
553.676	42365.99
553.876	42609.7
554.076	42634.27
554.275	42794.01
554.475	42044.46
554.674	42900.51
554.874	42546.21
555.074	42167.34
555.273	42214.44
555.473	42597.41
555.672	42597.41
555.872	42329.12
556.071	42398.76
556.271	42142.76
556.47	42138.66
556.67	41802.8
556.869	41913.39
557.068	42296.36
557.268	41544.75
557.467	41583.66
557.667	42044.46
557.866	41747.5
558.065	41940.01
558.265	41522.23
558.464	41311.28
558.663	41466.93
558.863	41282.61
559.062	41368.63
559.261	40895.55
559.461	41503.79
559.66	40856.64
559.859	40883.26
560.058	40811.58
560.258	41253.94
560.457	40444.99
560.656	41366.58
560.855	40574.02
561.054	40920.12
561.253	40074.31
561.453	40424.51
561.652	40205.38
561.851	40463.43
562.05	39830.6
562.249	40010.82
562.448	39838.79
562.647	39902.28
562.846	39738.44
563.045	39795.79
563.244	39404.63
563.443	39791.69
563.642	39083.09
563.841	39050.33
564.04	38925.4
564.239	39158.87
564.438	38661.21
564.637	39042.13
564.836	39089.24
565.035	38577.25
565.234	38618.21
565.432	38700.12
565.631	38366.31
565.83	38001.77
566.029	37954.66
566.228	38517.85
566.427	37923.94
566.625	37569.65
566.824	37485.68
567.023	37817.45
567.222	36889.72
567.42	37561.45
567.619	37491.82
567.818	36969.59
568.016	37188.72
568.215	37350.51
568.414	36971.64
568.612	37250.16
568.811	36621.44
569.01	36363.39
569.208	36480.13
569.407	36547.71
569.605	36166.79
569.804	36486.27
570.002	36318.34
570.201	36181.12
570.4	35495.05
570.598	35847.3
570.797	35396.75
570.995	35951.75
571.193	34976.92
571.392	35378.32
571.59	34751.64
571.789	35175.57
571.987	34964.63
572.186	34540.7
572.384	34522.27
572.582	34471.07
572.781	34503.84
572.979	33885.35
573.177	34296.99
573.376	34546.84
573.574	34026.66
573.772	34362.53
573.971	33635.5
574.169	33705.13
574.367	33377.45
574.565	33715.37
574.763	33432.75
574.962	33582.25
575.16	32629.94
575.358	33070.26
575.556	33090.74
575.754	33289.39
575.952	32718.01
576.151	32984.24
576.349	32459.96
576.547	32578.75
576.745	32353.47
576.943	32437.44
577.141	32320.7
577.339	32414.91
577.537	32228.54
577.735	31634.63
577.933	31823.05
578.131	32040.13
578.329	31937.73
578.527	31472.84
578.725	31507.66
578.923	31866.05
579.121	31386.83
579.319	31188.17
579.516	31153.36
579.714	30948.56
579.912	31040.72
580.11	30733.53
580.308	30840.02
580.506	30719.19
580.704	30280.92
580.901	30823.64
581.099	30696.66
581.297	30315.74
581.495	30285.02
581.692	30272.73
581.89	30049.5
582.088	30321.88
582.285	30026.98
582.483	30182.62
582.681	29635.81
582.878	29893.86
583.076	29654.25
583.274	29611.24
583.471	29035.76
583.669	29682.92
583.866	29091.05
584.064	29328.62
584.262	29234.41
584.459	29072.62
584.657	29078.77
584.854	29453.55
585.052	28398.84
585.249	28857.59
585.447	28703.99
585.644	28521.72
585.841	28318.97
586.039	28632.31
586.236	28187.9
586.434	28239.1
586.631	28050.69
586.828	28290.3
587.026	27882.75
587.223	27579.65
587.42	28202.24
587.618	27892.99
587.815	27147.53
588.012	27467.02
588.21	27182.35
588.407	27835.65
588.604	27102.48
588.801	26651.92
588.999	27223.31
589.196	26914.06
589.393	27014.41
589.59	26899.73
589.787	26856.72
589.984	26467.61
590.182	26510.61
590.379	26774.8
590.576	26111.26
590.773	26586.39
590.97	26131.74
591.167	26254.62
591.364	26029.34
591.561	26301.72
591.758	25703.71
591.955	26129.69
592.152	25814.3
592.349	25785.63
592.546	25888.03
592.743	25412.9
592.94	25101.61
593.137	25576.74
593.334	25842.98
593.531	24874.29
593.727	25648.42
593.924	25179.43
594.121	25335.08
594.318	25072.94
594.515	24806.7
594.712	24902.96
594.908	24698.16
595.105	25093.42
595.302	24526.13
595.499	24786.22
595.696	24603.96
595.892	24399.16
596.089	24329.53
596.286	23981.37
596.482	24442.17
596.679	24372.53
596.876	24239.42
597.072	23893.31
597.269	23985.47
597.466	23786.82
597.662	23821.63
597.859	23747.9
598.055	23567.68
598.252	23496
598.448	23336.26
598.645	23338.31
598.841	23299.4
599.038	23285.06
599.234	23434.57
599.431	22943.05
599.627	22889.81
599.824	22693.2
600.02	22805.84
600.217	22889.81
600.413	22785.36
600.609	22459.73
600.806	22541.65
601.002	22605.14
601.198	22297.94
601.395	22152.54
601.591	22424.92
601.787	22541.65
601.984	21910.88
602.18	22529.36
602.376	21880.16
602.572	21558.63
602.769	21818.72
602.965	21710.18
603.161	21966.17
603.357	21538.15
603.553	21624.16
603.75	21685.6
603.946	21343.59
604.142	21517.67
604.338	21288.29
604.534	21501.28
604.73	21189.99
604.926	21163.37
605.122	20958.57
605.318	20815.21
605.514	20895.08
605.71	20770.16
605.906	20852.08
606.102	20690.29
606.298	20729.2
606.494	20649.33
606.69	20546.93
606.886	20639.09
607.082	20090.23
607.278	20473.2
607.474	20190.58
607.67	20288.89
607.866	20217.21
608.062	20422
608.257	20141.43
608.453	20194.68
608.649	20235.64
608.845	19834.24
609.041	19998.07
609.236	19858.81
609.432	20012.41
609.628	19848.57
609.824	19824
610.019	19690.88
610.215	19355.01
610.411	19799.42
610.606	19572.1
610.802	19713.41
610.998	19490.18
611.193	19445.12
611.389	19133.83
611.584	19432.83
611.78	19170.69
611.976	19137.93
612.171	19303.81
612.367	19361.16
612.562	19238.28
612.758	18855.31
612.953	18873.74
613.149	19189.13
613.344	18947.47
613.539	19221.89
613.735	18875.79
613.93	18939.27
614.126	18931.08
614.321	18763.15
614.517	18836.88
614.712	18695.57
614.907	18593.17
615.103	18757
615.298	18705.81
615.493	18840.97
615.688	18480.53
615.884	18683.28
616.079	18251.16
616.274	18322.84
616.47	18120.09
616.665	18331.03
616.86	18195.86
617.055	18066.84
617.25	18140.57
617.445	18308.5
617.641	17800.6
617.836	18120.09
618.031	17849.75
618.226	17927.58
618.421	17905.05
618.616	18128.28
618.811	17608.09
619.006	17915.29
619.201	17610.14
619.396	17653.15
619.591	17386.91
619.786	17511.84
619.981	17092.01
620.176	17466.78
620.371	17145.25
620.566	17345.95
620.761	16946.6
620.956	17085.86
621.151	16750
621.346	16940.46
621.541	16627.12
621.735	17102.25
621.93	16598.45
622.125	16502.19
622.32	16117.17
622.515	16563.63
622.709	16049.59
622.904	16260.53
623.099	16317.87
623.294	16319.92
623.488	15814.07
623.683	16018.87
623.878	15674.81
624.072	15783.35
624.267	15840.7
624.462	15502.78
624.656	15044.04
624.851	15455.68
625.046	15410.62
625.24	15177.16
625.435	14980.55
625.629	15138.24
625.824	15021.51
626.018	15107.52
626.213	14605.77
626.407	15050.18
626.602	14423.5
626.796	14521.81
626.991	14603.72
627.185	14425.55
627.38	14353.87
627.574	14298.58
627.768	13931.99
627.963	14081.49
628.157	13936.09
628.352	14120.4
628.546	13970.9
628.74	13921.75
628.935	13764.06
629.129	13606.36
629.323	13463.01
629.517	13583.84
629.712	13233.63
629.906	13321.7
630.1	13274.59
630.294	13252.06
630.489	13120.99
630.683	13192.67
630.877	13024.74
631.071	12989.92
631.265	12989.92
631.459	12643.82
631.653	12750.31
631.848	12948.97
632.042	12834.28
632.236	12682.73
632.43	12539.37
632.624	12248.56
632.818	12375.53
633.012	12281.33
633.206	11974.13
633.4	12291.57
633.594	12072.43
633.788	12178.93
633.982	12039.67
634.176	11777.53
634.369	11853.3
634.563	11726.33
634.757	11705.85
634.951	11638.27
635.145	11830.77
635.339	11621.88
635.533	11628.03
635.726	11521.53
635.92	11423.23
636.114	11322.88
636.308	11410.94
636.501	11183.62
636.695	11376.13
636.889	10987.01
637.083	11306.49
637.276	10909.19
637.47	10968.58
637.664	10851.85
637.857	10794.5
638.051	10698.25
638.244	10456.59
638.438	10728.97
638.632	10667.53
638.825	10358.28
639.019	10479.11
639.212	10442.25
639.406	10548.75
639.599	10243.6
639.793	10411.53
639.986	10042.9
640.18	10255.89
640.373	9891.35
640.567	9934.36
640.76	10130.96
640.954	10042.9
641.147	9786.9
641.34	9930.26
641.534	9733.65
641.727	9930.26
641.92	9584.15
642.114	9467.42
642.307	9688.6
642.5	9664.02
642.694	9303.58
642.887	9399.84
643.08	9494.04
643.273	9344.54
643.467	9405.98
643.66	9250.33
643.853	9106.98
644.046	9154.08
644.239	9115.17
644.432	9096.74
644.626	9008.67
644.819	8906.27
645.012	9106.98
645.205	9010.72
645.398	8885.8
645.591	8844.84
645.784	8771.11
645.977	8592.94
646.17	8726.05
646.363	8504.87
646.556	8330.8
646.749	8492.59
646.942	8693.29
647.135	8433.19
647.328	8523.3
647.521	8252.97
647.714	8119.85
647.907	8472.11
648.099	8242.73
648.292	8226.35
648.485	8146.48
648.678	7974.45
648.871	8031.79
649.064	8033.84
649.256	8021.55
649.449	8046.13
649.642	7945.78
649.835	7870
650.027	7917.11
650.22	7831.09
650.413	7779.89
650.605	7681.59
650.798	7632.44
650.991	7515.7
651.183	7722.55
651.376	7556.66
651.568	7501.37
651.761	7597.62
651.954	7294.52
652.146	7310.91
652.339	7491.13
652.531	7413.31
652.724	7368.25
652.916	7175.74
653.109	7185.98
653.301	7108.16
653.494	7079.49
653.686	7042.62
653.879	7247.42
654.071	6956.61
654.263	7171.65
654.456	6944.32
654.648	7081.53
654.84	6833.73
655.033	6964.8
655.225	6733.38
655.417	6807.11
655.61	6745.67
655.802	6942.27
655.994	6749.76
656.186	6768.2
656.379	6501.96
656.571	6649.41
656.763	6426.18
656.955	6432.33
657.148	6585.93
657.34	6475.34
657.532	6551.11
657.724	6346.31
657.916	6319.69
658.108	6420.04
658.3	6260.3
658.492	6305.35
658.684	6325.83
658.876	6037.07
659.068	6170.19
659.26	6098.51
659.452	6053.45
659.644	6198.86
659.836	6188.62
660.028	6180.43
660.22	5899.86
660.412	5899.86
660.604	5987.92
660.796	5944.91
660.988	6016.59
661.18	5754.45
661.372	5893.71
661.563	5998.16
661.755	5998.16
661.947	5938.77
662.139	5795.41
662.331	5641.81
662.522	5848.66
662.714	5871.19
662.906	5822.03
663.097	5723.73
663.289	5514.84
663.481	5609.05
663.673	5631.57
663.864	5756.5
664.056	5645.91
664.247	5531.22
664.439	5654.1
664.631	5588.57
664.822	5607
665.014	5703.25
665.205	5467.74
665.397	5344.86
665.588	5391.96
665.78	5387.86
665.971	5443.16
666.163	5514.84
666.354	5475.93
666.546	5224.03
666.737	5260.89
666.929	5256.79
667.12	5248.6
667.311	5279.32
667.503	5217.88
667.694	5277.27
667.885	5164.64
668.077	5303.9
668.268	5113.44
668.459	5166.68
668.651	5219.93
668.842	5322.33
669.033	5172.83
669.224	5348.95
669.416	5213.79
669.607	5277.27
669.798	5142.11
669.989	5246.55
670.18	5174.88
670.371	5328.47
670.563	5043.81
670.754	5162.59
670.945	5068.38
671.136	5191.26
671.327	4961.89
671.518	5273.18
671.709	5109.34
671.9	5252.7
672.091	5240.41
672.282	5181.02
672.473	5150.3
672.664	5129.82
672.855	5066.33
673.046	5109.34
673.237	5242.46
673.428	5154.4
673.619	5031.52
673.809	5031.52
674	5230.17
674.191	5068.38
674.382	5228.12
674.573	5054.05
674.764	4992.61
674.954	5285.47
675.145	5107.29
675.336	5041.76
675.527	5148.25
675.717	5207.64
675.908	5148.25
676.099	5049.95
676.289	5152.35
676.48	5015.13
676.671	5043.81
676.861	5215.84
677.052	5260.89
677.243	5117.53
677.433	5260.89
677.624	5307.99
677.814	5232.22
678.005	5363.29
678.195	5176.92
678.386	5367.38
678.576	5402.2
678.767	5224.03
678.957	5262.94
679.148	5281.37
679.338	5199.45
679.529	5301.85
679.719	5332.57
679.909	5379.67
680.1	5346.91
680.29	5551.7
680.481	5383.77
680.671	5527.13
680.861	5340.76
681.052	5402.2
681.242	5461.59
681.432	5457.5
681.622	5295.71
681.813	5523.03
682.003	5420.63
682.193	5480.02
682.383	5510.74
682.573	5428.82
682.764	5469.78
682.954	5559.89
683.144	5398.1
683.334	5502.55
683.524	5432.92
683.714	5645.91
683.904	5551.7
684.094	5389.91
684.284	5598.81
684.474	5592.66
684.664	5516.89
684.854	5551.7
685.044	5443.16
685.234	5443.16
685.424	5533.27
685.614	5557.85
685.804	5527.13
685.994	5258.84
686.184	5428.82
686.374	5416.54
686.564	5344.86
686.753	5394.01
686.943	5289.56
687.133	5289.56
687.323	5396.06
687.513	5410.39
687.702	5363.29
687.892	5264.99
688.082	5232.22
688.272	5103.2
688.461	5193.31
688.651	5123.68
688.841	5140.06
689.03	5035.61
689.22	5070.43
689.41	5187.16
689.599	5002.85
689.789	4875.87
689.979	4912.74
690.168	4925.02
690.358	4882.02
690.547	4863.58
690.737	4839.01
690.926	4773.47
691.116	4685.41
691.305	4847.2
691.495	4761.19
691.684	4523.62
691.874	4718.18
692.063	4826.72
692.252	4634.21
692.442	4554.34
692.631	4339.3
692.82	4435.56
693.01	4435.56
693.199	4535.91
693.388	4431.46
693.578	4310.63
693.767	4431.46
693.956	4490.85
694.146	4302.44
694.335	4224.62
694.524	4394.6
694.713	4372.07
694.902	4312.68
695.092	4359.78
695.281	4281.96
695.47	4175.47
695.659	4171.37
695.848	4173.42
696.037	4230.76
696.226	4232.81
696.415	4208.23
696.604	4290.15
696.793	4212.33
696.982	4159.08
697.171	4097.64
697.36	4011.63
697.549	4177.51
697.738	4040.3
697.927	4085.36
698.116	4032.11
698.305	3976.81
698.494	4122.22
698.683	4032.11
698.872	4056.68
699.061	3950.19
699.25	4019.82
699.438	3882.61
699.627	4034.16
699.816	4103.79
700.005	3925.61
700.193	3849.84
700.382	3872.37
700.571	4089.45
700.76	4032.11
700.948	4003.44
701.137	3964.53
701.326	3968.62
701.514	4025.97
701.703	3921.52
701.892	3956.33
702.08	4134.51
702.269	4025.97
702.457	3956.33
702.646	3954.29
702.834	3929.71
703.023	3987.05
703.212	3903.09
703.4	4011.63
703.589	3915.37
703.777	4019.82
703.965	4003.44
704.154	3944.05
704.342	3954.29
704.531	4159.08
704.719	3898.99
704.907	4052.59
705.096	3958.38
705.284	4116.08
705.472	4011.63
705.661	4015.73
705.849	4079.21
706.037	4134.51
706.226	4120.17
706.414	4075.12
706.602	4232.81
706.79	4068.97
706.979	4056.68
707.167	4107.88
707.355	3919.47
707.543	4134.51
707.731	4173.42
707.919	4019.82
708.107	4171.37
708.296	4140.65
708.484	4093.55
708.672	4109.93
708.86	4204.14
709.048	4077.16
709.236	4197.99
709.424	4226.67
709.612	4327.02
709.8	4216.43
709.988	4359.78
710.176	4273.77
710.364	4345.45
710.551	4402.79
710.739	4273.77
710.927	4257.39
711.115	4347.5
711.303	4312.68
711.491	4349.54
711.679	4462.18
711.866	4435.56
712.054	4361.83
712.242	4396.65
712.43	4511.33
712.617	4394.6
712.805	4404.84
712.993	4345.45
713.181	4470.37
713.368	4509.29
713.556	4542.05
713.744	4478.57
713.931	4673.12
714.119	4523.62
714.306	4744.8
714.494	4769.38
714.682	4544.1
714.869	4683.36
715.057	4634.21
715.244	4466.28
715.432	4769.38
715.619	4605.54
715.807	4683.36
715.994	4763.23
716.182	4775.52
716.369	4740.71
716.556	4839.01
716.744	4853.34
716.931	4871.78
717.119	5027.42
717.306	4884.06
717.493	4800.1
717.681	4957.79
717.868	4789.86
718.055	4738.66
718.242	4892.26
718.43	4945.5
718.617	4988.51
718.804	5082.72
718.991	5000.8
719.179	5107.29
719.366	5105.24
719.553	5099.1
719.74	5164.64
719.927	5072.48
720.114	5117.53
720.301	5090.91
720.488	5127.77
720.676	5049.95
720.863	5228.12
721.05	5269.08
721.237	5318.23
721.424	5240.41
721.611	5117.53
721.798	5232.22
721.985	5240.41
722.172	5404.25
722.358	5252.7
722.545	5271.13
722.732	5178.97
722.919	5281.37
723.106	5471.83
723.293	5371.48
723.48	5359.19
723.667	5287.51
723.853	5340.76
724.04	5508.69
724.227	5461.59
724.414	5461.59
724.6	5404.25
724.787	5645.91
724.974	5557.85
725.161	5637.72
725.347	5598.81
725.534	5484.12
725.72	5584.47
725.907	5729.88
726.094	5574.23
726.28	5750.35
726.467	5650
726.653	5570.13
726.84	5643.86
727.027	5942.86
727.213	5527.13
727.4	5813.84
727.586	5617.24
727.773	5840.47
727.959	5699.16
728.145	5752.4
728.332	5664.34
728.518	5918.29
728.705	5936.72
728.891	5951.06
729.077	5867.09
729.264	5985.87
729.45	5940.82
729.636	6055.5
729.823	5867.09
730.009	5920.34
730.195	6153.8
730.382	6061.65
730.568	5899.86
730.754	6049.36
730.94	6088.27
731.126	6108.75
731.313	6035.02
731.499	6049.36
731.685	6104.65
731.871	5926.48
732.057	6061.65
732.243	6108.75
732.429	6039.12
732.615	6209.1
732.801	6020.69
732.987	6174.28
733.173	6182.48
733.359	6198.86
733.545	6098.51
733.731	6231.63
733.917	6123.09
734.103	6086.22
734.289	6073.93
734.475	6135.37
734.661	6073.93
734.847	6215.24
735.033	6297.16
735.219	6256.2
735.404	6202.96
735.59	6256.2
735.776	5942.86
735.962	6166.09
736.148	6059.6
736.333	6143.56
736.519	6288.97
736.705	6297.16
736.89	6166.09
737.076	6272.59
737.262	6127.18
737.447	6155.85
737.633	6135.37
737.819	6096.46
738.004	6182.48
738.19	6186.57
738.375	6248.01
738.561	6280.78
738.747	6071.89
738.932	6231.63
739.118	6235.72
739.303	6051.41
739.489	6276.68
739.674	6026.83
739.859	6250.06
740.045	5873.23
740.23	5946.96
740.416	5908.05
740.601	6061.65
740.786	6045.26
740.972	6051.41
741.157	5985.87
741.342	6010.45
741.528	5842.51
741.713	5858.9
741.898	5936.72
742.084	5885.52
742.269	5877.33
742.454	5928.53
742.639	6071.89
742.824	5967.44
743.01	5862.99
743.195	5789.27
743.38	5793.36
743.565	5703.25
743.75	5852.75
743.935	5684.82
744.12	5817.94
744.305	5598.81
744.49	5740.12
744.675	5738.07
744.86	5602.9
745.045	5641.81
745.23	5609.05
745.415	5604.95
745.6	5631.57
745.785	5670.48
745.97	5645.91
746.155	5422.68
746.34	5365.34
746.525	5473.88
746.71	5426.78
746.895	5482.07
747.079	5475.93
747.264	5279.32
747.449	5326.43
747.634	5279.32
747.819	5199.45
748.003	5267.03
748.188	5191.26
748.373	5043.81
748.557	5129.82
748.742	5148.25
748.927	5068.38
749.111	5008.99
749.296	4900.45
749.481	4841.06
749.665	4984.41
749.85	4812.39
750.034	4904.54
750.219	4890.21
750.404	4802.15
750.588	4683.36
750.773	4697.7
750.957	4654.69
751.141	4609.64
751.326	4787.81
751.51	4568.68
751.695	4617.83
751.879	4464.23
752.064	4552.29
752.248	4617.83
752.432	4499.05
752.617	4370.02
752.801	4335.21
752.985	4445.8
753.17	4281.96
753.354	4261.48
753.538	4290.15
753.722	4218.47
753.907	4077.16
754.091	4236.91
754.275	4118.12
754.459	4224.62
754.643	4058.73
754.828	3991.15
755.012	4126.32
755.196	3950.19
755.38	3901.04
755.564	3917.42
755.748	3855.98
755.932	3872.37
756.116	3835.5
756.3	3778.16
756.484	3763.83
756.668	3749.49
756.852	3718.77
757.036	3739.25
757.22	3585.65
757.404	3616.37
757.588	3706.48
757.772	3726.96
757.956	3561.08
758.14	3528.31
758.323	3450.49
758.507	3546.74
758.691	3387
758.875	3448.44
759.059	3370.62
759.242	3456.63
759.426	3415.67
759.61	3290.74
759.794	3225.21
759.977	3397.24
760.161	3294.84
760.345	3284.6
760.528	3305.08
760.712	3223.16
760.895	3171.96
761.079	3202.68
761.263	3200.63
761.446	3192.44
761.63	3151.48
761.813	3143.29
761.997	3100.28
762.18	3098.24
762.364	3028.6
762.547	2983.55
762.731	3020.41
762.914	2950.78
763.098	3020.41
763.281	2889.34
763.464	2938.49
763.648	2913.92
763.831	2897.53
764.015	2922.11
764.198	2889.34
764.381	2807.42
764.564	2983.55
764.748	2936.45
764.931	2786.94
765.114	2819.71
765.297	2760.32
765.481	2690.69
765.664	2748.03
765.847	2756.22
766.03	2662.02
766.213	2805.38
766.397	2674.31
766.58	2723.46
766.763	2555.52
766.946	2631.3
767.129	2711.17
767.312	2684.55
767.495	2586.24
767.678	2524.8
767.861	2702.98
768.044	2569.86
768.227	2664.07
768.41	2496.13
768.593	2559.62
768.776	2467.46
768.959	2471.56
769.142	2537.09
769.324	2473.6
769.507	2496.13
769.69	2477.7
769.873	2348.68
770.056	2371.21
770.239	2274.95
770.421	2430.6
770.604	2315.91
770.787	2260.62
770.97	2272.9
771.152	2320.01
771.335	2287.24
771.518	2326.15
771.7	2305.67
771.883	2248.33
772.066	2225.8
772.248	2246.28
772.431	2250.38
772.613	2217.61
772.796	2184.84
772.978	2301.58
773.161	2186.89
773.343	2205.32
773.526	2098.83
773.708	2051.72
773.891	2102.92
774.073	2094.73
774.256	2066.06
774.438	2045.58
774.621	1984.14
774.803	1994.38
774.985	1978
775.168	2061.96
775.35	2021
775.532	1955.47
775.715	1994.38
775.897	1891.98
776.079	1963.66
776.261	1906.32
776.444	1980.04
776.626	1869.45
776.808	1824.4
776.99	1687.18
777.173	1767.06
777.355	1795.73
777.537	1748.62
777.719	1711.76
777.901	1652.37
778.083	1584.79
778.265	1797.78
778.447	1722
778.629	1691.28
778.811	1762.96
778.993	1697.42
779.175	1668.75
779.357	1595.03
779.539	1611.41
779.721	1590.93
779.903	1685.14
780.085	1537.68
780.267	1549.97
780.449	1545.88
780.631	1468.05
780.812	1574.55
780.994	1453.72
781.176	1570.45
781.358	1474.2
781.54	1543.83
781.721	1562.26
781.903	1447.57
782.085	1439.38
782.267	1537.68
782.448	1291.93
782.63	1341.08
782.812	1369.75
782.993	1463.96
783.175	1427.09
783.357	1314.45
783.538	1349.27
783.72	1332.89
783.901	1298.07
784.083	1291.93
784.264	1283.74
784.446	1216.15
784.627	1144.47
784.809	1244.82
784.99	1205.91
785.172	1246.87
785.353	1242.78
785.535	1185.43
785.716	1187.48
785.897	1140.38
786.079	1123.99
786.26	1152.67
786.441	1070.75
786.623	1091.23
786.804	1134.23
786.985	1035.93
787.167	1173.14
787.348	1078.94
787.529	1070.75
787.71	1156.76
787.891	1046.17
788.073	1013.4
788.254	1003.16
788.435	1134.23
788.616	1013.4
788.797	954.01
788.978	992.92
789.159	1025.69
789.34	1050.27
789.522	1005.21
789.703	888.48
789.884	972.44
790.065	921.24
790.246	1011.36
790.427	908.96
790.607	997.02
790.788	1013.4
790.969	841.37
791.15	960.16
791.331	954.01
791.512	894.62
791.693	855.71
791.874	902.81
792.054	976.54
792.235	898.72
792.416	878.24
792.597	894.62
792.778	870.05
792.958	775.84
793.139	868
793.32	798.37
793.5	874.14
793.681	898.72
793.862	810.65
794.042	777.89
794.223	829.09
794.404	755.36
794.584	751.26
794.765	822.94
794.945	767.65
795.126	831.13
795.306	722.59
795.487	784.03
795.667	822.94
795.848	732.83
796.028	824.99
796.209	734.88
796.389	798.37
796.57	761.5
796.75	804.51
796.93	812.7
797.111	741.02
797.291	745.12
797.471	775.84
797.652	685.73
797.832	726.69
798.012	767.65
798.192	710.3
798.373	646.82
798.553	693.92
798.733	743.07
798.913	503.46
799.093	761.5
799.274	691.87
799.454	702.11
799.634	683.68
799.814	722.59
799.994	720.54
800.174	706.21
800.354	665.25
800.534	546.47
800.714	724.64
800.894	614.05
801.074	585.38
801.254	583.33
801.434	581.28
801.614	452.26
801.794	609.95
801.974	1289.88
802.154	624.29
802.334	650.91
802.514	528.03
802.693	595.62
802.873	603.81
803.053	534.18
803.233	534.18
803.413	620.19
803.592	509.6
803.772	562.85
803.952	523.94
804.131	530.08
804.311	550.56
804.491	583.33
804.67	515.75
804.85	482.98
805.03	571.04
805.209	546.47
805.389	538.27
805.568	554.66
805.748	505.51
805.928	413.35
806.107	562.85
806.287	538.27
806.466	458.4
806.646	513.7
806.825	515.75
807.004	452.26
807.184	501.41
807.363	552.61
807.543	525.99
807.722	521.89
807.901	579.23
808.081	480.93
808.26	519.84
808.439	439.97
808.619	390.82
808.798	403.11
808.977	470.69
809.156	519.84
809.336	472.74
809.515	366.25
809.694	454.31
809.873	470.69
810.052	399.01
810.231	505.51
810.411	450.21
810.59	448.16
810.769	405.16
810.948	417.44
811.127	413.35
811.306	497.32
811.485	429.73
811.664	470.69
811.843	435.88
812.022	329.38
812.201	448.16
812.38	446.12
812.559	439.97
812.737	403.11
812.916	394.92
813.095	421.54
813.274	374.44
813.453	417.44
813.632	444.07
813.811	435.88
813.989	396.96
814.168	394.92
814.347	358.05
814.526	444.07
814.704	431.78
814.883	421.54
815.062	366.25
815.24	372.39
815.419	315.05
815.598	308.9
815.776	366.25
815.955	394.92
816.133	296.61
816.312	321.19
816.49	306.85
816.669	446.12
816.847	382.63
817.026	388.77
817.204	351.91
817.383	282.28
817.561	269.99
817.74	337.57
817.918	429.73
818.097	347.81
818.275	296.61
818.453	298.66
818.632	417.44
818.81	435.88
818.988	302.76
819.167	323.24
819.345	304.81
819.523	304.81
819.701	333.48
819.879	378.53
820.058	364.2
820.236	333.48
820.414	288.42
820.592	341.67
820.77	300.71
820.948	339.62
821.127	261.8
821.305	294.57
821.483	253.61
821.661	343.72
821.839	292.52
822.017	261.8
822.195	306.85
822.373	331.43
822.551	267.94
822.729	267.94
822.907	313
823.085	351.91
823.262	315.05
823.44	263.85
823.618	267.94
823.796	214.7
823.974	276.13
824.152	272.04
824.329	276.13
824.507	284.33
824.685	175.78
824.863	202.41
825.04	286.37
825.218	308.9
825.396	235.18
825.574	259.75
825.751	243.37
825.929	298.66
826.107	280.23
826.284	300.71
826.462	308.9
826.639	200.36
826.817	229.03
826.994	280.23
827.172	190.12
827.349	241.32
827.527	235.18
827.704	218.79
827.882	239.27
828.059	243.37
828.237	241.32
828.414	267.94
828.591	157.35
828.769	251.56
828.946	241.32
829.124	276.13
829.301	224.94
829.478	235.18
829.655	276.13
829.833	206.5
830.01	231.08
830.187	284.33
830.364	132.78
830.542	190.12
830.719	308.9
830.896	194.22
831.073	253.61
831.25	251.56
831.427	181.93
831.604	163.5
831.782	198.31
831.959	200.36
832.136	198.31
832.313	276.13
832.49	175.78
832.667	243.37
832.844	177.83
833.021	198.31
833.198	192.17
833.374	204.46
833.551	143.02
833.728	190.12
833.905	284.33
834.082	165.54
834.259	134.82
834.436	214.7
834.612	173.74
834.789	222.89
834.966	239.27
835.143	212.65
835.319	126.63
835.496	206.5
835.673	200.36
835.85	253.61
836.026	198.31
836.203	288.42
836.38	161.45
836.556	104.11
836.733	200.36
836.909	360.1
837.086	136.87
837.262	190.12
837.439	159.4
837.616	186.02
837.792	153.26
837.968	159.4
838.145	87.72
838.321	171.69
838.498	153.26
838.674	212.65
838.851	204.46
839.027	177.83
839.203	114.34
839.38	222.89
839.556	136.87
839.732	140.97
839.909	155.3
840.085	198.31
840.261	77.48
840.437	214.7
840.614	157.35
840.79	253.61
840.966	102.06
841.142	118.44
841.318	108.2
841.494	104.11
841.671	206.5
841.847	63.15
842.023	95.91
842.199	183.98
842.375	149.16
842.551	128.68
842.727	194.22
842.903	165.54
843.079	118.44
843.255	147.11
843.431	69.29
843.607	153.26
843.783	-10.58
843.959	110.25
844.134	95.91
844.31	186.02
844.486	130.73
844.662	71.34
844.838	116.39
845.013	206.5
845.189	153.26
845.365	95.91
845.541	83.63
845.716	159.4
845.892	120.49
846.068	167.59
846.244	71.34
846.419	30.38
846.595	32.43
846.77	30.38
846.946	167.59
847.122	120.49
847.297	110.25
847.473	161.45
847.648	110.25
847.824	157.35
847.999	134.82
848.175	106.15
848.35	93.87
848.526	79.53
848.701	169.64
848.876	28.33
849.052	120.49
849.227	116.39
849.403	95.91
849.578	128.68
849.753	145.06
849.929	93.87
850.104	5.8
850.279	44.71
850.454	118.44
850.63	110.25
850.805	104.11
850.98	100.01
851.155	63.15
851.33	177.83
851.505	63.15
851.681	190.12
851.856	40.62
852.031	95.91
852.206	100.01
852.381	59.05
852.556	85.67
852.731	120.49
852.906	97.96
853.081	46.76
853.256	157.35
853.431	110.25
853.606	67.24
853.781	59.05
853.956	46.76
854.131	85.67
854.305	85.67
854.48	153.26
854.655	85.67
854.83	79.53
855.005	54.95
855.18	77.48
855.354	120.49
855.529	112.3
855.704	46.76
855.879	108.2
856.053	42.67
856.228	52.91
856.403	75.43
856.577	116.39
856.752	112.3
856.926	77.48
857.101	-8.53
857.276	89.77
857.45	38.57
857.625	136.87
857.799	69.29
857.974	59.05
858.148	44.71
858.323	112.3
858.497	5.8
858.672	83.63
858.846	-20.82
859.02	83.63
859.195	95.91
859.369	132.78
859.543	110.25
859.718	91.82
859.892	59.05
860.066	71.34
860.241	63.15
860.415	57
860.589	1.71
860.763	79.53
860.938	91.82
861.112	63.15
861.286	67.24
861.46	108.2
861.634	11.95
861.808	38.57
861.982	50.86
862.157	26.28
862.331	34.47
862.505	83.63
862.679	-2.39
862.853	63.15
863.027	97.96
863.201	114.34
863.375	52.91
863.549	87.72
863.722	30.38
863.896	120.49
864.07	26.28
864.244	116.39
864.418	46.76
864.592	114.34
864.766	52.91
864.939	28.33
865.113	71.34
865.287	63.15
865.461	-26.96
865.634	95.91
865.808	63.15
865.982	9.9
866.156	28.33
866.329	67.24
866.503	79.53
866.676	69.29
866.85	46.76
867.024	42.67
867.197	-6.49
867.371	85.67
867.544	104.11
867.718	-12.63
867.891	87.72
868.065	46.76
868.238	40.62
868.412	57
868.585	54.95
868.759	59.05
868.932	38.57
869.105	30.38
869.279	73.39
869.452	38.57
869.625	32.43
869.799	48.81
869.972	59.05
870.145	61.1
870.319	95.91
870.492	22.19
870.665	77.48
870.838	83.63
871.011	38.57
871.185	42.67
871.358	11.95
871.531	79.53
871.704	50.86
871.877	24.23
872.05	22.19
872.223	50.86
872.396	145.06
872.569	128.68
872.742	73.39
872.915	16.04
873.088	13.99
873.261	54.95
873.434	83.63
873.607	-45.4
873.78	38.57
873.953	5.8
874.126	48.81
874.299	91.82
874.471	-2.39
874.644	48.81
874.817	95.91
874.99	151.21
875.163	30.38
875.335	38.57
875.508	38.57
875.681	79.53
875.853	46.76
876.026	11.95
876.199	34.47
876.371	102.06
876.544	63.15
876.717	9.9
876.889	36.52
877.062	-39.25
877.234	26.28
877.407	-59.73
877.579	13.99
877.752	9.9
877.924	20.14
878.097	73.39
878.269	3.75
878.442	26.28
878.614	3.75
878.786	63.15
878.959	5.8
879.131	36.52
879.303	20.14
879.476	20.14
879.648	63.15
879.82	20.14
879.993	44.71
880.165	52.91
880.337	-35.16
880.509	104.11
880.681	46.76
880.854	48.81
881.026	71.34
881.198	57
881.37	71.34
881.542	22.19
881.714	11.95
881.886	-65.88
882.058	104.11
882.23	-4.44
882.402	13.99
882.574	71.34
882.746	120.49
882.918	-12.63
883.09	-31.06
883.262	34.47
883.434	46.76
883.606	5.8
883.778	-16.73
883.95	69.29
884.122	30.38
884.293	30.38
884.465	71.34
884.637	48.81
884.809	13.99
884.98	13.99
885.152	9.9
885.324	59.05
885.496	-4.44
885.667	11.95
885.839	52.91
886.011	61.1
886.182	42.67
886.354	24.23
886.525	5.8
886.697	79.53
886.869	-29.01
887.04	20.14
887.212	26.28
887.383	116.39
887.555	30.38
887.726	124.58
887.897	22.19
888.069	46.76
888.24	-78.16
888.412	13.99
888.583	61.1
888.754	38.57
888.926	-22.87
889.097	-39.25
889.268	-14.68
889.44	-2.39
889.611	71.34
889.782	57
889.953	22.19
890.125	106.15
890.296	13.99
890.467	38.57
890.638	-29.01
890.809	63.15
890.98	-18.77
891.151	11.95
891.323	46.76
891.494	40.62
891.665	116.39
891.836	5.8
892.007	-94.55
892.178	36.52
892.349	1.71
892.52	28.33
892.691	22.19
892.862	18.09
893.032	11.95
893.203	30.38
893.374	3.75
893.545	67.24
893.716	63.15
893.887	52.91
894.057	-26.96
894.228	-59.73
894.399	-61.78
894.57	95.91
894.74	3.75
894.911	46.76
895.082	38.57
895.253	20.14
895.423	36.52
895.594	22.19
895.764	87.72
895.935	48.81
896.106	52.91
896.276	38.57
896.447	-2.39
896.617	59.05
896.788	34.47
896.958	-14.68
897.129	1.71
897.299	-12.63
897.47	54.95
897.64	59.05
897.81	46.76
897.981	79.53
898.151	-10.58
898.322	1.71
898.492	28.33
898.662	-22.87
898.832	-4.44
899.003	30.38
899.173	95.91
899.343	44.71
899.513	-69.97
