Data from USB4F104151__68__11-31-04-908.txt Node

Date: Fri Mar 14 11:31:04 EDT 2025
User: louis
Spectrometer: USB4F10415
Trigger mode: 4
Integration Time (sec): 5.000000E-2
Scans to average: 1
Electric dark correction enabled: true
Nonlinearity correction enabled: false
Boxcar width: 0
XAxis mode: Wavelengths
Number of Pixels in Spectrum: 3648
>>>>>Begin Spectral Data<<<<<
178.204	-187.05
178.424	-187.05
178.644	-187.05
178.864	-94.89
179.084	-152.23
179.304	-10.92
179.524	3.41
179.744	40.28
179.964	66.9
180.184	-10.92
180.404	75.09
180.624	-6.83
180.844	-82.6
181.064	-117.42
181.283	7.51
181.503	-19.11
181.723	54.61
181.943	-111.27
182.163	58.71
182.383	38.23
182.602	146.77
182.822	54.61
183.042	75.09
183.262	62.8
183.482	120.15
183.701	52.56
183.921	48.47
184.141	5.46
184.361	27.99
184.58	85.33
184.8	62.8
185.02	27.99
185.239	114
185.459	15.7
185.679	71
185.898	-33.45
186.118	85.33
186.338	-6.83
186.557	42.32
186.777	5.46
186.997	46.42
187.216	13.65
187.436	85.33
187.655	19.8
187.875	50.52
188.095	71
188.314	118.1
188.534	124.24
188.753	1.37
188.973	46.42
189.192	42.32
189.412	36.18
189.631	83.28
189.851	27.99
190.07	120.15
190.29	44.37
190.509	38.23
190.729	62.8
190.948	60.76
191.168	210.26
191.387	111.96
191.607	-17.07
191.826	25.94
192.045	60.76
192.265	62.8
192.484	52.56
192.704	36.18
192.923	50.52
193.142	101.72
193.362	116.05
193.581	120.15
193.8	15.7
194.02	161.11
194.239	54.61
194.458	62.8
194.678	105.81
194.897	21.85
195.116	71
195.335	93.52
195.555	36.18
195.774	40.28
195.993	120.15
196.212	19.8
196.432	36.18
196.651	83.28
196.87	87.38
197.089	107.86
197.308	83.28
197.528	19.8
197.747	19.8
197.966	21.85
198.185	19.8
198.404	58.71
198.623	38.23
198.842	118.1
199.062	58.71
199.281	64.85
199.5	30.04
199.719	101.72
199.938	91.48
200.157	120.15
200.376	83.28
200.595	118.1
200.814	66.9
201.033	64.85
201.252	150.87
201.471	77.14
201.69	124.24
201.909	75.09
202.128	9.56
202.347	101.72
202.566	27.99
202.785	91.48
203.004	54.61
203.223	128.34
203.442	44.37
203.661	21.85
203.879	58.71
204.098	44.37
204.317	54.61
204.536	50.52
204.755	44.37
204.974	99.67
205.193	46.42
205.411	136.53
205.63	46.42
205.849	75.09
206.068	-4.78
206.287	13.65
206.505	118.1
206.724	-4.78
206.943	36.18
207.162	54.61
207.381	48.47
207.599	-10.92
207.818	77.14
208.037	17.75
208.255	79.19
208.474	17.75
208.693	60.76
208.911	-10.92
209.13	25.94
209.349	5.46
209.567	71
209.786	161.11
210.005	36.18
210.223	73.04
210.442	-15.02
210.661	103.76
210.879	93.52
211.098	19.8
211.316	1.37
211.535	71
211.753	3.41
211.972	38.23
212.191	19.8
212.409	30.04
212.628	73.04
212.846	1.37
213.065	38.23
213.283	107.86
213.502	71
213.72	62.8
213.938	73.04
214.157	-4.78
214.375	101.72
214.594	13.65
214.812	46.42
215.031	81.24
215.249	13.65
215.467	21.85
215.686	-15.02
215.904	42.32
216.122	36.18
216.341	77.14
216.559	68.95
216.778	66.9
216.996	-10.92
217.214	-0.68
217.432	58.71
217.651	-96.94
217.869	11.61
218.087	95.57
218.306	38.23
218.524	15.7
218.742	-10.92
218.96	50.52
219.179	60.76
219.397	66.9
219.615	89.43
219.833	15.7
220.051	3.41
220.27	87.38
220.488	89.43
220.706	36.18
220.924	9.56
221.142	-12.97
221.36	68.95
221.578	75.09
221.796	-47.79
222.015	77.14
222.233	-23.21
222.451	85.33
222.669	27.99
222.887	32.08
223.105	19.8
223.323	62.8
223.541	66.9
223.759	85.33
223.977	21.85
224.195	144.72
224.413	52.56
224.631	34.13
224.849	48.47
225.067	60.76
225.285	11.61
225.503	99.67
225.721	-19.11
225.939	89.43
226.157	-19.11
226.375	134.48
226.592	-23.21
226.81	34.13
227.028	27.99
227.246	64.85
227.464	71
227.682	62.8
227.9	75.09
228.117	44.37
228.335	54.61
228.553	85.33
228.771	89.43
228.989	-0.68
229.206	71
229.424	71
229.642	95.57
229.86	38.23
230.077	32.08
230.295	38.23
230.513	77.14
230.731	75.09
230.948	107.86
231.166	101.72
231.384	1.37
231.601	97.62
231.819	134.48
232.037	34.13
232.254	19.8
232.472	32.08
232.689	77.14
232.907	101.72
233.125	21.85
233.342	-23.21
233.56	-8.87
233.777	68.95
233.995	5.46
234.213	75.09
234.43	95.57
234.648	38.23
234.865	13.65
235.083	101.72
235.3	17.75
235.518	120.15
235.735	73.04
235.953	27.99
236.17	23.89
236.388	54.61
236.605	71
236.822	107.86
237.04	1.37
237.257	54.61
237.475	-60.07
237.692	83.28
237.909	11.61
238.127	27.99
238.344	58.71
238.562	5.46
238.779	46.42
238.996	40.28
239.214	44.37
239.431	116.05
239.648	46.42
239.865	66.9
240.083	81.24
240.3	56.66
240.517	85.33
240.735	111.96
240.952	58.71
241.169	66.9
241.386	66.9
241.603	23.89
241.821	-21.16
242.038	140.63
242.255	95.57
242.472	-27.31
242.689	54.61
242.907	50.52
243.124	3.41
243.341	23.89
243.558	38.23
243.775	42.32
243.992	40.28
244.209	81.24
244.426	185.68
244.643	38.23
244.86	-17.07
245.078	111.96
245.295	81.24
245.512	73.04
245.729	38.23
245.946	32.08
246.163	52.56
246.38	62.8
246.597	66.9
246.814	40.28
247.031	71
247.248	103.76
247.464	21.85
247.681	71
247.898	13.65
248.115	103.76
248.332	5.46
248.549	27.99
248.766	122.2
248.983	101.72
249.2	95.57
249.417	79.19
249.633	19.8
249.85	124.24
250.067	-12.97
250.284	144.72
250.501	42.32
250.717	79.19
250.934	13.65
251.151	81.24
251.368	13.65
251.585	44.37
251.801	3.41
252.018	-12.97
252.235	99.67
252.451	32.08
252.668	42.32
252.885	83.28
253.102	52.56
253.318	36.18
253.535	95.57
253.752	-37.55
253.968	42.32
254.185	-10.92
254.401	38.23
254.618	38.23
254.835	42.32
255.051	103.76
255.268	19.8
255.484	-37.55
255.701	-0.68
255.917	93.52
256.134	44.37
256.351	68.95
256.567	5.46
256.784	-47.79
257	-31.4
257.217	58.71
257.433	58.71
257.65	30.04
257.866	52.56
258.082	-39.59
258.299	-10.92
258.515	130.39
258.732	7.51
258.948	38.23
259.165	54.61
259.381	1.37
259.597	56.66
259.814	-17.07
260.03	11.61
260.246	13.65
260.463	85.33
260.679	52.56
260.895	87.38
261.112	48.47
261.328	46.42
261.544	19.8
261.761	126.29
261.977	75.09
262.193	42.32
262.409	73.04
262.626	1.37
262.842	25.94
263.058	44.37
263.274	54.61
263.49	38.23
263.707	75.09
263.923	27.99
264.139	-19.11
264.355	-35.5
264.571	75.09
264.787	44.37
265.004	75.09
265.22	13.65
265.436	25.94
265.652	-12.97
265.868	58.71
266.084	32.08
266.3	60.76
266.516	60.76
266.732	124.24
266.948	38.23
267.164	32.08
267.38	23.89
267.596	36.18
267.812	128.34
268.028	107.86
268.244	38.23
268.46	60.76
268.676	79.19
268.892	11.61
269.108	-19.11
269.324	19.8
269.54	9.56
269.756	118.1
269.972	30.04
270.188	19.8
270.403	11.61
270.619	75.09
270.835	-10.92
271.051	77.14
271.267	9.56
271.483	89.43
271.698	114
271.914	36.18
272.13	111.96
272.346	30.04
272.562	93.52
272.777	124.24
272.993	58.71
273.209	56.66
273.425	1.37
273.64	44.37
273.856	11.61
274.072	66.9
274.287	-2.73
274.503	116.05
274.719	44.37
274.934	-17.07
275.15	68.95
275.366	79.19
275.581	-43.69
275.797	79.19
276.012	38.23
276.228	38.23
276.444	44.37
276.659	134.48
276.875	46.42
277.09	52.56
277.306	27.99
277.521	58.71
277.737	71
277.952	118.1
278.168	36.18
278.383	-2.73
278.599	42.32
278.814	46.42
279.03	95.57
279.245	91.48
279.461	79.19
279.676	52.56
279.892	21.85
280.107	-39.59
280.322	9.56
280.538	46.42
280.753	-10.92
280.969	42.32
281.184	-4.78
281.399	71
281.615	-17.07
281.83	32.08
282.045	30.04
282.26	19.8
282.476	38.23
282.691	81.24
282.906	34.13
283.122	79.19
283.337	-29.35
283.552	83.28
283.767	13.65
283.983	75.09
284.198	85.33
284.413	99.67
284.628	66.9
284.843	56.66
285.058	54.61
285.274	54.61
285.489	17.75
285.704	25.94
285.919	101.72
286.134	62.8
286.349	30.04
286.564	25.94
286.779	83.28
286.995	66.9
287.21	87.38
287.425	87.38
287.64	27.99
287.855	36.18
288.07	30.04
288.285	54.61
288.5	85.33
288.715	71
288.93	15.7
289.145	11.61
289.36	99.67
289.575	11.61
289.79	87.38
290.004	73.04
290.219	99.67
290.434	87.38
290.649	-27.31
290.864	-10.92
291.079	85.33
291.294	83.28
291.509	99.67
291.724	27.99
291.938	89.43
292.153	58.71
292.368	54.61
292.583	52.56
292.798	52.56
293.012	27.99
293.227	42.32
293.442	116.05
293.657	64.85
293.871	134.48
294.086	15.7
294.301	79.19
294.516	52.56
294.73	136.53
294.945	21.85
295.16	85.33
295.374	60.76
295.589	13.65
295.804	36.18
296.018	-2.73
296.233	101.72
296.447	38.23
296.662	5.46
296.877	85.33
297.091	111.96
297.306	87.38
297.52	54.61
297.735	73.04
297.949	-19.11
298.164	87.38
298.378	52.56
298.593	11.61
298.807	54.61
299.022	9.56
299.236	38.23
299.451	36.18
299.665	21.85
299.88	34.13
300.094	5.46
300.309	23.89
300.523	62.8
300.737	36.18
300.952	58.71
301.166	50.52
301.381	-47.79
301.595	23.89
301.809	48.47
302.024	62.8
302.238	42.32
302.452	38.23
302.667	52.56
302.881	142.68
303.095	71
303.309	30.04
303.524	9.56
303.738	132.44
303.952	50.52
304.166	68.95
304.381	-41.64
304.595	60.76
304.809	50.52
305.023	50.52
305.237	62.8
305.452	27.99
305.666	62.8
305.88	116.05
306.094	9.56
306.308	66.9
306.522	124.24
306.736	118.1
306.95	77.14
307.164	130.39
307.379	42.32
307.593	161.11
307.807	109.91
308.021	77.14
308.235	-4.78
308.449	3.41
308.663	66.9
308.877	71
309.091	54.61
309.305	42.32
309.519	23.89
309.733	79.19
309.947	25.94
310.161	118.1
310.374	32.08
310.588	54.61
310.802	-2.73
311.016	46.42
311.23	-43.69
311.444	95.57
311.658	64.85
311.872	150.87
312.085	71
312.299	87.38
312.513	105.81
312.727	-4.78
312.941	91.48
313.154	73.04
313.368	34.13
313.582	5.46
313.796	13.65
314.009	38.23
314.223	118.1
314.437	79.19
314.651	56.66
314.864	9.56
315.078	5.46
315.292	19.8
315.505	36.18
315.719	93.52
315.933	19.8
316.146	44.37
316.36	77.14
316.573	107.86
316.787	103.76
317.001	91.48
317.214	-2.73
317.428	36.18
317.641	17.75
317.855	54.61
318.068	79.19
318.282	79.19
318.495	122.2
318.709	38.23
318.922	71
319.136	95.57
319.349	62.8
319.563	58.71
319.776	132.44
319.99	-51.88
320.203	50.52
320.417	48.47
320.63	120.15
320.843	175.44
321.057	40.28
321.27	95.57
321.483	118.1
321.697	85.33
321.91	46.42
322.124	77.14
322.337	73.04
322.55	-2.73
322.763	25.94
322.977	21.85
323.19	-37.55
323.403	7.51
323.617	-19.11
323.83	30.04
324.043	73.04
324.256	-10.92
324.469	44.37
324.683	95.57
324.896	3.41
325.109	5.46
325.322	75.09
325.535	75.09
325.748	87.38
325.962	81.24
326.175	87.38
326.388	-2.73
326.601	136.53
326.814	11.61
327.027	54.61
327.24	134.48
327.453	-51.88
327.666	62.8
327.879	120.15
328.092	140.63
328.305	27.99
328.518	54.61
328.731	11.61
328.944	40.28
329.157	95.57
329.37	118.1
329.583	116.05
329.796	140.63
330.009	77.14
330.222	50.52
330.435	103.76
330.648	114
330.861	120.15
331.073	79.19
331.286	91.48
331.499	77.14
331.712	42.32
331.925	46.42
332.138	116.05
332.35	109.91
332.563	95.57
332.776	62.8
332.989	-4.78
333.202	62.8
333.414	21.85
333.627	81.24
333.84	50.52
334.053	46.42
334.265	85.33
334.478	68.95
334.691	21.85
334.903	21.85
335.116	30.04
335.329	77.14
335.541	13.65
335.754	148.82
335.966	-19.11
336.179	87.38
336.392	23.89
336.604	38.23
336.817	-2.73
337.029	87.38
337.242	23.89
337.454	101.72
337.667	-6.83
337.88	50.52
338.092	71
338.305	142.68
338.517	-4.78
338.729	97.62
338.942	114
339.154	46.42
339.367	19.8
339.579	19.8
339.792	-80.55
340.004	46.42
340.217	107.86
340.429	77.14
340.641	34.13
340.854	77.14
341.066	42.32
341.278	111.96
341.491	83.28
341.703	68.95
341.915	17.75
342.128	95.57
342.34	116.05
342.552	40.28
342.764	81.24
342.977	66.9
343.189	95.57
343.401	64.85
343.613	9.56
343.826	27.99
344.038	3.41
344.25	85.33
344.462	46.42
344.674	126.29
344.886	54.61
345.099	83.28
345.311	118.1
345.523	95.57
345.735	60.76
345.947	38.23
346.159	71
346.371	34.13
346.583	66.9
346.795	140.63
347.007	48.47
347.219	83.28
347.431	-19.11
347.643	75.09
347.855	124.24
348.067	144.72
348.279	54.61
348.491	109.91
348.703	85.33
348.915	30.04
349.127	44.37
349.339	36.18
349.551	-25.26
349.763	46.42
349.975	54.61
350.187	83.28
350.399	95.57
350.61	120.15
350.822	85.33
351.034	107.86
351.246	19.8
351.458	3.41
351.669	36.18
351.881	83.28
352.093	66.9
352.305	87.38
352.517	93.52
352.728	48.47
352.94	46.42
353.152	60.76
353.363	32.08
353.575	83.28
353.787	161.11
353.999	40.28
354.21	111.96
354.422	7.51
354.633	-12.97
354.845	66.9
355.057	73.04
355.268	62.8
355.48	-39.59
355.692	42.32
355.903	126.29
356.115	38.23
356.326	34.13
356.538	93.52
356.749	42.32
356.961	87.38
357.172	-10.92
357.384	48.47
357.595	95.57
357.807	23.89
358.018	75.09
358.23	66.9
358.441	146.77
358.653	83.28
358.864	62.8
359.075	87.38
359.287	83.28
359.498	19.8
359.709	66.9
359.921	19.8
360.132	79.19
360.344	103.76
360.555	42.32
360.766	19.8
360.977	27.99
361.189	107.86
361.4	87.38
361.611	91.48
361.823	77.14
362.034	56.66
362.245	-8.87
362.456	87.38
362.667	107.86
362.879	21.85
363.09	62.8
363.301	73.04
363.512	68.95
363.723	107.86
363.935	-12.97
364.146	101.72
364.357	9.56
364.568	42.32
364.779	-2.73
364.99	109.91
365.201	21.85
365.412	136.53
365.623	38.23
365.834	11.61
366.045	136.53
366.256	103.76
366.467	95.57
366.678	71
366.889	128.34
367.1	54.61
367.311	23.89
367.522	54.61
367.733	36.18
367.944	83.28
368.155	30.04
368.366	52.56
368.577	95.57
368.788	-33.45
368.999	44.37
369.209	34.13
369.42	132.44
369.631	71
369.842	83.28
370.053	75.09
370.264	46.42
370.474	27.99
370.685	89.43
370.896	58.71
371.107	52.56
371.317	19.8
371.528	62.8
371.739	32.08
371.95	62.8
372.16	95.57
372.371	46.42
372.582	83.28
372.792	103.76
373.003	77.14
373.214	46.42
373.424	114
373.635	7.51
373.846	120.15
374.056	103.76
374.267	46.42
374.477	152.91
374.688	30.04
374.898	34.13
375.109	62.8
375.319	44.37
375.53	62.8
375.74	177.49
375.951	15.7
376.161	68.95
376.372	48.47
376.582	46.42
376.793	21.85
377.003	9.56
377.214	91.48
377.424	54.61
377.635	34.13
377.845	73.04
378.055	144.72
378.266	13.65
378.476	-15.02
378.686	68.95
378.897	85.33
379.107	91.48
379.317	120.15
379.528	107.86
379.738	167.25
379.948	30.04
380.158	116.05
380.369	97.62
380.579	124.24
380.789	32.08
380.999	46.42
381.21	79.19
381.42	126.29
381.63	85.33
381.84	36.18
382.05	9.56
382.261	144.72
382.471	46.42
382.681	66.9
382.891	91.48
383.101	83.28
383.311	1.37
383.521	27.99
383.731	54.61
383.941	87.38
384.151	58.71
384.361	111.96
384.571	116.05
384.781	71
384.991	93.52
385.201	173.39
385.411	85.33
385.621	91.48
385.831	62.8
386.041	109.91
386.251	136.53
386.461	157.01
386.671	122.2
386.881	25.94
387.091	114
387.301	85.33
387.511	83.28
387.72	111.96
387.93	161.11
388.14	30.04
388.35	42.32
388.56	101.72
388.769	89.43
388.979	62.8
389.189	64.85
389.399	87.38
389.609	95.57
389.818	93.52
390.028	83.28
390.238	52.56
390.447	7.51
390.657	152.91
390.867	48.47
391.076	46.42
391.286	58.71
391.496	42.32
391.705	62.8
391.915	146.77
392.125	85.33
392.334	124.24
392.544	30.04
392.753	30.04
392.963	38.23
393.172	62.8
393.382	-55.98
393.591	116.05
393.801	40.28
394.01	132.44
394.22	-21.16
394.429	99.67
394.639	77.14
394.848	142.68
395.058	62.8
395.267	103.76
395.477	134.48
395.686	27.99
395.895	111.96
396.105	161.11
396.314	87.38
396.524	91.48
396.733	46.42
396.942	107.86
397.152	191.83
397.361	83.28
397.57	54.61
397.78	46.42
397.989	177.49
398.198	161.11
398.407	99.67
398.617	79.19
398.826	85.33
399.035	144.72
399.244	42.32
399.453	169.3
399.663	50.52
399.872	54.61
400.081	103.76
400.29	128.34
400.499	66.9
400.708	83.28
400.917	126.29
401.127	97.62
401.336	77.14
401.545	202.07
401.754	144.72
401.963	144.72
402.172	103.76
402.381	91.48
402.59	150.87
402.799	91.48
403.008	68.95
403.217	165.2
403.426	167.25
403.635	99.67
403.844	144.72
404.053	58.71
404.262	111.96
404.471	142.68
404.68	93.52
404.888	132.44
405.097	157.01
405.306	181.59
405.515	157.01
405.724	134.48
405.933	136.53
406.142	142.68
406.35	200.02
406.559	79.19
406.768	204.11
406.977	122.2
407.185	146.77
407.394	218.45
407.603	140.63
407.812	202.07
408.02	226.64
408.229	226.64
408.438	185.68
408.646	193.87
408.855	126.29
409.064	249.17
409.272	243.03
409.481	290.13
409.69	263.51
409.898	273.75
410.107	275.79
410.315	316.75
410.524	302.42
410.733	288.08
410.941	345.42
411.15	361.81
411.358	353.62
411.567	386.38
411.775	308.56
411.984	300.37
412.192	423.25
412.401	363.86
412.609	470.35
412.818	423.25
413.026	415.06
413.234	431.44
413.443	472.4
413.651	533.84
413.86	523.6
414.068	537.93
414.276	511.31
414.485	535.89
414.693	623.95
414.901	615.76
415.11	642.38
415.318	615.76
415.526	564.56
415.734	669
415.943	644.43
416.151	757.07
416.359	769.35
416.567	791.88
416.776	781.64
416.984	873.8
417.192	904.52
417.4	857.42
417.608	843.08
417.817	890.18
418.025	986.44
418.233	1127.75
418.441	972.1
418.649	1054.02
418.857	1045.83
419.065	1193.28
419.273	1094.98
419.481	1193.28
419.689	1324.35
419.897	1269.06
420.105	1271.11
420.313	1441.09
420.521	1459.52
420.729	1363.26
420.937	1447.23
421.145	1586.49
421.353	1557.82
421.561	1697.08
421.769	1725.76
421.977	1703.23
422.185	1598.78
422.393	1901.88
422.601	1951.03
422.809	1856.82
423.017	1969.46
423.224	2075.96
423.432	2151.73
423.64	2231.6
423.848	2323.76
424.056	2420.02
424.263	2510.13
424.471	2489.65
424.679	2432.3
424.887	2733.36
425.094	2790.7
425.302	2667.82
425.51	2807.08
425.718	2938.15
425.925	3022.12
426.133	3028.26
426.341	3198.24
426.548	3333.41
426.756	3175.72
426.964	3525.92
427.171	3482.91
427.379	3732.76
427.586	3826.97
427.794	3790.11
428.001	4101.4
428.209	4177.17
428.417	4070.68
428.624	4537.62
428.832	4427.03
429.039	4390.16
429.247	4418.83
429.454	4885.77
429.662	5213.45
429.869	4773.13
430.076	5072.14
430.284	5072.14
430.491	5152.01
430.699	5498.11
430.906	5571.84
431.114	5577.98
431.321	5874.94
431.528	5950.71
431.736	6259.96
431.943	6503.67
432.15	6524.15
432.358	6583.54
432.565	6857.96
432.772	6819.05
432.979	7148.78
433.187	7335.14
433.394	7306.47
433.601	7673.06
433.808	7873.76
434.016	7726.3
434.223	8129.75
434.43	8625.36
434.637	8328.41
434.844	9094.35
435.052	8924.37
435.259	8916.17
435.466	9014.48
435.673	9170.12
435.88	9757.89
436.087	10106.04
436.294	10228.92
436.501	9579.72
436.708	10235.07
436.915	10384.57
437.122	10865.84
437.329	10794.16
437.537	11177.13
437.743	11152.56
437.95	11340.97
438.157	12113.05
438.364	12213.4
438.571	12274.84
438.778	12545.17
438.985	13481.1
439.192	13104.27
439.399	13374.6
439.606	13268.11
439.813	14003.33
440.02	14599.29
440.227	14607.48
440.433	14181.5
440.64	14777.46
440.847	14658.68
441.054	15189.1
441.261	16147.55
441.467	15877.22
441.674	16137.31
441.881	16778.33
442.088	16841.81
442.294	16630.87
442.501	17165.39
442.708	17282.13
442.914	17994.82
443.121	18670.65
443.328	18211.9
443.534	19557.42
443.741	19215.41
443.948	18684.98
444.154	20343.84
444.361	19926.05
444.568	20632.6
444.774	20061.22
444.981	20526.11
445.187	21046.29
445.394	21945.35
445.6	21679.11
445.807	23542.77
446.013	22703.1
446.22	22817.79
446.426	24099.81
446.633	24228.84
446.839	24746.97
447.046	24009.7
447.252	25379.79
447.459	25357.27
447.665	25381.84
447.871	26303.43
448.078	27397.04
448.284	26174.41
448.491	26647.49
448.697	27847.6
448.903	28375.97
449.11	28285.86
449.316	27741.1
449.522	28392.36
449.728	29518.74
449.935	29614.99
450.141	29580.18
450.347	29920.14
450.553	28828.57
450.76	29666.19
450.966	30315.4
451.172	30057.35
451.378	30864.25
451.584	30188.42
451.791	30870.4
451.997	30788.48
452.203	31075.2
452.409	31368.05
452.615	31181.69
452.821	29805.45
453.027	29789.07
453.233	31204.22
453.44	29973.39
453.646	30309.25
453.852	30208.9
454.058	30817.15
454.264	29664.14
454.47	30561.15
454.676	29719.44
454.882	30555.01
455.088	28105.64
455.294	28038.06
455.5	29080.47
455.705	29303.7
455.911	28162.98
456.117	27679.66
456.323	27249.59
456.529	25643.98
456.735	26715.07
456.941	25828.3
457.147	25652.17
457.352	24591.33
457.558	24208.36
457.764	24396.77
457.97	24239.08
458.176	23020.53
458.381	23452.66
458.587	22287.36
458.793	22565.89
458.999	21191.7
459.204	22510.59
459.41	22068.23
459.616	20423.71
459.821	20757.53
460.027	20413.47
460.233	19940.39
460.438	19074.1
460.644	19358.77
460.85	18478.14
461.055	18039.87
461.261	18218.05
461.466	16749.65
461.672	16182.37
461.878	17523.79
462.083	16276.57
462.289	15828.07
462.494	15776.87
462.7	14986.35
462.905	14392.44
463.111	15166.57
463.316	15109.23
463.522	14957.68
463.727	14824.56
463.932	14877.81
464.138	14857.33
464.343	14744.69
464.549	14464.12
464.754	14828.66
464.959	14756.98
465.165	14636.15
465.37	14038.14
465.575	13640.84
465.781	14163.07
465.986	14386.3
466.191	13833.35
466.397	13505.67
466.602	12608.66
466.807	13296.78
467.012	13333.64
467.218	13343.88
467.423	12962.96
467.628	13134.99
467.833	13995.14
468.038	12985.49
468.244	13040.78
468.449	13321.35
468.654	12956.82
468.859	12831.89
469.064	12653.72
469.269	12307.61
469.474	12362.9
469.679	12565.65
469.885	12268.7
470.09	12293.27
470.295	12280.99
470.5	11988.13
470.705	12145.82
470.91	11826.34
471.115	11672.74
471.32	12035.23
471.525	11687.07
471.73	11355.3
471.935	11429.03
472.139	10925.23
472.344	11146.41
472.549	10876.08
472.754	11027.63
472.959	10736.82
473.164	10394.81
473.369	10388.66
473.574	10986.67
473.778	10736.82
473.983	10368.18
474.188	10554.55
474.393	10114.23
474.598	10210.49
474.802	9958.59
475.007	9893.05
475.212	9999.55
475.417	9473.22
475.621	9512.13
475.826	9555.14
476.031	9403.59
476.235	9204.94
476.44	9479.36
476.645	9252.04
476.849	9159.88
477.054	9037
477.259	9039.05
477.463	9053.39
477.668	8873.17
477.872	8787.15
478.077	8744.14
478.282	8359.13
478.486	8504.53
478.691	8531.16
478.895	8342.74
479.1	8350.93
479.304	8287.45
479.509	8080.6
479.713	8299.73
479.918	7779.55
480.122	7910.62
480.326	8045.79
480.531	7955.68
480.735	7953.63
480.94	7947.48
481.144	8154.33
481.348	7859.42
481.553	7822.56
481.757	7587.04
481.961	7836.89
482.166	7730.4
482.37	7886.05
482.574	7697.63
482.778	7687.39
482.983	7765.21
483.187	7759.07
483.391	7785.69
483.595	7787.74
483.8	7617.76
484.004	7730.4
484.208	7711.97
484.412	7527.65
484.616	7787.74
484.821	7681.25
485.025	7648.48
485.229	7552.23
485.433	7689.44
485.637	7748.83
485.841	7503.07
486.045	7818.46
486.249	7763.17
486.453	7679.2
486.657	7884
486.861	7664.86
487.065	7402.72
487.269	7720.16
487.473	7415.01
487.677	7783.65
487.881	7937.24
488.085	7693.54
488.289	7861.47
488.493	7791.84
488.697	7951.58
488.901	7701.73
489.105	7707.87
489.309	7709.92
489.512	7877.85
489.716	7720.16
489.92	7865.57
490.124	7752.93
490.328	7976.16
490.531	7769.31
490.735	7808.22
490.939	7972.06
491.143	7806.17
491.346	7871.71
491.55	7939.29
491.754	7865.57
491.958	8021.21
492.161	8246.49
492.365	8025.31
492.569	7996.64
492.772	8070.36
492.976	8172.76
493.18	8320.21
493.383	8226.01
493.587	8266.97
493.79	8494.29
493.994	8344.79
494.197	8594.64
494.401	8541.4
494.605	8565.97
494.808	8776.91
495.012	8662.23
495.215	8701.14
495.419	8901.84
495.622	8797.39
495.825	8963.28
496.029	8772.82
496.232	9002.19
496.436	8932.56
496.639	9417.93
496.843	9430.21
497.046	9315.53
497.249	9585.86
497.453	9446.6
497.656	9600.19
497.859	9671.87
498.063	9794.75
498.266	10060.99
498.469	9934.01
498.673	10097.85
498.876	10183.87
499.079	10505.4
499.282	10300.6
499.485	10753.2
499.689	10720.43
499.892	10687.67
500.095	10777.78
500.298	11205.8
500.501	10788.02
500.705	10992.81
500.908	11248.81
501.111	11451.56
501.314	11580.58
501.517	11664.55
501.72	11789.47
501.923	11768.99
502.126	11912.35
502.329	12072.09
502.532	12377.24
502.735	12362.9
502.938	12733.59
503.141	12698.77
503.344	12962.96
503.547	12768.4
503.75	13186.19
503.953	13214.86
504.156	13237.39
504.359	13483.14
504.562	13526.15
504.765	13716.61
504.968	13980.8
505.17	14134.4
505.373	14259.32
505.576	14451.83
505.779	14365.82
505.982	14603.38
506.185	14896.24
506.387	14795.89
506.59	14976.11
506.793	15299.69
506.996	15365.23
507.198	15682.66
507.401	15567.98
507.604	15807.59
507.807	16325.72
508.009	15998.05
508.212	16186.46
508.415	16551
508.617	16581.72
508.82	16688.21
509.022	16712.79
509.225	16997.46
509.428	17159.25
509.63	17329.23
509.833	17462.35
510.035	17800.26
510.238	17683.53
510.44	18058.31
510.643	18404.41
510.845	18635.83
511.048	18457.66
511.25	18603.07
511.453	18771
511.655	19323.95
511.858	19143.73
512.06	19489.84
512.262	19647.53
512.465	19641.39
512.667	19915.81
512.87	20180
513.072	20333.6
513.274	20405.28
513.477	20683.8
513.679	20878.36
513.881	21220.37
514.084	21095.44
514.286	21306.38
514.488	21689.35
514.69	22109.19
514.893	22012.93
515.095	22096.9
515.297	22322.18
515.499	22467.58
515.701	22733.82
515.904	23020.53
516.106	23501.81
516.308	23247.86
516.51	23612.4
516.712	23796.71
516.914	23866.35
517.116	24234.98
517.318	24140.77
517.52	24732.64
517.722	24818.65
517.925	24933.34
518.127	25084.89
518.329	25351.12
518.531	25263.06
518.733	26164.17
518.935	26047.43
519.136	26301.38
519.338	26477.51
519.54	26641.34
519.742	26969.02
519.944	26831.8
520.146	27677.61
520.348	27585.46
520.55	27653.04
520.752	27722.67
520.954	28758.94
521.155	28220.33
521.357	28722.08
521.559	29041.56
521.761	29434.77
521.963	29619.09
522.164	29293.46
522.366	29512.6
522.568	29901.71
522.77	30131.08
522.971	30497.67
523.173	30581.63
523.375	30612.35
523.576	30999.42
523.778	31034.24
523.98	31546.23
524.181	31601.52
524.383	31718.26
524.584	31941.49
524.786	32062.32
524.988	32140.14
525.189	32717.67
525.391	32693.09
525.592	32648.04
525.794	32893.79
525.995	33327.96
526.197	33557.33
526.398	33676.12
526.6	33776.47
526.801	33962.83
527.003	34163.53
527.204	33993.55
527.406	34642.76
527.607	34626.37
527.808	34978.62
528.01	34601.8
528.211	34900.8
528.412	35552.05
528.614	35334.97
528.815	35160.89
529.016	35806
529.218	35400.51
529.419	35781.43
529.62	35742.52
529.822	35740.47
530.023	36008.75
530.224	36105.01
530.425	36238.12
530.626	35701.56
530.828	36172.59
531.029	37004.06
531.23	36428.59
531.431	36518.7
531.632	36791.08
531.833	36733.73
532.035	36854.56
532.236	36862.75
532.437	37382.94
532.638	36793.12
532.839	37384.99
533.04	37391.13
533.241	36748.07
533.442	37708.57
533.643	37475.1
533.844	37108.51
534.045	37780.24
534.246	37251.87
534.447	37819.16
534.648	37591.83
534.849	37737.24
535.05	37632.79
535.251	37667.61
535.451	37837.59
535.652	37976.85
535.853	38075.15
536.054	38200.08
536.255	38161.17
536.456	37628.7
536.657	37944.08
536.857	38128.4
537.058	37954.32
537.259	38112.02
537.46	37903.12
537.66	37589.78
537.861	38189.84
538.062	38273.81
538.263	38093.58
538.463	38286.09
538.664	38413.07
538.865	38234.89
539.065	38019.86
539.266	37534.49
539.466	38443.79
539.667	37714.71
539.868	38222.61
540.068	37972.75
540.269	37864.21
540.469	38152.98
540.67	37870.36
540.87	38179.6
541.071	38337.29
541.271	38492.94
541.472	38099.73
541.672	38316.81
541.873	38044.43
542.073	37339.93
542.274	38374.16
542.474	38079.25
542.675	37489.43
542.875	37853.97
543.075	37782.29
543.276	37528.34
543.476	38351.63
543.676	38069.01
543.877	37927.7
544.077	38294.28
544.277	37749.53
544.478	38128.4
544.678	38193.93
544.878	38134.54
545.078	38259.47
545.279	37622.55
545.479	37690.13
545.679	38009.62
545.879	37614.36
546.079	37966.61
546.28	37743.38
546.48	37780.24
546.68	38564.62
546.88	38112.02
547.08	37913.36
547.28	38042.38
547.48	37507.86
547.68	38122.26
547.88	37626.65
548.081	38107.92
548.281	37970.71
548.481	38066.96
548.681	37935.89
548.881	37911.31
549.081	38267.66
549.28	37712.66
549.48	37823.25
549.68	37747.48
549.88	38249.23
550.08	37479.19
550.28	38083.34
550.48	38169.36
550.68	37888.79
550.88	37827.35
551.08	37937.94
551.279	37823.25
551.479	37223.2
551.679	37999.38
551.879	37813.01
552.079	37845.78
552.278	37806.87
552.478	37759.77
552.678	37583.64
552.878	37958.42
553.077	37229.34
553.277	37063.46
553.477	37862.16
553.676	37372.7
553.876	37495.58
554.076	37243.68
554.275	37501.72
554.475	37157.66
554.674	37720.85
554.874	37186.33
555.074	37354.27
555.273	37382.94
555.473	37305.12
555.672	36825.89
555.872	36838.18
556.071	36950.82
556.271	37303.07
556.47	36477.74
556.67	36709.16
556.869	36727.59
557.068	36883.23
557.268	36670.25
557.467	36772.64
557.667	36657.96
557.866	36272.94
558.065	36530.98
558.265	36420.39
558.464	36168.49
558.663	36539.18
558.863	35765.04
559.062	36320.04
559.261	35738.42
559.461	36281.13
559.66	35599.16
559.859	35480.38
560.058	35703.6
560.258	36143.92
560.457	35496.76
560.656	35736.37
560.855	35177.28
561.054	35638.07
561.253	35109.69
561.453	35285.82
561.652	35511.1
561.851	35044.16
562.05	35208
562.249	34790.21
562.448	35584.82
562.647	35085.12
562.846	34904.9
563.045	34667.33
563.244	34360.14
563.443	34900.8
563.642	34308.94
563.841	34456.39
564.04	34065.23
564.239	34595.65
564.438	34061.13
564.637	34112.33
564.836	34024.27
565.035	33708.88
565.234	33493.85
565.432	33727.31
565.631	33567.57
565.83	33557.33
566.029	33483.61
566.228	33121.12
566.427	33020.77
566.625	33305.43
566.824	32643.94
567.023	32973.66
567.222	32336.74
567.42	32852.83
567.619	32914.27
567.818	32400.23
568.016	32369.51
568.215	32549.73
568.414	32226.15
568.612	32138.09
568.811	31847.28
569.01	31787.89
569.208	31521.65
569.407	31986.54
569.605	31550.32
569.804	31861.62
570.002	31429.49
570.201	31662.96
570.4	31097.72
570.598	30638.98
570.797	30831.49
570.995	30870.4
571.193	30399.37
571.392	31091.58
571.59	30036.88
571.789	30417.8
571.987	30557.06
572.186	30075.79
572.384	30174.09
572.582	30534.53
572.781	30219.14
572.979	29576.08
573.177	29735.82
573.376	30143.37
573.574	29522.83
573.772	29854.61
573.971	29324.18
574.169	29416.34
574.367	29012.89
574.565	29289.37
574.763	29168.54
574.962	28902.3
575.16	28734.37
575.358	29219.74
575.556	28353.44
575.754	29021.08
575.952	28066.73
576.151	28810.14
576.349	28058.54
576.547	28261.29
576.745	28275.62
576.943	28226.47
577.141	27702.19
577.339	28218.28
577.537	27657.14
577.735	27777.97
577.933	27863.98
578.131	27941.8
578.329	27714.48
578.527	27218.87
578.725	27376.56
578.923	27184.05
579.121	27132.86
579.319	27110.33
579.516	27024.31
579.714	27560.88
579.912	26942.39
580.11	27073.46
580.308	27009.98
580.506	26862.52
580.704	25914.31
580.901	26639.29
581.099	26637.25
581.297	26516.42
581.495	26450.88
581.692	26526.66
581.89	26155.97
582.088	26194.89
582.285	26094.54
582.483	26018.76
582.681	26010.57
582.878	25883.59
583.076	25697.23
583.274	26100.68
583.471	25498.58
583.669	25553.87
583.866	25263.06
584.064	25545.68
584.262	25250.77
584.459	25287.64
584.657	24974.3
584.854	25172.95
585.052	24595.42
585.249	25011.16
585.447	25271.25
585.644	24763.36
585.841	24998.87
586.039	25291.73
586.236	24355.81
586.434	24554.46
586.631	24466.4
586.828	24382.43
587.026	24120.29
587.223	24155.11
587.42	24335.33
587.618	24132.58
587.815	23917.54
588.012	23849.96
588.21	23835.63
588.407	23819.24
588.604	23694.32
588.801	23458.8
588.999	23477.23
589.196	23419.89
589.393	23733.23
589.59	23536.62
589.787	23147.51
589.984	23016.44
590.182	23227.38
590.379	23307.25
590.576	22799.35
590.773	22961.14
590.97	22768.63
591.167	23038.97
591.364	22553.6
591.561	22881.27
591.758	22479.87
591.955	22631.42
592.152	22801.4
592.349	22481.92
592.546	22365.18
592.743	22289.41
592.94	22119.43
593.137	22150.15
593.334	22072.32
593.531	21746.7
593.727	21955.59
593.924	22017.03
594.121	21435.41
594.318	21435.41
594.515	21580.81
594.712	21890.06
594.908	21482.51
595.105	21679.11
595.302	21488.65
595.499	21556.24
595.696	21519.37
595.892	21402.64
596.089	21154.83
596.286	21462.03
596.482	20993.04
596.679	21109.78
596.876	20859.93
597.072	20988.95
597.269	20902.93
597.466	20730.9
597.662	20876.31
597.859	20851.74
598.055	20634.65
598.252	20601.88
598.448	20522.01
598.645	20091.94
598.841	20167.71
599.038	20335.65
599.234	20571.16
599.431	20229.15
599.627	20050.98
599.824	20165.67
600.02	20104.23
600.217	19899.43
600.413	19543.08
600.609	19823.65
600.806	19631.15
601.002	19973.16
601.198	19463.21
601.395	19403.82
601.591	19565.61
601.787	19471.4
601.984	19256.37
602.18	19825.7
602.376	19205.17
602.572	19227.7
602.769	19233.84
602.965	18887.73
603.161	19330.09
603.357	19043.38
603.553	19133.49
603.75	18912.31
603.946	18586.68
604.142	18662.46
604.338	18498.62
604.534	18684.98
604.73	18515
604.926	18463.8
605.122	18590.78
605.318	18502.71
605.514	18191.42
605.71	18299.97
605.906	18099.27
606.102	18285.63
606.298	18355.26
606.494	17908.8
606.69	18000.96
606.886	18107.46
607.082	17671.24
607.278	18064.45
607.474	17718.34
607.67	17826.89
607.866	17546.31
608.062	17716.29
608.257	17556.55
608.453	17441.87
608.649	17878.08
608.845	17427.53
609.041	17372.24
609.236	17364.04
609.432	17257.55
609.628	17312.85
609.824	17558.6
610.019	17280.08
610.215	17366.09
610.411	17400.91
610.606	17126.48
610.802	17347.66
610.998	17200.21
611.193	17255.5
611.389	16999.51
611.584	16993.36
611.78	17011.79
611.976	16985.17
612.171	17077.33
612.367	16804.95
612.562	16831.57
612.758	16454.75
612.953	16596.06
613.149	16720.98
613.344	16561.24
613.539	16862.29
613.735	16692.31
613.93	16507.99
614.126	16491.61
614.321	16731.22
614.517	16346.2
614.712	16507.99
614.907	16217.18
615.103	16446.55
615.298	16239.71
615.493	16395.36
615.688	16053.34
615.884	16694.36
616.079	15840.36
616.274	16020.58
616.47	16086.11
616.665	16079.97
616.86	15985.76
617.055	16084.06
617.25	15834.21
617.445	15985.76
617.641	15608.94
617.836	16047.2
618.031	15545.45
618.226	16047.2
618.421	15682.66
618.616	15905.89
618.811	15522.92
619.006	15533.16
619.201	15436.91
619.396	15645.8
619.591	15158.38
619.786	15379.56
619.981	15303.79
620.176	15371.37
620.371	15215.73
620.566	15193.2
620.761	15148.14
620.956	15080.56
621.151	14988.4
621.346	14767.22
621.541	14443.64
621.735	14697.59
621.93	14498.94
622.125	14505.08
622.32	14331
622.515	14359.67
622.709	14285.95
622.904	14363.77
623.099	14021.76
623.294	14173.31
623.488	14111.87
623.683	14011.52
623.878	13644.93
624.072	13945.98
624.267	13816.96
624.462	13626.5
624.656	13651.08
624.851	13591.69
625.046	13421.7
625.24	13276.3
625.435	13358.22
625.629	13368.46
625.824	13178
626.018	13200.52
626.213	12960.91
626.407	12991.63
626.602	12956.82
626.796	12790.93
626.991	12932.24
627.185	12680.34
627.38	12606.61
627.574	12571.8
627.768	12465.3
627.963	12354.71
628.157	12356.76
628.352	12381.34
628.546	12194.97
628.74	12246.17
628.935	12070.05
629.129	12113.05
629.323	11695.27
629.517	11914.4
629.712	11846.82
629.906	11689.12
630.1	11660.45
630.294	11758.75
630.489	11670.69
630.683	11560.1
630.877	11465.89
631.071	11269.29
631.265	11424.93
631.459	11558.05
631.653	11224.23
631.848	11134.12
632.042	11115.69
632.236	11207.85
632.43	11107.5
632.624	10820.78
632.818	10865.84
633.012	10712.24
633.206	10986.67
633.4	10794.16
633.594	10484.92
633.788	10710.19
633.982	10599.6
634.176	10572.98
634.369	10550.45
634.563	10306.74
634.757	10294.46
634.951	10155.19
635.145	10290.36
635.339	10165.43
635.533	10177.72
635.726	10093.76
635.92	9827.52
636.114	10130.62
636.308	10003.64
636.501	10073.28
636.695	10030.27
636.889	9850.05
637.083	9878.72
637.276	9733.31
637.47	9669.83
637.664	9823.42
637.857	9688.26
638.051	9553.09
638.244	9569.48
638.438	9690.31
638.632	9366.73
638.825	9309.38
639.019	9141.45
639.212	9231.56
639.406	9315.53
639.599	9080.01
639.793	9229.51
639.986	8957.13
640.18	9006.28
640.373	8938.7
640.567	8971.47
640.76	8733.9
640.954	8774.86
641.147	8690.9
641.34	8764.62
641.534	8666.32
641.727	8553.68
641.92	8598.74
642.114	8381.65
642.307	8467.67
642.5	8436.95
642.694	8398.04
642.887	8221.91
643.08	8615.12
643.273	8293.59
643.467	8213.72
643.66	8119.51
643.853	7967.96
644.046	7980.25
644.239	8058.07
644.432	7953.63
644.626	7984.35
644.819	8000.73
645.012	7898.33
645.205	7902.43
645.398	7849.18
645.591	7836.89
645.784	7660.77
645.977	7619.81
646.17	7679.2
646.363	7494.88
646.556	7390.44
646.749	7451.88
646.942	7617.76
647.135	7435.49
647.328	7574.75
647.521	7425.25
647.714	7290.09
647.907	7333.09
648.099	7009.51
648.292	7296.23
648.485	7218.41
648.678	7220.46
648.871	7232.74
649.064	7113.96
649.256	7083.24
649.449	7136.49
649.642	6964.46
649.835	6880.49
650.027	6853.87
650.22	6972.65
650.413	6804.72
650.605	6882.54
650.798	6780.14
650.991	6755.57
651.183	6776.05
651.376	6798.57
651.568	6706.41
651.761	6665.46
651.954	6597.87
652.146	6636.78
652.339	6503.67
652.531	6610.16
652.724	6487.28
652.916	6325.49
653.109	6300.92
653.301	6526.19
653.494	6505.71
653.686	6311.16
653.879	6464.75
654.071	6337.78
654.263	6135.03
654.456	6239.48
654.648	6360.31
654.84	6241.53
655.033	6077.69
655.225	6112.5
655.417	6063.35
655.61	6126.84
655.802	6223.09
655.994	5973.24
656.186	5928.19
656.379	5936.38
656.571	5991.67
656.763	5846.27
656.955	5989.63
657.148	5803.26
657.34	5735.68
657.532	5754.11
657.724	5862.65
657.916	5739.77
658.108	5784.83
658.3	5678.33
658.492	5674.24
658.684	5543.17
658.876	5725.44
659.068	5489.92
659.26	5514.5
659.452	5457.15
659.644	5612.8
659.836	5543.17
660.028	5557.5
660.22	5461.25
660.412	5283.08
660.604	5467.39
660.796	5328.13
660.988	5432.58
661.18	5346.56
661.372	5084.42
661.563	5307.65
661.755	5326.08
661.947	5270.79
662.139	5223.69
662.331	5141.77
662.522	5321.99
662.714	5195.01
662.906	5012.74
663.097	5033.22
663.289	5059.85
663.481	5076.23
663.673	5227.78
663.864	5027.08
664.056	5063.94
664.247	5076.23
664.439	4891.91
664.631	5002.51
664.822	4992.27
665.014	5133.57
665.205	4949.26
665.397	4887.82
665.588	4986.12
665.78	4875.53
665.971	4842.76
666.163	4799.76
666.354	4898.06
666.546	4922.63
666.737	4891.91
666.929	4734.22
667.12	4781.32
667.311	4740.36
667.503	4814.09
667.694	4730.13
667.885	4777.23
668.077	4810
668.268	4670.73
668.459	4676.88
668.651	4715.79
668.842	4754.7
669.033	4650.25
669.224	4726.03
669.416	4742.41
669.607	4678.93
669.798	4781.32
669.989	4797.71
670.18	4572.43
670.371	4680.97
670.563	4652.3
670.754	4699.41
670.945	4375.83
671.136	4721.93
671.327	4570.38
671.518	4625.68
671.709	4750.6
671.9	4730.13
672.091	4705.55
672.282	4746.51
672.473	4683.02
672.664	4769.04
672.855	4678.93
673.046	4760.84
673.237	4703.5
673.428	4756.75
673.619	4609.3
673.809	4529.42
674	4551.95
674.191	4676.88
674.382	4629.77
674.573	4650.25
674.764	4597.01
674.954	4607.25
675.145	4633.87
675.336	4754.7
675.527	4601.1
675.717	4697.36
675.908	4613.39
676.099	4697.36
676.289	4551.95
676.48	4656.4
676.671	4787.47
676.861	4687.12
677.052	4650.25
677.243	4789.52
677.433	4799.76
677.624	4760.84
677.814	4615.44
678.005	4820.24
678.195	4848.91
678.386	4742.41
678.576	4756.75
678.767	4721.93
678.957	4719.89
679.148	4738.32
679.338	4988.17
679.529	4871.43
679.719	4898.06
679.909	4904.2
680.1	4893.96
680.29	5002.51
680.481	4926.73
680.671	4959.5
680.861	5002.51
681.052	4949.26
681.242	4994.31
681.432	5035.27
681.622	4961.55
681.813	5123.34
682.003	4900.11
682.193	5014.79
682.383	5106.95
682.573	5047.56
682.764	4998.41
682.954	5082.38
683.144	4953.35
683.334	5059.85
683.524	5186.82
683.714	5125.38
683.904	5006.6
684.094	5059.85
684.284	5182.73
684.474	5106.95
684.664	5078.28
684.854	5201.16
685.044	5004.55
685.234	4939.02
685.424	5127.43
685.614	5018.89
685.804	5170.44
685.994	5002.51
686.184	5010.7
686.374	4957.45
686.564	4930.83
686.753	4869.39
686.943	4846.86
687.133	4932.87
687.323	4908.3
687.513	4990.22
687.702	4795.66
687.892	4797.71
688.082	4797.71
688.272	4836.62
688.461	4846.86
688.651	4926.73
688.841	4785.42
689.03	4787.47
689.22	4627.73
689.41	4781.32
689.599	4592.91
689.789	4691.21
689.979	4547.86
690.168	4474.13
690.358	4470.03
690.547	4525.33
690.737	4566.29
690.926	4474.13
691.116	4390.16
691.305	4441.36
691.495	4324.63
691.684	4351.25
691.874	4465.94
692.063	4412.69
692.252	4441.36
692.442	4318.48
692.631	4308.24
692.82	4207.89
693.01	4173.08
693.199	4044.06
693.388	4064.54
693.578	4095.25
693.767	4052.25
693.956	4082.97
694.146	4003.1
694.335	3759.39
694.524	4007.19
694.713	3953.94
694.902	3953.94
695.092	3986.71
695.281	3888.41
695.47	3730.72
695.659	3841.31
695.848	3863.83
696.037	3835.16
696.226	3896.6
696.415	3818.78
696.604	3812.64
696.793	3704.09
696.982	3771.68
697.171	3861.79
697.36	3802.4
697.549	3777.82
697.738	3671.33
697.927	3499.3
698.116	3601.69
698.305	3788.06
698.494	3716.38
698.683	3618.08
698.872	3765.53
699.061	3732.76
699.25	3585.31
699.438	3722.52
699.627	3505.44
699.816	3616.03
700.005	3667.23
700.193	3626.27
700.382	3640.61
700.571	3581.21
700.76	3673.37
700.948	3589.41
701.137	3652.89
701.326	3534.11
701.514	3628.32
701.703	3579.17
701.892	3517.73
702.08	3740.96
702.269	3532.06
702.457	3613.98
702.646	3525.92
702.834	3542.3
703.023	3783.96
703.212	3685.66
703.4	3579.17
703.589	3630.37
703.777	3695.9
703.965	3656.99
704.154	3863.83
704.342	3712.28
704.531	3812.64
704.719	3626.27
704.907	3663.13
705.096	3562.78
705.284	3697.95
705.472	3728.67
705.661	3646.75
705.849	3669.28
706.037	3679.52
706.226	3691.8
706.414	3716.38
706.602	3558.69
706.79	3738.91
706.979	3689.76
707.167	3681.57
707.355	3773.72
707.543	3593.5
707.731	3683.61
707.919	3888.41
708.107	3745.05
708.296	3675.42
708.484	3779.87
708.672	3648.8
708.86	3693.85
709.048	3869.98
709.236	3874.07
709.424	3835.16
709.612	4009.24
709.8	3855.64
709.988	3872.03
710.176	3929.37
710.364	3851.55
710.551	4019.48
710.739	4009.24
710.927	3861.79
711.115	3976.47
711.303	4058.39
711.491	4056.34
711.679	4033.82
711.866	4011.29
712.054	3962.14
712.242	3943.71
712.43	4214.04
712.617	4021.53
712.805	4121.88
712.993	4113.69
713.181	4080.92
713.368	4236.56
713.556	4238.61
713.744	4052.25
713.931	4277.52
714.119	4101.4
714.306	4467.99
714.494	4232.47
714.682	4355.35
714.869	4259.09
715.057	4289.81
715.244	4367.63
715.432	4347.15
715.619	4361.49
715.807	4302.1
715.994	4410.64
716.182	4369.68
716.369	4478.22
716.556	4336.92
716.744	4371.73
716.931	4443.41
717.119	4609.3
717.306	4490.51
717.493	4496.66
717.681	4568.34
717.868	4560.14
718.055	4652.3
718.242	4560.14
718.43	4732.17
718.617	4572.43
718.804	4668.69
718.991	4640.01
719.179	4836.62
719.366	4734.22
719.553	4877.58
719.74	4640.01
719.927	4977.93
720.114	4969.74
720.301	4885.77
720.488	4812.04
720.676	4863.24
720.863	4945.16
721.05	4982.03
721.237	4928.78
721.424	5133.57
721.611	4961.55
721.798	4928.78
721.985	4934.92
722.172	5016.84
722.358	4855.05
722.545	5166.34
722.732	5092.62
722.919	5174.53
723.106	5133.57
723.293	4977.93
723.48	5195.01
723.667	5084.42
723.853	5051.66
724.04	5289.22
724.227	5106.95
724.414	5098.76
724.6	5303.56
724.787	5270.79
724.974	5375.24
725.161	5504.26
725.347	5188.87
725.534	5426.43
725.72	5246.21
725.907	5362.95
726.094	5358.85
726.28	5362.95
726.467	5254.41
726.653	5201.16
726.84	5381.38
727.027	5614.85
727.213	5283.08
727.4	5475.59
727.586	5565.7
727.773	5313.8
727.959	5565.7
728.145	5666.05
728.332	5477.63
728.518	5420.29
728.705	5727.49
728.891	5440.77
729.077	5461.25
729.264	5676.29
729.45	5571.84
729.636	5772.54
729.823	5809.4
730.009	5782.78
730.195	5756.16
730.382	5688.57
730.568	5821.69
730.754	5657.85
730.94	5774.59
731.126	5723.39
731.313	5713.15
731.499	5713.15
731.685	5758.21
731.871	5780.73
732.057	5876.99
732.243	5825.79
732.429	5866.75
732.615	5842.17
732.801	5895.42
732.987	5991.67
733.173	5928.19
733.359	5874.94
733.545	5885.18
733.731	5895.42
733.917	6024.44
734.103	5868.8
734.289	6104.31
734.475	5911.8
734.661	5975.29
734.847	5936.38
735.033	5879.04
735.219	5852.41
735.404	5991.67
735.59	5862.65
735.776	5928.19
735.962	5969.15
736.148	5985.53
736.333	6124.79
736.519	5938.43
736.705	6008.06
736.89	5922.04
737.076	6018.3
737.262	5895.42
737.447	6057.21
737.633	6006.01
737.819	6028.54
738.004	5866.75
738.19	5977.34
738.375	5897.47
738.561	6098.17
738.747	5854.46
738.932	5891.32
739.118	5999.87
739.303	5928.19
739.489	5821.69
739.674	6085.88
739.859	5786.88
740.045	5977.34
740.23	5934.33
740.416	5649.66
740.601	5860.6
740.786	5893.37
740.972	5737.73
741.157	5676.29
741.342	5709.05
741.528	5756.16
741.713	5860.6
741.898	5784.83
742.084	5745.92
742.269	5739.77
742.454	5661.95
742.639	5649.66
742.824	5584.13
743.01	5698.81
743.195	5711.1
743.38	5620.99
743.565	5616.9
743.75	5592.32
743.935	5489.92
744.12	5657.85
744.305	5479.68
744.49	5571.84
744.675	5571.84
744.86	5383.43
745.045	5438.72
745.23	5707.01
745.415	5469.44
745.6	5303.56
745.785	5424.39
745.97	5342.47
746.155	5387.52
746.34	5305.6
746.525	5111.05
746.71	5420.29
746.895	5117.19
747.079	5227.78
747.264	5166.34
747.449	5158.15
747.634	5080.33
747.819	5172.49
748.003	5090.57
748.188	4918.54
748.373	4975.88
748.557	4977.93
748.742	4863.24
748.927	4818.19
749.111	4842.76
749.296	4754.7
749.481	4982.03
749.665	4744.46
749.85	4674.83
750.034	4871.43
750.219	4752.65
750.404	4830.48
750.588	4648.21
750.773	4508.94
750.957	4637.97
751.141	4543.76
751.326	4457.75
751.51	4465.94
751.695	4353.3
751.879	4408.59
752.064	4529.42
752.248	4375.83
752.432	4265.24
752.617	4318.48
752.801	4298
752.985	4162.84
753.17	4257.04
753.354	4154.65
753.538	4072.73
753.722	3955.99
753.907	4076.82
754.091	3917.08
754.275	4138.26
754.459	4048.15
754.643	4029.72
754.828	4021.53
755.012	3792.16
755.196	3820.83
755.38	3892.51
755.564	3984.66
755.748	3847.45
755.932	3804.44
756.116	3597.6
756.3	3753.24
756.484	3585.31
756.668	3673.37
756.852	3695.9
757.036	3695.9
757.22	3562.78
757.404	3732.76
757.588	3478.82
757.772	3611.93
757.956	3484.96
758.14	3493.15
758.323	3331.36
758.507	3540.26
758.691	3339.55
758.875	3349.79
759.059	3394.85
759.242	3286.31
759.426	3308.83
759.61	3255.59
759.794	3294.5
759.977	3300.64
760.161	3302.69
760.345	3294.5
760.528	3314.98
760.712	3153.19
760.895	3208.48
761.079	3132.71
761.263	3126.57
761.446	3067.17
761.63	3048.74
761.813	3167.52
761.997	2946.34
762.18	3044.65
762.364	3073.32
762.547	2897.19
762.731	2919.72
762.914	2950.44
763.098	2792.75
763.281	3015.98
763.464	2870.57
763.648	2831.66
763.831	2938.15
764.015	2762.03
764.198	2856.23
764.381	2774.31
764.564	2852.14
764.748	2864.43
764.931	2835.75
765.114	2708.78
765.297	2692.4
765.481	2835.75
765.664	2780.46
765.847	2690.35
766.03	2643.24
766.213	2616.62
766.397	2649.39
766.58	2637.1
766.763	2581.81
766.946	2606.38
767.129	2551.09
767.312	2532.65
767.495	2542.89
767.678	2450.74
767.861	2555.18
768.044	2514.22
768.227	2594.09
768.41	2510.13
768.593	2544.94
768.776	2450.74
768.959	2331.95
769.142	2430.26
769.324	2391.34
769.507	2323.76
769.69	2501.94
769.873	2370.87
770.056	2413.87
770.239	2555.18
770.421	2405.68
770.604	2334
770.787	2252.08
770.97	2245.94
771.152	2311.47
771.335	2250.03
771.518	2131.25
771.7	2336.05
771.883	2389.3
772.066	2172.21
772.248	2239.8
772.431	2231.6
772.613	2243.89
772.796	2209.08
772.978	2135.35
773.161	2217.27
773.343	2184.5
773.526	2118.96
773.708	1996.09
773.891	2102.58
774.073	2026.81
774.256	2012.47
774.438	2080.05
774.621	2035
774.803	2078.01
774.985	2018.61
775.168	2047.29
775.35	1985.85
775.532	1977.66
775.715	1889.59
775.897	1856.82
776.079	1828.15
776.261	1873.21
776.444	1838.39
776.626	1819.96
776.808	1799.48
776.99	1824.06
777.173	1711.42
777.355	1742.14
777.537	1676.6
777.719	1709.37
777.901	1742.14
778.083	1705.28
778.265	1635.64
778.447	1721.66
778.629	1643.84
778.811	1627.45
778.993	1690.94
779.175	1649.98
779.357	1625.4
779.539	1406.27
779.721	1547.58
779.903	1678.65
780.085	1541.44
780.267	1535.29
780.449	1545.53
780.631	1488.19
780.812	1652.03
780.994	1453.38
781.176	1387.84
781.358	1525.05
781.54	1475.9
781.721	1496.38
781.903	1527.1
782.085	1312.07
782.267	1361.22
782.448	1361.22
782.63	1414.46
782.812	1422.66
782.993	1418.56
783.175	1310.02
783.357	1289.54
783.538	1420.61
783.72	1375.55
783.901	1254.72
784.083	1269.06
784.264	1281.35
784.446	1199.43
784.627	1238.34
784.809	1234.24
784.99	1250.63
785.172	1322.31
785.353	1133.89
785.535	1232.19
785.716	1168.71
785.897	1133.89
786.079	1148.23
786.26	1117.51
786.441	1168.71
786.623	1058.12
786.804	1148.23
786.985	1103.17
787.167	1191.24
787.348	1029.45
787.529	1086.79
787.71	1090.88
787.891	1045.83
788.073	1054.02
788.254	1051.97
788.435	1017.16
788.616	1058.12
788.797	1135.94
788.978	1066.31
789.159	980.29
789.34	1019.21
789.522	996.68
789.703	894.28
789.884	1019.21
790.065	1033.54
790.246	1060.17
790.427	916.81
790.607	906.57
790.788	963.91
790.969	890.18
791.15	947.53
791.331	855.37
791.512	890.18
791.693	879.94
791.874	845.13
792.054	996.68
792.235	912.71
792.416	918.86
792.597	820.55
792.778	871.75
792.958	896.33
793.139	853.32
793.32	865.61
793.5	757.07
793.681	929.1
793.862	808.26
794.042	818.5
794.223	816.46
794.404	793.93
794.584	740.68
794.765	763.21
794.945	757.07
795.126	720.2
795.306	763.21
795.487	783.69
795.667	724.3
795.848	734.54
796.028	744.78
796.209	687.43
796.389	789.83
796.57	636.24
796.75	808.26
796.93	781.64
797.111	740.68
797.291	757.07
797.471	771.4
797.652	644.43
797.832	585.04
798.012	716.11
798.192	628.04
798.373	574.8
798.553	671.05
798.733	677.2
798.913	660.81
799.093	763.21
799.274	746.83
799.454	644.43
799.634	697.67
799.814	628.04
799.994	722.25
800.174	699.72
800.354	593.23
800.534	638.28
800.714	644.43
800.894	595.28
801.074	582.99
801.254	501.07
801.434	542.03
801.614	603.47
801.794	603.47
801.974	1410.37
802.154	595.28
802.334	628.04
802.514	505.17
802.693	603.47
802.873	496.97
803.053	566.6
803.233	617.8
803.413	566.6
803.592	570.7
803.772	580.94
803.952	611.66
804.131	574.8
804.311	550.22
804.491	562.51
804.67	505.17
804.85	533.84
805.03	607.56
805.209	576.84
805.389	537.93
805.568	529.74
805.748	511.31
805.928	546.12
806.107	552.27
806.287	576.84
806.466	537.93
806.646	486.73
806.825	478.54
807.004	447.82
807.184	507.21
807.363	476.49
807.543	482.64
807.722	460.11
807.901	462.16
808.081	513.36
808.26	349.52
808.439	552.27
808.619	484.69
808.798	462.16
808.977	544.08
809.156	451.92
809.336	453.97
809.515	511.31
809.694	480.59
809.873	496.97
810.052	474.45
810.231	460.11
810.411	462.16
810.59	386.38
810.769	413.01
810.948	505.17
811.127	470.35
811.306	339.28
811.485	394.58
811.664	505.17
811.843	456.01
812.022	435.53
812.201	331.09
812.38	390.48
812.559	400.72
812.737	447.82
812.916	355.66
813.095	359.76
813.274	441.68
813.453	400.72
813.632	421.2
813.811	503.12
813.989	423.25
814.168	363.86
814.347	396.62
814.526	441.68
814.704	449.87
814.883	451.92
815.062	378.19
815.24	359.76
815.419	331.09
815.598	382.29
815.776	308.56
815.955	386.38
816.133	283.98
816.312	347.47
816.49	372.05
816.669	310.61
816.847	312.66
817.026	404.82
817.204	365.9
817.383	283.98
817.561	277.84
817.74	341.33
817.918	312.66
818.097	384.34
818.275	314.7
818.453	380.24
818.632	259.41
818.81	349.52
818.988	357.71
819.167	333.14
819.345	386.38
819.523	365.9
819.701	277.84
819.879	380.24
820.058	339.28
820.236	320.85
820.414	357.71
820.592	290.13
820.77	249.17
820.948	286.03
821.127	232.79
821.305	322.9
821.483	273.75
821.661	370
821.839	296.27
822.017	259.41
822.195	341.33
822.373	357.71
822.551	292.18
822.729	281.94
822.907	281.94
823.085	349.52
823.262	296.27
823.44	251.22
823.618	238.93
823.796	255.31
823.974	306.51
824.152	296.27
824.329	273.75
824.507	294.22
824.685	236.88
824.863	263.51
825.04	191.83
825.218	339.28
825.396	312.66
825.574	353.62
825.751	261.46
825.929	259.41
826.107	240.98
826.284	275.79
826.462	269.65
826.639	255.31
826.817	197.97
826.994	288.08
827.172	267.6
827.349	283.98
827.527	300.37
827.704	243.03
827.882	195.92
828.059	290.13
828.237	247.12
828.414	314.7
828.591	150.87
828.769	183.63
828.946	273.75
829.124	255.31
829.301	230.74
829.478	238.93
829.655	283.98
829.833	320.85
830.01	216.4
830.187	251.22
830.364	283.98
830.542	218.45
830.719	234.83
830.896	255.31
831.073	251.22
831.25	304.46
831.427	261.46
831.604	193.87
831.782	261.46
831.959	204.11
832.136	195.92
832.313	259.41
832.49	177.49
832.667	251.22
832.844	226.64
833.021	322.9
833.198	175.44
833.374	251.22
833.551	208.21
833.728	273.75
833.905	234.83
834.082	222.55
834.259	187.73
834.436	222.55
834.612	161.11
834.789	212.31
834.966	226.64
835.143	185.68
835.319	193.87
835.496	210.26
835.673	142.68
835.85	161.11
836.026	247.12
836.203	263.51
836.38	175.44
836.556	202.07
836.733	171.35
836.909	216.4
837.086	173.39
837.262	148.82
837.439	150.87
837.616	189.78
837.792	167.25
837.968	173.39
838.145	130.39
838.321	167.25
838.498	193.87
838.674	210.26
838.851	193.87
839.027	169.3
839.203	101.72
839.38	171.35
839.556	150.87
839.732	154.96
839.909	222.55
840.085	202.07
840.261	150.87
840.437	202.07
840.614	144.72
840.79	251.22
840.966	167.25
841.142	210.26
841.318	210.26
841.494	101.72
841.671	202.07
841.847	173.39
842.023	144.72
842.199	210.26
842.375	185.68
842.551	118.1
842.727	87.38
842.903	202.07
843.079	109.91
843.255	181.59
843.431	126.29
843.607	132.44
843.783	81.24
843.959	101.72
844.134	140.63
844.31	216.4
844.486	95.57
844.662	157.01
844.838	109.91
845.013	173.39
845.189	173.39
845.365	93.52
845.541	120.15
845.716	144.72
845.892	140.63
846.068	105.81
846.244	75.09
846.419	150.87
846.595	46.42
846.77	71
846.946	126.29
847.122	152.91
847.297	101.72
847.473	165.2
847.648	111.96
847.824	103.76
847.999	103.76
848.175	107.86
848.35	124.24
848.526	124.24
848.701	79.19
848.876	140.63
849.052	173.39
849.227	163.15
849.403	95.57
849.578	157.01
849.753	136.53
849.929	152.91
850.104	40.28
850.279	91.48
850.454	179.54
850.63	140.63
850.805	68.95
850.98	95.57
851.155	87.38
851.33	109.91
851.505	50.52
851.681	122.2
851.856	54.61
852.031	103.76
852.206	62.8
852.381	83.28
852.556	95.57
852.731	103.76
852.906	101.72
853.081	124.24
853.256	142.68
853.431	95.57
853.606	52.56
853.781	77.14
853.956	19.8
854.131	83.28
854.305	40.28
854.48	95.57
854.655	38.23
854.83	79.19
855.005	5.46
855.18	152.91
855.354	111.96
855.529	107.86
855.704	111.96
855.879	146.77
856.053	118.1
856.228	46.42
856.403	83.28
856.577	132.44
856.752	1.37
856.926	159.06
857.101	30.04
857.276	167.25
857.45	52.56
857.625	138.58
857.799	46.42
857.974	107.86
858.148	79.19
858.323	144.72
858.497	66.9
858.672	91.48
858.846	62.8
859.02	91.48
859.195	44.37
859.369	101.72
859.543	75.09
859.718	91.48
859.892	134.48
860.066	77.14
860.241	38.23
860.415	71
860.589	120.15
860.763	101.72
860.938	95.57
861.112	77.14
861.286	36.18
861.46	79.19
861.634	62.8
861.808	77.14
861.982	48.47
862.157	60.76
862.331	103.76
862.505	19.8
862.679	85.33
862.853	95.57
863.027	122.2
863.201	95.57
863.375	99.67
863.549	83.28
863.722	56.66
863.896	157.01
864.07	111.96
864.244	17.75
864.418	5.46
864.592	42.32
864.766	93.52
864.939	79.19
865.113	25.94
865.287	46.42
865.461	75.09
865.634	21.85
865.808	46.42
865.982	50.52
866.156	42.32
866.329	95.57
866.503	32.08
866.676	95.57
866.85	32.08
867.024	17.75
867.197	177.49
867.371	75.09
867.544	36.18
867.718	30.04
867.891	114
868.065	99.67
868.238	138.58
868.412	34.13
868.585	50.52
868.759	5.46
868.932	77.14
869.105	46.42
869.279	42.32
869.452	27.99
869.625	46.42
869.799	50.52
869.972	54.61
870.145	19.8
870.319	21.85
870.492	87.38
870.665	87.38
870.838	42.32
871.011	30.04
871.185	71
871.358	97.62
871.531	116.05
871.704	54.61
871.877	46.42
872.05	1.37
872.223	-23.21
872.396	38.23
872.569	124.24
872.742	19.8
872.915	38.23
873.088	71
873.261	50.52
873.434	-19.11
873.607	68.95
873.78	91.48
873.953	36.18
874.126	62.8
874.299	1.37
874.471	-6.83
874.644	32.08
874.817	105.81
874.99	91.48
875.163	5.46
875.335	89.43
875.508	50.52
875.681	85.33
875.853	50.52
876.026	38.23
876.199	60.76
876.371	89.43
876.544	103.76
876.717	38.23
876.889	30.04
877.062	38.23
877.234	-2.73
877.407	44.37
877.579	62.8
877.752	56.66
877.924	134.48
878.097	68.95
878.269	71
878.442	48.47
878.614	38.23
878.786	109.91
878.959	50.52
879.131	71
879.303	-4.78
879.476	46.42
879.648	71
879.82	-37.55
879.993	-60.07
880.165	-8.87
880.337	40.28
880.509	34.13
880.681	-6.83
880.854	25.94
881.026	118.1
881.198	185.68
881.37	54.61
881.542	64.85
881.714	-4.78
881.886	5.46
882.058	-37.55
882.23	122.2
882.402	87.38
882.574	50.52
882.746	109.91
882.918	111.96
883.09	105.81
883.262	62.8
883.434	62.8
883.606	15.7
883.778	15.7
883.95	91.48
884.122	-12.97
884.293	-2.73
884.465	25.94
884.637	30.04
884.809	21.85
884.98	101.72
885.152	44.37
885.324	97.62
885.496	-45.74
885.667	27.99
885.839	54.61
886.011	52.56
886.182	83.28
886.354	79.19
886.525	71
886.697	23.89
886.869	-29.35
887.04	42.32
887.212	25.94
887.383	58.71
887.555	60.76
887.726	79.19
887.897	23.89
888.069	13.65
888.24	19.8
888.412	-0.68
888.583	5.46
888.754	95.57
888.926	23.89
889.097	21.85
889.268	5.46
889.44	19.8
889.611	-2.73
889.782	48.47
889.953	-12.97
890.125	21.85
890.296	5.46
890.467	-27.31
890.638	46.42
890.809	64.85
890.98	13.65
891.151	54.61
891.323	85.33
891.494	87.38
891.665	-4.78
891.836	52.56
892.007	93.52
892.178	21.85
892.349	30.04
892.52	-29.35
892.691	30.04
892.862	21.85
893.032	-35.5
893.203	58.71
893.374	75.09
893.545	48.47
893.716	56.66
893.887	71
894.057	36.18
894.228	30.04
894.399	30.04
894.57	142.68
894.74	71
894.911	36.18
895.082	60.76
895.253	15.7
895.423	152.91
895.594	54.61
895.764	30.04
895.935	21.85
896.106	73.04
896.276	-10.92
896.447	-21.16
896.617	66.9
896.788	38.23
896.958	42.32
897.129	-10.92
897.299	50.52
897.47	71
897.64	38.23
897.81	21.85
897.981	30.04
898.151	81.24
898.322	124.24
898.492	-17.07
898.662	38.23
898.832	38.23
899.003	75.09
899.173	103.76
899.343	11.61
899.513	27.99
