Data from USB4F104151__93__11-32-08-251.txt Node

Date: Fri Mar 14 11:32:08 EDT 2025
User: louis
Spectrometer: USB4F10415
Trigger mode: 4
Integration Time (sec): 5.000000E-2
Scans to average: 1
Electric dark correction enabled: true
Nonlinearity correction enabled: false
Boxcar width: 0
XAxis mode: Wavelengths
Number of Pixels in Spectrum: 3648
>>>>>Begin Spectral Data<<<<<
178.204	-160.77
178.424	-160.77
178.644	-160.77
178.864	-103.42
179.084	-158.72
179.304	9.22
179.524	27.65
179.744	-21.5
179.964	72.7
180.184	-41.98
180.404	1.02
180.624	-21.5
180.844	-15.36
181.064	-74.75
181.283	15.36
181.503	5.12
181.723	44.03
181.943	-82.94
182.163	56.32
182.383	-58.37
182.602	-21.5
182.822	39.94
183.042	-9.22
183.262	-66.56
183.482	-25.6
183.701	35.84
183.921	-11.26
184.141	-68.61
184.361	64.51
184.58	-64.51
184.8	54.27
185.02	-17.41
185.239	62.46
185.459	39.94
185.679	56.32
185.898	-107.52
186.118	1.02
186.338	66.56
186.557	21.5
186.777	29.7
186.997	-41.98
187.216	7.17
187.436	89.09
187.655	-7.17
187.875	23.55
188.095	21.5
188.314	-1.02
188.534	11.26
188.753	-9.22
188.973	87.04
189.192	78.85
189.412	23.55
189.631	-19.46
189.851	3.07
190.07	5.12
190.29	-25.6
190.509	-7.17
190.729	-17.41
190.948	80.89
191.168	164.86
191.387	-7.17
191.607	-27.65
191.826	-35.84
192.045	17.41
192.265	19.46
192.484	50.18
192.704	-37.89
192.923	-50.18
193.142	105.47
193.362	37.89
193.581	78.85
193.8	91.13
194.02	82.94
194.239	15.36
194.458	-25.6
194.678	-17.41
194.897	-3.07
195.116	13.31
195.335	-3.07
195.555	99.33
195.774	48.13
195.993	52.22
196.212	48.13
196.432	23.55
196.651	-33.79
196.87	5.12
197.089	74.75
197.308	39.94
197.528	80.89
197.747	-52.22
197.966	-46.08
198.185	21.5
198.404	19.46
198.623	25.6
198.842	54.27
199.062	-5.12
199.281	103.42
199.5	-27.65
199.719	11.26
199.938	-3.07
200.157	154.62
200.376	9.22
200.595	-11.26
200.814	-21.5
201.033	37.89
201.252	82.94
201.471	62.46
201.69	27.65
201.909	-17.41
202.128	29.7
202.347	56.32
202.566	56.32
202.785	7.17
203.004	-56.32
203.223	148.48
203.442	-19.46
203.661	-39.94
203.879	7.17
204.098	15.36
204.317	-29.7
204.536	-37.89
204.755	23.55
204.974	5.12
205.193	5.12
205.411	101.37
205.63	50.18
205.849	44.03
206.068	-72.7
206.287	39.94
206.505	13.31
206.724	-3.07
206.943	-25.6
207.162	-11.26
207.381	-9.22
207.599	13.31
207.818	11.26
208.037	-17.41
208.255	-33.79
208.474	7.17
208.693	64.51
208.911	-1.02
209.13	23.55
209.349	48.13
209.567	15.36
209.786	84.99
210.005	70.65
210.223	64.51
210.442	-13.31
210.661	7.17
210.879	54.27
211.098	44.03
211.316	76.8
211.535	117.76
211.753	-11.26
211.972	-15.36
212.191	-17.41
212.409	11.26
212.628	19.46
212.846	-3.07
213.065	3.07
213.283	-56.32
213.502	-5.12
213.72	-17.41
213.938	27.65
214.157	60.42
214.375	31.74
214.594	-25.6
214.812	62.46
215.031	11.26
215.249	15.36
215.467	76.8
215.686	9.22
215.904	89.09
216.122	-50.18
216.341	64.51
216.559	19.46
216.778	21.5
216.996	7.17
217.214	76.8
217.432	-29.7
217.651	-41.98
217.869	-41.98
218.087	-25.6
218.306	-91.13
218.524	11.26
218.742	-33.79
218.96	15.36
219.179	-11.26
219.397	39.94
219.615	76.8
219.833	-5.12
220.051	-11.26
220.27	46.08
220.488	-37.89
220.706	7.17
220.924	27.65
221.142	33.79
221.36	39.94
221.578	3.07
221.796	7.17
222.015	-17.41
222.233	-33.79
222.451	-7.17
222.669	-31.74
222.887	31.74
223.105	-62.46
223.323	-17.41
223.541	68.61
223.759	48.13
223.977	23.55
224.195	37.89
224.413	48.13
224.631	33.79
224.849	3.07
225.067	-5.12
225.285	-29.7
225.503	25.6
225.721	23.55
225.939	-3.07
226.157	44.03
226.375	91.13
226.592	-3.07
226.81	13.31
227.028	-13.31
227.246	23.55
227.464	-29.7
227.682	21.5
227.9	64.51
228.117	33.79
228.335	39.94
228.553	80.89
228.771	-46.08
228.989	54.27
229.206	1.02
229.424	5.12
229.642	3.07
229.86	-25.6
230.077	23.55
230.295	56.32
230.513	-44.03
230.731	35.84
230.948	5.12
231.166	27.65
231.384	-1.02
231.601	-25.6
231.819	46.08
232.037	-54.27
232.254	11.26
232.472	-19.46
232.689	27.65
232.907	103.42
233.125	31.74
233.342	11.26
233.56	3.07
233.777	-78.85
233.995	46.08
234.213	93.18
234.43	-17.41
234.648	56.32
234.865	-25.6
235.083	46.08
235.3	-44.03
235.518	-17.41
235.735	46.08
235.953	84.99
236.17	29.7
236.388	19.46
236.605	3.07
236.822	70.65
237.04	-1.02
237.257	-5.12
237.475	-41.98
237.692	29.7
237.909	27.65
238.127	-76.8
238.344	50.18
238.562	44.03
238.779	-11.26
238.996	-125.95
239.214	-31.74
239.431	89.09
239.648	-70.65
239.865	31.74
240.083	-1.02
240.3	-1.02
240.517	-23.55
240.735	21.5
240.952	107.52
241.169	9.22
241.386	35.84
241.603	44.03
241.821	-1.02
242.038	54.27
242.255	107.52
242.472	-21.5
242.689	37.89
242.907	29.7
243.124	95.23
243.341	-46.08
243.558	-17.41
243.775	-29.7
243.992	-82.94
244.209	39.94
244.426	105.47
244.643	60.42
244.86	35.84
245.078	115.71
245.295	39.94
245.512	-27.65
245.729	-33.79
245.946	-7.17
246.163	-21.5
246.38	11.26
246.597	-35.84
246.814	-27.65
247.031	31.74
247.248	60.42
247.464	7.17
247.681	-13.31
247.898	19.46
248.115	-48.13
248.332	-15.36
248.549	-9.22
248.766	37.89
248.983	27.65
249.2	13.31
249.417	23.55
249.633	7.17
249.85	64.51
250.067	7.17
250.284	-15.36
250.501	9.22
250.717	17.41
250.934	-23.55
251.151	23.55
251.368	-29.7
251.585	-1.02
251.801	-27.65
252.018	5.12
252.235	62.46
252.451	-113.66
252.668	52.22
252.885	80.89
253.102	3.07
253.318	9.22
253.535	13.31
253.752	89.09
253.968	-9.22
254.185	15.36
254.401	21.5
254.618	-5.12
254.835	-74.75
255.051	35.84
255.268	29.7
255.484	7.17
255.701	-111.61
255.917	58.37
256.134	-5.12
256.351	7.17
256.567	19.46
256.784	-13.31
257	-82.94
257.217	35.84
257.433	60.42
257.65	7.17
257.866	66.56
258.082	27.65
258.299	64.51
258.515	46.08
258.732	46.08
258.948	-58.37
259.165	23.55
259.381	-37.89
259.597	-23.55
259.814	68.61
260.03	19.46
260.246	-7.17
260.463	72.7
260.679	58.37
260.895	62.46
261.112	15.36
261.328	-17.41
261.544	54.27
261.761	31.74
261.977	-5.12
262.193	37.89
262.409	33.79
262.626	78.85
262.842	-25.6
263.058	35.84
263.274	56.32
263.49	44.03
263.707	89.09
263.923	23.55
264.139	-62.46
264.355	56.32
264.571	-9.22
264.787	-1.02
265.004	80.89
265.22	64.51
265.436	-80.89
265.652	-31.74
265.868	-25.6
266.084	-56.32
266.3	68.61
266.516	-82.94
266.732	60.42
266.948	11.26
267.164	3.07
267.38	29.7
267.596	46.08
267.812	48.13
268.028	35.84
268.244	17.41
268.46	101.37
268.676	-25.6
268.892	-1.02
269.108	27.65
269.324	-23.55
269.54	-54.27
269.756	39.94
269.972	25.6
270.188	1.02
270.403	-29.7
270.619	-5.12
270.835	27.65
271.051	15.36
271.267	9.22
271.483	27.65
271.698	-33.79
271.914	80.89
272.13	-3.07
272.346	31.74
272.562	-9.22
272.777	-11.26
272.993	44.03
273.209	-17.41
273.425	-13.31
273.64	-21.5
273.856	-5.12
274.072	9.22
274.287	-23.55
274.503	13.31
274.719	56.32
274.934	70.65
275.15	-23.55
275.366	-15.36
275.581	48.13
275.797	-1.02
276.012	23.55
276.228	3.07
276.444	11.26
276.659	56.32
276.875	-60.42
277.09	23.55
277.306	-9.22
277.521	50.18
277.737	-41.98
277.952	-37.89
278.168	64.51
278.383	-39.94
278.599	23.55
278.814	27.65
279.03	15.36
279.245	97.28
279.461	1.02
279.676	68.61
279.892	44.03
280.107	-62.46
280.322	-56.32
280.538	27.65
280.753	-70.65
280.969	23.55
281.184	5.12
281.399	76.8
281.615	39.94
281.83	68.61
282.045	17.41
282.26	-17.41
282.476	19.46
282.691	11.26
282.906	-21.5
283.122	52.22
283.337	-21.5
283.552	-11.26
283.767	13.31
283.983	33.79
284.198	35.84
284.413	70.65
284.628	15.36
284.843	-21.5
285.058	7.17
285.274	-25.6
285.489	-70.65
285.704	-9.22
285.919	13.31
286.134	27.65
286.349	-68.61
286.564	64.51
286.779	52.22
286.995	-3.07
287.21	-11.26
287.425	17.41
287.64	89.09
287.855	11.26
288.07	-44.03
288.285	80.89
288.5	7.17
288.715	15.36
288.93	37.89
289.145	-33.79
289.36	54.27
289.575	-9.22
289.79	1.02
290.004	29.7
290.219	58.37
290.434	-33.79
290.649	-41.98
290.864	25.6
291.079	11.26
291.294	23.55
291.509	-7.17
291.724	35.84
291.938	78.85
292.153	64.51
292.368	60.42
292.583	-35.84
292.798	-19.46
293.012	-17.41
293.227	-3.07
293.442	-9.22
293.657	76.8
293.871	76.8
294.086	87.04
294.301	50.18
294.516	-3.07
294.73	-17.41
294.945	-41.98
295.16	60.42
295.374	56.32
295.589	54.27
295.804	11.26
296.018	-41.98
296.233	95.23
296.447	17.41
296.662	-11.26
296.877	48.13
297.091	54.27
297.306	13.31
297.52	-25.6
297.735	17.41
297.949	56.32
298.164	23.55
298.378	21.5
298.593	-41.98
298.807	-68.61
299.022	60.42
299.236	21.5
299.451	-13.31
299.665	9.22
299.88	31.74
300.094	64.51
300.309	11.26
300.523	15.36
300.737	50.18
300.952	-62.46
301.166	17.41
301.381	-54.27
301.595	21.5
301.809	-5.12
302.024	41.98
302.238	-3.07
302.452	130.05
302.667	37.89
302.881	15.36
303.095	-9.22
303.309	7.17
303.524	-3.07
303.738	15.36
303.952	19.46
304.166	60.42
304.381	-62.46
304.595	68.61
304.809	-3.07
305.023	54.27
305.237	3.07
305.452	72.7
305.666	48.13
305.88	56.32
306.094	80.89
306.308	-7.17
306.522	50.18
306.736	72.7
306.95	48.13
307.164	-3.07
307.379	-7.17
307.593	95.23
307.807	19.46
308.021	78.85
308.235	25.6
308.449	9.22
308.663	23.55
308.877	48.13
309.091	19.46
309.305	-58.37
309.519	-84.99
309.733	15.36
309.947	11.26
310.161	-33.79
310.374	132.09
310.588	105.47
310.802	19.46
311.016	-3.07
311.23	7.17
311.444	15.36
311.658	82.94
311.872	19.46
312.085	37.89
312.299	103.42
312.513	29.7
312.727	3.07
312.941	-9.22
313.154	-37.89
313.368	93.18
313.582	17.41
313.796	-31.74
314.009	-5.12
314.223	91.13
314.437	23.55
314.651	48.13
314.864	29.7
315.078	62.46
315.292	17.41
315.505	-1.02
315.719	15.36
315.933	44.03
316.146	31.74
316.36	-70.65
316.573	-33.79
316.787	-23.55
317.001	48.13
317.214	17.41
317.428	27.65
317.641	-97.28
317.855	-1.02
318.068	-1.02
318.282	-37.89
318.495	78.85
318.709	35.84
318.922	-39.94
319.136	103.42
319.349	72.7
319.563	-5.12
319.776	48.13
319.99	-11.26
320.203	64.51
320.417	31.74
320.63	48.13
320.843	64.51
321.057	17.41
321.27	-37.89
321.483	80.89
321.697	105.47
321.91	80.89
322.124	35.84
322.337	56.32
322.55	-29.7
322.763	48.13
322.977	25.6
323.19	29.7
323.403	-52.22
323.617	64.51
323.83	95.23
324.043	13.31
324.256	35.84
324.469	44.03
324.683	56.32
324.896	-35.84
325.109	27.65
325.322	-33.79
325.535	56.32
325.748	74.75
325.962	15.36
326.175	80.89
326.388	58.37
326.601	56.32
326.814	5.12
327.027	56.32
327.24	97.28
327.453	-21.5
327.666	89.09
327.879	117.76
328.092	37.89
328.305	-23.55
328.518	35.84
328.731	3.07
328.944	39.94
329.157	-1.02
329.37	39.94
329.583	84.99
329.796	87.04
330.009	-35.84
330.222	-17.41
330.435	84.99
330.648	29.7
330.861	13.31
331.073	-29.7
331.286	46.08
331.499	15.36
331.712	5.12
331.925	31.74
332.138	84.99
332.35	7.17
332.563	-68.61
332.776	58.37
332.989	29.7
333.202	-33.79
333.414	-35.84
333.627	-21.5
333.84	60.42
334.053	44.03
334.265	60.42
334.478	-29.7
334.691	48.13
334.903	52.22
335.116	-5.12
335.329	23.55
335.541	31.74
335.754	52.22
335.966	-9.22
336.179	11.26
336.392	39.94
336.604	-29.7
336.817	35.84
337.029	27.65
337.242	5.12
337.454	84.99
337.667	7.17
337.88	54.27
338.092	31.74
338.305	31.74
338.517	-29.7
338.729	25.6
338.942	109.57
339.154	-33.79
339.367	3.07
339.579	27.65
339.792	17.41
340.004	13.31
340.217	-19.46
340.429	-39.94
340.641	50.18
340.854	-31.74
341.066	27.65
341.278	125.95
341.491	66.56
341.703	5.12
341.915	7.17
342.128	-5.12
342.34	-13.31
342.552	-11.26
342.764	-11.26
342.977	60.42
343.189	48.13
343.401	17.41
343.613	-74.75
343.826	84.99
344.038	-58.37
344.25	23.55
344.462	35.84
344.674	93.18
344.886	-58.37
345.099	74.75
345.311	19.46
345.523	-48.13
345.735	-54.27
345.947	31.74
346.159	33.79
346.371	-15.36
346.583	15.36
346.795	56.32
347.007	46.08
347.219	46.08
347.431	-9.22
347.643	78.85
347.855	-33.79
348.067	60.42
348.279	-50.18
348.491	39.94
348.703	-3.07
348.915	-33.79
349.127	-15.36
349.339	80.89
349.551	-27.65
349.763	54.27
349.975	-1.02
350.187	7.17
350.399	15.36
350.61	87.04
350.822	7.17
351.034	68.61
351.246	37.89
351.458	-41.98
351.669	-27.65
351.881	54.27
352.093	19.46
352.305	68.61
352.517	39.94
352.728	11.26
352.94	13.31
353.152	64.51
353.363	-37.89
353.575	60.42
353.787	113.66
353.999	1.02
354.21	132.09
354.422	-29.7
354.633	19.46
354.845	-35.84
355.057	97.28
355.268	72.7
355.48	31.74
355.692	7.17
355.903	-1.02
356.115	3.07
356.326	-27.65
356.538	31.74
356.749	37.89
356.961	105.47
357.172	41.98
357.384	3.07
357.595	84.99
357.807	39.94
358.018	7.17
358.23	23.55
358.441	138.24
358.653	62.46
358.864	9.22
359.075	-17.41
359.287	-1.02
359.498	66.56
359.709	-11.26
359.921	113.66
360.132	33.79
360.344	-41.98
360.555	-70.65
360.766	95.23
360.977	-13.31
361.189	62.46
361.4	-1.02
361.611	5.12
361.823	29.7
362.034	54.27
362.245	15.36
362.456	7.17
362.667	76.8
362.879	54.27
363.09	37.89
363.301	39.94
363.512	-1.02
363.723	-11.26
363.935	-15.36
364.146	46.08
364.357	-11.26
364.568	60.42
364.779	-50.18
364.99	109.57
365.201	-62.46
365.412	123.9
365.623	-44.03
365.834	39.94
366.045	7.17
366.256	56.32
366.467	56.32
366.678	17.41
366.889	50.18
367.1	1.02
367.311	48.13
367.522	37.89
367.733	87.04
367.944	7.17
368.155	15.36
368.366	37.89
368.577	103.42
368.788	72.7
368.999	-21.5
369.209	35.84
369.42	72.7
369.631	93.18
369.842	-13.31
370.053	7.17
370.264	99.33
370.474	89.09
370.685	31.74
370.896	56.32
371.107	-11.26
371.317	7.17
371.528	-7.17
371.739	21.5
371.95	27.65
372.16	105.47
372.371	-11.26
372.582	58.37
372.792	68.61
373.003	48.13
373.214	-15.36
373.424	105.47
373.635	-25.6
373.846	19.46
374.056	-15.36
374.267	-46.08
374.477	37.89
374.688	27.65
374.898	-13.31
375.109	121.85
375.319	35.84
375.53	50.18
375.74	72.7
375.951	46.08
376.161	46.08
376.372	99.33
376.582	44.03
376.793	23.55
377.003	-44.03
377.214	91.13
377.424	54.27
377.635	72.7
377.845	11.26
378.055	95.23
378.266	9.22
378.476	15.36
378.686	84.99
378.897	52.22
379.107	52.22
379.317	31.74
379.528	11.26
379.738	-11.26
379.948	-11.26
380.158	19.46
380.369	11.26
380.579	-25.6
380.789	33.79
380.999	46.08
381.21	15.36
381.42	103.42
381.63	-1.02
381.84	89.09
382.05	70.65
382.261	62.46
382.471	76.8
382.681	11.26
382.891	15.36
383.101	72.7
383.311	-25.6
383.521	46.08
383.731	19.46
383.941	74.75
384.151	54.27
384.361	15.36
384.571	84.99
384.781	54.27
384.991	89.09
385.201	80.89
385.411	-46.08
385.621	62.46
385.831	52.22
386.041	23.55
386.251	95.23
386.461	58.37
386.671	89.09
386.881	7.17
387.091	31.74
387.301	33.79
387.511	58.37
387.72	48.13
387.93	76.8
388.14	5.12
388.35	54.27
388.56	56.32
388.769	146.43
388.979	-11.26
389.189	-1.02
389.399	7.17
389.609	19.46
389.818	84.99
390.028	13.31
390.238	29.7
390.447	35.84
390.657	7.17
390.867	46.08
391.076	21.5
391.286	-29.7
391.496	-17.41
391.705	130.05
391.915	56.32
392.125	66.56
392.334	89.09
392.544	125.95
392.753	72.7
392.963	56.32
393.172	56.32
393.382	76.8
393.591	113.66
393.801	5.12
394.01	113.66
394.22	101.37
394.429	109.57
394.639	44.03
394.848	72.7
395.058	80.89
395.267	111.61
395.477	54.27
395.686	21.5
395.895	64.51
396.105	150.53
396.314	138.24
396.524	52.22
396.733	113.66
396.942	156.67
397.152	37.89
397.361	113.66
397.57	97.28
397.78	39.94
397.989	44.03
398.198	171.01
398.407	121.85
398.617	27.65
398.826	91.13
399.035	-9.22
399.244	132.09
399.453	72.7
399.663	54.27
399.872	128
400.081	23.55
400.29	62.46
400.499	27.65
400.708	62.46
400.917	123.9
401.127	-48.13
401.336	-21.5
401.545	166.91
401.754	101.37
401.963	76.8
402.172	130.05
402.381	78.85
402.59	68.61
402.799	164.86
403.008	70.65
403.217	62.46
403.426	35.84
403.635	-21.5
403.844	181.25
404.053	97.28
404.262	160.77
404.471	166.91
404.68	115.71
404.888	136.19
405.097	111.61
405.306	199.68
405.515	138.24
405.724	109.57
405.933	134.14
406.142	158.72
406.35	177.15
406.559	142.33
406.768	105.47
406.977	211.96
407.185	154.62
407.394	130.05
407.603	95.23
407.812	177.15
408.02	248.83
408.229	242.68
408.438	175.1
408.646	259.07
408.855	185.34
409.064	318.46
409.272	242.68
409.481	230.4
409.69	146.43
409.898	281.6
410.107	328.7
410.315	293.88
410.524	330.75
410.733	297.98
410.941	310.27
411.15	408.57
411.358	273.4
411.567	447.48
411.775	283.64
411.984	388.09
412.192	330.75
412.401	367.61
412.609	494.58
412.818	553.98
413.026	451.58
413.234	371.71
413.443	510.97
413.651	513.02
413.86	441.34
414.068	586.74
414.276	633.85
414.485	408.57
414.693	531.45
414.901	629.75
415.11	658.42
415.318	588.79
415.526	631.8
415.734	678.9
415.943	668.66
416.151	809.97
416.359	717.81
416.567	777.2
416.776	820.21
416.984	920.56
417.192	984.05
417.4	844.79
417.608	936.95
417.817	908.27
418.025	926.71
418.233	1072.11
418.441	965.62
418.649	1059.82
418.857	1170.41
419.065	1207.28
419.273	1100.78
419.481	1186.8
419.689	1291.24
419.897	1348.59
420.105	1393.64
420.313	1403.88
420.521	1358.83
420.729	1594.34
420.937	1684.45
421.145	1520.62
421.353	1633.26
421.561	1680.36
421.769	1809.38
421.977	1848.29
422.185	1821.67
422.393	1932.26
422.601	2003.94
422.809	2159.58
423.017	2028.51
423.224	2092
423.432	2261.98
423.64	2227.17
423.848	2436.06
424.056	2442.2
424.263	2472.92
424.471	2587.61
424.679	2597.85
424.887	2765.78
425.094	2784.21
425.302	2839.51
425.51	3062.74
425.718	3115.98
425.925	3257.29
426.133	3150.8
426.341	3509.19
426.548	3513.29
426.756	3668.94
426.964	3460.04
427.171	3861.45
427.379	4043.71
427.586	3951.56
427.794	4156.35
428.001	4273.09
428.209	4471.74
428.417	4422.59
428.624	4694.97
428.832	4733.88
429.039	4703.16
429.247	4647.87
429.454	5133.23
429.662	5413.81
429.869	5198.77
430.076	5600.17
430.284	5241.78
430.491	5653.42
430.699	5917.61
430.906	5815.21
431.114	5997.48
431.321	6294.43
431.528	6445.98
431.736	6620.06
431.943	6835.1
432.15	6921.11
432.358	6869.91
432.565	7429.01
432.772	7312.27
432.979	7611.28
433.187	7797.64
433.394	7742.35
433.601	8242.05
433.808	8358.78
434.016	8350.59
434.223	8661.88
434.43	8985.46
434.637	8964.98
434.844	9429.87
435.052	9849.71
435.259	9606
435.466	9845.61
435.673	9536.37
435.88	10091.37
436.087	10926.94
436.294	10716
436.501	10566.49
436.708	10808.16
436.915	11107.16
437.122	11627.34
437.329	11580.24
437.537	12055.37
437.743	12233.54
437.95	12342.08
438.157	12768.06
438.364	13136.7
438.571	13157.18
438.778	13124.41
438.985	14539.55
439.192	13697.84
439.399	14250.79
439.606	14048.04
439.813	14762.78
440.02	15674.13
440.227	15362.84
440.433	15426.32
440.64	15688.46
440.847	15586.07
441.054	16149.26
441.261	17107.71
441.467	16849.66
441.674	17367.8
441.881	18043.63
442.088	17994.48
442.294	17715.95
442.501	18043.63
442.708	18653.92
442.914	19323.61
443.121	20144.84
443.328	19819.22
443.534	20970.18
443.741	20185.8
443.948	20093.65
444.154	21580.47
444.361	21320.38
444.568	21646.01
444.774	21783.22
444.981	21465.78
445.187	22522.54
445.394	23491.23
445.6	22813.35
445.807	25602.68
446.013	24251.02
446.22	24437.39
446.426	25629.3
446.633	26022.51
446.839	26290.8
447.046	25496.19
447.252	26786.41
447.459	26962.53
447.665	26641
447.871	28269.14
448.078	29139.52
448.284	27953.75
448.491	28910.15
448.697	29522.49
448.903	30120.5
449.11	30057.01
449.316	29991.48
449.522	30360.11
449.728	31097.38
449.935	31390.24
450.141	31429.15
450.347	31912.47
450.553	31093.29
450.76	31695.39
450.966	32414.23
451.172	31982.1
451.378	32657.93
451.584	32088.6
451.791	33032.71
451.997	32799.24
452.203	33321.48
452.409	33165.83
452.615	33268.23
452.821	31928.86
453.027	31603.23
453.233	33227.27
453.44	31990.3
453.646	31865.37
453.852	32401.94
454.058	33057.29
454.264	31998.49
454.47	32625.17
454.676	31601.18
454.882	32965.13
455.088	30224.95
455.294	30470.7
455.5	30988.84
455.705	30859.82
455.911	29971
456.117	29618.75
456.323	28721.74
456.529	27462.24
456.735	28838.47
456.941	28000.85
457.147	27613.79
457.352	26923.62
457.558	26298.99
457.764	26657.39
457.97	25680.5
458.176	25305.73
458.381	25211.52
458.587	23984.79
458.793	24265.36
458.999	22792.87
459.204	24334.99
459.41	23796.37
459.616	21988.02
459.821	22028.98
460.027	21828.27
460.233	21422.78
460.438	20742.85
460.644	20503.24
460.85	20161.23
461.055	19479.25
461.261	19358.42
461.466	18135.79
461.672	17517.3
461.878	18610.92
462.083	17181.43
462.289	17396.47
462.494	16919.29
462.7	16270.09
462.905	15760.14
463.111	16648.96
463.316	16282.38
463.522	15895.31
463.727	16110.35
463.932	16227.08
464.138	15926.03
464.343	15807.25
464.549	15530.77
464.754	16145.16
464.959	15868.69
465.165	15557.39
465.37	15018.78
465.575	14691.1
465.781	15287.06
465.986	15444.76
466.191	14813.98
466.397	14406.44
466.602	13656.88
466.807	14277.41
467.012	14328.61
467.218	14045.99
467.423	13937.45
467.628	14119.72
467.833	14455.59
468.038	14218.02
468.244	13740.85
468.449	14224.17
468.654	13794.09
468.859	13830.96
469.064	13792.05
469.269	12981.05
469.474	13249.33
469.679	13699.89
469.885	13142.84
470.09	13210.42
470.295	13241.14
470.5	12733.25
470.705	12821.31
470.91	12550.98
471.115	12708.67
471.32	12671.81
471.525	12532.54
471.73	12393.28
471.935	12200.77
472.139	11928.39
472.344	11897.67
472.549	11785.04
472.754	11696.97
472.959	11559.76
473.164	11440.98
473.369	11250.52
473.574	11440.98
473.778	11266.9
473.983	11164.5
474.188	11189.08
474.393	10572.64
474.598	10779.48
474.802	10550.11
475.007	10619.74
475.212	10672.99
475.417	10228.58
475.621	10081.13
475.826	10367.84
476.031	9902.95
476.235	9890.67
476.44	10005.35
476.645	9933.67
476.849	9839.47
477.054	9859.95
477.259	9491.31
477.463	9743.21
477.668	9460.59
477.872	9599.85
478.077	9567.09
478.282	9067.38
478.486	9063.29
478.691	8944.5
478.895	8917.88
479.1	8811.39
479.304	8803.19
479.509	8594.3
479.713	8952.7
479.918	8739.71
480.122	8354.69
480.326	8575.87
480.531	8436.61
480.735	8516.48
480.94	8395.65
481.144	8625.02
481.348	8190.85
481.553	8301.44
481.757	8506.24
481.961	8364.93
482.166	8323.97
482.37	8352.64
482.574	8233.86
482.778	8246.15
482.983	8522.62
483.187	8190.85
483.391	8362.88
483.595	8106.88
483.8	8127.36
484.004	8274.82
484.208	8235.91
484.412	8231.81
484.616	8190.85
484.821	8328.06
485.025	8182.66
485.229	8160.13
485.433	8162.18
485.637	8211.33
485.841	8115.08
486.045	8158.08
486.249	8287.11
486.453	7969.67
486.657	8414.08
486.861	8162.18
487.065	8098.69
487.269	8403.84
487.473	8209.28
487.677	8389.5
487.881	8487.81
488.085	8096.64
488.289	8379.26
488.493	8190.85
488.697	8266.63
488.901	8307.59
489.105	8131.46
489.309	8092.55
489.512	8283.01
489.716	8285.06
489.92	8295.3
490.124	8283.01
490.328	8457.09
490.531	8330.11
490.735	8444.8
490.939	8493.95
491.143	8233.86
491.346	8291.2
491.55	8356.74
491.754	8586.11
491.958	8614.78
492.161	8696.7
492.365	8600.44
492.569	8719.23
492.772	8594.3
492.976	8698.75
493.18	8960.89
493.383	8956.79
493.587	9001.85
493.79	9022.33
493.994	8760.19
494.197	8926.07
494.401	9163.64
494.605	9065.33
494.808	9110.39
495.012	9233.27
495.215	9122.68
495.419	9372.53
495.622	9352.05
495.825	9388.91
496.029	9606
496.232	9702.25
496.436	9737.07
496.639	10066.79
496.843	9737.07
497.046	10070.89
497.249	10220.39
497.453	10017.64
497.656	10378.08
497.859	10412.9
498.063	10451.81
498.266	10691.42
498.469	10672.99
498.673	10765.15
498.876	10971.99
499.079	11111.25
499.282	11098.97
499.485	11385.68
499.689	11326.29
499.892	11791.18
500.095	11641.68
500.298	11805.52
500.501	11799.37
500.705	12149.57
500.908	12176.2
501.111	12139.33
501.314	12532.54
501.517	12522.3
501.72	12761.92
501.923	12598.08
502.126	12897.08
502.329	13380.4
502.532	13359.92
502.735	13407.03
502.938	13495.09
503.141	13634.35
503.344	14080.81
503.547	13859.63
503.75	13990.7
503.953	14459.68
504.156	14611.23
504.359	14682.91
504.562	14859.04
504.765	15020.83
504.968	15260.44
505.17	15549.2
505.373	15487.76
505.576	15823.63
505.779	15536.91
505.982	15917.84
506.185	16218.89
506.387	16339.72
506.59	16767.74
506.793	16782.08
506.996	16706.31
507.198	17023.74
507.401	17244.92
507.604	17445.62
507.807	17720.05
508.009	17892.08
508.212	17974
508.415	18256.62
508.617	18477.8
508.82	18496.23
509.022	18494.18
509.225	19047.13
509.428	19186.4
509.63	19458.78
509.833	19350.23
510.035	20222.67
510.238	20003.53
510.44	20185.8
510.643	20382.41
510.845	20753.09
511.048	20368.07
511.25	20724.42
511.453	21447.35
511.655	21764.79
511.858	21748.4
512.06	22198.96
512.262	22291.12
512.465	22192.81
512.667	22540.97
512.87	23014.05
513.072	23046.82
513.274	23818.9
513.477	23831.19
513.679	24158.86
513.881	24117.9
514.084	24597.13
514.286	24984.19
514.488	24959.62
514.69	25725.56
514.893	25430.65
515.095	25606.78
515.297	26204.78
515.499	26135.15
515.701	26933.86
515.904	27228.77
516.106	27208.29
516.308	27525.72
516.51	28045.91
516.712	27972.18
516.914	28551.76
517.116	28742.22
517.318	29157.96
517.52	28914.25
517.722	29426.24
517.925	30358.06
518.127	30491.18
518.329	30855.72
518.531	30544.43
518.733	31466.02
518.935	31554.08
519.136	31937.05
519.338	32166.42
519.54	32676.37
519.742	32594.45
519.944	33370.63
520.146	34073.08
520.348	33937.91
520.55	34390.52
520.752	34714.09
520.954	34988.52
521.155	35211.75
521.357	35750.37
521.559	36241.88
521.761	36964.81
521.963	36458.96
522.164	36886.99
522.366	37249.48
522.568	37851.58
522.77	37974.46
522.971	38928.81
523.173	38824.37
523.375	38988.21
523.576	39240.11
523.778	39524.77
523.98	40141.21
524.181	40616.34
524.383	40593.81
524.584	41513.35
524.786	41329.03
524.988	41275.79
525.189	42133.89
525.391	42377.59
525.592	42725.75
525.794	43176.3
525.995	43196.78
526.197	43387.24
526.398	43905.38
526.6	44024.16
526.801	44489.05
527.003	44362.08
527.204	44867.92
527.406	45068.62
527.607	45240.65
527.808	45719.88
528.01	44642.65
528.211	45521.23
528.412	47069.49
528.614	46737.72
528.815	46645.56
529.016	47092.02
529.218	47145.26
529.419	47245.62
529.62	47450.41
529.822	47491.37
530.023	48079.14
530.224	47550.76
530.425	48474.4
530.626	47819.05
530.828	48302.37
531.029	49103.12
531.23	48427.29
531.431	49008.92
531.632	48937.24
531.833	49316.11
532.035	49201.43
532.236	49277.2
532.437	49656.07
532.638	49635.59
532.839	49371.41
533.04	50180.35
533.241	49395.98
533.442	50530.56
533.643	50227.46
533.844	49969.41
534.045	50422.01
534.246	49998.09
534.447	50725.11
534.648	50368.77
534.849	50311.42
535.05	50200.83
535.251	50876.66
535.451	50196.74
535.652	50782.46
535.853	50688.25
536.054	51169.52
536.255	51155.19
536.456	50987.25
536.657	51642.6
536.857	51020.02
537.058	50635
537.259	51396.85
537.46	51245.3
537.66	51095.8
537.861	51177.72
538.062	51151.09
538.263	51427.57
538.463	50577.66
538.664	51441.9
538.865	51740.91
539.065	51407.09
539.266	50835.7
539.466	51667.18
539.667	50882.81
539.868	51751.15
540.068	51462.38
540.269	51259.63
540.469	51704.04
540.67	51394.8
540.87	50888.95
541.071	51177.72
541.271	51691.76
541.472	51233.01
541.672	51249.39
541.873	51085.56
542.073	50495.74
542.274	51933.42
542.474	51433.71
542.675	51351.79
542.875	51718.38
543.075	51702
543.276	51077.36
543.476	51171.57
543.676	51400.94
543.877	51824.87
544.077	51779.82
544.277	51185.91
544.478	51282.16
544.678	51265.78
544.878	51392.75
545.078	51206.39
545.279	50854.14
545.479	51085.56
545.679	51376.37
545.879	51536.11
546.079	51083.51
546.28	51368.18
546.48	50891
546.68	51536.11
546.88	51392.75
547.08	51380.46
547.28	51466.48
547.48	51118.32
547.68	51609.84
547.88	51155.19
548.081	51456.24
548.281	51290.35
548.481	51101.94
548.681	51609.84
548.881	51093.75
549.081	51581.16
549.28	51228.91
549.48	51372.27
549.68	51441.9
549.88	51972.33
550.08	50985.21
550.28	51593.45
550.48	51290.35
550.68	51507.44
550.88	51280.11
551.08	51179.76
551.279	51069.17
551.479	50731.26
551.679	51095.8
551.879	50948.34
552.079	51407.09
552.278	50897.14
552.478	50995.45
552.678	50841.85
552.878	51405.04
553.077	51007.73
553.277	50841.85
553.477	51339.5
553.676	51228.91
553.876	50774.27
554.076	50608.38
554.275	50497.79
554.475	50520.32
554.674	50186.5
554.874	51065.08
555.074	50260.23
555.273	50727.16
555.473	50847.99
555.672	50016.52
555.872	50266.37
556.071	50229.51
556.271	50528.51
556.47	50274.56
556.67	49654.03
556.869	50170.11
557.068	50159.87
557.268	49867.02
557.467	49942.79
557.667	49545.48
557.866	49639.69
558.065	49469.71
558.265	49525
558.464	48765.21
558.663	49604.88
558.863	48918.81
559.062	49920.26
559.261	48734.49
559.461	49369.36
559.66	48775.45
559.859	49037.59
560.058	48443.68
560.258	48505.12
560.457	47845.67
560.656	48599.32
560.855	47819.05
561.054	47980.84
561.253	47860.01
561.453	48214.3
561.652	48187.68
561.851	47694.12
562.05	47092.02
562.249	47038.77
562.448	47745.32
562.647	46801.21
562.846	47026.48
563.045	46876.98
563.244	46418.24
563.443	46930.23
563.642	46129.47
563.841	46487.87
564.04	46342.46
564.239	46721.34
564.438	45977.92
564.637	45646.15
564.836	45855.04
565.035	45482.31
565.234	45463.88
565.432	45128.02
565.631	44798.29
565.83	45044.05
566.029	44601.69
566.228	44339.55
566.427	44280.16
566.625	44032.35
566.824	43647.33
567.023	43858.27
567.222	43454.82
567.42	44040.54
567.619	43641.19
567.818	43282.8
568.016	43127.15
568.215	43385.19
568.414	42733.94
568.612	43075.95
568.811	42451.32
569.01	42645.88
569.208	42019.2
569.407	42191.23
569.605	41585.03
569.804	41714.05
570.002	41218.44
570.201	41603.46
570.4	41249.16
570.598	40866.19
570.797	40597.91
570.995	40954.26
571.193	40427.93
571.392	40556.95
571.59	40337.82
571.789	40116.64
571.987	39952.8
572.186	39489.96
572.384	39559.59
572.582	39768.48
572.781	39694.75
572.979	38556.08
573.177	38984.11
573.376	38631.86
573.574	38504.88
573.772	38529.46
573.971	38316.47
574.169	38150.59
574.367	37673.41
574.565	38230.46
574.763	37833.15
574.962	37902.78
575.16	37609.92
575.358	37327.3
575.556	36719.06
575.754	37642.69
575.952	36608.47
576.151	37116.36
576.349	36379.09
576.547	36364.76
576.745	36493.78
576.943	36241.88
577.141	35824.09
577.339	35848.67
577.537	35740.13
577.735	35877.34
577.933	35580.39
578.131	35486.18
578.329	35228.13
578.527	35164.65
578.725	34955.75
578.923	35211.75
579.121	34902.51
579.319	34726.38
579.516	34744.81
579.714	34298.36
579.912	34353.65
580.11	34146.81
580.308	34191.86
580.506	34152.95
580.704	33665.53
580.901	33741.31
581.099	34124.28
581.297	33354.24
581.495	33098.25
581.692	33378.82
581.89	32999.94
582.088	33298.95
582.285	32918.03
582.483	33116.68
582.681	32903.69
582.878	32528.91
583.076	32250.39
583.274	32408.08
583.471	32125.46
583.669	31947.29
583.866	32027.16
584.064	32180.76
584.262	31558.17
584.459	31898.14
584.657	31445.54
584.854	31859.23
585.052	31246.88
585.249	31691.29
585.447	31138.34
585.644	30890.54
585.841	30822.95
586.039	31429.15
586.236	30644.78
586.434	31158.82
586.631	30431.79
586.828	30413.36
587.026	30444.08
587.223	30401.07
587.42	30186.04
587.618	30290.48
587.815	29645.37
588.012	29708.86
588.21	29565.5
588.407	29729.34
588.604	29315.65
588.801	29557.31
588.999	29512.25
589.196	29418.05
589.393	29342.27
589.59	29063.75
589.787	28803.66
589.984	29043.27
590.182	28639.82
590.379	28725.83
590.576	28623.44
590.773	28605
590.97	28365.39
591.167	28453.45
591.364	27847.26
591.561	28277.33
591.758	27693.66
591.955	28064.34
592.152	28109.4
592.349	27918.93
592.546	27740.76
592.743	28011.09
592.94	27357.79
593.137	27834.97
593.334	27812.44
593.531	26968.68
593.727	27329.12
593.924	27148.9
594.121	27345.5
594.318	26798.7
594.515	26401.39
594.712	26935.91
594.908	26614.38
595.105	26778.22
595.302	26624.62
595.499	26215.02
595.696	26339.95
595.892	26090.1
596.089	26161.78
596.286	25930.36
596.482	26026.61
596.679	26135.15
596.876	26042.99
597.072	25541.24
597.269	25600.63
597.466	25774.71
597.662	25463.42
597.859	25426.56
598.055	25369.21
598.252	25326.21
598.448	25207.42
598.645	25346.69
598.841	24990.34
599.038	24963.72
599.234	25066.11
599.431	24584.84
599.627	24582.79
599.824	24842.88
600.02	24576.65
600.217	24386.19
600.413	24304.27
600.609	24570.51
600.806	24167.06
601.002	24117.9
601.198	23960.21
601.395	23792.28
601.591	23837.33
601.787	24009.36
601.984	23698.07
602.18	23960.21
602.376	23636.63
602.572	23405.21
602.769	23804.56
602.965	23495.32
603.161	23245.47
603.357	23116.45
603.553	22860.45
603.75	23286.43
603.946	22715.05
604.142	23075.49
604.338	22692.52
604.534	22764.2
604.73	22506.15
604.926	22645.41
605.122	22766.24
605.318	22317.74
605.514	22764.2
605.71	22254.25
605.906	22211.25
606.102	22260.4
606.298	21959.34
606.494	22260.4
606.69	22112.94
606.886	22178.48
607.082	21609.14
607.278	21803.7
607.474	21299.9
607.67	21371.58
607.866	21344.95
608.062	21557.94
608.257	21148.35
608.453	21230.27
608.649	21541.56
608.845	21076.67
609.041	21295.8
609.236	21177.02
609.432	21156.54
609.628	20961.98
609.824	20867.78
610.019	20955.84
610.215	20820.67
610.411	21041.85
610.606	20523.72
610.802	20667.08
610.998	20556.49
611.193	20648.64
611.389	20511.43
611.584	20273.87
611.78	20458.18
611.976	20116.17
612.171	20306.63
612.367	20044.49
612.562	20116.17
612.758	20040.4
612.953	20064.97
613.149	20263.63
613.344	19776.21
613.539	20359.88
613.735	19821.27
613.93	20038.35
614.126	19698.39
614.321	20028.11
614.517	19665.62
614.712	19725.01
614.907	19595.99
615.103	19815.12
615.298	19262.17
615.493	19540.69
615.688	19104.48
615.884	19688.15
616.079	19100.38
616.274	19251.93
616.47	18920.16
616.665	19167.96
616.86	19043.04
617.055	18991.84
617.25	18698.98
617.445	19034.85
617.641	18655.97
617.836	18846.43
618.031	18483.94
618.226	18422.5
618.421	18383.59
618.616	18653.92
618.811	18481.89
619.006	18674.4
619.201	18299.62
619.396	18412.26
619.591	18186.99
619.786	18094.83
619.981	17920.75
620.176	18098.92
620.371	17922.8
620.566	18113.26
620.761	17836.78
620.956	17933.04
621.151	17588.98
621.346	17672.95
621.541	17097.47
621.735	17285.88
621.93	17093.37
622.125	17244.92
622.32	16911.1
622.515	17048.32
622.709	16921.34
622.904	17085.18
623.099	16796.42
623.294	16739.07
623.488	16388.87
623.683	16593.67
623.878	16290.57
624.072	16503.56
624.267	16233.22
624.462	16024.33
624.656	16102.15
624.851	15825.68
625.046	15606.55
625.24	15993.61
625.435	15524.63
625.629	15731.47
625.824	15751.95
626.018	15229.72
626.213	15319.83
626.407	15371.03
626.602	14834.46
626.796	15014.68
626.991	15080.22
627.185	14834.46
627.38	14902.04
627.574	14717.73
627.768	14582.56
627.963	14439.2
628.157	14351.14
628.352	14465.83
628.546	14086.95
628.74	14424.87
628.935	14283.56
629.129	14199.59
629.323	14089
629.517	14013.23
629.712	13908.78
629.906	13972.27
630.1	13736.75
630.294	13769.52
630.489	13595.44
630.683	13697.84
630.877	13361.97
631.071	13435.7
631.265	13495.09
631.459	13376.31
631.653	13065.02
631.848	12972.86
632.042	13138.74
632.236	13200.18
632.43	12940.09
632.624	13030.2
632.818	12815.16
633.012	12704.57
633.206	12725.05
633.4	12610.37
633.594	12624.7
633.788	12555.07
633.982	12485.44
634.176	12383.04
634.369	12292.93
634.563	12450.63
634.757	12061.51
634.951	12118.86
635.145	11969.35
635.339	12022.6
635.533	11957.07
635.726	11885.39
635.92	11787.08
636.114	11856.72
636.308	11508.56
636.501	11531.09
636.695	11572.05
636.889	11545.42
637.083	11520.85
637.276	11430.74
637.47	11203.41
637.664	11232.08
637.857	11152.21
638.051	11115.35
638.244	10904.41
638.438	10885.98
638.632	10980.18
638.825	10662.75
639.019	10777.44
639.212	10679.13
639.406	10580.83
639.599	10867.55
639.793	10656.61
639.986	10365.79
640.18	10566.49
640.373	10343.27
640.567	10130.28
640.76	10197.86
640.954	10142.57
641.147	9956.2
641.34	9958.25
641.534	9747.31
641.727	9991.02
641.92	9816.94
642.114	9708.4
642.307	9743.21
642.5	9612.14
642.694	9431.92
642.887	9450.35
643.08	9548.65
643.273	9468.78
643.467	9261.94
643.66	9235.32
643.853	9302.9
644.046	9190.26
644.239	9280.37
644.432	9059.19
644.626	9063.29
644.819	8967.03
645.012	8987.51
645.205	8924.02
645.398	9087.86
645.591	8731.51
645.784	8829.82
645.977	8596.35
646.17	8428.42
646.363	8467.33
646.556	8448.9
646.749	8473.47
646.942	8575.87
647.135	8387.46
647.328	8266.63
647.521	8256.39
647.714	8227.71
647.907	8336.26
648.099	8125.32
648.292	8309.63
648.485	8113.03
648.678	8196.99
648.871	8117.12
649.064	8092.55
649.256	8072.07
649.449	7990.15
649.642	7981.96
649.835	7789.45
650.027	7902.09
650.22	7850.89
650.413	7639.95
650.605	7633.8
650.798	7748.49
650.991	7648.14
651.183	7609.23
651.376	7451.53
651.568	7644.04
651.761	7433.1
651.954	7603.08
652.146	7367.57
652.339	7265.17
652.531	7271.31
652.724	7238.55
652.916	7105.43
653.109	7207.83
653.301	7218.07
653.494	7187.35
653.686	6931.35
653.879	7130
654.071	7130
654.263	7068.56
654.456	7187.35
654.648	7029.65
654.84	6947.73
655.033	6908.82
655.225	6781.85
655.417	6919.06
655.61	6634.39
655.802	6736.79
655.994	6728.6
656.186	6822.81
656.379	6732.7
656.571	6755.22
656.763	6519.71
656.955	6511.52
657.148	6441.89
657.34	6513.56
657.532	6333.34
657.724	6460.32
657.916	6478.75
658.108	6443.93
658.3	6370.21
658.492	6409.12
658.684	6267.81
658.876	6278.05
659.068	6284.19
659.26	6181.79
659.452	6353.82
659.644	6167.46
659.836	6126.5
660.028	6073.25
660.22	6118.31
660.412	6034.34
660.604	6007.72
660.796	6060.96
660.988	6044.58
661.18	5897.13
661.372	6161.31
661.563	5917.61
661.755	5968.8
661.947	5872.55
662.139	5913.51
662.331	5893.03
662.522	5925.8
662.714	5647.27
662.906	5811.11
663.097	5665.71
663.289	5508.01
663.481	5616.55
663.673	5688.23
663.864	5766.06
664.056	5708.71
664.247	5553.07
664.439	5542.83
664.631	5591.98
664.822	5647.27
665.014	5411.76
665.205	5618.6
665.397	5528.49
665.588	5407.66
665.78	5516.2
665.971	5446.57
666.163	5415.85
666.354	5540.78
666.546	5387.18
666.737	5348.27
666.929	5444.52
667.12	5360.56
667.311	5268.4
667.503	5458.86
667.694	5313.45
667.885	5319.6
668.077	5364.65
668.268	5149.62
668.459	5233.58
668.651	5227.44
668.842	5227.44
669.033	5284.78
669.224	5034.93
669.416	5278.64
669.607	5116.85
669.798	5079.99
669.989	5151.67
670.18	5114.8
670.371	5217.2
670.563	5143.47
670.754	5176.24
670.945	5204.91
671.136	5225.39
671.327	5102.51
671.518	5041.08
671.709	5321.65
671.9	5166
672.091	5159.86
672.282	5079.99
672.473	5014.45
672.664	5061.55
672.855	4971.44
673.046	5231.54
673.237	5122.99
673.428	5127.09
673.619	5170.1
673.809	5270.45
674	5213.1
674.191	5159.86
674.382	5272.5
674.573	5127.09
674.764	5049.27
674.954	5168.05
675.145	5051.31
675.336	5039.03
675.527	5141.43
675.717	5118.9
675.908	4977.59
676.099	5221.3
676.289	5188.53
676.48	5020.6
676.671	5299.12
676.861	5344.17
677.052	5166
677.243	5233.58
677.433	5069.75
677.624	5424.05
677.814	5122.99
678.005	5229.49
678.195	5278.64
678.386	5333.93
678.576	5360.56
678.767	5247.92
678.957	5268.4
679.148	5401.52
679.338	5272.5
679.529	5335.98
679.719	5288.88
679.909	5395.37
680.1	5393.33
680.29	5387.18
680.481	5295.02
680.671	5483.44
680.861	5434.29
681.052	5426.09
681.242	5448.62
681.432	5411.76
681.622	5399.47
681.813	5325.74
682.003	5637.03
682.193	5397.42
682.383	5596.07
682.573	5497.77
682.764	5458.86
682.954	5393.33
683.144	5370.8
683.334	5485.48
683.524	5432.24
683.714	5487.53
683.904	5479.34
684.094	5493.68
684.284	5632.94
684.474	5573.55
684.664	5557.16
684.854	5485.48
685.044	5495.72
685.234	5428.14
685.424	5450.67
685.614	5581.74
685.804	5510.06
685.994	5675.95
686.184	5567.4
686.374	5735.34
686.564	5462.96
686.753	5544.88
686.943	5405.61
687.133	5407.66
687.323	5460.91
687.513	5419.95
687.702	5295.02
687.892	5325.74
688.082	5272.5
688.272	5419.95
688.461	5229.49
688.651	5272.5
688.841	5307.31
689.03	5290.93
689.22	5200.82
689.41	5249.97
689.599	5223.34
689.789	5319.6
689.979	5129.14
690.168	5202.86
690.358	5225.39
690.547	5086.13
690.737	5256.11
690.926	5217.2
691.116	5028.79
691.305	5032.88
691.495	4903.86
691.684	5118.9
691.874	4930.48
692.063	4942.77
692.252	5014.45
692.442	4864.95
692.631	5014.45
692.82	4858.81
693.01	4846.52
693.199	4848.57
693.388	4787.13
693.578	4934.58
693.767	4869.05
693.956	4934.58
694.146	4582.33
694.335	4797.37
694.524	4731.83
694.713	4783.03
694.902	4717.5
695.092	4844.47
695.281	4916.15
695.47	4967.35
695.659	4643.77
695.848	4803.51
696.037	4852.66
696.226	4803.51
696.415	4764.6
696.604	4891.57
696.793	4864.95
696.982	4856.76
697.171	4867
697.36	4910.01
697.549	4762.55
697.738	4838.33
697.927	4801.46
698.116	4938.68
698.305	4799.41
698.494	4905.91
698.683	4854.71
698.872	4975.54
699.061	4758.46
699.25	4871.09
699.438	4801.46
699.627	4971.44
699.816	4959.16
700.005	4881.33
700.193	4899.77
700.382	4985.78
700.571	5006.26
700.76	4981.68
700.948	4918.2
701.137	5057.46
701.326	4985.78
701.514	5006.26
701.703	5026.74
701.892	5014.45
702.08	5069.75
702.269	5016.5
702.457	5039.03
702.646	5125.04
702.834	5026.74
703.023	5094.32
703.212	5018.55
703.4	5020.6
703.589	5100.47
703.777	5231.54
703.965	5049.27
704.154	5252.02
704.342	5139.38
704.531	5075.89
704.719	5151.67
704.907	5290.93
705.096	5110.71
705.284	5225.39
705.472	5157.81
705.661	5360.56
705.849	5159.86
706.037	5120.95
706.226	5170.1
706.414	5360.56
706.602	5194.67
706.79	5184.43
706.979	5299.12
707.167	5215.15
707.355	5297.07
707.543	5241.78
707.731	5295.02
707.919	5346.22
708.107	5155.76
708.296	5333.93
708.484	5497.77
708.672	5475.24
708.86	5483.44
709.048	5354.41
709.236	5389.23
709.424	5391.28
709.612	5440.43
709.8	5471.15
709.988	5417.9
710.176	5467.05
710.364	5610.41
710.551	5335.98
710.739	5465
710.927	5602.22
711.115	5581.74
711.303	5413.81
711.491	5422
711.679	5536.68
711.866	5548.97
712.054	5573.55
712.242	5487.53
712.43	5751.72
712.617	5569.45
712.805	5626.79
712.993	5630.89
713.181	5397.42
713.368	5561.26
713.556	5579.69
713.744	5616.55
713.931	5774.25
714.119	5682.09
714.306	5813.16
714.494	5804.97
714.682	5804.97
714.869	5723.05
715.057	5641.13
715.244	5626.79
715.432	5790.63
715.619	5737.38
715.807	5741.48
715.994	5823.4
716.182	5759.91
716.369	5888.93
716.556	5796.78
716.744	5854.12
716.931	5706.66
717.119	5997.48
717.306	5755.82
717.493	5878.69
717.681	5815.21
717.868	5886.89
718.055	5821.35
718.242	5761.96
718.43	5964.71
718.617	5938.09
718.804	5864.36
718.991	5766.06
719.179	5977
719.366	5970.85
719.553	5942.18
719.74	5933.99
719.927	6097.83
720.114	5929.89
720.301	6077.35
720.488	5841.83
720.676	5987.24
720.863	5983.14
721.05	6046.63
721.237	6091.68
721.424	5807.02
721.611	6065.06
721.798	6009.76
721.985	5977
722.172	6151.07
722.358	5880.74
722.545	6007.72
722.732	5911.46
722.919	5860.26
723.106	6081.44
723.293	5901.22
723.48	6003.62
723.667	5968.8
723.853	6054.82
724.04	6149.03
724.227	5917.61
724.414	6017.96
724.6	6020
724.787	6124.45
724.974	6060.96
725.161	6106.02
725.347	6042.53
725.534	6099.87
725.72	6114.21
725.907	6126.5
726.094	6005.67
726.28	5985.19
726.467	5921.7
726.653	6083.49
726.84	6177.7
727.027	6253.47
727.213	6067.11
727.4	6220.71
727.586	6108.07
727.773	6101.92
727.959	6163.36
728.145	6153.12
728.332	5915.56
728.518	6052.77
728.705	5970.85
728.891	5970.85
729.077	6026.15
729.264	6044.58
729.45	6122.4
729.636	6063.01
729.823	6050.72
730.009	6114.21
730.195	6093.73
730.382	6157.22
730.568	6077.35
730.754	6126.5
730.94	5974.95
731.126	6056.87
731.313	6329.25
731.499	6122.4
731.685	6118.31
731.871	6069.16
732.057	5993.38
732.243	6187.94
732.429	6091.68
732.615	6015.91
732.801	6114.21
732.987	6108.07
733.173	6091.68
733.359	6069.16
733.545	5954.47
733.731	6126.5
733.917	6077.35
734.103	6106.02
734.289	6151.07
734.475	6034.34
734.661	6089.64
734.847	6144.93
735.033	5913.51
735.219	6042.53
735.404	5843.88
735.59	5909.41
735.776	6048.68
735.962	6097.83
736.148	6058.92
736.333	6085.54
736.519	5997.48
736.705	6022.05
736.89	5966.76
737.076	5725.1
737.262	5850.02
737.447	5917.61
737.633	5813.16
737.819	5884.84
738.004	5968.8
738.19	5895.08
738.375	5725.1
738.561	5974.95
738.747	5972.9
738.932	5782.44
739.118	5925.8
739.303	5880.74
739.489	5718.95
739.674	5634.99
739.859	5757.86
740.045	5809.06
740.23	5690.28
740.416	5620.65
740.601	5718.95
740.786	5655.47
740.972	5692.33
741.157	5551.02
741.342	5569.45
741.528	5438.38
741.713	5831.59
741.898	5573.55
742.084	5512.11
742.269	5499.82
742.454	5567.4
742.639	5501.87
742.824	5501.87
743.01	5442.48
743.195	5299.12
743.38	5426.09
743.565	5381.04
743.75	5403.57
743.935	5499.82
744.12	5487.53
744.305	5252.02
744.49	5329.84
744.675	5184.43
744.86	5284.78
745.045	5340.08
745.23	5116.85
745.415	5073.84
745.6	5168.05
745.785	5024.69
745.97	5106.61
746.155	4953.01
746.34	5221.3
746.525	4852.66
746.71	4987.83
746.895	4930.48
747.079	4922.29
747.264	4864.95
747.449	4791.22
747.634	4846.52
747.819	4762.55
748.003	4756.41
748.188	4774.84
748.373	4635.58
748.557	4701.11
748.742	4762.55
748.927	4512.7
749.111	4514.75
749.296	4541.37
749.481	4496.32
749.665	4461.5
749.85	4332.48
750.034	4488.12
750.219	4527.03
750.404	4412.35
750.588	4359.1
750.773	4158.4
750.957	4238.27
751.141	4262.85
751.326	4176.83
751.51	4289.47
751.695	4258.75
751.879	4049.86
752.064	4197.31
752.248	4111.3
752.432	4250.56
752.617	3945.41
752.801	4078.53
752.985	3986.37
753.17	3992.52
753.354	3871.68
753.538	3951.56
753.722	3795.91
753.907	3660.74
754.091	3699.66
754.275	3757
754.459	3750.85
754.643	3654.6
754.828	3701.7
755.012	3601.35
755.196	3621.83
755.38	3605.45
755.564	3494.86
755.748	3472.33
755.932	3511.24
756.116	3378.12
756.3	3517.39
756.484	3363.79
756.668	3347.4
756.852	3208.14
757.036	3294.16
757.22	3267.53
757.404	3402.7
757.588	3111.89
757.772	3275.73
757.956	3255.25
758.14	3103.7
758.323	3191.76
758.507	3134.42
758.691	3052.5
758.875	3146.7
759.059	3068.88
759.242	3126.22
759.426	2997.2
759.61	2976.72
759.794	2911.19
759.977	2960.34
760.161	2980.82
760.345	2978.77
760.528	2976.72
760.712	2931.67
760.895	2939.86
761.079	2855.89
761.263	2909.14
761.446	2864.08
761.63	2845.65
761.813	2864.08
761.997	2710.49
762.18	2808.79
762.364	2790.36
762.547	2749.4
762.731	2722.77
762.914	2601.94
763.098	2593.75
763.281	2593.75
763.464	2583.51
763.648	2681.82
763.831	2534.36
764.015	2544.6
764.198	2552.79
764.381	2655.19
764.564	2585.56
764.748	2483.16
764.931	2554.84
765.114	2522.07
765.297	2452.44
765.481	2522.07
765.664	2509.79
765.847	2450.39
766.03	2597.85
766.213	2456.54
766.397	2362.33
766.58	2440.15
766.763	2423.77
766.946	2405.34
767.129	2378.72
767.312	2372.57
767.495	2294.75
767.678	2284.51
767.861	2358.24
768.044	2257.89
768.227	2194.4
768.41	2317.28
768.593	2278.37
768.776	2298.84
768.959	2194.4
769.142	2366.43
769.324	2335.71
769.507	2257.89
769.69	2126.82
769.873	2198.49
770.056	2329.56
770.239	2184.16
770.421	2143.2
770.604	2151.39
770.787	2276.32
770.97	2044.9
771.152	2038.75
771.335	2128.86
771.518	2104.29
771.7	2108.38
771.883	2001.89
772.066	2040.8
772.248	2104.29
772.431	2067.42
772.613	2001.89
772.796	1975.27
772.978	1973.22
773.161	1930.21
773.343	1899.49
773.526	1860.58
773.708	1848.29
773.891	1895.4
774.073	1850.34
774.256	1983.46
774.438	1885.16
774.621	1807.33
774.803	1899.49
774.985	1848.29
775.168	1930.21
775.35	1797.09
775.532	1772.52
775.715	1813.48
775.897	1758.18
776.079	1690.6
776.261	1727.46
776.444	1727.46
776.626	1698.79
776.808	1545.19
776.99	1686.5
777.173	1649.64
777.355	1526.76
777.537	1534.95
777.719	1676.26
777.901	1604.58
778.083	1485.8
778.265	1563.62
778.447	1602.54
778.629	1580.01
778.811	1639.4
778.993	1463.27
779.175	1551.34
779.357	1397.74
779.539	1436.65
779.721	1446.89
779.903	1448.94
780.085	1369.07
780.267	1350.64
780.449	1410.03
780.631	1418.22
780.812	1326.06
780.994	1293.29
781.176	1305.58
781.358	1260.52
781.54	1274.86
781.721	1330.16
781.903	1297.39
782.085	1299.44
782.267	1418.22
782.448	1235.95
782.63	1285.1
782.812	1207.28
782.993	1338.35
783.175	1174.51
783.357	1211.37
783.538	1287.15
783.72	1145.84
783.901	1133.55
784.083	1106.93
784.264	1100.78
784.446	1129.45
784.627	1059.82
784.809	1072.11
784.99	1053.68
785.172	1170.41
785.353	1092.59
785.535	1168.37
785.716	1061.87
785.897	1055.73
786.079	1111.02
786.26	1084.4
786.441	1090.54
786.623	994.29
786.804	945.14
786.985	1022.96
787.167	1029.1
787.348	949.23
787.529	971.76
787.71	1012.72
787.891	1020.91
788.073	957.43
788.254	932.85
788.435	941.04
788.616	947.19
788.797	904.18
788.978	826.36
789.159	875.51
789.34	859.12
789.522	973.81
789.703	873.46
789.884	766.96
790.065	836.6
790.246	881.65
790.427	824.31
790.607	875.51
790.788	895.99
790.969	818.16
791.15	758.77
791.331	887.79
791.512	773.11
791.693	807.92
791.874	781.3
792.054	867.31
792.235	814.07
792.416	789.49
792.597	883.7
792.778	752.63
792.958	775.16
793.139	793.59
793.32	779.25
793.5	728.05
793.681	777.2
793.862	715.77
794.042	699.38
794.223	625.65
794.404	666.61
794.584	726
794.765	674.81
794.945	715.77
795.126	777.2
795.306	683
795.487	703.48
795.667	672.76
795.848	748.53
796.028	615.41
796.209	658.42
796.389	637.94
796.57	605.17
796.75	586.74
796.93	646.13
797.111	650.23
797.291	613.37
797.471	644.09
797.652	588.79
797.832	648.18
798.012	603.13
798.192	535.54
798.373	580.6
798.553	607.22
798.733	551.93
798.913	601.08
799.093	596.98
799.274	584.7
799.454	642.04
799.634	605.17
799.814	560.12
799.994	625.65
800.174	576.5
800.354	594.93
800.534	558.07
800.714	605.17
800.894	564.22
801.074	519.16
801.254	490.49
801.434	588.79
801.614	506.87
801.794	535.54
801.974	1090.54
802.154	547.83
802.334	605.17
802.514	533.5
802.693	463.86
802.873	443.39
803.053	533.5
803.233	513.02
803.413	480.25
803.592	556.02
803.772	486.39
803.952	510.97
804.131	435.19
804.311	506.87
804.491	539.64
804.67	470.01
804.85	447.48
805.03	463.86
805.209	490.49
805.389	449.53
805.568	445.43
805.748	392.19
805.928	404.47
806.107	498.68
806.287	470.01
806.466	502.78
806.646	445.43
806.825	508.92
807.004	400.38
807.184	429.05
807.363	517.11
807.543	400.38
807.722	379.9
807.901	506.87
808.081	513.02
808.26	377.85
808.439	508.92
808.619	416.76
808.798	406.52
808.977	416.76
809.156	355.32
809.336	412.67
809.515	449.53
809.694	349.18
809.873	361.47
810.052	379.9
810.231	414.71
810.411	455.67
810.59	449.53
810.769	359.42
810.948	424.95
811.127	369.66
811.306	349.18
811.485	398.33
811.664	433.15
811.843	377.85
812.022	392.19
812.201	351.23
812.38	252.92
812.559	347.13
812.737	304.12
812.916	265.21
813.095	373.75
813.274	398.33
813.453	414.71
813.632	445.43
813.811	441.34
813.989	300.03
814.168	379.9
814.347	390.14
814.526	320.51
814.704	402.43
814.883	320.51
815.062	283.64
815.24	304.12
815.419	353.27
815.598	332.79
815.776	289.79
815.955	416.76
816.133	265.21
816.312	265.21
816.49	289.79
816.669	257.02
816.847	209.92
817.026	277.5
817.204	312.32
817.383	259.07
817.561	316.41
817.74	293.88
817.918	310.27
818.097	281.6
818.275	285.69
818.453	252.92
818.632	293.88
818.81	191.49
818.988	203.77
819.167	293.88
819.345	234.49
819.523	285.69
819.701	314.36
819.879	281.6
820.058	209.92
820.236	228.35
820.414	230.4
820.592	273.4
820.77	244.73
820.948	252.92
821.127	261.12
821.305	269.31
821.483	261.12
821.661	361.47
821.839	310.27
822.017	267.26
822.195	242.68
822.373	205.82
822.551	203.77
822.729	287.74
822.907	160.77
823.085	232.44
823.262	242.68
823.44	297.98
823.618	300.03
823.796	171.01
823.974	218.11
824.152	195.58
824.329	273.4
824.507	246.78
824.685	269.31
824.863	248.83
825.04	187.39
825.218	248.83
825.396	203.77
825.574	244.73
825.751	257.02
825.929	306.17
826.107	187.39
826.284	226.3
826.462	308.22
826.639	222.2
826.817	240.64
826.994	209.92
827.172	205.82
827.349	232.44
827.527	168.96
827.704	236.54
827.882	211.96
828.059	177.15
828.237	154.62
828.414	218.11
828.591	171.01
828.769	201.72
828.946	199.68
829.124	144.38
829.301	201.72
829.478	220.16
829.655	240.64
829.833	203.77
830.01	146.43
830.187	218.11
830.364	121.85
830.542	171.01
830.719	220.16
830.896	203.77
831.073	234.49
831.25	138.24
831.427	177.15
831.604	203.77
831.782	121.85
831.959	150.53
832.136	128
832.313	76.8
832.49	134.14
832.667	109.57
832.844	148.48
833.021	113.66
833.198	121.85
833.374	166.91
833.551	179.2
833.728	166.91
833.905	113.66
834.082	109.57
834.259	101.37
834.436	199.68
834.612	87.04
834.789	216.06
834.966	113.66
835.143	171.01
835.319	154.62
835.496	39.94
835.673	117.76
835.85	146.43
836.026	111.61
836.203	164.86
836.38	146.43
836.556	119.81
836.733	144.38
836.909	187.39
837.086	95.23
837.262	121.85
837.439	211.96
837.616	103.42
837.792	97.28
837.968	89.09
838.145	37.89
838.321	91.13
838.498	173.05
838.674	123.9
838.851	160.77
839.027	76.8
839.203	48.13
839.38	54.27
839.556	39.94
839.732	166.91
839.909	146.43
840.085	140.29
840.261	113.66
840.437	134.14
840.614	56.32
840.79	138.24
840.966	101.37
841.142	154.62
841.318	138.24
841.494	179.2
841.671	107.52
841.847	17.41
842.023	128
842.199	99.33
842.375	123.9
842.551	37.89
842.727	-19.46
842.903	146.43
843.079	25.6
843.255	119.81
843.431	142.33
843.607	123.9
843.783	68.61
843.959	82.94
844.134	117.76
844.31	146.43
844.486	60.42
844.662	89.09
844.838	93.18
845.013	99.33
845.189	80.89
845.365	130.05
845.541	185.34
845.716	44.03
845.892	150.53
846.068	68.61
846.244	27.65
846.419	128
846.595	39.94
846.77	19.46
846.946	168.96
847.122	142.33
847.297	121.85
847.473	171.01
847.648	13.31
847.824	103.42
847.999	82.94
848.175	58.37
848.35	125.95
848.526	209.92
848.701	48.13
848.876	121.85
849.052	82.94
849.227	70.65
849.403	107.52
849.578	87.04
849.753	72.7
849.929	101.37
850.104	-13.31
850.279	80.89
850.454	33.79
850.63	78.85
850.805	117.76
850.98	52.22
851.155	11.26
851.33	60.42
851.505	91.13
851.681	72.7
851.856	-9.22
852.031	119.81
852.206	11.26
852.381	11.26
852.556	87.04
852.731	117.76
852.906	156.67
853.081	78.85
853.256	168.96
853.431	33.79
853.606	60.42
853.781	15.36
853.956	13.31
854.131	66.56
854.305	128
854.48	48.13
854.655	19.46
854.83	56.32
855.005	89.09
855.18	109.57
855.354	23.55
855.529	23.55
855.704	80.89
855.879	74.75
856.053	-37.89
856.228	21.5
856.403	15.36
856.577	60.42
856.752	-41.98
856.926	35.84
857.101	105.47
857.276	-1.02
857.45	52.22
857.625	68.61
857.799	37.89
857.974	5.12
858.148	-29.7
858.323	11.26
858.497	68.61
858.672	44.03
858.846	-99.33
859.02	31.74
859.195	-44.03
859.369	107.52
859.543	60.42
859.718	11.26
859.892	19.46
860.066	23.55
860.241	46.08
860.415	64.51
860.589	39.94
860.763	-5.12
860.938	25.6
861.112	54.27
861.286	-60.42
861.46	89.09
861.634	15.36
861.808	44.03
861.982	-27.65
862.157	11.26
862.331	-21.5
862.505	17.41
862.679	-66.56
862.853	37.89
863.027	17.41
863.201	50.18
863.375	-9.22
863.549	-25.6
863.722	62.46
863.896	78.85
864.07	46.08
864.244	-41.98
864.418	19.46
864.592	25.6
864.766	39.94
864.939	-35.84
865.113	11.26
865.287	64.51
865.461	39.94
865.634	-17.41
865.808	37.89
865.982	17.41
866.156	-76.8
866.329	-9.22
866.503	48.13
866.676	19.46
866.85	31.74
867.024	-60.42
867.197	46.08
867.371	29.7
867.544	3.07
867.718	-9.22
867.891	84.99
868.065	37.89
868.238	-11.26
868.412	-9.22
868.585	5.12
868.759	-41.98
868.932	21.5
869.105	11.26
869.279	-44.03
869.452	5.12
869.625	-1.02
869.799	-17.41
869.972	27.65
870.145	-41.98
870.319	31.74
870.492	-21.5
870.665	-5.12
870.838	11.26
871.011	-17.41
871.185	-1.02
871.358	17.41
871.531	5.12
871.704	11.26
871.877	15.36
872.05	35.84
872.223	5.12
872.396	31.74
872.569	7.17
872.742	-103.42
872.915	37.89
873.088	19.46
873.261	50.18
873.434	56.32
873.607	-7.17
873.78	-3.07
873.953	-17.41
874.126	80.89
874.299	35.84
874.471	-3.07
874.644	-27.65
874.817	62.46
874.99	44.03
875.163	13.31
875.335	-27.65
875.508	-41.98
875.681	89.09
875.853	15.36
876.026	41.98
876.199	-1.02
876.371	48.13
876.544	-50.18
876.717	25.6
876.889	-56.32
877.062	9.22
877.234	-70.65
877.407	1.02
877.579	-7.17
877.752	3.07
877.924	33.79
878.097	7.17
878.269	21.5
878.442	35.84
878.614	78.85
878.786	25.6
878.959	31.74
879.131	15.36
879.303	-17.41
879.476	11.26
879.648	-41.98
879.82	62.46
879.993	-50.18
880.165	-3.07
880.337	48.13
880.509	-27.65
880.681	66.56
880.854	-9.22
881.026	41.98
881.198	29.7
881.37	-58.37
881.542	23.55
881.714	-15.36
881.886	-52.22
882.058	27.65
882.23	-31.74
882.402	3.07
882.574	3.07
882.746	44.03
882.918	70.65
883.09	-19.46
883.262	3.07
883.434	-29.7
883.606	-15.36
883.778	48.13
883.95	97.28
884.122	-54.27
884.293	121.85
884.465	87.04
884.637	46.08
884.809	48.13
884.98	17.41
885.152	5.12
885.324	44.03
885.496	68.61
885.667	-3.07
885.839	1.02
886.011	23.55
886.182	-48.13
886.354	37.89
886.525	-58.37
886.697	7.17
886.869	17.41
887.04	-21.5
887.212	103.42
887.383	39.94
887.555	13.31
887.726	-5.12
887.897	-21.5
888.069	52.22
888.24	-52.22
888.412	44.03
888.583	13.31
888.754	-27.65
888.926	-37.89
889.097	1.02
889.268	-66.56
889.44	3.07
889.611	7.17
889.782	-60.42
889.953	-29.7
890.125	113.66
890.296	-17.41
890.467	-64.51
890.638	35.84
890.809	11.26
890.98	-17.41
891.151	-72.7
891.323	-5.12
891.494	72.7
891.665	13.31
891.836	-41.98
892.007	-37.89
892.178	-5.12
892.349	13.31
892.52	-60.42
892.691	64.51
892.862	-23.55
893.032	-39.94
893.203	-44.03
893.374	-74.75
893.545	33.79
893.716	-27.65
893.887	3.07
894.057	5.12
894.228	-21.5
894.399	-1.02
894.57	84.99
894.74	-5.12
894.911	25.6
895.082	-33.79
895.253	-31.74
895.423	-35.84
895.594	48.13
895.764	-5.12
895.935	11.26
896.106	31.74
896.276	-33.79
896.447	-35.84
896.617	-19.46
896.788	-27.65
896.958	23.55
897.129	5.12
897.299	-9.22
897.47	7.17
897.64	7.17
897.81	3.07
897.981	-76.8
898.151	-84.99
898.322	-23.55
898.492	-9.22
898.662	44.03
898.832	-97.28
899.003	29.7
899.173	48.13
899.343	9.22
899.513	-27.65
