Data from USB4F104151__73__11-31-36-255.txt Node

Date: Fri Mar 14 11:31:36 EDT 2025
User: louis
Spectrometer: USB4F10415
Trigger mode: 4
Integration Time (sec): 5.000000E-2
Scans to average: 1
Electric dark correction enabled: true
Nonlinearity correction enabled: false
Boxcar width: 0
XAxis mode: Wavelengths
Number of Pixels in Spectrum: 3648
>>>>>Begin Spectral Data<<<<<
178.204	-168.62
178.424	-168.62
178.644	-168.62
178.864	-180.9
179.084	-152.23
179.304	-45.74
179.524	36.18
179.744	-37.55
179.964	64.85
180.184	-33.45
180.404	7.51
180.624	-19.11
180.844	-15.02
181.064	23.89
181.283	40.28
181.503	-41.64
181.723	19.8
181.943	-37.55
182.163	87.38
182.383	-10.92
182.602	40.28
182.822	56.66
183.042	-19.11
183.262	-12.97
183.482	48.47
183.701	48.47
183.921	7.51
184.141	3.41
184.361	114
184.58	3.41
184.8	23.89
185.02	46.42
185.239	-45.74
185.459	5.46
185.679	68.95
185.898	-17.07
186.118	36.18
186.338	13.65
186.557	38.23
186.777	44.37
186.997	7.51
187.216	-53.93
187.436	73.04
187.655	66.9
187.875	23.89
188.095	30.04
188.314	68.95
188.534	21.84
188.753	-19.11
188.973	-6.83
189.192	3.41
189.412	-21.16
189.631	-66.22
189.851	50.52
190.07	25.94
190.29	-39.59
190.509	36.18
190.729	42.32
190.948	73.04
191.168	187.73
191.387	46.42
191.607	-10.92
191.826	60.76
192.045	23.89
192.265	1.37
192.484	38.23
192.704	27.99
192.923	44.37
193.142	64.85
193.362	56.66
193.581	109.91
193.8	54.61
194.02	89.43
194.239	-12.97
194.458	40.28
194.678	-12.97
194.897	27.99
195.116	58.71
195.335	-33.45
195.555	30.04
195.774	58.71
195.993	46.42
196.212	27.99
196.432	-47.79
196.651	-43.69
196.87	58.71
197.089	52.56
197.308	11.61
197.528	54.61
197.747	48.47
197.966	23.89
198.185	83.28
198.404	77.14
198.623	7.51
198.842	-12.97
199.062	7.51
199.281	3.41
199.5	73.04
199.719	56.66
199.938	23.89
200.157	77.14
200.376	75.09
200.595	36.18
200.814	-17.07
201.033	3.41
201.252	73.04
201.471	-25.26
201.69	9.56
201.909	7.51
202.128	38.23
202.347	23.89
202.566	30.04
202.785	13.65
203.004	15.7
203.223	103.76
203.442	32.08
203.661	15.7
203.879	52.56
204.098	60.76
204.317	-21.16
204.536	85.33
204.755	19.8
204.974	56.66
205.193	3.41
205.411	60.76
205.63	-51.88
205.849	-25.26
206.068	85.33
206.287	79.19
206.505	30.04
206.724	-15.02
206.943	-17.07
207.162	-25.26
207.381	13.65
207.599	56.66
207.818	17.75
208.037	-4.78
208.255	-8.87
208.474	81.24
208.693	87.38
208.911	-10.92
209.13	62.8
209.349	-33.45
209.567	34.13
209.786	56.66
210.005	54.61
210.223	-58.03
210.442	-64.17
210.661	48.47
210.879	-35.5
211.098	30.04
211.316	-21.16
211.535	79.19
211.753	23.89
211.972	34.13
212.191	11.61
212.409	11.61
212.628	56.66
212.846	23.89
213.065	103.76
213.283	15.7
213.502	3.41
213.72	-37.55
213.938	32.08
214.157	19.8
214.375	56.66
214.594	3.41
214.812	21.84
215.031	-10.92
215.249	7.51
215.467	71
215.686	40.28
215.904	50.52
216.122	-6.83
216.341	56.66
216.559	38.23
216.778	132.44
216.996	32.08
217.214	36.18
217.432	13.65
217.651	5.46
217.869	23.89
218.087	66.9
218.306	64.85
218.524	19.8
218.742	-12.97
218.96	83.28
219.179	19.8
219.397	30.04
219.615	58.71
219.833	60.76
220.051	-51.88
220.27	58.71
220.488	23.89
220.706	103.76
220.924	-27.31
221.142	-2.73
221.36	-4.78
221.578	87.38
221.796	54.61
222.015	52.56
222.233	15.7
222.451	105.81
222.669	-4.78
222.887	58.71
223.105	-25.26
223.323	-17.07
223.541	30.04
223.759	-0.68
223.977	40.28
224.195	-23.21
224.413	105.81
224.631	52.56
224.849	48.47
225.067	56.66
225.285	-25.26
225.503	85.33
225.721	-76.46
225.939	3.41
226.157	64.85
226.375	144.72
226.592	40.28
226.81	-8.87
227.028	-10.92
227.246	85.33
227.464	48.47
227.682	66.9
227.9	73.04
228.117	32.08
228.335	-8.87
228.553	-23.21
228.771	58.71
228.989	73.04
229.206	11.61
229.424	42.32
229.642	-17.07
229.86	-8.87
230.077	30.04
230.295	71
230.513	109.91
230.731	21.84
230.948	60.76
231.166	-17.07
231.384	23.89
231.601	23.89
231.819	52.56
232.037	36.18
232.254	30.04
232.472	48.47
232.689	-15.02
232.907	71
233.125	60.76
233.342	-45.74
233.56	30.04
233.777	-15.02
233.995	79.19
234.213	73.04
234.43	3.41
234.648	27.99
234.865	-2.73
235.083	66.9
235.3	3.41
235.518	11.61
235.735	75.09
235.953	68.95
236.17	15.7
236.388	46.42
236.605	23.89
236.822	9.56
237.04	85.33
237.257	40.28
237.475	23.89
237.692	122.2
237.909	27.99
238.127	23.89
238.344	36.18
238.562	56.66
238.779	-33.45
238.996	32.08
239.214	30.04
239.431	-2.73
239.648	77.14
239.865	-17.07
240.083	97.62
240.3	-47.79
240.517	15.7
240.735	46.42
240.952	77.14
241.169	89.43
241.386	32.08
241.603	13.65
241.821	68.95
242.038	122.2
242.255	50.52
242.472	60.76
242.689	23.89
242.907	-33.45
243.124	75.09
243.341	15.7
243.558	15.7
243.775	15.7
243.992	-53.93
244.209	77.14
244.426	7.51
244.643	36.18
244.86	-6.83
245.078	-29.35
245.295	13.65
245.512	21.84
245.729	-0.68
245.946	64.85
246.163	40.28
246.38	48.47
246.597	114
246.814	42.32
247.031	1.37
247.248	-33.45
247.464	62.8
247.681	56.66
247.898	56.66
248.115	15.7
248.332	56.66
248.549	46.42
248.766	114
248.983	58.71
249.2	48.47
249.417	56.66
249.633	-41.64
249.85	152.91
250.067	-0.68
250.284	-17.07
250.501	118.1
250.717	7.51
250.934	-51.88
251.151	-10.92
251.368	30.04
251.585	48.47
251.801	1.37
252.018	-0.68
252.235	48.47
252.451	-41.64
252.668	-41.64
252.885	19.8
253.102	71
253.318	7.51
253.535	54.61
253.752	-37.55
253.968	-45.74
254.185	-0.68
254.401	-2.73
254.618	34.13
254.835	3.41
255.051	132.44
255.268	15.7
255.484	-25.26
255.701	48.47
255.917	52.56
256.134	15.7
256.351	23.89
256.567	30.04
256.784	40.28
257	17.75
257.217	85.33
257.433	32.08
257.65	7.51
257.866	23.89
258.082	-35.5
258.299	-45.74
258.515	-10.92
258.732	-31.4
258.948	54.61
259.165	77.14
259.381	-17.07
259.597	19.8
259.814	32.08
260.03	23.89
260.246	-21.16
260.463	97.62
260.679	48.47
260.895	-35.5
261.112	36.18
261.328	56.66
261.544	54.61
261.761	173.39
261.977	7.51
262.193	32.08
262.409	15.7
262.626	93.52
262.842	44.37
263.058	9.56
263.274	99.67
263.49	44.37
263.707	95.57
263.923	71
264.139	-53.93
264.355	79.19
264.571	48.47
264.787	19.8
265.004	68.95
265.22	-2.73
265.436	7.51
265.652	19.8
265.868	19.8
266.084	-66.22
266.3	52.56
266.516	-27.31
266.732	5.46
266.948	21.84
267.164	-17.07
267.38	48.47
267.596	77.14
267.812	48.47
268.028	44.37
268.244	-25.26
268.46	62.8
268.676	-8.87
268.892	38.23
269.108	-10.92
269.324	-25.26
269.54	7.51
269.756	114
269.972	-2.73
270.188	-29.35
270.403	-25.26
270.619	5.46
270.835	42.32
271.051	56.66
271.267	-2.73
271.483	44.37
271.698	19.8
271.914	27.99
272.13	-4.78
272.346	83.28
272.562	3.41
272.777	60.76
272.993	73.04
273.209	40.28
273.425	9.56
273.64	-41.64
273.856	140.63
274.072	-15.02
274.287	13.65
274.503	87.38
274.719	64.85
274.934	54.61
275.15	-8.87
275.366	32.08
275.581	1.37
275.797	13.65
276.012	-0.68
276.228	56.66
276.444	-0.68
276.659	87.38
276.875	-70.31
277.09	-6.83
277.306	-4.78
277.521	34.13
277.737	52.56
277.952	73.04
278.168	-49.83
278.383	7.51
278.599	-15.02
278.814	52.56
279.03	27.99
279.245	38.23
279.461	95.57
279.676	105.81
279.892	-82.6
280.107	13.65
280.322	19.8
280.538	52.56
280.753	46.42
280.969	15.7
281.184	42.32
281.399	114
281.615	13.65
281.83	38.23
282.045	-0.68
282.26	38.23
282.476	11.61
282.691	91.48
282.906	17.75
283.122	-0.68
283.337	-58.03
283.552	52.56
283.767	52.56
283.983	60.76
284.198	-35.5
284.413	7.51
284.628	-0.68
284.843	48.47
285.058	-8.87
285.274	36.18
285.489	66.9
285.704	42.32
285.919	-8.87
286.134	-29.35
286.349	-19.11
286.564	32.08
286.779	101.72
286.995	50.52
287.21	40.28
287.425	114
287.64	-62.12
287.855	73.04
288.07	-35.5
288.285	34.13
288.5	23.89
288.715	25.94
288.93	-17.07
289.145	30.04
289.36	97.62
289.575	62.8
289.79	81.24
290.004	19.8
290.219	64.85
290.434	-72.36
290.649	-66.22
290.864	91.48
291.079	-19.11
291.294	-19.11
291.509	60.76
291.724	-0.68
291.938	-37.55
292.153	30.04
292.368	85.33
292.583	-8.87
292.798	-10.92
293.012	38.23
293.227	64.85
293.442	107.86
293.657	46.42
293.871	34.13
294.086	44.37
294.301	56.66
294.516	81.24
294.73	87.38
294.945	-27.31
295.16	62.8
295.374	15.7
295.589	68.95
295.804	-29.35
296.018	54.61
296.233	87.38
296.447	-31.4
296.662	48.47
296.877	56.66
297.091	32.08
297.306	-19.11
297.52	3.41
297.735	5.46
297.949	19.8
298.164	64.85
298.378	66.9
298.593	48.47
298.807	-43.69
299.022	-10.92
299.236	103.76
299.451	60.76
299.665	19.8
299.88	107.86
300.094	48.47
300.309	101.72
300.523	25.94
300.737	11.61
300.952	-23.21
301.166	-23.21
301.381	30.04
301.595	-19.11
301.809	15.7
302.024	-10.92
302.238	132.44
302.452	87.38
302.667	60.76
302.881	46.42
303.095	73.04
303.309	71
303.524	32.08
303.738	30.04
303.952	48.47
304.166	126.29
304.381	-10.92
304.595	-12.97
304.809	44.37
305.023	38.23
305.237	-45.74
305.452	23.89
305.666	23.89
305.88	-8.87
306.094	58.71
306.308	62.8
306.522	46.42
306.736	40.28
306.95	-10.92
307.164	-19.11
307.379	64.85
307.593	52.56
307.807	3.41
308.021	77.14
308.235	25.94
308.449	-90.79
308.663	-33.45
308.877	71
309.091	75.09
309.305	60.76
309.519	-27.31
309.733	50.52
309.947	-12.97
310.161	44.37
310.374	-17.07
310.588	126.29
310.802	-43.69
311.016	111.96
311.23	40.28
311.444	36.18
311.658	-21.16
311.872	154.96
312.085	79.19
312.299	13.65
312.513	17.75
312.727	60.76
312.941	-41.64
313.154	62.8
313.368	56.66
313.582	-12.97
313.796	38.23
314.009	-43.69
314.223	118.1
314.437	11.61
314.651	27.99
314.864	30.04
315.078	15.7
315.292	19.8
315.505	7.51
315.719	7.51
315.933	30.04
316.146	27.99
316.36	-33.45
316.573	-12.97
316.787	114
317.001	101.72
317.214	15.7
317.428	73.04
317.641	-51.88
317.855	7.51
318.068	30.04
318.282	46.42
318.495	89.43
318.709	32.08
318.922	-6.83
319.136	97.62
319.349	32.08
319.563	-8.87
319.776	-51.88
319.99	38.23
320.203	81.24
320.417	60.76
320.63	64.85
320.843	73.04
321.057	7.51
321.27	32.08
321.483	44.37
321.697	58.71
321.91	19.8
322.124	23.89
322.337	77.14
322.55	-0.68
322.763	54.61
322.977	-15.02
323.19	19.8
323.403	11.61
323.617	-21.16
323.83	85.33
324.043	56.66
324.256	79.19
324.469	21.84
324.683	87.38
324.896	11.61
325.109	-0.68
325.322	-55.98
325.535	64.85
325.748	71
325.962	40.28
326.175	-27.31
326.388	44.37
326.601	68.95
326.814	42.32
327.027	68.95
327.24	46.42
327.453	3.41
327.666	68.95
327.879	27.99
328.092	52.56
328.305	-8.87
328.518	30.04
328.731	64.85
328.944	5.46
329.157	44.37
329.37	56.66
329.583	97.62
329.796	101.72
330.009	-53.93
330.222	81.24
330.435	23.89
330.648	32.08
330.861	60.76
331.073	83.28
331.286	15.7
331.499	40.28
331.712	7.51
331.925	40.28
332.138	32.08
332.35	52.56
332.563	60.76
332.776	34.13
332.989	-17.07
333.202	15.7
333.414	56.66
333.627	73.04
333.84	1.37
334.053	-29.35
334.265	48.47
334.478	46.42
334.691	52.56
334.903	46.42
335.116	-23.21
335.329	52.56
335.541	66.9
335.754	118.1
335.966	15.7
336.179	13.65
336.392	32.08
336.604	34.13
336.817	52.56
337.029	64.85
337.242	-10.92
337.454	48.47
337.667	13.65
337.88	79.19
338.092	40.28
338.305	17.75
338.517	3.41
338.729	32.08
338.942	89.43
339.154	3.41
339.367	-23.21
339.579	11.61
339.792	38.23
340.004	5.46
340.217	23.89
340.429	89.43
340.641	-37.55
340.854	15.7
341.066	-49.83
341.278	23.89
341.491	175.44
341.703	56.66
341.915	-84.65
342.128	56.66
342.34	19.8
342.552	-8.87
342.764	95.57
342.977	-27.31
343.189	44.37
343.401	-27.31
343.613	11.61
343.826	-41.64
344.038	40.28
344.25	109.91
344.462	50.52
344.674	21.84
344.886	-8.87
345.099	64.85
345.311	85.33
345.523	15.7
345.735	1.37
345.947	13.65
346.159	40.28
346.371	-2.73
346.583	-53.93
346.795	79.19
347.007	42.32
347.219	9.56
347.431	32.08
347.643	58.71
347.855	-17.07
348.067	44.37
348.279	64.85
348.491	1.37
348.703	15.7
348.915	-21.16
349.127	40.28
349.339	-0.68
349.551	-15.02
349.763	56.66
349.975	42.32
350.187	56.66
350.399	-21.16
350.61	87.38
350.822	13.65
351.034	44.37
351.246	-0.68
351.458	11.61
351.669	7.51
351.881	73.04
352.093	95.57
352.305	64.85
352.517	36.18
352.728	81.24
352.94	68.95
353.152	52.56
353.363	-25.26
353.575	19.8
353.787	89.43
353.999	42.32
354.21	126.29
354.422	-33.45
354.633	15.7
354.845	-17.07
355.057	89.43
355.268	-0.68
355.48	71
355.692	-68.27
355.903	32.08
356.115	64.85
356.326	9.56
356.538	44.37
356.749	3.41
356.961	-10.92
357.172	54.61
357.384	-31.4
357.595	159.06
357.807	-45.74
358.018	-6.83
358.23	97.62
358.441	130.39
358.653	48.47
358.864	-6.83
359.075	73.04
359.287	23.89
359.498	13.65
359.709	13.65
359.921	64.85
360.132	77.14
360.344	68.95
360.555	73.04
360.766	68.95
360.977	-41.64
361.189	11.61
361.4	11.61
361.611	97.62
361.823	46.42
362.034	58.71
362.245	42.32
362.456	-17.07
362.667	48.47
362.879	36.18
363.09	62.8
363.301	44.37
363.512	118.1
363.723	-8.87
363.935	3.41
364.146	134.48
364.357	-29.35
364.568	77.14
364.779	11.61
364.99	13.65
365.201	23.89
365.412	68.95
365.623	64.85
365.834	32.08
366.045	79.19
366.256	50.52
366.467	68.95
366.678	-45.74
366.889	13.65
367.1	-33.45
367.311	-15.02
367.522	48.47
367.733	3.41
367.944	120.15
368.155	13.65
368.366	71
368.577	34.13
368.788	27.99
368.999	-2.73
369.209	13.65
369.42	122.2
369.631	118.1
369.842	71
370.053	73.04
370.264	134.48
370.474	21.84
370.685	34.13
370.896	71
371.107	7.51
371.317	19.8
371.528	73.04
371.739	46.42
371.95	68.95
372.16	-21.16
372.371	-58.03
372.582	-27.31
372.792	85.33
373.003	7.51
373.214	-8.87
373.424	48.47
373.635	23.89
373.846	116.05
374.056	3.41
374.267	73.04
374.477	50.52
374.688	38.23
374.898	-0.68
375.109	40.28
375.319	54.61
375.53	64.85
375.74	15.7
375.951	21.84
376.161	81.24
376.372	62.8
376.582	97.62
376.793	32.08
377.003	-68.27
377.214	21.84
377.424	42.32
377.635	17.75
377.845	44.37
378.055	-2.73
378.266	-0.68
378.476	58.71
378.686	56.66
378.897	25.94
379.107	52.56
379.317	87.38
379.528	34.13
379.738	75.09
379.948	23.89
380.158	48.47
380.369	15.7
380.579	40.28
380.789	21.84
380.999	44.37
381.21	71
381.42	73.04
381.63	62.8
381.84	38.23
382.05	23.89
382.261	-4.78
382.471	50.52
382.681	-41.64
382.891	19.8
383.101	89.43
383.311	52.56
383.521	68.95
383.731	122.2
383.941	122.2
384.151	66.9
384.361	58.71
384.571	32.08
384.781	68.95
384.991	36.18
385.201	93.52
385.411	21.84
385.621	-8.87
385.831	64.85
386.041	73.04
386.251	32.08
386.461	54.61
386.671	-62.12
386.881	87.38
387.091	62.8
387.301	-0.68
387.511	54.61
387.72	52.56
387.93	93.52
388.14	27.99
388.35	75.09
388.56	64.85
388.769	40.28
388.979	13.65
389.189	-37.55
389.399	7.51
389.609	95.57
389.818	97.62
390.028	89.43
390.238	48.47
390.447	17.75
390.657	111.96
390.867	56.66
391.076	-51.88
391.286	7.51
391.496	15.7
391.705	44.37
391.915	54.61
392.125	130.39
392.334	73.04
392.544	52.56
392.753	15.7
392.963	-31.4
393.172	42.32
393.382	-6.83
393.591	89.43
393.801	34.13
394.01	134.48
394.22	140.63
394.429	81.24
394.639	-2.73
394.848	126.29
395.058	62.8
395.267	48.47
395.477	163.15
395.686	136.53
395.895	38.23
396.105	218.45
396.314	48.47
396.524	97.62
396.733	38.23
396.942	60.76
397.152	126.29
397.361	105.81
397.57	77.14
397.78	60.76
397.989	136.53
398.198	79.19
398.407	64.85
398.617	44.37
398.826	81.24
399.035	79.19
399.244	81.24
399.453	118.1
399.663	91.48
399.872	56.66
400.081	34.13
400.29	81.24
400.499	71
400.708	154.96
400.917	116.05
401.127	73.04
401.336	40.28
401.545	97.62
401.754	148.82
401.963	95.57
402.172	73.04
402.381	120.15
402.59	95.57
402.799	48.47
403.008	116.05
403.217	99.67
403.426	71
403.635	142.68
403.844	154.96
404.053	68.95
404.262	85.33
404.471	220.5
404.68	134.48
404.888	105.81
405.097	154.96
405.306	101.72
405.515	146.77
405.724	126.29
405.933	73.04
406.142	154.96
406.35	122.2
406.559	103.76
406.768	148.82
406.977	152.91
407.185	220.5
407.394	159.06
407.603	169.3
407.812	167.25
408.02	210.26
408.229	99.67
408.438	161.11
408.646	171.35
408.855	189.78
409.064	228.69
409.272	138.58
409.481	277.84
409.69	212.31
409.898	183.63
410.107	226.64
410.315	292.18
410.524	247.12
410.733	296.27
410.941	277.84
411.15	306.51
411.358	314.7
411.567	335.18
411.775	294.22
411.984	353.62
412.192	310.61
412.401	335.18
412.609	359.76
412.818	458.06
413.026	423.25
413.234	400.72
413.443	359.76
413.651	386.38
413.86	417.1
414.068	376.14
414.276	453.97
414.485	462.16
414.693	517.45
414.901	556.36
415.11	517.45
415.318	529.74
415.526	492.88
415.734	619.85
415.943	626
416.151	669
416.359	640.33
416.567	679.24
416.776	740.68
416.984	759.11
417.192	826.7
417.4	740.68
417.608	720.2
417.817	818.5
418.025	886.09
418.233	888.14
418.441	871.75
418.649	892.23
418.857	949.57
419.065	1070.4
419.273	925
419.481	1027.4
419.689	1129.8
419.897	1183.04
420.105	1154.37
420.313	1178.95
420.521	1264.96
420.729	1232.19
420.937	1303.87
421.145	1305.92
421.353	1412.42
421.561	1514.81
421.769	1473.85
421.977	1508.67
422.185	1637.69
422.393	1645.88
422.601	1758.52
422.809	1895.74
423.017	1760.57
423.224	1860.92
423.432	1914.17
423.64	1903.93
423.848	2094.39
424.056	2063.67
424.263	2184.5
424.471	2276.66
424.679	2329.91
424.887	2389.3
425.094	2581.81
425.302	2483.5
425.51	2596.14
425.718	2612.53
425.925	2682.16
426.133	2708.78
426.341	2950.44
426.548	2966.82
426.756	3044.65
426.964	3042.6
427.171	3263.78
427.379	3353.89
427.586	3286.31
427.794	3411.23
428.001	3648.8
428.209	3863.83
428.417	3849.5
428.624	4072.73
428.832	3996.95
429.039	4015.38
429.247	4060.44
429.454	4211.99
429.662	4564.24
429.869	4429.07
430.076	4713.74
430.284	4545.81
430.491	4791.56
430.699	4922.63
430.906	5076.23
431.114	5090.57
431.321	5096.71
431.528	5461.25
431.736	5584.13
431.943	5989.63
432.15	5676.29
432.358	5829.88
432.565	6132.98
432.772	6200.57
432.979	6474.99
433.187	6487.28
433.394	6411.51
433.601	7025.9
433.808	7163.11
434.016	7003.37
434.223	7138.54
434.43	7797.98
434.637	7671.01
434.844	8119.51
435.052	8260.82
435.259	8156.38
435.466	8117.47
435.673	8041.69
435.88	8735.95
436.087	9082.06
436.294	9141.45
436.501	8955.08
436.708	9006.28
436.915	9387.21
437.122	9936.06
437.329	9702.59
437.537	10161.34
437.743	10249.4
437.95	10415.29
438.157	10658.99
438.364	11017.39
438.571	10960.05
438.778	11170.99
438.985	12180.64
439.192	11666.6
439.399	12123.29
439.606	11582.63
439.813	12723.35
440.02	13196.43
440.227	13020.3
440.433	12786.83
440.64	13116.56
440.847	13161.61
441.054	13454.47
441.261	14275.71
441.467	14363.77
441.674	14603.38
441.881	15058.03
442.088	14990.45
442.294	14988.4
442.501	15105.13
442.708	15352.94
442.914	16471.13
443.121	16682.07
443.328	16424.03
443.534	17501.26
443.741	17040.47
443.948	16913.49
444.154	17898.56
444.361	17908.8
444.568	17878.08
444.774	18228.29
444.981	18334.78
445.187	18752.57
445.394	19477.55
445.6	19203.12
445.807	21353.49
446.013	20343.84
446.22	20778.01
446.426	21804.04
446.633	21574.67
446.839	22576.12
447.046	21656.59
447.252	22717.43
447.459	22610.94
447.665	22449.15
447.871	23510
448.078	24425.44
448.284	23147.51
448.491	23909.35
448.697	25056.22
448.903	25695.18
449.11	25078.74
449.316	25127.89
449.522	25801.68
449.728	26282.95
449.935	26530.75
450.141	26336.2
450.347	27222.97
450.553	26012.62
450.76	26418.11
450.966	27343.8
451.172	27061.18
451.378	27509.68
451.584	27151.29
451.791	27741.1
451.997	27599.79
452.203	28130.22
452.409	27900.84
452.615	28253.09
452.821	27089.85
453.027	26858.43
453.233	28461.99
453.44	26805.18
453.646	27042.74
453.852	27122.62
454.058	27913.13
454.264	26698.69
454.47	27493.3
454.676	26811.32
454.882	27689.9
455.088	25318.35
455.294	25541.58
455.5	25994.18
455.705	26328
455.911	25277.4
456.117	24703.96
456.323	24589.28
456.529	22995.96
456.735	24292.32
456.941	23643.12
457.147	23038.97
457.352	22565.88
457.558	21969.93
457.764	22191.11
457.97	21615.63
458.176	21152.79
458.381	21259.28
458.587	20180
458.793	20294.69
458.999	18996.28
459.204	20495.39
459.41	20141.09
459.616	18760.76
459.821	18551.87
460.027	18662.46
460.233	18041.92
460.438	17196.11
460.644	17382.48
460.85	16452.7
461.055	16532.57
461.261	16260.19
461.466	15254.64
461.672	14685.3
461.878	15539.3
462.083	14716.02
462.289	14308.47
462.494	14310.52
462.7	13771.91
462.905	13272.2
463.111	13546.63
463.316	13872.26
463.522	13567.11
463.727	13323.4
463.932	13382.79
464.138	13454.47
464.343	13386.89
464.549	13038.73
464.754	13489.29
464.959	13159.56
465.165	13132.94
465.37	12539.03
465.575	12223.64
465.781	12661.91
465.986	12833.94
466.191	12299.42
466.397	12180.64
466.602	11674.79
466.807	11965.6
467.012	12090.52
467.218	11898.02
467.423	11707.55
467.628	11879.58
467.833	12285.08
468.038	11756.71
468.244	11631.78
468.449	11963.55
468.654	11429.03
468.859	11480.23
469.064	11451.56
469.269	10970.29
469.474	10974.38
469.679	11617.44
469.885	10822.83
470.09	10970.29
470.295	11140.27
470.5	10652.85
470.705	10808.5
470.91	10396.85
471.115	10351.8
471.32	10648.75
471.525	10484.92
471.73	10292.41
471.935	10380.47
472.139	9993.4
472.344	9878.72
472.549	10142.91
472.754	9866.43
472.959	9655.49
473.164	9522.37
473.369	9522.37
473.574	9819.33
473.778	9567.43
473.983	9432.26
474.188	9516.23
474.393	9024.72
474.598	9290.95
474.802	8801.49
475.007	8889.55
475.212	8887.5
475.417	8787.15
475.621	8658.13
475.826	8633.55
476.031	8258.78
476.235	8152.28
476.44	8371.41
476.645	8242.39
476.849	8180.95
477.054	8035.55
477.259	8176.86
477.463	8002.78
477.668	7963.87
477.872	8002.78
478.077	7625.95
478.282	7628
478.486	7546.08
478.691	7576.8
478.895	7433.44
479.1	7552.23
479.304	7412.96
479.509	7212.26
479.713	7544.03
479.918	7343.33
480.122	6960.36
480.326	7245.03
480.531	7159.02
480.735	6974.7
480.94	7083.24
481.144	7564.51
481.348	6866.16
481.553	7070.95
481.757	6876.4
481.961	7044.33
482.166	7140.58
482.37	6847.72
482.574	6726.89
482.778	6872.3
482.983	7009.51
483.187	6751.47
483.391	6911.21
483.595	6769.9
483.8	6796.53
484.004	7126.25
484.208	6913.26
484.412	6802.67
484.616	6774
484.821	6925.55
485.025	6839.53
485.229	6995.18
485.433	6831.34
485.637	6876.4
485.841	6790.38
486.045	6860.01
486.249	6927.6
486.453	6585.58
486.657	6986.99
486.861	6860.01
487.065	6788.33
487.269	6968.55
487.473	6786.29
487.677	6804.72
487.881	6872.3
488.085	6794.48
488.289	6903.02
488.493	6894.83
488.697	6993.13
488.901	6913.26
489.105	6929.64
489.309	7005.42
489.512	7093.48
489.716	6903.02
489.92	6943.98
490.124	6933.74
490.328	7138.54
490.531	7019.75
490.735	7126.25
490.939	7001.32
491.143	6976.75
491.346	6800.62
491.55	7070.95
491.754	7052.52
491.958	7095.53
492.161	7038.19
492.365	7222.5
492.569	7191.78
492.772	7138.54
492.976	7255.27
493.18	7249.13
493.383	7343.33
493.587	7351.53
493.79	7453.92
493.994	7427.3
494.197	7466.21
494.401	7445.73
494.605	7343.33
494.808	7742.69
495.012	7748.83
495.215	7662.82
495.419	7871.71
495.622	7769.31
495.825	7777.5
496.029	7931.1
496.232	8092.89
496.436	8207.58
496.639	8262.87
496.843	8135.9
497.046	8322.26
497.249	8527.06
497.453	8477.91
497.656	8717.52
497.859	8697.04
498.063	8733.9
498.266	9182.41
498.469	8957.13
498.673	9006.28
498.876	9092.3
499.079	9120.97
499.282	9024.72
499.485	9600.19
499.689	9204.94
499.892	9544.9
500.095	9729.22
500.298	9737.41
500.501	9761.98
500.705	10108.09
500.908	10112.19
501.111	10245.31
501.314	10390.71
501.517	10398.9
501.72	10570.93
501.923	10615.99
502.126	10773.68
502.329	10861.74
502.532	10927.28
502.735	11064.49
502.938	11300.01
503.141	11443.37
503.344	11584.68
503.547	11648.16
503.75	11670.69
503.953	11945.12
504.156	12147.87
504.359	11996.32
504.562	12090.52
504.765	12481.69
504.968	12684.44
505.17	12623
505.373	12950.67
505.576	12895.38
505.779	13014.16
505.982	13098.13
506.185	13401.22
506.387	13575.3
506.59	13673.6
506.793	13757.57
506.996	13982.85
507.198	14367.87
507.401	13970.56
507.604	14386.3
507.807	14769.27
508.009	14916.72
508.212	14630.01
508.415	15051.89
508.617	15148.14
508.82	15422.57
509.022	15064.18
509.225	15723.62
509.428	15662.18
509.63	16065.63
509.833	16053.34
510.035	16342.11
510.238	16178.27
510.44	16686.17
510.643	16989.27
510.845	16968.79
511.048	16985.17
511.25	16997.46
511.453	17497.16
511.655	18166.85
511.858	17888.32
512.06	18211.9
512.262	18183.23
512.465	18349.12
512.667	18713.66
512.87	18852.92
513.072	18746.42
513.274	19117.11
513.477	19088.43
513.679	19745.83
513.881	19651.63
514.084	19700.78
514.286	19915.81
514.488	19944.49
514.69	20653.08
514.893	20560.92
515.095	20927.51
515.297	21132.31
515.499	21142.55
515.701	21746.7
515.904	22012.93
516.106	22313.98
516.308	22270.98
516.51	22553.6
516.712	22754.3
516.914	23200.76
517.116	23159.8
517.318	23315.44
517.52	23360.5
517.722	23759.85
517.925	24241.12
518.127	24116.2
518.329	24789.98
518.531	24871.9
518.733	25175
518.935	25164.76
519.136	25674.7
519.338	25930.7
519.54	25719.76
519.742	26307.52
519.944	26422.21
520.146	26938.3
520.348	27030.46
520.55	27411.38
520.752	27392.95
520.954	28050.35
521.155	27962.28
521.357	28470.18
521.559	28681.12
521.761	29098.91
521.963	28978.08
522.164	29543.31
522.366	29410.2
522.568	29903.76
522.77	29922.19
522.971	30768
523.173	30382.98
523.375	30665.6
523.576	30872.45
523.778	30952.32
523.98	31478.65
524.181	31714.16
524.383	32052.08
524.584	32121.71
524.786	32389.99
524.988	32168.81
525.189	32856.93
525.391	33090.4
525.592	33317.72
525.794	33596.24
525.995	33962.83
526.197	33674.07
526.398	34196.3
526.6	34614.09
526.801	34784.07
527.003	34829.12
527.204	34722.63
527.406	35017.53
527.607	35160.89
527.808	35734.32
528.01	35230.52
528.211	35717.94
528.412	36723.49
528.614	36561.7
528.815	36385.58
529.016	37133.09
529.218	36776.74
529.419	36594.47
529.62	36844.32
529.822	36946.72
530.023	37266.2
530.224	37319.45
530.425	37511.96
530.626	37014.3
530.828	37344.03
531.029	38411.02
531.23	37753.62
531.431	37806.87
531.632	38048.53
531.833	38183.69
532.035	37989.14
532.236	38710.02
532.437	39070.47
532.638	38589.19
532.839	38775.56
533.04	38961.92
533.241	38417.16
533.442	39613.18
533.643	39070.47
533.844	39318.27
534.045	39338.75
534.246	39332.61
534.447	39461.63
534.648	39432.96
534.849	39365.37
535.05	38875.91
535.251	39596.79
535.451	39211.77
535.652	39705.34
535.853	39580.41
536.054	39617.27
536.255	39955.19
536.456	39389.95
536.657	40010.48
536.857	39899.89
537.058	39647.99
537.259	40121.07
537.46	39924.47
537.66	39846.65
537.861	40092.4
538.062	40043.25
538.263	40297.2
538.463	39584.51
538.664	40057.59
538.865	40065.78
539.065	40301.29
539.266	39559.93
539.466	40139.5
539.667	39908.08
539.868	40143.6
540.068	39774.97
540.269	39887.6
540.469	40286.96
540.67	40198.9
540.87	40035.06
541.071	40178.42
541.271	40098.55
541.472	39938.8
541.672	40053.49
541.873	39955.19
542.073	39193.34
542.274	40022.77
542.474	40141.55
542.675	40028.91
542.875	40309.49
543.075	39891.7
543.276	40084.21
543.476	40282.86
543.676	39981.81
543.877	40311.53
544.077	40176.37
544.277	40047.35
544.478	40202.99
544.678	40088.31
544.878	39930.61
545.078	40092.4
545.279	39764.73
545.479	39750.39
545.679	39838.45
545.879	40147.7
546.079	40231.66
546.28	39607.03
546.48	39885.56
546.68	40190.7
546.88	39967.48
547.08	40172.27
547.28	39795.45
547.48	39543.55
547.68	40051.44
547.88	39926.52
548.081	40078.07
548.281	40112.88
548.481	39766.77
548.681	40532.71
548.881	40332.01
549.081	40276.72
549.28	39881.46
549.48	40235.76
549.68	39893.75
549.88	40424.17
550.08	39697.14
550.28	40084.21
550.48	39811.83
550.68	40241.9
550.88	39832.31
551.08	39770.87
551.279	40264.43
551.479	39637.75
551.679	39828.21
551.879	39920.37
552.079	40088.31
552.278	39627.51
552.478	39903.99
552.678	39748.34
552.878	39963.38
553.077	39981.81
553.277	39682.81
553.477	40035.06
553.676	39514.87
553.876	39713.53
554.076	39445.24
554.275	39207.68
554.475	39129.86
554.674	39363.32
554.874	39545.59
555.074	39150.34
555.273	39199.49
555.473	39531.26
555.672	39076.61
555.872	38736.65
556.071	39150.34
556.271	39404.28
556.47	39031.55
556.67	38423.31
556.869	38744.84
557.068	39006.98
557.268	38265.61
557.467	38529.8
557.667	38652.68
557.866	38494.99
558.065	38712.07
558.265	38064.91
558.464	38208.27
558.663	38417.16
558.863	37966.61
559.062	38204.17
559.261	37663.51
559.461	38327.05
559.66	37790.48
559.859	37694.23
560.058	37243.68
560.258	37524.25
560.457	36934.43
560.656	37700.37
560.855	37055.26
561.054	37559.06
561.253	36791.08
561.453	37139.23
561.652	37061.41
561.851	36883.23
562.05	36885.28
562.249	36182.83
562.448	36602.66
562.647	36477.74
562.846	36557.61
563.045	36367.15
563.244	35844.91
563.443	36287.28
563.642	35558.2
563.841	35769.14
564.04	35519.29
564.239	36008.75
564.438	35246.91
564.637	35488.57
564.836	35273.53
565.035	34718.53
565.234	35083.07
565.432	35035.97
565.631	34825.03
565.83	34908.99
566.029	34321.23
566.228	34509.64
566.427	34421.58
566.625	33702.74
566.824	33661.78
567.023	34098
567.222	33094.49
567.42	33680.21
567.619	33307.48
567.818	33440.6
568.016	32891.74
568.215	33385.3
568.414	33254.23
568.612	33010.53
568.811	32744.29
569.01	32910.18
569.208	32293.74
569.407	32443.24
569.605	31914.86
569.804	32445.29
570.002	32080.75
570.201	32293.74
570.4	31419.25
570.598	31454.07
570.797	31175.55
570.995	31323
571.193	30843.77
571.392	31089.53
571.59	30649.22
571.789	30573.44
571.987	30442.37
572.186	30491.52
572.384	30354.31
572.582	30464.9
572.781	30399.37
572.979	29623.19
573.177	29942.67
573.376	29873.04
573.574	29617.04
573.772	29938.57
573.971	29678.48
574.169	29633.43
574.367	29186.97
574.565	28959.64
574.763	28912.54
574.962	28953.5
575.16	28662.69
575.358	28396.45
575.556	28249
575.754	28732.32
575.952	28134.31
576.151	28627.87
576.349	28232.61
576.547	28015.53
576.745	27784.11
576.943	28298.15
577.141	27632.56
577.339	27810.73
577.537	27487.15
577.735	27395
577.933	26987.45
578.131	27136.95
578.329	27149.24
578.527	27087.8
578.725	26868.67
578.923	26971.07
579.121	26702.78
579.319	26575.81
579.516	26764.22
579.714	26778.56
579.912	26354.63
580.11	26393.54
580.308	26141.64
580.506	26155.97
580.704	25979.85
580.901	25945.03
581.099	25945.03
581.297	25588.69
581.495	25320.4
581.692	25838.54
581.89	25422.8
582.088	25594.83
582.285	25318.35
582.483	25457.62
582.681	25428.95
582.878	25172.95
583.076	24804.31
583.274	25062.36
583.471	25037.78
583.669	24691.68
583.866	24673.24
584.064	24552.41
584.262	24447.97
584.459	24402.91
584.657	24255.46
584.854	24851.42
585.052	23860.2
585.249	24069.09
585.447	23995.37
585.644	23675.88
585.841	23653.36
586.039	23942.12
586.236	23579.63
586.434	23856.11
586.631	23272.43
586.828	23589.87
587.026	23167.99
587.223	23223.28
587.42	23020.53
587.618	23108.6
587.815	22963.19
588.012	23108.6
588.21	22660.09
588.407	22959.1
588.604	22696.95
588.801	22643.71
588.999	22516.73
589.196	22643.71
589.393	22594.56
589.59	22449.15
589.787	22326.27
589.984	21969.93
590.182	22008.84
590.379	22203.39
590.576	22103.04
590.773	22014.98
590.97	21728.27
591.167	22043.65
591.364	21339.15
591.561	21763.08
591.758	21306.38
591.955	21437.45
592.152	21330.96
592.349	21230.61
592.546	21097.49
592.743	21402.64
592.94	21019.67
593.137	21208.08
593.334	21158.93
593.531	20874.26
593.727	21160.98
593.924	20911.13
594.121	20503.58
594.318	20589.6
594.515	20253.73
594.712	20767.77
594.908	20167.71
595.105	20417.57
595.302	20050.98
595.499	20278.3
595.696	20122.66
595.892	19948.58
596.089	19928.1
596.286	20171.81
596.482	20136.99
596.679	19917.86
596.876	19813.42
597.072	19627.05
597.269	19813.42
597.466	19567.66
597.662	19627.05
597.859	19559.47
598.055	19287.09
598.252	19153.97
598.448	19459.12
598.645	19141.68
598.841	19055.67
599.038	19246.13
599.234	19008.56
599.431	18848.82
599.627	18795.57
599.824	18861.11
600.02	18619.45
600.217	18672.7
600.413	18713.66
600.609	18308.16
600.806	18158.66
601.002	18410.56
601.198	18220.1
601.395	18119.74
601.591	17914.95
601.787	18035.78
601.984	18068.55
602.18	18304.06
602.376	17824.84
602.572	17841.22
602.769	17865.8
602.965	17529.93
603.161	17814.6
603.357	17411.15
603.553	17634.38
603.75	17497.16
603.946	17343.56
604.142	17501.26
604.338	17286.22
604.534	17622.09
604.73	17163.34
604.926	17124.43
605.122	17470.54
605.318	17138.77
605.514	17075.28
605.71	16860.24
605.906	16991.31
606.102	16882.77
606.298	16749.65
606.494	16841.81
606.69	16985.17
606.886	16786.52
607.082	16579.67
607.278	16712.79
607.474	16335.96
607.67	16303.2
607.866	16141.41
608.062	16594.01
608.257	16186.46
608.453	16286.81
608.649	16338.01
608.845	16053.34
609.041	16272.48
609.236	15975.52
609.432	16010.34
609.628	15991.91
609.824	16018.53
610.019	15879.27
610.215	15623.27
610.411	16018.53
610.606	15645.8
610.802	15858.79
610.998	15731.81
611.193	15821.92
611.389	15572.07
611.584	15477.87
611.78	15608.94
611.976	15404.14
612.171	15492.2
612.367	15244.4
612.562	15262.83
612.758	15060.08
612.953	15033.46
613.149	15297.64
613.344	14888.05
613.539	15262.83
613.735	15129.71
613.93	15195.25
614.126	14947.44
614.321	15158.38
614.517	15271.02
614.712	14894.19
614.907	14744.69
615.103	14961.78
615.298	14818.42
615.493	14912.63
615.688	14482.55
615.884	15076.46
616.079	14562.42
616.274	14756.98
616.47	14498.94
616.665	14728.31
616.86	14435.45
617.055	14447.74
617.25	14331
617.445	14627.96
617.641	14341.24
617.836	14404.73
618.031	14021.76
618.226	14249.08
618.421	14228.6
618.616	14103.68
618.811	13958.27
619.006	14249.08
619.201	14072.96
619.396	14185.6
619.591	13491.34
619.786	13823.11
619.981	13681.8
620.176	13915.26
620.371	13544.58
620.566	13493.38
620.761	13290.63
620.956	13618.31
621.151	13128.84
621.346	13251.72
621.541	12991.63
621.735	13433.99
621.93	13081.74
622.125	12905.62
622.32	12741.78
622.515	12756.11
622.709	12811.41
622.904	12840.08
623.099	12833.94
623.294	12725.4
623.488	12516.5
623.683	12657.81
623.878	12225.69
624.072	12457.11
624.267	12137.63
624.462	12393.62
624.656	12108.96
624.851	12240.03
625.046	12098.72
625.24	11945.12
625.435	12192.92
625.629	11877.54
625.824	11730.08
626.018	11678.88
626.213	11488.42
626.407	11549.86
626.602	11488.42
626.796	11480.23
626.991	11584.68
627.185	11386.02
627.38	11394.22
627.574	11304.1
627.768	11269.29
627.963	11007.15
628.157	10992.81
628.352	11099.31
628.546	10814.64
628.74	11031.72
628.935	10816.69
629.129	10609.84
629.323	10548.4
629.517	10763.44
629.712	10507.44
629.906	10484.92
630.1	10378.42
630.294	10384.57
630.489	10362.04
630.683	10339.51
630.877	10132.67
631.071	10169.53
631.265	9997.5
631.459	10130.62
631.653	9940.16
631.848	10073.28
632.042	9929.92
632.236	9891.01
632.43	9919.68
632.624	9821.38
632.818	9727.17
633.012	9581.76
633.206	9614.53
633.4	9559.24
633.594	9397.45
633.788	9290.95
633.982	9567.43
634.176	9368.77
634.369	9567.43
634.563	9428.17
634.757	9219.27
634.951	9403.59
635.145	9030.86
635.339	9032.91
635.533	9030.86
635.726	8973.52
635.92	8885.45
636.114	8772.82
636.308	8723.66
636.501	8762.58
636.695	8584.4
636.889	8727.76
637.083	8582.35
637.276	8600.79
637.47	8451.28
637.664	8479.96
637.857	8377.56
638.051	8402.13
638.244	8375.51
638.438	8260.82
638.632	8275.16
638.825	8129.75
639.019	8146.14
639.212	8221.91
639.406	8058.07
639.599	8025.31
639.793	7847.13
639.986	7949.53
640.18	7937.24
640.373	7617.76
640.567	7802.08
640.76	7568.61
640.954	7482.6
641.147	7621.86
641.34	7759.07
641.534	7601.38
641.727	7644.38
641.92	7601.38
642.114	7273.7
642.307	7412.96
642.5	7290.09
642.694	7277.8
642.887	7443.68
643.08	7460.07
643.273	7322.85
643.467	7060.71
643.66	6880.49
643.853	6943.98
644.046	7085.29
644.239	6919.4
644.432	6980.84
644.626	6855.92
644.819	6976.75
645.012	6950.12
645.205	6812.91
645.398	6784.24
645.591	6735.09
645.784	6618.35
645.977	6671.6
646.17	6712.56
646.363	6507.76
646.556	6401.27
646.749	6540.53
646.942	6526.19
647.135	6434.04
647.328	6515.95
647.521	6479.09
647.714	6159.61
647.907	6274.29
648.099	6200.57
648.292	6319.35
648.485	6208.76
648.678	6128.89
648.871	6151.42
649.064	6165.75
649.256	6018.3
649.449	6024.44
649.642	5975.29
649.835	5965.05
650.027	6051.06
650.22	5844.22
650.413	5913.85
650.605	5963
650.798	5897.47
650.991	5745.92
651.183	5766.4
651.376	5766.4
651.568	5709.05
651.761	5774.59
651.954	5764.35
652.146	5686.53
652.339	5682.43
652.531	5731.58
652.724	5594.37
652.916	5420.29
653.109	5565.7
653.301	5620.99
653.494	5487.87
653.686	5434.63
653.879	5379.33
654.071	5309.7
654.263	5297.41
654.456	5602.56
654.648	5477.63
654.84	5209.35
655.033	5315.84
655.225	5158.15
655.417	5053.7
655.61	5381.38
655.802	5270.79
655.994	5127.43
656.186	5090.57
656.379	5184.77
656.571	5149.96
656.763	4932.87
656.955	4934.92
657.148	4951.31
657.34	4926.73
657.532	4896.01
657.724	4877.58
657.916	4863.24
658.108	4998.41
658.3	4926.73
658.492	4807.95
658.684	4687.12
658.876	4922.63
659.068	4736.27
659.26	4840.72
659.452	4640.01
659.644	4707.6
659.836	4646.16
660.028	4764.94
660.22	4594.96
660.412	4758.8
660.604	4582.67
660.796	4689.17
660.988	4730.13
661.18	4599.06
661.372	4572.43
661.563	4693.26
661.755	4308.24
661.947	4592.91
662.139	4371.73
662.331	4451.6
662.522	4463.89
662.714	4343.06
662.906	4359.44
663.097	4373.78
663.289	4330.77
663.481	4433.17
663.673	4283.67
663.864	4369.68
664.056	4406.55
664.247	4250.9
664.439	4316.44
664.631	4242.71
664.822	4283.67
665.014	4394.26
665.205	4152.6
665.397	4291.86
665.588	4160.79
665.78	4252.95
665.971	4418.83
666.163	4226.32
666.354	4095.25
666.546	4119.83
666.737	4207.89
666.929	4195.61
667.12	4300.05
667.311	4214.04
667.503	4148.5
667.694	4207.89
667.885	4154.65
668.077	4054.3
668.268	4236.56
668.459	4250.9
668.651	4162.84
668.842	4115.73
669.033	4142.36
669.224	4181.27
669.416	4275.48
669.607	4128.02
669.798	4117.78
669.989	4089.11
670.18	4037.91
670.371	4089.11
670.563	4003.1
670.754	4085.01
670.945	4087.06
671.136	4214.04
671.327	4189.46
671.518	4078.87
671.709	4168.98
671.9	4193.56
672.091	4199.7
672.282	4068.63
672.473	4068.63
672.664	4046.1
672.855	4189.46
673.046	4193.56
673.237	4304.15
673.428	4205.85
673.619	4117.78
673.809	4177.17
674	4236.56
674.191	4238.61
674.382	4121.88
674.573	4242.71
674.764	4332.82
674.954	4103.45
675.145	4322.58
675.336	4285.72
675.527	4218.13
675.717	4404.5
675.908	4173.08
676.099	4345.11
676.289	4279.57
676.48	4242.71
676.671	4308.24
676.861	4298
677.052	4363.54
677.243	4381.97
677.433	4437.27
677.624	4496.66
677.814	4443.41
678.005	4570.38
678.195	4463.89
678.386	4242.71
678.576	4531.47
678.767	4576.53
678.957	4650.25
679.148	4545.81
679.338	4588.82
679.529	4701.45
679.719	4578.58
679.909	4736.27
680.1	4631.82
680.29	4750.6
680.481	4490.51
680.671	4590.86
680.861	4797.71
681.052	4699.41
681.242	4750.6
681.432	4699.41
681.622	4781.32
681.813	4822.28
682.003	4920.59
682.193	4875.53
682.383	4922.63
682.573	4881.67
682.764	4660.49
682.954	4750.6
683.144	4744.46
683.334	4912.39
683.524	4758.8
683.714	5008.65
683.904	4850.96
684.094	4906.25
684.284	4926.73
684.474	4889.87
684.664	5016.84
684.854	4889.87
685.044	4965.64
685.234	4900.11
685.424	4955.4
685.614	4877.58
685.804	4953.35
685.994	4967.69
686.184	4939.02
686.374	4914.44
686.564	4807.95
686.753	5039.37
686.943	4955.4
687.133	4775.18
687.323	4787.47
687.513	4926.73
687.702	4744.46
687.892	4797.71
688.082	4787.47
688.272	4635.92
688.461	4732.17
688.651	4896.01
688.841	4693.26
689.03	4660.49
689.22	4660.49
689.41	4615.44
689.599	4664.59
689.789	4705.55
689.979	4494.61
690.168	4545.81
690.358	4427.03
690.547	4515.09
690.737	4429.07
690.926	4265.24
691.116	4427.03
691.305	4400.4
691.495	4422.93
691.684	4326.68
691.874	4338.96
692.063	4259.09
692.252	4357.39
692.442	4298
692.631	4287.76
692.82	4144.41
693.01	4136.21
693.199	4250.9
693.388	4107.54
693.578	4250.9
693.767	4134.17
693.956	4232.47
694.146	4160.79
694.335	4119.83
694.524	4121.88
694.713	4158.74
694.902	4021.53
695.092	4134.17
695.281	4089.11
695.47	4125.97
695.659	3947.8
695.848	4078.87
696.037	4136.21
696.226	4095.25
696.415	4168.98
696.604	4132.12
696.793	4035.86
696.982	4177.17
697.171	3947.8
697.36	4064.54
697.549	4113.69
697.738	4179.22
697.927	3955.99
698.116	3980.57
698.305	4035.86
698.494	4046.1
698.683	4082.97
698.872	4019.48
699.061	3962.14
699.25	4007.19
699.438	4101.4
699.627	4089.11
699.816	4168.98
700.005	4134.17
700.193	4044.06
700.382	4168.98
700.571	4152.6
700.76	4013.34
700.948	4025.62
701.137	4144.41
701.326	4125.97
701.514	4054.3
701.703	4093.21
701.892	4023.58
702.08	4160.79
702.269	4279.57
702.457	4152.6
702.646	4207.89
702.834	4128.02
703.023	4164.89
703.212	4224.28
703.4	4341.01
703.589	4144.41
703.777	4330.77
703.965	4250.9
704.154	4279.57
704.342	4183.32
704.531	4240.66
704.719	4160.79
704.907	4293.91
705.096	4398.35
705.284	4326.68
705.472	4363.54
705.661	4422.93
705.849	4338.96
706.037	4498.7
706.226	4361.49
706.414	4500.75
706.602	4257.04
706.79	4429.07
706.979	4404.5
707.167	4390.16
707.355	4447.51
707.543	4513.04
707.731	4422.93
707.919	4457.75
708.107	4467.99
708.296	4439.31
708.484	4490.51
708.672	4588.82
708.86	4467.99
709.048	4607.25
709.236	4482.32
709.424	4611.34
709.612	4486.42
709.8	4574.48
709.988	4685.07
710.176	4644.11
710.364	4611.34
710.551	4732.17
710.739	4594.96
710.927	4791.56
711.115	4775.18
711.303	4914.44
711.491	4865.29
711.679	4701.45
711.866	4807.95
712.054	4826.38
712.242	4699.41
712.43	4695.31
712.617	4801.8
712.805	4908.3
712.993	4883.72
713.181	4625.68
713.368	4947.21
713.556	4945.16
713.744	4965.64
713.931	5184.77
714.119	4988.17
714.306	5053.7
714.494	4986.12
714.682	4904.2
714.869	5018.89
715.057	5059.85
715.244	4863.24
715.432	5231.88
715.619	5186.82
715.807	5219.59
715.994	5209.35
716.182	5225.73
716.369	5190.92
716.556	5133.57
716.744	5276.93
716.931	5213.45
717.119	5420.29
717.306	5262.6
717.493	5254.41
717.681	5231.88
717.868	5502.21
718.055	5332.23
718.242	5340.42
718.43	5233.93
718.617	5326.08
718.804	5356.8
718.991	5387.52
719.179	5508.35
719.366	5502.21
719.553	5381.38
719.74	5483.78
719.927	5537.02
720.114	5459.2
720.301	5479.68
720.488	5467.39
720.676	5610.75
720.863	5518.59
721.05	5631.23
721.237	5655.81
721.424	5604.61
721.611	5686.53
721.798	5707.01
721.985	5618.94
722.172	5588.22
722.358	5711.1
722.545	5686.53
722.732	5555.46
722.919	5772.54
723.106	5704.96
723.293	5657.85
723.48	5698.81
723.667	5711.1
723.853	5690.62
724.04	5905.66
724.227	5848.32
724.414	5786.88
724.6	5768.45
724.787	5995.77
724.974	5911.8
725.161	5926.14
725.347	5729.53
725.534	6003.96
725.72	5889.28
725.907	5985.53
726.094	5944.57
726.28	5879.04
726.467	5893.37
726.653	5969.15
726.84	6092.02
727.027	5991.67
727.213	5895.42
727.4	6102.26
727.586	6034.68
727.773	6094.07
727.959	6075.64
728.145	6192.37
728.332	5913.85
728.518	6069.5
728.705	6067.45
728.891	5956.86
729.077	6012.15
729.264	6016.25
729.45	6139.13
729.636	6184.18
729.823	6044.92
730.009	6319.35
730.195	6044.92
730.382	6165.75
730.568	6124.79
730.754	6057.21
730.94	6225.14
731.126	6276.34
731.313	6081.78
731.499	6044.92
731.685	6341.88
731.871	6405.36
732.057	6266.1
732.243	6350.07
732.429	6130.94
732.615	6302.97
732.801	6247.67
732.987	6235.38
733.173	6286.58
733.359	6257.91
733.545	6188.28
733.731	6194.42
733.917	6335.73
734.103	6393.08
734.289	6130.94
734.475	6143.22
734.661	6345.97
734.847	6348.02
735.033	6397.17
735.219	6343.92
735.404	6319.35
735.59	6192.37
735.776	6280.44
735.962	6257.91
736.148	6341.88
736.333	6368.5
736.519	6216.95
736.705	6503.67
736.89	6284.53
737.076	6171.9
737.262	6126.84
737.447	6196.47
737.633	6143.22
737.819	6227.19
738.004	6163.7
738.19	6089.98
738.375	6100.22
738.561	6249.72
738.747	6315.25
738.932	6149.37
739.118	6313.2
739.303	6024.44
739.489	6278.39
739.674	5952.76
739.859	6112.5
740.045	6233.33
740.23	5946.62
740.416	6063.35
740.601	6065.4
740.786	6118.65
740.972	5932.28
741.157	6003.96
741.342	5862.65
741.528	5868.8
741.713	5983.48
741.898	5930.23
742.084	5883.13
742.269	6020.35
742.454	5967.1
742.639	5969.15
742.824	5975.29
743.01	5858.56
743.195	5887.23
743.38	5850.36
743.565	5846.27
743.75	5764.35
743.935	5709.05
744.12	5838.08
744.305	5688.57
744.49	5700.86
744.675	5551.36
744.86	5571.84
745.045	5518.59
745.23	5577.98
745.415	5594.37
745.6	5524.74
745.785	5395.71
745.97	5461.25
746.155	5496.07
746.34	5381.38
746.525	5281.03
746.71	5412.1
746.895	5344.52
747.079	5195.01
747.264	5225.73
747.449	5401.86
747.634	5428.48
747.819	5356.8
748.003	5078.28
748.188	4971.79
748.373	5086.47
748.557	5197.06
748.742	5053.7
748.927	4955.4
749.111	4906.25
749.296	4939.02
749.481	4955.4
749.665	4990.22
749.85	4818.19
750.034	4857.1
750.219	4719.89
750.404	4738.32
750.588	4644.11
750.773	4683.02
750.957	4517.14
751.141	4570.38
751.326	4611.34
751.51	4465.94
751.695	4568.34
751.879	4390.16
752.064	4455.7
752.248	4476.18
752.432	4326.68
752.617	4195.61
752.801	4302.1
752.985	4416.79
753.17	4363.54
753.354	4214.04
753.538	4101.4
753.722	4168.98
753.907	4099.35
754.091	4031.77
754.275	3947.8
754.459	4068.63
754.643	3939.61
754.828	3972.38
755.012	3939.61
755.196	4019.48
755.38	3976.47
755.564	3800.35
755.748	3931.42
755.932	3829.02
756.116	3724.57
756.3	3683.61
756.484	3603.74
756.668	3886.36
756.852	3554.59
757.036	3722.52
757.22	3452.19
757.404	3724.57
757.588	3411.23
757.772	3441.95
757.956	3626.27
758.14	3503.39
758.323	3407.14
758.507	3493.15
758.691	3392.8
758.875	3411.23
759.059	3394.85
759.242	3265.83
759.426	3312.93
759.61	3323.17
759.794	3243.3
759.977	3353.89
760.161	3274.02
760.345	3415.33
760.528	3247.4
760.712	3145
760.895	3095.85
761.079	3179.81
761.263	3120.42
761.446	3138.85
761.63	2981.16
761.813	3003.69
761.997	3075.37
762.18	2956.58
762.364	3015.98
762.547	2917.67
762.731	3015.98
762.914	2833.71
763.098	2956.58
763.281	2850.09
763.464	2749.74
763.648	2854.19
763.831	2798.89
764.015	2833.71
764.198	2897.19
764.381	2696.49
764.564	2753.84
764.748	2762.03
764.931	2788.65
765.114	2649.39
765.297	2710.83
765.481	2759.98
765.664	2643.24
765.847	2639.15
766.03	2692.4
766.213	2583.85
766.397	2608.43
766.58	2555.18
766.763	2641.2
766.946	2596.14
767.129	2602.29
767.312	2590
767.495	2553.13
767.678	2528.56
767.861	2585.9
768.044	2626.86
768.227	2528.56
768.41	2471.22
768.593	2528.56
768.776	2518.32
768.959	2456.88
769.142	2358.58
769.324	2385.2
769.507	2381.1
769.69	2379.06
769.873	2350.39
770.056	2544.94
770.239	2356.53
770.421	2358.58
770.604	2458.93
770.787	2290.99
770.97	2319.67
771.152	2215.22
771.335	2254.13
771.518	2190.64
771.7	2184.5
771.883	2268.47
772.066	2116.92
772.248	2143.54
772.431	2290.99
772.613	2202.93
772.796	2012.47
772.978	2125.11
773.161	2252.08
773.343	2133.3
773.526	2043.19
773.708	1991.99
773.891	1948.98
774.073	2032.95
774.256	1987.89
774.438	2061.62
774.621	2071.86
774.803	1994.04
774.985	1905.98
775.168	1899.83
775.35	2028.85
775.532	1879.35
775.715	1858.87
775.897	1875.26
776.079	1842.49
776.261	1842.49
776.444	1899.83
776.626	1789.24
776.808	1776.95
776.99	1639.74
777.173	1848.63
777.355	1701.18
777.537	1834.3
777.719	1735.99
777.901	1680.7
778.083	1723.71
778.265	1695.04
778.447	1656.12
778.629	1719.61
778.811	1758.52
778.993	1596.73
779.175	1561.92
779.357	1512.77
779.539	1555.77
779.721	1447.23
779.903	1539.39
780.085	1508.67
780.267	1482.05
780.449	1584.45
780.631	1553.73
780.812	1529.15
780.994	1492.29
781.176	1461.57
781.358	1383.74
781.54	1363.26
781.721	1445.18
781.903	1473.85
782.085	1350.98
782.267	1441.09
782.448	1336.64
782.63	1406.27
782.812	1373.5
782.993	1289.54
783.175	1291.59
783.357	1293.63
783.538	1357.12
783.72	1398.08
783.901	1291.59
784.083	1211.71
784.264	1174.85
784.446	1269.06
784.627	1094.98
784.809	1342.78
784.99	1115.46
785.172	1267.01
785.353	1187.14
785.535	1185.09
785.716	1097.03
785.897	1195.33
786.079	1148.23
786.26	1105.22
786.441	1097.03
786.623	1111.36
786.804	1107.27
786.985	1062.21
787.167	1008.97
787.348	1062.21
787.529	1086.79
787.71	1121.6
787.891	1035.59
788.073	1021.25
788.254	984.39
788.435	1039.69
788.616	1043.78
788.797	1021.25
788.978	974.15
789.159	922.95
789.34	939.33
789.522	974.15
789.703	900.42
789.884	931.14
790.065	1084.74
790.246	1023.3
790.427	925
790.607	949.57
790.788	931.14
790.969	789.83
791.15	980.29
791.331	916.81
791.512	855.37
791.693	888.14
791.874	832.84
792.054	890.18
792.235	851.27
792.416	806.22
792.597	877.9
792.778	982.34
792.958	757.07
793.139	849.22
793.32	830.79
793.5	775.5
793.681	875.85
793.862	843.08
794.042	863.56
794.223	769.35
794.404	814.41
794.584	695.63
794.765	669
794.945	742.73
795.126	787.79
795.306	777.55
795.487	695.63
795.667	746.83
795.848	752.97
796.028	744.78
796.209	695.63
796.389	748.87
796.57	716.11
796.75	613.71
796.93	742.73
797.111	746.83
797.291	716.11
797.471	820.55
797.652	656.72
797.832	701.77
798.012	626
798.192	660.81
798.373	617.8
798.553	712.01
798.733	703.82
798.913	601.42
799.093	642.38
799.274	587.08
799.454	679.24
799.634	531.79
799.814	712.01
799.994	611.66
800.174	630.09
800.354	560.46
800.534	560.46
800.714	605.52
800.894	578.89
801.074	560.46
801.254	582.99
801.434	605.52
801.614	591.18
801.794	531.79
801.974	1342.78
802.154	566.6
802.334	580.94
802.514	587.08
802.693	634.19
802.873	507.21
803.053	587.08
803.233	546.12
803.413	578.89
803.592	589.13
803.772	499.02
803.952	578.89
804.131	464.21
804.311	523.6
804.491	482.64
804.67	511.31
804.85	427.34
805.03	578.89
805.209	556.36
805.389	453.97
805.568	466.25
805.748	505.17
805.928	425.29
806.107	533.84
806.287	480.59
806.466	494.93
806.646	566.6
806.825	621.9
807.004	478.54
807.184	472.4
807.363	462.16
807.543	515.41
807.722	421.2
807.901	488.78
808.081	458.06
808.26	390.48
808.439	474.45
808.619	417.1
808.798	480.59
808.977	441.68
809.156	410.96
809.336	494.93
809.515	546.12
809.694	398.67
809.873	394.58
810.052	419.15
810.231	449.87
810.411	425.29
810.59	417.1
810.769	417.1
810.948	458.06
811.127	406.86
811.306	384.34
811.485	425.29
811.664	482.64
811.843	386.38
812.022	353.62
812.201	435.53
812.38	386.38
812.559	363.86
812.737	394.58
812.916	322.9
813.095	390.48
813.274	382.29
813.453	370
813.632	441.68
813.811	423.25
813.989	286.03
814.168	322.9
814.347	425.29
814.526	386.38
814.704	417.1
814.883	376.14
815.062	286.03
815.24	400.72
815.419	257.36
815.598	392.53
815.776	351.57
815.955	365.9
816.133	228.69
816.312	363.86
816.49	306.51
816.669	341.33
816.847	345.42
817.026	374.1
817.204	283.98
817.383	288.08
817.561	365.9
817.74	257.36
817.918	318.8
818.097	290.13
818.275	376.14
818.453	376.14
818.632	382.29
818.81	290.13
818.988	310.61
819.167	275.79
819.345	277.84
819.523	267.6
819.701	253.27
819.879	378.19
820.058	427.34
820.236	286.03
820.414	335.18
820.592	228.69
820.77	326.99
820.948	292.18
821.127	275.79
821.305	253.27
821.483	216.4
821.661	259.41
821.839	310.61
822.017	267.6
822.195	243.03
822.373	294.22
822.551	310.61
822.729	306.51
822.907	249.17
823.085	191.83
823.262	232.79
823.44	273.75
823.618	185.68
823.796	283.98
823.974	240.98
824.152	271.7
824.329	277.84
824.507	249.17
824.685	281.94
824.863	220.5
825.04	238.93
825.218	202.07
825.396	259.41
825.574	300.37
825.751	259.41
825.929	175.44
826.107	163.15
826.284	281.94
826.462	294.22
826.639	193.87
826.817	204.11
826.994	253.27
827.172	136.53
827.349	240.98
827.527	234.83
827.704	208.21
827.882	314.7
828.059	159.06
828.237	216.4
828.414	204.11
828.591	220.5
828.769	300.37
828.946	210.26
829.124	286.03
829.301	216.4
829.478	236.88
829.655	195.92
829.833	167.25
830.01	185.68
830.187	169.3
830.364	253.27
830.542	253.27
830.719	243.03
830.896	251.22
831.073	138.58
831.25	177.49
831.427	208.21
831.604	167.25
831.782	212.31
831.959	191.83
832.136	243.03
832.313	136.53
832.49	200.02
832.667	206.16
832.844	138.58
833.021	251.22
833.198	255.31
833.374	140.63
833.551	152.91
833.728	210.26
833.905	234.83
834.082	183.63
834.259	228.69
834.436	222.55
834.612	107.86
834.789	228.69
834.966	101.72
835.143	163.15
835.319	130.39
835.496	177.49
835.673	179.54
835.85	212.31
836.026	255.31
836.203	208.21
836.38	138.58
836.556	146.77
836.733	148.82
836.909	179.54
837.086	138.58
837.262	54.61
837.439	179.54
837.616	144.72
837.792	81.24
837.968	105.81
838.145	126.29
838.321	204.11
838.498	171.35
838.674	255.31
838.851	142.68
839.027	81.24
839.203	150.87
839.38	177.49
839.556	52.56
839.732	195.92
839.909	195.92
840.085	124.24
840.261	97.62
840.437	48.47
840.614	163.15
840.79	167.25
840.966	136.53
841.142	136.53
841.318	109.91
841.494	181.59
841.671	122.2
841.847	71
842.023	173.39
842.199	130.39
842.375	71
842.551	73.04
842.727	142.68
842.903	206.16
843.079	101.72
843.255	183.63
843.431	64.85
843.607	150.87
843.783	73.04
843.959	91.48
844.134	171.35
844.31	107.86
844.486	130.39
844.662	101.72
844.838	64.85
845.013	77.14
845.189	171.35
845.365	79.19
845.541	118.1
845.716	77.14
845.892	179.54
846.068	109.91
846.244	85.33
846.419	120.15
846.595	83.28
846.77	73.04
846.946	177.49
847.122	101.72
847.297	68.95
847.473	185.68
847.648	64.85
847.824	71
847.999	77.14
848.175	105.81
848.35	120.15
848.526	105.81
848.701	95.57
848.876	73.04
849.052	163.15
849.227	122.2
849.403	109.91
849.578	17.75
849.753	101.72
849.929	60.76
850.104	-25.26
850.279	95.57
850.454	177.49
850.63	64.85
850.805	97.62
850.98	132.44
851.155	89.43
851.33	111.96
851.505	91.48
851.681	122.2
851.856	85.33
852.031	122.2
852.206	103.76
852.381	60.76
852.556	95.57
852.731	23.89
852.906	91.48
853.081	5.46
853.256	152.91
853.431	97.62
853.606	56.66
853.781	-41.64
853.956	79.19
854.131	71
854.305	40.28
854.48	85.33
854.655	71
854.83	77.14
855.005	101.72
855.18	111.96
855.354	46.42
855.529	36.18
855.704	-29.35
855.879	81.24
856.053	93.52
856.228	52.56
856.403	64.85
856.577	114
856.752	21.84
856.926	128.34
857.101	64.85
857.276	21.84
857.45	-17.07
857.625	161.11
857.799	83.28
857.974	89.43
858.148	93.52
858.323	105.81
858.497	32.08
858.672	95.57
858.846	54.61
859.02	120.15
859.195	99.67
859.369	85.33
859.543	54.61
859.718	38.23
859.892	36.18
860.066	85.33
860.241	95.57
860.415	62.8
860.589	44.37
860.763	48.47
860.938	79.19
861.112	68.95
861.286	3.41
861.46	89.43
861.634	93.52
861.808	-0.68
861.982	42.32
862.157	48.47
862.331	52.56
862.505	-6.83
862.679	-17.07
862.853	62.8
863.027	95.57
863.201	167.25
863.375	19.8
863.549	23.89
863.722	77.14
863.896	83.28
864.07	5.46
864.244	21.84
864.418	71
864.592	77.14
864.766	32.08
864.939	73.04
865.113	9.56
865.287	111.96
865.461	32.08
865.634	19.8
865.808	103.76
865.982	64.85
866.156	36.18
866.329	36.18
866.503	130.39
866.676	58.71
866.85	5.46
867.024	19.8
867.197	40.28
867.371	17.75
867.544	56.66
867.718	105.81
867.891	73.04
868.065	48.47
868.238	-21.16
868.412	32.08
868.585	36.18
868.759	56.66
868.932	62.8
869.105	15.7
869.279	144.72
869.452	3.41
869.625	15.7
869.799	-12.97
869.972	-21.16
870.145	-0.68
870.319	83.28
870.492	-0.68
870.665	-33.45
870.838	27.99
871.011	-29.35
871.185	15.7
871.358	11.61
871.531	-0.68
871.704	60.76
871.877	25.94
872.05	73.04
872.223	17.75
872.396	1.37
872.569	-6.83
872.742	1.37
872.915	85.33
873.088	3.41
873.261	1.37
873.434	30.04
873.607	64.85
873.78	97.62
873.953	38.23
874.126	52.56
874.299	-8.87
874.471	-49.83
874.644	54.61
874.817	44.37
874.99	77.14
875.163	-41.64
875.335	75.09
875.508	15.7
875.681	-0.68
875.853	-0.68
876.026	7.51
876.199	32.08
876.371	-10.92
876.544	62.8
876.717	50.52
876.889	-19.11
877.062	97.62
877.234	-27.31
877.407	-6.83
877.579	30.04
877.752	46.42
877.924	58.71
878.097	87.38
878.269	66.9
878.442	-17.07
878.614	48.47
878.786	-2.73
878.959	11.61
879.131	21.84
879.303	-10.92
879.476	25.94
879.648	101.72
879.82	-39.59
879.993	-21.16
880.165	56.66
880.337	-43.69
880.509	3.41
880.681	-4.78
880.854	97.62
881.026	21.84
881.198	48.47
881.37	-29.35
881.542	-23.21
881.714	-0.68
881.886	-8.87
882.058	32.08
882.23	21.84
882.402	7.51
882.574	40.28
882.746	81.24
882.918	54.61
883.09	56.66
883.262	56.66
883.434	34.13
883.606	-27.31
883.778	-0.68
883.95	46.42
884.122	23.89
884.293	15.7
884.465	25.94
884.637	56.66
884.809	-25.26
884.98	11.61
885.152	23.89
885.324	-17.07
885.496	17.75
885.667	-2.73
885.839	-0.68
886.011	91.48
886.182	-8.87
886.354	32.08
886.525	-17.07
886.697	68.95
886.869	-25.26
887.04	-8.87
887.212	105.81
887.383	93.52
887.555	-25.26
887.726	1.37
887.897	-0.68
888.069	23.89
888.24	-4.78
888.412	38.23
888.583	-37.55
888.754	38.23
888.926	11.61
889.097	21.84
889.268	-98.99
889.44	-4.78
889.611	-17.07
889.782	-39.59
889.953	-51.88
890.125	50.52
890.296	5.46
890.467	-6.83
890.638	-17.07
890.809	44.37
890.98	-19.11
891.151	38.23
891.323	44.37
891.494	85.33
891.665	71
891.836	-8.87
892.007	48.47
892.178	-8.87
892.349	19.8
892.52	40.28
892.691	-0.68
892.862	-19.11
893.032	-0.68
893.203	23.89
893.374	13.65
893.545	60.76
893.716	32.08
893.887	58.71
894.057	-35.5
894.228	3.41
894.399	36.18
894.57	34.13
894.74	-53.93
894.911	-2.73
895.082	7.51
895.253	-27.31
895.423	66.9
895.594	-47.79
895.764	15.7
895.935	-0.68
896.106	-2.73
896.276	-45.74
896.447	58.71
896.617	-17.07
896.788	-111.27
896.958	38.23
897.129	36.18
897.299	-82.6
897.47	68.95
897.64	21.84
897.81	-17.07
897.981	-19.11
898.151	15.7
898.322	9.56
898.492	91.48
898.662	-35.5
898.832	-0.68
899.003	23.89
899.173	-41.64
899.343	-12.97
899.513	27.99
