Data from USB4F104151__89__11-32-02-652.txt Node

Date: Fri Mar 14 11:32:02 EDT 2025
User: louis
Spectrometer: USB4F10415
Trigger mode: 4
Integration Time (sec): 5.000000E-2
Scans to average: 1
Electric dark correction enabled: true
Nonlinearity correction enabled: false
Boxcar width: 0
XAxis mode: Wavelengths
Number of Pixels in Spectrum: 3648
>>>>>Begin Spectral Data<<<<<
178.204	-157.01
178.424	-157.01
178.644	-157.01
178.864	-175.44
179.084	-146.77
179.304	25.26
179.524	-36.18
179.744	-40.28
179.964	55.98
180.184	4.78
180.404	-36.18
180.624	53.93
180.844	-19.8
181.064	-32.08
181.283	-23.89
181.503	39.59
181.723	8.87
181.943	-3.41
182.163	88.75
182.383	-56.66
182.602	64.17
182.822	-7.51
183.042	43.69
183.262	17.07
183.482	-11.61
183.701	37.55
183.921	80.55
184.141	33.45
184.361	94.89
184.58	-48.47
184.8	55.98
185.02	60.07
185.239	37.55
185.459	6.83
185.679	25.26
185.898	-42.32
186.118	64.17
186.338	62.12
186.557	82.6
186.777	12.97
186.997	-19.8
187.216	49.83
187.436	98.99
187.655	41.64
187.875	58.03
188.095	29.35
188.314	4.78
188.534	129.7
188.753	-48.47
188.973	47.79
189.192	86.7
189.412	25.26
189.631	29.35
189.851	17.07
190.07	12.97
190.29	-60.76
190.509	12.97
190.729	2.73
190.948	121.51
191.168	170.66
191.387	47.79
191.607	6.83
191.826	105.13
192.045	39.59
192.265	109.23
192.484	55.98
192.704	45.74
192.923	-40.28
193.142	37.55
193.362	66.22
193.581	82.6
193.8	53.93
194.02	88.75
194.239	39.59
194.458	-25.94
194.678	-23.89
194.897	21.16
195.116	29.35
195.335	45.74
195.555	103.08
195.774	39.59
195.993	2.73
196.212	-68.95
196.432	-1.37
196.651	53.93
196.87	0.68
197.089	119.46
197.308	33.45
197.528	49.83
197.747	8.87
197.966	19.11
198.185	121.51
198.404	-11.61
198.623	90.79
198.842	-54.61
199.062	62.12
199.281	17.07
199.5	17.07
199.719	82.6
199.938	25.26
200.157	90.79
200.376	80.55
200.595	96.94
200.814	82.6
201.033	12.97
201.252	105.13
201.471	41.64
201.69	80.55
201.909	92.84
202.128	-27.99
202.347	35.5
202.566	74.41
202.785	12.97
203.004	58.03
203.223	107.18
203.442	41.64
203.661	60.07
203.879	51.88
204.098	29.35
204.317	0.68
204.536	-27.99
204.755	-7.51
204.974	80.55
205.193	78.51
205.411	146.09
205.63	45.74
205.849	-23.89
206.068	-15.7
206.287	55.98
206.505	41.64
206.724	8.87
206.943	-56.66
207.162	8.87
207.381	-9.56
207.599	12.97
207.818	33.45
208.037	17.07
208.255	-5.46
208.474	17.07
208.693	78.51
208.911	49.83
209.13	53.93
209.349	80.55
209.567	80.55
209.786	23.21
210.005	37.55
210.223	31.4
210.442	-27.99
210.661	74.41
210.879	47.79
211.098	60.07
211.316	-15.7
211.535	49.83
211.753	19.11
211.972	25.26
212.191	-21.85
212.409	-5.46
212.628	31.4
212.846	53.93
213.065	-5.46
213.283	84.65
213.502	2.73
213.72	49.83
213.938	25.26
214.157	-1.37
214.375	31.4
214.594	27.31
214.812	-1.37
215.031	55.98
215.249	25.26
215.467	-27.99
215.686	29.35
215.904	49.83
216.122	-25.94
216.341	12.97
216.559	12.97
216.778	-5.46
216.996	58.03
217.214	4.78
217.432	8.87
217.651	49.83
217.869	31.4
218.087	-3.41
218.306	47.79
218.524	70.31
218.742	37.55
218.96	47.79
219.179	-21.85
219.397	33.45
219.615	82.6
219.833	47.79
220.051	-30.04
220.27	-36.18
220.488	10.92
220.706	53.93
220.924	12.97
221.142	23.21
221.36	0.68
221.578	23.21
221.796	41.64
222.015	58.03
222.233	17.07
222.451	119.46
222.669	-17.75
222.887	8.87
223.105	35.5
223.323	33.45
223.541	-25.94
223.759	88.75
223.977	-13.65
224.195	131.75
224.413	23.21
224.631	29.35
224.849	-15.7
225.067	107.18
225.285	-27.99
225.503	25.26
225.721	-40.28
225.939	21.16
226.157	19.11
226.375	148.14
226.592	29.35
226.81	78.51
227.028	98.99
227.246	70.31
227.464	19.11
227.682	0.68
227.9	55.98
228.117	39.59
228.335	0.68
228.553	12.97
228.771	-17.75
228.989	113.32
229.206	43.69
229.424	-3.41
229.642	49.83
229.86	8.87
230.077	66.22
230.295	27.31
230.513	37.55
230.731	68.27
230.948	31.4
231.166	8.87
231.384	-25.94
231.601	27.31
231.819	82.6
232.037	37.55
232.254	4.78
232.472	21.16
232.689	-19.8
232.907	-1.37
233.125	53.93
233.342	10.92
233.56	-25.94
233.777	58.03
233.995	37.55
234.213	74.41
234.43	64.17
234.648	53.93
234.865	33.45
235.083	51.88
235.3	43.69
235.518	80.55
235.735	41.64
235.953	78.51
236.17	8.87
236.388	49.83
236.605	55.98
236.822	45.74
237.04	37.55
237.257	8.87
237.475	-40.28
237.692	25.26
237.909	41.64
238.127	-34.13
238.344	58.03
238.562	-15.7
238.779	15.02
238.996	-5.46
239.214	90.79
239.431	58.03
239.648	-1.37
239.865	131.75
240.083	78.51
240.3	41.64
240.517	-52.56
240.735	-17.75
240.952	113.32
241.169	51.88
241.386	33.45
241.603	55.98
241.821	-73.04
242.038	86.7
242.255	-38.23
242.472	-1.37
242.689	25.26
242.907	96.94
243.124	53.93
243.341	55.98
243.558	23.21
243.775	23.21
243.992	-5.46
244.209	0.68
244.426	131.75
244.643	12.97
244.86	-1.37
245.078	35.5
245.295	17.07
245.512	76.46
245.729	4.78
245.946	31.4
246.163	-32.08
246.38	17.07
246.597	19.11
246.814	70.31
247.031	0.68
247.248	-5.46
247.464	94.89
247.681	51.88
247.898	39.59
248.115	53.93
248.332	37.55
248.549	103.08
248.766	58.03
248.983	82.6
249.2	72.36
249.417	39.59
249.633	17.07
249.85	39.59
250.067	-9.56
250.284	4.78
250.501	86.7
250.717	144.04
250.934	15.02
251.151	53.93
251.368	33.45
251.585	96.94
251.801	47.79
252.018	-21.85
252.235	49.83
252.451	-52.56
252.668	55.98
252.885	62.12
253.102	35.5
253.318	15.02
253.535	4.78
253.752	12.97
253.968	70.31
254.185	15.02
254.401	41.64
254.618	66.22
254.835	-44.37
255.051	55.98
255.268	51.88
255.484	64.17
255.701	41.64
255.917	47.79
256.134	47.79
256.351	15.02
256.567	8.87
256.784	-32.08
257	0.68
257.217	47.79
257.433	43.69
257.65	58.03
257.866	25.26
258.082	33.45
258.299	6.83
258.515	78.51
258.732	-9.56
258.948	33.45
259.165	98.99
259.381	-34.13
259.597	17.07
259.814	-23.89
260.03	8.87
260.246	15.02
260.463	80.55
260.679	123.56
260.895	33.45
261.112	41.64
261.328	62.12
261.544	39.59
261.761	98.99
261.977	74.41
262.193	-36.18
262.409	58.03
262.626	72.36
262.842	15.02
263.058	41.64
263.274	72.36
263.49	-11.61
263.707	43.69
263.923	25.26
264.139	-23.89
264.355	72.36
264.571	66.22
264.787	-19.8
265.004	60.07
265.22	47.79
265.436	-48.47
265.652	29.35
265.868	66.22
266.084	-40.28
266.3	-27.99
266.516	-25.94
266.732	68.27
266.948	29.35
267.164	127.66
267.38	82.6
267.596	51.88
267.812	82.6
268.028	53.93
268.244	35.5
268.46	-3.41
268.676	-5.46
268.892	-5.46
269.108	23.21
269.324	4.78
269.54	-32.08
269.756	80.55
269.972	-77.14
270.188	6.83
270.403	-75.09
270.619	-1.37
270.835	49.83
271.051	55.98
271.267	-7.51
271.483	-32.08
271.698	82.6
271.914	0.68
272.13	-9.56
272.346	10.92
272.562	10.92
272.777	90.79
272.993	41.64
273.209	15.02
273.425	25.26
273.64	-58.71
273.856	72.36
274.072	-3.41
274.287	-36.18
274.503	45.74
274.719	96.94
274.934	-19.8
275.15	-7.51
275.366	90.79
275.581	-50.52
275.797	37.55
276.012	51.88
276.228	88.75
276.444	41.64
276.659	35.5
276.875	-23.89
277.09	25.26
277.306	0.68
277.521	0.68
277.737	156.33
277.952	37.55
278.168	15.02
278.383	68.27
278.599	64.17
278.814	53.93
279.03	60.07
279.245	-27.99
279.461	101.03
279.676	64.17
279.892	-13.65
280.107	-71
280.322	-13.65
280.538	25.26
280.753	-11.61
280.969	49.83
281.184	64.17
281.399	103.08
281.615	29.35
281.83	35.5
282.045	-15.7
282.26	-17.75
282.476	82.6
282.691	109.23
282.906	66.22
283.122	49.83
283.337	-15.7
283.552	33.45
283.767	-1.37
283.983	74.41
284.198	76.46
284.413	33.45
284.628	-7.51
284.843	49.83
285.058	17.07
285.274	88.75
285.489	58.03
285.704	17.07
285.919	-50.52
286.134	33.45
286.349	62.12
286.564	-1.37
286.779	76.46
286.995	17.07
287.21	-15.7
287.425	74.41
287.64	74.41
287.855	39.59
288.07	-38.23
288.285	41.64
288.5	39.59
288.715	15.02
288.93	-17.75
289.145	86.7
289.36	19.11
289.575	21.16
289.79	4.78
290.004	-1.37
290.219	25.26
290.434	33.45
290.649	49.83
290.864	-32.08
291.079	-1.37
291.294	12.97
291.509	31.4
291.724	66.22
291.938	-7.51
292.153	8.87
292.368	-13.65
292.583	10.92
292.798	6.83
293.012	45.74
293.227	-44.37
293.442	8.87
293.657	115.37
293.871	98.99
294.086	55.98
294.301	115.37
294.516	98.99
294.73	82.6
294.945	64.17
295.16	49.83
295.374	62.12
295.589	33.45
295.804	25.26
296.018	33.45
296.233	103.08
296.447	37.55
296.662	-9.56
296.877	49.83
297.091	-11.61
297.306	78.51
297.52	49.83
297.735	33.45
297.949	43.69
298.164	92.84
298.378	25.26
298.593	-58.71
298.807	-15.7
299.022	17.07
299.236	94.89
299.451	-36.18
299.665	-1.37
299.88	29.35
300.094	90.79
300.309	53.93
300.523	-25.94
300.737	82.6
300.952	29.35
301.166	39.59
301.381	-11.61
301.595	62.12
301.809	-17.75
302.024	86.7
302.238	-7.51
302.452	80.55
302.667	-1.37
302.881	47.79
303.095	78.51
303.309	23.21
303.524	121.51
303.738	107.18
303.952	0.68
304.166	25.26
304.381	-40.28
304.595	51.88
304.809	-58.71
305.023	139.94
305.237	43.69
305.452	53.93
305.666	31.4
305.88	49.83
306.094	-3.41
306.308	23.21
306.522	80.55
306.736	37.55
306.95	35.5
307.164	41.64
307.379	64.17
307.593	62.12
307.807	10.92
308.021	70.31
308.235	0.68
308.449	-7.51
308.663	37.55
308.877	107.18
309.091	41.64
309.305	94.89
309.519	-56.66
309.733	53.93
309.947	-60.76
310.161	37.55
310.374	78.51
310.588	127.66
310.802	33.45
311.016	0.68
311.23	10.92
311.444	33.45
311.658	-36.18
311.872	135.85
312.085	41.64
312.299	88.75
312.513	66.22
312.727	49.83
312.941	-9.56
313.154	62.12
313.368	70.31
313.582	58.03
313.796	-9.56
314.009	90.79
314.223	58.03
314.437	105.13
314.651	-11.61
314.864	0.68
315.078	-60.76
315.292	-48.47
315.505	-7.51
315.719	98.99
315.933	39.59
316.146	-58.71
316.36	-7.51
316.573	29.35
316.787	35.5
317.001	45.74
317.214	27.31
317.428	103.08
317.641	-77.14
317.855	-3.41
318.068	43.69
318.282	21.16
318.495	148.14
318.709	53.93
318.922	6.83
319.136	70.31
319.349	2.73
319.563	23.21
319.776	55.98
319.99	88.75
320.203	-15.7
320.417	41.64
320.63	164.52
320.843	84.65
321.057	66.22
321.27	19.11
321.483	31.4
321.697	41.64
321.91	25.26
322.124	19.11
322.337	-27.99
322.55	-58.71
322.763	10.92
322.977	-3.41
323.19	-38.23
323.403	29.35
323.617	15.02
323.83	98.99
324.043	98.99
324.256	66.22
324.469	0.68
324.683	96.94
324.896	107.18
325.109	49.83
325.322	6.83
325.535	60.07
325.748	23.21
325.962	-17.75
326.175	39.59
326.388	41.64
326.601	70.31
326.814	60.07
327.027	74.41
327.24	55.98
327.453	-38.23
327.666	53.93
327.879	60.07
328.092	33.45
328.305	41.64
328.518	-48.47
328.731	51.88
328.944	113.32
329.157	60.07
329.37	70.31
329.583	131.75
329.796	35.5
330.009	-32.08
330.222	37.55
330.435	64.17
330.648	80.55
330.861	37.55
331.073	66.22
331.286	90.79
331.499	68.27
331.712	-15.7
331.925	15.02
332.138	86.7
332.35	117.42
332.563	15.02
332.776	70.31
332.989	66.22
333.202	45.74
333.414	68.27
333.627	55.98
333.84	66.22
334.053	74.41
334.265	17.07
334.478	17.07
334.691	37.55
334.903	47.79
335.116	17.07
335.329	76.46
335.541	4.78
335.754	31.4
335.966	82.6
336.179	98.99
336.392	-3.41
336.604	96.94
336.817	60.07
337.029	53.93
337.242	-15.7
337.454	21.16
337.667	45.74
337.88	76.46
338.092	23.21
338.305	74.41
338.517	66.22
338.729	45.74
338.942	45.74
339.154	-42.32
339.367	12.97
339.579	53.93
339.792	72.36
340.004	127.66
340.217	98.99
340.429	74.41
340.641	4.78
340.854	-40.28
341.066	19.11
341.278	123.56
341.491	107.18
341.703	66.22
341.915	-15.7
342.128	47.79
342.34	68.27
342.552	27.31
342.764	74.41
342.977	82.6
343.189	17.07
343.401	64.17
343.613	-50.52
343.826	25.26
344.038	25.26
344.25	49.83
344.462	2.73
344.674	33.45
344.886	-3.41
345.099	37.55
345.311	60.07
345.523	-25.94
345.735	-42.32
345.947	12.97
346.159	25.26
346.371	72.36
346.583	15.02
346.795	107.18
347.007	21.16
347.219	115.37
347.431	-11.61
347.643	80.55
347.855	-9.56
348.067	148.14
348.279	60.07
348.491	25.26
348.703	39.59
348.915	-9.56
349.127	39.59
349.339	115.37
349.551	-34.13
349.763	94.89
349.975	-25.94
350.187	80.55
350.399	107.18
350.61	82.6
350.822	41.64
351.034	74.41
351.246	-17.75
351.458	53.93
351.669	94.89
351.881	47.79
352.093	123.56
352.305	74.41
352.517	64.17
352.728	68.27
352.94	-48.47
353.152	41.64
353.363	33.45
353.575	25.26
353.787	10.92
353.999	62.12
354.21	45.74
354.422	-36.18
354.633	72.36
354.845	6.83
355.057	25.26
355.268	47.79
355.48	92.84
355.692	68.27
355.903	86.7
356.115	115.37
356.326	15.02
356.538	66.22
356.749	49.83
356.961	6.83
357.172	45.74
357.384	-25.94
357.595	74.41
357.807	41.64
358.018	78.51
358.23	55.98
358.441	111.27
358.653	23.21
358.864	25.26
359.075	62.12
359.287	58.03
359.498	25.26
359.709	58.03
359.921	37.55
360.132	-7.51
360.344	47.79
360.555	43.69
360.766	94.89
360.977	45.74
361.189	72.36
361.4	82.6
361.611	45.74
361.823	66.22
362.034	8.87
362.245	-7.51
362.456	6.83
362.667	82.6
362.879	41.64
363.09	70.31
363.301	12.97
363.512	72.36
363.723	-7.51
363.935	-1.37
364.146	39.59
364.357	-36.18
364.568	37.55
364.779	-25.94
364.99	25.26
365.201	12.97
365.412	105.13
365.623	8.87
365.834	15.02
366.045	55.98
366.256	92.84
366.467	121.51
366.678	43.69
366.889	66.22
367.1	72.36
367.311	66.22
367.522	23.21
367.733	0.68
367.944	41.64
368.155	25.26
368.366	58.03
368.577	78.51
368.788	33.45
368.999	8.87
369.209	66.22
369.42	88.75
369.631	148.14
369.842	39.59
370.053	68.27
370.264	29.35
370.474	-34.13
370.685	60.07
370.896	43.69
371.107	47.79
371.317	78.51
371.528	72.36
371.739	78.51
371.95	47.79
372.16	17.07
372.371	60.07
372.582	49.83
372.792	148.14
373.003	117.42
373.214	80.55
373.424	25.26
373.635	-68.95
373.846	90.79
374.056	88.75
374.267	113.32
374.477	60.07
374.688	23.21
374.898	94.89
375.109	4.78
375.319	101.03
375.53	119.46
375.74	82.6
375.951	111.27
376.161	2.73
376.372	41.64
376.582	80.55
376.793	47.79
377.003	60.07
377.214	123.56
377.424	25.26
377.635	-11.61
377.845	49.83
378.055	148.14
378.266	35.5
378.476	94.89
378.686	98.99
378.897	15.02
379.107	31.4
379.317	10.92
379.528	-7.51
379.738	115.37
379.948	-15.7
380.158	115.37
380.369	88.75
380.579	58.03
380.789	12.97
380.999	127.66
381.21	107.18
381.42	144.04
381.63	55.98
381.84	129.7
382.05	45.74
382.261	62.12
382.471	86.7
382.681	2.73
382.891	135.85
383.101	49.83
383.311	-27.99
383.521	-23.89
383.731	96.94
383.941	123.56
384.151	72.36
384.361	53.93
384.571	49.83
384.781	-3.41
384.991	156.33
385.201	103.08
385.411	35.5
385.621	49.83
385.831	43.69
386.041	17.07
386.251	80.55
386.461	25.26
386.671	25.26
386.881	66.22
387.091	-23.89
387.301	105.13
387.511	47.79
387.72	86.7
387.93	98.99
388.14	-36.18
388.35	4.78
388.56	139.94
388.769	101.03
388.979	58.03
389.189	64.17
389.399	90.79
389.609	82.6
389.818	82.6
390.028	72.36
390.238	129.7
390.447	92.84
390.657	82.6
390.867	41.64
391.076	-32.08
391.286	74.41
391.496	72.36
391.705	74.41
391.915	86.7
392.125	45.74
392.334	84.65
392.544	74.41
392.753	55.98
392.963	17.07
393.172	45.74
393.382	98.99
393.591	119.46
393.801	154.28
394.01	160.42
394.22	17.07
394.429	92.84
394.639	47.79
394.848	74.41
395.058	17.07
395.267	72.36
395.477	139.94
395.686	90.79
395.895	164.52
396.105	148.14
396.314	115.37
396.524	123.56
396.733	43.69
396.942	86.7
397.152	156.33
397.361	107.18
397.57	113.32
397.78	164.52
397.989	107.18
398.198	191.14
398.407	86.7
398.617	101.03
398.826	84.65
399.035	105.13
399.244	66.22
399.453	115.37
399.663	72.36
399.872	146.09
400.081	101.03
400.29	111.27
400.499	78.51
400.708	162.47
400.917	92.84
401.127	84.65
401.336	121.51
401.545	201.38
401.754	94.89
401.963	133.8
402.172	31.4
402.381	33.45
402.59	82.6
402.799	53.93
403.008	90.79
403.217	215.72
403.426	152.23
403.635	64.17
403.844	-1.37
404.053	90.79
404.262	168.62
404.471	172.71
404.68	172.71
404.888	137.9
405.097	203.43
405.306	141.99
405.515	162.47
405.724	209.58
405.933	160.42
406.142	154.28
406.35	131.75
406.559	187.05
406.768	129.7
406.977	225.96
407.185	189.1
407.394	166.57
407.603	148.14
407.812	197.29
408.02	271.01
408.229	164.52
408.438	205.48
408.646	238.25
408.855	228.01
409.064	266.92
409.272	189.1
409.481	285.35
409.69	174.76
409.898	285.35
410.107	260.77
410.315	361.13
410.524	273.06
410.733	293.54
410.941	285.35
411.15	354.98
411.358	328.36
411.567	344.74
411.775	410.28
411.984	385.7
412.192	432.8
412.401	344.74
412.609	459.43
412.818	475.81
413.026	422.56
413.234	459.43
413.443	441
413.651	459.43
413.86	531.11
414.068	559.78
414.276	570.02
414.485	578.21
414.693	621.22
414.901	676.51
415.11	680.61
415.318	637.6
415.526	694.94
415.734	735.9
415.943	711.33
416.151	770.72
416.359	733.86
416.567	752.29
416.776	789.15
416.984	996
417.192	930.46
417.4	885.41
417.608	889.5
417.817	983.71
418.025	942.75
418.233	1065.63
418.441	1006.24
418.649	1084.06
418.857	1262.23
419.065	1198.74
419.273	1147.55
419.481	1237.66
419.689	1274.52
419.897	1286.81
420.105	1440.4
420.313	1462.93
420.521	1497.75
420.729	1565.33
420.937	1532.56
421.145	1602.19
421.353	1583.76
421.561	1763.98
421.769	1835.66
421.977	1778.32
422.185	1868.43
422.393	1987.21
422.601	2112.14
422.809	1972.88
423.017	2200.2
423.224	2200.2
423.432	2245.26
423.64	2310.79
423.848	2570.88
424.056	2558.6
424.263	2652.8
424.471	2601.6
424.679	2781.82
424.887	2767.49
425.094	2962.05
425.302	2902.65
425.51	3005.05
425.718	3027.58
425.925	3093.12
426.133	3218.04
426.341	3400.31
426.548	3611.25
426.756	3568.24
426.964	3601.01
427.171	3713.65
427.379	3930.73
427.586	4080.24
427.794	4162.16
428.001	4457.06
428.209	4459.11
428.417	4506.21
428.624	4711.01
428.832	4743.78
429.039	4747.87
429.247	4903.52
429.454	5233.24
429.662	5378.65
429.869	5198.43
430.076	5481.05
430.284	5435.99
430.491	5554.77
430.699	5997.14
430.906	5952.08
431.114	6017.61
431.321	6203.98
431.528	6400.59
431.736	6603.33
431.943	7068.22
432.15	6701.64
432.358	6998.59
432.565	7406.14
432.772	7225.92
432.979	7664.18
433.187	7864.88
433.394	7854.64
433.601	8399.4
433.808	8223.28
434.016	8131.12
434.223	8655.4
434.43	9124.38
434.637	8913.44
434.844	9693.72
435.052	9816.6
435.259	9658.9
435.466	9769.49
435.673	9626.14
435.88	10416.65
436.087	10785.29
436.294	10945.03
436.501	10568.2
436.708	10713.61
436.915	11293.18
437.122	11639.29
437.329	11821.56
437.537	12009.97
437.743	12356.08
437.95	12261.87
438.157	12818.92
438.364	13324.77
438.571	13091.3
438.778	13054.44
438.985	14404.05
439.192	13726.17
439.399	14350.8
439.606	14023.12
439.813	14854.6
440.02	15856.06
440.227	15727.03
440.433	15348.16
440.64	15706.55
440.847	15565.25
441.054	16159.16
441.261	17193.38
441.467	16974.25
441.674	17297.83
441.881	17904.03
442.088	17949.08
442.294	17729.95
442.501	18485.65
442.708	18700.69
442.914	19257.73
443.121	20187.51
443.328	19716.48
443.534	20664.69
443.741	20664.69
443.948	19997.05
444.154	21399.91
444.361	21588.32
444.568	21449.06
444.774	21877.08
444.981	21803.36
445.187	22518.1
445.394	23292.23
445.6	23011.66
445.807	25370.92
446.013	24301.88
446.22	24641.84
446.426	25504.04
446.633	25792.8
446.839	26874.13
447.046	25346.34
447.252	27076.88
447.459	26786.07
447.665	27087.12
447.871	28199.16
448.078	29706.47
448.284	28107.01
448.491	28627.19
448.697	29780.2
448.903	30343.39
449.11	30191.84
449.316	29444.33
449.522	30187.74
449.728	31070.42
449.935	31295.69
450.141	31252.69
450.347	32274.62
450.553	31197.39
450.76	31414.48
450.966	32725.18
451.172	32288.96
451.378	32911.54
451.584	32098.5
451.791	33310.89
451.997	33128.63
452.203	33231.02
452.409	33202.35
452.615	33282.22
452.821	31752.39
453.027	31955.14
453.233	33417.39
453.44	32360.64
453.646	31983.81
453.852	32780.47
454.058	32991.41
454.264	31815.88
454.47	32782.52
454.676	32264.38
454.882	32960.69
455.088	30064.86
455.294	30701.78
455.5	30929.11
455.705	31221.97
455.911	29724.9
456.117	29425.9
456.323	29227.24
456.529	27443.46
456.735	28659.96
456.941	27977.98
457.147	27363.59
457.352	26683.67
457.558	26052.89
457.764	26401.05
457.97	25919.78
458.176	25289
458.381	25200.94
458.587	23904.57
458.793	23896.38
458.999	22896.97
459.204	24369.46
459.41	23728.45
459.616	22298.97
459.821	22202.71
460.027	21772.64
460.233	21502.31
460.438	20603.25
460.644	20627.82
460.85	20031.86
461.055	19276.16
461.261	19421.57
461.466	17844.63
461.672	17564.06
461.878	18649.49
462.083	17508.77
462.289	16843.18
462.494	17265.06
462.7	16153.01
462.905	15751.61
463.111	16640.43
463.316	16347.57
463.522	15917.5
463.727	16048.57
463.932	15751.61
464.138	16038.33
464.343	15720.89
464.549	15229.38
464.754	15866.3
464.959	15872.44
465.165	15819.19
465.37	15329.73
465.575	14696.91
465.781	15331.78
465.986	15157.7
466.191	14760.39
466.397	14457.29
466.602	13611.48
466.807	14326.22
467.012	14143.95
467.218	14209.49
467.423	14143.95
467.628	14154.19
467.833	14793.16
468.038	14313.94
468.244	13791.7
468.449	14361.04
468.654	13806.04
468.859	13853.14
469.064	13697.5
469.269	13089.25
469.474	13185.51
469.679	13634.01
469.885	13140.45
470.09	13281.76
470.295	13218.27
470.5	12786.15
470.705	13050.34
470.91	12567.02
471.115	12452.33
471.32	12501.48
471.525	12511.72
471.73	12456.43
471.935	12460.52
472.139	11844.09
472.344	12145.14
472.549	11938.29
472.754	11891.19
472.959	11647.48
473.164	11239.94
473.369	11033.09
473.574	11739.64
473.778	11360.77
473.983	11284.99
474.188	11205.12
474.393	10762.76
474.598	10742.28
474.802	10809.86
475.007	10387.98
475.212	10699.27
475.417	10236.43
475.621	10152.46
475.826	10334.73
476.031	10170.9
476.235	9867.8
476.44	10084.88
476.645	10043.92
476.849	9775.64
477.054	9847.32
477.259	9337.37
477.463	9804.31
477.668	9415.19
477.872	9482.78
478.077	9380.38
478.282	9114.14
478.486	9128.48
478.691	8929.83
478.895	8919.59
479.1	9075.23
479.304	9003.55
479.509	8659.49
479.713	8905.25
479.918	8634.92
480.122	8450.6
480.326	8757.8
480.531	8577.58
480.735	8512.04
480.94	8397.35
481.144	8696.36
481.348	8227.37
481.553	8340.01
481.757	8229.42
481.961	8462.89
482.166	8471.08
482.37	8325.68
482.574	8288.81
482.778	8413.74
482.983	8370.73
483.187	8303.15
483.391	8311.34
483.595	8122.93
483.8	8182.32
484.004	8305.2
484.208	8280.62
484.412	8184.37
484.616	8120.88
484.821	8202.8
485.025	8059.44
485.229	8278.57
485.433	8221.23
485.637	8264.24
485.841	8159.79
486.045	8258.09
486.249	8210.99
486.453	8127.02
486.657	8155.69
486.861	8182.32
487.065	8053.3
487.269	8227.37
487.473	8084.02
487.677	8206.89
487.881	8241.71
488.085	8217.13
488.289	8176.17
488.493	8356.4
488.697	8172.08
488.901	8284.72
489.105	8444.46
489.309	8303.15
489.512	8313.39
489.716	8444.46
489.92	8305.2
490.124	8151.6
490.328	8561.19
490.531	8149.55
490.735	8409.64
490.939	8538.66
491.143	8446.51
491.346	8409.64
491.55	8559.14
491.754	8673.83
491.958	8679.97
492.161	8579.62
492.365	8817.19
492.569	8657.45
492.772	8626.73
492.976	8798.76
493.18	8788.52
493.383	8765.99
493.587	8995.36
493.79	8897.06
493.994	8870.44
494.197	9067.04
494.401	9050.66
494.605	9009.7
494.808	9402.91
495.012	9185.82
495.215	9157.15
495.419	9564.7
495.622	9390.62
495.825	9519.64
496.029	9529.88
496.232	9984.53
496.436	9751.06
496.639	9828.88
496.843	9953.81
497.046	10074.64
497.249	10050.07
497.453	10392.08
497.656	10410.51
497.859	10322.45
498.063	10566.15
498.266	10838.53
498.469	10594.82
498.673	10895.88
498.876	10899.97
499.079	11145.73
499.282	11174.4
499.485	11549.18
499.689	11586.04
499.892	11600.38
500.095	11571.71
500.298	12003.83
500.501	11764.22
500.705	11981.3
500.908	12222.96
501.111	12304.88
501.314	12505.58
501.517	12530.16
501.72	12739.05
501.923	12663.27
502.126	12872.17
502.329	13228.51
502.532	13328.86
502.735	13300.19
502.938	13683.16
503.141	13869.53
503.344	13857.24
503.547	13971.93
503.75	14115.28
503.953	14408.14
504.156	14451.15
504.359	14594.51
504.562	14447.05
504.765	14948.81
504.968	15303.11
505.17	15034.82
505.373	15460.8
505.576	15704.51
505.779	15755.71
505.982	15970.74
506.185	16294.32
506.387	16146.87
506.59	16402.86
506.793	16832.94
506.996	16673.2
507.198	17254.82
507.401	17076.65
507.604	17469.86
507.807	17805.72
508.009	17922.46
508.212	18035.1
508.415	18252.18
508.617	18428.31
508.82	18659.73
509.022	18874.76
509.225	18874.76
509.428	19124.61
509.63	19253.64
509.833	19421.57
510.035	19919.23
510.238	19726.72
510.44	20046.2
510.643	20498.8
510.845	20750.7
511.048	20701.55
511.25	21004.65
511.453	21244.26
511.655	21971.29
511.858	21508.45
512.06	21877.08
512.262	22174.04
512.465	21965.15
512.667	22600.02
512.87	22757.71
513.072	22950.22
513.274	23613.76
513.477	23900.48
513.679	24033.6
513.881	24125.75
514.084	24570.16
514.286	24369.46
514.488	24860.98
514.69	25454.89
514.893	25624.87
515.095	25659.68
515.297	26233.11
515.499	26093.85
515.701	26671.38
515.904	27011.34
516.106	27093.26
516.308	27357.45
516.51	28109.05
516.712	28281.08
516.914	28553.46
517.116	28895.47
517.318	29085.93
517.52	29362.41
517.722	29708.52
517.925	29917.41
518.127	30310.62
518.329	30798.04
518.531	30406.87
518.733	31242.45
518.935	31432.91
519.136	31942.85
519.338	32407.74
519.54	32805.05
519.742	32934.07
519.944	33194.16
520.146	33925.28
520.348	34302.11
520.55	34388.13
520.752	34302.11
520.954	35158.16
521.155	34965.65
521.357	35707.02
521.559	35917.96
521.761	36264.07
521.963	36382.85
522.164	36954.23
522.366	37202.03
522.568	37877.86
522.77	38158.44
522.971	38365.28
523.173	38561.89
523.375	39141.46
523.576	39295.06
523.778	39135.32
523.98	40194.12
524.181	40667.2
524.383	40384.58
524.584	41095.22
524.786	41259.06
524.988	40937.53
525.189	41771.05
525.391	42324
525.592	42504.23
525.794	42526.75
525.995	42561.57
526.197	43091.99
526.398	42989.59
526.6	44050.44
526.801	43894.8
527.003	44410.88
527.204	44361.73
527.406	45090.81
527.607	44992.51
527.808	45826.03
528.01	44806.14
528.211	45621.23
528.412	46614.5
528.614	46100.46
528.815	46434.28
529.016	46985.18
529.218	46706.66
529.419	47007.71
529.62	47286.23
529.822	47204.31
530.023	47364.06
530.224	47679.44
530.425	47749.07
530.626	47454.17
530.828	47933.39
531.029	48861.12
531.23	48359.37
531.431	48441.29
531.632	48541.64
531.833	49108.93
532.035	48984
532.236	49041.34
532.437	49491.9
532.638	49149.88
532.839	49326.01
533.04	49756.08
533.241	49295.29
533.442	50476.97
533.643	49551.29
533.844	50143.15
534.045	49952.69
534.246	49868.72
534.447	50634.66
534.648	49969.07
534.849	50276.27
535.05	50098.09
535.251	49991.6
535.451	50132.91
535.652	50550.7
535.853	50702.24
536.054	50517.93
536.255	50954.15
536.456	49997.74
536.657	51251.1
536.857	50597.8
537.058	50612.13
537.259	51324.83
537.46	50896.8
537.66	50980.77
537.861	51308.44
538.062	50665.38
538.263	51304.35
538.463	51017.63
538.664	50694.05
538.865	51136.41
539.065	51242.91
539.266	50773.92
539.466	51509.14
539.667	50735.01
539.868	51484.57
540.068	50802.6
540.269	50952.1
540.469	51158.94
540.67	51144.61
540.87	51003.3
541.071	51337.12
541.271	51447.71
541.472	51251.1
541.672	50620.33
541.873	50562.98
542.073	50524.07
542.274	51523.48
542.474	50767.78
542.675	50571.17
542.875	51247
543.075	51285.92
543.276	50577.32
543.476	51271.58
543.676	51158.94
543.877	51111.84
544.077	51410.84
544.277	51193.76
544.478	50661.29
544.678	51337.12
544.878	50730.92
545.078	50919.33
545.279	51365.79
545.479	51154.85
545.679	51326.88
545.879	50778.02
546.079	50851.75
546.28	51177.37
546.48	50278.32
546.68	51445.66
546.88	51087.26
547.08	51402.65
547.28	51197.85
547.48	50857.89
547.68	51081.12
547.88	50628.52
548.081	51267.48
548.281	50890.66
548.481	51054.5
548.681	51113.89
548.881	50847.65
549.081	50894.75
549.28	50986.91
549.48	51175.33
549.68	50921.38
549.88	51474.33
550.08	50843.55
550.28	51244.96
550.48	50810.79
550.68	51627.93
550.88	50843.55
551.08	51089.31
551.279	50997.15
551.479	50952.1
551.679	50739.11
551.879	50876.32
552.079	51156.89
552.278	50722.72
552.478	50759.59
552.678	50816.93
552.878	50972.58
553.077	50558.89
553.277	50272.17
553.477	51234.72
553.676	50599.85
553.876	50739.11
554.076	50436.01
554.275	50716.58
554.475	50096.05
554.674	50821.03
554.874	50610.09
555.074	50153.39
555.273	50532.26
555.473	50251.69
555.672	50139.05
555.872	50540.46
556.071	50325.42
556.271	50638.76
556.47	50061.23
556.67	49620.92
556.869	49850.29
557.068	49647.54
557.268	49412.02
557.467	49956.78
557.667	49299.39
557.866	49760.18
558.065	49614.77
558.265	49063.87
558.464	48525.25
558.663	49141.69
558.863	48871.36
559.062	49328.06
559.261	48445.38
559.461	48711.62
559.66	48371.66
559.859	48629.7
560.058	48283.59
560.258	48328.65
560.457	47683.54
560.656	48322.51
560.855	47761.36
561.054	48363.46
561.253	47478.74
561.453	47548.37
561.652	47550.42
561.851	47749.07
562.05	47099.87
562.249	47130.59
562.448	47511.51
562.647	47130.59
562.846	46882.78
563.045	46647.27
563.244	46067.69
563.443	46829.54
563.642	46026.73
563.841	45942.77
564.04	45893.61
564.239	46149.61
564.438	45666.29
564.637	45549.56
564.836	45238.26
565.035	44967.93
565.234	45053.95
565.432	44986.36
565.631	44664.83
565.83	44789.76
566.029	44443.65
566.228	44046.35
566.427	44316.68
566.625	43874.32
566.824	43378.71
567.023	43968.52
567.222	43202.58
567.42	43464.72
567.619	43298.84
567.818	43245.59
568.016	43079.71
568.215	43067.42
568.414	42305.57
568.612	43046.94
568.811	42100.78
569.01	42414.12
569.208	41676.85
569.407	41852.97
569.605	41336.88
569.804	41914.41
570.002	41093.18
570.201	41205.81
570.4	40859.71
570.598	40779.84
570.797	40439.87
570.995	40497.22
571.193	40073.29
571.392	40503.36
571.59	40136.77
571.789	40028.23
571.987	39630.93
572.186	39438.42
572.384	39225.43
572.582	39231.57
572.781	39053.4
572.979	38805.59
573.177	38934.62
573.376	38821.98
573.574	38105.19
573.772	38344.8
573.971	38539.36
574.169	38062.18
574.367	37853.29
574.565	38164.58
574.763	37546.09
574.962	37492.85
575.16	36946.04
575.358	37099.64
575.556	36780.15
575.754	37263.47
575.952	36315.26
576.151	37062.77
576.349	36307.07
576.547	36425.85
576.745	36235.39
576.943	36122.76
577.141	36343.94
577.339	36055.17
577.537	35266.7
577.735	35592.33
577.933	35403.92
578.131	35713.16
578.329	35330.19
578.527	34816.15
578.725	34867.35
578.923	34836.63
579.121	34990.23
579.319	34431.13
579.516	34650.27
579.714	34580.63
579.912	34422.94
580.11	34099.36
580.308	33943.72
580.506	34242.72
580.704	33441.96
580.901	33841.32
581.099	33910.95
581.297	33480.88
581.495	33267.89
581.692	33261.74
581.89	32942.26
582.088	33446.06
582.285	32923.83
582.483	33241.26
582.681	32794.81
582.878	32811.19
583.076	32147.65
583.274	32383.16
583.471	31973.57
583.669	32118.98
583.866	31885.51
584.064	32176.32
584.262	31463.63
584.459	31832.26
584.657	31441.1
584.854	31701.19
585.052	31039.7
585.249	31166.67
585.447	31574.22
585.644	30742.74
585.841	31097.04
586.039	31187.15
586.236	30417.11
586.434	30646.49
586.631	30365.92
586.828	30347.48
587.026	30224.61
587.223	30562.52
587.42	29870.31
587.618	30191.84
587.815	29800.68
588.012	29624.55
588.21	29569.26
588.407	29905.12
588.604	29591.78
588.801	29079.79
588.999	29294.83
589.196	29429.99
589.393	28995.82
589.59	28850.42
589.787	28803.32
589.984	28596.47
590.182	28606.71
590.379	28969.2
590.576	28500.22
590.773	28420.34
590.97	28121.34
591.167	28414.2
591.364	27916.54
591.561	28236.03
591.758	28031.23
591.955	27894.02
592.152	28020.99
592.349	27400.46
592.546	27496.71
592.743	27730.18
592.94	27025.68
593.137	27629.83
593.334	27343.11
593.531	27111.69
593.727	27291.91
593.924	26933.52
594.121	26552.6
594.318	27166.99
594.515	26644.76
594.712	26994.96
594.908	26558.74
595.105	26650.9
595.302	26392.86
595.499	26542.36
595.696	26413.34
595.892	25901.34
596.089	26116.38
596.286	26208.54
596.482	26355.99
596.679	26118.43
596.876	26050.85
597.072	25714.98
597.269	25735.46
597.466	25360.68
597.662	25698.59
597.859	25336.1
598.055	25665.83
598.252	25041.2
598.448	25198.89
598.645	24932.65
598.841	24811.82
599.038	24828.21
599.234	24969.52
599.431	24736.05
599.627	24500.53
599.824	24758.58
600.02	24095.03
600.217	24412.47
600.413	24295.74
600.609	24328.5
600.806	24146.23
601.002	24150.33
601.198	24035.64
601.395	23685.44
601.591	23683.39
601.787	23558.47
601.984	23464.26
602.18	23677.25
602.376	23425.35
602.572	23355.72
602.769	23529.8
602.965	23202.12
603.161	23363.91
603.357	23148.87
603.553	23136.59
603.75	22876.49
603.946	22944.08
604.142	22831.44
604.338	22659.41
604.534	22659.41
604.73	22311.25
604.926	22344.02
605.122	22524.24
605.318	22108.51
605.514	22282.58
605.71	22026.59
605.906	22002.01
606.102	22184.28
606.298	22196.57
606.494	21926.24
606.69	22057.31
606.886	22159.7
607.082	21422.44
607.278	22008.15
607.474	21578.08
607.67	21338.47
607.866	21109.1
608.062	21594.47
608.257	21428.58
608.453	21121.38
608.649	21356.9
608.845	20945.26
609.041	21145.96
609.236	20973.93
609.432	20738.41
609.628	20830.57
609.824	20732.27
610.019	20613.49
610.215	20683.12
610.411	20881.77
610.606	20601.2
610.802	20713.84
610.998	20738.41
611.193	20701.55
611.389	20435.31
611.584	20261.24
611.78	20158.84
611.976	20648.3
612.171	20509.04
612.367	20408.69
612.562	19816.83
612.758	20091.26
612.953	19954.04
613.149	20070.78
613.344	19683.71
613.539	19976.57
613.735	19956.09
613.93	19603.84
614.126	19749.25
614.321	19810.68
614.517	19851.64
614.712	19493.25
614.907	19456.39
615.103	19597.7
615.298	19444.1
615.493	19532.16
615.688	18968.97
615.884	19710.33
616.079	19044.74
616.274	19456.39
616.47	18979.21
616.665	19143.05
616.86	18858.38
617.055	18903.43
617.25	18940.3
617.445	18958.73
617.641	18684.3
617.836	19093.9
618.031	18577.81
618.226	18547.09
618.421	18653.58
618.616	18674.06
618.811	18334.1
619.006	18514.32
619.201	18305.43
619.396	18502.03
619.591	18147.73
619.786	18370.96
619.981	17906.07
620.176	18104.73
620.371	17775
620.566	17701.28
620.761	17807.77
620.956	17684.89
621.151	17619.36
621.346	17496.48
621.541	17248.68
621.735	17457.57
621.93	16929.19
622.125	17185.19
622.32	16710.06
622.515	17140.13
622.709	16904.62
622.904	16769.45
623.099	16681.39
623.294	16806.31
623.488	16544.17
623.683	16611.76
623.878	16167.35
624.072	16269.75
624.267	16394.67
624.462	16081.33
624.656	16064.95
624.851	15937.98
625.046	15587.77
625.24	15759.8
625.435	15698.36
625.629	15557.05
625.824	15557.05
626.018	15497.66
626.213	15253.95
626.407	15358.4
626.602	15129.03
626.796	15131.08
626.991	15008.2
627.185	14789.06
627.38	14830.02
627.574	14457.29
627.768	14772.68
627.963	14469.58
628.157	14467.53
628.352	14391.76
628.546	14246.35
628.74	14369.23
628.935	14129.62
629.129	14305.74
629.323	13814.23
629.517	13791.7
629.712	13941.21
629.906	13865.43
630.1	13498.84
630.294	13758.94
630.489	13588.96
630.683	13834.71
630.877	13423.07
631.071	13259.23
631.265	13443.55
631.459	13246.94
631.653	13130.21
631.848	13130.21
632.042	12788.2
632.236	13058.53
632.43	12761.58
632.624	12863.97
632.818	12825.06
633.012	12632.55
633.206	12759.53
633.4	12767.72
633.594	12544.49
633.788	12513.77
633.982	12440.04
634.176	12487.15
634.369	12235.25
634.563	12190.19
634.757	12177.9
634.951	12188.14
635.145	12089.84
635.339	11848.18
635.533	11760.12
635.726	12116.47
635.92	11667.96
636.114	11512.32
636.308	11553.27
636.501	11645.43
636.695	11649.53
636.889	11440.64
637.083	11524.6
637.276	11110.91
637.47	11272.7
637.664	11067.91
637.857	10885.64
638.051	11033.09
638.244	11016.71
638.438	11053.57
638.632	10912.26
638.825	10955.27
639.019	10881.54
639.212	10598.92
639.406	10560.01
639.599	10529.29
639.793	10478.09
639.986	10312.21
640.18	10324.49
640.373	10355.21
640.567	10007.06
640.76	10164.75
640.954	10039.83
641.147	9923.09
641.34	10119.7
641.534	10115.6
641.727	10039.83
641.92	9855.51
642.114	9732.63
642.307	9957.91
642.5	9699.86
642.694	9607.7
642.887	9413.15
643.08	9552.41
643.273	9472.54
643.467	9310.75
643.66	9194.01
643.853	9353.76
644.046	9169.44
644.239	9273.89
644.432	9001.51
644.626	9130.53
644.819	8999.46
645.012	8978.98
645.205	8927.78
645.398	8919.59
645.591	8655.4
645.784	8708.65
645.977	8491.56
646.17	8616.49
646.363	8579.62
646.556	8747.56
646.749	8614.44
646.942	8634.92
647.135	8466.99
647.328	8413.74
647.521	8258.09
647.714	8131.12
647.907	8260.14
648.099	8120.88
648.292	8049.2
648.485	8337.96
648.678	7993.9
648.871	8000.05
649.064	8075.82
649.256	7916.08
649.449	7918.13
649.642	7946.8
649.835	7688.76
650.027	7766.58
650.22	7805.49
650.413	7627.32
650.605	7758.39
650.798	7619.13
650.991	7660.09
651.183	7371.32
651.376	7438.91
651.568	7721.52
651.761	7512.63
651.954	7713.33
652.146	7205.44
652.339	7334.46
652.531	7414.33
652.724	7283.26
652.916	7203.39
653.109	7150.14
653.301	7197.24
653.494	7240.25
653.686	7117.37
653.879	7316.03
654.071	7107.13
654.263	6955.58
654.456	6955.58
654.648	7090.75
654.84	6758.98
655.033	6810.18
655.225	6857.28
655.417	6619.72
655.61	7027.26
655.802	6750.79
655.994	6713.92
656.186	6773.32
656.379	6814.27
656.571	6591.05
656.763	6621.77
656.955	6564.42
657.148	6566.47
657.34	6529.61
657.532	6687.3
657.724	6408.78
657.916	6457.93
658.108	6531.65
658.3	6390.35
658.492	6580.81
658.684	6279.75
658.876	6339.15
659.068	6304.33
659.26	6169.16
659.452	6208.08
659.644	6095.44
659.836	6144.59
660.028	6294.09
660.22	6269.52
660.412	6099.53
660.604	6089.29
660.796	6058.57
660.988	6115.92
661.18	5970.51
661.372	5872.21
661.563	5921.36
661.755	5911.12
661.947	6003.28
662.139	5898.83
662.331	5876.31
662.522	5792.34
662.714	5780.05
662.906	5771.86
663.097	5784.15
663.289	5735
663.481	5767.76
663.673	5812.82
663.864	5685.84
664.056	5599.83
664.247	5640.79
664.439	5620.31
664.631	5648.98
664.822	5638.74
665.014	5706.32
665.205	5554.77
665.397	5489.24
665.588	5546.58
665.78	5544.53
665.971	5558.87
666.163	5544.53
666.354	5505.62
666.546	5296.73
666.737	5481.05
666.929	5399.13
667.12	5362.26
667.311	5378.65
667.503	5200.48
667.694	5452.38
667.885	5294.68
668.077	5227.1
668.268	5309.02
668.459	5309.02
668.651	5157.47
668.842	5528.15
669.033	5249.63
669.224	5225.05
669.416	5251.67
669.607	5311.07
669.798	5253.72
669.989	5366.36
670.18	5208.67
670.371	5343.83
670.563	5018.21
670.754	5257.82
670.945	5237.34
671.136	5309.02
671.327	5362.26
671.518	5266.01
671.709	5300.83
671.9	5194.33
672.091	5300.83
672.282	5167.71
672.473	5300.83
672.664	5358.17
672.855	5274.2
673.046	5300.83
673.237	5380.7
673.428	5284.44
673.619	5218.91
673.809	5147.23
674	5202.52
674.191	5231.19
674.382	5104.22
674.573	5208.67
674.764	5472.86
674.954	5263.96
675.145	5358.17
675.336	5247.58
675.527	5186.14
675.717	5333.59
675.908	5184.09
676.099	5347.93
676.289	5364.31
676.48	5327.45
676.671	5071.45
676.861	5212.76
677.052	5370.46
677.243	5257.82
677.433	5366.36
677.624	5284.44
677.814	5341.79
678.005	5321.31
678.195	5311.07
678.386	5374.55
678.576	5526.1
678.767	5280.35
678.957	5386.84
679.148	5546.58
679.338	5390.94
679.529	5513.81
679.719	5522.01
679.909	5714.52
680.1	5349.98
680.29	5419.61
680.481	5501.53
680.671	5509.72
680.861	5438.04
681.052	5608.02
681.242	5427.8
681.432	5513.81
681.622	5470.81
681.813	5519.96
682.003	5624.4
682.193	5528.15
682.383	5618.26
682.573	5587.54
682.764	5634.64
682.954	5571.16
683.144	5696.08
683.334	5626.45
683.524	5522.01
683.714	5778
683.904	5659.22
684.094	5751.38
684.284	5687.89
684.474	5800.53
684.664	5755.47
684.854	5618.26
685.044	5610.07
685.234	5591.64
685.424	5728.85
685.614	5556.82
685.804	5655.12
685.994	5769.81
686.184	5765.71
686.374	5575.25
686.564	5542.49
686.753	5661.27
686.943	5706.32
687.133	5524.05
687.323	5544.53
687.513	5788.24
687.702	5671.51
687.892	5562.97
688.082	5485.14
688.272	5485.14
688.461	5585.49
688.651	5579.35
688.841	5456.47
689.03	5485.14
689.22	5366.36
689.41	5419.61
689.599	5292.63
689.789	5354.07
689.979	5341.79
690.168	5284.44
690.358	5251.67
690.547	5272.15
690.737	5249.63
690.926	5188.19
691.116	5126.75
691.305	5251.67
691.495	5157.47
691.684	5050.97
691.874	5212.76
692.063	5165.66
692.252	5032.54
692.442	5165.66
692.631	5057.12
692.82	5034.59
693.01	4960.86
693.199	4973.15
693.388	4960.86
693.578	4811.36
693.767	4969.05
693.956	5022.3
694.146	4725.35
694.335	4840.03
694.524	4932.19
694.713	5007.97
694.902	4878.94
695.092	5079.65
695.281	4940.38
695.47	4948.58
695.659	4975.2
695.848	4989.53
696.037	4760.16
696.226	4921.95
696.415	4889.18
696.604	5032.54
696.793	4866.66
696.982	5032.54
697.171	4776.55
697.36	4809.31
697.549	4809.31
697.738	4833.89
697.927	4858.46
698.116	5036.64
698.305	4860.51
698.494	4862.56
698.683	4915.81
698.872	5079.65
699.061	5042.78
699.25	5071.45
699.438	4956.77
699.627	5028.45
699.816	5112.41
700.005	5134.94
700.193	5014.11
700.382	5075.55
700.571	5163.61
700.76	5063.26
700.948	5202.52
701.137	5038.69
701.326	5059.17
701.514	4971.1
701.703	5177.95
701.892	4993.63
702.08	5106.27
702.269	5270.11
702.457	5038.69
702.646	5177.95
702.834	5001.82
703.023	5104.22
703.212	5036.64
703.4	5128.8
703.589	5208.67
703.777	5218.91
703.965	5034.59
704.154	5186.14
704.342	5161.56
704.531	5249.63
704.719	5239.39
704.907	5323.35
705.096	5233.24
705.284	5382.74
705.472	5245.53
705.661	5374.55
705.849	5304.92
706.037	5274.2
706.226	5286.49
706.414	5239.39
706.602	5329.5
706.79	5415.51
706.979	5153.37
707.167	5333.59
707.355	5337.69
707.543	5284.44
707.731	5575.25
707.919	5407.32
708.107	5440.09
708.296	5509.72
708.484	5395.03
708.672	5468.76
708.86	5427.8
709.048	5540.44
709.236	5591.64
709.424	5452.38
709.612	5472.86
709.8	5431.9
709.988	5481.05
710.176	5464.66
710.364	5595.73
710.551	5481.05
710.739	5597.78
710.927	5497.43
711.115	5554.77
711.303	5577.3
711.491	5470.81
711.679	5601.88
711.866	5683.8
712.054	5636.69
712.242	5538.39
712.43	5751.38
712.617	5560.92
712.805	5542.49
712.993	5659.22
713.181	5669.46
713.368	5644.88
713.556	5775.95
713.744	5698.13
713.931	5816.91
714.119	5689.94
714.306	5939.79
714.494	5794.39
714.682	5855.83
714.869	5702.23
715.057	5882.45
715.244	5755.47
715.432	5829.2
715.619	5894.74
715.807	5866.07
715.994	5782.1
716.182	5775.95
716.369	6027.85
716.556	5984.85
716.744	5853.78
716.931	5929.55
717.119	6023.76
717.306	5954.13
717.493	5872.21
717.681	5988.94
717.868	6052.43
718.055	6115.92
718.242	6054.48
718.43	6154.83
718.617	5851.73
718.804	6019.66
718.991	6056.53
719.179	5978.7
719.366	6015.57
719.553	6105.68
719.74	5923.41
719.927	5917.26
720.114	5950.03
720.301	6054.48
720.488	6023.76
720.676	5898.83
720.863	6095.44
721.05	6095.44
721.237	6038.09
721.424	6046.29
721.611	5958.22
721.798	5947.98
721.985	5925.46
722.172	6083.15
722.358	6044.24
722.545	6218.32
722.732	5939.79
722.919	6193.74
723.106	6066.77
723.293	6072.91
723.48	6281.8
723.667	6138.44
723.853	6025.81
724.04	6070.86
724.227	6160.97
724.414	6048.33
724.6	6144.59
724.787	6185.55
724.974	6246.99
725.161	6197.84
725.347	6027.85
725.534	6232.65
725.72	6265.42
725.907	6300.23
726.094	6279.75
726.28	6115.92
726.467	6105.68
726.653	5976.66
726.84	6089.29
727.027	6099.53
727.213	6189.64
727.4	6216.27
727.586	6179.4
727.773	6257.23
727.959	6152.78
728.145	6240.84
728.332	6306.38
728.518	6181.45
728.705	6169.16
728.891	6259.28
729.077	6404.68
729.264	6218.32
729.45	6236.75
729.636	6185.55
729.823	6197.84
730.009	6222.41
730.195	6267.47
730.382	6414.92
730.568	6259.28
730.754	6210.12
730.94	6373.96
731.126	6326.86
731.313	6298.19
731.499	6208.08
731.685	6269.52
731.871	6240.84
732.057	6294.09
732.243	6300.23
732.429	6322.76
732.615	6312.52
732.801	6246.99
732.987	6244.94
733.173	6324.81
733.359	6292.04
733.545	6140.49
733.731	6263.37
733.917	6111.82
734.103	6244.94
734.289	6109.77
734.475	6160.97
734.661	6148.68
734.847	6242.89
735.033	6181.45
735.219	6232.65
735.404	6158.92
735.59	6013.52
735.776	6132.3
735.962	6255.18
736.148	6193.74
736.333	6236.75
736.519	6068.81
736.705	6234.7
736.89	5997.14
737.076	6160.97
737.262	6054.48
737.447	6048.33
737.633	5896.78
737.819	6062.67
738.004	6117.97
738.19	6064.72
738.375	5859.92
738.561	6042.19
738.747	6038.09
738.932	6046.29
739.118	5964.37
739.303	6005.33
739.489	6050.38
739.674	5847.63
739.859	5872.21
740.045	5790.29
740.23	5782.1
740.416	5821.01
740.601	5907.02
740.786	5702.23
740.972	5954.13
741.157	5780.05
741.342	5841.49
741.528	5786.19
741.713	5876.31
741.898	5839.44
742.084	5823.06
742.269	5730.9
742.454	5735
742.639	5825.11
742.824	5724.76
743.01	5556.82
743.195	5618.26
743.38	5667.41
743.565	5515.86
743.75	5704.28
743.935	5552.73
744.12	5704.28
744.305	5300.83
744.49	5399.13
744.675	5362.26
744.86	5433.94
745.045	5407.32
745.23	5169.76
745.415	5352.02
745.6	5163.61
745.785	5192.28
745.97	5247.58
746.155	5214.81
746.34	5182.04
746.525	5235.29
746.71	5112.41
746.895	5159.52
747.079	5124.7
747.264	5028.45
747.449	5012.06
747.634	5042.78
747.819	5003.87
748.003	5010.01
748.188	4962.91
748.373	4735.59
748.557	4715.11
748.742	4723.3
748.927	4612.71
749.111	4643.43
749.296	4639.33
749.481	4649.57
749.665	4575.84
749.85	4471.4
750.034	4536.93
750.219	4487.78
750.404	4426.34
750.588	4371.05
750.773	4489.83
750.957	4338.28
751.141	4551.27
751.326	4344.42
751.51	4387.43
751.695	4313.7
751.879	4360.81
752.064	4305.51
752.248	4129.39
752.432	4174.44
752.617	4172.4
752.801	4123.24
752.985	3957.36
753.17	3971.69
753.354	3963.5
753.538	3977.84
753.722	3873.39
753.907	3773.04
754.091	3895.92
754.275	3762.8
754.459	3809.9
754.643	3842.67
754.828	3734.13
755.012	3732.08
755.196	3658.35
755.38	3576.44
755.564	3703.41
755.748	3537.52
755.932	3609.2
756.116	3588.72
756.3	3740.27
756.484	3474.04
756.668	3424.89
756.852	3367.54
757.036	3449.46
757.22	3310.2
757.404	3398.26
757.588	3312.25
757.772	3211.9
757.956	3367.54
758.14	3261.05
758.323	3345.02
758.507	3220.09
758.691	3267.19
758.875	3168.89
759.059	3220.09
759.242	3166.84
759.426	3062.4
759.61	3162.75
759.794	3056.25
759.977	3086.97
760.161	3119.74
760.345	3019.39
760.528	3070.59
760.712	3031.68
760.895	3074.68
761.079	3058.3
761.263	2919.04
761.446	2964.09
761.63	2994.81
761.813	2912.89
761.997	2830.98
762.18	2742.91
762.364	2816.64
762.547	2785.92
762.731	2773.63
762.914	2857.6
763.098	2785.92
763.281	2687.62
763.464	2712.19
763.648	2841.22
763.831	2671.23
764.015	2679.43
764.198	2744.96
764.381	2652.8
764.564	2738.82
764.748	2736.77
764.931	2525.83
765.114	2638.47
765.297	2505.35
765.481	2599.56
765.664	2460.29
765.847	2579.08
766.03	2556.55
766.213	2531.97
766.397	2462.34
766.58	2425.48
766.763	2386.57
766.946	2583.17
767.129	2366.09
767.312	2429.57
767.495	2384.52
767.678	2523.78
767.861	2407.05
768.044	2474.63
768.227	2390.66
768.41	2366.09
768.593	2226.82
768.776	2306.7
768.959	2318.98
769.142	2343.56
769.324	2278.02
769.507	2235.02
769.69	2237.06
769.873	2245.26
770.056	2294.41
770.239	2093.71
770.421	2169.48
770.604	2118.28
770.787	2073.23
770.97	2054.8
771.152	2122.38
771.335	2105.99
771.518	2177.67
771.7	2165.39
771.883	2220.68
772.066	2114.19
772.248	1974.92
772.431	2093.71
772.613	2073.23
772.796	1952.4
772.978	2022.03
773.161	2198.15
773.343	1997.45
773.526	1979.02
773.708	1979.02
773.891	1770.13
774.073	1933.97
774.256	1899.15
774.438	1938.06
774.621	1784.46
774.803	1866.38
774.985	1778.32
775.168	1806.99
775.35	1770.13
775.532	1802.9
775.715	1778.32
775.897	1811.09
776.079	1768.08
776.261	1786.51
776.444	1768.08
776.626	1757.84
776.808	1626.77
776.99	1591.95
777.173	1680.02
777.355	1594
777.537	1637.01
777.719	1626.77
777.901	1688.21
778.083	1581.71
778.265	1491.6
778.447	1524.37
778.629	1596.05
778.811	1569.43
778.993	1565.33
779.175	1503.89
779.357	1565.33
779.539	1495.7
779.721	1479.32
779.903	1456.79
780.085	1417.88
780.267	1409.69
780.449	1368.73
780.631	1413.78
780.812	1432.21
780.994	1397.4
781.176	1399.45
781.358	1292.95
781.54	1262.23
781.721	1374.87
781.903	1372.82
782.085	1307.29
782.267	1217.18
782.448	1329.81
782.63	1266.33
782.812	1219.22
782.993	1264.28
783.175	1309.33
783.357	1247.9
783.538	1254.04
783.72	1219.22
783.901	1247.9
784.083	1110.68
784.264	1213.08
784.446	1200.79
784.627	1049.24
784.809	1184.41
784.99	1094.3
785.172	1108.63
785.353	1110.68
785.535	1096.35
785.716	1147.55
785.897	1088.15
786.079	1069.72
786.26	1102.49
786.441	1020.57
786.623	1082.01
786.804	1002.14
786.985	1047.19
787.167	1030.81
787.348	1016.48
787.529	973.47
787.71	1014.43
787.891	967.32
788.073	1000.09
788.254	971.42
788.435	979.61
788.616	983.71
788.797	811.68
788.978	866.97
789.159	893.6
789.34	959.13
789.522	942.75
789.703	942.75
789.884	975.52
790.065	924.32
790.246	881.31
790.427	879.26
790.607	928.41
790.788	842.4
790.969	844.45
791.15	893.6
791.331	854.69
791.512	809.63
791.693	742.05
791.874	901.79
792.054	967.32
792.235	875.17
792.416	823.97
792.597	758.43
792.778	799.39
792.958	860.83
793.139	696.99
793.32	696.99
793.5	678.56
793.681	832.16
793.862	711.33
794.042	735.9
794.223	696.99
794.404	762.53
794.584	590.5
794.765	731.81
794.945	668.32
795.126	768.67
795.306	793.25
795.487	744.1
795.667	701.09
795.848	735.9
796.028	725.66
796.209	735.9
796.389	742.05
796.57	701.09
796.75	670.37
796.93	680.61
797.111	729.76
797.291	688.8
797.471	721.57
797.652	615.07
797.832	553.63
798.012	590.5
798.192	623.27
798.373	619.17
798.553	602.79
798.733	613.03
798.913	680.61
799.093	647.84
799.274	623.27
799.454	666.27
799.634	637.6
799.814	623.27
799.994	606.88
800.174	651.94
800.354	606.88
800.534	500.39
800.714	613.03
800.894	496.29
801.074	590.5
801.254	533.15
801.434	639.65
801.614	516.77
801.794	479.91
801.974	1333.91
802.154	604.83
802.334	629.41
802.514	508.58
802.693	576.16
802.873	547.49
803.053	621.22
803.233	496.29
803.413	496.29
803.592	443.04
803.772	475.81
803.952	496.29
804.131	432.8
804.311	508.58
804.491	563.87
804.67	502.43
804.85	426.66
805.03	461.48
805.209	629.41
805.389	512.67
805.568	418.47
805.748	606.88
805.928	389.8
806.107	492.2
806.287	473.76
806.466	469.67
806.646	504.48
806.825	506.53
807.004	414.37
807.184	494.24
807.363	420.52
807.543	549.54
807.722	363.17
807.901	471.72
808.081	414.37
808.26	383.65
808.439	479.91
808.619	418.47
808.798	400.04
808.977	400.04
809.156	512.67
809.336	492.2
809.515	436.9
809.694	342.69
809.873	457.38
810.052	309.93
810.231	443.04
810.411	412.32
810.59	418.47
810.769	344.74
810.948	410.28
811.127	342.69
811.306	357.03
811.485	377.51
811.664	469.67
811.843	443.04
812.022	336.55
812.201	387.75
812.38	375.46
812.559	279.21
812.737	379.56
812.916	328.36
813.095	299.69
813.274	369.32
813.453	303.78
813.632	408.23
813.811	447.14
813.989	266.92
814.168	408.23
814.347	311.97
814.526	352.93
814.704	344.74
814.883	369.32
815.062	303.78
815.24	299.69
815.419	307.88
815.598	311.97
815.776	283.3
815.955	291.49
816.133	295.59
816.312	311.97
816.49	316.07
816.669	340.65
816.847	307.88
817.026	316.07
817.204	297.64
817.383	441
817.561	303.78
817.74	330.41
817.918	246.44
818.097	295.59
818.275	275.11
818.453	271.01
818.632	363.17
818.81	287.4
818.988	303.78
819.167	254.63
819.345	375.46
819.523	299.69
819.701	279.21
819.879	389.8
820.058	297.64
820.236	266.92
820.414	303.78
820.592	285.35
820.77	252.58
820.948	225.96
821.127	299.69
821.305	275.11
821.483	228.01
821.661	320.17
821.839	189.1
822.017	201.38
822.195	285.35
822.373	318.12
822.551	291.49
822.729	318.12
822.907	299.69
823.085	197.29
823.262	217.77
823.44	213.67
823.618	141.99
823.796	250.53
823.974	285.35
824.152	271.01
824.329	213.67
824.507	291.49
824.685	252.58
824.863	250.53
825.04	279.21
825.218	299.69
825.396	299.69
825.574	246.44
825.751	236.2
825.929	178.86
826.107	180.9
826.284	238.25
826.462	232.1
826.639	223.91
826.817	205.48
826.994	152.23
827.172	197.29
827.349	254.63
827.527	203.43
827.704	262.82
827.882	230.06
828.059	180.9
828.237	221.86
828.414	244.39
828.591	135.85
828.769	164.52
828.946	199.34
829.124	230.06
829.301	326.31
829.478	185
829.655	242.34
829.833	193.19
830.01	162.47
830.187	156.33
830.364	160.42
830.542	207.53
830.719	254.63
830.896	162.47
831.073	262.82
831.25	146.09
831.427	266.92
831.604	217.77
831.782	131.75
831.959	217.77
832.136	180.9
832.313	221.86
832.49	191.14
832.667	150.18
832.844	160.42
833.021	211.62
833.198	185
833.374	185
833.551	193.19
833.728	109.23
833.905	164.52
834.082	125.61
834.259	158.38
834.436	205.48
834.612	82.6
834.789	156.33
834.966	185
835.143	217.77
835.319	154.28
835.496	162.47
835.673	219.82
835.85	260.77
836.026	189.1
836.203	137.9
836.38	144.04
836.556	113.32
836.733	88.75
836.909	344.74
837.086	107.18
837.262	115.37
837.439	78.51
837.616	113.32
837.792	221.86
837.968	64.17
838.145	62.12
838.321	103.08
838.498	178.86
838.674	115.37
838.851	154.28
839.027	123.56
839.203	168.62
839.38	154.28
839.556	139.94
839.732	101.03
839.909	111.27
840.085	146.09
840.261	107.18
840.437	103.08
840.614	123.56
840.79	193.19
840.966	109.23
841.142	164.52
841.318	107.18
841.494	170.66
841.671	123.56
841.847	64.17
842.023	82.6
842.199	129.7
842.375	160.42
842.551	66.22
842.727	115.37
842.903	119.46
843.079	53.93
843.255	160.42
843.431	129.7
843.607	150.18
843.783	66.22
843.959	137.9
844.134	8.87
844.31	189.1
844.486	109.23
844.662	66.22
844.838	103.08
845.013	123.56
845.189	209.58
845.365	148.14
845.541	90.79
845.716	133.8
845.892	137.9
846.068	156.33
846.244	98.99
846.419	70.31
846.595	90.79
846.77	78.51
846.946	72.36
847.122	146.09
847.297	94.89
847.473	164.52
847.648	133.8
847.824	66.22
847.999	66.22
848.175	82.6
848.35	82.6
848.526	131.75
848.701	148.14
848.876	125.61
849.052	98.99
849.227	25.26
849.403	131.75
849.578	41.64
849.753	-13.65
849.929	96.94
850.104	8.87
850.279	0.68
850.454	74.41
850.63	78.51
850.805	53.93
850.98	72.36
851.155	121.51
851.33	115.37
851.505	33.45
851.681	113.32
851.856	33.45
852.031	115.37
852.206	53.93
852.381	115.37
852.556	152.23
852.731	37.55
852.906	146.09
853.081	88.75
853.256	156.33
853.431	66.22
853.606	0.68
853.781	17.07
853.956	0.68
854.131	96.94
854.305	105.13
854.48	66.22
854.655	92.84
854.83	49.83
855.005	15.02
855.18	115.37
855.354	25.26
855.529	72.36
855.704	74.41
855.879	74.41
856.053	-11.61
856.228	47.79
856.403	17.07
856.577	41.64
856.752	74.41
856.926	37.55
857.101	-73.04
857.276	86.7
857.45	94.89
857.625	123.56
857.799	0.68
857.974	58.03
858.148	-15.7
858.323	92.84
858.497	31.4
858.672	-1.37
858.846	49.83
859.02	29.35
859.195	86.7
859.369	88.75
859.543	49.83
859.718	8.87
859.892	6.83
860.066	96.94
860.241	0.68
860.415	41.64
860.589	-15.7
860.763	47.79
860.938	90.79
861.112	164.52
861.286	-15.7
861.46	6.83
861.634	23.21
861.808	60.07
861.982	139.94
862.157	51.88
862.331	45.74
862.505	25.26
862.679	70.31
862.853	47.79
863.027	25.26
863.201	135.85
863.375	-1.37
863.549	98.99
863.722	133.8
863.896	64.17
864.07	37.55
864.244	43.69
864.418	90.79
864.592	12.97
864.766	31.4
864.939	-21.85
865.113	68.27
865.287	55.98
865.461	-48.47
865.634	72.36
865.808	62.12
865.982	-17.75
866.156	49.83
866.329	-15.7
866.503	70.31
866.676	121.51
866.85	-1.37
867.024	49.83
867.197	33.45
867.371	111.27
867.544	55.98
867.718	60.07
867.891	86.7
868.065	-7.51
868.238	90.79
868.412	92.84
868.585	25.26
868.759	60.07
868.932	17.07
869.105	-1.37
869.279	21.16
869.452	-48.47
869.625	39.59
869.799	55.98
869.972	25.26
870.145	-13.65
870.319	31.4
870.492	43.69
870.665	74.41
870.838	10.92
871.011	-89.43
871.185	15.02
871.358	21.16
871.531	58.03
871.704	43.69
871.877	4.78
872.05	-13.65
872.223	-32.08
872.396	37.55
872.569	62.12
872.742	15.02
872.915	68.27
873.088	-9.56
873.261	-5.46
873.434	25.26
873.607	6.83
873.78	19.11
873.953	49.83
874.126	8.87
874.299	60.07
874.471	-30.04
874.644	23.21
874.817	33.45
874.99	131.75
875.163	-5.46
875.335	-56.66
875.508	8.87
875.681	-1.37
875.853	23.21
876.026	-21.85
876.199	45.74
876.371	60.07
876.544	37.55
876.717	43.69
876.889	-52.56
877.062	62.12
877.234	-1.37
877.407	-9.56
877.579	49.83
877.752	113.32
877.924	-1.37
878.097	92.84
878.269	6.83
878.442	55.98
878.614	41.64
878.786	25.26
878.959	-32.08
879.131	-23.89
879.303	-101.72
879.476	45.74
879.648	49.83
879.82	8.87
879.993	-64.85
880.165	-32.08
880.337	-60.76
880.509	62.12
880.681	-15.7
880.854	6.83
881.026	23.21
881.198	21.16
881.37	21.16
881.542	-11.61
881.714	-15.7
881.886	37.55
882.058	45.74
882.23	-58.71
882.402	0.68
882.574	17.07
882.746	43.69
882.918	82.6
883.09	-3.41
883.262	51.88
883.434	58.03
883.606	2.73
883.778	41.64
883.95	62.12
884.122	27.31
884.293	31.4
884.465	72.36
884.637	117.42
884.809	33.45
884.98	12.97
885.152	49.83
885.324	58.03
885.496	76.46
885.667	12.97
885.839	-17.75
886.011	80.55
886.182	-42.32
886.354	17.07
886.525	-62.8
886.697	4.78
886.869	-15.7
887.04	-97.62
887.212	68.27
887.383	76.46
887.555	90.79
887.726	21.16
887.897	-11.61
888.069	-5.46
888.24	-21.85
888.412	29.35
888.583	-42.32
888.754	-68.95
888.926	-105.81
889.097	33.45
889.268	25.26
889.44	53.93
889.611	-9.56
889.782	-9.56
889.953	-52.56
890.125	31.4
890.296	-77.14
890.467	10.92
890.638	15.02
890.809	-9.56
890.98	29.35
891.151	49.83
891.323	66.22
891.494	-11.61
891.665	2.73
891.836	-21.85
892.007	35.5
892.178	68.27
892.349	-40.28
892.52	-9.56
892.691	-83.28
892.862	-9.56
893.032	17.07
893.203	35.5
893.374	29.35
893.545	51.88
893.716	-23.89
893.887	64.17
894.057	-13.65
894.228	2.73
894.399	4.78
894.57	31.4
894.74	10.92
894.911	-11.61
895.082	-15.7
895.253	-15.7
895.423	-5.46
895.594	-3.41
895.764	80.55
895.935	-77.14
896.106	31.4
896.276	-21.85
896.447	66.22
896.617	17.07
896.788	-50.52
896.958	-58.71
897.129	-23.89
897.299	0.68
897.47	19.11
897.64	49.83
897.81	-1.37
897.981	-27.99
898.151	-3.41
898.322	70.31
898.492	53.93
898.662	33.45
898.832	-34.13
899.003	8.87
899.173	64.17
899.343	-56.66
899.513	-91.48
