Data from USB4F104151__62__11-30-59-159.txt Node

Date: Fri Mar 14 11:30:59 EDT 2025
User: louis
Spectrometer: USB4F10415
Trigger mode: 4
Integration Time (sec): 5.000000E-2
Scans to average: 1
Electric dark correction enabled: true
Nonlinearity correction enabled: false
Boxcar width: 0
XAxis mode: Wavelengths
Number of Pixels in Spectrum: 3648
>>>>>Begin Spectral Data<<<<<
178.204	-171.52
178.424	-171.52
178.644	-171.52
178.864	-187.9
179.084	-230.91
179.304	37.38
179.524	-7.68
179.744	4.61
179.964	31.23
180.184	-36.35
180.404	61.95
180.624	6.66
180.844	4.61
181.064	-11.78
181.283	-60.93
181.503	-54.78
181.723	25.09
181.943	-71.17
182.163	117.25
182.383	-40.45
182.602	66.05
182.822	66.05
183.042	35.33
183.262	41.47
183.482	-52.74
183.701	-54.78
183.921	-30.21
184.141	-81.41
184.361	57.86
184.58	-60.93
184.8	8.7
185.02	-28.16
185.239	70.14
185.459	107.01
185.679	29.18
185.898	-62.98
186.118	49.66
186.338	-9.73
186.557	37.38
186.777	-38.4
186.997	66.05
187.216	-24.06
187.436	76.29
187.655	72.19
187.875	12.8
188.095	0.51
188.314	-65.02
188.534	37.38
188.753	0.51
188.973	18.94
189.192	-3.58
189.412	47.62
189.631	57.86
189.851	-9.73
190.07	139.77
190.29	-11.78
190.509	12.8
190.729	-40.45
190.948	43.52
191.168	201.21
191.387	25.09
191.607	-7.68
191.826	-11.78
192.045	-11.78
192.265	59.9
192.484	49.66
192.704	35.33
192.923	25.09
193.142	82.43
193.362	57.86
193.581	98.81
193.8	98.81
194.02	64
194.239	53.76
194.458	74.24
194.678	-19.97
194.897	66.05
195.116	57.86
195.335	16.9
195.555	6.66
195.774	-32.26
195.993	-1.54
196.212	25.09
196.432	-17.92
196.651	-7.68
196.87	20.99
197.089	107.01
197.308	53.76
197.528	6.66
197.747	-17.92
197.966	-11.78
198.185	90.62
198.404	-108.03
198.623	64
198.842	4.61
199.062	49.66
199.281	12.8
199.5	-24.06
199.719	-65.02
199.938	-32.26
200.157	33.28
200.376	18.94
200.595	68.09
200.814	8.7
201.033	2.56
201.252	-36.35
201.471	59.9
201.69	39.42
201.909	-42.5
202.128	2.56
202.347	49.66
202.566	8.7
202.785	-42.5
203.004	-26.11
203.223	107.01
203.442	25.09
203.661	-40.45
203.879	53.76
204.098	72.19
204.317	-15.87
204.536	-9.73
204.755	-32.26
204.974	41.47
205.193	59.9
205.411	104.96
205.63	82.43
205.849	78.33
206.068	18.94
206.287	25.09
206.505	-15.87
206.724	-24.06
206.943	12.8
207.162	23.04
207.381	53.76
207.599	-58.88
207.818	39.42
208.037	4.61
208.255	41.47
208.474	18.94
208.693	51.71
208.911	14.85
209.13	49.66
209.349	49.66
209.567	37.38
209.786	72.19
210.005	49.66
210.223	-32.26
210.442	-85.5
210.661	61.95
210.879	74.24
211.098	-19.97
211.316	35.33
211.535	45.57
211.753	6.66
211.972	23.04
212.191	-3.58
212.409	-19.97
212.628	-28.16
212.846	-7.68
213.065	74.24
213.283	74.24
213.502	-38.4
213.72	-22.02
213.938	37.38
214.157	0.51
214.375	45.57
214.594	16.9
214.812	72.19
215.031	23.04
215.249	-42.5
215.467	-3.58
215.686	-15.87
215.904	49.66
216.122	-58.88
216.341	-17.92
216.559	18.94
216.778	-30.21
216.996	39.42
217.214	-3.58
217.432	-112.13
217.651	16.9
217.869	57.86
218.087	8.7
218.306	-56.83
218.524	51.71
218.742	-36.35
218.96	14.85
219.179	2.56
219.397	8.7
219.615	82.43
219.833	78.33
220.051	47.62
220.27	51.71
220.488	29.18
220.706	23.04
220.924	39.42
221.142	-71.17
221.36	8.7
221.578	53.76
221.796	113.15
222.015	29.18
222.233	33.28
222.451	18.94
222.669	-1.54
222.887	64
223.105	-42.5
223.323	-54.78
223.541	6.66
223.759	-52.74
223.977	18.94
224.195	-11.78
224.413	23.04
224.631	20.99
224.849	127.49
225.067	94.72
225.285	-9.73
225.503	-9.73
225.721	-81.41
225.939	31.23
226.157	-93.69
226.375	125.44
226.592	-24.06
226.81	-15.87
227.028	82.43
227.246	82.43
227.464	45.57
227.682	66.05
227.9	0.51
228.117	-11.78
228.335	35.33
228.553	4.61
228.771	-9.73
228.989	41.47
229.206	31.23
229.424	-50.69
229.642	37.38
229.86	6.66
230.077	74.24
230.295	12.8
230.513	72.19
230.731	51.71
230.948	39.42
231.166	12.8
231.384	-11.78
231.601	-26.11
231.819	90.62
232.037	31.23
232.254	-42.5
232.472	29.18
232.689	57.86
232.907	12.8
233.125	6.66
233.342	-13.82
233.56	41.47
233.777	-1.54
233.995	-52.74
234.213	23.04
234.43	-46.59
234.648	39.42
234.865	-9.73
235.083	96.77
235.3	-28.16
235.518	37.38
235.735	8.7
235.953	111.1
236.17	55.81
236.388	-15.87
236.605	33.28
236.822	80.38
237.04	-22.02
237.257	78.33
237.475	6.66
237.692	-34.3
237.909	4.61
238.127	-15.87
238.344	37.38
238.562	0.51
238.779	45.57
238.996	-28.16
239.214	29.18
239.431	-11.78
239.648	-73.21
239.865	-67.07
240.083	57.86
240.3	-3.58
240.517	86.53
240.735	25.09
240.952	61.95
241.169	25.09
241.386	64
241.603	-15.87
241.821	-36.35
242.038	37.38
242.255	8.7
242.472	-48.64
242.689	68.09
242.907	64
243.124	-62.98
243.341	14.85
243.558	-1.54
243.775	-17.92
243.992	-7.68
244.209	10.75
244.426	25.09
244.643	25.09
244.86	-24.06
245.078	74.24
245.295	68.09
245.512	-46.59
245.729	10.75
245.946	25.09
246.163	-5.63
246.38	16.9
246.597	23.04
246.814	10.75
247.031	49.66
247.248	-32.26
247.464	-7.68
247.681	14.85
247.898	-48.64
248.115	53.76
248.332	29.18
248.549	-36.35
248.766	113.15
248.983	84.48
249.2	-24.06
249.417	-1.54
249.633	10.75
249.85	43.52
250.067	-44.54
250.284	39.42
250.501	90.62
250.717	64
250.934	-9.73
251.151	49.66
251.368	6.66
251.585	14.85
251.801	4.61
252.018	-26.11
252.235	131.58
252.451	-112.13
252.668	4.61
252.885	61.95
253.102	25.09
253.318	-30.21
253.535	-42.5
253.752	6.66
253.968	64
254.185	-30.21
254.401	53.76
254.618	70.14
254.835	0.51
255.051	68.09
255.268	41.47
255.484	115.2
255.701	68.09
255.917	-5.63
256.134	-40.45
256.351	-50.69
256.567	8.7
256.784	14.85
257	-36.35
257.217	27.14
257.433	27.14
257.65	-7.68
257.866	82.43
258.082	-38.4
258.299	-54.78
258.515	37.38
258.732	-38.4
258.948	-65.02
259.165	0.51
259.381	14.85
259.597	33.28
259.814	57.86
260.03	70.14
260.246	-7.68
260.463	70.14
260.679	31.23
260.895	-15.87
261.112	-22.02
261.328	-9.73
261.544	37.38
261.761	41.47
261.977	27.14
262.193	-56.83
262.409	0.51
262.626	0.51
262.842	86.53
263.058	45.57
263.274	72.19
263.49	49.66
263.707	64
263.923	-24.06
264.139	29.18
264.355	-40.45
264.571	35.33
264.787	51.71
265.004	49.66
265.22	-40.45
265.436	-26.11
265.652	12.8
265.868	49.66
266.084	-9.73
266.3	53.76
266.516	39.42
266.732	-26.11
266.948	57.86
267.164	-54.78
267.38	-1.54
267.596	70.14
267.812	135.68
268.028	0.51
268.244	-17.92
268.46	33.28
268.676	-7.68
268.892	37.38
269.108	-19.97
269.324	27.14
269.54	33.28
269.756	18.94
269.972	-56.83
270.188	0.51
270.403	8.7
270.619	14.85
270.835	25.09
271.051	45.57
271.267	-1.54
271.483	18.94
271.698	45.57
271.914	-11.78
272.13	31.23
272.346	-48.64
272.562	31.23
272.777	66.05
272.993	0.51
273.209	16.9
273.425	0.51
273.64	-36.35
273.856	25.09
274.072	49.66
274.287	23.04
274.503	86.53
274.719	-30.21
274.934	49.66
275.15	-75.26
275.366	-56.83
275.581	-89.6
275.797	14.85
276.012	14.85
276.228	12.8
276.444	53.76
276.659	31.23
276.875	37.38
277.09	4.61
277.306	-1.54
277.521	33.28
277.737	-13.82
277.952	31.23
278.168	-24.06
278.383	4.61
278.599	-58.88
278.814	23.04
279.03	8.7
279.245	115.2
279.461	8.7
279.676	12.8
279.892	-50.69
280.107	-42.5
280.322	2.56
280.538	4.61
280.753	8.7
280.969	-15.87
281.184	6.66
281.399	51.71
281.615	20.99
281.83	72.19
282.045	-32.26
282.26	-5.63
282.476	-15.87
282.691	-13.82
282.906	10.75
283.122	-26.11
283.337	23.04
283.552	41.47
283.767	61.95
283.983	-52.74
284.198	41.47
284.413	45.57
284.628	-32.26
284.843	25.09
285.058	98.81
285.274	25.09
285.489	-48.64
285.704	74.24
285.919	-28.16
286.134	-99.84
286.349	53.76
286.564	-3.58
286.779	88.57
286.995	10.75
287.21	-69.12
287.425	16.9
287.64	-36.35
287.855	-7.68
288.07	-44.54
288.285	86.53
288.5	70.14
288.715	39.42
288.93	-7.68
289.145	-13.82
289.36	-19.97
289.575	47.62
289.79	33.28
290.004	39.42
290.219	64
290.434	-15.87
290.649	-22.02
290.864	12.8
291.079	10.75
291.294	41.47
291.509	66.05
291.724	-1.54
291.938	57.86
292.153	109.05
292.368	20.99
292.583	12.8
292.798	8.7
293.012	10.75
293.227	64
293.442	59.9
293.657	-56.83
293.871	27.14
294.086	0.51
294.301	82.43
294.516	49.66
294.73	10.75
294.945	-110.08
295.16	53.76
295.374	84.48
295.589	2.56
295.804	-42.5
296.018	10.75
296.233	23.04
296.447	37.38
296.662	-56.83
296.877	-24.06
297.091	64
297.306	0.51
297.52	23.04
297.735	53.76
297.949	12.8
298.164	39.42
298.378	-34.3
298.593	6.66
298.807	-24.06
299.022	-15.87
299.236	33.28
299.451	-19.97
299.665	-15.87
299.88	-44.54
300.094	-32.26
300.309	33.28
300.523	107.01
300.737	29.18
300.952	-7.68
301.166	47.62
301.381	-28.16
301.595	-3.58
301.809	-40.45
302.024	-42.5
302.238	12.8
302.452	8.7
302.667	0.51
302.881	80.38
303.095	6.66
303.309	45.57
303.524	45.57
303.738	29.18
303.952	-114.17
304.166	16.9
304.381	-65.02
304.595	29.18
304.809	27.14
305.023	12.8
305.237	12.8
305.452	0.51
305.666	-58.88
305.88	-77.31
306.094	37.38
306.308	0.51
306.522	16.9
306.736	-3.58
306.95	31.23
307.164	43.52
307.379	4.61
307.593	57.86
307.807	37.38
308.021	12.8
308.235	-24.06
308.449	31.23
308.663	90.62
308.877	121.34
309.091	47.62
309.305	8.7
309.519	-56.83
309.733	29.18
309.947	-11.78
310.161	8.7
310.374	68.09
310.588	61.95
310.802	-9.73
311.016	0.51
311.23	18.94
311.444	-15.87
311.658	-22.02
311.872	66.05
312.085	41.47
312.299	117.25
312.513	49.66
312.727	49.66
312.941	-69.12
313.154	14.85
313.368	18.94
313.582	37.38
313.796	41.47
314.009	57.86
314.223	33.28
314.437	25.09
314.651	-1.54
314.864	25.09
315.078	31.23
315.292	-13.82
315.505	-24.06
315.719	4.61
315.933	16.9
316.146	14.85
316.36	23.04
316.573	47.62
316.787	-3.58
317.001	59.9
317.214	-30.21
317.428	10.75
317.641	6.66
317.855	0.51
318.068	6.66
318.282	-28.16
318.495	119.29
318.709	98.81
318.922	-60.93
319.136	86.53
319.349	-36.35
319.563	31.23
319.776	33.28
319.99	45.57
320.203	66.05
320.417	-48.64
320.63	90.62
320.843	104.96
321.057	47.62
321.27	45.57
321.483	-42.5
321.697	51.71
321.91	107.01
322.124	16.9
322.337	109.05
322.55	8.7
322.763	31.23
322.977	-11.78
323.19	6.66
323.403	49.66
323.617	41.47
323.83	43.52
324.043	8.7
324.256	-67.07
324.469	-32.26
324.683	29.18
324.896	29.18
325.109	-36.35
325.322	-22.02
325.535	-36.35
325.748	27.14
325.962	-3.58
326.175	-58.88
326.388	-7.68
326.601	-19.97
326.814	-19.97
327.027	53.76
327.24	78.33
327.453	-75.26
327.666	-24.06
327.879	102.91
328.092	33.28
328.305	-30.21
328.518	72.19
328.731	-3.58
328.944	33.28
329.157	-40.45
329.37	-3.58
329.583	102.91
329.796	61.95
330.009	-50.69
330.222	-7.68
330.435	64
330.648	49.66
330.861	8.7
331.073	70.14
331.286	64
331.499	-3.58
331.712	-60.93
331.925	37.38
332.138	18.94
332.35	16.9
332.563	-44.54
332.776	31.23
332.989	12.8
333.202	47.62
333.414	-24.06
333.627	72.19
333.84	27.14
334.053	66.05
334.265	96.77
334.478	51.71
334.691	-13.82
334.903	-44.54
335.116	49.66
335.329	66.05
335.541	25.09
335.754	90.62
335.966	-26.11
336.179	86.53
336.392	16.9
336.604	-26.11
336.817	27.14
337.029	37.38
337.242	14.85
337.454	37.38
337.667	53.76
337.88	23.04
338.092	-19.97
338.305	57.86
338.517	8.7
338.729	90.62
338.942	29.18
339.154	-95.74
339.367	-42.5
339.579	41.47
339.792	-7.68
340.004	23.04
340.217	10.75
340.429	57.86
340.641	-69.12
340.854	23.04
341.066	4.61
341.278	64
341.491	90.62
341.703	-42.5
341.915	16.9
342.128	-7.68
342.34	16.9
342.552	0.51
342.764	25.09
342.977	49.66
343.189	-15.87
343.401	-24.06
343.613	-26.11
343.826	47.62
344.038	-34.3
344.25	16.9
344.462	74.24
344.674	16.9
344.886	-44.54
345.099	59.9
345.311	-11.78
345.523	-48.64
345.735	-5.63
345.947	90.62
346.159	4.61
346.371	45.57
346.583	53.76
346.795	90.62
347.007	2.56
347.219	-19.97
347.431	-89.6
347.643	145.92
347.855	-42.5
348.067	12.8
348.279	-1.54
348.491	29.18
348.703	2.56
348.915	66.05
349.127	-71.17
349.339	29.18
349.551	-26.11
349.763	12.8
349.975	20.99
350.187	74.24
350.399	41.47
350.61	61.95
350.822	-50.69
351.034	94.72
351.246	49.66
351.458	12.8
351.669	45.57
351.881	66.05
352.093	117.25
352.305	14.85
352.517	49.66
352.728	90.62
352.94	20.99
353.152	-7.68
353.363	-30.21
353.575	74.24
353.787	119.29
353.999	70.14
354.21	57.86
354.422	57.86
354.633	-46.59
354.845	0.51
355.057	16.9
355.268	12.8
355.48	25.09
355.692	-30.21
355.903	-75.26
356.115	-1.54
356.326	-24.06
356.538	29.18
356.749	72.19
356.961	2.56
357.172	53.76
357.384	-54.78
357.595	90.62
357.807	16.9
358.018	-69.12
358.23	31.23
358.441	49.66
358.653	23.04
358.864	41.47
359.075	-7.68
359.287	45.57
359.498	55.81
359.709	74.24
359.921	49.66
360.132	82.43
360.344	100.86
360.555	-42.5
360.766	-9.73
360.977	39.42
361.189	70.14
361.4	39.42
361.611	61.95
361.823	27.14
362.034	-9.73
362.245	45.57
362.456	90.62
362.667	49.66
362.879	-26.11
363.09	12.8
363.301	119.29
363.512	20.99
363.723	59.9
363.935	-32.26
364.146	25.09
364.357	0.51
364.568	20.99
364.779	33.28
364.99	125.44
365.201	53.76
365.412	25.09
365.623	-19.97
365.834	51.71
366.045	12.8
366.256	70.14
366.467	25.09
366.678	-13.82
366.889	66.05
367.1	8.7
367.311	-46.59
367.522	-81.41
367.733	41.47
367.944	33.28
368.155	23.04
368.366	55.81
368.577	78.33
368.788	90.62
368.999	18.94
369.209	-11.78
369.42	82.43
369.631	115.2
369.842	55.81
370.053	-36.35
370.264	6.66
370.474	-52.74
370.685	41.47
370.896	0.51
371.107	135.68
371.317	20.99
371.528	-9.73
371.739	25.09
371.95	35.33
372.16	6.66
372.371	-34.3
372.582	0.51
372.792	115.2
373.003	27.14
373.214	-34.3
373.424	74.24
373.635	47.62
373.846	72.19
374.056	39.42
374.267	61.95
374.477	100.86
374.688	70.14
374.898	14.85
375.109	70.14
375.319	-17.92
375.53	84.48
375.74	0.51
375.951	-3.58
376.161	39.42
376.372	29.18
376.582	-48.64
376.793	94.72
377.003	-22.02
377.214	-36.35
377.424	66.05
377.635	16.9
377.845	-5.63
378.055	16.9
378.266	-48.64
378.476	72.19
378.686	55.81
378.897	8.7
379.107	43.52
379.317	72.19
379.528	8.7
379.738	45.57
379.948	-93.69
380.158	31.23
380.369	-26.11
380.579	33.28
380.789	29.18
380.999	39.42
381.21	70.14
381.42	80.38
381.63	72.19
381.84	61.95
382.05	47.62
382.261	18.94
382.471	57.86
382.681	2.56
382.891	61.95
383.101	90.62
383.311	2.56
383.521	-17.92
383.731	111.1
383.941	57.86
384.151	-71.17
384.361	29.18
384.571	31.23
384.781	12.8
384.991	84.48
385.201	70.14
385.411	-17.92
385.621	59.9
385.831	41.47
386.041	12.8
386.251	31.23
386.461	55.81
386.671	12.8
386.881	64
387.091	74.24
387.301	66.05
387.511	-3.58
387.72	53.76
387.93	82.43
388.14	16.9
388.35	-9.73
388.56	70.14
388.769	55.81
388.979	100.86
389.189	16.9
389.399	-11.78
389.609	-7.68
389.818	68.09
390.028	-3.58
390.238	16.9
390.447	49.66
390.657	39.42
390.867	25.09
391.076	-9.73
391.286	94.72
391.496	41.47
391.705	12.8
391.915	80.38
392.125	41.47
392.334	8.7
392.544	64
392.753	82.43
392.963	-11.78
393.172	4.61
393.382	18.94
393.591	33.28
393.801	57.86
394.01	92.67
394.22	150.01
394.429	78.33
394.639	25.09
394.848	25.09
395.058	0.51
395.267	0.51
395.477	119.29
395.686	98.81
395.895	115.2
396.105	139.77
396.314	113.15
396.524	72.19
396.733	82.43
396.942	90.62
397.152	64
397.361	64
397.57	90.62
397.78	39.42
397.989	139.77
398.198	90.62
398.407	20.99
398.617	4.61
398.826	49.66
399.035	90.62
399.244	139.77
399.453	84.48
399.663	127.49
399.872	72.19
400.081	74.24
400.29	174.59
400.499	-15.87
400.708	102.91
400.917	-26.11
401.127	104.96
401.336	64
401.545	121.34
401.754	102.91
401.963	111.1
402.172	55.81
402.381	57.86
402.59	55.81
402.799	80.38
403.008	-9.73
403.217	107.01
403.426	102.91
403.635	92.67
403.844	82.43
404.053	107.01
404.262	107.01
404.471	129.53
404.68	74.24
404.888	152.06
405.097	94.72
405.306	143.87
405.515	223.74
405.724	119.29
405.933	168.45
406.142	147.97
406.35	74.24
406.559	104.96
406.768	55.81
406.977	197.12
407.185	135.68
407.394	123.39
407.603	193.02
407.812	145.92
408.02	264.7
408.229	211.45
408.438	111.1
408.646	160.25
408.855	205.31
409.064	215.55
409.272	254.46
409.481	252.41
409.69	225.79
409.898	160.25
410.107	209.4
410.315	229.88
410.524	201.21
410.733	285.18
410.941	258.56
411.15	250.36
411.358	360.95
411.567	336.38
411.775	356.86
411.984	295.42
412.192	324.09
412.401	317.95
412.609	352.76
412.818	326.14
413.026	307.71
413.234	391.67
413.443	397.82
413.651	389.63
413.86	461.3
414.068	406.01
414.276	524.79
414.485	383.48
414.693	551.42
414.901	578.04
415.11	588.28
415.318	459.26
415.526	541.18
415.734	584.18
415.943	727.54
416.151	655.86
416.359	705.01
416.567	723.44
416.776	705.01
416.984	803.32
417.192	817.65
417.4	688.63
417.608	727.54
417.817	743.92
418.025	795.12
418.233	860.66
418.441	821.75
418.649	827.89
418.857	977.39
419.065	967.15
419.273	926.19
419.481	1055.22
419.689	1090.03
419.897	1157.61
420.105	1057.26
420.313	1137.13
420.521	1190.38
420.729	1294.83
420.937	1276.4
421.145	1356.27
421.353	1376.75
421.561	1503.72
421.769	1554.92
421.977	1563.11
422.185	1548.78
422.393	1571.3
422.601	1765.86
422.809	1726.95
423.017	1810.92
423.224	1778.15
423.432	1872.36
423.64	1954.27
423.848	2114.02
424.056	1976.8
424.263	2261.47
424.471	2105.82
424.679	2306.52
424.887	2415.07
425.094	2499.03
425.302	2376.16
425.51	2570.71
425.718	2464.22
425.925	2640.34
426.133	2621.91
426.341	2857.43
426.548	2922.96
426.756	2982.35
426.964	3037.65
427.171	3193.3
427.379	3301.84
427.586	3215.82
427.794	3525.07
428.001	3563.98
428.209	3733.96
428.417	3766.73
428.624	3998.15
428.832	3940.8
429.039	3862.98
429.247	4004.29
429.454	4223.42
429.662	4553.15
429.869	4282.81
430.076	4577.72
430.284	4456.89
430.491	4702.65
430.699	4985.27
430.906	4927.92
431.114	5050.8
431.321	5120.43
431.528	5280.18
431.736	5683.63
431.943	5958.05
432.15	5659.05
432.358	5771.69
432.565	5990.82
432.772	5990.82
432.979	6494.62
433.187	6484.38
433.394	6521.24
433.601	7008.66
433.808	7029.14
434.016	6855.06
434.223	7207.31
434.43	7573.9
434.637	7604.62
434.844	8102.28
435.052	8145.28
435.259	7979.4
435.466	8159.62
435.673	8038.79
435.88	8569.21
436.087	9138.55
436.294	9156.98
436.501	8808.83
436.708	9161.08
436.915	9367.92
437.122	10062.18
437.329	9785.71
437.537	10105.19
437.743	10142.05
437.95	10035.56
438.157	10643.81
438.364	11161.94
438.571	10994.01
438.778	11268.44
438.985	12030.28
439.192	11632.97
439.399	11931.98
439.606	11868.49
439.813	12443.97
440.02	13095.22
440.227	13127.99
440.433	12927.29
440.64	13349.17
440.847	13158.71
441.054	13340.98
441.261	14237.99
441.467	14420.26
441.674	14633.25
441.881	14850.33
442.088	14940.44
442.294	14704.93
442.501	15444.24
442.708	15560.98
442.914	16144.65
443.121	16918.78
443.328	16388.36
443.534	17608.95
443.741	17135.87
443.948	16740.61
444.154	18000.11
444.361	17953.01
444.568	18247.91
444.774	18016.49
444.981	18305.26
445.187	18759.91
445.394	19497.17
445.6	19036.38
445.807	21588.15
446.013	20101.33
446.22	20666.56
446.426	21504.18
446.633	21577.91
446.839	22335.66
447.046	21432.5
447.252	22343.85
447.459	22786.21
447.665	22827.17
447.871	23607.45
448.078	24465.55
448.284	23210.14
448.491	23939.22
448.697	25135.23
448.903	25243.77
449.11	25241.73
449.316	25053.31
449.522	25522.3
449.728	26024.05
449.935	26425.45
450.141	26347.63
450.347	27060.32
450.553	26093.68
450.76	26734.7
450.966	27322.46
451.172	27021.41
451.378	27492.44
451.584	26968.16
451.791	27531.36
451.997	27523.16
452.203	27977.81
452.409	28127.31
452.615	27715.67
452.821	26669.16
453.027	26490.99
453.233	27994.2
453.44	26757.22
453.646	26964.07
453.852	27017.32
454.058	27648.09
454.264	26712.17
454.47	27234.4
454.676	26589.29
454.882	27336.8
455.088	25235.58
455.294	25931.89
455.5	25794.68
455.705	26148.98
455.911	25030.79
456.117	24713.35
456.323	24275.09
456.529	22919.33
456.735	24215.69
456.941	23212.19
457.147	23199.9
457.352	22292.65
457.558	22001.84
457.764	21909.68
457.97	21508.28
458.176	20912.32
458.381	20895.94
458.587	20058.32
458.793	20052.17
458.999	18817.25
459.204	20392.14
459.41	19845.33
459.616	18432.23
459.821	18458.85
460.027	18106.6
460.233	17844.46
460.438	17035.52
460.644	17033.47
460.85	16341.25
461.055	16032.01
461.261	16259.34
461.466	15048.99
461.672	14532.9
461.878	15401.24
462.083	14682.4
462.289	14213.42
462.494	14133.54
462.7	13191.48
462.905	13078.84
463.111	13535.54
463.316	13525.3
463.522	13254.97
463.727	13576.5
463.932	13365.56
464.138	13140.28
464.343	13185.33
464.549	12900.67
464.754	13367.6
464.959	13216.05
465.165	13001.02
465.37	12523.84
465.575	12329.28
465.781	12722.49
465.986	12822.84
466.191	12192.07
466.397	12095.82
466.602	11583.82
466.807	12106.06
467.012	11841.87
467.218	11800.91
467.423	11782.48
467.628	11776.33
467.833	12171.59
468.038	11899.21
468.244	11395.41
468.449	12024.14
468.654	11698.51
468.859	11575.63
469.064	11436.37
469.269	10830.17
469.474	10944.86
469.679	11483.47
469.885	10918.23
470.09	11161.94
470.295	10965.34
470.5	10510.69
470.705	10879.32
470.91	10459.49
471.115	10488.16
471.32	10596.7
471.525	10357.09
471.73	10309.99
471.935	10142.05
472.139	9865.58
472.344	10008.94
472.549	9988.46
472.754	9822.57
472.959	9658.73
473.164	9480.56
473.369	9320.82
473.574	9744.75
473.778	9582.96
473.983	9333.11
474.188	9322.87
474.393	8925.56
474.598	9103.73
474.802	8784.25
475.007	8886.65
475.212	8898.94
475.417	8616.32
475.621	8397.18
475.826	8468.86
476.031	8419.71
476.235	8122.76
476.44	8538.49
476.645	8075.65
476.849	8315.27
477.054	8212.87
477.259	7995.78
477.463	8079.75
477.668	7895.43
477.872	7856.52
478.077	7719.31
478.282	7653.77
478.486	7567.76
478.691	7567.76
478.895	7438.73
479.1	7371.15
479.304	7539.08
479.509	7266.71
479.713	7520.65
479.918	7190.93
480.122	7170.45
480.326	7362.96
480.531	7162.26
480.735	7057.81
480.94	7033.24
481.144	7158.16
481.348	6824.34
481.553	7119.25
481.757	6853.02
481.961	6857.11
482.166	7049.62
482.37	6936.98
482.574	6850.97
482.778	6750.62
482.983	7061.91
483.187	6977.94
483.391	6904.21
483.595	6689.18
483.8	6732.19
484.004	6924.69
484.208	6986.13
484.412	6912.41
484.616	6846.87
484.821	6824.34
485.025	6787.48
485.229	6836.63
485.433	6893.97
485.637	6959.51
485.841	6758.81
486.045	6943.13
486.249	6959.51
486.453	6853.02
486.657	6838.68
486.861	6719.9
487.065	6760.86
487.269	6924.69
487.473	6775.19
487.677	6965.65
487.881	6982.04
488.085	6953.37
488.289	6955.41
488.493	6834.58
488.697	6979.99
488.901	6906.26
489.105	6863.26
489.309	6822.3
489.512	7014.8
489.716	6896.02
489.92	6986.13
490.124	6975.89
490.328	6998.42
490.531	7041.43
490.735	7215.51
490.939	6984.09
491.143	6977.94
491.346	7016.85
491.55	7149.97
491.754	7045.52
491.958	7102.87
492.161	7330.19
492.365	7246.23
492.569	7307.66
492.772	7213.46
492.976	7258.51
493.18	7172.5
493.383	7434.64
493.587	7561.61
493.79	7471.5
493.994	7487.89
494.197	7592.33
494.401	7453.07
494.605	7612.81
494.808	7756.17
495.012	7842.18
495.215	7725.45
495.419	7995.78
495.622	7807.37
495.825	7889.29
496.029	8024.45
496.232	8067.46
496.436	8057.22
496.639	8348.03
496.843	8180.1
497.046	8370.56
497.249	8524.16
497.453	8421.76
497.656	8714.62
497.859	8593.79
498.063	8728.95
498.266	8929.66
498.469	8821.11
498.673	9011.57
498.876	9085.3
499.079	9404.78
499.282	9183.6
499.485	9410.93
499.689	9384.3
499.892	9462.13
500.095	9779.56
500.298	9890.15
500.501	9607.53
500.705	10152.29
500.908	10211.68
501.111	10187.11
501.314	10285.41
501.517	10469.73
501.72	10596.7
501.923	10559.84
502.126	10836.31
502.329	10975.58
502.532	11010.39
502.735	11270.48
502.938	11268.44
503.141	11381.07
503.344	11860.3
503.547	11573.58
503.75	11903.31
503.953	11974.99
504.156	12120.39
504.359	12116.3
504.562	12278.08
504.765	12558.66
504.968	12595.52
505.17	12564.8
505.373	12677.44
505.576	12968.25
505.779	13052.22
505.982	12886.33
506.185	13338.93
506.387	13263.16
506.59	13361.46
506.793	13705.52
506.996	13791.53
507.198	14328.1
507.401	13977.9
507.604	14250.28
507.807	14467.36
508.009	14639.39
508.212	14590.24
508.415	14850.33
508.617	14995.74
508.82	15053.08
509.022	15139.1
509.225	15397.14
509.428	15730.96
509.63	15843.6
509.833	15970.57
510.035	16253.19
510.238	16064.78
510.44	16392.45
510.643	16406.79
510.845	16810.24
511.048	16675.07
511.25	17062.14
511.453	16939.26
511.655	17697.01
511.858	17836.27
512.06	17846.51
512.262	18045.16
512.465	18000.11
512.667	18182.38
512.87	18317.54
513.072	18389.22
513.274	18796.77
513.477	18872.54
513.679	18950.37
513.881	19218.65
514.084	19863.76
514.286	19685.59
514.488	19744.98
514.69	20209.87
514.893	20482.25
515.095	20349.13
515.297	20668.61
515.499	20631.75
515.701	20918.46
515.904	21258.43
516.106	21561.53
516.308	21254.33
516.51	21784.76
516.712	21778.61
516.914	22329.52
517.116	22718.63
517.318	22507.69
517.52	23068.83
517.722	22993.06
517.925	23533.72
518.127	23500.95
518.329	23683.22
518.531	23738.52
518.733	24260.75
518.935	24295.57
519.136	24578.18
519.338	24957.06
519.54	25217.15
519.742	25550.97
519.944	25430.14
520.146	25442.43
520.348	26019.95
520.55	26505.32
520.752	26433.64
520.954	26986.6
521.155	26525.8
521.357	27275.36
521.559	27437.15
521.761	27846.74
521.963	27723.86
522.164	28524.62
522.366	28450.89
522.568	28416.08
522.77	28753.99
522.971	29206.59
523.173	28799.05
523.375	29642.81
523.576	29734.97
523.778	29538.37
523.98	30283.83
524.181	30076.98
524.383	30341.17
524.584	30705.71
524.786	30984.23
524.988	30896.17
525.189	31432.74
525.391	31649.82
525.592	31883.29
525.794	31879.19
525.995	31918.1
526.197	32589.84
526.398	32462.86
526.6	32706.57
526.801	33085.45
527.003	33124.36
527.204	33259.52
527.406	33484.8
527.607	33748.99
527.808	33689.6
528.01	33501.18
528.211	34154.49
528.412	34764.78
528.614	34643.95
528.815	34625.52
529.016	35076.07
529.218	34674.67
529.419	34781.17
529.62	35096.55
529.822	35133.42
530.023	35405.8
530.224	35543.01
530.425	35547.11
530.626	35268.58
530.828	35358.69
531.029	36155.35
531.23	36032.47
531.431	36190.17
531.632	36061.15
531.833	36536.27
532.035	36239.32
532.236	36782.03
532.437	36900.81
532.638	36341.72
532.839	36909
533.04	36923.34
533.241	36575.19
533.442	37744.58
533.643	36954.06
533.844	37212.1
534.045	37244.87
534.246	36984.78
534.447	37545.92
534.648	37165
534.849	37134.28
535.05	36958.16
535.251	37533.64
535.451	37357.51
535.652	37418.95
535.853	37427.14
536.054	37513.16
536.255	37488.58
536.456	37375.94
536.657	38512.56
536.857	37693.38
537.058	37820.35
537.259	37953.47
537.46	37932.99
537.66	37445.57
537.861	37783.49
538.062	37672.9
538.263	37629.89
538.463	37754.82
538.664	37930.94
538.865	37728.19
539.065	37842.88
539.266	37849.02
539.466	38725.55
539.667	37648.32
539.868	38453.17
540.068	37793.73
540.269	37599.17
540.469	38330.3
540.67	37822.4
540.87	38004.67
541.071	38207.42
541.271	38100.92
541.472	37939.13
541.672	38049.72
541.873	37902.27
542.073	37154.76
542.274	38158.27
542.474	37930.94
542.675	37810.11
542.875	38156.22
543.075	37994.43
543.276	37756.86
543.476	38019
543.676	37984.19
543.877	38049.72
544.077	37705.66
544.277	37793.73
544.478	37883.84
544.678	37857.21
544.878	37978.04
545.078	37832.64
545.279	37636.03
545.479	37715.9
545.679	38039.48
545.879	37904.32
546.079	37959.61
546.28	38008.76
546.48	37271.5
546.68	37961.66
546.88	38107.07
547.08	37902.27
547.28	38029.24
547.48	37144.52
547.68	38287.29
547.88	37418.95
548.081	38191.03
548.281	38041.53
548.481	37818.3
548.681	38164.41
548.881	38078.39
549.081	38045.63
549.28	37529.54
549.48	38385.59
549.68	37957.56
549.88	38356.92
550.08	38100.92
550.28	37769.15
550.48	37826.49
550.68	38014.91
550.88	37756.86
551.08	38066.11
551.279	37740.48
551.479	37361.61
551.679	38234.04
551.879	38037.44
552.079	37951.42
552.278	37480.39
552.478	37488.58
552.678	37390.28
552.878	38033.34
553.077	37527.49
553.277	37457.86
553.477	37924.8
553.676	37695.42
553.876	37560.26
554.076	37423.04
554.275	37652.42
554.475	37001.16
554.674	37418.95
554.874	37398.47
555.074	37087.18
555.273	37121.99
555.473	37185.48
555.672	37318.6
555.872	37111.75
556.071	36698.06
556.271	37085.13
556.47	36958.16
556.67	36538.32
556.869	36677.58
557.068	36933.58
557.268	36337.62
557.467	36902.86
557.667	36802.51
557.866	36304.85
558.065	36333.53
558.265	36349.91
558.464	36194.26
558.663	36628.43
558.863	36169.69
559.062	36448.21
559.261	36014.04
559.461	36165.59
559.66	35946.46
559.859	35618.78
560.058	35510.24
560.258	35694.56
560.457	35248.1
560.656	35708.9
560.855	35448.8
561.054	35284.97
561.253	35004.39
561.453	35172.33
561.652	34863.08
561.851	35012.59
562.05	34938.86
562.249	34867.18
562.448	34639.86
562.647	34654.19
562.846	34770.93
563.045	34484.21
563.244	33974.27
563.443	34488.31
563.642	34252.79
563.841	33888.25
564.04	33697.79
564.239	34134.01
564.438	33329.16
564.637	33673.21
564.836	33548.29
565.035	33216.52
565.234	33390.59
565.432	32772.11
565.631	33067.02
565.83	33228.8
566.029	32727.05
566.228	32843.79
566.427	32534.54
566.625	32213.01
566.824	32098.33
567.023	32477.2
567.222	31856.67
567.42	31963.16
567.619	32055.32
567.818	31811.61
568.016	31684.64
568.215	31954.97
568.414	31608.86
568.612	31572
568.811	31184.93
569.01	30953.51
569.208	30607.4
569.407	30978.09
569.605	30345.26
569.804	31008.81
570.002	30496.81
570.201	30447.66
570.4	30140.47
570.598	30093.36
570.797	30097.46
570.995	30119.99
571.193	29644.86
571.392	29657.15
571.59	29261.89
571.789	29343.81
571.987	29354.05
572.186	29438.01
572.384	28999.75
572.582	29311.04
572.781	29169.73
572.979	28332.11
573.177	28710.99
573.376	28680.27
573.574	28244.05
573.772	28782.66
573.971	28416.08
574.169	28366.93
574.367	27996.24
574.565	28133.46
574.763	28059.73
574.962	27760.73
575.16	27543.64
575.358	27367.52
575.556	27023.46
575.754	27701.34
575.952	26962.02
576.151	27144.29
576.349	26902.63
576.547	26808.42
576.745	27088.99
576.943	26921.06
577.141	26546.28
577.339	26775.66
577.537	26280.05
577.735	26396.78
577.933	26165.36
578.131	26349.68
578.329	26062.96
578.527	25745.53
578.725	26214.51
578.923	26058.87
579.121	25983.09
579.319	25505.91
579.516	25555.07
579.714	25479.29
579.912	25325.69
580.11	25286.78
580.308	25477.24
580.506	25133.18
580.704	24653.96
580.901	24977.54
581.099	25194.62
581.297	24844.42
581.495	24651.91
581.692	24637.58
581.89	24357
582.088	24744.07
582.285	24488.07
582.483	24619.14
582.681	24324.24
582.878	24275.09
583.076	23836.82
583.274	24443.02
583.471	23650.46
583.669	23834.77
583.866	23771.29
584.064	23820.44
584.262	23849.11
584.459	23969.94
584.657	23691.41
584.854	23869.59
585.052	23193.76
585.249	23601.3
585.447	23597.21
585.644	22980.77
585.841	23167.13
586.039	23263.39
586.236	23072.93
586.434	22880.42
586.631	22569.13
586.828	22605.99
587.026	22743.2
587.223	22679.72
587.42	22409.39
587.618	22657.19
587.815	22202.54
588.012	22427.82
588.21	22313.13
588.407	22438.06
588.604	22352.04
588.801	22059.18
588.999	21913.78
589.196	21749.94
589.393	21743.8
589.59	21739.7
589.787	21784.76
589.984	21813.43
590.182	21366.97
590.379	21618.87
590.576	21301.43
590.773	21340.35
590.97	21233.85
591.167	21459.13
591.364	20928.7
591.561	21250.24
591.758	20758.72
591.955	20889.79
592.152	21364.92
592.349	21029.06
592.546	20861.12
592.743	20625.61
592.94	20238.54
593.137	20728
593.334	20670.66
593.531	20316.36
593.727	20572.36
593.924	20412.62
594.121	20177.1
594.318	20273.35
594.515	20000.97
594.712	20267.21
594.908	20191.44
595.105	19980.5
595.302	19990.73
595.499	20211.92
595.696	19661.01
595.892	19845.33
596.089	19642.58
596.286	19527.89
596.482	19581.14
596.679	19636.44
596.876	19736.79
597.072	19400.92
597.269	19257.56
597.466	19206.36
597.662	19437.78
597.859	18933.98
598.055	19149.02
598.252	19028.19
598.448	18880.74
598.645	19030.24
598.841	18796.77
599.038	18798.82
599.234	18923.74
599.431	18319.59
599.627	18477.29
599.824	18491.62
600.02	18368.74
600.217	18264.3
600.413	17961.2
600.609	18383.08
600.806	18372.84
601.002	18282.73
601.198	18297.06
601.395	18106.6
601.591	18051.31
601.787	18235.63
601.984	17920.24
602.18	18213.1
602.376	17635.57
602.572	17471.73
602.769	17461.49
602.965	17416.44
603.161	17658.1
603.357	17320.18
603.553	17244.41
603.75	17467.64
603.946	17309.94
604.142	17127.67
604.338	17244.41
604.534	17279.22
604.73	17080.57
604.926	16840.96
605.122	16951.55
605.318	16832.77
605.514	16949.5
605.71	16621.83
605.906	16836.86
606.102	16773.38
606.298	16875.77
606.494	16668.93
606.69	16687.36
606.886	16636.16
607.082	16091.4
607.278	16517.38
607.474	16253.19
607.67	16539.91
607.866	16175.37
608.062	16353.54
608.257	16134.41
608.453	16130.31
608.649	15962.38
608.845	15782.16
609.041	15958.28
609.236	16138.51
609.432	15784.21
609.628	15956.24
609.824	15882.51
610.019	15724.82
610.215	15896.85
610.411	15753.49
610.606	15450.39
610.802	15745.3
610.998	15548.69
611.193	15563.03
611.389	15612.18
611.584	15483.16
611.78	15292.69
611.976	15501.59
612.171	15272.21
612.367	15221.02
612.562	15292.69
612.758	15161.62
612.953	14989.6
613.149	15173.91
613.344	15120.67
613.539	15337.75
613.735	15114.52
613.93	15370.52
614.126	14932.25
614.321	15130.91
614.517	15106.33
614.712	14729.5
614.907	14795.04
615.103	14833.95
615.298	14827.81
615.493	14731.55
615.688	14174.5
615.884	14887.2
616.079	14614.82
616.274	14672.16
616.47	14862.62
616.665	14547.23
616.86	14872.86
617.055	14623.01
617.25	14668.06
617.445	14496.03
617.641	14162.22
617.836	14448.93
618.031	14119.21
618.226	14362.92
618.421	14135.59
618.616	14407.97
618.811	13777.2
619.006	14246.18
619.201	13779.25
619.396	14215.46
619.591	13635.89
619.786	13891.88
619.981	13615.41
620.176	13846.83
620.371	13494.58
620.566	13625.65
620.761	13566.26
620.956	13660.46
621.151	13416.76
621.346	13631.79
621.541	13168.95
621.735	13173.05
621.93	13326.64
622.125	13183.29
622.32	12927.29
622.515	13078.84
622.709	12882.24
622.904	12886.33
623.099	12693.82
623.294	12783.93
623.488	12581.18
623.683	12734.78
623.878	12454.21
624.072	12564.8
624.267	12435.78
624.462	12190.02
624.656	12187.97
624.851	12198.21
625.046	11981.13
625.24	12104.01
625.435	11991.37
625.629	11989.32
625.824	11960.65
626.018	11708.75
626.213	11512.14
626.407	11860.3
626.602	11551.06
626.796	11518.29
626.991	11643.21
627.185	11522.38
627.38	11503.95
627.574	11221.33
627.768	11043.16
627.963	11374.93
628.157	11002.2
628.352	11272.53
628.546	10787.16
628.74	11125.08
628.935	10699.1
629.129	10725.72
629.323	10803.55
629.517	10778.97
629.712	10717.53
629.906	10652
630.1	10557.79
630.294	10553.69
630.489	10260.84
630.683	10631.52
630.877	10260.84
631.071	10240.36
631.265	10441.06
631.459	10338.66
631.653	10068.33
631.848	9994.6
632.042	9896.3
632.236	10017.13
632.43	9978.22
632.624	9773.42
632.818	9785.71
633.012	9818.47
633.206	9763.18
633.4	9582.96
633.594	9542
633.788	9619.82
633.982	9685.36
634.176	9533.81
634.369	9617.77
634.563	9458.03
634.757	9304.43
634.951	9331.06
635.145	9261.43
635.339	9218.42
635.533	9247.09
635.726	9240.95
635.92	9058.68
636.114	8921.46
636.308	8880.5
636.501	8991.09
636.695	8913.27
636.889	8796.54
637.083	8743.29
637.276	8706.43
637.47	8667.52
637.664	8540.54
637.857	8515.97
638.051	8743.29
638.244	8417.66
638.438	8548.73
638.632	8364.42
638.825	8366.46
639.019	8341.89
639.212	8046.98
639.406	8247.68
639.599	8143.24
639.793	8196.48
639.986	8194.43
640.18	8001.93
640.373	7840.14
640.567	7891.34
640.76	7979.4
640.954	7805.32
641.147	7770.51
641.34	7582.09
641.534	7772.55
641.727	7774.6
641.92	7666.06
642.114	7612.81
642.307	7575.95
642.5	7643.53
642.694	7561.61
642.887	7346.58
643.08	7616.91
643.273	7352.72
643.467	7266.71
643.66	7332.24
643.853	7496.08
644.046	7221.65
644.239	7123.35
644.432	7027.09
644.626	7096.72
644.819	7111.06
645.012	7133.59
645.205	7068.05
645.398	7000.47
645.591	6979.99
645.784	6951.32
645.977	6998.42
646.17	6775.19
646.363	6746.52
646.556	6586.78
646.749	6488.48
646.942	6652.31
647.135	6558.11
647.328	6504.86
647.521	6476.19
647.714	6525.34
647.907	6687.13
648.099	6490.52
648.292	6709.66
648.485	6396.32
648.678	6257.06
648.871	6365.6
649.064	6132.13
649.256	6298.02
649.449	6361.5
649.642	6300.06
649.835	6298.02
650.027	6162.85
650.22	6236.58
650.413	6054.31
650.605	6177.19
650.798	5947.81
650.991	5945.77
651.183	5894.57
651.376	5923.24
651.568	5855.65
651.761	5892.52
651.954	5704.1
652.146	5892.52
652.339	5859.75
652.531	5755.3
652.724	5613.99
652.916	5677.48
653.109	5771.69
653.301	5745.06
653.494	5685.67
653.686	5577.13
653.879	5601.71
654.071	5417.39
654.263	5515.69
654.456	5521.84
654.648	5573.03
654.84	5480.88
655.033	5427.63
655.225	5401.01
655.417	5501.36
655.61	5534.12
655.802	5368.24
655.994	5435.82
656.186	5249.46
656.379	5419.44
656.571	5396.91
656.763	5134.77
656.955	5044.66
657.148	5153.2
657.34	5130.67
657.532	5181.87
657.724	5099.95
657.916	5147.06
658.108	5093.81
658.3	4972.98
658.492	5169.59
658.684	5056.95
658.876	4886.97
659.068	4839.86
659.26	4929.97
659.452	4741.56
659.644	5020.08
659.836	4792.76
660.028	4889.01
660.22	4811.19
660.412	4751.8
660.604	4872.63
660.796	4938.16
660.988	4737.46
661.18	4755.9
661.372	4569.53
661.563	4678.07
661.755	4735.42
661.947	4614.59
662.139	4688.31
662.331	4544.95
662.522	4696.5
662.714	4493.76
662.906	4587.96
663.097	4579.77
663.289	4465.08
663.481	4467.13
663.673	4569.53
663.864	4506.04
664.056	4532.67
664.247	4473.28
664.439	4514.24
664.631	4561.34
664.822	4467.13
665.014	4481.47
665.205	4499.9
665.397	4405.69
665.588	4407.74
665.78	4440.51
665.971	4276.67
666.163	4342.21
666.354	4252.1
666.546	4252.1
666.737	4288.96
666.929	4229.57
667.12	4348.35
667.311	4403.64
667.503	4305.34
667.694	4331.97
667.885	4200.9
668.077	4350.4
668.268	4198.85
668.459	4170.18
668.651	4180.42
668.842	4268.48
669.033	4135.36
669.224	4127.17
669.416	4299.2
669.607	4297.15
669.798	4129.22
669.989	4293.05
670.18	4174.27
670.371	4051.39
670.563	4204.99
670.754	4282.81
670.945	4112.83
671.136	4280.77
671.327	4225.47
671.518	4155.84
671.709	4198.85
671.9	4104.64
672.091	4145.6
672.282	4243.9
672.473	4272.57
672.664	4174.27
672.855	4276.67
673.046	4219.33
673.237	4274.62
673.428	4022.72
673.619	4235.71
673.809	4112.83
674	4342.21
674.191	4223.42
674.382	4252.1
674.573	4211.14
674.764	4235.71
674.954	4219.33
675.145	4313.53
675.336	4248
675.527	4200.9
675.717	4317.63
675.908	4133.31
676.099	4473.28
676.289	4231.62
676.48	4266.43
676.671	4243.9
676.861	4272.57
677.052	4313.53
677.243	4266.43
677.433	4487.61
677.624	4432.32
677.814	4331.97
678.005	4479.42
678.195	4389.31
678.386	4327.87
678.576	4409.79
678.767	4553.15
678.957	4522.43
679.148	4489.66
679.338	4504
679.529	4569.53
679.719	4477.37
679.909	4653.5
680.1	4501.95
680.29	4608.44
680.481	4641.21
680.671	4719.03
680.861	4694.46
681.052	4721.08
681.242	4520.38
681.432	4647.35
681.622	4612.54
681.813	4712.89
682.003	4704.7
682.193	4633.02
682.383	4710.84
682.573	4829.62
682.764	4673.98
682.954	4743.61
683.144	4663.74
683.334	4790.71
683.524	4700.6
683.714	4809.14
683.904	4700.6
684.094	4829.62
684.284	4870.58
684.474	4862.39
684.664	4755.9
684.854	4743.61
685.044	4940.21
685.234	4678.07
685.424	4721.08
685.614	4702.65
685.804	4784.57
685.994	4837.81
686.184	4864.44
686.374	4702.65
686.564	4696.5
686.753	4889.01
686.943	4571.58
687.133	4577.72
687.323	4620.73
687.513	4633.02
687.702	4604.35
687.892	4610.49
688.082	4628.92
688.272	4618.68
688.461	4630.97
688.651	4542.91
688.841	4399.55
689.03	4651.45
689.22	4563.39
689.41	4479.42
689.599	4438.46
689.789	4321.73
689.979	4338.11
690.168	4356.54
690.358	4405.69
690.547	4479.42
690.737	4391.36
690.926	4352.45
691.116	4248
691.305	4374.97
691.495	4161.98
691.684	4266.43
691.874	4006.34
692.063	4219.33
692.252	4143.55
692.442	4022.72
692.631	4049.35
692.82	4022.72
693.01	4037.06
693.199	3867.08
693.388	4102.59
693.578	3905.99
693.767	3992
693.956	3813.83
694.146	3973.57
694.335	3914.18
694.524	3811.78
694.713	3867.08
694.902	3662.28
695.092	3883.46
695.281	3883.46
695.47	3762.63
695.659	3703.24
695.848	3807.69
696.037	3776.97
696.226	3817.93
696.415	3738.05
696.604	3807.69
696.793	3633.61
696.982	3740.1
697.171	3709.38
697.36	3793.35
697.549	3553.74
697.738	3633.61
697.927	3658.18
698.116	3697.1
698.305	3776.97
698.494	3758.53
698.683	3684.81
698.872	3772.87
699.061	3611.08
699.25	3719.62
699.438	3555.79
699.627	3547.59
699.816	3717.58
700.005	3643.85
700.193	3666.38
700.382	3604.94
700.571	3580.36
700.76	3629.51
700.948	3645.9
701.137	3660.23
701.326	3686.86
701.514	3643.85
701.703	3758.53
701.892	3629.51
702.08	3725.77
702.269	3721.67
702.457	3633.61
702.646	3752.39
702.834	3625.42
703.023	3611.08
703.212	3813.83
703.4	3787.21
703.589	3600.84
703.777	3815.88
703.965	3631.56
704.154	3752.39
704.342	3774.92
704.531	3674.57
704.719	3877.32
704.907	3912.13
705.096	3723.72
705.284	3867.08
705.472	3930.56
705.661	3797.45
705.849	3824.07
706.037	3850.69
706.226	3762.63
706.414	3793.35
706.602	3883.46
706.79	3877.32
706.979	3801.54
707.167	3817.93
707.355	3875.27
707.543	4010.43
707.731	4006.34
707.919	3969.48
708.107	3936.71
708.296	3971.52
708.484	3944.9
708.672	4008.39
708.86	4073.92
709.048	4067.78
709.236	4006.34
709.424	4096.45
709.612	4133.31
709.8	4137.41
709.988	4129.22
710.176	4241.86
710.364	4061.63
710.551	4157.89
710.739	4082.11
710.927	4137.41
711.115	4219.33
711.303	4229.57
711.491	4338.11
711.679	4170.18
711.866	4233.66
712.054	4334.01
712.242	4102.59
712.43	4241.86
712.617	4315.58
712.805	4307.39
712.993	4514.24
713.181	4366.78
713.368	4417.98
713.556	4579.77
713.744	4379.07
713.931	4497.85
714.119	4411.84
714.306	4489.66
714.494	4551.1
714.682	4504
714.869	4547
715.057	4610.49
715.244	4477.37
715.432	4790.71
715.619	4696.5
715.807	4725.18
715.994	4731.32
716.182	4712.89
716.369	4702.65
716.556	4612.54
716.744	4651.45
716.931	4661.69
717.119	4901.3
717.306	4833.72
717.493	4948.4
717.681	4817.33
717.868	4915.64
718.055	4792.76
718.242	4868.53
718.43	4796.85
718.617	5145.01
718.804	4831.67
718.991	5020.08
719.179	5120.43
719.366	5052.85
719.553	5130.67
719.74	5159.35
719.927	5122.48
720.114	5140.91
720.301	5085.62
720.488	5190.06
720.676	5140.91
720.863	5167.54
721.05	5257.65
721.237	5253.55
721.424	5386.67
721.611	5327.28
721.798	5149.11
721.985	5138.87
722.172	5255.6
722.358	5372.33
722.545	5282.22
722.732	5331.37
722.919	5532.08
723.106	5341.61
723.293	5329.33
723.48	5360.05
723.667	5450.16
723.853	5288.37
724.04	5482.92
724.227	5403.05
724.414	5523.88
724.6	5435.82
724.787	5613.99
724.974	5616.04
725.161	5448.11
725.347	5542.32
725.534	5546.41
725.72	5700.01
725.907	5624.23
726.094	5552.56
726.28	5538.22
726.467	5452.2
726.653	5704.1
726.84	5630.38
727.027	5908.9
727.213	5648.81
727.4	5716.39
727.586	5831.08
727.773	5675.43
727.959	5730.73
728.145	5749.16
728.332	5718.44
728.518	5613.99
728.705	5861.8
728.891	5822.89
729.077	5841.32
729.264	5788.07
729.45	5996.96
729.636	5853.61
729.823	5892.52
730.009	6001.06
730.195	5966.24
730.382	6107.55
730.568	5876.13
730.754	5951.91
730.94	5859.75
731.126	6062.5
731.313	5956.01
731.499	6132.13
731.685	6009.25
731.871	6025.64
732.057	5999.01
732.243	6037.92
732.429	5913
732.615	6076.84
732.801	6232.48
732.987	6123.94
733.173	6119.84
733.359	6111.65
733.545	6111.65
733.731	6121.89
733.917	6021.54
734.103	6142.37
734.289	6023.59
734.475	6095.27
734.661	6146.47
734.847	6148.51
735.033	6109.6
735.219	6222.24
735.404	6308.26
735.59	6019.49
735.776	6173.09
735.962	6269.34
736.148	6113.7
736.333	6031.78
736.519	5968.29
736.705	6209.95
736.89	6001.06
737.076	6166.95
737.262	6044.07
737.447	6117.79
737.633	6146.47
737.819	6154.66
738.004	6369.69
738.19	6209.95
738.375	6054.31
738.561	6054.31
738.747	6046.12
738.932	6168.99
739.118	6246.82
739.303	6074.79
739.489	6064.55
739.674	6132.13
739.859	6140.32
740.045	6044.07
740.23	6005.16
740.416	5982.63
740.601	6009.25
740.786	6119.84
740.972	5964.2
741.157	5855.65
741.342	6037.92
741.528	5898.66
741.713	5986.72
741.898	5867.94
742.084	5874.09
742.269	6035.88
742.454	5923.24
742.639	5869.99
742.824	5888.42
743.01	5896.61
743.195	5847.46
743.38	5814.7
743.565	5810.6
743.75	5792.17
743.935	5718.44
744.12	5751.21
744.305	5501.36
744.49	5650.86
744.675	5538.22
744.86	5661.1
745.045	5515.69
745.23	5734.82
745.415	5710.25
745.6	5624.23
745.785	5398.96
745.97	5597.61
746.155	5499.31
746.34	5521.84
746.525	5306.8
746.71	5464.49
746.895	5329.33
747.079	5333.42
747.264	5374.38
747.449	5306.8
747.634	5142.96
747.819	5239.22
748.003	5134.77
748.188	5222.83
748.373	5134.77
748.557	5118.39
748.742	5034.42
748.927	5018.04
749.111	5054.9
749.296	4993.46
749.481	4831.67
749.665	4837.81
749.85	4618.68
750.034	4940.21
750.219	4790.71
750.404	4846.01
750.588	4583.87
750.773	4755.9
750.957	4723.13
751.141	4692.41
751.326	4645.31
751.51	4604.35
751.695	4526.52
751.879	4514.24
752.064	4555.19
752.248	4319.68
752.432	4295.1
752.617	4338.11
752.801	4473.28
752.985	4284.86
753.17	4377.02
753.354	4200.9
753.538	4248
753.722	4131.26
753.907	4241.86
754.091	4043.2
754.275	4155.84
754.459	4104.64
754.643	4022.72
754.828	3989.96
755.012	4012.48
755.196	3969.48
755.38	3918.28
755.564	3822.02
755.748	3836.36
755.932	3924.42
756.116	3846.6
756.3	3725.77
756.484	3842.5
756.668	3826.12
756.852	3676.62
757.036	3660.23
757.22	3623.37
757.404	3602.89
757.588	3611.08
757.772	3482.06
757.956	3498.44
758.14	3590.6
758.323	3396.04
758.507	3547.59
758.691	3383.76
758.875	3498.44
759.059	3563.98
759.242	3482.06
759.426	3301.84
759.61	3353.04
759.794	3201.49
759.977	3365.32
760.161	3287.5
760.345	3160.53
760.528	3135.95
760.712	3224.01
760.895	3121.62
761.079	3281.36
761.263	3097.04
761.446	3041.75
761.63	3035.6
761.813	3178.96
761.997	2980.31
762.18	2955.73
762.364	2869.72
762.547	3031.51
762.731	2984.4
762.914	3015.12
763.098	2908.63
763.281	2828.76
763.464	2898.39
763.648	2875.86
763.831	2806.23
764.015	2871.76
764.198	2777.56
764.381	2793.94
764.564	2818.52
764.748	2843.09
764.931	2736.6
765.114	2728.41
765.297	2806.23
765.481	2777.56
765.664	2761.17
765.847	2679.26
766.03	2746.84
766.213	2578.9
766.397	2652.63
766.58	2613.72
766.763	2677.21
766.946	2613.72
767.129	2525.66
767.312	2482.65
767.495	2601.43
767.678	2589.14
767.861	2621.91
768.044	2478.55
768.227	2562.52
768.41	2400.73
768.593	2583
768.776	2599.38
768.959	2521.56
769.142	2370.01
769.324	2357.72
769.507	2462.17
769.69	2480.6
769.873	2353.63
770.056	2466.27
770.239	2382.3
770.421	2331.1
770.604	2359.77
770.787	2386.4
770.97	2343.39
771.152	2228.7
771.335	2269.66
771.518	2138.59
771.7	2238.94
771.883	2288.09
772.066	2284
772.248	2249.18
772.431	2249.18
772.613	2243.04
772.796	2128.35
772.978	2157.02
773.161	2265.57
773.343	2007.52
773.526	2097.63
773.708	2144.74
773.891	1937.89
774.073	2105.82
774.256	2073.06
774.438	2071.01
774.621	2009.57
774.803	2058.72
774.985	2021.86
775.168	1831.4
775.35	1860.07
775.532	1851.88
775.715	1925.6
775.897	1917.41
776.079	1841.64
776.261	1851.88
776.444	1901.03
776.626	1796.58
776.808	1737.19
776.99	1860.07
777.173	1790.44
777.355	1786.34
777.537	1688.04
777.719	1630.7
777.901	1720.81
778.083	1675.75
778.265	1573.35
778.447	1667.56
778.629	1696.23
778.811	1685.99
778.993	1677.8
779.175	1591.78
779.357	1608.17
779.539	1569.26
779.721	1659.37
779.903	1559.02
780.085	1473
780.267	1630.7
780.449	1526.25
780.631	1520.1
780.812	1524.2
780.994	1419.75
781.176	1497.58
781.358	1563.11
781.54	1423.85
781.721	1413.61
781.903	1425.9
782.085	1298.92
782.267	1438.19
782.448	1407.47
782.63	1401.32
782.812	1358.32
782.993	1319.4
783.175	1323.5
783.357	1243.63
783.538	1257.96
783.72	1227.25
783.901	1298.92
784.083	1233.39
784.264	1292.78
784.446	1245.68
784.627	1212.91
784.809	1260.01
784.99	1130.99
785.172	1210.86
785.353	1176.05
785.535	1155.57
785.716	1137.13
785.897	1067.5
786.079	1225.2
786.26	1196.53
786.441	1155.57
786.623	1081.84
786.804	1040.88
786.985	1077.74
787.167	1036.78
787.348	1149.42
787.529	1061.36
787.71	1167.85
787.891	989.68
788.073	991.73
788.254	1092.08
788.435	1081.84
788.616	997.87
788.797	1014.26
788.978	918
789.159	985.58
789.34	1024.5
789.522	901.62
789.703	952.82
789.884	975.35
790.065	940.53
790.246	948.72
790.427	979.44
790.607	997.87
790.788	899.57
790.969	815.6
791.15	940.53
791.331	827.89
791.512	950.77
791.693	901.62
791.874	893.43
792.054	930.29
792.235	903.67
792.416	817.65
792.597	836.08
792.778	930.29
792.958	907.76
793.139	918
793.32	778.74
793.5	772.6
793.681	901.62
793.862	809.46
794.042	760.31
794.223	754.16
794.404	811.51
794.584	721.4
794.765	702.97
794.945	745.97
795.126	664.05
795.306	809.46
795.487	831.99
795.667	680.44
795.848	809.46
796.028	682.49
796.209	752.12
796.389	760.31
796.57	782.84
796.75	682.49
796.93	688.63
797.111	670.2
797.291	676.34
797.471	829.94
797.652	631.29
797.832	721.4
798.012	678.39
798.192	745.97
798.373	598.52
798.553	668.15
798.733	688.63
798.913	702.97
799.093	635.38
799.274	631.29
799.454	707.06
799.634	766.45
799.814	664.05
799.994	682.49
800.174	645.62
800.354	600.57
800.534	588.28
800.714	604.66
800.894	619
801.074	612.85
801.254	655.86
801.434	668.15
801.614	586.23
801.794	604.66
801.974	1296.88
802.154	606.71
802.334	631.29
802.514	561.66
802.693	598.52
802.873	629.24
803.053	616.95
803.233	571.9
803.413	524.79
803.592	614.9
803.772	582.14
803.952	508.41
804.131	594.42
804.311	555.51
804.491	578.04
804.67	426.49
804.85	522.74
805.03	516.6
805.209	508.41
805.389	543.22
805.568	442.87
805.748	498.17
805.928	467.45
806.107	451.07
806.287	483.83
806.466	469.5
806.646	479.74
806.825	541.18
807.004	516.6
807.184	479.74
807.363	432.63
807.543	547.32
807.722	451.07
807.901	541.18
808.081	498.17
808.26	348.67
808.439	401.91
808.619	483.83
808.798	459.26
808.977	475.64
809.156	414.2
809.336	487.93
809.515	530.94
809.694	465.4
809.873	461.3
810.052	487.93
810.231	442.87
810.411	379.39
810.59	432.63
810.769	516.6
810.948	434.68
811.127	348.67
811.306	401.91
811.485	389.63
811.664	455.16
811.843	489.98
812.022	352.76
812.201	432.63
812.38	401.91
812.559	367.1
812.737	393.72
812.916	387.58
813.095	311.8
813.274	385.53
813.453	305.66
813.632	373.24
813.811	442.87
813.989	346.62
814.168	299.52
814.347	367.1
814.526	469.5
814.704	328.19
814.883	420.35
815.062	350.71
815.24	385.53
815.419	334.33
815.598	340.47
815.776	344.57
815.955	367.1
816.133	299.52
816.312	324.09
816.49	328.19
816.669	328.19
816.847	363
817.026	287.23
817.204	295.42
817.383	336.38
817.561	293.37
817.74	406.01
817.918	367.1
818.097	356.86
818.275	309.76
818.453	254.46
818.632	381.43
818.81	309.76
818.988	313.85
819.167	276.99
819.345	326.14
819.523	203.26
819.701	315.9
819.879	248.32
820.058	330.23
820.236	242.17
820.414	332.28
820.592	311.8
820.77	301.56
820.948	250.36
821.127	299.52
821.305	297.47
821.483	301.56
821.661	309.76
821.839	274.94
822.017	227.84
822.195	260.6
822.373	279.04
822.551	305.66
822.729	297.47
822.907	248.32
823.085	276.99
823.262	233.98
823.44	102.91
823.618	250.36
823.796	250.36
823.974	197.12
824.152	244.22
824.329	246.27
824.507	219.64
824.685	229.88
824.863	248.32
825.04	227.84
825.218	244.22
825.396	270.84
825.574	209.4
825.751	246.27
825.929	283.13
826.107	162.3
826.284	182.78
826.462	229.88
826.639	219.64
826.817	201.21
826.994	332.28
827.172	213.5
827.349	356.86
827.527	180.73
827.704	262.65
827.882	262.65
828.059	246.27
828.237	256.51
828.414	244.22
828.591	147.97
828.769	184.83
828.946	199.16
829.124	330.23
829.301	115.2
829.478	266.75
829.655	180.73
829.833	168.45
830.01	109.05
830.187	176.64
830.364	154.11
830.542	248.32
830.719	221.69
830.896	274.94
831.073	215.55
831.25	195.07
831.427	182.78
831.604	211.45
831.782	211.45
831.959	195.07
832.136	162.3
832.313	180.73
832.49	156.16
832.667	197.12
832.844	123.39
833.021	211.45
833.198	174.59
833.374	172.54
833.551	147.97
833.728	147.97
833.905	207.36
834.082	137.73
834.259	170.49
834.436	215.55
834.612	150.01
834.789	160.25
834.966	158.21
835.143	172.54
835.319	96.77
835.496	119.29
835.673	90.62
835.85	209.4
836.026	127.49
836.203	180.73
836.38	133.63
836.556	184.83
836.733	154.11
836.909	154.11
837.086	139.77
837.262	90.62
837.439	172.54
837.616	135.68
837.792	145.92
837.968	229.88
838.145	92.67
838.321	131.58
838.498	111.1
838.674	98.81
838.851	94.72
839.027	135.68
839.203	156.16
839.38	96.77
839.556	145.92
839.732	121.34
839.909	102.91
840.085	145.92
840.261	145.92
840.437	158.21
840.614	143.87
840.79	182.78
840.966	209.4
841.142	162.3
841.318	127.49
841.494	121.34
841.671	57.86
841.847	82.43
842.023	135.68
842.199	68.09
842.375	160.25
842.551	-32.26
842.727	55.81
842.903	176.64
843.079	98.81
843.255	193.02
843.431	115.2
843.607	123.39
843.783	45.57
843.959	162.3
844.134	39.42
844.31	102.91
844.486	90.62
844.662	174.59
844.838	74.24
845.013	172.54
845.189	90.62
845.365	178.69
845.541	102.91
845.716	49.66
845.892	152.06
846.068	39.42
846.244	-11.78
846.419	78.33
846.595	119.29
846.77	51.71
846.946	64
847.122	55.81
847.297	6.66
847.473	168.45
847.648	102.91
847.824	115.2
847.999	61.95
848.175	125.44
848.35	51.71
848.526	84.48
848.701	121.34
848.876	188.93
849.052	90.62
849.227	96.77
849.403	41.47
849.578	74.24
849.753	29.18
849.929	129.53
850.104	18.94
850.279	33.28
850.454	102.91
850.63	51.71
850.805	25.09
850.98	80.38
851.155	133.63
851.33	115.2
851.505	16.9
851.681	154.11
851.856	57.86
852.031	98.81
852.206	145.92
852.381	49.66
852.556	-24.06
852.731	78.33
852.906	137.73
853.081	107.01
853.256	170.49
853.431	41.47
853.606	76.29
853.781	31.23
853.956	49.66
854.131	74.24
854.305	64
854.48	39.42
854.655	16.9
854.83	-34.3
855.005	16.9
855.18	111.1
855.354	55.81
855.529	10.75
855.704	96.77
855.879	78.33
856.053	49.66
856.228	66.05
856.403	41.47
856.577	174.59
856.752	16.9
856.926	35.33
857.101	41.47
857.276	-3.58
857.45	107.01
857.625	156.16
857.799	74.24
857.974	35.33
858.148	41.47
858.323	121.34
858.497	64
858.672	18.94
858.846	104.96
859.02	121.34
859.195	82.43
859.369	20.99
859.543	57.86
859.718	12.8
859.892	66.05
860.066	-3.58
860.241	-26.11
860.415	2.56
860.589	55.81
860.763	49.66
860.938	-24.06
861.112	39.42
861.286	35.33
861.46	72.19
861.634	10.75
861.808	16.9
861.982	-9.73
862.157	-9.73
862.331	0.51
862.505	-9.73
862.679	23.04
862.853	23.04
863.027	41.47
863.201	82.43
863.375	49.66
863.549	49.66
863.722	80.38
863.896	86.53
864.07	39.42
864.244	55.81
864.418	45.57
864.592	0.51
864.766	31.23
864.939	-65.02
865.113	88.57
865.287	20.99
865.461	14.85
865.634	18.94
865.808	18.94
865.982	12.8
866.156	-9.73
866.329	-69.12
866.503	-17.92
866.676	0.51
866.85	41.47
867.024	78.33
867.197	66.05
867.371	59.9
867.544	20.99
867.718	-11.78
867.891	45.57
868.065	-32.26
868.238	39.42
868.412	45.57
868.585	55.81
868.759	-34.3
868.932	-97.79
869.105	16.9
869.279	31.23
869.452	-34.3
869.625	6.66
869.799	41.47
869.972	39.42
870.145	66.05
870.319	92.67
870.492	0.51
870.665	31.23
870.838	-9.73
871.011	-54.78
871.185	-26.11
871.358	78.33
871.531	8.7
871.704	25.09
871.877	33.28
872.05	25.09
872.223	-1.54
872.396	53.76
872.569	-7.68
872.742	8.7
872.915	39.42
873.088	29.18
873.261	-1.54
873.434	-32.26
873.607	33.28
873.78	33.28
873.953	-65.02
874.126	-32.26
874.299	8.7
874.471	-19.97
874.644	-11.78
874.817	102.91
874.99	31.23
875.163	-1.54
875.335	57.86
875.508	41.47
875.681	16.9
875.853	-3.58
876.026	29.18
876.199	-15.87
876.371	61.95
876.544	-73.21
876.717	31.23
876.889	25.09
877.062	41.47
877.234	-32.26
877.407	-65.02
877.579	4.61
877.752	0.51
877.924	37.38
878.097	25.09
878.269	-3.58
878.442	45.57
878.614	47.62
878.786	47.62
878.959	33.28
879.131	8.7
879.303	47.62
879.476	27.14
879.648	25.09
879.82	-15.87
879.993	-40.45
880.165	14.85
880.337	0.51
880.509	0.51
880.681	-36.35
880.854	-22.02
881.026	6.66
881.198	68.09
881.37	8.7
881.542	49.66
881.714	-26.11
881.886	72.19
882.058	57.86
882.23	-32.26
882.402	12.8
882.574	-19.97
882.746	23.04
882.918	31.23
883.09	53.76
883.262	10.75
883.434	-19.97
883.606	-3.58
883.778	-28.16
883.95	47.62
884.122	12.8
884.293	61.95
884.465	23.04
884.637	98.81
884.809	-73.21
884.98	82.43
885.152	-36.35
885.324	57.86
885.496	-7.68
885.667	18.94
885.839	-1.54
886.011	-24.06
886.182	16.9
886.354	-3.58
886.525	18.94
886.697	68.09
886.869	-3.58
887.04	-19.97
887.212	98.81
887.383	70.14
887.555	-30.21
887.726	6.66
887.897	-65.02
888.069	25.09
888.24	37.38
888.412	37.38
888.583	76.29
888.754	0.51
888.926	-22.02
889.097	25.09
889.268	-85.5
889.44	45.57
889.611	-32.26
889.782	-24.06
889.953	-1.54
890.125	55.81
890.296	0.51
890.467	8.7
890.638	-5.63
890.809	16.9
890.98	-17.92
891.151	-52.74
891.323	49.66
891.494	-7.68
891.665	-56.83
891.836	-36.35
892.007	-34.3
892.178	33.28
892.349	8.7
892.52	-44.54
892.691	43.52
892.862	12.8
893.032	-89.6
893.203	-40.45
893.374	53.76
893.545	45.57
893.716	12.8
893.887	41.47
894.057	-73.21
894.228	8.7
894.399	-97.79
894.57	39.42
894.74	-73.21
894.911	-40.45
895.082	-7.68
895.253	-36.35
895.423	-3.58
895.594	57.86
895.764	37.38
895.935	2.56
896.106	-11.78
896.276	45.57
896.447	8.7
896.617	-38.4
896.788	-67.07
896.958	-28.16
897.129	-73.21
897.299	-40.45
897.47	10.75
897.64	-28.16
897.81	16.9
897.981	10.75
898.151	0.51
898.322	-24.06
898.492	33.28
898.662	-15.87
898.832	16.9
899.003	20.99
899.173	-34.3
899.343	-91.65
899.513	4.61
