Data from USB4F104151__16__11-29-48-417.txt Node

Date: Fri Mar 14 11:29:48 EDT 2025
User: louis
Spectrometer: USB4F10415
Trigger mode: 4
Integration Time (sec): 5.000000E-2
Scans to average: 1
Electric dark correction enabled: true
Nonlinearity correction enabled: false
Boxcar width: 0
XAxis mode: Wavelengths
Number of Pixels in Spectrum: 3648
>>>>>Begin Spectral Data<<<<<
178.204	-122.37
178.424	-122.37
178.644	-122.37
178.864	-194.05
179.084	-134.65
179.304	61.95
179.524	4.61
179.744	6.66
179.964	6.66
180.184	31.23
180.404	-42.5
180.624	-13.82
180.844	-26.11
181.064	-36.35
181.283	23.04
181.503	-5.63
181.723	-9.73
181.943	-26.11
182.163	78.33
182.383	-36.35
182.602	88.57
182.822	-1.54
183.042	61.95
183.262	8.7
183.482	43.52
183.701	39.42
183.921	-9.73
184.141	6.66
184.361	102.91
184.58	94.72
184.8	53.76
185.02	-38.4
185.239	43.52
185.459	-5.63
185.679	23.04
185.898	31.23
186.118	72.19
186.338	35.33
186.557	61.95
186.777	45.57
186.997	31.23
187.216	4.61
187.436	117.25
187.655	39.42
187.875	-32.26
188.095	-32.26
188.314	-11.78
188.534	117.25
188.753	16.9
188.973	-34.3
189.192	115.2
189.412	27.14
189.631	41.47
189.851	-34.3
190.07	78.33
190.29	14.85
190.509	-9.73
190.729	12.8
190.948	78.33
191.168	127.49
191.387	51.71
191.607	39.42
191.826	45.57
192.045	-17.92
192.265	45.57
192.484	-17.92
192.704	23.04
192.923	2.56
193.142	123.39
193.362	115.2
193.581	70.14
193.8	37.38
194.02	84.48
194.239	102.91
194.458	61.95
194.678	45.57
194.897	80.38
195.116	0.51
195.335	6.66
195.555	47.62
195.774	35.33
195.993	61.95
196.212	23.04
196.432	29.18
196.651	59.9
196.87	39.42
197.089	141.82
197.308	47.62
197.528	39.42
197.747	-38.4
197.966	18.94
198.185	47.62
198.404	-1.54
198.623	43.52
198.842	59.9
199.062	78.33
199.281	92.67
199.5	-1.54
199.719	61.95
199.938	-1.54
200.157	88.57
200.376	84.48
200.595	141.82
200.814	31.23
201.033	6.66
201.252	68.09
201.471	49.66
201.69	59.9
201.909	68.09
202.128	49.66
202.347	84.48
202.566	59.9
202.785	-67.07
203.004	4.61
203.223	109.05
203.442	18.94
203.661	16.9
203.879	61.95
204.098	76.29
204.317	-3.58
204.536	135.68
204.755	61.95
204.974	84.48
205.193	-42.5
205.411	94.72
205.63	6.66
205.849	39.42
206.068	86.53
206.287	-30.21
206.505	64
206.724	-34.3
206.943	59.9
207.162	-26.11
207.381	88.57
207.599	18.94
207.818	100.86
208.037	92.67
208.255	25.09
208.474	111.1
208.693	47.62
208.911	47.62
209.13	2.56
209.349	31.23
209.567	68.09
209.786	111.1
210.005	57.86
210.223	88.57
210.442	51.71
210.661	2.56
210.879	4.61
211.098	2.56
211.316	-42.5
211.535	39.42
211.753	-3.58
211.972	-3.58
212.191	49.66
212.409	70.14
212.628	-9.73
212.846	8.7
213.065	29.18
213.283	47.62
213.502	64
213.72	18.94
213.938	53.76
214.157	33.28
214.375	37.38
214.594	51.71
214.812	96.77
215.031	68.09
215.249	47.62
215.467	27.14
215.686	111.1
215.904	72.19
216.122	-7.68
216.341	84.48
216.559	-34.3
216.778	23.04
216.996	88.57
217.214	-9.73
217.432	-26.11
217.651	14.85
217.869	55.81
218.087	86.53
218.306	104.96
218.524	102.91
218.742	64
218.96	57.86
219.179	-34.3
219.397	-3.58
219.615	121.34
219.833	43.52
220.051	80.38
220.27	72.19
220.488	96.77
220.706	-34.3
220.924	-1.54
221.142	-17.92
221.36	45.57
221.578	59.9
221.796	41.47
222.015	88.57
222.233	14.85
222.451	109.05
222.669	-26.11
222.887	37.38
223.105	47.62
223.323	39.42
223.541	2.56
223.759	66.05
223.977	-3.58
224.195	102.91
224.413	76.29
224.631	76.29
224.849	53.76
225.067	125.44
225.285	-13.82
225.503	-9.73
225.721	-60.93
225.939	-42.5
226.157	33.28
226.375	184.83
226.592	-5.63
226.81	23.04
227.028	4.61
227.246	55.81
227.464	78.33
227.682	47.62
227.9	59.9
228.117	70.14
228.335	43.52
228.553	59.9
228.771	33.28
228.989	61.95
229.206	-17.92
229.424	10.75
229.642	37.38
229.86	23.04
230.077	35.33
230.295	64
230.513	39.42
230.731	90.62
230.948	55.81
231.166	-17.92
231.384	31.23
231.601	27.14
231.819	88.57
232.037	10.75
232.254	-17.92
232.472	6.66
232.689	16.9
232.907	72.19
233.125	20.99
233.342	51.71
233.56	27.14
233.777	4.61
233.995	31.23
234.213	80.38
234.43	53.76
234.648	23.04
234.865	100.86
235.083	96.77
235.3	23.04
235.518	96.77
235.735	18.94
235.953	86.53
236.17	100.86
236.388	76.29
236.605	-40.45
236.822	133.63
237.04	10.75
237.257	45.57
237.475	-3.58
237.692	100.86
237.909	47.62
238.127	57.86
238.344	64
238.562	-44.54
238.779	-26.11
238.996	29.18
239.214	86.53
239.431	-11.78
239.648	18.94
239.865	64
240.083	27.14
240.3	29.18
240.517	-3.58
240.735	14.85
240.952	61.95
241.169	76.29
241.386	55.81
241.603	41.47
241.821	47.62
242.038	29.18
242.255	88.57
242.472	-22.02
242.689	55.81
242.907	53.76
243.124	68.09
243.341	-3.58
243.558	23.04
243.775	12.8
243.992	-3.58
244.209	41.47
244.426	94.72
244.643	61.95
244.86	-50.69
245.078	12.8
245.295	53.76
245.512	70.14
245.729	68.09
245.946	117.25
246.163	-13.82
246.38	6.66
246.597	31.23
246.814	84.48
247.031	45.57
247.248	72.19
247.464	96.77
247.681	39.42
247.898	4.61
248.115	41.47
248.332	10.75
248.549	113.15
248.766	64
248.983	127.49
249.2	16.9
249.417	88.57
249.633	14.85
249.85	41.47
250.067	53.76
250.284	84.48
250.501	41.47
250.717	35.33
250.934	-7.68
251.151	47.62
251.368	29.18
251.585	78.33
251.801	47.62
252.018	-71.17
252.235	18.94
252.451	16.9
252.668	64
252.885	70.14
253.102	-9.73
253.318	51.71
253.535	45.57
253.752	-30.21
253.968	14.85
254.185	-11.78
254.401	-7.68
254.618	51.71
254.835	-9.73
255.051	86.53
255.268	72.19
255.484	37.38
255.701	-11.78
255.917	74.24
256.134	23.04
256.351	39.42
256.567	29.18
256.784	53.76
257	-3.58
257.217	59.9
257.433	-17.92
257.65	45.57
257.866	53.76
258.082	18.94
258.299	31.23
258.515	10.75
258.732	31.23
258.948	14.85
259.165	92.67
259.381	31.23
259.597	76.29
259.814	6.66
260.03	55.81
260.246	-30.21
260.463	86.53
260.679	51.71
260.895	-1.54
261.112	88.57
261.328	84.48
261.544	59.9
261.761	131.58
261.977	18.94
262.193	33.28
262.409	70.14
262.626	-3.58
262.842	-42.5
263.058	23.04
263.274	72.19
263.49	-17.92
263.707	78.33
263.923	117.25
264.139	74.24
264.355	23.04
264.571	16.9
264.787	25.09
265.004	96.77
265.22	-56.83
265.436	-32.26
265.652	45.57
265.868	39.42
266.084	12.8
266.3	23.04
266.516	10.75
266.732	-15.87
266.948	64
267.164	-1.54
267.38	68.09
267.596	72.19
267.812	152.06
268.028	6.66
268.244	39.42
268.46	12.8
268.676	113.15
268.892	84.48
269.108	51.71
269.324	72.19
269.54	27.14
269.756	88.57
269.972	6.66
270.188	10.75
270.403	-40.45
270.619	51.71
270.835	2.56
271.051	31.23
271.267	-11.78
271.483	35.33
271.698	94.72
271.914	-52.74
272.13	33.28
272.346	43.52
272.562	119.29
272.777	18.94
272.993	59.9
273.209	92.67
273.425	86.53
273.64	6.66
273.856	109.05
274.072	78.33
274.287	-28.16
274.503	55.81
274.719	154.11
274.934	39.42
275.15	20.99
275.366	111.1
275.581	14.85
275.797	53.76
276.012	29.18
276.228	41.47
276.444	64
276.659	23.04
276.875	-3.58
277.09	-24.06
277.306	92.67
277.521	53.76
277.737	4.61
277.952	33.28
278.168	70.14
278.383	57.86
278.599	-11.78
278.814	104.96
279.03	31.23
279.245	55.81
279.461	47.62
279.676	92.67
279.892	14.85
280.107	47.62
280.322	31.23
280.538	72.19
280.753	-44.54
280.969	-42.5
281.184	94.72
281.399	25.09
281.615	37.38
281.83	-7.68
282.045	53.76
282.26	-26.11
282.476	70.14
282.691	16.9
282.906	31.23
283.122	20.99
283.337	20.99
283.552	12.8
283.767	94.72
283.983	4.61
284.198	27.14
284.413	76.29
284.628	12.8
284.843	31.23
285.058	127.49
285.274	39.42
285.489	76.29
285.704	72.19
285.919	43.52
286.134	84.48
286.349	29.18
286.564	55.81
286.779	119.29
286.995	80.38
287.21	53.76
287.425	39.42
287.64	-26.11
287.855	137.73
288.07	-5.63
288.285	37.38
288.5	64
288.715	33.28
288.93	66.05
289.145	41.47
289.36	27.14
289.575	47.62
289.79	41.47
290.004	10.75
290.219	68.09
290.434	39.42
290.649	55.81
290.864	70.14
291.079	31.23
291.294	70.14
291.509	-1.54
291.724	16.9
291.938	18.94
292.153	-26.11
292.368	14.85
292.583	76.29
292.798	27.14
293.012	76.29
293.227	53.76
293.442	74.24
293.657	23.04
293.871	109.05
294.086	39.42
294.301	107.01
294.516	31.23
294.73	74.24
294.945	41.47
295.16	35.33
295.374	92.67
295.589	43.52
295.804	8.7
296.018	70.14
296.233	127.49
296.447	-1.54
296.662	31.23
296.877	61.95
297.091	96.77
297.306	70.14
297.52	64
297.735	25.09
297.949	72.19
298.164	39.42
298.378	18.94
298.593	6.66
298.807	10.75
299.022	59.9
299.236	88.57
299.451	31.23
299.665	49.66
299.88	6.66
300.094	66.05
300.309	6.66
300.523	31.23
300.737	53.76
300.952	12.8
301.166	88.57
301.381	18.94
301.595	92.67
301.809	-19.97
302.024	27.14
302.238	25.09
302.452	109.05
302.667	-28.16
302.881	102.91
303.095	74.24
303.309	53.76
303.524	70.14
303.738	61.95
303.952	-34.3
304.166	80.38
304.381	-1.54
304.595	137.73
304.809	31.23
305.023	-26.11
305.237	-9.73
305.452	-50.69
305.666	27.14
305.88	92.67
306.094	102.91
306.308	104.96
306.522	80.38
306.736	-15.87
306.95	64
307.164	6.66
307.379	-30.21
307.593	37.38
307.807	55.81
308.021	59.9
308.235	31.23
308.449	-60.93
308.663	31.23
308.877	80.38
309.091	29.18
309.305	27.14
309.519	-17.92
309.733	72.19
309.947	-30.21
310.161	20.99
310.374	94.72
310.588	123.39
310.802	61.95
311.016	39.42
311.23	59.9
311.444	35.33
311.658	-34.3
311.872	137.73
312.085	72.19
312.299	12.8
312.513	33.28
312.727	-11.78
312.941	-54.78
313.154	37.38
313.368	176.64
313.582	64
313.796	76.29
314.009	31.23
314.223	104.96
314.437	27.14
314.651	23.04
314.864	2.56
315.078	14.85
315.292	39.42
315.505	96.77
315.719	64
315.933	2.56
316.146	94.72
316.36	68.09
316.573	92.67
316.787	-15.87
317.001	88.57
317.214	10.75
317.428	147.97
317.641	23.04
317.855	6.66
318.068	18.94
318.282	94.72
318.495	64
318.709	121.34
318.922	0.51
319.136	64
319.349	121.34
319.563	64
319.776	61.95
319.99	-89.6
320.203	0.51
320.417	-19.97
320.63	80.38
320.843	129.53
321.057	-17.92
321.27	-5.63
321.483	20.99
321.697	102.91
321.91	25.09
322.124	135.68
322.337	72.19
322.55	88.57
322.763	4.61
322.977	59.9
323.19	102.91
323.403	45.57
323.617	76.29
323.83	59.9
324.043	72.19
324.256	61.95
324.469	39.42
324.683	35.33
324.896	18.94
325.109	29.18
325.322	-46.59
325.535	10.75
325.748	-58.88
325.962	23.04
326.175	45.57
326.388	37.38
326.601	61.95
326.814	12.8
327.027	23.04
327.24	135.68
327.453	51.71
327.666	59.9
327.879	170.49
328.092	70.14
328.305	6.66
328.518	51.71
328.731	51.71
328.944	31.23
329.157	72.19
329.37	68.09
329.583	33.28
329.796	107.01
330.009	12.8
330.222	47.62
330.435	61.95
330.648	78.33
330.861	53.76
331.073	45.57
331.286	74.24
331.499	8.7
331.712	-5.63
331.925	51.71
332.138	33.28
332.35	102.91
332.563	-36.35
332.776	64
332.989	16.9
333.202	43.52
333.414	8.7
333.627	66.05
333.84	88.57
334.053	45.57
334.265	41.47
334.478	27.14
334.691	6.66
334.903	88.57
335.116	53.76
335.329	57.86
335.541	37.38
335.754	64
335.966	-28.16
336.179	78.33
336.392	35.33
336.604	47.62
336.817	117.25
337.029	88.57
337.242	-5.63
337.454	64
337.667	90.62
337.88	96.77
338.092	47.62
338.305	145.92
338.517	80.38
338.729	70.14
338.942	96.77
339.154	-9.73
339.367	29.18
339.579	88.57
339.792	20.99
340.004	78.33
340.217	47.62
340.429	39.42
340.641	49.66
340.854	37.38
341.066	66.05
341.278	6.66
341.491	92.67
341.703	-11.78
341.915	64
342.128	6.66
342.34	35.33
342.552	51.71
342.764	104.96
342.977	64
343.189	31.23
343.401	113.15
343.613	-19.97
343.826	76.29
344.038	-28.16
344.25	33.28
344.462	59.9
344.674	18.94
344.886	37.38
345.099	-28.16
345.311	37.38
345.523	53.76
345.735	-58.88
345.947	64
346.159	37.38
346.371	29.18
346.583	6.66
346.795	141.82
347.007	-17.92
347.219	86.53
347.431	53.76
347.643	43.52
347.855	16.9
348.067	35.33
348.279	6.66
348.491	4.61
348.703	88.57
348.915	31.23
349.127	27.14
349.339	23.04
349.551	80.38
349.763	23.04
349.975	25.09
350.187	47.62
350.399	94.72
350.61	109.05
350.822	70.14
351.034	117.25
351.246	53.76
351.458	16.9
351.669	-7.68
351.881	72.19
352.093	72.19
352.305	125.44
352.517	61.95
352.728	-11.78
352.94	39.42
353.152	18.94
353.363	6.66
353.575	55.81
353.787	96.77
353.999	70.14
354.21	0.51
354.422	39.42
354.633	39.42
354.845	59.9
355.057	145.92
355.268	37.38
355.48	76.29
355.692	-9.73
355.903	-17.92
356.115	10.75
356.326	31.23
356.538	119.29
356.749	18.94
356.961	111.1
357.172	45.57
357.384	14.85
357.595	162.3
357.807	70.14
358.018	39.42
358.23	-9.73
358.441	129.53
358.653	176.64
358.864	86.53
359.075	51.71
359.287	45.57
359.498	53.76
359.709	12.8
359.921	102.91
360.132	72.19
360.344	109.05
360.555	-5.63
360.766	-9.73
360.977	18.94
361.189	96.77
361.4	23.04
361.611	37.38
361.823	0.51
362.034	55.81
362.245	39.42
362.456	39.42
362.667	72.19
362.879	12.8
363.09	70.14
363.301	43.52
363.512	68.09
363.723	45.57
363.935	-3.58
364.146	64
364.357	137.73
364.568	53.76
364.779	-11.78
364.99	94.72
365.201	43.52
365.412	53.76
365.623	84.48
365.834	47.62
366.045	-5.63
366.256	86.53
366.467	72.19
366.678	82.43
366.889	23.04
367.1	-9.73
367.311	82.43
367.522	152.06
367.733	29.18
367.944	104.96
368.155	59.9
368.366	66.05
368.577	109.05
368.788	39.42
368.999	18.94
369.209	29.18
369.42	47.62
369.631	158.21
369.842	96.77
370.053	72.19
370.264	51.71
370.474	55.81
370.685	49.66
370.896	20.99
371.107	94.72
371.317	135.68
371.528	33.28
371.739	145.92
371.95	68.09
372.16	90.62
372.371	-7.68
372.582	-9.73
372.792	66.05
373.003	43.52
373.214	29.18
373.424	23.04
373.635	31.23
373.846	68.09
374.056	94.72
374.267	119.29
374.477	86.53
374.688	39.42
374.898	29.18
375.109	61.95
375.319	143.87
375.53	92.67
375.74	100.86
375.951	4.61
376.161	72.19
376.372	104.96
376.582	2.56
376.793	53.76
377.003	16.9
377.214	31.23
377.424	51.71
377.635	23.04
377.845	20.99
378.055	90.62
378.266	66.05
378.476	-17.92
378.686	150.01
378.897	37.38
379.107	78.33
379.317	55.81
379.528	53.76
379.738	0.51
379.948	-22.02
380.158	137.73
380.369	-38.4
380.579	31.23
380.789	4.61
380.999	-1.54
381.21	78.33
381.42	174.59
381.63	10.75
381.84	41.47
382.05	117.25
382.261	102.91
382.471	68.09
382.681	0.51
382.891	86.53
383.101	92.67
383.311	57.86
383.521	4.61
383.731	129.53
383.941	143.87
384.151	20.99
384.361	115.2
384.571	78.33
384.781	37.38
384.991	64
385.201	121.34
385.411	55.81
385.621	39.42
385.831	129.53
386.041	10.75
386.251	18.94
386.461	109.05
386.671	55.81
386.881	45.57
387.091	68.09
387.301	74.24
387.511	76.29
387.72	43.52
387.93	129.53
388.14	29.18
388.35	113.15
388.56	92.67
388.769	70.14
388.979	82.43
389.189	23.04
389.399	35.33
389.609	55.81
389.818	80.38
390.028	92.67
390.238	51.71
390.447	64
390.657	35.33
390.867	121.34
391.076	31.23
391.286	76.29
391.496	41.47
391.705	43.52
391.915	117.25
392.125	92.67
392.334	55.81
392.544	125.44
392.753	121.34
392.963	72.19
393.172	51.71
393.382	23.04
393.591	113.15
393.801	-9.73
394.01	184.83
394.22	96.77
394.429	109.05
394.639	84.48
394.848	113.15
395.058	80.38
395.267	96.77
395.477	49.66
395.686	111.1
395.895	104.96
396.105	121.34
396.314	135.68
396.524	43.52
396.733	78.33
396.942	14.85
397.152	154.11
397.361	53.76
397.57	121.34
397.78	61.95
397.989	137.73
398.198	170.49
398.407	127.49
398.617	150.01
398.826	137.73
399.035	129.53
399.244	100.86
399.453	98.81
399.663	129.53
399.872	127.49
400.081	113.15
400.29	129.53
400.499	76.29
400.708	178.69
400.917	113.15
401.127	57.86
401.336	84.48
401.545	178.69
401.754	131.58
401.963	104.96
402.172	186.88
402.381	90.62
402.59	135.68
402.799	125.44
403.008	219.64
403.217	211.45
403.426	104.96
403.635	72.19
403.844	154.11
404.053	176.64
404.262	145.92
404.471	217.6
404.68	131.58
404.888	203.26
405.097	137.73
405.306	178.69
405.515	219.64
405.724	193.02
405.933	217.6
406.142	145.92
406.35	213.5
406.559	127.49
406.768	201.21
406.977	186.88
407.185	324.09
407.394	190.97
407.603	219.64
407.812	244.22
408.02	145.92
408.229	240.12
408.438	233.98
408.646	174.59
408.855	272.89
409.064	274.94
409.272	248.32
409.481	309.76
409.69	291.32
409.898	252.41
410.107	270.84
410.315	399.87
410.524	315.9
410.733	315.9
410.941	354.81
411.15	346.62
411.358	320
411.567	461.3
411.775	438.78
411.984	449.02
412.192	440.83
412.401	424.44
412.609	424.44
412.818	547.32
413.026	377.34
413.234	545.27
413.443	520.7
413.651	596.47
413.86	518.65
414.068	649.72
414.276	623.09
414.485	678.39
414.693	702.97
414.901	743.92
415.11	776.69
415.318	723.44
415.526	739.83
415.734	727.54
415.943	803.32
416.151	903.67
416.359	801.27
416.567	850.42
416.776	858.61
416.984	891.38
417.192	1030.64
417.4	1073.65
417.608	1096.18
417.817	1044.98
418.025	1087.98
418.233	1266.16
418.441	1122.8
418.649	1167.85
418.857	1325.55
419.065	1309.16
419.273	1266.16
419.481	1389.03
419.689	1448.43
419.897	1468.91
420.105	1526.25
420.313	1659.37
420.521	1659.37
420.729	1618.41
420.937	1706.47
421.145	1688.04
421.353	1841.64
421.561	1905.12
421.769	1976.8
421.977	2068.96
422.185	1976.8
422.393	2222.56
422.601	2228.7
422.809	2232.8
423.017	2269.66
423.224	2349.53
423.432	2447.83
423.64	2464.22
423.848	2755.03
424.056	2755.03
424.263	2781.65
424.471	2916.82
424.679	2906.58
424.887	2931.16
425.094	3115.47
425.302	3193.3
425.51	3207.63
425.718	3379.66
425.925	3424.72
426.133	3520.97
426.341	3885.51
426.548	3992
426.756	3953.09
426.964	4078.02
427.171	4258.24
427.379	4225.47
427.586	4409.79
427.794	4544.95
428.001	4676.02
428.209	4921.78
428.417	4854.2
428.624	5120.43
428.832	5290.42
429.039	5140.91
429.247	5124.53
429.454	5663.15
429.662	6085.03
429.869	5736.87
430.076	6029.73
430.284	6019.49
430.491	6281.63
430.699	6674.84
430.906	6637.98
431.114	6572.44
431.321	6703.51
431.528	6955.41
431.736	7389.58
431.943	7895.43
432.15	7399.82
432.358	7633.29
432.565	7971.21
432.772	8038.79
432.979	8319.36
433.187	8493.44
433.394	8462.72
433.601	9273.71
433.808	9210.23
434.016	9044.34
434.223	9523.57
434.43	10123.62
434.637	9890.15
434.844	10414.43
435.052	10768.73
435.259	10897.75
435.466	10729.82
435.673	10578.27
435.88	11446.61
436.087	11856.2
436.294	12011.85
436.501	11524.43
436.708	11913.55
436.915	12409.15
437.122	12828.99
437.329	12718.4
437.537	13273.4
437.743	13433.14
437.95	13273.4
438.157	14115.11
438.364	14256.42
438.571	14469.41
438.778	14360.87
438.985	15929.61
439.192	15343.89
439.399	15683.86
439.606	15278.36
439.813	16208.14
440.02	17242.36
440.227	17000.7
440.433	16922.88
440.64	17617.14
440.847	17314.04
441.054	17944.81
441.261	18792.67
441.467	18817.25
441.674	19208.41
441.881	19919.06
442.088	19912.91
442.294	19620.05
442.501	20187.34
442.708	20723.91
442.914	21385.4
443.121	22145.2
443.328	21706.93
443.534	23281.82
443.741	22552.74
443.948	22300.84
444.154	23806.1
444.361	23546.01
444.568	23904.4
444.774	23931.03
444.981	24174.74
445.187	24533.13
445.394	25632.89
445.6	25397.37
445.807	27891.8
446.013	26912.87
446.22	26996.84
446.426	28461.13
446.633	28819.53
446.839	29505.6
447.046	28352.59
447.252	29894.71
447.459	30062.65
447.665	30132.28
447.871	31309.86
448.078	32403.47
448.284	30847.02
448.491	31836.19
448.697	32825.36
448.903	33472.51
449.11	33460.23
449.316	32786.44
449.522	33449.99
449.728	34285.56
449.935	34420.72
450.141	34308.08
450.347	35500
450.553	34299.89
450.76	34652.14
450.966	35727.33
451.172	35416.04
451.378	36106.2
451.584	35573.73
451.791	36333.53
451.997	36351.96
452.203	36675.54
452.409	36702.16
452.615	36722.64
452.821	35358.69
453.027	34985.96
453.233	36581.33
453.44	35080.17
453.646	35407.84
453.852	35676.13
454.058	36354.01
454.264	35151.85
454.47	36001.75
454.676	34709.49
454.882	36095.96
455.088	33054.73
455.294	33204.23
455.5	34199.54
455.705	34177.01
455.911	32944.14
456.117	32290.84
456.323	31633.44
456.529	29945.91
456.735	31256.61
456.941	30521.39
457.147	29995.06
457.352	29241.41
457.558	28545.1
457.764	28745.8
457.97	28117.07
458.176	27306.08
458.381	27402.33
458.587	26312.81
458.793	26124.4
458.999	25018.5
459.204	26609.77
459.41	25583.74
459.616	23951.51
459.821	24195.21
460.027	23931.03
460.233	23642.26
460.438	22241.45
460.644	22610.09
460.85	21569.72
461.055	21151.93
461.261	21186.75
461.466	19658.96
461.672	19142.88
461.878	20318.41
462.083	19146.97
462.289	18968.8
462.494	18575.59
462.7	17719.54
462.905	17406.2
463.111	17854.7
463.316	17899.76
463.522	17336.57
463.727	17461.49
463.932	17588.47
464.138	17142.01
464.343	17596.66
464.549	16707.84
464.754	17219.83
464.959	17125.63
465.165	17217.79
465.37	16245
465.575	16034.06
465.781	16480.52
465.986	16713.98
466.191	16038.16
466.397	15528.21
466.602	14924.06
466.807	15579.41
467.012	15540.5
467.218	15554.83
467.423	15130.91
467.628	15520.02
467.833	15862.03
468.038	15358.23
468.244	14502.18
468.449	15577.36
468.654	15145.24
468.859	15028.51
469.064	14938.4
469.269	14375.2
469.474	14393.64
469.679	14645.54
469.885	14330.15
470.09	14524.71
470.295	14162.22
470.5	14078.25
470.705	14006.57
470.91	13855.02
471.115	13805.87
471.32	14065.96
471.525	13676.85
471.73	13250.87
471.935	13457.71
472.139	12874.04
472.344	13031.74
472.549	12931.39
472.754	12697.92
472.959	12601.66
473.164	12255.56
473.369	12091.72
473.574	12869.95
473.778	12265.8
473.983	12327.24
474.188	12259.65
474.393	11675.98
474.598	11692.37
474.802	11559.25
475.007	11483.47
475.212	11725.13
475.417	11086.17
475.621	11024.73
475.826	10959.19
476.031	11000.15
476.235	10703.2
476.44	10844.51
476.645	10774.88
476.849	10672.48
477.054	10498.4
477.259	10441.06
477.463	10430.82
477.668	10072.42
477.872	10451.3
478.077	10047.85
478.282	9877.87
478.486	9791.85
478.691	9607.53
478.895	9720.17
479.1	9509.23
479.304	9820.52
479.509	9238.9
479.713	9570.67
479.918	9257.33
480.122	9222.52
480.326	9349.49
480.531	9398.64
480.735	9423.22
480.94	9238.9
481.144	9517.42
481.348	9007.48
481.553	9152.88
481.757	8960.38
481.961	8993.14
482.166	8948.09
482.37	8927.61
482.574	8946.04
482.778	9068.92
482.983	9138.55
483.187	8931.7
483.391	9052.53
483.595	8868.22
483.8	8999.29
484.004	8980.85
484.208	9163.12
484.412	8835.45
484.616	9021.81
484.821	8976.76
485.025	8804.73
485.229	8810.87
485.433	8792.44
485.637	8833.4
485.841	9068.92
486.045	8776.06
486.249	8894.84
486.453	8933.75
486.657	9075.06
486.861	9042.29
487.065	8595.84
487.269	8907.13
487.473	8630.65
487.677	8866.17
487.881	8968.57
488.085	8823.16
488.289	9169.27
488.493	8878.46
488.697	9238.9
488.901	8974.71
489.105	8909.18
489.309	8948.09
489.512	8968.57
489.716	8819.07
489.92	8999.29
490.124	8886.65
490.328	9128.31
490.531	8997.24
490.735	9310.58
490.939	9130.36
491.143	9232.76
491.346	9132.4
491.55	9318.77
491.754	9181.56
491.958	9398.64
492.161	9474.42
492.365	9392.5
492.569	9546.09
492.772	9392.5
492.976	9351.54
493.18	9400.69
493.383	9761.13
493.587	9761.13
493.79	9757.04
493.994	9658.73
494.197	9736.56
494.401	9931.11
494.605	9867.63
494.808	9841
495.012	10187.11
495.215	10090.85
495.419	10197.35
495.622	10166.63
495.825	10228.07
496.029	10342.75
496.232	10482.02
496.436	10563.93
496.639	10930.52
496.843	10834.27
497.046	11075.93
497.249	11071.83
497.453	11108.69
497.656	11209.04
497.859	10969.43
498.063	11516.24
498.266	11485.52
498.469	11671.89
498.673	11839.82
498.876	11725.13
499.079	12069.19
499.282	12134.73
499.485	12273.99
499.689	12263.75
499.892	12443.97
500.095	12534.08
500.298	12753.21
500.501	12509.51
500.705	12939.58
500.908	12996.92
501.111	13265.21
501.314	13465.91
501.517	13404.47
501.72	13744.43
501.923	13551.92
502.126	13816.11
502.329	14186.79
502.532	14561.57
502.735	14367.01
502.938	14594.34
503.141	14817.57
503.344	14795.04
503.547	14872.86
503.75	15296.79
503.953	15464.72
504.156	15468.82
504.359	15542.55
504.562	15583.51
504.765	16161.03
504.968	16322.82
505.17	16494.85
505.373	16380.17
505.576	16677.12
505.779	16929.02
505.982	17115.39
506.185	17426.68
506.387	17230.07
506.59	17649.91
506.793	17701.11
506.996	17520.88
507.198	18442.47
507.401	18362.6
507.604	18335.98
507.807	18802.91
508.009	18839.78
508.212	18770.15
508.415	19103.96
508.617	19581.14
508.82	19593.43
509.022	19511.51
509.225	19941.58
509.428	19816.66
509.63	20201.68
509.833	20220.11
510.035	21115.07
510.238	20773.06
510.44	20959.42
510.643	21317.82
510.845	21240
511.048	21366.97
511.25	21934.26
511.453	22073.52
511.655	22681.77
511.858	22360.23
512.06	22579.37
512.262	22837.41
512.465	22812.84
512.667	23140.51
512.87	23580.82
513.072	23402.65
513.274	23945.36
513.477	23933.07
513.679	24273.04
513.881	24363.15
514.084	25034.88
514.286	24828.04
514.488	25049.22
514.69	25639.03
514.893	25811.06
515.095	25714.81
515.297	26286.19
515.499	26128.5
515.701	26519.66
515.904	26873.96
516.106	27234.4
516.308	27314.27
516.51	27523.16
516.712	27736.15
516.914	27906.13
517.116	28530.76
517.318	28459.09
517.52	28942.41
517.722	28696.65
517.925	29349.95
518.127	29413.44
518.329	29970.49
518.531	29780.03
518.733	30375.98
518.935	30066.74
519.136	30584.88
519.338	31107.11
519.54	30996.52
519.742	31483.94
519.944	31318.05
520.146	32223.25
520.348	32274.45
520.55	32262.16
520.752	32127
520.954	32747.53
521.155	32960.52
521.357	33284.1
521.559	33484.8
521.761	34007.03
521.963	34099.19
522.164	34303.99
522.366	34263.03
522.568	34840.56
522.77	35231.72
522.971	35434.47
523.173	35307.49
523.375	35467.23
523.576	35731.42
523.778	35669.98
523.98	36245.46
524.181	36212.7
524.383	36429.78
524.584	36988.88
524.786	37404.61
524.988	36923.34
525.189	37730.24
525.391	37765.06
525.592	37644.23
525.794	38129.59
525.995	38346.68
526.197	38461.37
526.398	38758.32
526.6	38856.62
526.801	39139.24
527.003	38930.35
527.204	39184.3
527.406	39804.83
527.607	39862.18
527.808	40302.49
528.01	39536.55
528.211	40021.92
528.412	40697.75
528.614	40822.67
528.815	40511.38
529.016	40939.41
529.218	40791.95
529.419	41246.6
529.62	41121.68
529.822	41410.44
530.023	41625.48
530.224	41525.13
530.425	41269.13
530.626	41125.77
530.828	41414.54
531.029	42508.15
531.23	41934.72
531.431	41648
531.632	42243.96
531.833	42166.14
532.035	42504.06
532.236	42403.7
532.437	42493.82
532.638	42221.44
532.839	42817.39
533.04	43198.32
533.241	42106.75
533.442	43374.44
533.643	43095.92
533.844	42755.96
534.045	43011.95
534.246	42737.52
534.447	43327.34
534.648	42839.92
534.849	43032.43
535.05	42819.44
535.251	43052.91
535.451	42958.7
535.652	43515.75
535.853	43224.94
536.054	43464.55
536.255	43370.35
536.456	42997.62
536.657	43943.78
536.857	43310.96
537.058	43032.43
537.259	43700.07
537.46	43638.63
537.66	43042.67
537.861	43437.93
538.062	43339.63
538.263	43540.33
538.463	43403.11
538.664	43368.3
538.865	43427.69
539.065	43585.38
539.266	43136.88
539.466	43898.72
539.667	43085.68
539.868	43927.39
540.068	43255.66
540.269	43493.22
540.469	43614.05
540.67	43083.63
540.87	43409.26
541.071	43569
541.271	43646.82
541.472	43411.31
541.672	43171.69
541.873	43536.23
542.073	42932.08
542.274	43667.3
542.474	43173.74
542.675	42811.25
542.875	43630.44
543.075	43532.14
543.276	43208.56
543.476	43695.97
543.676	43372.39
543.877	43460.46
544.077	43474.79
544.277	43638.63
544.478	43394.92
544.678	43753.32
544.878	43745.12
545.078	43290.48
545.279	43525.99
545.479	43257.71
545.679	43247.47
545.879	43128.69
546.079	43265.9
546.28	43384.68
546.48	42549.11
546.68	43589.48
546.88	43171.69
547.08	43515.75
547.28	43003.76
547.48	42784.63
547.68	42932.08
547.88	43128.69
548.081	43368.3
548.281	43298.67
548.481	42987.38
548.681	43552.62
548.881	43216.75
549.081	43564.9
549.28	43054.96
549.48	43167.6
549.68	43020.14
549.88	43679.59
550.08	42577.78
550.28	43286.38
550.48	42940.27
550.68	43368.3
550.88	43147.12
551.08	43130.73
551.279	43286.38
551.479	42639.22
551.679	43085.68
551.879	42827.63
552.079	43106.16
552.278	42733.43
552.478	43136.88
552.678	42774.39
552.878	42805.11
553.077	42497.91
553.277	42571.64
553.477	42995.57
553.676	42784.63
553.876	42970.99
554.076	42657.65
554.275	42835.83
554.475	42272.63
554.674	42692.47
554.874	42401.66
555.074	42409.85
555.273	42682.23
555.473	42671.99
555.672	42280.83
555.872	42321.79
556.071	42471.29
556.271	42389.37
556.47	42168.19
556.67	41697.16
556.869	42221.44
557.068	42000.26
557.268	41746.31
557.467	42125.18
557.667	41838.47
557.866	41838.47
558.065	41795.46
558.265	41559.94
558.464	41215.88
558.663	41877.38
558.863	41152.4
559.062	41688.96
559.261	40923.02
559.461	41561.99
559.66	41125.77
559.859	41367.43
560.058	40681.36
560.258	41082.77
560.457	40810.39
560.656	40697.75
560.855	40417.18
561.054	40429.46
561.253	40073.12
561.453	40447.89
561.652	40380.31
561.851	40546.2
562.05	40206.23
562.249	40282.01
562.448	40161.18
562.647	39987.1
562.846	39841.7
563.045	39780.26
563.244	39542.69
563.443	39677.86
563.642	39153.58
563.841	39702.43
564.04	38883.25
564.239	39604.13
564.438	38977.45
564.637	39045.04
564.836	38846.38
565.035	38356.92
565.234	38623.15
565.432	38102.97
565.631	38033.34
565.83	38551.48
566.029	38301.62
566.228	38016.96
566.427	38014.91
566.625	37928.89
566.824	37797.82
567.023	37857.21
567.222	36808.65
567.42	37674.95
567.619	37486.53
567.818	37167.05
568.016	36976.59
568.215	37474.24
568.414	36452.31
568.612	37117.9
568.811	36724.69
569.01	36593.62
569.208	36407.25
569.407	36638.67
569.605	36120.54
569.804	36278.23
570.002	35667.94
570.201	35811.29
570.4	35635.17
570.598	35481.57
570.797	35383.27
570.995	35315.69
571.193	34897.9
571.392	35360.74
571.59	35004.39
571.789	35123.18
571.987	34924.52
572.186	34760.69
572.384	34504.69
572.582	34705.39
572.781	34844.65
572.979	33923.07
573.177	34144.25
573.376	34467.83
573.574	33802.24
573.772	34275.32
573.971	34111.48
574.169	33892.35
574.367	33447.94
574.565	33517.57
574.763	33368.07
574.962	33226.76
575.16	33056.78
575.358	33148.93
575.556	33013.77
575.754	33181.7
575.952	32612.37
576.151	33015.82
576.349	32417.81
576.547	32239.64
576.745	32559.12
576.943	32387.09
577.141	32294.93
577.339	32634.89
577.537	32057.37
577.735	31911.96
577.933	31672.35
578.131	31985.69
578.329	31625.25
578.527	31516.7
578.725	31485.98
578.923	31498.27
579.121	31352.87
579.319	31356.96
579.516	31066.15
579.714	31189.03
579.912	30695.47
580.11	30636.08
580.308	30548.01
580.506	30658.6
580.704	30525.49
580.901	30402.61
581.099	30718
581.297	30117.94
581.495	30220.34
581.692	30214.19
581.89	29804.6
582.088	30044.21
582.285	29306.94
582.483	29941.82
582.681	29927.48
582.878	29812.79
583.076	29640.76
583.274	29419.58
583.471	29345.86
583.669	29493.31
583.866	29196.35
584.064	29671.48
584.262	28995.65
584.459	29065.28
584.657	28788.81
584.854	29042.76
585.052	28272.72
585.249	28491.85
585.447	28786.76
585.644	28334.16
585.841	28639.31
586.039	28514.38
586.236	28067.92
586.434	28141.65
586.631	28002.39
586.828	28248.14
587.026	27848.79
587.223	27992.15
587.42	27785.3
587.618	28121.17
587.815	27433.05
588.012	27170.91
588.21	27281.5
588.407	27709.53
588.604	27230.3
588.801	27218.02
588.999	27215.97
589.196	26878.05
589.393	27121.76
589.59	27158.63
589.787	26843.24
589.984	26687.59
590.182	26269.81
590.379	26548.33
590.576	26476.65
590.773	26609.77
590.97	26175.6
591.167	26548.33
591.364	26134.64
591.561	26388.59
591.758	25806.97
591.955	26087.54
592.152	25913.46
592.349	25667.7
592.546	25596.03
592.743	25630.84
592.94	25473.15
593.137	25196.67
593.334	25159.81
593.531	25106.56
593.727	25473.15
593.924	25038.98
594.121	24877.19
594.318	25073.79
594.515	24402.06
594.712	25057.41
594.908	24248.46
595.105	25004.16
595.302	24664.2
595.499	24678.54
595.696	24461.45
595.892	24273.04
596.089	24445.07
596.286	24400.01
596.482	24295.57
596.679	24098.96
596.876	24070.29
597.072	23881.88
597.269	24264.85
597.466	23797.91
597.662	23832.72
597.859	23609.5
598.055	23621.78
598.252	23470.23
598.448	23486.62
598.645	23349.4
598.841	23097.5
599.038	23279.77
599.234	23185.57
599.431	23206.05
599.627	22868.13
599.824	23068.83
600.02	22552.74
600.217	22945.95
600.413	22386.86
600.609	22558.89
600.806	22345.9
601.002	22692.01
601.198	22384.81
601.395	22282.41
601.591	22315.18
601.787	22249.64
601.984	21817.52
602.18	22636.71
602.376	22094
602.572	21901.49
602.769	21719.22
602.965	21541.05
603.161	21901.49
603.357	21817.52
603.553	21354.68
603.75	21565.62
603.946	21549.24
604.142	21524.66
604.338	21334.2
604.534	21373.11
604.73	21100.73
604.926	21194.94
605.122	20871.36
605.318	20934.85
605.514	20707.52
605.71	21018.82
605.906	20496.58
606.102	20674.76
606.298	20574.41
606.494	20478.15
606.69	20900.03
606.886	20703.43
607.082	20146.38
607.278	20627.65
607.474	20007.12
607.67	20451.53
607.866	19986.64
608.062	20476.1
608.257	20078.8
608.453	20025.55
608.649	20060.37
608.845	20166.86
609.041	19896.53
609.236	19935.44
609.432	19822.8
609.628	19765.46
609.824	19925.2
610.019	19679.44
610.215	19779.79
610.411	19929.3
610.606	19505.37
610.802	19480.79
610.998	19650.77
611.193	19378.39
611.389	19347.67
611.584	19402.97
611.78	19130.59
611.976	19065.05
612.171	19241.18
612.367	19106.01
612.562	19075.29
612.758	18675.94
612.953	19013.85
613.149	19222.75
613.344	18624.74
613.539	19286.23
613.735	18788.58
613.93	19146.97
614.126	18919.65
614.321	18974.94
614.517	18802.91
614.712	18577.64
614.907	18688.23
615.103	18952.41
615.298	18510.05
615.493	18569.44
615.688	18626.79
615.884	18764
616.079	18352.36
616.274	18725.09
616.47	18487.53
616.665	18370.79
616.86	18378.98
617.055	18372.84
617.25	17772.78
617.445	18413.8
617.641	17920.24
617.836	18092.27
618.031	17709.3
618.226	18006.25
618.421	17959.15
618.616	18008.3
618.811	17744.11
619.006	17791.22
619.201	17447.16
619.396	17541.36
619.591	17428.73
619.786	17555.7
619.981	17096.96
620.176	17291.51
620.371	17101.05
620.566	17033.47
620.761	16953.6
620.956	17092.86
621.151	16890.11
621.346	17144.06
621.541	16720.13
621.735	16814.34
621.93	16169.23
622.125	16742.66
622.32	16294.15
622.515	16249.1
622.709	16208.14
622.904	16130.31
623.099	16113.93
623.294	16003.34
623.488	15927.56
623.683	15698.19
623.878	15735.06
624.072	15628.56
624.267	15608.08
624.462	15436.05
624.656	15180.06
624.851	15479.06
625.046	15288.6
625.24	15350.04
625.435	15022.36
625.629	14911.77
625.824	15149.34
626.018	14770.46
626.213	14600.48
626.407	14711.07
626.602	14536.99
626.796	14504.23
626.991	14649.63
627.185	14324.01
627.38	14383.4
627.574	14182.7
627.768	14080.3
627.963	14178.6
628.157	13834.54
628.352	14135.59
628.546	13787.44
628.74	13953.32
628.935	13658.42
629.129	13562.16
629.323	13738.29
629.517	13424.95
629.712	13416.76
629.906	13152.57
630.1	13232.44
630.294	13297.97
630.489	13187.38
630.683	13048.12
630.877	12892.48
631.071	12878.14
631.265	12898.62
631.459	12704.06
631.653	12659.01
631.848	12669.25
632.042	12712.25
632.236	12529.98
632.43	12558.66
632.624	12597.57
632.818	12257.6
633.012	12171.59
633.206	12183.88
633.4	12099.91
633.594	12003.66
633.788	12046.66
633.982	11991.37
634.176	11923.79
634.369	11858.25
634.563	11645.26
634.757	11598.16
634.951	11759.95
635.145	11575.63
635.339	11848.01
635.533	11729.23
635.726	11637.07
635.92	11401.55
636.114	11143.51
636.308	11233.62
636.501	11342.16
636.695	11338.07
636.889	10987.86
637.083	11104.6
637.276	10891.61
637.47	11057.5
637.664	10858.84
637.857	10817.88
638.051	10973.53
638.244	10635.61
638.438	10920.28
638.632	10785.12
638.825	10475.87
639.019	10611.04
639.212	10533.22
639.406	10434.91
639.599	10391.91
639.793	10176.87
639.986	10180.96
640.18	10291.55
640.373	9992.55
640.567	9974.12
640.76	10135.91
640.954	9693.55
641.147	9892.2
641.34	9650.54
641.534	9959.78
641.727	9677.16
641.92	9625.97
642.114	9591.15
642.307	9769.32
642.5	9607.53
642.694	9154.93
642.887	9193.84
643.08	9394.54
643.273	9417.07
643.467	9419.12
643.66	9226.61
643.853	9288.05
644.046	9083.25
644.239	8943.99
644.432	9034.1
644.626	8952.18
644.819	8962.42
645.012	8907.13
645.205	8882.55
645.398	8796.54
645.591	8739.19
645.784	8978.81
645.977	8569.21
646.17	8694.14
646.363	8382.85
646.556	8432
646.749	8397.18
646.942	8587.64
647.135	8413.57
647.328	8319.36
647.521	8485.25
647.714	8018.31
647.907	8386.94
648.099	8317.31
648.292	8165.76
648.485	8089.99
648.678	7963.01
648.871	8042.89
649.064	7956.87
649.256	8001.93
649.449	7934.34
649.642	7844.23
649.835	7860.62
650.027	7887.24
650.22	7752.07
650.413	7735.69
650.605	7637.39
650.798	7616.91
650.991	7645.58
651.183	7625.1
651.376	7451.02
651.568	7485.84
651.761	7399.82
651.954	7510.41
652.146	7383.44
652.339	7332.24
652.531	7283.09
652.724	7172.5
652.916	7420.3
653.109	7145.87
653.301	7133.59
653.494	7244.18
653.686	7240.08
653.879	7197.07
654.071	7002.52
654.263	6973.85
654.456	7010.71
654.648	6830.49
654.84	6683.03
655.033	6838.68
655.225	6879.64
655.417	6611.36
655.61	6631.83
655.802	6699.42
655.994	6767
656.186	6756.76
656.379	6658.46
656.571	6590.88
656.763	6615.45
656.955	6637.98
657.148	6539.68
657.34	6693.27
657.532	6369.69
657.724	6398.37
657.916	6523.29
658.108	6457.76
658.3	6375.84
658.492	6363.55
658.684	6109.6
658.876	6341.02
659.068	6191.52
659.26	6199.71
659.452	6216.1
659.644	6130.08
659.836	6265.25
660.028	6050.21
660.22	5945.77
660.412	6064.55
660.604	5937.57
660.796	6001.06
660.988	6156.71
661.18	6017.44
661.372	5935.53
661.563	5937.57
661.755	5999.01
661.947	5777.83
662.139	5847.46
662.331	5829.03
662.522	5738.92
662.714	5788.07
662.906	5761.45
663.097	5847.46
663.289	5673.39
663.481	5663.15
663.673	5702.06
663.864	5628.33
664.056	5591.47
664.247	5616.04
664.439	5609.9
664.631	5622.19
664.822	5386.67
665.014	5527.98
665.205	5544.36
665.397	5554.6
665.588	5544.36
665.78	5355.95
665.971	5372.33
666.163	5460.4
666.354	5364.14
666.546	5362.09
666.737	5448.11
666.929	5360.05
667.12	5265.84
667.311	5405.1
667.503	5314.99
667.694	5441.96
667.885	5253.55
668.077	5271.98
668.268	5257.65
668.459	5331.37
668.651	5210.54
668.842	5376.43
669.033	5192.11
669.224	5239.22
669.416	5149.11
669.607	5198.26
669.798	5198.26
669.989	5190.06
670.18	5177.78
670.371	5050.8
670.563	5200.3
670.754	5149.11
670.945	5134.77
671.136	5118.39
671.327	5054.9
671.518	5175.73
671.709	5171.63
671.9	5181.87
672.091	5167.54
672.282	5036.47
672.473	5077.43
672.664	5241.26
672.855	5050.8
673.046	5173.68
673.237	5112.24
673.428	5165.49
673.619	5108.15
673.809	4989.36
674	5159.35
674.191	5110.19
674.382	5175.73
674.573	5089.71
674.764	5126.58
674.954	5134.77
675.145	5167.54
675.336	5190.06
675.527	5132.72
675.717	5142.96
675.908	5061.04
676.099	5003.7
676.289	5265.84
676.48	5190.06
676.671	5177.78
676.861	5093.81
677.052	5183.92
677.243	5044.66
677.433	5124.53
677.624	5245.36
677.814	5163.44
678.005	5179.82
678.195	5255.6
678.386	5224.88
678.576	5183.92
678.767	5099.95
678.957	5151.15
679.148	5241.26
679.338	5243.31
679.529	5351.85
679.719	5183.92
679.909	5421.49
680.1	5274.03
680.29	5267.89
680.481	5276.08
680.671	5224.88
680.861	5253.55
681.052	5544.36
681.242	5329.33
681.432	5427.63
681.622	5339.57
681.813	5452.2
682.003	5411.25
682.193	5429.68
682.383	5370.29
682.573	5323.18
682.764	5484.97
682.954	5601.71
683.144	5462.44
683.334	5458.35
683.524	5495.21
683.714	5417.39
683.904	5296.56
684.094	5527.98
684.284	5521.84
684.474	5618.09
684.664	5454.25
684.854	5353.9
685.044	5515.69
685.234	5269.94
685.424	5417.39
685.614	5407.15
685.804	5415.34
685.994	5511.6
686.184	5407.15
686.374	5314.99
686.564	5302.7
686.753	5343.66
686.943	5138.87
687.133	5206.45
687.323	5183.92
687.513	5286.32
687.702	5200.3
687.892	5052.85
688.082	5114.29
688.272	5050.8
688.461	5083.57
688.651	5032.37
688.841	5056.95
689.03	5050.8
689.22	4929.97
689.41	5220.78
689.599	4919.73
689.789	4884.92
689.979	4942.26
690.168	4821.43
690.358	4987.32
690.547	4729.27
690.737	4917.68
690.926	4727.22
691.116	4600.25
691.305	4716.98
691.495	4772.28
691.684	4518.33
691.874	4508.09
692.063	4520.38
692.252	4520.38
692.442	4577.72
692.631	4336.06
692.82	4430.27
693.01	4280.77
693.199	4526.52
693.388	4399.55
693.578	4487.61
693.767	4362.69
693.956	4360.64
694.146	4270.53
694.335	4331.97
694.524	4250.05
694.713	4401.6
694.902	4209.09
695.092	4329.92
695.281	4168.13
695.47	4176.32
695.659	4116.93
695.848	4217.28
696.037	4143.55
696.226	4016.58
696.415	4055.49
696.604	4014.53
696.793	4014.53
696.982	4102.59
697.171	3944.9
697.36	3897.8
697.549	3992
697.738	3930.56
697.927	3959.24
698.116	4086.21
698.305	3922.37
698.494	3797.45
698.683	3912.13
698.872	4053.44
699.061	3936.71
699.25	3908.04
699.438	4028.87
699.627	3877.32
699.816	4037.06
700.005	3895.75
700.193	3856.84
700.382	3930.56
700.571	3875.27
700.76	3891.65
700.948	4100.55
701.137	3856.84
701.326	3881.41
701.514	3754.44
701.703	3865.03
701.892	3959.24
702.08	3977.67
702.269	4045.25
702.457	3967.43
702.646	3793.35
702.834	3869.12
703.023	3944.9
703.212	3916.23
703.4	3953.09
703.589	3955.14
703.777	3940.8
703.965	4002.24
704.154	3838.41
704.342	4035.01
704.531	3981.76
704.719	3873.22
704.907	3971.52
705.096	3971.52
705.284	3963.33
705.472	3987.91
705.661	3865.03
705.849	3959.24
706.037	3934.66
706.226	4004.29
706.414	4043.2
706.602	4045.25
706.79	4026.82
706.979	3938.76
707.167	4045.25
707.355	3951.04
707.543	4125.12
707.731	3940.8
707.919	4090.31
708.107	3996.1
708.296	4182.46
708.484	3975.62
708.672	4102.59
708.86	4073.92
709.048	4094.4
709.236	4106.69
709.424	4143.55
709.612	4155.84
709.8	4176.32
709.988	4078.02
710.176	4250.05
710.364	4204.99
710.551	4155.84
710.739	4372.93
710.927	4305.34
711.115	4164.03
711.303	4260.29
711.491	4340.16
711.679	4135.36
711.866	4282.81
712.054	4323.77
712.242	4299.2
712.43	4368.83
712.617	4291.01
712.805	4299.2
712.993	4504
713.181	4346.3
713.368	4348.35
713.556	4452.8
713.744	4444.6
713.931	4585.91
714.119	4446.65
714.306	4475.32
714.494	4561.34
714.682	4514.24
714.869	4417.98
715.057	4598.2
715.244	4422.08
715.432	4608.44
715.619	4561.34
715.807	4676.02
715.994	4696.5
716.182	4612.54
716.369	4729.27
716.556	4788.66
716.744	4784.57
716.931	4706.74
717.119	4692.41
717.306	4815.29
717.493	4848.05
717.681	4972.98
717.868	4837.81
718.055	4981.17
718.242	4884.92
718.43	4917.68
718.617	4954.55
718.804	4817.33
718.991	5032.37
719.179	5005.75
719.366	4913.59
719.553	5015.99
719.74	4946.36
719.927	5038.52
720.114	4962.74
720.301	4968.88
720.488	4876.73
720.676	5177.78
720.863	5044.66
721.05	5136.82
721.237	5181.87
721.424	5231.02
721.611	5216.69
721.798	5163.44
721.985	5231.02
722.172	5124.53
722.358	5122.48
722.545	5233.07
722.732	5306.8
722.919	5362.09
723.106	5214.64
723.293	5317.04
723.48	5452.2
723.667	5380.53
723.853	5204.4
724.04	5355.95
724.227	5304.75
724.414	5470.64
724.6	5276.08
724.787	5433.77
724.974	5519.79
725.161	5478.83
725.347	5353.9
725.534	5396.91
725.72	5493.16
725.907	5499.31
726.094	5609.9
726.28	5372.33
726.467	5534.12
726.653	5794.22
726.84	5681.58
727.027	5691.82
727.213	5530.03
727.4	5513.64
727.586	5646.76
727.773	5697.96
727.959	5663.15
728.145	5706.15
728.332	5589.42
728.518	5720.49
728.705	5626.28
728.891	5726.63
729.077	5683.63
729.264	5773.74
729.45	5665.19
729.636	5779.88
729.823	5700.01
730.009	5773.74
730.195	5820.84
730.382	5886.37
730.568	5923.24
730.754	6033.83
730.94	5933.48
731.126	5818.79
731.313	5935.53
731.499	5888.42
731.685	5812.65
731.871	5796.26
732.057	5890.47
732.243	5919.14
732.429	5806.5
732.615	5931.43
732.801	5960.1
732.987	5831.08
733.173	5935.53
733.359	5999.01
733.545	5878.18
733.731	5749.16
733.917	5939.62
734.103	6087.08
734.289	5968.29
734.475	6078.88
734.661	6154.66
734.847	6072.74
735.033	6056.36
735.219	6117.79
735.404	5906.85
735.59	5972.39
735.776	5968.29
735.962	6007.2
736.148	6062.5
736.333	6125.99
736.519	6115.75
736.705	5939.62
736.89	6097.31
737.076	6013.35
737.262	6044.07
737.447	5978.53
737.633	5904.81
737.819	5984.68
738.004	5863.85
738.19	6025.64
738.375	5833.13
738.561	6181.28
738.747	6031.78
738.932	6029.73
739.118	6058.4
739.303	6058.4
739.489	5927.33
739.674	5953.96
739.859	5872.04
740.045	5917.09
740.23	5913
740.416	6003.11
740.601	6019.49
740.786	5872.04
740.972	5853.61
741.157	5835.17
741.342	5704.1
741.528	5831.08
741.713	5886.37
741.898	5812.65
742.084	5818.79
742.269	5800.36
742.454	5863.85
742.639	5816.74
742.824	5689.77
743.01	5593.51
743.195	5669.29
743.38	5519.79
743.565	5585.32
743.75	5691.82
743.935	5616.04
744.12	5724.58
744.305	5454.25
744.49	5566.89
744.675	5609.9
744.86	5450.16
745.045	5394.86
745.23	5503.4
745.415	5532.08
745.6	5458.35
745.785	5349.81
745.97	5298.61
746.155	5298.61
746.34	5290.42
746.525	5188.02
746.71	5327.28
746.895	5167.54
747.079	5173.68
747.264	5077.43
747.449	5126.58
747.634	5093.81
747.819	5095.86
748.003	5085.62
748.188	5044.66
748.373	5028.28
748.557	4880.82
748.742	4805.05
748.927	4864.44
749.111	4837.81
749.296	4807.09
749.481	4778.42
749.665	4790.71
749.85	4731.32
750.034	4737.46
750.219	4524.47
750.404	4716.98
750.588	4600.25
750.773	4381.12
750.957	4647.35
751.141	4512.19
751.326	4463.04
751.51	4428.22
751.695	4413.88
751.879	4473.28
752.064	4438.46
752.248	4352.45
752.432	4524.47
752.617	4223.42
752.801	4258.24
752.985	4241.86
753.17	4159.94
753.354	4159.94
753.538	4196.8
753.722	4032.96
753.907	4043.2
754.091	3815.88
754.275	4006.34
754.459	4035.01
754.643	3932.61
754.828	3787.21
755.012	3946.95
755.196	3893.7
755.38	3738.05
755.564	3776.97
755.748	3662.28
755.932	3740.1
756.116	3686.86
756.3	3799.49
756.484	3664.33
756.668	3643.85
756.852	3623.37
757.036	3660.23
757.22	3506.63
757.404	3541.45
757.588	3389.9
757.772	3600.84
757.956	3416.52
758.14	3520.97
758.323	3412.43
758.507	3410.38
758.691	3398.09
758.875	3303.89
759.059	3303.89
759.242	3291.6
759.426	3221.97
759.61	3256.78
759.794	3258.83
759.977	3217.87
760.161	3242.45
760.345	3256.78
760.528	3254.73
760.712	3170.77
760.895	3094.99
761.079	3084.75
761.263	3000.79
761.446	3109.33
761.63	2937.3
761.813	2976.21
761.997	3084.75
762.18	2916.82
762.364	2990.55
762.547	2898.39
762.731	2972.11
762.914	3013.07
763.098	2871.76
763.281	3045.84
763.464	2787.8
763.648	2859.48
763.831	2828.76
764.015	2703.83
764.198	2773.46
764.381	2834.9
764.564	2861.52
764.748	2703.83
764.931	2693.59
765.114	2849.24
765.297	2621.91
765.481	2673.11
765.664	2593.24
765.847	2628.06
766.03	2638.3
766.213	2570.71
766.397	2701.78
766.58	2634.2
766.763	2671.06
766.946	2496.99
767.129	2329.05
767.312	2535.9
767.495	2521.56
767.678	2556.38
767.861	2451.93
768.044	2511.32
768.227	2437.59
768.41	2413.02
768.593	2464.22
768.776	2378.2
768.959	2353.63
769.142	2447.83
769.324	2525.66
769.507	2509.27
769.69	2222.56
769.873	2234.85
770.056	2386.4
770.239	2329.05
770.421	2302.43
770.604	2308.57
770.787	2304.48
770.97	2273.76
771.152	2224.61
771.335	2183.65
771.518	2208.22
771.7	2171.36
771.883	2118.11
772.066	2148.83
772.248	2195.93
772.431	2247.13
772.613	2234.85
772.796	2140.64
772.978	2181.6
773.161	2185.69
773.343	2054.62
773.526	1993.19
773.708	2116.06
773.891	1956.32
774.073	2044.38
774.256	1946.08
774.438	2179.55
774.621	1987.04
774.803	2058.72
774.985	1919.46
775.168	1989.09
775.35	1935.84
775.532	1919.46
775.715	1921.51
775.897	1950.18
776.079	1952.23
776.261	1868.26
776.444	1827.3
776.626	1798.63
776.808	1692.13
776.99	1751.53
777.173	1872.36
777.355	1763.81
777.537	1747.43
777.719	1780.2
777.901	1692.13
778.083	1651.17
778.265	1645.03
778.447	1624.55
778.629	1610.22
778.811	1649.13
778.993	1688.04
779.175	1597.93
779.357	1681.89
779.539	1610.22
779.721	1616.36
779.903	1565.16
780.085	1520.1
780.267	1563.11
780.449	1522.15
780.631	1546.73
780.812	1458.67
780.994	1530.34
781.176	1493.48
781.358	1526.25
781.54	1421.8
781.721	1399.27
781.903	1358.32
782.085	1317.36
782.267	1300.97
782.448	1346.03
782.63	1346.03
782.812	1292.78
782.993	1421.8
783.175	1255.92
783.357	1288.68
783.538	1331.69
783.72	1178.09
783.901	1309.16
784.083	1262.06
784.264	1235.44
784.446	1227.25
784.627	1268.2
784.809	1325.55
784.99	1159.66
785.172	1268.2
785.353	1260.01
785.535	1210.86
785.716	1141.23
785.897	1069.55
786.079	1186.29
786.26	1169.9
786.441	1212.91
786.623	1104.37
786.804	1120.75
786.985	1042.93
787.167	1034.74
787.348	1047.02
787.529	1083.89
787.71	1184.24
787.891	1108.46
788.073	956.91
788.254	1051.12
788.435	1055.22
788.616	1130.99
788.797	946.67
788.978	1022.45
789.159	1006.06
789.34	915.95
789.522	932.34
789.703	971.25
789.884	874.99
790.065	938.48
790.246	999.92
790.427	926.19
790.607	932.34
790.788	961.01
790.969	866.8
791.15	1034.74
791.331	963.06
791.512	877.04
791.693	924.15
791.874	948.72
792.054	932.34
792.235	903.67
792.416	870.9
792.597	809.46
792.778	872.95
792.958	809.46
793.139	850.42
793.32	872.95
793.5	784.88
793.681	807.41
793.862	870.9
794.042	776.69
794.223	752.12
794.404	770.55
794.584	729.59
794.765	719.35
794.945	866.8
795.126	883.19
795.306	774.64
795.487	762.36
795.667	727.54
795.848	793.08
796.028	637.43
796.209	719.35
796.389	733.68
796.57	700.92
796.75	635.38
796.93	717.3
797.111	684.53
797.291	666.1
797.471	723.44
797.652	694.77
797.832	686.58
798.012	735.73
798.192	635.38
798.373	643.57
798.553	700.92
798.733	637.43
798.913	721.4
799.093	612.85
799.274	629.24
799.454	735.73
799.634	649.72
799.814	649.72
799.994	702.97
800.174	596.47
800.354	537.08
800.534	612.85
800.714	627.19
800.894	596.47
801.074	555.51
801.254	639.48
801.434	643.57
801.614	557.56
801.794	567.8
801.974	1282.54
802.154	670.2
802.334	641.53
802.514	596.47
802.693	535.03
802.873	539.13
803.053	596.47
803.233	586.23
803.413	639.48
803.592	530.94
803.772	483.83
803.952	555.51
804.131	571.9
804.311	455.16
804.491	578.04
804.67	455.16
804.85	489.98
805.03	545.27
805.209	539.13
805.389	522.74
805.568	516.6
805.748	403.96
805.928	530.94
806.107	582.14
806.287	524.79
806.466	526.84
806.646	537.08
806.825	485.88
807.004	496.12
807.184	461.3
807.363	588.28
807.543	481.78
807.722	426.49
807.901	510.46
808.081	504.31
808.26	391.67
808.439	473.59
808.619	514.55
808.798	498.17
808.977	473.59
809.156	459.26
809.336	481.78
809.515	483.83
809.694	485.88
809.873	387.58
810.052	432.63
810.231	399.87
810.411	416.25
810.59	461.3
810.769	465.4
810.948	506.36
811.127	420.35
811.306	438.78
811.485	350.71
811.664	473.59
811.843	444.92
812.022	455.16
812.201	426.49
812.38	418.3
812.559	317.95
812.737	446.97
812.916	301.56
813.095	350.71
813.274	381.43
813.453	432.63
813.632	371.19
813.811	465.4
813.989	371.19
814.168	428.54
814.347	381.43
814.526	365.05
814.704	416.25
814.883	428.54
815.062	424.44
815.24	377.34
815.419	354.81
815.598	342.52
815.776	293.37
815.955	420.35
816.133	332.28
816.312	373.24
816.49	365.05
816.669	391.67
816.847	397.82
817.026	332.28
817.204	334.33
817.383	354.81
817.561	352.76
817.74	365.05
817.918	381.43
818.097	313.85
818.275	342.52
818.453	340.47
818.632	285.18
818.81	358.91
818.988	244.22
819.167	328.19
819.345	334.33
819.523	281.08
819.701	334.33
819.879	295.42
820.058	309.76
820.236	342.52
820.414	268.8
820.592	303.61
820.77	299.52
820.948	272.89
821.127	299.52
821.305	219.64
821.483	244.22
821.661	338.43
821.839	301.56
822.017	231.93
822.195	276.99
822.373	297.47
822.551	268.8
822.729	289.28
822.907	272.89
823.085	285.18
823.262	221.69
823.44	279.04
823.618	231.93
823.796	332.28
823.974	225.79
824.152	252.41
824.329	283.13
824.507	309.76
824.685	283.13
824.863	211.45
825.04	274.94
825.218	274.94
825.396	264.7
825.574	350.71
825.751	334.33
825.929	301.56
826.107	256.51
826.284	322.04
826.462	217.6
826.639	242.17
826.817	150.01
826.994	158.21
827.172	162.3
827.349	215.55
827.527	227.84
827.704	250.36
827.882	242.17
828.059	276.99
828.237	170.49
828.414	238.08
828.591	158.21
828.769	188.93
828.946	141.82
829.124	307.71
829.301	227.84
829.478	305.66
829.655	289.28
829.833	250.36
830.01	184.83
830.187	233.98
830.364	205.31
830.542	195.07
830.719	215.55
830.896	240.12
831.073	195.07
831.25	256.51
831.427	217.6
831.604	258.56
831.782	154.11
831.959	272.89
832.136	182.78
832.313	260.6
832.49	190.97
832.667	195.07
832.844	248.32
833.021	158.21
833.198	211.45
833.374	182.78
833.551	244.22
833.728	168.45
833.905	184.83
834.082	162.3
834.259	256.51
834.436	186.88
834.612	190.97
834.789	225.79
834.966	211.45
835.143	182.78
835.319	215.55
835.496	231.93
835.673	240.12
835.85	231.93
836.026	131.58
836.203	252.41
836.38	125.44
836.556	276.99
836.733	160.25
836.909	225.79
837.086	150.01
837.262	100.86
837.439	184.83
837.616	139.77
837.792	135.68
837.968	154.11
838.145	113.15
838.321	225.79
838.498	80.38
838.674	154.11
838.851	207.36
839.027	152.06
839.203	133.63
839.38	201.21
839.556	213.5
839.732	137.73
839.909	104.96
840.085	186.88
840.261	145.92
840.437	225.79
840.614	178.69
840.79	141.82
840.966	178.69
841.142	160.25
841.318	86.53
841.494	141.82
841.671	72.19
841.847	117.25
842.023	92.67
842.199	135.68
842.375	207.36
842.551	113.15
842.727	211.45
842.903	125.44
843.079	104.96
843.255	121.34
843.431	121.34
843.607	147.97
843.783	82.43
843.959	219.64
844.134	176.64
844.31	152.06
844.486	94.72
844.662	117.25
844.838	127.49
845.013	39.42
845.189	104.96
845.365	68.09
845.541	98.81
845.716	141.82
845.892	119.29
846.068	168.45
846.244	96.77
846.419	92.67
846.595	119.29
846.77	72.19
846.946	170.49
847.122	186.88
847.297	80.38
847.473	55.81
847.648	57.86
847.824	92.67
847.999	86.53
848.175	131.58
848.35	141.82
848.526	201.21
848.701	162.3
848.876	104.96
849.052	98.81
849.227	35.33
849.403	180.73
849.578	80.38
849.753	145.92
849.929	61.95
850.104	61.95
850.279	49.66
850.454	113.15
850.63	137.73
850.805	94.72
850.98	113.15
851.155	72.19
851.33	162.3
851.505	80.38
851.681	141.82
851.856	135.68
852.031	82.43
852.206	96.77
852.381	47.62
852.556	111.1
852.731	96.77
852.906	143.87
853.081	90.62
853.256	137.73
853.431	162.3
853.606	96.77
853.781	12.8
853.956	31.23
854.131	88.57
854.305	162.3
854.48	37.38
854.655	104.96
854.83	131.58
855.005	121.34
855.18	35.33
855.354	92.67
855.529	-5.63
855.704	88.57
855.879	72.19
856.053	39.42
856.228	121.34
856.403	88.57
856.577	154.11
856.752	72.19
856.926	129.53
857.101	129.53
857.276	23.04
857.45	72.19
857.625	92.67
857.799	72.19
857.974	18.94
858.148	31.23
858.323	45.57
858.497	55.81
858.672	72.19
858.846	-17.92
859.02	90.62
859.195	-17.92
859.369	-44.54
859.543	70.14
859.718	55.81
859.892	141.82
860.066	94.72
860.241	51.71
860.415	61.95
860.589	53.76
860.763	64
860.938	80.38
861.112	41.47
861.286	-1.54
861.46	14.85
861.634	168.45
861.808	72.19
861.982	74.24
862.157	135.68
862.331	6.66
862.505	-13.82
862.679	55.81
862.853	125.44
863.027	-9.73
863.201	154.11
863.375	88.57
863.549	29.18
863.722	25.09
863.896	53.76
864.07	88.57
864.244	90.62
864.418	137.73
864.592	49.66
864.766	72.19
864.939	127.49
865.113	78.33
865.287	109.05
865.461	2.56
865.634	100.86
865.808	-11.78
865.982	78.33
866.156	-26.11
866.329	39.42
866.503	12.8
866.676	66.05
866.85	102.91
867.024	55.81
867.197	2.56
867.371	92.67
867.544	39.42
867.718	78.33
867.891	96.77
868.065	18.94
868.238	74.24
868.412	102.91
868.585	18.94
868.759	59.9
868.932	-26.11
869.105	49.66
869.279	76.29
869.452	39.42
869.625	115.2
869.799	41.47
869.972	25.09
870.145	80.38
870.319	57.86
870.492	-1.54
870.665	104.96
870.838	-3.58
871.011	-50.69
871.185	55.81
871.358	18.94
871.531	4.61
871.704	41.47
871.877	8.7
872.05	61.95
872.223	39.42
872.396	27.14
872.569	74.24
872.742	6.66
872.915	72.19
873.088	53.76
873.261	10.75
873.434	72.19
873.607	68.09
873.78	72.19
873.953	-58.88
874.126	-17.92
874.299	66.05
874.471	31.23
874.644	74.24
874.817	39.42
874.99	90.62
875.163	29.18
875.335	-19.97
875.508	-9.73
875.681	104.96
875.853	16.9
876.026	14.85
876.199	37.38
876.371	-1.54
876.544	-17.92
876.717	37.38
876.889	74.24
877.062	-26.11
877.234	88.57
877.407	16.9
877.579	16.9
877.752	61.95
877.924	12.8
878.097	66.05
878.269	45.57
878.442	51.71
878.614	43.52
878.786	31.23
878.959	72.19
879.131	113.15
879.303	23.04
879.476	18.94
879.648	25.09
879.82	55.81
879.993	45.57
880.165	64
880.337	-15.87
880.509	66.05
880.681	4.61
880.854	92.67
881.026	-11.78
881.198	84.48
881.37	61.95
881.542	72.19
881.714	23.04
881.886	31.23
882.058	-52.74
882.23	10.75
882.402	70.14
882.574	61.95
882.746	20.99
882.918	72.19
883.09	18.94
883.262	-22.02
883.434	14.85
883.606	12.8
883.778	104.96
883.95	-19.97
884.122	-22.02
884.293	127.49
884.465	-46.59
884.637	47.62
884.809	16.9
884.98	109.05
885.152	4.61
885.324	76.29
885.496	23.04
885.667	12.8
885.839	18.94
886.011	43.52
886.182	35.33
886.354	47.62
886.525	33.28
886.697	49.66
886.869	39.42
887.04	84.48
887.212	51.71
887.383	100.86
887.555	18.94
887.726	41.47
887.897	55.81
888.069	39.42
888.24	31.23
888.412	90.62
888.583	25.09
888.754	27.14
888.926	-87.55
889.097	6.66
889.268	-42.5
889.44	64
889.611	-34.3
889.782	27.14
889.953	-1.54
890.125	39.42
890.296	-34.3
890.467	0.51
890.638	-62.98
890.809	64
890.98	-38.4
891.151	27.14
891.323	20.99
891.494	74.24
891.665	64
891.836	6.66
892.007	39.42
892.178	94.72
892.349	45.57
892.52	66.05
892.691	4.61
892.862	-40.45
893.032	-62.98
893.203	16.9
893.374	18.94
893.545	61.95
893.716	51.71
893.887	-7.68
894.057	-15.87
894.228	113.15
894.399	31.23
894.57	-13.82
894.74	-3.58
894.911	92.67
895.082	-17.92
895.253	35.33
895.423	29.18
895.594	10.75
895.764	-11.78
895.935	-24.06
896.106	23.04
896.276	49.66
896.447	64
896.617	49.66
896.788	84.48
896.958	45.57
897.129	-46.59
897.299	0.51
897.47	90.62
897.64	70.14
897.81	-9.73
897.981	2.56
898.151	-1.54
898.322	-11.78
898.492	61.95
898.662	6.66
898.832	-26.11
899.003	-15.87
899.173	33.28
899.343	-5.63
899.513	-144.89
