Data from USB4F104151__42__11-30-24-313.txt Node

Date: Fri Mar 14 11:30:24 EDT 2025
User: louis
Spectrometer: USB4F10415
Trigger mode: 4
Integration Time (sec): 5.000000E-2
Scans to average: 1
Electric dark correction enabled: true
Nonlinearity correction enabled: false
Boxcar width: 0
XAxis mode: Wavelengths
Number of Pixels in Spectrum: 3648
>>>>>Begin Spectral Data<<<<<
178.204	-144.21
178.424	-144.21
178.644	-144.21
178.864	-111.44
179.084	-181.07
179.304	3.24
179.524	11.43
179.744	52.39
179.964	27.82
180.184	27.82
180.404	-4.95
180.624	-97.11
180.844	7.34
181.064	3.24
181.283	91.31
181.503	-103.25
181.723	-19.29
181.943	19.63
182.163	85.16
182.383	-9.05
182.602	23.72
182.822	101.55
183.042	19.63
183.262	-33.62
183.482	31.91
183.701	19.63
183.921	50.35
184.141	-29.52
184.361	-21.33
184.58	54.44
184.8	54.44
185.02	17.58
185.239	72.87
185.459	87.21
185.679	66.73
185.898	-66.39
186.118	-21.33
186.338	38.06
186.557	48.3
186.777	-62.29
186.997	-68.44
187.216	33.96
187.436	52.39
187.655	11.43
187.875	66.73
188.095	1.19
188.314	40.11
188.534	64.68
188.753	36.01
188.973	-4.95
189.192	68.78
189.412	27.82
189.631	38.06
189.851	-23.38
190.07	93.35
190.29	9.39
190.509	-23.38
190.729	25.77
190.948	27.82
191.168	132.26
191.387	46.25
191.607	83.11
191.826	3.24
192.045	-2.9
192.265	54.44
192.484	60.59
192.704	19.63
192.923	33.96
193.142	52.39
193.362	27.82
193.581	140.46
193.8	52.39
194.02	64.68
194.239	-0.85
194.458	-7
194.678	27.82
194.897	31.91
195.116	15.53
195.335	19.63
195.555	99.5
195.774	56.49
195.993	19.63
196.212	3.24
196.432	93.35
196.651	-64.34
196.87	-15.19
197.089	101.55
197.308	7.34
197.528	-4.95
197.747	11.43
197.966	58.54
198.185	140.46
198.404	58.54
198.623	42.15
198.842	25.77
199.062	105.64
199.281	-4.95
199.5	42.15
199.719	46.25
199.938	50.35
200.157	-11.09
200.376	25.77
200.595	99.5
200.814	33.96
201.033	-19.29
201.252	48.3
201.471	117.93
201.69	97.45
201.909	40.11
202.128	-54.1
202.347	-29.52
202.566	66.73
202.785	-45.91
203.004	-4.95
203.223	150.7
203.442	-9.05
203.661	1.19
203.879	3.24
204.098	109.74
204.317	-0.85
204.536	70.83
204.755	52.39
204.974	83.11
205.193	60.59
205.411	68.78
205.63	19.63
205.849	50.35
206.068	-2.9
206.287	-7
206.505	62.63
206.724	7.34
206.943	3.24
207.162	17.58
207.381	72.87
207.599	60.59
207.818	60.59
208.037	-17.24
208.255	17.58
208.474	101.55
208.693	36.01
208.911	60.59
209.13	29.87
209.349	-15.19
209.567	64.68
209.786	60.59
210.005	15.53
210.223	66.73
210.442	-0.85
210.661	72.87
210.879	79.02
211.098	68.78
211.316	25.77
211.535	93.35
211.753	3.24
211.972	36.01
212.191	11.43
212.409	-64.34
212.628	130.22
212.846	42.15
213.065	64.68
213.283	95.4
213.502	50.35
213.72	17.58
213.938	48.3
214.157	-50
214.375	93.35
214.594	36.01
214.812	-4.95
215.031	85.16
215.249	11.43
215.467	19.63
215.686	3.24
215.904	105.64
216.122	23.72
216.341	97.45
216.559	36.01
216.778	101.55
216.996	91.31
217.214	3.24
217.432	-23.38
217.651	9.39
217.869	29.87
218.087	40.11
218.306	36.01
218.524	81.07
218.742	11.43
218.96	83.11
219.179	54.44
219.397	17.58
219.615	36.01
219.833	-72.53
220.051	-21.33
220.27	56.49
220.488	81.07
220.706	60.59
220.924	-25.43
221.142	-37.72
221.36	93.35
221.578	23.72
221.796	-2.9
222.015	-9.05
222.233	-9.05
222.451	40.11
222.669	46.25
222.887	109.74
223.105	-37.72
223.323	76.97
223.541	23.72
223.759	25.77
223.977	3.24
224.195	93.35
224.413	42.15
224.631	44.2
224.849	68.78
225.067	132.26
225.285	-11.09
225.503	52.39
225.721	5.29
225.939	42.15
226.157	29.87
226.375	124.07
226.592	56.49
226.81	36.01
227.028	33.96
227.246	138.41
227.464	-13.14
227.682	76.97
227.9	38.06
228.117	50.35
228.335	1.19
228.553	-23.38
228.771	48.3
228.989	11.43
229.206	81.07
229.424	-62.29
229.642	-15.19
229.86	11.43
230.077	44.2
230.295	87.21
230.513	11.43
230.731	50.35
230.948	109.74
231.166	165.03
231.384	-13.14
231.601	-7
231.819	50.35
232.037	46.25
232.254	5.29
232.472	21.67
232.689	-17.24
232.907	85.16
233.125	40.11
233.342	31.91
233.56	33.96
233.777	11.43
233.995	21.67
234.213	107.69
234.43	9.39
234.648	-29.52
234.865	1.19
235.083	17.58
235.3	27.82
235.518	40.11
235.735	19.63
235.953	101.55
236.17	3.24
236.388	-62.29
236.605	27.82
236.822	64.68
237.04	-9.05
237.257	60.59
237.475	-41.81
237.692	9.39
237.909	36.01
238.127	36.01
238.344	81.07
238.562	-39.76
238.779	-19.29
238.996	1.19
239.214	19.63
239.431	148.65
239.648	-47.96
239.865	13.48
240.083	115.88
240.3	1.19
240.517	3.24
240.735	54.44
240.952	89.26
241.169	19.63
241.386	81.07
241.603	68.78
241.821	27.82
242.038	19.63
242.255	36.01
242.472	36.01
242.689	27.82
242.907	62.63
243.124	31.91
243.341	36.01
243.558	19.63
243.775	-2.9
243.992	-41.81
244.209	60.59
244.426	89.26
244.643	31.91
244.86	74.92
245.078	40.11
245.295	79.02
245.512	-9.05
245.729	-4.95
245.946	-13.14
246.163	42.15
246.38	50.35
246.597	-23.38
246.814	-21.33
247.031	27.82
247.248	29.87
247.464	72.87
247.681	97.45
247.898	1.19
248.115	79.02
248.332	-11.09
248.549	56.49
248.766	126.12
248.983	48.3
249.2	19.63
249.417	101.55
249.633	40.11
249.85	105.64
250.067	19.63
250.284	13.48
250.501	62.63
250.717	44.2
250.934	-37.72
251.151	33.96
251.368	36.01
251.585	70.83
251.801	17.58
252.018	38.06
252.235	85.16
252.451	3.24
252.668	-7
252.885	93.35
253.102	66.73
253.318	-19.29
253.535	-78.68
253.752	27.82
253.968	40.11
254.185	-64.34
254.401	68.78
254.618	23.72
254.835	-17.24
255.051	91.31
255.268	48.3
255.484	33.96
255.701	66.73
255.917	52.39
256.134	40.11
256.351	3.24
256.567	23.72
256.784	46.25
257	52.39
257.217	40.11
257.433	40.11
257.65	89.26
257.866	83.11
258.082	11.43
258.299	25.77
258.515	72.87
258.732	-37.72
258.948	3.24
259.165	-2.9
259.381	42.15
259.597	-7
259.814	19.63
260.03	11.43
260.246	50.35
260.463	85.16
260.679	40.11
260.895	-4.95
261.112	-17.24
261.328	1.19
261.544	11.43
261.761	68.78
261.977	9.39
262.193	17.58
262.409	85.16
262.626	23.72
262.842	23.72
263.058	-4.95
263.274	62.63
263.49	-4.95
263.707	64.68
263.923	97.45
264.139	27.82
264.355	11.43
264.571	58.54
264.787	33.96
265.004	11.43
265.22	36.01
265.436	-70.48
265.652	76.97
265.868	60.59
266.084	50.35
266.3	21.67
266.516	7.34
266.732	29.87
266.948	97.45
267.164	-13.14
267.38	52.39
267.596	27.82
267.812	44.2
268.028	-29.52
268.244	17.58
268.46	-23.38
268.676	19.63
268.892	44.2
269.108	91.31
269.324	60.59
269.54	23.72
269.756	19.63
269.972	15.53
270.188	48.3
270.403	9.39
270.619	68.78
270.835	25.77
271.051	1.19
271.267	1.19
271.483	-41.81
271.698	56.49
271.914	107.69
272.13	40.11
272.346	-19.29
272.562	-13.14
272.777	-4.95
272.993	48.3
273.209	-11.09
273.425	29.87
273.64	76.97
273.856	52.39
274.072	44.2
274.287	-11.09
274.503	44.2
274.719	44.2
274.934	70.83
275.15	31.91
275.366	66.73
275.581	7.34
275.797	33.96
276.012	36.01
276.228	68.78
276.444	-43.86
276.659	81.07
276.875	11.43
277.09	-19.29
277.306	-29.52
277.521	31.91
277.737	60.59
277.952	27.82
278.168	23.72
278.383	46.25
278.599	36.01
278.814	72.87
279.03	-13.14
279.245	44.2
279.461	40.11
279.676	130.22
279.892	-62.29
280.107	-35.67
280.322	11.43
280.538	56.49
280.753	74.92
280.969	62.63
281.184	-15.19
281.399	91.31
281.615	44.2
281.83	-25.43
282.045	-41.81
282.26	44.2
282.476	83.11
282.691	85.16
282.906	70.83
283.122	33.96
283.337	-4.95
283.552	76.97
283.767	23.72
283.983	48.3
284.198	13.48
284.413	11.43
284.628	17.58
284.843	-4.95
285.058	-56.15
285.274	9.39
285.489	-41.81
285.704	25.77
285.919	-4.95
286.134	17.58
286.349	-56.15
286.564	-23.38
286.779	60.59
286.995	19.63
287.21	52.39
287.425	25.77
287.64	19.63
287.855	27.82
288.07	33.96
288.285	79.02
288.5	50.35
288.715	62.63
288.93	-21.33
289.145	19.63
289.36	81.07
289.575	58.54
289.79	79.02
290.004	50.35
290.219	60.59
290.434	-17.24
290.649	19.63
290.864	52.39
291.079	44.2
291.294	72.87
291.509	-7
291.724	33.96
291.938	-13.14
292.153	64.68
292.368	-13.14
292.583	62.63
292.798	25.77
293.012	-43.86
293.227	-19.29
293.442	83.11
293.657	19.63
293.871	44.2
294.086	-7
294.301	33.96
294.516	50.35
294.73	19.63
294.945	-15.19
295.16	52.39
295.374	76.97
295.589	74.92
295.804	81.07
296.018	50.35
296.233	68.78
296.447	31.91
296.662	1.19
296.877	99.5
297.091	11.43
297.306	-15.19
297.52	-33.62
297.735	89.26
297.949	101.55
298.164	-13.14
298.378	81.07
298.593	-4.95
298.807	23.72
299.022	56.49
299.236	76.97
299.451	-17.24
299.665	33.96
299.88	48.3
300.094	23.72
300.309	40.11
300.523	91.31
300.737	-23.38
300.952	68.78
301.166	33.96
301.381	-31.57
301.595	13.48
301.809	3.24
302.024	23.72
302.238	48.3
302.452	97.45
302.667	66.73
302.881	107.69
303.095	25.77
303.309	-50
303.524	-31.57
303.738	-33.62
303.952	13.48
304.166	64.68
304.381	1.19
304.595	83.11
304.809	19.63
305.023	40.11
305.237	89.26
305.452	17.58
305.666	76.97
305.88	56.49
306.094	19.63
306.308	1.19
306.522	128.17
306.736	56.49
306.95	66.73
307.164	62.63
307.379	-4.95
307.593	36.01
307.807	117.93
308.021	19.63
308.235	33.96
308.449	3.24
308.663	-2.9
308.877	50.35
309.091	27.82
309.305	58.54
309.519	-15.19
309.733	115.88
309.947	-60.24
310.161	27.82
310.374	42.15
310.588	44.2
310.802	-19.29
311.016	1.19
311.23	60.59
311.444	1.19
311.658	44.2
311.872	60.59
312.085	19.63
312.299	64.68
312.513	-4.95
312.727	58.54
312.941	58.54
313.154	7.34
313.368	19.63
313.582	122.02
313.796	-50
314.009	89.26
314.223	36.01
314.437	23.72
314.651	31.91
314.864	-19.29
315.078	68.78
315.292	25.77
315.505	-29.52
315.719	21.67
315.933	54.44
316.146	48.3
316.36	85.16
316.573	87.21
316.787	60.59
317.001	72.87
317.214	66.73
317.428	50.35
317.641	-37.72
317.855	11.43
318.068	-11.09
318.282	27.82
318.495	54.44
318.709	21.67
318.922	44.2
319.136	36.01
319.349	44.2
319.563	19.63
319.776	38.06
319.99	44.2
320.203	72.87
320.417	-25.43
320.63	27.82
320.843	105.64
321.057	72.87
321.27	66.73
321.483	74.92
321.697	91.31
321.91	25.77
322.124	23.72
322.337	-29.52
322.55	31.91
322.763	-70.48
322.977	15.53
323.19	60.59
323.403	9.39
323.617	-0.85
323.83	76.97
324.043	-37.72
324.256	81.07
324.469	19.63
324.683	62.63
324.896	-4.95
325.109	11.43
325.322	-25.43
325.535	58.54
325.748	60.59
325.962	60.59
326.175	52.39
326.388	60.59
326.601	83.11
326.814	-19.29
327.027	44.2
327.24	52.39
327.453	-56.15
327.666	76.97
327.879	44.2
328.092	36.01
328.305	44.2
328.518	60.59
328.731	33.96
328.944	11.43
329.157	11.43
329.37	-62.29
329.583	36.01
329.796	-2.9
330.009	-54.1
330.222	-13.14
330.435	52.39
330.648	-45.91
330.861	60.59
331.073	68.78
331.286	-13.14
331.499	31.91
331.712	44.2
331.925	36.01
332.138	-4.95
332.35	44.2
332.563	40.11
332.776	23.72
332.989	-13.14
333.202	-33.62
333.414	52.39
333.627	76.97
333.84	1.19
334.053	89.26
334.265	-62.29
334.478	-0.85
334.691	31.91
334.903	50.35
335.116	-33.62
335.329	-0.85
335.541	101.55
335.754	103.59
335.966	-31.57
336.179	5.29
336.392	21.67
336.604	-9.05
336.817	17.58
337.029	62.63
337.242	-21.33
337.454	81.07
337.667	33.96
337.88	169.13
338.092	40.11
338.305	48.3
338.517	9.39
338.729	7.34
338.942	48.3
339.154	-37.72
339.367	-56.15
339.579	-4.95
339.792	46.25
340.004	50.35
340.217	44.2
340.429	31.91
340.641	-2.9
340.854	-0.85
341.066	-23.38
341.278	76.97
341.491	76.97
341.703	83.11
341.915	48.3
342.128	93.35
342.34	44.2
342.552	25.77
342.764	48.3
342.977	11.43
343.189	40.11
343.401	91.31
343.613	36.01
343.826	21.67
344.038	-25.43
344.25	72.87
344.462	-4.95
344.674	11.43
344.886	56.49
345.099	101.55
345.311	25.77
345.523	56.49
345.735	33.96
345.947	109.74
346.159	23.72
346.371	25.77
346.583	9.39
346.795	117.93
347.007	-25.43
347.219	40.11
347.431	15.53
347.643	25.77
347.855	-13.14
348.067	126.12
348.279	-35.67
348.491	48.3
348.703	23.72
348.915	52.39
349.127	-27.48
349.339	85.16
349.551	-25.43
349.763	111.78
349.975	7.34
350.187	85.16
350.399	19.63
350.61	11.43
350.822	-4.95
351.034	-7
351.246	44.2
351.458	29.87
351.669	44.2
351.881	117.93
352.093	50.35
352.305	117.93
352.517	15.53
352.728	76.97
352.94	-0.85
353.152	130.22
353.363	-4.95
353.575	36.01
353.787	52.39
353.999	19.63
354.21	162.98
354.422	58.54
354.633	74.92
354.845	60.59
355.057	74.92
355.268	1.19
355.48	76.97
355.692	31.91
355.903	31.91
356.115	-41.81
356.326	-15.19
356.538	7.34
356.749	31.91
356.961	3.24
357.172	52.39
357.384	3.24
357.595	105.64
357.807	13.48
358.018	-4.95
358.23	25.77
358.441	124.07
358.653	48.3
358.864	-21.33
359.075	-4.95
359.287	74.92
359.498	9.39
359.709	25.77
359.921	85.16
360.132	-17.24
360.344	23.72
360.555	38.06
360.766	48.3
360.977	44.2
361.189	68.78
361.4	19.63
361.611	144.55
361.823	1.19
362.034	72.87
362.245	-17.24
362.456	-2.9
362.667	76.97
362.879	48.3
363.09	27.82
363.301	-0.85
363.512	91.31
363.723	56.49
363.935	1.19
364.146	46.25
364.357	95.4
364.568	72.87
364.779	-54.1
364.99	31.91
365.201	-11.09
365.412	42.15
365.623	-13.14
365.834	79.02
366.045	93.35
366.256	44.2
366.467	48.3
366.678	72.87
366.889	76.97
367.1	17.58
367.311	11.43
367.522	21.67
367.733	52.39
367.944	52.39
368.155	-31.57
368.366	1.19
368.577	76.97
368.788	19.63
368.999	-29.52
369.209	25.77
369.42	89.26
369.631	52.39
369.842	113.83
370.053	64.68
370.264	126.12
370.474	-29.52
370.685	3.24
370.896	3.24
371.107	72.87
371.317	85.16
371.528	36.01
371.739	107.69
371.95	87.21
372.16	42.15
372.371	60.59
372.582	52.39
372.792	-7
373.003	-27.48
373.214	46.25
373.424	72.87
373.635	50.35
373.846	52.39
374.056	9.39
374.267	21.67
374.477	68.78
374.688	85.16
374.898	50.35
375.109	36.01
375.319	19.63
375.53	29.87
375.74	-72.53
375.951	-29.52
376.161	-29.52
376.372	81.07
376.582	66.73
376.793	64.68
377.003	-4.95
377.214	19.63
377.424	70.83
377.635	79.02
377.845	-21.33
378.055	109.74
378.266	3.24
378.476	33.96
378.686	111.78
378.897	-21.33
379.107	91.31
379.317	25.77
379.528	-7
379.738	91.31
379.948	36.01
380.158	68.78
380.369	130.22
380.579	7.34
380.789	66.73
380.999	46.25
381.21	115.88
381.42	117.93
381.63	103.59
381.84	99.5
382.05	103.59
382.261	33.96
382.471	52.39
382.681	87.21
382.891	160.94
383.101	58.54
383.311	74.92
383.521	93.35
383.731	107.69
383.941	76.97
384.151	31.91
384.361	60.59
384.571	-4.95
384.781	36.01
384.991	148.65
385.201	148.65
385.411	36.01
385.621	54.44
385.831	36.01
386.041	36.01
386.251	25.77
386.461	25.77
386.671	60.59
386.881	33.96
387.091	-17.24
387.301	130.22
387.511	29.87
387.72	93.35
387.93	109.74
388.14	44.2
388.35	-9.05
388.56	105.64
388.769	50.35
388.979	44.2
389.189	17.58
389.399	93.35
389.609	148.65
389.818	44.2
390.028	91.31
390.238	56.49
390.447	23.72
390.657	52.39
390.867	9.39
391.076	-29.52
391.286	113.83
391.496	52.39
391.705	33.96
391.915	85.16
392.125	54.44
392.334	48.3
392.544	109.74
392.753	11.43
392.963	1.19
393.172	70.83
393.382	81.07
393.591	138.41
393.801	70.83
394.01	122.02
394.22	117.93
394.429	113.83
394.639	50.35
394.848	40.11
395.058	52.39
395.267	122.02
395.477	54.44
395.686	23.72
395.895	136.36
396.105	175.27
396.314	74.92
396.524	44.2
396.733	52.39
396.942	111.78
397.152	113.83
397.361	150.7
397.57	27.82
397.78	68.78
397.989	56.49
398.198	134.31
398.407	66.73
398.617	31.91
398.826	17.58
399.035	27.82
399.244	101.55
399.453	109.74
399.663	54.44
399.872	91.31
400.081	33.96
400.29	107.69
400.499	9.39
400.708	142.5
400.917	97.45
401.127	87.21
401.336	11.43
401.545	236.71
401.754	66.73
401.963	42.15
402.172	60.59
402.381	171.18
402.59	58.54
402.799	85.16
403.008	205.99
403.217	48.3
403.426	99.5
403.635	117.93
403.844	115.88
404.053	150.7
404.262	44.2
404.471	175.27
404.68	124.07
404.888	85.16
405.097	99.5
405.306	109.74
405.515	66.73
405.724	148.65
405.933	140.46
406.142	173.22
406.35	150.7
406.559	134.31
406.768	150.7
406.977	249
407.185	228.52
407.394	134.31
407.603	76.97
407.812	238.76
408.02	175.27
408.229	226.47
408.438	173.22
408.646	185.51
408.855	167.08
409.064	191.66
409.272	199.85
409.481	253.09
409.69	173.22
409.898	236.71
410.107	197.8
410.315	294.05
410.524	246.95
410.733	251.05
410.941	246.95
411.15	308.39
411.358	310.44
411.567	335.01
411.775	304.29
411.984	380.07
412.192	347.3
412.401	226.47
412.609	371.88
412.818	322.73
413.026	345.25
413.234	296.1
413.443	369.83
413.651	384.16
413.86	414.88
414.068	500.9
414.276	502.95
414.485	427.17
414.693	552.1
414.901	591.01
415.11	525.47
415.318	595.11
415.526	509.09
415.734	533.67
415.943	570.53
416.151	599.2
416.359	617.63
416.567	699.55
416.776	689.31
416.984	679.07
417.192	748.7
417.4	758.94
417.608	748.7
417.817	810.14
418.025	863.39
418.233	879.77
418.441	887.97
418.649	867.49
418.857	961.69
419.065	971.93
419.273	1059.99
419.481	1000.6
419.689	1066.14
419.897	1125.53
420.105	1170.58
420.313	1154.2
420.521	1256.6
420.729	1182.87
420.937	1287.32
421.145	1301.65
421.353	1428.63
421.561	1467.54
421.769	1424.53
421.977	1498.26
422.185	1502.36
422.393	1633.43
422.601	1776.78
422.809	1711.25
423.017	1703.06
423.224	1819.79
423.432	1809.55
423.64	1856.65
423.848	2030.73
424.056	2043.02
424.263	2217.1
424.471	2034.83
424.679	2133.13
424.887	2292.87
425.094	2362.5
425.302	2305.16
425.51	2477.19
425.718	2442.37
425.925	2657.41
426.133	2724.99
426.341	2909.31
426.548	3040.38
426.756	2860.16
426.964	2968.7
427.171	3230.84
427.379	3318.9
427.586	3302.52
427.794	3402.87
428.001	3531.89
428.209	3730.55
428.417	3658.87
428.624	3742.83
428.832	3810.42
429.039	3769.46
429.247	3902.58
429.454	4254.83
429.662	4498.53
429.869	4166.76
430.076	4375.66
430.284	4402.28
430.491	4621.41
430.699	4834.4
430.906	4762.72
431.114	4897.89
431.321	5268.57
431.528	5305.43
431.736	5514.33
431.943	5805.14
432.15	5536.85
432.358	5459.03
432.565	6065.23
432.772	5837.91
432.979	6313.03
433.187	6276.17
433.394	6284.36
433.601	6831.17
433.808	6845.51
434.016	6691.91
434.223	6997.06
434.43	7547.96
434.637	7380.03
434.844	7826.48
435.052	7994.42
435.259	7998.51
435.466	8098.86
435.673	8029.23
435.88	8350.76
436.087	8942.63
436.294	8782.88
436.501	8743.97
436.708	9042.98
436.915	9284.64
437.122	9493.53
437.329	9712.66
437.537	9782.29
437.743	9976.85
437.95	10028.05
438.157	10484.75
438.364	10796.04
438.571	10773.51
438.778	10722.31
438.985	11940.85
439.192	11521.02
439.399	11852.79
439.606	11502.59
439.813	11809.78
440.02	12610.54
440.227	12626.92
440.433	12530.67
440.64	13126.63
440.847	12985.32
441.054	13233.12
441.261	14060.5
441.467	13892.57
441.674	14044.12
441.881	14736.33
442.088	14842.82
442.294	14648.27
442.501	14805.96
442.708	15236.03
442.914	15633.34
443.121	16362.42
443.328	16030.65
443.534	17040.29
443.741	16655.28
443.948	16307.12
444.154	17681.31
444.361	17572.77
444.568	17558.43
444.774	17720.22
444.981	17912.73
445.187	18437.01
445.394	19153.8
445.6	18779.02
445.807	20501.36
446.013	20032.38
446.22	20177.78
446.426	20925.29
446.633	21185.38
446.839	22147.93
447.046	20816.75
447.252	22123.35
447.459	22250.33
447.665	21924.7
447.871	22530.9
448.078	23921.47
448.284	23184.2
448.491	23589.7
448.697	24499
448.903	24697.65
449.11	24861.49
449.316	24275.77
449.522	24996.65
449.728	25676.58
449.935	25592.61
450.141	25774.88
450.347	26360.6
450.553	25418.53
450.76	25805.6
450.966	26770.19
451.172	26127.13
451.378	26891.02
451.584	26245.91
451.791	27202.32
451.997	26997.52
452.203	27187.98
452.409	27609.86
452.615	27011.85
452.821	26049.31
453.027	26108.7
453.233	27306.76
453.44	26084.12
453.646	26497.81
453.852	26581.78
454.058	27038.48
454.264	26274.59
454.47	26530.58
454.676	25424.68
454.882	26618.64
455.088	24574.77
455.294	24806.19
455.5	25146.15
455.705	25396.01
455.911	24251.19
456.117	23888.7
456.323	23389
456.529	22336.34
456.735	23456.58
456.941	22608.72
457.147	22461.27
457.352	21631.84
457.558	21326.69
457.764	21425
457.97	21224.29
458.176	20441.97
458.381	20614
458.587	19325.83
458.793	19856.25
458.999	18688.91
459.204	19499.91
459.41	19262.34
459.616	17922.97
459.821	18092.95
460.027	18019.22
460.233	17374.11
460.438	16718.76
460.644	16925.61
460.85	16161.72
461.055	15932.34
461.261	15590.33
461.466	14586.83
461.672	14152.66
461.878	15182.79
462.083	14095.32
462.289	14015.44
462.494	13544.41
462.7	13124.58
462.905	12919.78
463.111	13241.31
463.316	13118.43
463.522	13151.2
463.727	12682.22
463.932	12975.08
464.138	13046.76
464.343	12993.51
464.549	12616.68
464.754	12905.45
464.959	12833.77
465.165	12741.61
465.37	12225.52
465.575	11895.8
465.781	12266.48
465.986	12487.66
466.191	11826.17
466.397	11684.86
466.602	11125.76
466.807	11418.62
467.012	11572.22
467.218	11545.59
467.423	11394.04
467.628	11451.39
467.833	11797.49
468.038	11557.88
468.244	11299.84
468.449	11725.82
468.654	11217.92
468.859	11047.94
469.064	11064.32
469.269	10615.82
469.474	10890.24
469.679	10990.59
469.885	10574.86
470.09	10863.62
470.295	10724.36
470.5	10357.77
470.705	10472.46
470.91	10249.23
471.115	10337.29
471.32	10456.08
471.525	10277.9
471.73	10222.61
471.935	9954.32
472.139	9597.98
472.344	9544.73
472.549	9620.5
472.754	9550.87
472.959	9323.55
473.164	9274.4
473.369	9110.56
473.574	9301.02
473.778	9452.57
473.983	9251.87
474.188	9249.82
474.393	8715.3
474.598	8686.63
474.802	8780.84
475.007	8483.88
475.212	8604.71
475.417	8256.56
475.621	8324.14
475.826	8150.06
476.031	8215.6
476.235	8027.18
476.44	8406.06
476.645	7879.73
476.849	7984.18
477.054	7955.51
477.259	7586.87
477.463	7681.08
477.668	7603.25
477.872	7859.25
478.077	7482.42
478.282	7332.92
478.486	7279.68
478.691	7314.49
478.895	7380.03
479.1	7263.29
479.304	7152.7
479.509	7031.87
479.713	7214.14
479.918	7121.98
480.122	6777.92
480.326	7076.93
480.531	7021.63
480.735	6966.34
480.94	6886.47
481.144	6992.96
481.348	6773.83
481.553	6825.03
481.757	6593.61
481.961	6831.17
482.166	6800.45
482.37	6753.35
482.574	6550.6
482.778	6765.64
482.983	6734.92
483.187	6865.99
483.391	6720.58
483.595	6718.53
483.8	6628.42
484.004	6736.96
484.208	6761.54
484.412	6675.52
484.616	6663.24
484.821	6575.17
485.025	6593.61
485.229	6683.72
485.433	6571.08
485.637	6630.47
485.841	6614.09
486.045	6624.33
486.249	6792.26
486.453	6581.32
486.657	6784.07
486.861	6589.51
487.065	6523.98
487.269	6653
487.473	6562.89
487.677	6687.81
487.881	6634.57
488.085	6583.37
488.289	6532.17
488.493	6597.7
488.697	6581.32
488.901	6726.72
489.105	6612.04
489.309	6726.72
489.512	6880.32
489.716	6782.02
489.92	6734.92
490.124	6614.09
490.328	6923.33
490.531	6675.52
490.735	6796.35
490.939	6939.71
491.143	6743.11
491.346	6812.74
491.55	6833.22
491.754	6958.14
491.958	7132.22
492.161	7013.44
492.365	7029.82
492.569	6939.71
492.772	6939.71
492.976	7046.21
493.18	7031.87
493.383	7330.87
493.587	7377.98
493.79	7365.69
493.994	7224.38
494.197	7420.99
494.401	7203.9
494.605	7306.3
494.808	7711.8
495.012	7343.16
495.215	7689.27
495.419	7701.56
495.622	7676.98
495.825	7679.03
496.029	7478.33
496.232	7947.31
496.436	7842.87
496.639	8076.34
496.843	8100.91
497.046	8119.34
497.249	8356.91
497.453	8336.43
497.656	8299.56
497.859	8322.09
498.063	8330.28
498.266	8592.42
498.469	8676.39
498.673	8848.42
498.876	8789.03
499.079	8842.28
499.282	8868.9
499.485	9219.1
499.689	9083.94
499.892	9319.45
500.095	9321.5
500.298	9729.05
500.501	9485.34
500.705	9956.37
500.908	9770.01
501.111	10107.92
501.314	10044.43
501.517	10359.82
501.72	10492.94
501.923	10296.33
502.126	10540.04
502.329	10599.43
502.532	10687.5
502.735	10834.95
502.938	10925.06
503.141	10935.3
503.344	11275.26
503.547	11203.58
503.75	11187.2
503.953	11518.97
504.156	11740.15
504.359	11934.71
504.562	11811.83
504.765	12225.52
504.968	12309.49
505.17	12385.26
505.373	12260.34
505.576	12792.81
505.779	12606.44
505.982	12987.36
506.185	13372.38
506.387	13044.71
506.59	13304.8
506.793	13401.05
506.996	13329.38
507.198	13945.81
507.401	13687.77
507.604	14142.42
507.807	14113.75
508.009	14121.94
508.212	14535.63
508.415	14769.1
508.617	14527.44
508.82	14793.67
509.022	14863.3
509.225	15475.65
509.428	15299.52
509.63	15584.19
509.833	15553.47
510.035	16094.13
510.238	15940.54
510.44	16194.48
510.643	16292.79
510.845	16612.27
511.048	16313.27
511.25	16843.69
511.453	16751.53
511.655	17499.04
511.858	17259.43
512.06	17296.29
512.262	17619.87
512.465	17769.37
512.667	17750.94
512.87	18181.01
513.072	18168.73
513.274	18459.54
513.477	18514.83
513.679	18776.97
513.881	19207.05
514.084	19121.03
514.286	19215.24
514.488	19401.6
514.69	20052.86
514.893	20065.14
515.095	20196.21
515.297	20171.64
515.499	20288.37
515.701	21023.59
515.904	20818.8
516.106	20980.59
516.308	21447.52
516.51	21353.32
516.712	21631.84
516.914	22080.35
517.116	22287.19
517.318	22446.93
517.52	22412.12
517.722	22926.16
517.925	23458.63
518.127	23479.11
518.329	23554.88
518.531	23724.86
518.733	24130.36
518.935	24034.11
519.136	24136.51
519.338	24677.17
519.54	24716.08
519.742	25275.18
519.944	25316.14
520.146	25908
520.348	25860.9
520.55	26135.32
520.752	26630.93
520.954	26934.03
521.155	26678.04
521.357	26915.6
521.559	27331.34
521.761	27931.39
521.963	28111.61
522.164	28001.02
522.366	28044.03
522.568	28547.83
522.77	28590.84
522.971	29367.02
523.173	28785.4
523.375	29229.8
523.576	29706.98
523.778	29463.27
523.98	30003.94
524.181	30321.37
524.383	30591.7
524.584	30790.36
524.786	30931.67
524.988	30794.45
525.189	31486.67
525.391	31365.84
525.592	31625.93
525.794	31728.33
525.995	32393.92
526.197	32225.98
526.398	32406.2
526.6	32785.08
526.801	33030.83
527.003	33403.56
527.204	33096.37
527.406	33591.98
527.607	33919.65
527.808	34230.94
528.01	33256.11
528.211	34124.45
528.412	34493.08
528.614	34943.64
528.815	34837.14
529.016	35140.24
529.218	34931.35
529.419	35181.2
529.62	35463.82
529.822	35009.17
530.023	35646.09
530.224	35723.91
530.425	35693.19
530.626	35930.76
530.828	35674.76
531.029	36483.71
531.23	36192.9
531.431	36487.81
531.632	36616.83
531.833	36541.05
532.035	36485.76
532.236	36876.92
532.437	36737.66
532.638	36838.01
532.839	37288.56
533.04	37323.38
533.241	36840.06
533.442	37702.25
533.643	37425.78
533.844	37429.87
534.045	37368.43
534.246	37229.17
534.447	37618.28
534.648	37778.03
534.849	37771.88
535.05	37337.71
535.251	37755.5
535.451	37796.46
535.652	38226.53
535.853	37780.07
536.054	37753.45
536.255	38058.6
536.456	37552.75
536.657	38115.94
536.857	38081.13
537.058	37749.35
537.259	38091.37
537.46	37884.52
537.66	38181.48
537.861	37976.68
538.062	37960.3
538.263	38464.1
538.463	37974.63
538.664	38204
538.865	38318.69
539.065	38507.1
539.266	38050.41
539.466	38236.77
539.667	38122.08
539.868	38322.79
540.068	38036.07
540.269	37995.11
540.469	38597.21
540.67	38249.06
540.87	38253.15
541.071	38564.45
541.271	38597.21
541.472	38201.96
541.672	38146.66
541.873	38095.46
542.073	37974.63
542.274	38392.42
542.474	38179.43
542.675	38369.89
542.875	38439.52
543.075	38363.75
543.276	38052.45
543.476	38990.42
543.676	37927.53
543.877	38347.36
544.077	38156.9
544.277	38148.71
544.478	38048.36
544.678	38441.57
544.878	38380.13
545.078	38390.37
545.279	37925.48
545.479	38195.81
545.679	38746.72
545.879	38247.01
546.079	38083.17
546.28	38115.94
546.48	37808.75
546.68	38236.77
546.88	38629.98
547.08	38214.24
547.28	38531.68
547.48	38122.08
547.68	38326.88
547.88	38050.41
548.081	38437.47
548.281	38402.66
548.481	38247.01
548.681	38494.82
548.881	37933.67
549.081	38040.17
549.28	38101.61
549.48	38335.07
549.68	37993.06
549.88	38441.57
550.08	37843.56
550.28	38183.52
550.48	38089.32
550.68	38183.52
550.88	38040.17
551.08	37913.19
551.279	38212.2
551.479	38072.93
551.679	38138.47
551.879	38083.17
552.079	38226.53
552.278	37712.49
552.478	38263.39
552.678	37902.95
552.878	38281.83
553.077	38017.64
553.277	37872.23
553.477	37997.16
553.676	37880.42
553.876	37843.56
554.076	37780.07
554.275	37663.34
554.475	37227.12
554.674	37765.74
554.874	37499.5
555.074	37874.28
555.273	37589.61
555.473	37489.26
555.672	37272.18
555.872	37507.69
556.071	37390.96
556.271	37458.54
556.47	37466.73
556.67	36946.55
556.869	37309.04
557.068	37032.57
557.268	36848.25
557.467	37104.24
557.667	36911.74
557.866	36713.08
558.065	36952.69
558.265	36758.14
558.464	36747.9
558.663	36606.59
558.863	36121.22
559.062	36745.85
559.261	36035.2
559.461	36448.89
559.66	35828.36
559.859	36004.49
560.058	35691.15
560.258	35707.53
560.457	35639.95
560.656	36018.82
560.855	35598.99
561.054	35717.77
561.253	35136.15
561.453	35336.85
561.652	35394.19
561.851	35660.43
562.05	35285.65
562.249	34818.71
562.448	35408.53
562.647	34910.87
562.846	34734.74
563.045	34509.47
563.244	34484.89
563.443	34607.77
563.642	33897.13
563.841	34124.45
564.04	33893.03
564.239	34165.41
564.438	33893.03
564.637	33989.28
564.836	33821.35
565.035	33497.77
565.234	33467.05
565.432	33309.36
565.631	33036.98
565.83	33116.85
566.029	32885.43
566.228	32905.91
566.427	32611
566.625	32273.09
566.824	32101.06
567.023	32637.62
567.222	31988.42
567.42	32166.59
567.619	32068.29
567.818	31441.61
568.016	31812.29
568.215	31763.14
568.414	31234.77
568.612	31744.71
568.811	31167.18
569.01	31265.49
569.208	30536.41
569.407	31251.15
569.605	30812.88
569.804	30991.06
570.002	30522.07
570.201	30171.87
570.4	30106.34
570.598	30161.63
570.797	30024.42
570.995	29772.52
571.193	29754.08
571.392	29725.41
571.59	29645.54
571.789	29483.75
571.987	29389.55
572.186	29266.67
572.384	29154.03
572.582	29004.53
572.781	28975.86
572.979	28539.64
573.177	28674.81
573.376	28820.21
573.574	28058.37
573.772	28502.78
573.971	27953.92
574.169	27724.55
574.367	27912.96
574.565	28236.54
574.763	27816.71
574.962	27605.77
575.16	27212.56
575.358	27640.58
575.556	27198.22
575.754	27636.48
575.952	27302.67
576.151	27366.15
576.349	26743.57
576.547	26622.74
576.745	26743.57
576.943	26661.65
577.141	26407.7
577.339	26422.04
577.537	26196.76
577.735	26387.22
577.933	26307.35
578.131	26245.91
578.329	26020.64
578.527	26024.73
578.725	25785.12
578.923	25932.57
579.121	25695.01
579.319	25269.03
579.516	25692.96
579.714	25418.53
579.912	25281.32
580.11	25228.07
580.308	25529.13
580.506	24951.6
580.704	24752.94
580.901	24740.66
581.099	24886.06
581.297	24499
581.495	24455.99
581.692	24460.09
581.89	24212.28
582.088	24324.92
582.285	24279.86
582.483	24101.69
582.681	24202.04
582.878	24003.39
583.076	23921.47
583.274	24251.19
583.471	23638.85
583.669	23759.68
583.866	23692.1
584.064	23728.96
584.262	23173.96
584.459	23161.67
584.657	23143.24
584.854	23683.91
585.052	22922.06
585.249	23229.26
585.447	23188.3
585.644	22795.09
585.841	22879.05
586.039	22834
586.236	22727.5
586.434	22625.11
586.631	22238.04
586.828	22328.15
587.026	22356.82
587.223	22166.36
587.42	22334.29
587.618	22221.66
587.815	21871.45
588.012	21879.64
588.21	21930.84
588.407	22066.01
588.604	21629.79
588.801	21431.14
588.999	21586.79
589.196	21592.93
589.393	21560.16
589.59	21699.42
589.787	21338.98
589.984	21078.89
590.182	21148.52
590.379	21060.46
590.576	20908.91
590.773	20919.15
590.97	20792.17
591.167	21082.98
591.364	20417.4
591.561	20847.47
591.758	20671.34
591.955	20673.39
592.152	20652.91
592.349	20452.21
592.546	20347.76
592.743	20312.95
592.94	20319.09
593.137	20384.63
593.334	20138.87
593.531	20147.06
593.727	20067.19
593.924	20087.67
594.121	19860.35
594.318	20102.01
594.515	19946.36
594.712	19872.64
594.908	19454.85
595.105	19596.16
595.302	19680.13
595.499	19313.54
595.696	19387.27
595.892	19262.34
596.089	19166.09
596.286	19221.38
596.482	19055.5
596.679	19028.87
596.876	18918.28
597.072	18987.91
597.269	18787.21
597.466	18643.85
597.662	18504.59
597.859	18615.18
598.055	18576.27
598.252	18545.55
598.448	18410.39
598.645	18541.46
598.841	18228.12
599.038	18559.89
599.234	18185.11
599.431	18109.33
599.627	17662.88
599.824	18127.77
600.02	17796
600.217	18150.29
600.413	17927.07
600.609	17869.72
600.806	17841.05
601.002	17882.01
601.198	17441.7
601.395	17466.27
601.591	17515.42
601.787	17574.81
601.984	17492.9
602.18	17523.62
602.376	17519.52
602.572	17413.02
602.769	17468.32
602.965	17023.91
603.161	17103.78
603.357	16976.81
603.553	16978.86
603.75	16933.8
603.946	16894.89
604.142	16769.96
604.338	16563.12
604.534	16729
604.73	16579.5
604.926	16440.24
605.122	16540.59
605.318	16393.14
605.514	16333.75
605.71	16245.68
605.906	16317.36
606.102	16470.96
606.298	16190.39
606.494	16239.54
606.69	16376.75
606.886	16096.18
607.082	15924.15
607.278	15936.44
607.474	15674.3
607.67	15913.91
607.866	15535.04
608.062	15973.3
608.257	15788.99
608.453	15598.52
608.649	15772.6
608.845	15469.5
609.041	15412.16
609.236	15594.43
609.432	15489.98
609.628	15555.52
609.824	15229.89
610.019	15256.51
610.215	15281.09
610.411	15432.64
610.606	15240.13
610.802	15328.19
610.998	15223.75
611.193	15107.01
611.389	15150.02
611.584	15021
611.78	14980.04
611.976	15057.86
612.171	15219.65
612.367	14832.58
612.562	14707.66
612.758	14824.39
612.953	14654.41
613.149	14949.32
613.344	14752.71
613.539	14592.97
613.735	14752.71
613.93	14545.87
614.126	14543.82
614.321	14746.57
614.517	14668.75
614.712	14691.27
614.907	14355.41
615.103	14517.2
615.298	14298.06
615.493	14361.55
615.688	14048.21
615.884	14416.85
616.079	14210
616.274	14171.09
616.47	14189.52
616.665	14277.58
616.86	13958.1
617.055	13986.77
617.25	14173.14
617.445	14044.12
617.641	13884.37
617.836	14093.27
618.031	13515.74
618.226	13867.99
618.421	13745.11
618.616	13951.96
618.811	13655
619.006	13474.78
619.201	13698.01
619.396	13638.62
619.591	13253.6
619.786	13462.49
619.981	13382.62
620.176	13280.22
620.371	13163.49
620.566	13282.27
620.761	13163.49
620.956	13126.63
621.151	12909.54
621.346	12731.37
621.541	12780.52
621.735	12829.67
621.93	12678.12
622.125	12581.87
622.32	12579.82
622.515	12782.57
622.709	12553.2
622.904	12512.24
623.099	12327.92
623.294	12354.54
623.488	12147.7
623.683	12125.17
623.878	12114.93
624.072	11883.51
624.267	11836.41
624.462	12035.06
624.656	11672.57
624.851	11695.1
625.046	11715.58
625.24	11723.77
625.435	11543.55
625.629	11590.65
625.824	11385.85
626.018	11467.77
626.213	11500.54
626.407	11256.83
626.602	10994.69
626.796	11211.78
626.991	11213.82
627.185	11047.94
627.38	11084.8
627.574	10902.53
627.768	10824.71
627.963	10990.59
628.157	10566.67
628.352	10667.02
628.546	10609.67
628.74	10658.82
628.935	10585.1
629.129	10486.79
629.323	10507.27
629.517	10363.92
629.712	10191.89
629.906	10218.51
630.1	9929.75
630.294	9954.32
630.489	10136.59
630.683	10122.26
630.877	10030.1
631.071	10032.15
631.265	9866.26
631.459	9657.37
631.653	9763.86
631.848	9913.36
632.042	9602.07
632.236	9880.6
632.43	9667.61
632.624	9548.82
632.818	9438.23
633.012	9303.07
633.206	9241.63
633.4	9419.8
633.594	9063.46
633.788	9262.11
633.982	9243.68
634.176	9223.2
634.369	9133.09
634.563	8950.82
634.757	8899.62
634.951	8844.32
635.145	9028.64
635.339	8932.39
635.533	8768.55
635.726	8664.1
635.92	8741.93
636.114	8688.68
636.308	8455.21
636.501	8629.29
636.695	8729.64
636.889	8375.34
637.083	8307.76
637.276	8361
637.47	8477.74
637.664	8127.53
637.857	8217.65
638.051	8221.74
638.244	8123.44
638.438	8121.39
638.632	8152.11
638.825	8012.85
639.019	8064.05
639.212	7935.03
639.406	7998.51
639.599	7957.55
639.793	7732.28
639.986	7734.32
640.18	7787.57
640.373	7732.28
640.567	7507
640.76	7695.41
640.954	7572.54
641.147	7404.6
641.34	7523.38
641.534	7343.16
641.727	7371.83
641.92	7457.85
642.114	7220.28
642.307	7539.77
642.5	7306.3
642.694	7218.24
642.887	7048.26
643.08	7025.73
643.273	7164.99
643.467	7060.54
643.66	6810.69
643.853	6911.04
644.046	6745.16
644.239	6773.83
644.432	6925.38
644.626	6833.22
644.819	6595.65
645.012	6677.57
645.205	6816.83
645.398	6759.49
645.591	6569.03
645.784	6683.72
645.977	6476.87
646.17	6505.54
646.363	6417.48
646.556	6501.45
646.749	6411.34
646.942	6341.71
647.135	6376.52
647.328	6251.6
647.521	6345.8
647.714	6278.22
647.907	6255.69
648.099	6153.29
648.292	6229.07
648.485	6028.37
648.678	6122.57
648.871	6116.43
649.064	6003.79
649.256	6024.27
649.449	5835.86
649.642	5842
649.835	5985.36
650.027	5686.36
650.22	5868.63
650.413	5794.9
650.605	5801.04
650.798	5637.2
650.991	5629.01
651.183	5817.43
651.376	5583.96
651.568	5506.13
651.761	5663.83
651.954	5586.01
652.146	5700.69
652.339	5569.62
652.531	5633.11
652.724	5549.14
652.916	5407.83
653.109	5368.92
653.301	5385.3
653.494	5596.25
653.686	5287
653.879	5516.37
654.071	5260.38
654.263	5334.11
654.456	5311.58
654.648	5311.58
654.84	5370.97
655.033	5117.02
655.225	5284.95
655.417	5014.62
655.61	5256.28
655.802	5057.63
655.994	5198.94
656.186	4930.66
656.379	4990.05
656.571	4959.33
656.763	4912.22
656.955	4947.04
657.148	4785.25
657.34	5008.48
657.532	4957.28
657.724	5031.01
657.916	4871.26
658.108	4959.33
658.3	4809.83
658.492	4805.73
658.684	4934.75
658.876	4897.89
659.068	4840.54
659.26	4723.81
659.452	4703.33
659.644	4785.25
659.836	4742.24
660.028	4725.86
660.22	4652.13
660.412	4654.18
660.604	4715.62
660.796	4645.99
660.988	4752.48
661.18	4564.07
661.372	4547.69
661.563	4557.93
661.755	4451.43
661.947	4609.12
662.139	4336.74
662.331	4476.01
662.522	4439.14
662.714	4332.65
662.906	4498.53
663.097	4367.46
663.289	4392.04
663.481	4367.46
663.673	4392.04
663.864	4353.13
664.056	4344.94
664.247	4228.2
664.439	4357.22
664.631	4361.32
664.822	4396.14
665.014	4322.41
665.205	4291.69
665.397	4410.47
665.588	4385.9
665.78	4238.44
665.971	4170.86
666.163	4301.93
666.354	4383.85
666.546	4322.41
666.737	4146.28
666.929	4357.22
667.12	4314.22
667.311	4252.78
667.503	4220.01
667.694	4209.77
667.885	4213.87
668.077	4217.96
668.268	4252.78
668.459	4306.02
668.651	4320.36
668.842	4205.67
669.033	4326.5
669.224	4226.15
669.416	4310.12
669.607	4279.4
669.798	4328.55
669.989	4406.38
670.18	4365.42
670.371	4260.97
670.563	4271.21
670.754	4340.84
670.945	4228.2
671.136	4320.36
671.327	4287.59
671.518	4312.17
671.709	4320.36
671.9	4418.66
672.091	4267.11
672.282	4303.98
672.473	4142.19
672.664	4312.17
672.855	4369.51
673.046	4410.47
673.237	4351.08
673.428	4430.95
673.619	4324.46
673.809	4351.08
674	4410.47
674.191	4334.7
674.382	4346.98
674.573	4502.63
674.764	4476.01
674.954	4617.32
675.145	4535.4
675.336	4574.31
675.527	4441.19
675.717	4471.91
675.908	4516.97
676.099	4570.21
676.289	4516.97
676.48	4633.7
676.671	4529.25
676.861	4600.93
677.052	4578.4
677.243	4691.04
677.433	4621.41
677.624	4652.13
677.814	4664.42
678.005	4766.82
678.195	4809.83
678.386	4738.15
678.576	4752.48
678.767	4590.69
678.957	4621.41
679.148	4826.21
679.338	4752.48
679.529	4887.65
679.719	4955.23
679.909	5012.57
680.1	4781.15
680.29	4983.9
680.481	5078.11
680.671	5016.67
680.861	5004.38
681.052	4973.66
681.242	5096.54
681.432	5188.7
681.622	5106.78
681.813	5074.01
682.003	5196.89
682.193	4994.14
682.383	5155.93
682.573	5119.07
682.764	5352.54
682.954	5366.87
683.144	5243.99
683.334	5098.59
683.524	5360.73
683.714	5366.87
683.904	5262.43
684.094	5379.16
684.284	5334.11
684.474	5303.39
684.664	5227.61
684.854	5284.95
685.044	5307.48
685.234	5293.15
685.424	5416.02
685.614	5186.65
685.804	5160.03
685.994	5282.91
686.184	5397.59
686.374	5129.31
686.564	5194.84
686.753	5459.03
686.943	5147.74
687.133	5123.16
687.323	5157.98
687.513	5123.16
687.702	5237.85
687.892	5110.88
688.082	5190.75
688.272	5008.48
688.461	5096.54
688.651	5074.01
688.841	5002.33
689.03	5172.32
689.22	4920.42
689.41	4961.37
689.599	4926.56
689.789	4942.94
689.979	4930.66
690.168	4811.87
690.358	4689
690.547	4899.94
690.737	4684.9
690.926	4703.33
691.116	4609.12
691.305	4709.47
691.495	4736.1
691.684	4668.52
691.874	4574.31
692.063	4686.95
692.252	4531.3
692.442	4598.88
692.631	4592.74
692.82	4531.3
693.01	4529.25
693.199	4482.15
693.388	4555.88
693.578	4420.71
693.767	4336.74
693.956	4502.63
694.146	4355.18
694.335	4275.31
694.524	4222.06
694.713	4318.31
694.902	4377.7
695.092	4340.84
695.281	4297.83
695.47	4344.94
695.659	4164.72
695.848	4158.57
696.037	4172.91
696.226	4277.35
696.415	4254.83
696.604	4189.29
696.793	4230.25
696.982	4152.43
697.171	4086.89
697.36	4090.99
697.549	4152.43
697.738	4127.85
697.927	4074.6
698.116	4258.92
698.305	4152.43
698.494	4189.29
698.683	4099.18
698.872	4107.37
699.061	4054.12
699.25	4125.8
699.438	4029.55
699.627	4191.34
699.816	4105.32
700.005	4228.2
700.193	4088.94
700.382	4162.67
700.571	4197.48
700.76	4080.75
700.948	4275.31
701.137	4105.32
701.326	4090.99
701.514	4129.9
701.703	4269.16
701.892	4066.41
702.08	4187.24
702.269	4215.91
702.457	4168.81
702.646	4209.77
702.834	4185.19
703.023	4172.91
703.212	4263.02
703.4	4222.06
703.589	4142.19
703.777	4355.18
703.965	4250.73
704.154	4144.24
704.342	4271.21
704.531	4312.17
704.719	4281.45
704.907	4338.79
705.096	4246.63
705.284	4371.56
705.472	4279.4
705.661	4566.12
705.849	4463.72
706.037	4482.15
706.226	4371.56
706.414	4414.57
706.602	4435.05
706.79	4328.55
706.979	4473.96
707.167	4457.57
707.355	4451.43
707.543	4457.57
707.731	4562.02
707.919	4508.77
708.107	4320.36
708.296	4414.57
708.484	4463.72
708.672	4590.69
708.86	4553.83
709.048	4533.35
709.236	4576.36
709.424	4660.32
709.612	4641.89
709.8	4607.08
709.988	4705.38
710.176	4764.77
710.364	4617.32
710.551	4719.71
710.739	4717.67
710.927	4750.43
711.115	4754.53
711.303	4848.74
711.491	4781.15
711.679	4795.49
711.866	4787.3
712.054	4873.31
712.242	4815.97
712.43	4779.11
712.617	4959.33
712.805	4926.56
712.993	4877.41
713.181	5041.25
713.368	4934.75
713.556	4996.19
713.744	4975.71
713.931	5125.21
714.119	5147.74
714.306	5012.57
714.494	5065.82
714.682	5082.21
714.869	5196.89
715.057	4994.14
715.244	5260.38
715.432	5336.15
715.619	5268.57
715.807	5309.53
715.994	5315.67
716.182	5401.69
716.369	5250.14
716.556	5317.72
716.744	5209.18
716.931	5375.06
717.119	5569.62
717.306	5471.32
717.493	5450.84
717.681	5534.81
717.868	5524.57
718.055	5452.89
718.242	5532.76
718.43	5590.1
718.617	5512.28
718.804	5672.02
718.991	5676.12
719.179	5735.51
719.366	5655.64
719.553	5672.02
719.74	5825.62
719.927	5764.18
720.114	5766.23
720.301	5762.13
720.488	5676.12
720.676	5858.39
720.863	5893.2
721.05	5737.56
721.237	5745.75
721.424	5819.47
721.611	5917.78
721.798	5755.99
721.985	5925.97
722.172	5893.2
722.358	5852.24
722.545	6007.89
722.732	5874.77
722.919	6052.94
723.106	6075.47
723.293	5956.69
723.48	6040.65
723.667	6022.22
723.853	6003.79
724.04	6065.23
724.227	6069.33
724.414	6071.37
724.6	6014.03
724.787	6100.05
724.974	6128.72
725.161	6212.68
725.347	6128.72
725.534	6175.82
725.72	6175.82
725.907	6204.49
726.094	6198.35
726.28	6255.69
726.467	6257.74
726.653	6179.92
726.84	6235.21
727.027	6378.57
727.213	6165.58
727.4	6433.86
727.586	6419.53
727.773	6333.51
727.959	6403.14
728.145	6435.91
728.332	6444.1
728.518	6456.39
728.705	6376.52
728.891	6519.88
729.077	6497.35
729.264	6433.86
729.45	6329.42
729.636	6653
729.823	6300.75
730.009	6464.58
730.195	6579.27
730.382	6609.99
730.568	6702.15
730.754	6673.48
730.94	6472.78
731.126	6661.19
731.313	6636.61
731.499	6653
731.685	6847.55
731.871	6450.25
732.057	6587.46
732.243	6718.53
732.429	6624.33
732.615	6650.95
732.801	6642.76
732.987	6587.46
733.173	6765.64
733.359	6755.4
733.545	6759.49
733.731	6736.96
733.917	6710.34
734.103	6734.92
734.289	6698.05
734.475	6648.9
734.661	6782.02
734.847	6786.12
735.033	6728.77
735.219	6720.58
735.404	6751.3
735.59	6863.94
735.776	6747.2
735.962	6763.59
736.148	6839.36
736.333	6800.45
736.519	6736.96
736.705	6765.64
736.89	6710.34
737.076	6653
737.262	6634.57
737.447	6829.12
737.633	6653
737.819	6720.58
738.004	6667.33
738.19	6775.88
738.375	6614.09
738.561	6859.84
738.747	6636.61
738.932	6614.09
739.118	6863.94
739.303	6523.98
739.489	6675.52
739.674	6542.41
739.859	6790.21
740.045	6589.51
740.23	6712.39
740.416	6663.24
740.601	6698.05
740.786	6521.93
740.972	6399.05
741.157	6554.69
741.342	6403.14
741.528	6472.78
741.713	6442.06
741.898	6362.19
742.084	6593.61
742.269	6442.06
742.454	6339.66
742.639	6374.47
742.824	6466.63
743.01	6331.47
743.195	6294.6
743.38	6421.58
743.565	6335.56
743.75	6374.47
743.935	6216.78
744.12	6261.84
744.305	6128.72
744.49	6079.57
744.675	6048.85
744.86	6106.19
745.045	5942.35
745.23	6100.05
745.415	5997.65
745.6	5989.46
745.785	5948.5
745.97	5882.96
746.155	5997.65
746.34	5915.73
746.525	5815.38
746.71	5878.86
746.895	5760.08
747.079	5762.13
747.264	5690.45
747.449	5688.4
747.634	5694.55
747.819	5647.44
748.003	5532.76
748.188	5532.76
748.373	5442.65
748.557	5704.79
748.742	5422.17
748.927	5295.19
749.111	5346.39
749.296	5248.09
749.481	5360.73
749.665	5289.05
749.85	5157.98
750.034	5303.39
750.219	5129.31
750.404	5100.64
750.588	5071.97
750.773	4990.05
750.957	5010.53
751.141	5045.34
751.326	4926.56
751.51	5061.73
751.695	4895.84
751.879	4908.13
752.064	5016.67
752.248	4910.18
752.432	4791.39
752.617	4793.44
752.801	4760.67
752.985	4519.01
753.17	4619.36
753.354	4654.18
753.538	4719.71
753.722	4447.33
753.907	4508.77
754.091	4414.57
754.275	4295.79
754.459	4394.09
754.643	4316.26
754.828	4361.32
755.012	4220.01
755.196	4336.74
755.38	4199.53
755.564	4179.05
755.748	4160.62
755.932	4109.42
756.116	4189.29
756.3	4070.51
756.484	3982.45
756.668	3988.59
756.852	3898.48
757.036	4058.22
757.22	3839.09
757.404	3849.33
757.588	3972.21
757.772	3816.56
757.956	3806.32
758.14	3824.75
758.323	3730.55
758.507	3830.9
758.691	3691.63
758.875	3630.2
759.059	3716.21
759.242	3648.63
759.426	3558.52
759.61	3449.97
759.794	3579
759.977	3572.85
760.161	3566.71
760.345	3564.66
760.528	3507.32
760.712	3449.97
760.895	3476.6
761.079	3337.34
761.263	3380.34
761.446	3267.7
761.63	3435.64
761.813	3490.93
761.997	3333.24
762.18	3230.84
762.364	3216.51
762.547	3198.07
762.731	3216.51
762.914	3105.92
763.098	3230.84
763.281	3234.94
763.464	3081.34
763.648	3089.53
763.831	3019.9
764.015	3132.54
764.198	3052.67
764.381	3026.04
764.564	3052.67
764.748	3048.57
764.931	3042.43
765.114	2933.89
765.297	2985.09
765.481	2952.32
765.664	2890.88
765.847	2892.93
766.03	2886.78
766.213	2872.45
766.397	2737.28
766.58	2874.49
766.763	2829.44
766.946	2702.47
767.129	2778.24
767.312	2753.66
767.495	2804.86
767.678	2735.23
767.861	2727.04
768.044	2804.86
768.227	2751.62
768.41	2608.26
768.593	2657.41
768.776	2727.04
768.959	2608.26
769.142	2616.45
769.324	2575.49
769.507	2663.55
769.69	2575.49
769.873	2481.28
770.056	2759.81
770.239	2550.92
770.421	2526.34
770.604	2452.61
770.787	2438.28
770.97	2526.34
771.152	2407.56
771.335	2466.95
771.518	2409.61
771.7	2464.9
771.883	2489.48
772.066	2425.99
772.248	2329.74
772.431	2425.99
772.613	2368.65
772.796	2268.3
772.978	2380.93
773.161	2358.41
773.343	2196.62
773.526	2221.19
773.708	2077.83
773.891	2141.32
774.073	2081.93
774.256	1991.82
774.438	2129.03
774.621	2149.51
774.803	2114.7
774.985	2024.59
775.168	2040.97
775.35	2155.66
775.532	2067.6
775.715	2071.69
775.897	1973.39
776.079	2034.83
776.261	1954.96
776.444	1977.48
776.626	1946.76
776.808	1987.72
776.99	1844.37
777.173	1920.14
777.355	1893.52
777.537	1883.28
777.719	1850.51
777.901	1854.61
778.083	1690.77
778.265	1752.21
778.447	1801.36
778.629	1752.21
778.811	1674.39
778.993	1641.62
779.175	1811.6
779.357	1711.25
779.539	1600.66
779.721	1629.33
779.903	1690.77
780.085	1694.86
780.267	1594.51
780.449	1592.47
780.631	1658
780.812	1500.31
780.994	1580.18
781.176	1524.88
781.358	1467.54
781.54	1524.88
781.721	1526.93
781.903	1592.47
782.085	1445.01
782.267	1457.3
782.448	1383.57
782.63	1387.67
782.812	1461.4
782.993	1426.58
783.175	1410.2
783.357	1305.75
783.538	1397.91
783.72	1279.13
783.901	1375.38
784.083	1375.38
784.264	1291.41
784.446	1324.18
784.627	1289.37
784.809	1299.61
784.99	1299.61
785.172	1303.7
785.353	1268.89
785.535	1219.74
785.716	1252.5
785.897	1322.13
786.079	1191.06
786.26	1213.59
786.441	1303.7
786.623	1072.28
786.804	1170.58
786.985	1248.41
787.167	1117.34
787.348	1152.15
787.529	1160.34
787.71	1207.45
787.891	1025.18
788.073	1012.89
788.254	1125.53
788.435	1010.84
788.616	1021.08
788.797	1098.91
788.978	1133.72
789.159	1039.51
789.34	1092.76
789.522	1010.84
789.703	1096.86
789.884	1055.9
790.065	1055.9
790.246	967.84
790.427	1014.94
790.607	1109.15
790.788	994.46
790.969	949.4
791.15	998.56
791.331	920.73
791.512	943.26
791.693	918.68
791.874	976.03
792.054	1010.84
792.235	978.08
792.416	945.31
792.597	920.73
792.778	847.01
792.958	871.58
793.139	912.54
793.32	978.08
793.5	883.87
793.681	930.97
793.862	875.68
794.042	826.53
794.223	728.22
794.404	844.96
794.584	748.7
794.765	892.06
794.945	744.61
795.126	869.53
795.306	775.33
795.487	883.87
795.667	863.39
795.848	781.47
796.028	818.33
796.209	795.81
796.389	797.85
796.57	728.22
796.75	707.74
796.93	797.85
797.111	672.93
797.291	629.92
797.471	707.74
797.652	722.08
797.832	703.65
798.012	781.47
798.192	664.74
798.373	715.94
798.553	730.27
798.733	750.75
798.913	740.51
799.093	654.5
799.274	806.05
799.454	724.13
799.634	724.13
799.814	670.88
799.994	707.74
800.174	726.18
800.354	662.69
800.534	654.5
800.714	703.65
800.894	662.69
801.074	648.35
801.254	621.73
801.434	715.94
801.614	593.06
801.794	519.33
801.974	1406.1
802.154	656.54
802.334	629.92
802.514	634.02
802.693	607.39
802.873	548
803.053	724.13
803.233	560.29
803.413	613.54
803.592	568.48
803.772	515.23
803.952	525.47
804.131	519.33
804.311	591.01
804.491	644.26
804.67	539.81
804.85	558.24
805.03	701.6
805.209	535.71
805.389	599.2
805.568	519.33
805.748	453.8
805.928	535.71
806.107	593.06
806.287	539.81
806.466	500.9
806.646	507.04
806.825	650.4
807.004	492.71
807.184	550.05
807.363	564.39
807.543	564.39
807.722	519.33
807.901	545.95
808.081	509.09
808.26	445.6
808.439	459.94
808.619	496.8
808.798	437.41
808.977	466.08
809.156	455.84
809.336	502.95
809.515	486.56
809.694	464.04
809.873	388.26
810.052	470.18
810.231	511.14
810.411	519.33
810.59	380.07
810.769	447.65
810.948	476.32
811.127	365.73
811.306	470.18
811.485	453.8
811.664	461.99
811.843	455.84
812.022	406.69
812.201	457.89
812.38	421.03
812.559	343.21
812.737	457.89
812.916	408.74
813.095	396.45
813.274	386.21
813.453	445.6
813.632	416.93
813.811	402.6
813.989	380.07
814.168	375.97
814.347	425.12
814.526	365.73
814.704	392.36
814.883	369.83
815.062	355.49
815.24	490.66
815.419	341.16
815.598	457.89
815.776	378.02
815.955	355.49
816.133	402.6
816.312	324.77
816.49	375.97
816.669	425.12
816.847	435.36
817.026	371.88
817.204	408.74
817.383	394.4
817.561	332.97
817.74	367.78
817.918	392.36
818.097	363.69
818.275	306.34
818.453	474.28
818.632	294.05
818.81	347.3
818.988	353.45
819.167	324.77
819.345	312.49
819.523	392.36
819.701	322.73
819.879	402.6
820.058	332.97
820.236	320.68
820.414	355.49
820.592	365.73
820.77	259.24
820.948	298.15
821.127	302.25
821.305	330.92
821.483	232.62
821.661	335.01
821.839	304.29
822.017	279.72
822.195	249
822.373	312.49
822.551	302.25
822.729	353.45
822.907	271.53
823.085	378.02
823.262	285.86
823.44	306.34
823.618	281.77
823.796	259.24
823.974	257.19
824.152	271.53
824.329	273.57
824.507	298.15
824.685	369.83
824.863	328.87
825.04	244.9
825.218	320.68
825.396	296.1
825.574	332.97
825.751	216.23
825.929	359.59
826.107	269.48
826.284	273.57
826.462	298.15
826.639	230.57
826.817	177.32
826.994	216.23
827.172	214.18
827.349	328.87
827.527	220.33
827.704	251.05
827.882	265.38
828.059	326.82
828.237	220.33
828.414	187.56
828.591	152.74
828.769	277.67
828.946	167.08
829.124	222.38
829.301	201.9
829.478	205.99
829.655	328.87
829.833	240.81
830.01	173.22
830.187	156.84
830.364	279.72
830.542	189.61
830.719	265.38
830.896	263.33
831.073	232.62
831.25	371.88
831.427	165.03
831.604	261.29
831.782	257.19
831.959	197.8
832.136	197.8
832.313	216.23
832.49	189.61
832.667	224.42
832.844	130.22
833.021	216.23
833.198	236.71
833.374	279.72
833.551	232.62
833.728	181.42
833.905	222.38
834.082	99.5
834.259	236.71
834.436	281.77
834.612	124.07
834.789	212.14
834.966	154.79
835.143	205.99
835.319	167.08
835.496	208.04
835.673	238.76
835.85	171.18
836.026	179.37
836.203	199.85
836.38	107.69
836.556	199.85
836.733	142.5
836.909	218.28
837.086	199.85
837.262	144.55
837.439	181.42
837.616	148.65
837.792	177.32
837.968	156.84
838.145	101.55
838.321	214.18
838.498	167.08
838.674	152.74
838.851	150.7
839.027	154.79
839.203	152.74
839.38	249
839.556	181.42
839.732	195.75
839.909	154.79
840.085	208.04
840.261	191.66
840.437	160.94
840.614	134.31
840.79	175.27
840.966	183.46
841.142	162.98
841.318	181.42
841.494	138.41
841.671	224.42
841.847	107.69
842.023	115.88
842.199	134.31
842.375	132.26
842.551	130.22
842.727	160.94
842.903	257.19
843.079	107.69
843.255	205.99
843.431	76.97
843.607	210.09
843.783	101.55
843.959	97.45
844.134	148.65
844.31	76.97
844.486	74.92
844.662	122.02
844.838	146.6
845.013	134.31
845.189	169.13
845.365	179.37
845.541	115.88
845.716	101.55
845.892	138.41
846.068	179.37
846.244	150.7
846.419	93.35
846.595	87.21
846.77	146.6
846.946	158.89
847.122	64.68
847.297	117.93
847.473	230.57
847.648	87.21
847.824	124.07
847.999	68.78
848.175	115.88
848.35	105.64
848.526	128.17
848.701	146.6
848.876	134.31
849.052	142.5
849.227	85.16
849.403	124.07
849.578	115.88
849.753	74.92
849.929	150.7
850.104	95.4
850.279	89.26
850.454	150.7
850.63	138.41
850.805	101.55
850.98	140.46
851.155	76.97
851.33	267.43
851.505	66.73
851.681	99.5
851.856	109.74
852.031	89.26
852.206	50.35
852.381	36.01
852.556	171.18
852.731	83.11
852.906	101.55
853.081	105.64
853.256	146.6
853.431	148.65
853.606	76.97
853.781	97.45
853.956	56.49
854.131	101.55
854.305	134.31
854.48	101.55
854.655	91.31
854.83	122.02
855.005	83.11
855.18	101.55
855.354	52.39
855.529	138.41
855.704	60.59
855.879	68.78
856.053	85.16
856.228	128.17
856.403	85.16
856.577	60.59
856.752	11.43
856.926	105.64
857.101	31.91
857.276	7.34
857.45	74.92
857.625	89.26
857.799	85.16
857.974	126.12
858.148	29.87
858.323	19.63
858.497	60.59
858.672	97.45
858.846	1.19
859.02	109.74
859.195	42.15
859.369	91.31
859.543	3.24
859.718	42.15
859.892	50.35
860.066	74.92
860.241	29.87
860.415	122.02
860.589	107.69
860.763	91.31
860.938	15.53
861.112	76.97
861.286	46.25
861.46	25.77
861.634	83.11
861.808	93.35
861.982	-56.15
862.157	85.16
862.331	107.69
862.505	-29.52
862.679	33.96
862.853	64.68
863.027	60.59
863.201	117.93
863.375	85.16
863.549	42.15
863.722	33.96
863.896	122.02
864.07	-82.77
864.244	33.96
864.418	99.5
864.592	56.49
864.766	42.15
864.939	11.43
865.113	17.58
865.287	-4.95
865.461	19.63
865.634	15.53
865.808	79.02
865.982	85.16
866.156	-25.43
866.329	70.83
866.503	-9.05
866.676	72.87
866.85	117.93
867.024	-29.52
867.197	29.87
867.371	1.19
867.544	54.44
867.718	85.16
867.891	101.55
868.065	-13.14
868.238	70.83
868.412	1.19
868.585	11.43
868.759	-21.33
868.932	19.63
869.105	9.39
869.279	19.63
869.452	17.58
869.625	23.72
869.799	15.53
869.972	36.01
870.145	33.96
870.319	19.63
870.492	19.63
870.665	33.96
870.838	58.54
871.011	5.29
871.185	52.39
871.358	-62.29
871.531	27.82
871.704	36.01
871.877	33.96
872.05	19.63
872.223	7.34
872.396	150.7
872.569	42.15
872.742	-31.57
872.915	66.73
873.088	122.02
873.261	-37.72
873.434	91.31
873.607	85.16
873.78	76.97
873.953	15.53
874.126	-4.95
874.299	60.59
874.471	115.88
874.644	1.19
874.817	23.72
874.99	44.2
875.163	19.63
875.335	93.35
875.508	101.55
875.681	103.59
875.853	36.01
876.026	-4.95
876.199	36.01
876.371	33.96
876.544	36.01
876.717	70.83
876.889	68.78
877.062	36.01
877.234	-13.14
877.407	19.63
877.579	91.31
877.752	165.03
877.924	17.58
878.097	31.91
878.269	33.96
878.442	7.34
878.614	70.83
878.786	-19.29
878.959	27.82
879.131	60.59
879.303	-72.53
879.476	-2.9
879.648	85.16
879.82	15.53
879.993	-41.81
880.165	-4.95
880.337	-45.91
880.509	27.82
880.681	-35.67
880.854	56.49
881.026	19.63
881.198	101.55
881.37	19.63
881.542	52.39
881.714	9.39
881.886	-0.85
882.058	40.11
882.23	19.63
882.402	11.43
882.574	-15.19
882.746	3.24
882.918	64.68
883.09	66.73
883.262	-29.52
883.434	17.58
883.606	-23.38
883.778	-66.39
883.95	27.82
884.122	19.63
884.293	44.2
884.465	83.11
884.637	44.2
884.809	-119.64
884.98	66.73
885.152	-21.33
885.324	17.58
885.496	27.82
885.667	17.58
885.839	60.59
886.011	52.39
886.182	5.29
886.354	52.39
886.525	11.43
886.697	52.39
886.869	15.53
887.04	-9.05
887.212	113.83
887.383	64.68
887.555	7.34
887.726	-50
887.897	-66.39
888.069	-27.48
888.24	-45.91
888.412	44.2
888.583	-66.39
888.754	36.01
888.926	13.48
889.097	3.24
889.268	-52.05
889.44	52.39
889.611	-29.52
889.782	-13.14
889.953	-23.38
890.125	33.96
890.296	48.3
890.467	66.73
890.638	27.82
890.809	40.11
890.98	-2.9
891.151	1.19
891.323	62.63
891.494	-19.29
891.665	3.24
891.836	17.58
892.007	19.63
892.178	81.07
892.349	19.63
892.52	17.58
892.691	-4.95
892.862	66.73
893.032	-41.81
893.203	23.72
893.374	3.24
893.545	44.2
893.716	-62.29
893.887	11.43
894.057	-9.05
894.228	-39.76
894.399	66.73
894.57	31.91
894.74	11.43
894.911	31.91
895.082	-4.95
895.253	9.39
895.423	19.63
895.594	113.83
895.764	9.39
895.935	-29.52
896.106	3.24
896.276	27.82
896.447	21.67
896.617	-39.76
896.788	68.78
896.958	46.25
897.129	60.59
897.299	-13.14
897.47	85.16
897.64	9.39
897.81	48.3
897.981	68.78
898.151	-17.24
898.322	50.35
898.492	-86.87
898.662	3.24
898.832	101.55
899.003	40.11
899.173	29.87
899.343	11.43
899.513	46.25
