Data from USB4F104151__96__11-32-14-801.txt Node

Date: Fri Mar 14 11:32:14 EDT 2025
User: louis
Spectrometer: USB4F10415
Trigger mode: 4
Integration Time (sec): 5.000000E-2
Scans to average: 1
Electric dark correction enabled: true
Nonlinearity correction enabled: false
Boxcar width: 0
XAxis mode: Wavelengths
Number of Pixels in Spectrum: 3648
>>>>>Begin Spectral Data<<<<<
178.204	-118.27
178.424	-118.27
178.644	-118.27
178.864	-175.61
179.084	-132.61
179.304	47.62
179.524	-40.45
179.744	35.33
179.964	-65.02
180.184	45.57
180.404	47.62
180.624	-46.59
180.844	-22.02
181.064	35.33
181.283	-26.11
181.503	-22.02
181.723	10.75
181.943	-114.17
182.163	102.91
182.383	-36.35
182.602	80.38
182.822	25.09
183.042	82.43
183.262	-30.21
183.482	6.66
183.701	-28.16
183.921	-1.54
184.141	-7.68
184.361	-17.92
184.58	-24.06
184.8	31.23
185.02	-7.68
185.239	37.38
185.459	53.76
185.679	115.2
185.898	47.62
186.118	94.72
186.338	-7.68
186.557	0.51
186.777	-60.93
186.997	33.28
187.216	-48.64
187.436	82.43
187.655	57.86
187.875	16.9
188.095	-19.97
188.314	96.77
188.534	96.77
188.753	-58.88
188.973	27.14
189.192	41.47
189.412	64
189.631	70.14
189.851	25.09
190.07	96.77
190.29	-71.17
190.509	14.85
190.729	55.81
190.948	53.76
191.168	188.93
191.387	80.38
191.607	47.62
191.826	-7.68
192.045	-79.36
192.265	64
192.484	27.14
192.704	-30.21
192.923	-26.11
193.142	33.28
193.362	57.86
193.581	139.77
193.8	23.04
194.02	53.76
194.239	25.09
194.458	47.62
194.678	61.95
194.897	41.47
195.116	-48.64
195.335	20.99
195.555	37.38
195.774	31.23
195.993	49.66
196.212	29.18
196.432	29.18
196.651	-26.11
196.87	25.09
197.089	139.77
197.308	98.81
197.528	0.51
197.747	-73.21
197.966	-38.4
198.185	64
198.404	29.18
198.623	59.9
198.842	23.04
199.062	88.57
199.281	113.15
199.5	12.8
199.719	-36.35
199.938	41.47
200.157	55.81
200.376	47.62
200.595	0.51
200.814	-24.06
201.033	-52.74
201.252	49.66
201.471	49.66
201.69	23.04
201.909	47.62
202.128	72.19
202.347	-28.16
202.566	16.9
202.785	-46.59
203.004	-42.5
203.223	70.14
203.442	-24.06
203.661	-56.83
203.879	74.24
204.098	102.91
204.317	-32.26
204.536	41.47
204.755	-1.54
204.974	12.8
205.193	29.18
205.411	39.42
205.63	23.04
205.849	78.33
206.068	-40.45
206.287	0.51
206.505	90.62
206.724	84.48
206.943	16.9
207.162	43.52
207.381	12.8
207.599	-7.68
207.818	-11.78
208.037	-19.97
208.255	66.05
208.474	80.38
208.693	6.66
208.911	-36.35
209.13	-7.68
209.349	45.57
209.567	-7.68
209.786	18.94
210.005	35.33
210.223	4.61
210.442	-28.16
210.661	57.86
210.879	45.57
211.098	37.38
211.316	-15.87
211.535	82.43
211.753	29.18
211.972	31.23
212.191	-17.92
212.409	55.81
212.628	53.76
212.846	23.04
213.065	-24.06
213.283	127.49
213.502	53.76
213.72	0.51
213.938	37.38
214.157	16.9
214.375	-46.59
214.594	31.23
214.812	41.47
215.031	33.28
215.249	23.04
215.467	61.95
215.686	113.15
215.904	98.81
216.122	55.81
216.341	127.49
216.559	-7.68
216.778	6.66
216.996	78.33
217.214	0.51
217.432	-28.16
217.651	2.56
217.869	-73.21
218.087	8.7
218.306	0.51
218.524	-5.63
218.742	41.47
218.96	31.23
219.179	-42.5
219.397	41.47
219.615	115.2
219.833	47.62
220.051	4.61
220.27	53.76
220.488	23.04
220.706	80.38
220.924	45.57
221.142	18.94
221.36	8.7
221.578	88.57
221.796	37.38
222.015	-62.98
222.233	-5.63
222.451	29.18
222.669	39.42
222.887	55.81
223.105	23.04
223.323	35.33
223.541	25.09
223.759	12.8
223.977	-22.02
224.195	94.72
224.413	12.8
224.631	-24.06
224.849	23.04
225.067	51.71
225.285	31.23
225.503	20.99
225.721	-40.45
225.939	-36.35
226.157	16.9
226.375	78.33
226.592	14.85
226.81	-15.87
227.028	98.81
227.246	80.38
227.464	-1.54
227.682	113.15
227.9	-42.5
228.117	78.33
228.335	-3.58
228.553	20.99
228.771	25.09
228.989	137.73
229.206	49.66
229.424	55.81
229.642	-34.3
229.86	45.57
230.077	82.43
230.295	70.14
230.513	82.43
230.731	61.95
230.948	113.15
231.166	55.81
231.384	-3.58
231.601	-103.93
231.819	55.81
232.037	16.9
232.254	-50.69
232.472	27.14
232.689	-24.06
232.907	61.95
233.125	33.28
233.342	-75.26
233.56	68.09
233.777	-1.54
233.995	-13.82
234.213	25.09
234.43	-24.06
234.648	-11.78
234.865	-32.26
235.083	-19.97
235.3	-52.74
235.518	57.86
235.735	10.75
235.953	25.09
236.17	-22.02
236.388	31.23
236.605	51.71
236.822	14.85
237.04	64
237.257	-44.54
237.475	8.7
237.692	45.57
237.909	-13.82
238.127	61.95
238.344	-3.58
238.562	-13.82
238.779	25.09
238.996	27.14
239.214	-36.35
239.431	66.05
239.648	-24.06
239.865	6.66
240.083	39.42
240.3	20.99
240.517	-36.35
240.735	72.19
240.952	16.9
241.169	2.56
241.386	-7.68
241.603	-77.31
241.821	-44.54
242.038	29.18
242.255	107.01
242.472	-24.06
242.689	8.7
242.907	74.24
243.124	-15.87
243.341	31.23
243.558	-15.87
243.775	20.99
243.992	-75.26
244.209	74.24
244.426	139.77
244.643	6.66
244.86	-48.64
245.078	35.33
245.295	88.57
245.512	-3.58
245.729	-34.3
245.946	57.86
246.163	0.51
246.38	39.42
246.597	57.86
246.814	23.04
247.031	-17.92
247.248	12.8
247.464	49.66
247.681	41.47
247.898	37.38
248.115	37.38
248.332	-24.06
248.549	-46.59
248.766	111.1
248.983	53.76
249.2	82.43
249.417	33.28
249.633	-58.88
249.85	12.8
250.067	20.99
250.284	-19.97
250.501	20.99
250.717	18.94
250.934	-89.6
251.151	-1.54
251.368	33.28
251.585	-71.17
251.801	51.71
252.018	-30.21
252.235	-1.54
252.451	-17.92
252.668	35.33
252.885	37.38
253.102	78.33
253.318	2.56
253.535	-7.68
253.752	107.01
253.968	-40.45
254.185	47.62
254.401	0.51
254.618	8.7
254.835	23.04
255.051	68.09
255.268	18.94
255.484	-22.02
255.701	29.18
255.917	12.8
256.134	20.99
256.351	31.23
256.567	-17.92
256.784	-22.02
257	-32.26
257.217	16.9
257.433	98.81
257.65	18.94
257.866	31.23
258.082	25.09
258.299	-32.26
258.515	33.28
258.732	-40.45
258.948	47.62
259.165	20.99
259.381	-56.83
259.597	70.14
259.814	8.7
260.03	0.51
260.246	43.52
260.463	37.38
260.679	-15.87
260.895	8.7
261.112	78.33
261.328	59.9
261.544	-19.97
261.761	82.43
261.977	-28.16
262.193	-40.45
262.409	104.96
262.626	16.9
262.842	8.7
263.058	16.9
263.274	10.75
263.49	84.48
263.707	6.66
263.923	10.75
264.139	-9.73
264.355	-3.58
264.571	109.05
264.787	-48.64
265.004	115.2
265.22	25.09
265.436	33.28
265.652	0.51
265.868	45.57
266.084	66.05
266.3	82.43
266.516	-44.54
266.732	14.85
266.948	53.76
267.164	-7.68
267.38	16.9
267.596	64
267.812	57.86
268.028	31.23
268.244	-75.26
268.46	74.24
268.676	2.56
268.892	12.8
269.108	-15.87
269.324	53.76
269.54	-44.54
269.756	74.24
269.972	-26.11
270.188	-5.63
270.403	-73.21
270.619	37.38
270.835	33.28
271.051	-15.87
271.267	14.85
271.483	-42.5
271.698	84.48
271.914	39.42
272.13	33.28
272.346	35.33
272.562	-19.97
272.777	88.57
272.993	18.94
273.209	-138.75
273.425	45.57
273.64	14.85
273.856	55.81
274.072	29.18
274.287	-44.54
274.503	-5.63
274.719	12.8
274.934	57.86
275.15	-28.16
275.366	0.51
275.581	8.7
275.797	72.19
276.012	41.47
276.228	-52.74
276.444	16.9
276.659	49.66
276.875	-48.64
277.09	96.77
277.306	23.04
277.521	29.18
277.737	39.42
277.952	-1.54
278.168	16.9
278.383	72.19
278.599	-40.45
278.814	121.34
279.03	64
279.245	14.85
279.461	4.61
279.676	33.28
279.892	31.23
280.107	-11.78
280.322	-38.4
280.538	88.57
280.753	-48.64
280.969	10.75
281.184	6.66
281.399	39.42
281.615	49.66
281.83	-3.58
282.045	-91.65
282.26	16.9
282.476	8.7
282.691	47.62
282.906	23.04
283.122	41.47
283.337	70.14
283.552	43.52
283.767	20.99
283.983	45.57
284.198	-28.16
284.413	-3.58
284.628	0.51
284.843	47.62
285.058	0.51
285.274	-13.82
285.489	4.61
285.704	57.86
285.919	4.61
286.134	41.47
286.349	45.57
286.564	-15.87
286.779	98.81
286.995	39.42
287.21	-126.46
287.425	35.33
287.64	0.51
287.855	-1.54
288.07	-15.87
288.285	78.33
288.5	107.01
288.715	20.99
288.93	57.86
289.145	33.28
289.36	45.57
289.575	59.9
289.79	55.81
290.004	-17.92
290.219	-13.82
290.434	59.9
290.649	35.33
290.864	45.57
291.079	64
291.294	39.42
291.509	-17.92
291.724	20.99
291.938	12.8
292.153	20.99
292.368	-7.68
292.583	-40.45
292.798	29.18
293.012	55.81
293.227	18.94
293.442	-42.5
293.657	27.14
293.871	0.51
294.086	53.76
294.301	100.86
294.516	41.47
294.73	86.53
294.945	-19.97
295.16	-50.69
295.374	33.28
295.589	61.95
295.804	4.61
296.018	47.62
296.233	115.2
296.447	37.38
296.662	-5.63
296.877	82.43
297.091	33.28
297.306	-17.92
297.52	-1.54
297.735	27.14
297.949	127.49
298.164	14.85
298.378	45.57
298.593	23.04
298.807	-9.73
299.022	23.04
299.236	0.51
299.451	-44.54
299.665	8.7
299.88	18.94
300.094	12.8
300.309	31.23
300.523	8.7
300.737	37.38
300.952	80.38
301.166	-32.26
301.381	4.61
301.595	-65.02
301.809	25.09
302.024	-32.26
302.238	-15.87
302.452	59.9
302.667	-11.78
302.881	64
303.095	33.28
303.309	55.81
303.524	-87.55
303.738	64
303.952	-15.87
304.166	84.48
304.381	-60.93
304.595	39.42
304.809	0.51
305.023	14.85
305.237	-3.58
305.452	18.94
305.666	66.05
305.88	43.52
306.094	25.09
306.308	-36.35
306.522	107.01
306.736	2.56
306.95	-3.58
307.164	-11.78
307.379	-3.58
307.593	41.47
307.807	55.81
308.021	72.19
308.235	20.99
308.449	66.05
308.663	-32.26
308.877	80.38
309.091	37.38
309.305	53.76
309.519	-17.92
309.733	100.86
309.947	-13.82
310.161	25.09
310.374	35.33
310.588	74.24
310.802	-36.35
311.016	6.66
311.23	39.42
311.444	80.38
311.658	49.66
311.872	57.86
312.085	49.66
312.299	-42.5
312.513	82.43
312.727	0.51
312.941	16.9
313.154	102.91
313.368	57.86
313.582	39.42
313.796	6.66
314.009	-9.73
314.223	33.28
314.437	25.09
314.651	55.81
314.864	4.61
315.078	6.66
315.292	-26.11
315.505	-3.58
315.719	31.23
315.933	41.47
316.146	16.9
316.36	23.04
316.573	86.53
316.787	57.86
317.001	47.62
317.214	16.9
317.428	61.95
317.641	-19.97
317.855	-48.64
318.068	53.76
318.282	-1.54
318.495	113.15
318.709	33.28
318.922	-26.11
319.136	102.91
319.349	133.63
319.563	-15.87
319.776	47.62
319.99	-65.02
320.203	98.81
320.417	18.94
320.63	74.24
320.843	107.01
321.057	14.85
321.27	29.18
321.483	86.53
321.697	92.67
321.91	-75.26
322.124	16.9
322.337	8.7
322.55	10.75
322.763	6.66
322.977	29.18
323.19	2.56
323.403	-7.68
323.617	-26.11
323.83	61.95
324.043	66.05
324.256	37.38
324.469	0.51
324.683	121.34
324.896	47.62
325.109	49.66
325.322	0.51
325.535	31.23
325.748	35.33
325.962	31.23
326.175	8.7
326.388	41.47
326.601	20.99
326.814	0.51
327.027	49.66
327.24	45.57
327.453	-73.21
327.666	35.33
327.879	8.7
328.092	111.1
328.305	49.66
328.518	-75.26
328.731	-71.17
328.944	4.61
329.157	-5.63
329.37	8.7
329.583	8.7
329.796	29.18
330.009	-15.87
330.222	33.28
330.435	-19.97
330.648	33.28
330.861	14.85
331.073	51.71
331.286	88.57
331.499	90.62
331.712	-15.87
331.925	-19.97
332.138	29.18
332.35	70.14
332.563	-50.69
332.776	102.91
332.989	8.7
333.202	-48.64
333.414	-5.63
333.627	20.99
333.84	66.05
334.053	64
334.265	66.05
334.478	6.66
334.691	2.56
334.903	41.47
335.116	-26.11
335.329	2.56
335.541	-11.78
335.754	49.66
335.966	31.23
336.179	20.99
336.392	6.66
336.604	41.47
336.817	96.77
337.029	61.95
337.242	31.23
337.454	16.9
337.667	-65.02
337.88	119.29
338.092	31.23
338.305	47.62
338.517	35.33
338.729	20.99
338.942	61.95
339.154	49.66
339.367	-15.87
339.579	102.91
339.792	8.7
340.004	74.24
340.217	43.52
340.429	16.9
340.641	-28.16
340.854	-9.73
341.066	-28.16
341.278	57.86
341.491	88.57
341.703	23.04
341.915	-24.06
342.128	-46.59
342.34	82.43
342.552	-36.35
342.764	8.7
342.977	-13.82
343.189	-5.63
343.401	-30.21
343.613	-69.12
343.826	49.66
344.038	45.57
344.25	23.04
344.462	-81.41
344.674	0.51
344.886	41.47
345.099	-24.06
345.311	90.62
345.523	14.85
345.735	-54.78
345.947	66.05
346.159	39.42
346.371	29.18
346.583	-11.78
346.795	170.49
347.007	61.95
347.219	47.62
347.431	-19.97
347.643	94.72
347.855	-30.21
348.067	90.62
348.279	-32.26
348.491	57.86
348.703	104.96
348.915	-17.92
349.127	10.75
349.339	-9.73
349.551	59.9
349.763	119.29
349.975	57.86
350.187	31.23
350.399	49.66
350.61	-26.11
350.822	-42.5
351.034	49.66
351.246	12.8
351.458	61.95
351.669	-54.78
351.881	49.66
352.093	31.23
352.305	76.29
352.517	-75.26
352.728	84.48
352.94	35.33
353.152	12.8
353.363	70.14
353.575	12.8
353.787	39.42
353.999	18.94
354.21	51.71
354.422	47.62
354.633	55.81
354.845	47.62
355.057	8.7
355.268	33.28
355.48	57.86
355.692	45.57
355.903	-99.84
356.115	-15.87
356.326	-26.11
356.538	0.51
356.749	33.28
356.961	37.38
357.172	-1.54
357.384	20.99
357.595	57.86
357.807	18.94
358.018	29.18
358.23	-17.92
358.441	98.81
358.653	35.33
358.864	57.86
359.075	12.8
359.287	98.81
359.498	-7.68
359.709	100.86
359.921	49.66
360.132	82.43
360.344	14.85
360.555	14.85
360.766	-1.54
360.977	-17.92
361.189	88.57
361.4	-3.58
361.611	37.38
361.823	94.72
362.034	16.9
362.245	-48.64
362.456	66.05
362.667	41.47
362.879	-17.92
363.09	55.81
363.301	53.76
363.512	-11.78
363.723	25.09
363.935	-5.63
364.146	90.62
364.357	-17.92
364.568	-9.73
364.779	-28.16
364.99	78.33
365.201	4.61
365.412	119.29
365.623	-15.87
365.834	-13.82
366.045	96.77
366.256	37.38
366.467	14.85
366.678	78.33
366.889	-1.54
367.1	-48.64
367.311	64
367.522	-1.54
367.733	33.28
367.944	78.33
368.155	-7.68
368.366	33.28
368.577	10.75
368.788	55.81
368.999	66.05
369.209	49.66
369.42	29.18
369.631	170.49
369.842	-48.64
370.053	66.05
370.264	102.91
370.474	25.09
370.685	98.81
370.896	-26.11
371.107	39.42
371.317	41.47
371.528	49.66
371.739	80.38
371.95	55.81
372.16	41.47
372.371	-24.06
372.582	-19.97
372.792	113.15
373.003	49.66
373.214	90.62
373.424	37.38
373.635	-26.11
373.846	61.95
374.056	16.9
374.267	31.23
374.477	70.14
374.688	-34.3
374.898	6.66
375.109	66.05
375.319	53.76
375.53	-15.87
375.74	41.47
375.951	55.81
376.161	27.14
376.372	76.29
376.582	-34.3
376.793	41.47
377.003	20.99
377.214	-40.45
377.424	53.76
377.635	80.38
377.845	61.95
378.055	102.91
378.266	-97.79
378.476	37.38
378.686	33.28
378.897	78.33
379.107	47.62
379.317	37.38
379.528	-1.54
379.738	66.05
379.948	29.18
380.158	25.09
380.369	33.28
380.579	64
380.789	41.47
380.999	49.66
381.21	33.28
381.42	98.81
381.63	64
381.84	29.18
382.05	20.99
382.261	82.43
382.471	31.23
382.681	31.23
382.891	88.57
383.101	70.14
383.311	-15.87
383.521	115.2
383.731	25.09
383.941	31.23
384.151	61.95
384.361	61.95
384.571	20.99
384.781	64
384.991	123.39
385.201	113.15
385.411	53.76
385.621	4.61
385.831	0.51
386.041	41.47
386.251	78.33
386.461	70.14
386.671	49.66
386.881	88.57
387.091	45.57
387.301	-34.3
387.511	4.61
387.72	6.66
387.93	20.99
388.14	27.14
388.35	6.66
388.56	92.67
388.769	195.07
388.979	66.05
389.189	-32.26
389.399	41.47
389.609	74.24
389.818	45.57
390.028	80.38
390.238	33.28
390.447	-34.3
390.657	123.39
390.867	66.05
391.076	-75.26
391.286	82.43
391.496	16.9
391.705	98.81
391.915	-3.58
392.125	70.14
392.334	70.14
392.544	121.34
392.753	49.66
392.963	78.33
393.172	45.57
393.382	-7.68
393.591	74.24
393.801	33.28
394.01	82.43
394.22	119.29
394.429	12.8
394.639	33.28
394.848	107.01
395.058	90.62
395.267	55.81
395.477	57.86
395.686	51.71
395.895	104.96
396.105	107.01
396.314	137.73
396.524	25.09
396.733	-1.54
396.942	61.95
397.152	86.53
397.361	107.01
397.57	66.05
397.78	25.09
397.989	82.43
398.198	115.2
398.407	16.9
398.617	143.87
398.826	57.86
399.035	98.81
399.244	80.38
399.453	94.72
399.663	78.33
399.872	45.57
400.081	57.86
400.29	53.76
400.499	18.94
400.708	74.24
400.917	12.8
401.127	45.57
401.336	82.43
401.545	98.81
401.754	168.45
401.963	166.4
402.172	4.61
402.381	27.14
402.59	51.71
402.799	82.43
403.008	41.47
403.217	147.97
403.426	98.81
403.635	64
403.844	41.47
404.053	104.96
404.262	-52.74
404.471	127.49
404.68	109.05
404.888	100.86
405.097	127.49
405.306	90.62
405.515	139.77
405.724	152.06
405.933	86.53
406.142	154.11
406.35	82.43
406.559	180.73
406.768	92.67
406.977	123.39
407.185	86.53
407.394	145.92
407.603	152.06
407.812	119.29
408.02	143.87
408.229	145.92
408.438	217.6
408.646	166.4
408.855	205.31
409.064	139.77
409.272	178.69
409.481	211.45
409.69	170.49
409.898	150.01
410.107	203.26
410.315	291.32
410.524	207.36
410.733	264.7
410.941	184.83
411.15	213.5
411.358	293.37
411.567	250.36
411.775	225.79
411.984	324.09
412.192	256.51
412.401	328.19
412.609	363
412.818	430.59
413.026	336.38
413.234	418.3
413.443	334.33
413.651	371.19
413.86	408.06
414.068	498.17
414.276	485.88
414.485	344.57
414.693	469.5
414.901	514.55
415.11	477.69
415.318	451.07
415.526	535.03
415.734	459.26
415.943	541.18
416.151	514.55
416.359	580.09
416.567	530.94
416.776	711.16
416.984	627.19
417.192	725.49
417.4	760.31
417.608	821.75
417.817	696.82
418.025	768.5
418.233	850.42
418.441	786.93
418.649	776.69
418.857	940.53
419.065	922.1
419.273	842.23
419.481	889.33
419.689	1047.02
419.897	1044.98
420.105	1114.61
420.313	1053.17
420.521	1063.41
420.729	1221.1
420.937	1161.71
421.145	1251.82
421.353	1253.87
421.561	1364.46
421.769	1417.71
421.977	1456.62
422.185	1483.24
422.393	1491.43
422.601	1647.08
422.809	1597.93
423.017	1663.46
423.224	1688.04
423.432	1657.32
423.64	1755.62
423.848	1950.18
424.056	1882.6
424.263	2064.86
424.471	1917.41
424.679	2036.19
424.887	2132.45
425.094	2204.13
425.302	2306.52
425.51	2343.39
425.718	2408.92
425.925	2380.25
426.133	2386.4
426.341	2699.73
426.548	2677.21
426.756	2791.89
426.964	2798.04
427.171	2898.39
427.379	2976.21
427.586	3072.47
427.794	3178.96
428.001	3357.13
428.209	3367.37
428.417	3463.63
428.624	3547.59
428.832	3559.88
429.039	3629.51
429.247	3488.2
429.454	3989.96
429.662	4282.81
429.869	4059.59
430.076	4168.13
430.284	4123.07
430.491	4301.25
430.699	4620.73
430.906	4512.19
431.114	4645.31
431.321	4772.28
431.528	4790.71
431.736	5206.45
431.943	5382.57
432.15	5345.71
432.358	5300.66
432.565	5628.33
432.772	5546.41
432.979	5882.28
433.187	6064.55
433.394	6027.68
433.601	6367.65
433.808	6373.79
434.016	6463.9
434.223	6740.38
434.43	7094.68
434.637	6943.13
434.844	7233.94
435.052	7446.93
435.259	7346.58
435.466	7487.89
435.673	7414.16
435.88	8053.13
436.087	8319.36
436.294	8268.16
436.501	8102.28
436.708	8444.29
436.915	8642.94
437.122	9070.97
437.329	8888.7
437.537	9300.34
437.743	9419.12
437.95	9451.89
438.157	9685.36
438.364	10148.2
438.571	10215.78
438.778	10250.6
438.985	11188.57
439.192	10623.33
439.399	10873.18
439.606	10809.69
439.813	11211.09
440.02	12155.21
440.227	11843.92
440.433	11802.96
440.64	12216.65
440.847	11960.65
441.054	12081.48
441.261	13187.38
441.467	13007.16
441.674	13308.21
441.881	13789.49
442.088	13513.01
442.294	13394.23
442.501	13998.38
442.708	14397.73
442.914	14639.39
443.121	15436.05
443.328	14776.61
443.534	16103.69
443.741	15491.35
443.948	15194.39
444.154	16402.69
444.361	16396.55
444.568	16580.87
444.774	16609.54
444.981	16926.97
445.187	17334.52
445.394	18086.12
445.6	17545.46
445.807	19431.64
446.013	18395.37
446.22	19020
446.426	19407.06
446.633	19925.2
446.839	20275.4
447.046	19812.56
447.252	20693.19
447.459	20953.28
447.665	20775.11
447.871	21620.92
448.078	22440.11
448.284	21452.98
448.491	22284.46
448.697	23042.21
448.903	23036.06
449.11	23285.92
449.316	23183.52
449.522	23478.43
449.728	24019.09
449.935	24248.46
450.141	24318.09
450.347	24682.63
450.553	23924.88
450.76	24029.33
450.966	24823.94
451.172	24508.55
451.378	25110.66
451.584	24780.93
451.791	25464.96
451.997	25331.84
452.203	25839.73
452.409	25694.33
452.615	25497.72
452.821	24819.85
453.027	24354.96
453.233	25864.31
453.44	24653.96
453.646	24809.61
453.852	24932.48
454.058	25202.82
454.264	24225.93
454.47	25063.55
454.676	24324.24
454.882	25602.17
455.088	23142.56
455.294	23441.56
455.5	23537.82
455.705	23845.01
455.911	22915.23
456.117	22649
456.323	22139.05
456.529	21240
456.735	22220.97
456.941	21334.2
457.147	21100.73
457.352	20484.3
457.558	20259.02
457.764	20400.33
457.97	19996.88
458.176	19605.72
458.381	19437.78
458.587	18446.57
458.793	18452.71
458.999	17430.77
459.204	18671.84
459.41	18161.9
459.616	16802.05
459.821	17062.14
460.027	16810.24
460.233	16515.33
460.438	15833.36
460.644	15892.75
460.85	15270.17
461.055	14967.07
461.261	14872.86
461.466	13857.07
461.672	13340.98
461.878	14090.54
462.083	13383.99
462.289	13228.34
462.494	13037.88
462.7	12335.43
462.905	12224.84
463.111	12603.71
463.316	12589.38
463.522	12546.37
463.727	12255.56
463.932	12194.12
464.138	12095.82
464.343	11964.75
464.549	11835.72
464.754	12497.22
464.959	12034.38
465.165	12054.86
465.37	11303.25
465.575	11133.27
465.781	11620.69
465.986	11577.68
466.191	11344.21
466.397	11039.06
466.602	10699.1
466.807	10981.72
467.012	10930.52
467.218	10893.66
467.423	10955.1
467.628	10807.64
467.833	11196.76
468.038	10652
468.244	10549.6
468.449	10735.96
468.654	10504.54
468.859	10721.63
469.064	10264.93
469.269	10049.89
469.474	10111.33
469.679	10279.27
469.885	9912.68
470.09	10189.16
470.295	10021.22
470.5	9845.1
470.705	9984.36
470.91	9640.3
471.115	9701.74
471.32	9570.67
471.525	9691.5
471.73	9480.56
471.935	9408.88
472.139	8804.73
472.344	9308.53
472.549	9087.35
472.754	9105.78
472.959	8948.09
473.164	8597.88
473.369	8599.93
473.574	8751.48
473.778	8786.3
473.983	8771.96
474.188	8632.7
474.393	8147.33
474.598	8163.72
474.802	8176
475.007	7909.77
475.212	8386.94
475.417	7868.81
475.621	7946.63
475.826	7833.99
476.031	7833.99
476.235	7674.25
476.44	7735.69
476.645	7684.49
476.849	7512.46
477.054	7340.43
477.259	7322
477.463	7491.98
477.668	7127.44
477.872	7455.12
478.077	7211.41
478.282	6961.56
478.486	6941.08
478.691	6783.38
478.895	6742.43
479.1	6807.96
479.304	6797.72
479.509	6644.12
479.713	6828.44
479.918	6652.31
480.122	6381.98
480.326	6533.53
480.531	6451.61
480.735	6496.67
480.94	6482.33
481.144	6484.38
481.348	6263.2
481.553	6519.2
481.757	6132.13
481.961	6373.79
482.166	6355.36
482.37	6332.83
482.574	6201.76
482.778	6418.85
482.983	6349.22
483.187	6406.56
483.391	6332.83
483.595	6168.99
483.8	6191.52
484.004	6338.98
484.208	6367.65
484.412	6279.58
484.616	6369.69
484.821	6042.02
485.025	6224.29
485.229	6220.19
485.433	6277.54
485.637	6349.22
485.841	6144.42
486.045	6398.37
486.249	6386.08
486.453	6236.58
486.657	6257.06
486.861	6259.1
487.065	6205.86
487.269	6324.64
487.473	6220.19
487.677	6279.58
487.881	6402.46
488.085	6246.82
488.289	6308.26
488.493	6232.48
488.697	6267.3
488.901	6306.21
489.105	6275.49
489.309	6203.81
489.512	6347.17
489.716	6369.69
489.92	6234.53
490.124	6445.47
490.328	6400.41
490.531	6295.97
490.735	6402.46
490.939	6357.41
491.143	6373.79
491.346	6539.68
491.55	6480.29
491.754	6627.74
491.958	6398.37
492.161	6619.55
492.365	6578.59
492.569	6398.37
492.772	6715.8
492.976	6570.4
493.18	6691.23
493.383	6896.02
493.587	6889.88
493.79	6963.61
493.994	6695.32
494.197	6867.35
494.401	6963.61
494.605	6992.28
494.808	6912.41
495.012	7123.35
495.215	7317.9
495.419	7127.44
495.622	7199.12
495.825	7182.74
496.029	7412.11
496.232	7405.97
496.436	7338.38
496.639	7668.11
496.843	7643.53
497.046	7696.78
497.249	7915.91
497.453	7854.47
497.656	7790.99
497.859	7868.81
498.063	8167.81
498.266	8053.13
498.469	7936.39
498.673	8264.07
498.876	8407.42
499.079	8405.38
499.282	8597.88
499.485	8737.15
499.689	8733.05
499.892	8814.97
500.095	8948.09
500.298	9032.05
500.501	8864.12
500.705	9118.07
500.908	9165.17
501.111	9222.52
501.314	9453.94
501.517	9345.39
501.72	9609.58
501.923	9597.29
502.126	10064.23
502.329	10064.23
502.532	10013.03
502.735	10086.76
502.938	10383.71
503.141	10389.86
503.344	10412.39
503.547	10793.31
503.75	10699.1
503.953	10701.15
504.156	11018.58
504.359	10967.38
504.562	11051.35
504.765	11450.71
504.968	11479.38
505.17	11475.28
505.373	11571.54
505.576	11962.7
505.779	11866.44
505.982	11958.6
506.185	12333.38
506.387	12343.62
506.59	12235.08
506.793	12820.8
506.996	12511.55
507.198	12886.33
507.401	12820.8
507.604	13144.38
507.807	13158.71
508.009	13517.11
508.212	13508.91
508.415	13728.05
508.617	13680.94
508.82	13678.9
509.022	13930.8
509.225	14379.3
509.428	14256.42
509.63	14360.87
509.833	14582.05
510.035	14922.01
510.238	15048.99
510.44	15012.12
510.643	15175.96
510.845	15126.81
511.048	15491.35
511.25	15581.46
511.453	15896.85
511.655	16242.95
511.858	16152.84
512.06	16371.97
512.262	16263.43
512.465	16474.37
512.667	16550.15
512.87	16822.53
513.072	16896.25
513.274	17170.68
513.477	17543.41
513.679	17522.93
513.881	17803.5
514.084	17912.05
514.286	18284.78
514.488	18393.32
514.69	18999.52
514.893	18782.43
515.095	18661.6
515.297	19065.05
515.499	19284.19
515.701	19398.87
515.904	19675.35
516.106	19949.78
516.308	19800.27
516.51	20101.33
516.712	20209.87
516.914	20691.14
517.116	20760.77
517.318	20803.78
517.52	21041.34
517.722	21010.62
517.925	21536.95
518.127	21659.83
518.329	22173.87
518.531	21725.36
518.733	22544.55
518.935	22718.63
519.136	22933.67
519.338	23036.06
519.54	23378.08
519.742	23474.33
519.944	23228.57
520.146	24051.86
520.348	24148.11
520.55	24311.95
520.752	24598.66
520.954	25137.28
521.155	25049.22
521.357	25370.75
521.559	25688.18
521.761	25786.49
521.963	25737.34
522.164	26206.32
522.366	26568.81
522.568	26710.12
522.77	26630.25
522.971	27467.87
523.173	27410.53
523.375	27986
523.576	27248.74
523.778	27660.38
523.98	28168.27
524.181	28348.5
524.383	28074.07
524.584	28823.62
524.786	29096
524.988	28710.99
525.189	29089.86
525.391	29325.38
525.592	29857.85
525.794	29810.75
525.995	30005.3
526.197	29898.81
526.398	30357.55
526.6	30554.16
526.801	30828.59
527.003	31098.92
527.204	31186.98
527.406	31334.43
527.607	31729.69
527.808	31891.48
528.01	31422.5
528.211	31967.26
528.412	32305.17
528.614	32413.71
528.815	32577.55
529.016	32976.9
529.218	32432.15
529.419	32737.29
529.62	33191.94
529.822	33220.61
530.023	33269.76
530.224	33150.98
530.425	33179.65
530.626	33097.73
530.828	33163.27
531.029	33591.3
531.23	33769.47
531.431	33531.9
531.632	34047.99
531.833	34277.36
532.035	33816.57
532.236	34254.84
532.437	34562.03
532.638	34080.76
532.839	34598.9
533.04	34838.51
533.241	34236.41
533.442	35438.56
533.643	34938.86
533.844	34883.56
534.045	35237.86
534.246	34727.92
534.447	34856.94
534.648	34889.71
534.849	35203.05
535.05	34904.04
535.251	35174.38
535.451	35192.81
535.652	35352.55
535.853	35223.53
536.054	35448.8
536.255	35467.23
536.456	35413.99
536.657	35825.63
536.857	35663.84
537.058	35289.06
537.259	35891.16
537.46	35882.97
537.66	35391.46
537.861	35655.65
538.062	35350.5
538.263	35420.13
538.463	35489.76
538.664	35463.14
538.865	35637.22
539.065	35846.11
539.266	35829.73
539.466	36016.09
539.667	35391.46
539.868	35907.55
540.068	35794.91
540.269	35641.31
540.469	35940.32
540.67	35708.9
540.87	35590.11
541.071	35493.86
541.271	35987.42
541.472	35991.51
541.672	35637.22
541.873	35901.4
542.073	35237.86
542.274	36007.9
542.474	35715.04
542.675	35534.82
542.875	35899.36
543.075	36130.78
543.276	35520.48
543.476	35833.82
543.676	35618.78
543.877	35579.87
544.077	35846.11
544.277	36046.81
544.478	35446.76
544.678	35766.24
544.878	35639.26
545.078	36014.04
545.279	35481.57
545.479	35563.49
545.679	35739.61
545.879	35956.7
546.079	35477.47
546.28	35518.43
546.48	35725.28
546.68	35934.17
546.88	35817.44
547.08	35938.27
547.28	35829.73
547.48	35336.16
547.68	35790.81
547.88	35739.61
548.081	36018.14
548.281	35665.89
548.481	35614.69
548.681	35686.37
548.881	35610.59
549.081	35702.75
549.28	36030.43
549.48	35727.33
549.68	35760.09
549.88	35842.01
550.08	35241.96
550.28	36030.43
550.48	35422.18
550.68	36317.14
550.88	35526.63
551.08	35864.54
551.279	35565.54
551.479	35366.88
551.679	35719.13
551.879	35305.45
552.079	35659.74
552.278	35747.81
552.478	35438.56
552.678	35454.95
552.878	35504.1
553.077	35428.32
553.277	35088.36
553.477	35643.36
553.676	35456.99
553.876	35502.05
554.076	35090.41
554.275	35071.98
554.475	34996.2
554.674	35018.73
554.874	35127.27
555.074	35276.77
555.273	35213.29
555.473	35016.68
555.672	34463.73
555.872	34842.6
556.071	34854.89
556.271	34740.21
556.47	34762.73
556.67	34506.74
556.869	34598.9
557.068	34478.07
557.268	34238.45
557.467	34314.23
557.667	34283.51
557.866	34142.2
558.065	34066.42
558.265	34035.7
558.464	33939.45
558.663	34385.91
558.863	33748.99
559.062	34390
559.261	33658.88
559.461	34025.46
559.66	33167.37
559.859	33679.36
560.058	33341.44
560.258	33372.16
560.457	33171.46
560.656	33132.55
560.855	33267.72
561.054	33048.58
561.253	33085.45
561.453	33228.8
561.652	32811.02
561.851	32876.55
562.05	32299.03
562.249	32419.86
562.448	32751.63
562.647	32284.69
562.846	32591.89
563.045	32241.68
563.244	31678.49
563.443	32460.82
563.642	31748.12
563.841	32022.55
564.04	31459.36
564.239	31891.48
564.438	31385.63
564.637	31569.95
564.836	31356.96
565.035	31002.66
565.234	31229.99
565.432	30842.92
565.631	30724.14
565.83	31250.47
566.029	30515.25
566.228	30287.92
566.427	30574.64
566.625	30195.76
566.824	30021.69
567.023	30029.88
567.222	29331.52
567.42	29730.87
567.619	29804.6
567.818	29403.2
568.016	29536.32
568.215	29501.5
568.414	29139.01
568.612	29470.78
568.811	28975.17
569.01	29161.54
569.208	28477.52
569.407	28629.07
569.605	28401.74
569.804	28307.54
570.002	28024.92
570.201	28368.98
570.4	27971.67
570.598	28174.42
570.797	27555.93
570.995	27412.57
571.193	27265.12
571.392	27455.58
571.59	27504.73
571.789	27215.97
571.987	27338.85
572.186	27254.88
572.384	26945.64
572.582	26814.57
572.781	26835.05
572.979	26509.42
573.177	26675.3
573.376	26458.22
573.574	26507.37
573.772	26376.3
573.971	26548.33
574.169	26163.31
574.367	25882.74
574.565	25905.27
574.763	26042.48
574.962	25301.12
575.16	25452.67
575.358	25573.5
575.556	25149.57
575.754	25415.8
575.952	24897.67
576.151	25403.52
576.349	24680.58
576.547	24651.91
576.745	24664.2
576.943	24555.66
577.141	24451.21
577.339	24445.07
577.537	24957.06
577.735	24305.81
577.933	24578.18
578.131	24477.83
578.329	23914.64
578.527	23894.16
578.725	24148.11
578.923	24123.54
579.121	23505.05
579.319	23414.94
579.516	23591.06
579.714	23939.22
579.912	23560.34
580.11	23400.6
580.308	23623.83
580.506	23580.82
580.704	22907.04
580.901	23120.03
581.099	23062.69
581.297	23042.21
581.495	23003.3
581.692	22917.28
581.89	22806.69
582.088	22896.8
582.285	22472.87
582.483	22778.02
582.681	22192.3
582.878	22132.91
583.076	22075.57
583.274	22419.63
583.471	21911.73
583.669	22177.97
583.866	21928.11
584.064	21977.26
584.262	21778.61
584.459	21944.5
584.657	21557.43
584.854	21645.49
585.052	21420.22
585.249	21338.3
585.447	21702.84
585.644	21332.15
585.841	21072.06
586.039	21264.57
586.236	20689.09
586.434	20988.1
586.631	20781.25
586.828	20875.46
587.026	20953.28
587.223	20807.87
587.42	20760.77
587.618	20572.36
587.815	20603.08
588.012	20631.75
588.21	20306.12
588.407	20816.07
588.604	20113.61
588.801	20134.09
588.999	20027.6
589.196	20297.93
589.393	20170.96
589.59	19974.35
589.787	19970.26
589.984	19701.97
590.182	19765.46
590.379	19898.58
590.576	19640.53
590.773	19620.05
590.97	19470.55
591.167	19726.55
591.364	19345.62
591.561	19165.4
591.758	18948.32
591.955	18944.22
592.152	19255.51
592.349	18944.22
592.546	18919.65
592.743	18944.22
592.94	18452.71
593.137	18778.34
593.334	18802.91
593.531	18673.89
593.727	18469.09
593.924	18477.29
594.121	18372.84
594.318	18559.2
594.515	18301.16
594.712	18563.3
594.908	18129.13
595.105	18569.44
595.302	17998.06
595.499	18172.14
595.696	18231.53
595.892	17981.68
596.089	18030.83
596.286	18137.32
596.482	17684.72
596.679	17948.91
596.876	17780.98
597.072	17373.43
597.269	17547.51
597.466	17481.97
597.662	17465.59
597.859	17441.01
598.055	17465.59
598.252	17469.69
598.448	17340.66
598.645	17213.69
598.841	17150.2
599.038	17092.86
599.234	17037.56
599.431	16955.65
599.627	16767.23
599.824	16941.31
600.02	16693.51
600.217	16945.41
600.413	16740.61
600.609	16763.14
600.806	16754.94
601.002	16775.42
601.198	16707.84
601.395	16324.87
601.591	16204.04
601.787	16513.28
601.984	16322.82
602.18	16165.13
602.376	16101.64
602.572	15946
602.769	16234.76
602.965	16009.48
603.161	15933.71
603.357	15874.32
603.553	15808.78
603.75	15884.56
603.946	15739.15
604.142	15765.78
604.338	15681.81
604.534	15608.08
604.73	15485.2
604.926	15380.76
605.122	15608.08
605.318	15421.72
605.514	15298.84
605.71	15493.4
605.906	15184.15
606.102	15149.34
606.298	15307.03
606.494	14956.83
606.69	15038.75
606.886	15180.06
607.082	14917.92
607.278	15096.09
607.474	14868.77
607.67	15169.82
607.866	14518.56
608.062	14893.34
608.257	14467.36
608.453	14573.86
608.649	14803.23
608.845	14663.97
609.041	14385.44
609.236	14555.43
609.432	14532.9
609.628	14532.9
609.824	14436.64
610.019	14436.64
610.215	14313.77
610.411	14246.18
610.606	14203.18
610.802	14258.47
610.998	14295.33
611.193	14330.15
611.389	13928.75
611.584	14504.23
611.78	14049.58
611.976	14240.04
612.171	14055.72
612.367	14104.87
612.562	13762.86
612.758	13623.6
612.953	13863.21
613.149	13914.41
613.344	13627.7
613.539	13787.44
613.735	13662.51
613.93	13842.73
614.126	13607.22
614.321	13750.57
614.517	13785.39
614.712	13467.95
614.907	13562.16
615.103	13709.61
615.298	13480.24
615.493	13420.85
615.688	13349.17
615.884	13654.32
616.079	13236.53
616.274	13316.4
616.47	13142.33
616.665	13439.28
616.86	13250.87
617.055	13037.88
617.25	13113.66
617.445	13101.37
617.641	13107.51
617.836	13152.57
618.031	12960.06
618.226	13140.28
618.421	12880.19
618.616	13007.16
618.811	12714.3
619.006	12960.06
619.201	12591.42
619.396	12716.35
619.591	12525.89
619.786	12781.88
619.981	12278.08
620.176	12708.16
620.371	12218.69
620.566	12527.94
620.761	12343.62
620.956	12384.58
621.151	12108.1
621.346	12007.75
621.541	12052.81
621.735	12194.12
621.93	11784.52
622.125	12159.3
622.32	11727.18
622.515	11962.7
622.709	11802.96
622.904	11581.78
623.099	11493.71
623.294	11585.87
623.488	11327.83
623.683	11643.21
623.878	11354.45
624.072	11313.49
624.267	11413.84
624.462	11032.92
624.656	11217.24
624.851	11278.68
625.046	11018.58
625.24	11002.2
625.435	10994.01
625.629	10781.02
625.824	10858.84
626.018	10903.9
626.213	10695
626.407	10604.89
626.602	10588.51
626.796	10600.8
626.991	10551.65
627.185	10615.13
627.38	10375.52
627.574	10240.36
627.768	10238.31
627.963	10092.9
628.157	10101.09
628.352	10125.67
628.546	9902.44
628.74	10240.36
628.935	9789.8
629.129	10176.87
629.323	9542
629.517	9714.03
629.712	9699.69
629.906	9558.38
630.1	9654.64
630.294	9761.13
630.489	9455.98
630.683	9507.18
630.877	9195.89
631.071	9347.44
631.265	9339.25
631.459	9472.37
631.653	9183.6
631.848	9179.51
632.042	9273.71
632.236	9099.64
632.43	9093.49
632.624	9070.97
632.818	8999.29
633.012	8550.78
633.206	8860.02
633.4	8808.83
633.594	8708.48
633.788	8552.83
633.982	8632.7
634.176	8655.23
634.369	8544.64
634.563	8366.46
634.757	8411.52
634.951	8704.38
635.145	8456.57
635.339	8362.37
635.533	8284.55
635.726	8343.94
635.92	8200.58
636.114	8110.47
636.308	8169.86
636.501	8155.52
636.695	8075.65
636.889	8094.08
637.083	7848.33
637.276	7895.43
637.47	7788.94
637.664	7958.92
637.857	7854.47
638.051	7643.53
638.244	7690.63
638.438	7666.06
638.632	7651.72
638.825	7520.65
639.019	7573.9
639.212	7250.32
639.406	7432.59
639.599	7309.71
639.793	7393.68
639.986	7299.47
640.18	7272.85
640.373	7315.86
640.567	7117.2
640.76	7330.19
640.954	7158.16
641.147	6986.13
641.34	7023
641.534	6879.64
641.727	7016.85
641.92	6836.63
642.114	6730.14
642.307	6832.54
642.5	6709.66
642.694	6836.63
642.887	6740.38
643.08	6754.71
643.273	6777.24
643.467	6574.49
643.66	6580.64
643.853	6695.32
644.046	6416.8
644.239	6529.44
644.432	6511
644.626	6545.82
644.819	6353.31
645.012	6424.99
645.205	6281.63
645.398	6300.06
645.591	6398.37
645.784	6236.58
645.977	6246.82
646.17	6142.37
646.363	6218.15
646.556	6078.88
646.749	6193.57
646.942	5976.48
647.135	5982.63
647.328	6037.92
647.521	6039.97
647.714	5820.84
647.907	5798.31
648.099	5872.04
648.292	5863.85
648.485	5779.88
648.678	5632.43
648.871	5640.62
649.064	5685.67
649.256	5826.98
649.449	5669.29
649.642	5702.06
649.835	5665.19
650.027	5566.89
650.22	5554.6
650.413	5448.11
650.605	5716.39
650.798	5439.92
650.991	5347.76
651.183	5441.96
651.376	5460.4
651.568	5329.33
651.761	5243.31
651.954	5491.12
652.146	5353.9
652.339	5173.68
652.531	5226.93
652.724	5321.13
652.916	5308.85
653.109	5175.73
653.301	5292.46
653.494	5169.59
653.686	5077.43
653.879	5255.6
654.071	5124.53
654.263	4991.41
654.456	5233.07
654.648	5005.75
654.84	5018.04
655.033	5028.28
655.225	4882.87
655.417	4841.91
655.61	4762.04
655.802	4948.4
655.994	4708.79
656.186	4702.65
656.379	4864.44
656.571	4719.03
656.763	4739.51
656.955	4866.49
657.148	4747.7
657.34	4700.6
657.532	4743.61
657.724	4612.54
657.916	4614.59
658.108	4735.42
658.3	4573.63
658.492	4649.4
658.684	4590.01
658.876	4825.53
659.068	4432.32
659.26	4528.57
659.452	4569.53
659.644	4555.19
659.836	4422.08
660.028	4528.57
660.22	4389.31
660.412	4510.14
660.604	4344.25
660.796	4366.78
660.988	4403.64
661.18	4366.78
661.372	4473.28
661.563	4377.02
661.755	4135.36
661.947	4387.26
662.139	4264.38
662.331	4399.55
662.522	4235.71
662.714	4286.91
662.906	4272.57
663.097	4366.78
663.289	4243.9
663.481	4354.49
663.673	4266.43
663.864	4284.86
664.056	4104.64
664.247	4192.7
664.439	4133.31
664.631	4186.56
664.822	4178.37
665.014	4354.49
665.205	4114.88
665.397	4010.43
665.588	4141.5
665.78	4030.91
665.971	4141.5
666.163	4317.63
666.354	4082.11
666.546	4229.57
666.737	4088.26
666.929	4035.01
667.12	4030.91
667.311	4084.16
667.503	4051.39
667.694	4161.98
667.885	3946.95
668.077	4121.03
668.268	4268.48
668.459	4069.83
668.651	4135.36
668.842	4157.89
669.033	4071.87
669.224	4039.11
669.416	4131.26
669.607	4063.68
669.798	3953.09
669.989	4112.83
670.18	4051.39
670.371	4084.16
670.563	4170.18
670.754	3981.76
670.945	4094.4
671.136	4012.48
671.327	4047.3
671.518	4204.99
671.709	4141.5
671.9	4223.42
672.091	4166.08
672.282	4426.17
672.473	4223.42
672.664	4141.5
672.855	4125.12
673.046	4325.82
673.237	4219.33
673.428	4092.35
673.619	4377.02
673.809	4202.94
674	4282.81
674.191	4323.77
674.382	4233.66
674.573	4321.73
674.764	4276.67
674.954	4403.64
675.145	4194.75
675.336	4331.97
675.527	4407.74
675.717	4608.44
675.908	4315.58
676.099	4489.66
676.289	4465.08
676.48	4446.65
676.671	4389.31
676.861	4481.47
677.052	4403.64
677.243	4512.19
677.433	4594.11
677.624	4469.18
677.814	4440.51
678.005	4602.3
678.195	4706.74
678.386	4725.18
678.576	4610.49
678.767	4577.72
678.957	4573.63
679.148	4835.77
679.338	4702.65
679.529	4794.81
679.719	4733.37
679.909	4780.47
680.1	4749.75
680.29	4817.33
680.481	4866.49
680.671	4864.44
680.861	4813.24
681.052	5018.04
681.242	4999.6
681.432	5157.3
681.622	4956.6
681.813	4919.73
682.003	5063.09
682.193	5071.28
682.383	5179.82
682.573	5185.97
682.764	5185.97
682.954	5163.44
683.144	5136.82
683.334	5185.97
683.524	5253.55
683.714	5269.94
683.904	5179.82
684.094	5255.6
684.284	5116.34
684.474	5331.37
684.664	5167.54
684.854	5304.75
685.044	5183.92
685.234	5237.17
685.424	5208.5
685.614	5274.03
685.804	5251.5
685.994	5331.37
686.184	5347.76
686.374	5374.38
686.564	5321.13
686.753	5310.89
686.943	5185.97
687.133	5347.76
687.323	5071.28
687.513	5321.13
687.702	5210.54
687.892	5120.43
688.082	5128.63
688.272	5190.06
688.461	5282.22
688.651	5132.72
688.841	5046.71
689.03	5073.33
689.22	4923.83
689.41	5061.04
689.599	4975.03
689.789	4927.92
689.979	5013.94
690.168	5018.04
690.358	4766.14
690.547	5018.04
690.737	4891.06
690.926	4850.1
691.116	4899.25
691.305	4874.68
691.495	4776.38
691.684	4819.38
691.874	4749.75
692.063	4759.99
692.252	4727.22
692.442	4800.95
692.631	4751.8
692.82	4653.5
693.01	4577.72
693.199	4583.87
693.388	4628.92
693.578	4669.88
693.767	4626.87
693.956	4649.4
694.146	4432.32
694.335	4463.04
694.524	4483.52
694.713	4530.62
694.902	4452.8
695.092	4374.97
695.281	4403.64
695.47	4395.45
695.659	4377.02
695.848	4473.28
696.037	4508.09
696.226	4544.95
696.415	4399.55
696.604	4323.77
696.793	4395.45
696.982	4446.65
697.171	4499.9
697.36	4563.39
697.549	4293.05
697.738	4428.22
697.927	4325.82
698.116	4370.88
698.305	4442.56
698.494	4284.86
698.683	4428.22
698.872	4428.22
699.061	4334.01
699.25	4518.33
699.438	4544.95
699.627	4395.45
699.816	4508.09
700.005	4471.23
700.193	4520.38
700.382	4542.91
700.571	4391.36
700.76	4321.73
700.948	4485.56
701.137	4436.41
701.326	4444.6
701.514	4518.33
701.703	4399.55
701.892	4467.13
702.08	4485.56
702.269	4530.62
702.457	4516.28
702.646	4483.52
702.834	4454.84
703.023	4526.52
703.212	4612.54
703.4	4671.93
703.589	4542.91
703.777	4790.71
703.965	4569.53
704.154	4716.98
704.342	4647.35
704.531	4497.85
704.719	4612.54
704.907	4733.37
705.096	4579.77
705.284	4684.22
705.472	4780.47
705.661	4725.18
705.849	4665.78
706.037	4764.09
706.226	4755.9
706.414	4743.61
706.602	4690.36
706.79	4792.76
706.979	4680.12
707.167	4909.49
707.355	4886.97
707.543	4925.88
707.731	4985.27
707.919	4981.17
708.107	4874.68
708.296	4891.06
708.484	4948.4
708.672	4817.33
708.86	4805.05
709.048	4919.73
709.236	5224.88
709.424	5042.61
709.612	5063.09
709.8	4927.92
709.988	5134.77
710.176	5005.75
710.364	5155.25
710.551	5095.86
710.739	5142.96
710.927	5112.24
711.115	5181.87
711.303	5190.06
711.491	5231.02
711.679	5104.05
711.866	5171.63
712.054	5267.89
712.242	5128.63
712.43	5413.29
712.617	5251.5
712.805	5398.96
712.993	5595.56
713.181	5398.96
713.368	5441.96
713.556	5579.18
713.744	5376.43
713.931	5632.43
714.119	5530.03
714.306	5644.71
714.494	5525.93
714.682	5536.17
714.869	5605.8
715.057	5749.16
715.244	5587.37
715.432	5613.99
715.619	5763.5
715.807	5628.33
715.994	5521.84
716.182	5755.3
716.369	5740.97
716.556	5732.78
716.744	5700.01
716.931	5833.13
717.119	5800.36
717.306	5906.85
717.493	5855.65
717.681	5990.82
717.868	5896.61
718.055	5904.81
718.242	5968.29
718.43	5994.92
718.617	5960.1
718.804	6185.38
718.991	6171.04
719.179	6128.03
719.366	6039.97
719.553	6087.08
719.74	6158.75
719.927	6144.42
720.114	6115.75
720.301	6214.05
720.488	6164.9
720.676	6255.01
720.863	6306.21
721.05	6406.56
721.237	6259.1
721.424	6349.22
721.611	6564.25
721.798	6404.51
721.985	6291.87
722.172	6279.58
722.358	6422.94
722.545	6400.41
722.732	6470.05
722.919	6476.19
723.106	6455.71
723.293	6357.41
723.48	6484.38
723.667	6580.64
723.853	6336.93
724.04	6705.56
724.227	6633.88
724.414	6592.92
724.6	6709.66
724.787	6662.55
724.974	6699.42
725.161	6685.08
725.347	6543.77
725.534	6689.18
725.72	6586.78
725.907	6873.5
726.094	6865.3
726.28	6767
726.467	6783.38
726.653	6746.52
726.84	6959.51
727.027	6861.21
727.213	6760.86
727.4	6928.79
727.586	6734.23
727.773	6828.44
727.959	6977.94
728.145	6744.47
728.332	6896.02
728.518	6934.93
728.705	6943.13
728.891	7057.81
729.077	6832.54
729.264	6971.8
729.45	6898.07
729.636	7090.58
729.823	7066
730.009	7145.87
730.195	6879.64
730.382	7029.14
730.568	6955.41
730.754	7139.73
730.94	7088.53
731.126	7248.27
731.313	7219.6
731.499	6957.46
731.685	6912.41
731.871	7080.34
732.057	7240.08
732.243	7176.59
732.429	7403.92
732.615	7233.94
732.801	7154.07
732.987	7090.58
733.173	7160.21
733.359	7317.9
733.545	7203.22
733.731	7305.62
733.917	7266.71
734.103	7164.31
734.289	7135.64
734.475	7311.76
734.661	7563.66
734.847	7436.69
735.033	7356.82
735.219	7252.37
735.404	7078.29
735.59	7166.35
735.776	7184.79
735.962	7332.24
736.148	7260.56
736.333	7373.2
736.519	7319.95
736.705	7080.34
736.89	7356.82
737.076	7307.66
737.262	7281.04
737.447	7182.74
737.633	7123.35
737.819	7233.94
738.004	7209.36
738.19	7287.18
738.375	7117.2
738.561	7221.65
738.747	7166.35
738.932	7197.07
739.118	7299.47
739.303	7225.75
739.489	7283.09
739.674	7283.09
739.859	7248.27
740.045	7225.75
740.23	7178.64
740.416	6977.94
740.601	7213.46
740.786	7092.63
740.972	6965.65
741.157	7043.48
741.342	6853.02
741.528	6918.55
741.713	6936.98
741.898	6990.23
742.084	6973.85
742.269	6893.97
742.454	6953.37
742.639	6896.02
742.824	6861.21
743.01	6877.59
743.195	6963.61
743.38	6914.45
743.565	6680.99
743.75	6979.99
743.935	6756.76
744.12	6676.89
744.305	6627.74
744.49	6701.47
744.675	6672.79
744.86	6627.74
745.045	6543.77
745.23	6640.03
745.415	6478.24
745.6	6410.65
745.785	6488.48
745.97	6371.74
746.155	6431.13
746.34	6519.2
746.525	6113.7
746.71	6420.89
746.895	6240.67
747.079	6285.73
747.264	6144.42
747.449	6205.86
747.634	5978.53
747.819	5988.77
748.003	5984.68
748.188	5923.24
748.373	5925.29
748.557	5964.2
748.742	5755.3
748.927	5788.07
749.111	5833.13
749.296	5706.15
749.481	5931.43
749.665	5654.95
749.85	5548.46
750.034	5702.06
750.219	5661.1
750.404	5513.64
750.588	5601.71
750.773	5575.08
750.957	5267.89
751.141	5583.27
751.326	5259.7
751.51	5278.13
751.695	5224.88
751.879	5163.44
752.064	5380.53
752.248	5192.11
752.432	4948.4
752.617	4884.92
752.801	5153.2
752.985	5116.34
753.17	5085.62
753.354	4997.56
753.538	4915.64
753.722	4878.77
753.907	4823.48
754.091	4747.7
754.275	4764.09
754.459	4743.61
754.643	4440.51
754.828	4608.44
755.012	4727.22
755.196	4649.4
755.38	4587.96
755.564	4368.83
755.748	4544.95
755.932	4504
756.116	4403.64
756.3	4252.1
756.484	4387.26
756.668	4405.69
756.852	4350.4
757.036	4280.77
757.22	4227.52
757.404	4127.17
757.588	4067.78
757.772	4022.72
757.956	4051.39
758.14	3981.76
758.323	4075.97
758.507	3940.8
758.691	4010.43
758.875	4014.53
759.059	4004.29
759.242	3996.1
759.426	3856.84
759.61	3983.81
759.794	3617.22
759.977	3768.77
760.161	3951.04
760.345	3846.6
760.528	3758.53
760.712	3660.23
760.895	3631.56
761.079	3709.38
761.263	3471.82
761.446	3647.94
761.63	3613.13
761.813	3703.24
761.997	3520.97
762.18	3508.68
762.364	3572.17
762.547	3430.86
762.731	3473.87
762.914	3471.82
763.098	3271.12
763.281	3350.99
763.464	3420.62
763.648	3293.65
763.831	3295.69
764.015	3248.59
764.198	3377.61
764.381	3275.21
764.564	3342.8
764.748	3264.97
764.931	3260.88
765.114	3201.49
765.297	3260.88
765.481	3097.04
765.664	3217.87
765.847	3125.71
766.03	3158.48
766.213	3082.7
766.397	3047.89
766.58	3043.79
766.763	2957.78
766.946	2996.69
767.129	3111.38
767.312	2927.06
767.495	2882
767.678	2908.63
767.861	2916.82
768.044	2955.73
768.227	2824.66
768.41	2816.47
768.593	2939.35
768.776	2820.56
768.959	2943.44
769.142	2929.11
769.324	2695.64
769.507	2734.55
769.69	2693.59
769.873	2759.13
770.056	2738.65
770.239	2681.3
770.421	2757.08
770.604	2810.33
770.787	2689.49
770.97	2673.11
771.152	2474.46
771.335	2642.39
771.518	2654.68
771.7	2707.93
771.883	2617.82
772.066	2466.27
772.248	2462.17
772.431	2494.94
772.613	2564.57
772.796	2425.31
772.978	2474.46
773.161	2410.97
773.343	2400.73
773.526	2343.39
773.708	2294.24
773.891	2306.52
774.073	2308.57
774.256	2318.81
774.438	2359.77
774.621	2306.52
774.803	2200.03
774.985	2212.32
775.168	2273.76
775.35	2210.27
775.532	2310.62
775.715	2169.31
775.897	2206.17
776.079	2019.81
776.261	2040.29
776.444	2161.12
776.626	2146.78
776.808	2021.86
776.99	2023.91
777.173	1982.95
777.355	2068.96
777.537	1903.07
777.719	2091.49
777.901	2044.38
778.083	2005.47
778.265	1898.98
778.447	1876.45
778.629	2007.52
778.811	2032.1
778.993	1919.46
779.175	1778.15
779.357	1802.72
779.539	1831.4
779.721	1860.07
779.903	1905.12
780.085	1704.42
780.267	1767.91
780.449	1702.37
780.631	1694.18
780.812	1659.37
780.994	1573.35
781.176	1649.13
781.358	1659.37
781.54	1546.73
781.721	1681.89
781.903	1556.97
782.085	1544.68
782.267	1563.11
782.448	1573.35
782.63	1589.74
782.812	1507.82
782.993	1458.67
783.175	1534.44
783.357	1470.95
783.538	1325.55
783.72	1475.05
783.901	1513.96
784.083	1520.1
784.264	1452.52
784.446	1393.13
784.627	1352.17
784.809	1450.47
784.99	1399.27
785.172	1397.23
785.353	1360.36
785.535	1331.69
785.716	1255.92
785.897	1307.12
786.079	1300.97
786.26	1331.69
786.441	1284.59
786.623	1309.16
786.804	1249.77
786.985	1245.68
787.167	1270.25
787.348	1180.14
787.529	1266.16
787.71	1251.82
787.891	1208.81
788.073	1249.77
788.254	1128.94
788.435	1221.1
788.616	1155.57
788.797	1110.51
788.978	1171.95
789.159	1161.71
789.34	1128.94
789.522	1059.31
789.703	1122.8
789.884	1116.65
790.065	1120.75
790.246	1112.56
790.427	1122.8
790.607	1147.37
790.788	1094.13
790.969	1139.18
791.15	1073.65
791.331	1020.4
791.512	981.49
791.693	1024.5
791.874	1044.98
792.054	1151.47
792.235	1112.56
792.416	983.54
792.597	979.44
792.778	977.39
792.958	1044.98
793.139	1014.26
793.32	1020.4
793.5	924.15
793.681	926.19
793.862	971.25
794.042	870.9
794.223	862.71
794.404	877.04
794.584	899.57
794.765	842.23
794.945	918
795.126	950.77
795.306	885.23
795.487	827.89
795.667	823.8
795.848	844.28
796.028	807.41
796.209	776.69
796.389	834.04
796.57	760.31
796.75	797.17
796.93	825.84
797.111	819.7
797.291	752.12
797.471	866.8
797.652	715.25
797.832	758.26
798.012	791.03
798.192	780.79
798.373	729.59
798.553	729.59
798.733	723.44
798.913	647.67
799.093	795.12
799.274	709.11
799.454	737.78
799.634	698.87
799.814	772.6
799.994	709.11
800.174	741.88
800.354	721.4
800.534	713.21
800.714	743.92
800.894	629.24
801.074	729.59
801.254	643.57
801.434	709.11
801.614	629.24
801.794	721.4
801.974	1391.08
802.154	770.55
802.334	664.05
802.514	651.77
802.693	590.33
802.873	614.9
803.053	711.16
803.233	727.54
803.413	639.48
803.592	594.42
803.772	590.33
803.952	588.28
804.131	557.56
804.311	625.14
804.491	614.9
804.67	508.41
804.85	602.61
805.03	612.85
805.209	639.48
805.389	537.08
805.568	522.74
805.748	571.9
805.928	598.52
806.107	518.65
806.287	582.14
806.466	627.19
806.646	604.66
806.825	528.89
807.004	539.13
807.184	592.37
807.363	578.04
807.543	500.22
807.722	582.14
807.901	614.9
808.081	549.37
808.26	479.74
808.439	483.83
808.619	520.7
808.798	475.64
808.977	498.17
809.156	561.66
809.336	516.6
809.515	588.28
809.694	459.26
809.873	451.07
810.052	467.45
810.231	557.56
810.411	500.22
810.59	569.85
810.769	535.03
810.948	500.22
811.127	530.94
811.306	408.06
811.485	426.49
811.664	446.97
811.843	532.98
812.022	440.83
812.201	444.92
812.38	414.2
812.559	395.77
812.737	463.35
812.916	397.82
813.095	399.87
813.274	401.91
813.453	475.64
813.632	481.78
813.811	487.93
813.989	373.24
814.168	401.91
814.347	444.92
814.526	371.19
814.704	426.49
814.883	471.54
815.062	385.53
815.24	432.63
815.419	369.15
815.598	430.59
815.776	371.19
815.955	430.59
816.133	322.04
816.312	418.3
816.49	356.86
816.669	432.63
816.847	324.09
817.026	406.01
817.204	391.67
817.383	401.91
817.561	408.06
817.74	332.28
817.918	336.38
818.097	313.85
818.275	393.72
818.453	385.53
818.632	377.34
818.81	391.67
818.988	375.29
819.167	311.8
819.345	336.38
819.523	354.81
819.701	227.84
819.879	326.14
820.058	324.09
820.236	360.95
820.414	340.47
820.592	262.65
820.77	326.14
820.948	360.95
821.127	270.84
821.305	373.24
821.483	365.05
821.661	356.86
821.839	268.8
822.017	279.04
822.195	295.42
822.373	336.38
822.551	279.04
822.729	381.43
822.907	350.71
823.085	287.23
823.262	311.8
823.44	227.84
823.618	246.27
823.796	272.89
823.974	348.67
824.152	289.28
824.329	272.89
824.507	295.42
824.685	313.85
824.863	270.84
825.04	242.17
825.218	344.57
825.396	324.09
825.574	217.6
825.751	332.28
825.929	289.28
826.107	225.79
826.284	258.56
826.462	352.76
826.639	256.51
826.817	221.69
826.994	356.86
827.172	229.88
827.349	262.65
827.527	209.4
827.704	254.46
827.882	240.12
828.059	272.89
828.237	309.76
828.414	287.23
828.591	219.64
828.769	184.83
828.946	240.12
829.124	219.64
829.301	256.51
829.478	233.98
829.655	285.18
829.833	283.13
830.01	262.65
830.187	238.08
830.364	236.03
830.542	311.8
830.719	285.18
830.896	164.35
831.073	213.5
831.25	256.51
831.427	242.17
831.604	231.93
831.782	217.6
831.959	258.56
832.136	242.17
832.313	283.13
832.49	195.07
832.667	236.03
832.844	156.16
833.021	328.19
833.198	242.17
833.374	164.35
833.551	225.79
833.728	227.84
833.905	219.64
834.082	178.69
834.259	217.6
834.436	166.4
834.612	203.26
834.789	301.56
834.966	213.5
835.143	229.88
835.319	188.93
835.496	223.74
835.673	217.6
835.85	156.16
836.026	172.54
836.203	236.03
836.38	207.36
836.556	82.43
836.733	201.21
836.909	244.22
837.086	90.62
837.262	113.15
837.439	178.69
837.616	102.91
837.792	129.53
837.968	184.83
838.145	98.81
838.321	195.07
838.498	172.54
838.674	211.45
838.851	143.87
839.027	147.97
839.203	172.54
839.38	205.31
839.556	188.93
839.732	123.39
839.909	145.92
840.085	172.54
840.261	113.15
840.437	242.17
840.614	147.97
840.79	145.92
840.966	104.96
841.142	104.96
841.318	104.96
841.494	104.96
841.671	213.5
841.847	119.29
842.023	180.73
842.199	236.03
842.375	147.97
842.551	111.1
842.727	133.63
842.903	205.31
843.079	119.29
843.255	211.45
843.431	141.82
843.607	174.59
843.783	47.62
843.959	115.2
844.134	127.49
844.31	233.98
844.486	176.64
844.662	123.39
844.838	139.77
845.013	61.95
845.189	170.49
845.365	70.14
845.541	180.73
845.716	117.25
845.892	98.81
846.068	123.39
846.244	90.62
846.419	72.19
846.595	61.95
846.77	74.24
846.946	129.53
847.122	82.43
847.297	123.39
847.473	141.82
847.648	53.76
847.824	129.53
847.999	33.28
848.175	111.1
848.35	154.11
848.526	195.07
848.701	88.57
848.876	125.44
849.052	160.25
849.227	162.3
849.403	80.38
849.578	131.58
849.753	104.96
849.929	72.19
850.104	72.19
850.279	115.2
850.454	102.91
850.63	121.34
850.805	135.68
850.98	86.53
851.155	156.16
851.33	78.33
851.505	98.81
851.681	156.16
851.856	68.09
852.031	76.29
852.206	117.25
852.381	96.77
852.556	18.94
852.731	66.05
852.906	113.15
853.081	0.51
853.256	147.97
853.431	64
853.606	88.57
853.781	94.72
853.956	-54.78
854.131	80.38
854.305	72.19
854.48	-3.58
854.655	49.66
854.83	12.8
855.005	92.67
855.18	98.81
855.354	37.38
855.529	61.95
855.704	61.95
855.879	45.57
856.053	64
856.228	80.38
856.403	72.19
856.577	113.15
856.752	53.76
856.926	82.43
857.101	78.33
857.276	-32.26
857.45	107.01
857.625	78.33
857.799	92.67
857.974	12.8
858.148	82.43
858.323	55.81
858.497	41.47
858.672	35.33
858.846	90.62
859.02	139.77
859.195	55.81
859.369	70.14
859.543	49.66
859.718	92.67
859.892	25.09
860.066	64
860.241	2.56
860.415	88.57
860.589	57.86
860.763	84.48
860.938	135.68
861.112	80.38
861.286	29.18
861.46	98.81
861.634	72.19
861.808	55.81
861.982	109.05
862.157	-56.83
862.331	29.18
862.505	-11.78
862.679	61.95
862.853	90.62
863.027	61.95
863.201	127.49
863.375	47.62
863.549	53.76
863.722	27.14
863.896	147.97
864.07	12.8
864.244	8.7
864.418	53.76
864.592	16.9
864.766	33.28
864.939	-1.54
865.113	0.51
865.287	123.39
865.461	70.14
865.634	57.86
865.808	12.8
865.982	78.33
866.156	35.33
866.329	0.51
866.503	94.72
866.676	90.62
866.85	23.04
867.024	57.86
867.197	20.99
867.371	72.19
867.544	20.99
867.718	-15.87
867.891	43.52
868.065	-54.78
868.238	43.52
868.412	96.77
868.585	59.9
868.759	-34.3
868.932	61.95
869.105	-11.78
869.279	25.09
869.452	0.51
869.625	2.56
869.799	-60.93
869.972	-32.26
870.145	20.99
870.319	68.09
870.492	2.56
870.665	-9.73
870.838	64
871.011	-52.74
871.185	25.09
871.358	20.99
871.531	-9.73
871.704	-50.69
871.877	31.23
872.05	-36.35
872.223	23.04
872.396	88.57
872.569	45.57
872.742	-15.87
872.915	72.19
873.088	-1.54
873.261	-15.87
873.434	16.9
873.607	55.81
873.78	74.24
873.953	86.53
874.126	-19.97
874.299	-11.78
874.471	31.23
874.644	2.56
874.817	80.38
874.99	131.58
875.163	74.24
875.335	-15.87
875.508	8.7
875.681	117.25
875.853	-28.16
876.026	39.42
876.199	31.23
876.371	6.66
876.544	8.7
876.717	123.39
876.889	57.86
877.062	29.18
877.234	-26.11
877.407	29.18
877.579	-11.78
877.752	55.81
877.924	4.61
878.097	115.2
878.269	31.23
878.442	8.7
878.614	98.81
878.786	27.14
878.959	92.67
879.131	-7.68
879.303	33.28
879.476	-24.06
879.648	90.62
879.82	-15.87
879.993	0.51
880.165	102.91
880.337	-50.69
880.509	78.33
880.681	0.51
880.854	-93.69
881.026	53.76
881.198	113.15
881.37	-1.54
881.542	-19.97
881.714	68.09
881.886	0.51
882.058	-46.59
882.23	41.47
882.402	96.77
882.574	88.57
882.746	-28.16
882.918	20.99
883.09	2.56
883.262	-36.35
883.434	57.86
883.606	18.94
883.778	6.66
883.95	29.18
884.122	37.38
884.293	49.66
884.465	49.66
884.637	-1.54
884.809	18.94
884.98	8.7
885.152	33.28
885.324	-7.68
885.496	6.66
885.667	-7.68
885.839	0.51
886.011	74.24
886.182	14.85
886.354	-1.54
886.525	-32.26
886.697	39.42
886.869	-13.82
887.04	29.18
887.212	57.86
887.383	-3.58
887.555	10.75
887.726	-30.21
887.897	-7.68
888.069	-11.78
888.24	57.86
888.412	-1.54
888.583	16.9
888.754	12.8
888.926	37.38
889.097	14.85
889.268	-48.64
889.44	43.52
889.611	12.8
889.782	0.51
889.953	20.99
890.125	66.05
890.296	-93.69
890.467	16.9
890.638	-5.63
890.809	-7.68
890.98	14.85
891.151	31.23
891.323	16.9
891.494	23.04
891.665	47.62
891.836	29.18
892.007	-30.21
892.178	41.47
892.349	33.28
892.52	-26.11
892.691	-42.5
892.862	-67.07
893.032	-52.74
893.203	-1.54
893.374	25.09
893.545	18.94
893.716	47.62
893.887	-9.73
894.057	10.75
894.228	47.62
894.399	16.9
894.57	45.57
894.74	-65.02
894.911	-13.82
895.082	8.7
895.253	14.85
895.423	-22.02
895.594	-11.78
895.764	8.7
895.935	-1.54
896.106	-3.58
896.276	-5.63
896.447	37.38
896.617	16.9
896.788	-22.02
896.958	82.43
897.129	0.51
897.299	-40.45
897.47	31.23
897.64	-19.97
897.81	-3.58
897.981	0.51
898.151	-83.45
898.322	49.66
898.492	-26.11
898.662	-36.35
898.832	45.57
899.003	-24.06
899.173	45.57
899.343	-19.97
899.513	-54.78
