Data from USB4F104151__20__11-29-50-716.txt Node

Date: Fri Mar 14 11:29:50 EDT 2025
User: louis
Spectrometer: USB4F10415
Trigger mode: 4
Integration Time (sec): 5.000000E-2
Scans to average: 1
Electric dark correction enabled: true
Nonlinearity correction enabled: false
Boxcar width: 0
XAxis mode: Wavelengths
Number of Pixels in Spectrum: 3648
>>>>>Begin Spectral Data<<<<<
178.204	-160.77
178.424	-160.77
178.644	-160.77
178.864	-134.14
179.084	-166.91
179.304	-78.85
179.524	17.41
179.744	-21.5
179.964	15.36
180.184	58.37
180.404	35.84
180.624	-25.6
180.844	-13.31
181.064	-37.89
181.283	23.55
181.503	-64.51
181.723	91.13
181.943	-99.33
182.163	91.13
182.383	27.65
182.602	9.22
182.822	142.33
183.042	50.18
183.262	-84.99
183.482	25.6
183.701	25.6
183.921	5.12
184.141	46.08
184.361	48.13
184.58	74.75
184.8	52.22
185.02	33.79
185.239	13.31
185.459	41.98
185.679	31.74
185.898	-1.02
186.118	56.32
186.338	29.7
186.557	-5.12
186.777	-3.07
186.997	1.02
187.216	-7.17
187.436	93.18
187.655	11.26
187.875	44.03
188.095	74.75
188.314	13.31
188.534	3.07
188.753	52.22
188.973	31.74
189.192	91.13
189.412	17.41
189.631	3.07
189.851	54.27
190.07	64.51
190.29	-54.27
190.509	1.02
190.729	-23.55
190.948	-17.41
191.168	134.14
191.387	70.65
191.607	-9.22
191.826	89.09
192.045	-62.46
192.265	-5.12
192.484	-27.65
192.704	9.22
192.923	-37.89
193.142	128
193.362	93.18
193.581	-37.89
193.8	132.09
194.02	19.46
194.239	-5.12
194.458	41.98
194.678	11.26
194.897	101.37
195.116	-21.5
195.335	9.22
195.555	76.8
195.774	11.26
195.993	52.22
196.212	29.7
196.432	19.46
196.651	39.94
196.87	44.03
197.089	82.94
197.308	35.84
197.528	56.32
197.747	-37.89
197.966	54.27
198.185	56.32
198.404	-48.13
198.623	109.57
198.842	91.13
199.062	-50.18
199.281	66.56
199.5	-15.36
199.719	44.03
199.938	-13.31
200.157	35.84
200.376	31.74
200.595	105.47
200.814	35.84
201.033	-25.6
201.252	27.65
201.471	-33.79
201.69	15.36
201.909	58.37
202.128	13.31
202.347	11.26
202.566	27.65
202.785	-35.84
203.004	1.02
203.223	121.85
203.442	35.84
203.661	-39.94
203.879	-13.31
204.098	46.08
204.317	-54.27
204.536	115.71
204.755	35.84
204.974	97.28
205.193	31.74
205.411	82.94
205.63	58.37
205.849	44.03
206.068	9.22
206.287	17.41
206.505	56.32
206.724	-17.41
206.943	15.36
207.162	19.46
207.381	44.03
207.599	33.79
207.818	103.42
208.037	-21.5
208.255	101.37
208.474	9.22
208.693	3.07
208.911	-7.17
209.13	105.47
209.349	48.13
209.567	-7.17
209.786	111.61
210.005	-1.02
210.223	82.94
210.442	13.31
210.661	3.07
210.879	1.02
211.098	31.74
211.316	44.03
211.535	60.42
211.753	76.8
211.972	52.22
212.191	3.07
212.409	25.6
212.628	-46.08
212.846	-17.41
213.065	46.08
213.283	17.41
213.502	23.55
213.72	9.22
213.938	15.36
214.157	35.84
214.375	68.61
214.594	-52.22
214.812	25.6
215.031	33.79
215.249	1.02
215.467	-15.36
215.686	33.79
215.904	113.66
216.122	13.31
216.341	72.7
216.559	35.84
216.778	84.99
216.996	58.37
217.214	-25.6
217.432	17.41
217.651	3.07
217.869	41.98
218.087	74.75
218.306	-27.65
218.524	31.74
218.742	25.6
218.96	37.89
219.179	44.03
219.397	7.17
219.615	99.33
219.833	82.94
220.051	17.41
220.27	19.46
220.488	7.17
220.706	52.22
220.924	29.7
221.142	9.22
221.36	-64.51
221.578	84.99
221.796	80.89
222.015	9.22
222.233	44.03
222.451	76.8
222.669	7.17
222.887	11.26
223.105	-54.27
223.323	74.75
223.541	89.09
223.759	-13.31
223.977	48.13
224.195	23.55
224.413	41.98
224.631	64.51
224.849	44.03
225.067	33.79
225.285	19.46
225.503	15.36
225.721	5.12
225.939	-41.98
226.157	-7.17
226.375	82.94
226.592	66.56
226.81	15.36
227.028	82.94
227.246	58.37
227.464	-5.12
227.682	66.56
227.9	25.6
228.117	-1.02
228.335	27.65
228.553	35.84
228.771	-37.89
228.989	-23.55
229.206	56.32
229.424	74.75
229.642	7.17
229.86	-21.5
230.077	27.65
230.295	64.51
230.513	82.94
230.731	76.8
230.948	50.18
231.166	84.99
231.384	27.65
231.601	54.27
231.819	62.46
232.037	3.07
232.254	50.18
232.472	7.17
232.689	15.36
232.907	72.7
233.125	93.18
233.342	23.55
233.56	-9.22
233.777	27.65
233.995	97.28
234.213	107.52
234.43	-5.12
234.648	-50.18
234.865	58.37
235.083	56.32
235.3	3.07
235.518	56.32
235.735	119.81
235.953	23.55
236.17	33.79
236.388	23.55
236.605	117.76
236.822	95.23
237.04	70.65
237.257	44.03
237.475	64.51
237.692	74.75
237.909	23.55
238.127	-13.31
238.344	84.99
238.562	21.5
238.779	-17.41
238.996	54.27
239.214	80.89
239.431	3.07
239.648	-33.79
239.865	89.09
240.083	74.75
240.3	-5.12
240.517	44.03
240.735	7.17
240.952	58.37
241.169	-19.46
241.386	1.02
241.603	-33.79
241.821	35.84
242.038	9.22
242.255	44.03
242.472	11.26
242.689	60.42
242.907	25.6
243.124	-13.31
243.341	54.27
243.558	25.6
243.775	31.74
243.992	-31.74
244.209	130.05
244.426	66.56
244.643	101.37
244.86	-35.84
245.078	-27.65
245.295	84.99
245.512	58.37
245.729	17.41
245.946	-3.07
246.163	15.36
246.38	117.76
246.597	-41.98
246.814	1.02
247.031	-29.7
247.248	115.71
247.464	99.33
247.681	54.27
247.898	52.22
248.115	105.47
248.332	17.41
248.549	84.99
248.766	142.33
248.983	41.98
249.2	52.22
249.417	27.65
249.633	35.84
249.85	11.26
250.067	54.27
250.284	50.18
250.501	66.56
250.717	64.51
250.934	15.36
251.151	97.28
251.368	84.99
251.585	99.33
251.801	37.89
252.018	7.17
252.235	64.51
252.451	-11.26
252.668	-3.07
252.885	27.65
253.102	60.42
253.318	35.84
253.535	17.41
253.752	-9.22
253.968	-1.02
254.185	-5.12
254.401	27.65
254.618	35.84
254.835	66.56
255.051	132.09
255.268	82.94
255.484	103.42
255.701	27.65
255.917	62.46
256.134	-103.42
256.351	105.47
256.567	25.6
256.784	123.9
257	52.22
257.217	15.36
257.433	31.74
257.65	103.42
257.866	113.66
258.082	39.94
258.299	-9.22
258.515	70.65
258.732	97.28
258.948	-3.07
259.165	58.37
259.381	3.07
259.597	78.85
259.814	95.23
260.03	31.74
260.246	35.84
260.463	68.61
260.679	31.74
260.895	27.65
261.112	93.18
261.328	-33.79
261.544	13.31
261.761	93.18
261.977	70.65
262.193	-7.17
262.409	17.41
262.626	-27.65
262.842	37.89
263.058	11.26
263.274	64.51
263.49	25.6
263.707	91.13
263.923	5.12
264.139	11.26
264.355	41.98
264.571	66.56
264.787	50.18
265.004	72.7
265.22	5.12
265.436	27.65
265.652	-5.12
265.868	54.27
266.084	-25.6
266.3	48.13
266.516	-21.5
266.732	138.24
266.948	101.37
267.164	35.84
267.38	15.36
267.596	62.46
267.812	84.99
268.028	-27.65
268.244	3.07
268.46	-7.17
268.676	-13.31
268.892	23.55
269.108	19.46
269.324	31.74
269.54	-33.79
269.756	74.75
269.972	1.02
270.188	27.65
270.403	-37.89
270.619	84.99
270.835	72.7
271.051	64.51
271.267	-11.26
271.483	9.22
271.698	33.79
271.914	76.8
272.13	52.22
272.346	27.65
272.562	93.18
272.777	68.61
272.993	23.55
273.209	44.03
273.425	41.98
273.64	7.17
273.856	91.13
274.072	7.17
274.287	21.5
274.503	17.41
274.719	64.51
274.934	19.46
275.15	-33.79
275.366	44.03
275.581	21.5
275.797	-9.22
276.012	29.7
276.228	-9.22
276.444	29.7
276.659	125.95
276.875	27.65
277.09	35.84
277.306	76.8
277.521	39.94
277.737	11.26
277.952	105.47
278.168	-7.17
278.383	19.46
278.599	39.94
278.814	-74.75
279.03	80.89
279.245	11.26
279.461	52.22
279.676	-25.6
279.892	-41.98
280.107	23.55
280.322	-60.42
280.538	-31.74
280.753	23.55
280.969	78.85
281.184	9.22
281.399	60.42
281.615	37.89
281.83	29.7
282.045	-31.74
282.26	52.22
282.476	44.03
282.691	52.22
282.906	76.8
283.122	11.26
283.337	-21.5
283.552	68.61
283.767	35.84
283.983	82.94
284.198	-50.18
284.413	-13.31
284.628	-33.79
284.843	39.94
285.058	68.61
285.274	5.12
285.489	21.5
285.704	84.99
285.919	-5.12
286.134	3.07
286.349	60.42
286.564	35.84
286.779	35.84
286.995	27.65
287.21	19.46
287.425	3.07
287.64	-13.31
287.855	9.22
288.07	-29.7
288.285	11.26
288.5	41.98
288.715	66.56
288.93	35.84
289.145	-9.22
289.36	87.04
289.575	41.98
289.79	140.29
290.004	9.22
290.219	44.03
290.434	27.65
290.649	58.37
290.864	11.26
291.079	25.6
291.294	27.65
291.509	76.8
291.724	39.94
291.938	1.02
292.153	27.65
292.368	48.13
292.583	31.74
292.798	46.08
293.012	74.75
293.227	-9.22
293.442	-74.75
293.657	3.07
293.871	74.75
294.086	50.18
294.301	123.9
294.516	68.61
294.73	54.27
294.945	-5.12
295.16	99.33
295.374	125.95
295.589	17.41
295.804	35.84
296.018	99.33
296.233	125.95
296.447	27.65
296.662	3.07
296.877	105.47
297.091	52.22
297.306	-13.31
297.52	44.03
297.735	44.03
297.949	9.22
298.164	132.09
298.378	13.31
298.593	-37.89
298.807	-11.26
299.022	50.18
299.236	76.8
299.451	44.03
299.665	11.26
299.88	3.07
300.094	19.46
300.309	11.26
300.523	3.07
300.737	-23.55
300.952	52.22
301.166	76.8
301.381	-37.89
301.595	64.51
301.809	41.98
302.024	13.31
302.238	-37.89
302.452	3.07
302.667	19.46
302.881	11.26
303.095	72.7
303.309	27.65
303.524	60.42
303.738	-17.41
303.952	54.27
304.166	136.19
304.381	48.13
304.595	125.95
304.809	35.84
305.023	56.32
305.237	-23.55
305.452	97.28
305.666	82.94
305.88	128
306.094	99.33
306.308	74.75
306.522	17.41
306.736	72.7
306.95	101.37
307.164	9.22
307.379	-13.31
307.593	19.46
307.807	117.76
308.021	-39.94
308.235	101.37
308.449	-27.65
308.663	-27.65
308.877	76.8
309.091	-17.41
309.305	35.84
309.519	-56.32
309.733	52.22
309.947	-37.89
310.161	-1.02
310.374	27.65
310.588	44.03
310.802	3.07
311.016	-27.65
311.23	101.37
311.444	46.08
311.658	11.26
311.872	82.94
312.085	5.12
312.299	27.65
312.513	33.79
312.727	3.07
312.941	1.02
313.154	-11.26
313.368	41.98
313.582	84.99
313.796	33.79
314.009	-15.36
314.223	56.32
314.437	76.8
314.651	52.22
314.864	17.41
315.078	-62.46
315.292	-11.26
315.505	54.27
315.719	66.56
315.933	35.84
316.146	76.8
316.36	-23.55
316.573	68.61
316.787	91.13
317.001	78.85
317.214	52.22
317.428	60.42
317.641	50.18
317.855	87.04
318.068	9.22
318.282	39.94
318.495	123.9
318.709	27.65
318.922	29.7
319.136	130.05
319.349	23.55
319.563	5.12
319.776	72.7
319.99	52.22
320.203	80.89
320.417	39.94
320.63	23.55
320.843	89.09
321.057	35.84
321.27	62.46
321.483	97.28
321.697	29.7
321.91	11.26
322.124	76.8
322.337	52.22
322.55	21.5
322.763	50.18
322.977	19.46
323.19	-21.5
323.403	-17.41
323.617	48.13
323.83	66.56
324.043	33.79
324.256	134.14
324.469	-21.5
324.683	93.18
324.896	13.31
325.109	76.8
325.322	-35.84
325.535	72.7
325.748	39.94
325.962	-23.55
326.175	7.17
326.388	-3.07
326.601	39.94
326.814	29.7
327.027	99.33
327.24	113.66
327.453	15.36
327.666	11.26
327.879	150.53
328.092	121.85
328.305	58.37
328.518	44.03
328.731	19.46
328.944	87.04
329.157	56.32
329.37	41.98
329.583	56.32
329.796	142.33
330.009	-64.51
330.222	19.46
330.435	23.55
330.648	52.22
330.861	64.51
331.073	93.18
331.286	78.85
331.499	3.07
331.712	7.17
331.925	64.51
332.138	15.36
332.35	76.8
332.563	-5.12
332.776	23.55
332.989	-29.7
333.202	66.56
333.414	-3.07
333.627	58.37
333.84	101.37
334.053	54.27
334.265	5.12
334.478	58.37
334.691	31.74
334.903	39.94
335.116	-13.31
335.329	99.33
335.541	-29.7
335.754	105.47
335.966	33.79
336.179	11.26
336.392	35.84
336.604	78.85
336.817	-29.7
337.029	27.65
337.242	-7.17
337.454	33.79
337.667	19.46
337.88	123.9
338.092	80.89
338.305	-1.02
338.517	41.98
338.729	15.36
338.942	97.28
339.154	-11.26
339.367	76.8
339.579	-9.22
339.792	60.42
340.004	132.09
340.217	-21.5
340.429	56.32
340.641	9.22
340.854	60.42
341.066	21.5
341.278	44.03
341.491	109.57
341.703	48.13
341.915	15.36
342.128	46.08
342.34	68.61
342.552	9.22
342.764	50.18
342.977	62.46
343.189	76.8
343.401	48.13
343.613	13.31
343.826	76.8
344.038	50.18
344.25	23.55
344.462	23.55
344.674	89.09
344.886	13.31
345.099	-3.07
345.311	62.46
345.523	11.26
345.735	1.02
345.947	64.51
346.159	105.47
346.371	-21.5
346.583	-11.26
346.795	144.38
347.007	-29.7
347.219	46.08
347.431	76.8
347.643	117.76
347.855	68.61
348.067	93.18
348.279	-15.36
348.491	25.6
348.703	41.98
348.915	95.23
349.127	7.17
349.339	60.42
349.551	7.17
349.763	89.09
349.975	23.55
350.187	-27.65
350.399	39.94
350.61	52.22
350.822	-29.7
351.034	33.79
351.246	3.07
351.458	27.65
351.669	23.55
351.881	23.55
352.093	60.42
352.305	62.46
352.517	15.36
352.728	99.33
352.94	27.65
353.152	33.79
353.363	37.89
353.575	105.47
353.787	93.18
353.999	48.13
354.21	82.94
354.422	-1.02
354.633	21.5
354.845	-33.79
355.057	125.95
355.268	105.47
355.48	25.6
355.692	11.26
355.903	60.42
356.115	-46.08
356.326	15.36
356.538	60.42
356.749	15.36
356.961	68.61
357.172	-15.36
357.384	13.31
357.595	117.76
357.807	-15.36
358.018	68.61
358.23	84.99
358.441	115.71
358.653	56.32
358.864	11.26
359.075	9.22
359.287	91.13
359.498	52.22
359.709	60.42
359.921	58.37
360.132	9.22
360.344	60.42
360.555	-17.41
360.766	58.37
360.977	50.18
361.189	19.46
361.4	23.55
361.611	-31.74
361.823	64.51
362.034	44.03
362.245	-13.31
362.456	25.6
362.667	13.31
362.879	-19.46
363.09	-27.65
363.301	76.8
363.512	64.51
363.723	27.65
363.935	1.02
364.146	44.03
364.357	-11.26
364.568	68.61
364.779	-9.22
364.99	9.22
365.201	21.5
365.412	66.56
365.623	1.02
365.834	117.76
366.045	-15.36
366.256	76.8
366.467	3.07
366.678	44.03
366.889	62.46
367.1	-13.31
367.311	7.17
367.522	27.65
367.733	37.89
367.944	82.94
368.155	3.07
368.366	35.84
368.577	74.75
368.788	109.57
368.999	11.26
369.209	-9.22
369.42	89.09
369.631	97.28
369.842	48.13
370.053	17.41
370.264	72.7
370.474	-37.89
370.685	99.33
370.896	52.22
371.107	62.46
371.317	58.37
371.528	84.99
371.739	52.22
371.95	74.75
372.16	35.84
372.371	109.57
372.582	31.74
372.792	21.5
373.003	21.5
373.214	27.65
373.424	68.61
373.635	72.7
373.846	91.13
374.056	19.46
374.267	115.71
374.477	27.65
374.688	33.79
374.898	89.09
375.109	103.42
375.319	-25.6
375.53	52.22
375.74	99.33
375.951	117.76
376.161	72.7
376.372	74.75
376.582	76.8
376.793	21.5
377.003	3.07
377.214	-11.26
377.424	84.99
377.635	44.03
377.845	109.57
378.055	107.52
378.266	44.03
378.476	80.89
378.686	19.46
378.897	50.18
379.107	15.36
379.317	35.84
379.528	13.31
379.738	19.46
379.948	60.42
380.158	109.57
380.369	19.46
380.579	19.46
380.789	-15.36
380.999	31.74
381.21	72.7
381.42	107.52
381.63	66.56
381.84	76.8
382.05	64.51
382.261	64.51
382.471	72.7
382.681	17.41
382.891	66.56
383.101	50.18
383.311	39.94
383.521	101.37
383.731	64.51
383.941	35.84
384.151	-17.41
384.361	25.6
384.571	101.37
384.781	50.18
384.991	76.8
385.201	72.7
385.411	158.72
385.621	-29.7
385.831	44.03
386.041	80.89
386.251	72.7
386.461	50.18
386.671	66.56
386.881	82.94
387.091	-15.36
387.301	109.57
387.511	72.7
387.72	78.85
387.93	35.84
388.14	-5.12
388.35	101.37
388.56	80.89
388.769	5.12
388.979	48.13
389.189	60.42
389.399	39.94
389.609	62.46
389.818	123.9
390.028	117.76
390.238	136.19
390.447	29.7
390.657	64.51
390.867	35.84
391.076	35.84
391.286	115.71
391.496	68.61
391.705	37.89
391.915	113.66
392.125	97.28
392.334	3.07
392.544	125.95
392.753	35.84
392.963	-21.5
393.172	80.89
393.382	35.84
393.591	152.57
393.801	19.46
394.01	134.14
394.22	76.8
394.429	68.61
394.639	72.7
394.848	121.85
395.058	23.55
395.267	93.18
395.477	148.48
395.686	181.25
395.895	109.57
396.105	138.24
396.314	119.81
396.524	93.18
396.733	109.57
396.942	134.14
397.152	46.08
397.361	109.57
397.57	50.18
397.78	68.61
397.989	101.37
398.198	162.81
398.407	7.17
398.617	117.76
398.826	146.43
399.035	31.74
399.244	142.33
399.453	168.96
399.663	125.95
399.872	101.37
400.081	117.76
400.29	132.09
400.499	48.13
400.708	82.94
400.917	93.18
401.127	130.05
401.336	66.56
401.545	101.37
401.754	183.29
401.963	125.95
402.172	84.99
402.381	89.09
402.59	105.47
402.799	101.37
403.008	240.64
403.217	117.76
403.426	191.49
403.635	93.18
403.844	166.91
404.053	60.42
404.262	158.72
404.471	150.53
404.68	166.91
404.888	164.86
405.097	44.03
405.306	150.53
405.515	166.91
405.724	166.91
405.933	134.14
406.142	175.1
406.35	181.25
406.559	181.25
406.768	173.05
406.977	162.81
407.185	191.49
407.394	232.44
407.603	138.24
407.812	191.49
408.02	248.83
408.229	191.49
408.438	277.5
408.646	232.44
408.855	240.64
409.064	322.56
409.272	214.01
409.481	289.79
409.69	265.21
409.898	320.51
410.107	297.98
410.315	386.04
410.524	232.44
410.733	353.27
410.941	328.7
411.15	418.81
411.358	416.76
411.567	408.57
411.775	363.51
411.984	406.52
412.192	478.2
412.401	435.19
412.609	453.63
412.818	531.45
413.026	420.86
413.234	510.97
413.443	570.36
413.651	553.98
413.86	543.74
414.068	668.66
414.276	629.75
414.485	560.12
414.693	668.66
414.901	715.77
415.11	629.75
415.318	699.38
415.526	607.22
415.734	748.53
415.943	822.26
416.151	732.15
416.359	740.34
416.567	893.94
416.776	803.83
416.984	887.79
417.192	1027.06
417.4	949.23
417.608	973.81
417.817	969.71
418.025	1108.98
418.233	1170.41
418.441	1137.65
418.649	1194.99
418.857	1305.58
419.065	1215.47
419.273	1334.25
419.481	1332.2
419.689	1326.06
419.897	1473.51
420.105	1584.1
420.313	1549.29
420.521	1537
420.729	1788.9
420.937	1706.98
421.145	1696.74
421.353	1833.96
421.561	2022.37
421.769	1997.79
421.977	2038.75
422.185	2089.95
422.393	2194.4
422.601	2171.87
422.809	2198.49
423.017	2200.54
423.224	2411.48
423.432	2427.87
423.64	2477.02
423.848	2741.21
424.056	2698.2
424.263	2841.56
424.471	2763.73
424.679	3034.07
424.887	3152.85
425.094	3150.8
425.302	3179.47
425.51	3306.45
425.718	3435.47
425.925	3376.08
426.133	3630.02
426.341	3818.44
426.548	3869.64
426.756	3818.44
426.964	3941.32
427.171	4178.88
427.379	4211.65
427.586	4422.59
427.794	4432.83
428.001	4613.05
428.209	4930.48
428.417	4750.26
428.624	5219.25
428.832	5262.26
429.039	5280.69
429.247	5225.39
429.454	5706.66
429.662	5893.03
429.869	5540.78
430.076	6138.79
430.284	5925.8
430.491	6120.35
430.699	6593.44
430.906	6544.28
431.114	6679.45
431.321	6814.62
431.528	6781.85
431.736	7310.22
431.943	7736.2
432.15	7416.72
432.358	7541.64
432.565	7863.18
432.772	7836.55
432.979	8240
433.187	8334.21
433.394	8618.88
433.601	9290.61
433.808	9055.09
434.016	9204.6
434.223	9505.65
434.43	10136.42
434.637	9694.06
434.844	10584.93
435.052	10869.59
435.259	10613.6
435.466	10681.18
435.673	10697.56
435.88	11361.11
436.087	11850.57
436.294	12024.65
436.501	11692.88
436.708	11821.9
436.915	12350.28
437.122	13013.82
437.329	12870.46
437.537	13224.76
437.743	13546.29
437.95	13316.92
438.157	14117.67
438.364	14447.4
438.571	14388
438.778	14621.47
438.985	15811.34
439.192	15465.24
439.399	15713.04
439.606	15381.27
439.813	16335.62
440.02	17203.96
440.227	17011.45
440.433	16724.74
440.64	17289.98
440.847	17138.43
441.054	17623.8
441.261	19120.86
441.467	18666.21
441.674	18946.78
441.881	19983.06
442.088	19210.97
442.294	19647.19
442.501	20228.81
442.708	20343.5
442.914	21230.27
443.121	22375.08
443.328	21570.23
443.534	22923.94
443.741	22348.46
443.948	22325.93
444.154	23782.04
444.361	23605.91
444.568	23562.9
444.774	23974.55
444.981	23845.52
445.187	24728.2
445.394	25830.01
445.6	25227.9
445.807	27859.54
446.013	26600.04
446.22	27255.39
446.426	28332.62
446.633	28713.55
446.839	29700.67
447.046	28430.93
447.252	29733.43
447.459	30018.1
447.665	29938.23
447.871	30702.12
448.078	32070.17
448.284	30442.03
448.491	31820.31
448.697	32922.12
448.903	33167.88
449.11	33671.68
449.316	32928.27
449.522	33624.57
449.728	34609.65
449.935	34769.39
450.141	34566.64
450.347	35602.91
450.553	34011.64
450.76	34660.85
450.966	35715.55
451.172	35289.57
451.378	36030.94
451.584	35752.41
451.791	36073.95
451.997	35992.03
452.203	36899.28
452.409	36352.47
452.615	36622.8
452.821	35119.59
453.027	34968.04
453.233	36698.58
453.44	35191.27
453.646	35750.37
453.852	35729.89
454.058	36151.77
454.264	34935.27
454.47	35766.75
454.676	35058.15
454.882	36223.45
455.088	32723.47
455.294	33397.25
455.5	33757.69
455.705	34040.31
455.911	32780.81
456.117	32082.45
456.323	31511.07
456.529	29921.85
456.735	31234.6
456.941	30519.85
457.147	29794.87
457.352	28865.1
457.558	28641.87
457.764	28713.55
457.97	28201.55
458.176	27603.55
458.381	27308.64
458.587	26323.57
458.793	26106.48
458.999	24851.08
459.204	26389.1
459.41	25602.68
459.616	24130.19
459.821	23980.69
460.027	23995.03
460.233	23405.21
460.438	22217.39
460.644	22506.15
460.85	21545.66
461.055	21121.73
461.261	20996.8
461.466	19827.41
461.672	18823.9
461.878	20499.14
462.083	19110.62
462.289	18780.9
462.494	18338.54
462.7	17801.97
462.905	17314.55
463.111	17742.58
463.316	17713.91
463.522	17408.76
463.727	17548.02
463.932	17502.96
464.138	17246.97
464.343	17339.13
464.549	16966.4
464.754	17550.07
464.959	17253.11
465.165	16800.51
465.37	16315.14
465.575	15827.73
465.781	16399.11
465.986	16685.83
466.191	16022.28
466.397	15596.31
466.602	15043.35
466.807	15498
467.012	15622.93
467.218	15567.63
467.423	15266.58
467.628	15450.9
467.833	15989.52
468.038	15371.03
468.244	14863.13
468.449	15557.39
468.654	15139.61
468.859	14877.47
469.064	14730.02
469.269	14304.04
469.474	14373.67
469.679	14529.31
469.885	14152.49
470.09	14467.88
470.295	14265.13
470.5	14041.9
470.705	13990.7
470.91	13536.05
471.115	13583.15
471.32	13804.33
471.525	13706.03
471.73	13558.58
471.935	13466.42
472.139	12919.61
472.344	12882.75
472.549	12620.61
472.754	12852.03
472.959	12612.42
473.164	12278.6
473.369	12036.94
473.574	12507.97
473.778	12100.42
473.983	12381
474.188	12200.77
474.393	11567.95
474.598	11840.33
474.802	11432.79
475.007	11500.37
475.212	11555.66
475.417	11101.01
475.621	11060.06
475.826	11158.36
476.031	11060.06
476.235	10795.87
476.44	10888.03
476.645	10429.28
476.849	10599.26
477.054	10804.06
477.259	10453.86
477.463	10365.79
477.668	10144.61
477.872	10226.53
478.077	10062.69
478.282	9771.88
478.486	9878.38
478.691	9638.76
478.895	9538.41
479.1	9513.84
479.304	9661.29
479.509	9315.19
479.713	9522.03
479.918	9251.7
480.122	9173.88
480.326	9284.47
480.531	9237.36
480.735	9124.72
480.94	9237.36
481.144	9436.02
481.348	8825.72
481.553	8932.22
481.757	9003.89
481.961	8967.03
482.166	9096.05
482.37	8989.56
482.574	9038.71
482.778	8981.37
482.983	9081.72
483.187	8817.53
483.391	8956.79
483.595	8784.76
483.8	8999.8
484.004	8768.38
484.208	9069.43
484.412	8838.01
484.616	8895.35
484.821	8758.14
485.025	8788.86
485.229	8993.65
485.433	8678.27
485.637	8969.08
485.841	8747.9
486.045	8899.45
486.249	8926.07
486.453	8768.38
486.657	8962.94
486.861	8969.08
487.065	8594.3
487.269	8891.26
487.473	8835.96
487.677	8840.06
487.881	9102.2
488.085	8881.02
488.289	8952.7
488.493	8751.99
488.697	8809.34
488.901	9044.85
489.105	9030.52
489.309	9012.09
489.512	8919.93
489.716	8946.55
489.92	9028.47
490.124	9108.34
490.328	9268.08
490.531	8960.89
490.735	9030.52
490.939	9012.09
491.143	8977.27
491.346	9159.54
491.55	9300.85
491.754	9413.49
491.958	9487.22
492.161	9462.64
492.365	9364.34
492.569	9450.35
492.772	9261.94
492.976	9347.95
493.18	9626.48
493.383	9864.04
493.587	9534.32
493.79	9730.92
493.994	9661.29
494.197	9739.12
494.401	9943.91
494.605	9974.63
494.808	10021.74
495.012	10019.69
495.215	10099.56
495.419	10292.07
495.622	10253.16
495.825	10443.62
496.029	10339.17
496.232	10558.3
496.436	10353.51
496.639	10656.61
496.843	10918.75
497.046	10789.72
497.249	11121.49
497.453	11094.87
497.656	11191.13
497.859	11213.65
498.063	11320.15
498.266	11578.19
498.469	11344.72
498.673	11766.6
498.876	12106.57
499.079	11885.39
499.282	12036.94
499.485	12143.43
499.689	12081.99
499.892	12413.76
500.095	12569.41
500.298	12569.41
500.501	12757.82
500.705	12815.16
500.908	13058.87
501.111	13105.98
501.314	13441.84
501.517	13525.81
501.72	13863.72
501.923	13499.19
502.126	13923.12
502.329	14146.34
502.532	14242.6
502.735	14230.31
502.938	14609.19
503.141	14682.91
503.344	14713.63
503.547	14885.66
503.75	15485.72
503.953	15477.52
504.156	15311.64
504.359	15475.48
504.562	15864.59
504.765	16132.87
504.968	16276.23
505.17	16247.56
505.373	16200.46
505.576	16714.5
505.779	16773.89
505.982	16909.05
506.185	16939.77
506.387	17201.91
506.59	17273.59
506.793	17672.95
506.996	17748.72
507.198	18162.41
507.401	18221.8
507.604	18387.69
507.807	18811.62
508.009	18739.94
508.212	19063.52
508.415	19309.27
508.617	19274.46
508.82	19172.06
509.022	19626.71
509.225	19933.9
509.428	19983.06
509.63	20095.69
509.833	20273.87
510.035	21045.95
510.238	20673.22
510.44	20941.5
510.643	21428.92
510.845	21398.2
511.048	21379.77
511.25	21797.56
511.453	21607.09
511.655	22762.15
511.858	22428.33
512.06	22827.68
512.262	22614.69
512.465	22856.36
512.667	23235.23
512.87	23448.22
513.072	23569.05
513.274	23988.88
513.477	24105.62
513.679	24326.8
513.881	24191.63
514.084	24840.84
514.286	24900.23
514.488	25336.45
514.69	25588.35
514.893	25537.15
515.095	25686.65
515.297	26139.25
515.499	26528.36
515.701	26684.01
515.904	26923.62
516.106	26980.96
516.308	27245.15
516.51	27521.63
516.712	27767.38
516.914	28009.04
517.116	28230.23
517.318	28316.24
517.52	28596.81
517.722	28830.28
517.925	29270.59
518.127	29459.01
518.329	29510.21
518.531	29397.57
518.733	30216.75
518.935	30257.71
519.136	30544.43
519.338	30894.63
519.54	31259.17
519.742	31490.59
519.944	31713.82
520.146	31947.29
520.348	32207.38
520.55	32145.94
520.752	32381.46
520.954	32719.37
521.155	32840.2
521.357	33081.86
521.559	33395.2
521.761	34030.07
521.963	34322.93
522.164	34533.87
522.366	34517.49
522.568	34597.36
522.77	35117.54
522.971	35621.34
523.173	35318.25
523.375	35940.83
523.576	36000.22
523.778	35946.97
523.98	36606.42
524.181	36780.49
524.383	36833.74
524.584	37298.63
524.786	37423.56
524.988	37073.35
525.189	37745.09
525.391	38023.61
525.592	38267.32
525.794	38162.87
525.995	38195.64
526.197	38658.48
526.398	38818.22
526.6	38760.88
526.801	39059.88
527.003	39518.63
527.204	39362.98
527.406	39686.56
527.607	39760.29
527.808	40427.93
528.01	39571.88
528.211	40456.6
528.412	40989.07
528.614	40618.39
528.815	40683.92
529.016	41292.17
529.218	40614.29
529.419	41259.4
529.62	41136.52
529.822	41238.92
530.023	41908.61
530.224	41494.92
530.425	41658.76
530.626	41685.38
530.828	41159.05
531.029	41914.75
531.23	42033.53
531.431	41941.38
531.632	42414.46
531.833	42406.26
532.035	42176.89
532.236	42393.98
532.437	42803.57
532.638	42232.19
532.839	42711.41
533.04	43116.91
533.241	42320.25
533.442	43159.92
533.643	42525.05
533.844	43221.36
534.045	42723.7
534.246	42537.33
534.447	43301.23
534.648	42801.52
534.849	43207.02
535.05	42955.12
535.251	43309.42
535.451	43153.77
535.652	43450.73
535.853	43233.64
536.054	42793.33
536.255	43759.97
536.456	42910.07
536.657	43831.65
536.857	43448.68
537.058	43280.75
537.259	44015.97
537.46	43493.74
537.66	43524.46
537.861	43606.37
538.062	43266.41
538.263	43512.17
538.463	43125.1
538.664	43180.4
538.865	43288.94
539.065	43487.59
539.266	43141.49
539.466	44093.79
539.667	43176.3
539.868	43831.65
540.068	43872.61
540.269	44058.98
540.469	43624.81
540.67	43321.71
540.87	43458.92
541.071	43995.49
541.271	43207.02
541.472	43669.86
541.672	43258.22
541.873	43221.36
542.073	43434.35
542.274	43575.66
542.474	43729.25
542.675	43438.44
542.875	44044.64
543.075	43508.07
543.276	42678.64
543.476	43389.29
543.676	43501.93
543.877	43633
544.077	43579.75
544.277	43585.89
544.478	43258.22
544.678	43727.2
544.878	43514.22
545.078	43491.69
545.279	43475.3
545.479	42912.11
545.679	43551.08
545.879	43379.05
546.079	43716.96
546.28	43022.7
546.48	42766.71
546.68	43262.32
546.88	43311.47
547.08	43323.75
547.28	43250.03
547.48	43331.95
547.68	43020.66
547.88	43012.46
548.081	43250.03
548.281	43807.08
548.481	43037.04
548.681	43657.57
548.881	43477.35
549.081	43397.48
549.28	43086.19
549.48	43516.26
549.68	43131.25
549.88	43721.06
550.08	43241.84
550.28	43231.6
550.48	43405.67
550.68	43387.24
550.88	42938.74
551.08	43110.77
551.279	43479.4
551.479	42713.46
551.679	43061.61
551.879	42948.98
552.079	42832.24
552.278	42774.9
552.478	43311.47
552.678	43225.45
552.878	43313.52
553.077	43061.61
553.277	42682.74
553.477	43082.09
553.676	42594.68
553.876	42566.01
554.076	42320.25
554.275	42203.52
554.475	42049.92
554.674	42482.04
554.874	42903.92
555.074	42414.46
555.273	42750.32
555.473	42926.45
555.672	42107.26
555.872	42402.17
556.071	42824.05
556.271	42383.74
556.47	42148.22
556.67	41636.23
556.869	41968
557.068	42125.69
557.268	41924.99
557.467	41984.38
557.667	41791.87
557.866	41654.66
558.065	41669
558.265	41259.4
558.464	41402.76
558.663	41648.52
558.863	41152.91
559.062	41826.69
559.261	40956.3
559.461	41664.9
559.66	41079.18
559.859	41017.74
560.058	40481.17
560.258	40991.12
560.457	40858
560.656	40769.94
560.855	40700.31
561.054	40829.33
561.253	40112.54
561.453	40292.76
561.652	40276.38
561.851	40319.38
562.05	40118.68
562.249	39764.39
562.448	40212.89
562.647	39813.54
562.846	40071.58
563.045	39432.61
563.244	39166.38
563.443	39762.34
563.642	38588.85
563.841	39768.48
564.04	38881.71
564.239	39383.46
564.438	38699.44
564.637	39090.6
564.836	38787.5
565.035	38635.95
565.234	38853.04
565.432	38343.09
565.631	38556.08
565.83	38826.42
566.029	38252.98
566.228	37906.88
566.427	37956.03
566.625	37786.05
566.824	37319.11
567.023	37941.69
567.222	37112.27
567.42	37374.41
567.619	37056.97
567.818	37433.8
568.016	37112.27
568.215	37364.17
568.414	37013.96
568.612	37210.57
568.811	36528.59
569.01	36583.89
569.208	36178.39
569.407	36334.04
569.605	36291.03
569.804	36684.24
570.002	35672.54
570.201	36075.99
570.4	35705.31
570.598	35590.62
570.797	35418.6
570.995	35684.83
571.193	35111.4
571.392	35486.18
571.59	35009
571.789	34912.75
571.987	34978.28
572.186	34707.95
572.384	34372.08
572.582	34820.59
572.781	34224.63
572.979	34224.63
573.177	34578.93
573.376	34478.58
573.574	33831.42
573.772	34120.18
573.971	33575.42
574.169	33516.03
574.367	33460.74
574.565	33481.22
574.763	33616.38
574.962	33634.81
575.16	33233.41
575.358	33266.18
575.556	32717.32
575.754	33401.35
575.952	32465.42
576.151	32813.58
576.349	32598.54
576.547	32616.97
576.745	32375.31
576.943	32111.13
577.141	31943.19
577.339	32221.72
577.537	32158.23
577.735	31908.38
577.933	31676.96
578.131	31771.16
578.329	31859.23
578.527	31150.63
578.725	31463.97
578.923	31461.92
579.121	31238.69
579.319	30964.26
579.516	31062.57
579.714	31175.2
579.912	31056.42
580.11	30949.93
580.308	30810.67
580.506	30550.57
580.704	30337.59
580.901	30573.1
581.099	30786.09
581.297	30394.93
581.495	30292.53
581.692	30161.46
581.89	30085.68
582.088	30169.65
582.285	29813.31
582.483	30093.88
582.681	29907.51
582.878	29649.47
583.076	29516.35
583.274	29571.64
583.471	29481.53
583.669	29579.84
583.866	29084.23
584.064	29114.95
584.262	28865.1
584.459	29241.92
584.657	29250.11
584.854	29067.84
585.052	28686.92
585.249	28920.39
585.447	28750.41
585.644	28183.12
585.841	28496.46
586.039	28387.92
586.236	28176.98
586.434	27693.66
586.631	28039.76
586.828	28394.06
587.026	28107.35
587.223	28199.51
587.42	27769.43
587.618	27425.37
587.815	27408.99
588.012	27411.04
588.21	27370.08
588.407	27695.71
588.604	27202.14
588.801	26917.48
588.999	27456.09
589.196	26767.98
589.393	27097.7
589.59	26800.74
589.787	26837.61
589.984	26696.3
590.182	26542.7
590.379	26489.45
590.576	26378.86
590.773	26374.77
590.97	25911.92
591.167	26233.46
591.364	26051.19
591.561	26098.29
591.758	25883.25
591.955	25592.44
592.152	26262.13
592.349	25776.76
592.546	25825.91
592.743	25823.86
592.94	25367.16
593.137	25674.36
593.334	25477.76
593.531	25025.15
593.727	25279.1
593.924	25184.9
594.121	25119.36
594.318	25350.78
594.515	24892.04
594.712	24881.8
594.908	24511.11
595.105	24801.93
595.302	24752.77
595.499	24498.83
595.696	24318.6
595.892	24525.45
596.089	24396.43
596.286	24281.74
596.482	24261.26
596.679	24294.03
596.876	24091.28
597.072	24033.94
597.269	23882.39
597.466	23888.53
597.662	23575.19
597.859	23769.75
598.055	23616.15
598.252	23452.31
598.448	23466.65
598.645	23216.8
598.841	23102.11
599.038	23069.34
599.234	23192.22
599.431	22964.9
599.627	22784.68
599.824	23259.81
600.02	22667.94
600.217	22928.03
600.413	22663.85
600.609	22573.74
600.806	22661.8
601.002	22342.32
601.198	22264.49
601.395	22477.48
601.591	22313.64
601.787	22119.09
601.984	22127.28
602.18	22356.65
602.376	22065.84
602.572	21949.11
602.769	21867.19
602.965	21623.48
603.161	21852.85
603.357	21783.22
603.553	21592.76
603.75	21711.54
603.946	21238.46
604.142	21236.41
604.338	21109.44
604.534	21586.61
604.73	21050.05
604.926	20818.63
605.122	21086.91
605.318	20806.34
605.514	20882.11
605.71	20859.59
605.906	20837.06
606.102	20918.98
606.298	20763.33
606.494	20517.57
606.69	20579.01
606.886	20435.66
607.082	20196.04
607.278	20552.39
607.474	20296.39
607.67	20306.63
607.866	20150.99
608.062	20194
608.257	20048.59
608.453	20009.68
608.649	20056.78
608.845	19950.29
609.041	20134.6
609.236	19966.67
609.432	19999.44
609.628	19880.66
609.824	19923.66
610.019	19671.76
610.215	19722.96
610.411	19786.45
610.606	19528.41
610.802	19643.09
610.998	19495.64
611.193	19540.69
611.389	19565.27
611.584	19534.55
611.78	19084
611.976	19417.82
612.171	19106.52
612.367	19213.02
612.562	19215.07
612.758	19016.41
612.953	18969.31
613.149	19202.78
613.344	18840.29
613.539	18936.54
613.735	19077.85
613.93	18989.79
614.126	18438.89
614.321	18901.73
614.517	18686.69
614.712	18684.64
614.907	18617.06
615.103	18868.96
615.298	18535.14
615.493	18721.51
615.688	18199.27
615.884	18842.34
616.079	18449.13
616.274	18236.14
616.47	18266.86
616.665	18365.16
616.86	18305.77
617.055	18068.2
617.25	18326.25
617.445	18307.82
617.641	18033.39
617.836	17894.13
618.031	17992.43
618.226	18023.15
618.421	17754.87
618.616	17924.85
618.811	17636.08
619.006	17584.88
619.201	17451.77
619.396	17799.92
619.591	17183.48
619.786	17603.32
619.981	17119.99
620.176	17302.26
620.371	16886.53
620.566	17074.94
620.761	16902.91
620.956	17097.47
621.151	16984.83
621.346	17036.03
621.541	16661.25
621.735	16849.66
621.93	16745.22
622.125	16720.64
622.32	16263.94
622.515	16292.62
622.709	16007.95
622.904	16438.02
623.099	16141.07
623.294	16319.24
623.488	15797.01
623.683	16079.63
623.878	15782.67
624.072	15868.69
624.267	15538.96
624.462	15549.2
624.656	15162.14
624.851	15545.11
625.046	15379.22
625.24	15029.02
625.435	14965.53
625.629	15137.56
625.824	15020.83
626.018	15137.56
626.213	14576.42
626.407	14476.07
626.602	14537.51
626.796	14709.54
626.991	14629.66
627.185	14402.34
627.38	14310.18
627.574	14504.74
627.768	13962.03
627.963	14181.16
628.157	13878.06
628.352	13921.07
628.546	13718.32
628.74	13992.75
628.935	13521.71
629.129	13818.67
629.323	13585.2
629.517	13384.5
629.712	13271.86
629.906	13253.43
630.1	13314.87
630.294	13200.18
630.489	13099.83
630.683	13151.03
630.877	12909.37
631.071	13081.4
631.265	12852.03
631.459	12960.57
631.653	12616.51
631.848	12741.44
632.042	12536.64
632.236	12526.4
632.43	12649.28
632.624	12381
632.818	12612.42
633.012	12168.01
633.206	12151.62
633.4	12329.8
633.594	11983.69
633.788	12032.84
633.982	11938.63
634.176	11934.54
634.369	11778.89
634.563	11696.97
634.757	11713.36
634.951	11848.52
635.145	11561.81
635.339	11635.53
635.533	11674.45
635.726	11471.7
635.92	11479.89
636.114	11449.17
636.308	10967.9
636.501	11207.51
636.695	11209.56
636.889	10963.8
637.083	11139.93
637.276	10869.59
637.47	10836.83
637.664	10754.91
637.857	10781.53
638.051	10607.45
638.244	10679.13
638.438	10578.78
638.632	10586.97
638.825	10361.7
639.019	10371.94
639.212	10373.99
639.406	10388.32
639.599	10306.4
639.793	10376.03
639.986	10183.52
640.18	10353.51
640.373	10023.78
640.567	9948.01
640.76	10046.31
640.954	9816.94
641.147	9665.39
641.34	9943.91
641.534	9874.28
641.727	9599.85
641.92	9640.81
642.114	9630.57
642.307	9577.33
642.5	9481.07
642.694	9362.29
642.887	9470.83
643.08	9534.32
643.273	9304.95
643.467	9274.23
643.66	9182.07
643.853	9161.59
644.046	8948.6
644.239	9153.4
644.432	9126.77
644.626	8928.12
644.819	8815.48
645.012	8948.6
645.205	8782.71
645.398	8801.15
645.591	8928.12
645.784	8766.33
645.977	8676.22
646.17	8735.61
646.363	8629.12
646.556	8629.12
646.749	8571.77
646.942	8457.09
647.135	8407.94
647.328	8344.45
647.521	8250.24
647.714	8387.46
647.907	8366.98
648.099	8371.07
648.292	8223.62
648.485	8182.66
648.678	8098.69
648.871	8108.93
649.064	7920.52
649.256	8080.26
649.449	7771.02
649.642	7814.02
649.835	8035.21
650.027	7840.65
650.22	7723.91
650.413	7754.63
650.605	7646.09
650.798	7648.14
650.991	7553.93
651.183	7598.99
651.376	7398.29
651.568	7572.36
651.761	7461.77
651.954	7377.81
652.146	7502.73
652.339	7273.36
652.531	7324.56
652.724	7117.72
652.916	6964.12
653.109	7121.81
653.301	7250.83
653.494	7193.49
653.686	7089.04
653.879	7195.54
654.071	7005.08
654.263	6968.21
654.456	6894.49
654.648	7000.98
654.84	6765.46
655.033	6869.91
655.225	6908.82
655.417	6669.21
655.61	6695.83
655.802	6726.55
655.994	6658.97
656.186	6925.21
656.379	6626.2
656.571	6564.76
656.763	6613.92
656.955	6618.01
657.148	6527.9
657.34	6650.78
657.532	6568.86
657.724	6351.78
657.916	6509.47
658.108	6568.86
658.3	6310.82
658.492	6286.24
658.684	6296.48
658.876	6294.43
659.068	6290.34
659.26	6126.5
659.452	6081.44
659.644	6060.96
659.836	6054.82
660.028	6138.79
660.22	5991.33
660.412	6241.18
660.604	6048.68
660.796	6040.48
660.988	6181.79
661.18	5852.07
661.372	5944.23
661.563	5827.5
661.755	5809.06
661.947	5798.82
662.139	5788.58
662.331	5729.19
662.522	5700.52
662.714	5743.53
662.906	5847.97
663.097	5655.47
663.289	5520.3
663.481	5790.63
663.673	5663.66
663.864	5714.86
664.056	5596.07
664.247	5454.76
664.439	5436.33
664.631	5589.93
664.822	5561.26
665.014	5622.7
665.205	5487.53
665.397	5551.02
665.588	5469.1
665.78	5260.21
665.971	5503.92
666.163	5479.34
666.354	5397.42
666.546	5352.37
666.737	5301.17
666.929	5422
667.12	5454.76
667.311	5348.27
667.503	5458.86
667.694	5194.67
667.885	5180.34
668.077	5209.01
668.268	5426.09
668.459	5372.85
668.651	5217.2
668.842	5176.24
669.033	5231.54
669.224	5116.85
669.416	5297.07
669.607	5163.95
669.798	5161.91
669.989	5243.82
670.18	5141.43
670.371	5348.27
670.563	5258.16
670.754	5170.1
670.945	5090.23
671.136	5170.1
671.327	5172.15
671.518	5102.51
671.709	5266.35
671.9	5180.34
672.091	5125.04
672.282	5032.88
672.473	5159.86
672.664	5247.92
672.855	5041.08
673.046	5110.71
673.237	5137.33
673.428	5155.76
673.619	5016.5
673.809	5209.01
674	5180.34
674.191	5122.99
674.382	4910.01
674.573	5215.15
674.764	5176.24
674.954	5202.86
675.145	4996.02
675.336	5086.13
675.527	5092.27
675.717	5106.61
675.908	5219.25
676.099	5073.84
676.289	5233.58
676.48	5086.13
676.671	5082.03
676.861	5227.44
677.052	5086.13
677.243	5231.54
677.433	5186.48
677.624	5360.56
677.814	5096.37
678.005	5231.54
678.195	5221.3
678.386	5282.74
678.576	5215.15
678.767	5307.31
678.957	5254.06
679.148	5270.45
679.338	5356.46
679.529	5276.59
679.719	5387.18
679.909	5352.37
680.1	5094.32
680.29	5512.11
680.481	5323.69
680.671	5397.42
680.861	5303.22
681.052	5442.48
681.242	5381.04
681.432	5417.9
681.622	5276.59
681.813	5376.94
682.003	5315.5
682.193	5475.24
682.383	5462.96
682.573	5553.07
682.764	5487.53
682.954	5456.81
683.144	5540.78
683.334	5366.7
683.524	5399.47
683.714	5352.37
683.904	5458.86
684.094	5499.82
684.284	5481.39
684.474	5555.12
684.664	5450.67
684.854	5266.35
685.044	5444.52
685.234	5485.48
685.424	5335.98
685.614	5368.75
685.804	5487.53
685.994	5442.48
686.184	5333.93
686.374	5436.33
686.564	5292.98
686.753	5243.82
686.943	5254.06
687.133	5397.42
687.323	5327.79
687.513	5393.33
687.702	5266.35
687.892	5155.76
688.082	5237.68
688.272	5106.61
688.461	5147.57
688.651	5249.97
688.841	5086.13
689.03	5094.32
689.22	4932.53
689.41	4942.77
689.599	5006.26
689.789	5057.46
689.979	4879.29
690.168	4852.66
690.358	4776.89
690.547	4803.51
690.737	4871.09
690.926	4922.29
691.116	4942.77
691.305	4991.92
691.495	4631.48
691.684	4651.96
691.874	4598.71
692.063	4721.59
692.252	4723.64
692.442	4709.3
692.631	4596.67
692.82	4529.08
693.01	4230.08
693.199	4481.98
693.388	4391.87
693.578	4455.36
693.767	4402.11
693.956	4467.64
694.146	4338.62
694.335	4301.76
694.524	4312
694.713	4305.85
694.902	4279.23
695.092	4418.49
695.281	4326.33
695.47	3992.52
695.659	4189.12
695.848	4195.26
696.037	4004.8
696.226	4205.5
696.415	3988.42
696.604	4211.65
696.793	4131.78
696.982	4101.06
697.171	4131.78
697.36	4074.43
697.549	3990.47
697.738	3918.79
697.927	3990.47
698.116	4139.97
698.305	3980.23
698.494	4029.38
698.683	3900.36
698.872	3826.63
699.061	4123.59
699.25	3910.6
699.438	3920.84
699.627	4000.71
699.816	3861.45
700.005	3937.22
700.193	3910.6
700.382	4000.71
700.571	3961.8
700.76	4025.28
700.948	3967.94
701.137	3992.52
701.326	4023.23
701.514	4066.24
701.703	3980.23
701.892	3953.6
702.08	3963.84
702.269	4017.09
702.457	3949.51
702.646	3980.23
702.834	3992.52
703.023	4019.14
703.212	4041.67
703.4	4066.24
703.589	3759.05
703.777	3949.51
703.965	3984.32
704.154	3916.74
704.342	3849.16
704.531	3963.84
704.719	4049.86
704.907	4133.82
705.096	3961.8
705.284	3808.2
705.472	4064.19
705.661	4088.77
705.849	4058.05
706.037	3976.13
706.226	4025.28
706.414	3910.6
706.602	3883.97
706.79	4160.45
706.979	4012.99
707.167	4066.24
707.355	4111.3
707.543	4031.43
707.731	4111.3
707.919	4336.57
708.107	4056
708.296	4041.67
708.484	4045.76
708.672	4033.47
708.86	4070.34
709.048	4148.16
709.236	4131.78
709.424	4289.47
709.612	4275.13
709.8	4209.6
709.988	4187.07
710.176	4377.53
710.364	4344.77
710.551	4375.49
710.739	4248.51
710.927	4252.61
711.115	4293.57
711.303	4422.59
711.491	4238.27
711.679	4393.92
711.866	4344.77
712.054	4377.53
712.242	4328.38
712.43	4393.92
712.617	4332.48
712.805	4361.15
712.993	4516.8
713.181	4508.6
713.368	4479.93
713.556	4522.94
713.744	4406.2
713.931	4680.63
714.119	4598.71
714.306	4520.89
714.494	4586.43
714.682	4580.28
714.869	4629.43
715.057	4662.2
715.244	4633.53
715.432	4801.46
715.619	4680.63
715.807	4793.27
715.994	4823.99
716.182	4596.67
716.369	4887.48
716.556	4731.83
716.744	4873.14
716.931	4680.63
717.119	4801.46
717.306	4746.17
717.493	4893.62
717.681	4922.29
717.868	4928.44
718.055	4823.99
718.242	4869.05
718.43	5032.88
718.617	4907.96
718.804	4934.58
718.991	4936.63
719.179	4965.3
719.366	4907.96
719.553	5094.32
719.74	4946.87
719.927	5028.79
720.114	5209.01
720.301	5106.61
720.488	5016.5
720.676	5125.04
720.863	5065.65
721.05	5284.78
721.237	5188.53
721.424	5147.57
721.611	5211.06
721.798	5231.54
721.985	5188.53
722.172	5276.59
722.358	5288.88
722.545	5381.04
722.732	5286.83
722.919	5499.82
723.106	5344.17
723.293	5385.13
723.48	5393.33
723.667	5409.71
723.853	5307.31
724.04	5422
724.227	5360.56
724.414	5516.2
724.6	5526.44
724.787	5487.53
724.974	5489.58
725.161	5581.74
725.347	5467.05
725.534	5542.83
725.72	5634.99
725.907	5637.03
726.094	5548.97
726.28	5462.96
726.467	5587.88
726.653	5639.08
726.84	5700.52
727.027	5759.91
727.213	5594.03
727.4	5723.05
727.586	5551.02
727.773	5704.62
727.959	5753.77
728.145	5860.26
728.332	5819.3
728.518	5831.59
728.705	5921.7
728.891	5716.9
729.077	5854.12
729.264	6028.2
729.45	5847.97
729.636	5909.41
729.823	5753.77
730.009	5897.13
730.195	5970.85
730.382	6032.29
730.568	5905.32
730.754	5915.56
730.94	5966.76
731.126	6151.07
731.313	6024.1
731.499	6089.64
731.685	5952.42
731.871	6032.29
732.057	6136.74
732.243	6138.79
732.429	6069.16
732.615	6099.87
732.801	5886.89
732.987	6101.92
733.173	6091.68
733.359	5964.71
733.545	6044.58
733.731	6122.4
733.917	6001.57
734.103	6136.74
734.289	6044.58
734.475	6040.48
734.661	6015.91
734.847	6097.83
735.033	6296.48
735.219	6081.44
735.404	6128.55
735.59	6165.41
735.776	6106.02
735.962	6292.38
736.148	6210.47
736.333	6126.5
736.519	6159.27
736.705	6167.46
736.89	6347.68
737.076	6038.44
737.262	6050.72
737.447	6179.75
737.633	6167.46
737.819	6075.3
738.004	6249.38
738.19	5952.42
738.375	6089.64
738.561	6208.42
738.747	6134.69
738.932	6142.88
739.118	6136.74
739.303	6179.75
739.489	6015.91
739.674	6218.66
739.859	6065.06
740.045	6013.86
740.23	5950.37
740.416	5850.02
740.601	6036.39
740.786	6071.2
740.972	5919.65
741.157	6020
741.342	5956.52
741.528	5794.73
741.713	5921.7
741.898	6040.48
742.084	5770.15
742.269	5890.98
742.454	5911.46
742.639	5856.17
742.824	5923.75
743.01	6020
743.195	5964.71
743.38	5784.49
743.565	5839.78
743.75	5833.64
743.935	5573.55
744.12	5653.42
744.305	5657.51
744.49	5815.21
744.675	5661.61
744.86	5716.9
745.045	5387.18
745.23	5591.98
745.415	5737.38
745.6	5479.34
745.785	5473.2
745.97	5581.74
746.155	5438.38
746.34	5491.63
746.525	5454.76
746.71	5491.63
746.895	5260.21
747.079	5383.09
747.264	5229.49
747.449	5237.68
747.634	5266.35
747.819	5290.93
748.003	5094.32
748.188	5176.24
748.373	5039.03
748.557	5141.43
748.742	4938.68
748.927	5129.14
749.111	5030.84
749.296	5002.16
749.481	5028.79
749.665	4938.68
749.85	4717.5
750.034	4901.81
750.219	4819.89
750.404	4787.13
750.588	4684.73
750.773	4797.37
750.957	4645.82
751.141	4643.77
751.326	4473.79
751.51	4393.92
751.695	4473.79
751.879	4479.93
752.064	4678.58
752.248	4557.75
752.432	4578.23
752.617	4385.73
752.801	4463.55
752.985	4312
753.17	4260.8
753.354	4189.12
753.538	4307.9
753.722	4172.74
753.907	4258.75
754.091	4170.69
754.275	4086.72
754.459	4056
754.643	3994.56
754.828	4058.05
755.012	4031.43
755.196	4080.58
755.38	3898.31
755.564	3886.02
755.748	3769.29
755.932	3998.66
756.116	3943.36
756.3	3867.59
756.484	3836.87
756.668	3722.18
756.852	3800.01
757.036	3644.36
757.22	3556.3
757.404	3599.31
757.588	3623.88
757.772	3623.88
757.956	3613.64
758.14	3556.3
758.323	3374.03
758.507	3410.89
758.691	3501
758.875	3464.14
759.059	3562.44
759.242	3591.11
759.426	3417.04
759.61	3304.4
759.794	3255.25
759.977	3341.26
760.161	3439.56
760.345	3288.01
760.528	3288.01
760.712	3165.14
760.895	3113.94
761.079	3140.56
761.263	3085.26
761.446	3040.21
761.63	3083.22
761.813	3126.22
761.997	3032.02
762.18	3001.3
762.364	2984.91
762.547	3017.68
762.731	3189.71
762.914	2982.87
763.098	2894.8
763.281	2937.81
763.464	3019.73
763.648	2739.16
763.831	2919.38
764.015	2829.27
764.198	2874.32
764.381	2790.36
764.564	2786.26
764.748	2743.25
764.931	2876.37
765.114	2845.65
765.297	2853.84
765.481	2702.29
765.664	2673.62
765.847	2747.35
766.03	2671.58
766.213	2780.12
766.397	2677.72
766.58	2739.16
766.763	2710.49
766.946	2595.8
767.129	2595.8
767.312	2671.58
767.495	2573.27
767.678	2649.05
767.861	2606.04
768.044	2520.03
768.227	2577.37
768.41	2644.95
768.593	2485.21
768.776	2520.03
768.959	2489.31
769.142	2458.59
769.324	2548.7
769.507	2444.25
769.69	2442.2
769.873	2395.1
770.056	2384.86
770.239	2350.04
770.421	2366.43
770.604	2358.24
770.787	2333.66
770.97	2270.17
771.152	2395.1
771.335	2411.48
771.518	2223.07
771.7	2270.17
771.883	2255.84
772.066	2175.97
772.248	2350.04
772.431	2178.01
772.613	2194.4
772.796	2155.49
772.978	2208.73
773.161	2270.17
773.343	2114.53
773.526	2065.38
773.708	2081.76
773.891	1944.55
774.073	2059.23
774.256	1952.74
774.438	2114.53
774.621	2063.33
774.803	1999.84
774.985	1954.79
775.168	1960.93
775.35	2065.38
775.532	2051.04
775.715	1876.96
775.897	1909.73
776.079	1887.2
776.261	1844.2
776.444	1793
776.626	1795.04
776.808	1889.25
776.99	1793
777.173	1883.11
777.355	1836
777.537	1790.95
777.719	1772.52
777.901	1645.54
778.083	1620.97
778.265	1680.36
778.447	1727.46
778.629	1606.63
778.811	1676.26
778.993	1571.82
779.175	1653.73
779.357	1682.41
779.539	1534.95
779.721	1561.58
779.903	1598.44
780.085	1522.66
780.267	1547.24
780.449	1653.73
780.631	1547.24
780.812	1524.71
780.994	1526.76
781.176	1502.19
781.358	1428.46
781.54	1428.46
781.721	1493.99
781.903	1489.9
782.085	1317.87
782.267	1352.68
782.448	1348.59
782.63	1307.63
782.812	1453.03
782.993	1391.59
783.175	1393.64
783.357	1297.39
783.538	1371.12
783.72	1262.57
783.901	1248.24
784.083	1367.02
784.264	1248.24
784.446	1260.52
784.627	1313.77
784.809	1254.38
784.99	1266.67
785.172	1229.81
785.353	1201.13
785.535	1065.97
785.716	1108.98
785.897	1211.37
786.079	1125.36
786.26	1145.84
786.441	1166.32
786.623	1149.93
786.804	1084.4
786.985	1014.77
787.167	1229.81
787.348	1057.78
787.529	977.91
787.71	1108.98
787.891	1065.97
788.073	994.29
788.254	1078.26
788.435	1018.86
788.616	1156.08
788.797	1035.25
788.978	1006.58
789.159	1022.96
789.34	994.29
789.522	1020.91
789.703	969.71
789.884	926.71
790.065	945.14
790.246	1031.15
790.427	883.7
790.607	916.47
790.788	1000.43
790.969	1025.01
791.15	883.7
791.331	924.66
791.512	805.88
791.693	904.18
791.874	893.94
792.054	957.43
792.235	928.75
792.416	715.77
792.597	756.72
792.778	900.08
792.958	824.31
793.139	805.88
793.32	830.45
793.5	764.92
793.681	871.41
793.862	883.7
794.042	855.03
794.223	707.57
794.404	773.11
794.584	799.73
794.765	785.4
794.945	855.03
795.126	777.2
795.306	777.2
795.487	736.24
795.667	707.57
795.848	773.11
796.028	736.24
796.209	723.96
796.389	732.15
796.57	723.96
796.75	662.52
796.93	736.24
797.111	744.44
797.291	721.91
797.471	740.34
797.652	619.51
797.832	689.14
798.012	713.72
798.192	668.66
798.373	695.29
798.553	564.22
798.733	662.52
798.913	668.66
799.093	648.18
799.274	639.99
799.454	664.57
799.634	658.42
799.814	582.65
799.994	662.52
800.174	705.53
800.354	699.38
800.534	648.18
800.714	703.48
800.894	658.42
801.074	637.94
801.254	599.03
801.434	617.46
801.614	596.98
801.794	582.65
801.974	1289.2
802.154	568.31
802.334	596.98
802.514	623.61
802.693	492.54
802.873	639.99
803.053	699.38
803.233	523.26
803.413	572.41
803.592	562.17
803.772	484.34
803.952	560.12
804.131	517.11
804.311	631.8
804.491	576.5
804.67	541.69
804.85	517.11
805.03	556.02
805.209	603.13
805.389	513.02
805.568	482.3
805.748	461.82
805.928	447.48
806.107	498.68
806.287	564.22
806.466	502.78
806.646	541.69
806.825	525.3
807.004	492.54
807.184	510.97
807.363	461.82
807.543	502.78
807.722	463.86
807.901	560.12
808.081	529.4
808.26	433.15
808.439	498.68
808.619	427
808.798	470.01
808.977	498.68
809.156	472.06
809.336	465.91
809.515	441.34
809.694	404.47
809.873	488.44
810.052	515.06
810.231	476.15
810.411	445.43
810.59	529.4
810.769	510.97
810.948	418.81
811.127	408.57
811.306	424.95
811.485	353.27
811.664	427
811.843	406.52
812.022	392.19
812.201	420.86
812.38	420.86
812.559	427
812.737	373.75
812.916	408.57
813.095	396.28
813.274	412.67
813.453	392.19
813.632	332.79
813.811	410.62
813.989	390.14
814.168	371.71
814.347	412.67
814.526	367.61
814.704	406.52
814.883	390.14
815.062	302.08
815.24	375.8
815.419	330.75
815.598	320.51
815.776	295.93
815.955	351.23
816.133	271.36
816.312	334.84
816.49	375.8
816.669	355.32
816.847	291.84
817.026	312.32
817.204	314.36
817.383	400.38
817.561	349.18
817.74	422.91
817.918	449.53
818.097	287.74
818.275	326.65
818.453	345.08
818.632	398.33
818.81	361.47
818.988	347.13
819.167	363.51
819.345	351.23
819.523	224.25
819.701	400.38
819.879	322.56
820.058	343.03
820.236	312.32
820.414	295.93
820.592	238.59
820.77	363.51
820.948	396.28
821.127	310.27
821.305	388.09
821.483	304.12
821.661	240.64
821.839	306.17
822.017	324.6
822.195	328.7
822.373	353.27
822.551	224.25
822.729	351.23
822.907	271.36
823.085	214.01
823.262	269.31
823.44	214.01
823.618	232.44
823.796	312.32
823.974	328.7
824.152	273.4
824.329	250.88
824.507	312.32
824.685	310.27
824.863	287.74
825.04	232.44
825.218	246.78
825.396	281.6
825.574	273.4
825.751	295.93
825.929	248.83
826.107	195.58
826.284	257.02
826.462	269.31
826.639	257.02
826.817	273.4
826.994	316.41
827.172	199.68
827.349	248.83
827.527	175.1
827.704	199.68
827.882	257.02
828.059	281.6
828.237	257.02
828.414	267.26
828.591	216.06
828.769	185.34
828.946	205.82
829.124	252.92
829.301	265.21
829.478	195.58
829.655	222.2
829.833	203.77
830.01	205.82
830.187	181.25
830.364	216.06
830.542	103.42
830.719	273.4
830.896	177.15
831.073	236.54
831.25	166.91
831.427	205.82
831.604	158.72
831.782	203.77
831.959	166.91
832.136	218.11
832.313	158.72
832.49	166.91
832.667	209.92
832.844	158.72
833.021	199.68
833.198	115.71
833.374	158.72
833.551	142.33
833.728	140.29
833.905	207.87
834.082	109.57
834.259	244.73
834.436	183.29
834.612	173.05
834.789	261.12
834.966	166.91
835.143	199.68
835.319	68.61
835.496	214.01
835.673	187.39
835.85	211.96
836.026	158.72
836.203	164.86
836.38	199.68
836.556	199.68
836.733	142.33
836.909	273.4
837.086	142.33
837.262	93.18
837.439	138.24
837.616	125.95
837.792	156.67
837.968	142.33
838.145	121.85
838.321	109.57
838.498	158.72
838.674	146.43
838.851	216.06
839.027	91.13
839.203	162.81
839.38	136.19
839.556	183.29
839.732	173.05
839.909	80.89
840.085	152.57
840.261	35.84
840.437	123.9
840.614	140.29
840.79	146.43
840.966	189.44
841.142	150.53
841.318	107.52
841.494	142.33
841.671	148.48
841.847	113.66
842.023	80.89
842.199	132.09
842.375	146.43
842.551	72.7
842.727	107.52
842.903	164.86
843.079	97.28
843.255	257.02
843.431	115.71
843.607	158.72
843.783	74.75
843.959	150.53
844.134	123.9
844.31	107.52
844.486	87.04
844.662	39.94
844.838	87.04
845.013	109.57
845.189	115.71
845.365	68.61
845.541	101.37
845.716	177.15
845.892	115.71
846.068	76.8
846.244	109.57
846.419	123.9
846.595	101.37
846.77	89.09
846.946	80.89
847.122	101.37
847.297	101.37
847.473	144.38
847.648	97.28
847.824	115.71
847.999	78.85
848.175	105.47
848.35	76.8
848.526	125.95
848.701	66.56
848.876	128
849.052	173.05
849.227	142.33
849.403	64.51
849.578	82.94
849.753	68.61
849.929	173.05
850.104	64.51
850.279	9.22
850.454	50.18
850.63	93.18
850.805	152.57
850.98	91.13
851.155	183.29
851.33	130.05
851.505	33.79
851.681	84.99
851.856	-19.46
852.031	132.09
852.206	99.33
852.381	76.8
852.556	74.75
852.731	168.96
852.906	97.28
853.081	58.37
853.256	111.61
853.431	84.99
853.606	123.9
853.781	89.09
853.956	-37.89
854.131	76.8
854.305	76.8
854.48	56.32
854.655	62.46
854.83	-5.12
855.005	72.7
855.18	93.18
855.354	84.99
855.529	64.51
855.704	72.7
855.879	95.23
856.053	91.13
856.228	113.66
856.403	11.26
856.577	121.85
856.752	78.85
856.926	62.46
857.101	68.61
857.276	66.56
857.45	93.18
857.625	11.26
857.799	1.02
857.974	97.28
858.148	-23.55
858.323	31.74
858.497	125.95
858.672	7.17
858.846	19.46
859.02	74.75
859.195	44.03
859.369	41.98
859.543	-23.55
859.718	50.18
859.892	93.18
860.066	84.99
860.241	3.07
860.415	-37.89
860.589	17.41
860.763	39.94
860.938	95.23
861.112	138.24
861.286	56.32
861.46	125.95
861.634	70.65
861.808	84.99
861.982	72.7
862.157	27.65
862.331	82.94
862.505	7.17
862.679	7.17
862.853	35.84
863.027	56.32
863.201	158.72
863.375	72.7
863.549	13.31
863.722	142.33
863.896	93.18
864.07	62.46
864.244	52.22
864.418	52.22
864.592	23.55
864.766	19.46
864.939	91.13
865.113	1.02
865.287	27.65
865.461	35.84
865.634	1.02
865.808	-13.31
865.982	-9.22
866.156	72.7
866.329	3.07
866.503	162.81
866.676	128
866.85	107.52
867.024	33.79
867.197	93.18
867.371	60.42
867.544	50.18
867.718	-23.55
867.891	27.65
868.065	5.12
868.238	35.84
868.412	44.03
868.585	9.22
868.759	68.61
868.932	5.12
869.105	-58.37
869.279	19.46
869.452	-21.5
869.625	37.89
869.799	-5.12
869.972	33.79
870.145	44.03
870.319	97.28
870.492	-21.5
870.665	7.17
870.838	29.7
871.011	-37.89
871.185	60.42
871.358	84.99
871.531	9.22
871.704	-17.41
871.877	-3.07
872.05	68.61
872.223	60.42
872.396	134.14
872.569	105.47
872.742	-37.89
872.915	60.42
873.088	-23.55
873.261	41.98
873.434	60.42
873.607	80.89
873.78	64.51
873.953	-27.65
874.126	80.89
874.299	64.51
874.471	-33.79
874.644	50.18
874.817	58.37
874.99	68.61
875.163	11.26
875.335	29.7
875.508	-74.75
875.681	39.94
875.853	1.02
876.026	134.14
876.199	33.79
876.371	-7.17
876.544	-17.41
876.717	-46.08
876.889	31.74
877.062	76.8
877.234	89.09
877.407	54.27
877.579	33.79
877.752	-3.07
877.924	3.07
878.097	23.55
878.269	93.18
878.442	9.22
878.614	74.75
878.786	80.89
878.959	39.94
879.131	50.18
879.303	-27.65
879.476	-29.7
879.648	154.62
879.82	15.36
879.993	-46.08
880.165	11.26
880.337	-27.65
880.509	1.02
880.681	-70.65
880.854	-29.7
881.026	-5.12
881.198	41.98
881.37	1.02
881.542	1.02
881.714	41.98
881.886	-37.89
882.058	80.89
882.23	33.79
882.402	72.7
882.574	-23.55
882.746	56.32
882.918	76.8
883.09	31.74
883.262	-58.37
883.434	-37.89
883.606	-15.36
883.778	27.65
883.95	146.43
884.122	17.41
884.293	19.46
884.465	9.22
884.637	91.13
884.809	93.18
884.98	15.36
885.152	41.98
885.324	15.36
885.496	-62.46
885.667	-19.46
885.839	58.37
886.011	52.22
886.182	-50.18
886.354	19.46
886.525	-11.26
886.697	29.7
886.869	52.22
887.04	-31.74
887.212	58.37
887.383	136.19
887.555	64.51
887.726	37.89
887.897	35.84
888.069	-21.5
888.24	62.46
888.412	-3.07
888.583	1.02
888.754	-33.79
888.926	-37.89
889.097	-11.26
889.268	60.42
889.44	54.27
889.611	-62.46
889.782	3.07
889.953	-62.46
890.125	58.37
890.296	-17.41
890.467	19.46
890.638	66.56
890.809	19.46
890.98	11.26
891.151	39.94
891.323	89.09
891.494	19.46
891.665	54.27
891.836	19.46
892.007	-37.89
892.178	72.7
892.349	-31.74
892.52	25.6
892.691	44.03
892.862	15.36
893.032	-13.31
893.203	1.02
893.374	35.84
893.545	25.6
893.716	31.74
893.887	5.12
894.057	-70.65
894.228	9.22
894.399	-39.94
894.57	15.36
894.74	-33.79
894.911	-17.41
895.082	1.02
895.253	60.42
895.423	-5.12
895.594	33.79
895.764	23.55
895.935	41.98
896.106	-23.55
896.276	-13.31
896.447	39.94
896.617	27.65
896.788	-46.08
896.958	-15.36
897.129	1.02
897.299	41.98
897.47	128
897.64	29.7
897.81	3.07
897.981	35.84
898.151	27.65
898.322	-11.26
898.492	-5.12
898.662	-29.7
898.832	35.84
899.003	78.85
899.173	68.61
899.343	27.65
899.513	35.84
