Data from USB4F104151__53__11-30-35-912.txt Node

Date: Fri Mar 14 11:30:35 EDT 2025
User: louis
Spectrometer: USB4F10415
Trigger mode: 4
Integration Time (sec): 5.000000E-2
Scans to average: 1
Electric dark correction enabled: true
Nonlinearity correction enabled: false
Boxcar width: 0
XAxis mode: Wavelengths
Number of Pixels in Spectrum: 3648
>>>>>Begin Spectral Data<<<<<
178.204	-155.99
178.424	-155.99
178.644	-155.99
178.864	-237.91
179.084	-115.03
179.304	-39.25
179.524	24.23
179.744	42.67
179.964	18.09
180.184	24.23
180.404	18.09
180.624	9.9
180.844	-8.53
181.064	-76.12
181.283	-31.06
181.503	-26.96
181.723	44.71
181.943	-39.25
182.163	83.63
182.383	38.57
182.602	95.91
182.822	87.72
183.042	38.57
183.262	30.38
183.482	32.43
183.701	18.09
183.921	48.81
184.141	-22.87
184.361	77.48
184.58	48.81
184.8	73.39
185.02	-0.34
185.239	32.43
185.459	22.19
185.679	67.24
185.898	3.75
186.118	34.47
186.338	22.19
186.557	124.58
186.777	-6.49
186.997	-0.34
187.216	20.14
187.436	83.63
187.655	42.67
187.875	79.53
188.095	38.57
188.314	9.9
188.534	38.57
188.753	34.47
188.973	83.63
189.192	-18.77
189.412	-2.39
189.631	34.47
189.851	52.91
190.07	89.77
190.29	5.8
190.509	32.43
190.729	30.38
190.948	28.33
191.168	179.88
191.387	112.3
191.607	16.04
191.826	104.11
192.045	22.19
192.265	24.23
192.484	18.09
192.704	9.9
192.923	-29.01
193.142	114.34
193.362	153.26
193.581	104.11
193.8	81.58
194.02	18.09
194.239	28.33
194.458	9.9
194.678	57
194.897	-4.44
195.116	-0.34
195.335	100.01
195.555	65.19
195.774	83.63
195.993	110.25
196.212	-14.68
196.432	-31.06
196.651	22.19
196.87	24.23
197.089	149.16
197.308	71.34
197.528	-4.44
197.747	50.86
197.966	71.34
198.185	81.58
198.404	-0.34
198.623	26.28
198.842	132.78
199.062	73.39
199.281	26.28
199.5	7.85
199.719	97.96
199.938	26.28
200.157	34.47
200.376	48.81
200.595	67.24
200.814	16.04
201.033	9.9
201.252	130.73
201.471	100.01
201.69	71.34
201.909	104.11
202.128	75.43
202.347	-2.39
202.566	57
202.785	-49.49
203.004	-18.77
203.223	179.88
203.442	26.28
203.661	36.52
203.879	28.33
204.098	81.58
204.317	7.85
204.536	93.87
204.755	38.57
204.974	85.67
205.193	38.57
205.411	100.01
205.63	48.81
205.849	-39.25
206.068	38.57
206.287	-18.77
206.505	95.91
206.724	26.28
206.943	-6.49
207.162	38.57
207.381	24.23
207.599	34.47
207.818	34.47
208.037	67.24
208.255	5.8
208.474	46.76
208.693	81.58
208.911	100.01
209.13	75.43
209.349	28.33
209.567	30.38
209.786	34.47
210.005	61.1
210.223	1.71
210.442	69.29
210.661	67.24
210.879	65.19
211.098	20.14
211.316	-6.49
211.535	34.47
211.753	26.28
211.972	67.24
212.191	-10.58
212.409	-45.4
212.628	22.19
212.846	3.75
213.065	36.52
213.283	63.15
213.502	-2.39
213.72	24.23
213.938	46.76
214.157	-8.53
214.375	65.19
214.594	5.8
214.812	93.87
215.031	71.34
215.249	46.76
215.467	34.47
215.686	81.58
215.904	38.57
216.122	50.86
216.341	50.86
216.559	-4.44
216.778	83.63
216.996	71.34
217.214	-16.73
217.432	1.71
217.651	1.71
217.869	36.52
218.087	1.71
218.306	63.15
218.524	-8.53
218.742	9.9
218.96	75.43
219.179	18.09
219.397	24.23
219.615	95.91
219.833	57
220.051	46.76
220.27	120.49
220.488	28.33
220.706	30.38
220.924	46.76
221.142	9.9
221.36	44.71
221.578	32.43
221.796	63.15
222.015	63.15
222.233	26.28
222.451	95.91
222.669	-0.34
222.887	48.81
223.105	-0.34
223.323	28.33
223.541	-33.11
223.759	30.38
223.977	-8.53
224.195	9.9
224.413	46.76
224.631	63.15
224.849	57
225.067	106.15
225.285	9.9
225.503	83.63
225.721	-47.44
225.939	22.19
226.157	38.57
226.375	108.2
226.592	26.28
226.81	-10.58
227.028	124.58
227.246	59.05
227.464	73.39
227.682	-37.2
227.9	42.67
228.117	32.43
228.335	104.11
228.553	54.95
228.771	7.85
228.989	9.9
229.206	91.82
229.424	-29.01
229.642	46.76
229.86	-47.44
230.077	54.95
230.295	87.72
230.513	89.77
230.731	69.29
230.948	104.11
231.166	57
231.384	13.99
231.601	46.76
231.819	87.72
232.037	-0.34
232.254	-22.87
232.472	48.81
232.689	-8.53
232.907	7.85
233.125	48.81
233.342	-22.87
233.56	61.1
233.777	50.86
233.995	9.9
234.213	52.91
234.43	89.77
234.648	48.81
234.865	-63.83
235.083	18.09
235.3	40.62
235.518	16.04
235.735	77.48
235.953	106.15
236.17	18.09
236.388	97.96
236.605	-10.58
236.822	73.39
237.04	24.23
237.257	16.04
237.475	-49.49
237.692	44.71
237.909	79.53
238.127	20.14
238.344	9.9
238.562	24.23
238.779	16.04
238.996	48.81
239.214	22.19
239.431	7.85
239.648	26.28
239.865	61.1
240.083	24.23
240.3	-20.82
240.517	83.63
240.735	26.28
240.952	75.43
241.169	42.67
241.386	67.24
241.603	18.09
241.821	18.09
242.038	40.62
242.255	67.24
242.472	52.91
242.689	-20.82
242.907	50.86
243.124	138.92
243.341	26.28
243.558	-6.49
243.775	46.76
243.992	18.09
244.209	73.39
244.426	102.06
244.643	-41.3
244.86	26.28
245.078	22.19
245.295	75.43
245.512	106.15
245.729	9.9
245.946	63.15
246.163	1.71
246.38	32.43
246.597	59.05
246.814	5.8
247.031	7.85
247.248	85.67
247.464	28.33
247.681	42.67
247.898	63.15
248.115	22.19
248.332	42.67
248.549	77.48
248.766	83.63
248.983	26.28
249.2	149.16
249.417	50.86
249.633	65.19
249.85	26.28
250.067	40.62
250.284	100.01
250.501	16.04
250.717	63.15
250.934	-6.49
251.151	-26.96
251.368	57
251.585	59.05
251.801	59.05
252.018	-33.11
252.235	108.2
252.451	3.75
252.668	-37.2
252.885	20.14
253.102	13.99
253.318	26.28
253.535	-6.49
253.752	26.28
253.968	50.86
254.185	77.48
254.401	5.8
254.618	48.81
254.835	16.04
255.051	87.72
255.268	32.43
255.484	11.95
255.701	36.52
255.917	18.09
256.134	34.47
256.351	1.71
256.567	9.9
256.784	140.97
257	13.99
257.217	13.99
257.433	38.57
257.65	1.71
257.866	-18.77
258.082	34.47
258.299	18.09
258.515	116.39
258.732	-6.49
258.948	1.71
259.165	40.62
259.381	-26.96
259.597	83.63
259.814	-18.77
260.03	1.71
260.246	69.29
260.463	63.15
260.679	24.23
260.895	46.76
261.112	57
261.328	63.15
261.544	18.09
261.761	112.3
261.977	145.06
262.193	22.19
262.409	54.95
262.626	-16.73
262.842	32.43
263.058	-72.02
263.274	32.43
263.49	83.63
263.707	42.67
263.923	75.43
264.139	-4.44
264.355	63.15
264.571	36.52
264.787	-16.73
265.004	18.09
265.22	48.81
265.436	16.04
265.652	9.9
265.868	50.86
266.084	-33.11
266.3	28.33
266.516	-26.96
266.732	59.05
266.948	42.67
267.164	-14.68
267.38	67.24
267.596	79.53
267.812	159.4
268.028	24.23
268.244	54.95
268.46	24.23
268.676	44.71
268.892	57
269.108	-26.96
269.324	26.28
269.54	40.62
269.756	63.15
269.972	-14.68
270.188	-33.11
270.403	-0.34
270.619	-57.68
270.835	24.23
271.051	132.78
271.267	38.57
271.483	67.24
271.698	73.39
271.914	22.19
272.13	-6.49
272.346	5.8
272.562	5.8
272.777	81.58
272.993	7.85
273.209	34.47
273.425	24.23
273.64	-14.68
273.856	54.95
274.072	71.34
274.287	69.29
274.503	65.19
274.719	63.15
274.934	9.9
275.15	24.23
275.366	7.85
275.581	18.09
275.797	110.25
276.012	61.1
276.228	42.67
276.444	13.99
276.659	42.67
276.875	-76.12
277.09	106.15
277.306	54.95
277.521	93.87
277.737	71.34
277.952	54.95
278.168	71.34
278.383	95.91
278.599	65.19
278.814	71.34
279.03	-35.16
279.245	46.76
279.461	3.75
279.676	108.2
279.892	-24.92
280.107	18.09
280.322	1.71
280.538	13.99
280.753	46.76
280.969	9.9
281.184	16.04
281.399	157.35
281.615	-8.53
281.83	24.23
282.045	7.85
282.26	-2.39
282.476	42.67
282.691	42.67
282.906	-16.73
283.122	52.91
283.337	59.05
283.552	46.76
283.767	-14.68
283.983	71.34
284.198	67.24
284.413	81.58
284.628	-18.77
284.843	69.29
285.058	83.63
285.274	65.19
285.489	11.95
285.704	-26.96
285.919	46.76
286.134	34.47
286.349	1.71
286.564	9.9
286.779	106.15
286.995	100.01
287.21	26.28
287.425	34.47
287.64	-6.49
287.855	7.85
288.07	1.71
288.285	-26.96
288.5	140.97
288.715	48.81
288.93	63.15
289.145	18.09
289.36	36.52
289.575	61.1
289.79	16.04
290.004	-14.68
290.219	18.09
290.434	63.15
290.649	26.28
290.864	30.38
291.079	106.15
291.294	89.77
291.509	28.33
291.724	24.23
291.938	-14.68
292.153	91.82
292.368	-14.68
292.583	-6.49
292.798	130.73
293.012	11.95
293.227	59.05
293.442	108.2
293.657	26.28
293.871	48.81
294.086	50.86
294.301	108.2
294.516	13.99
294.73	48.81
294.945	30.38
295.16	91.82
295.374	118.44
295.589	57
295.804	59.05
296.018	26.28
296.233	48.81
296.447	18.09
296.662	50.86
296.877	83.63
297.091	26.28
297.306	34.47
297.52	26.28
297.735	48.81
297.949	67.24
298.164	16.04
298.378	50.86
298.593	65.19
298.807	132.78
299.022	69.29
299.236	52.91
299.451	104.11
299.665	-33.11
299.88	1.71
300.094	50.86
300.309	30.38
300.523	20.14
300.737	120.49
300.952	50.86
301.166	13.99
301.381	-20.82
301.595	9.9
301.809	24.23
302.024	34.47
302.238	26.28
302.452	75.43
302.667	67.24
302.881	61.1
303.095	67.24
303.309	104.11
303.524	65.19
303.738	114.34
303.952	54.95
304.166	-26.96
304.381	-31.06
304.595	75.43
304.809	54.95
305.023	32.43
305.237	63.15
305.452	-47.44
305.666	13.99
305.88	102.06
306.094	75.43
306.308	93.87
306.522	1.71
306.736	67.24
306.95	102.06
307.164	50.86
307.379	-24.92
307.593	83.63
307.807	104.11
308.021	97.96
308.235	65.19
308.449	-2.39
308.663	34.47
308.877	104.11
309.091	48.81
309.305	93.87
309.519	26.28
309.733	61.1
309.947	-6.49
310.161	59.05
310.374	118.44
310.588	124.58
310.802	32.43
311.016	7.85
311.23	34.47
311.444	-26.96
311.658	48.81
311.872	42.67
312.085	48.81
312.299	50.86
312.513	77.48
312.727	71.34
312.941	-0.34
313.154	77.48
313.368	54.95
313.582	46.76
313.796	67.24
314.009	20.14
314.223	81.58
314.437	40.62
314.651	83.63
314.864	50.86
315.078	63.15
315.292	50.86
315.505	-57.68
315.719	26.28
315.933	42.67
316.146	9.9
316.36	65.19
316.573	100.01
316.787	54.95
317.001	18.09
317.214	71.34
317.428	59.05
317.641	18.09
317.855	71.34
318.068	30.38
318.282	-22.87
318.495	132.78
318.709	26.28
318.922	36.52
319.136	95.91
319.349	91.82
319.563	-10.58
319.776	54.95
319.99	13.99
320.203	73.39
320.417	61.1
320.63	120.49
320.843	59.05
321.057	44.71
321.27	124.58
321.483	65.19
321.697	50.86
321.91	87.72
322.124	44.71
322.337	38.57
322.55	9.9
322.763	9.9
322.977	65.19
323.19	-37.2
323.403	36.52
323.617	46.76
323.83	91.82
324.043	18.09
324.256	77.48
324.469	26.28
324.683	132.78
324.896	34.47
325.109	100.01
325.322	-33.11
325.535	-41.3
325.748	59.05
325.962	32.43
326.175	9.9
326.388	106.15
326.601	71.34
326.814	97.96
327.027	18.09
327.24	71.34
327.453	7.85
327.666	40.62
327.879	59.05
328.092	91.82
328.305	67.24
328.518	7.85
328.731	46.76
328.944	13.99
329.157	59.05
329.37	34.47
329.583	59.05
329.796	9.9
330.009	18.09
330.222	130.73
330.435	-18.77
330.648	75.43
330.861	59.05
331.073	100.01
331.286	89.77
331.499	38.57
331.712	48.81
331.925	54.95
332.138	89.77
332.35	81.58
332.563	-14.68
332.776	34.47
332.989	38.57
333.202	69.29
333.414	7.85
333.627	52.91
333.84	38.57
334.053	-18.77
334.265	34.47
334.478	83.63
334.691	7.85
334.903	44.71
335.116	-16.73
335.329	122.54
335.541	57
335.754	38.57
335.966	48.81
336.179	18.09
336.392	26.28
336.604	79.53
336.817	59.05
337.029	18.09
337.242	32.43
337.454	34.47
337.667	22.19
337.88	40.62
338.092	24.23
338.305	79.53
338.517	18.09
338.729	97.96
338.942	95.91
339.154	-37.2
339.367	-31.06
339.579	50.86
339.792	22.19
340.004	3.75
340.217	83.63
340.429	75.43
340.641	7.85
340.854	32.43
341.066	69.29
341.278	97.96
341.491	83.63
341.703	18.09
341.915	-41.3
342.128	95.91
342.34	61.1
342.552	-31.06
342.764	40.62
342.977	40.62
343.189	132.78
343.401	79.53
343.613	71.34
343.826	50.86
344.038	42.67
344.25	110.25
344.462	26.28
344.674	5.8
344.886	9.9
345.099	18.09
345.311	48.81
345.523	30.38
345.735	-16.73
345.947	30.38
346.159	83.63
346.371	-16.73
346.583	-18.77
346.795	112.3
347.007	-14.68
347.219	81.58
347.431	-0.34
347.643	83.63
347.855	18.09
348.067	100.01
348.279	-80.21
348.491	24.23
348.703	-4.44
348.915	16.04
349.127	-39.25
349.339	32.43
349.551	-55.64
349.763	38.57
349.975	59.05
350.187	104.11
350.399	18.09
350.61	40.62
350.822	52.91
351.034	57
351.246	63.15
351.458	85.67
351.669	61.1
351.881	67.24
352.093	42.67
352.305	34.47
352.517	-20.82
352.728	116.39
352.94	73.39
353.152	50.86
353.363	81.58
353.575	30.38
353.787	7.85
353.999	67.24
354.21	114.34
354.422	67.24
354.633	108.2
354.845	73.39
355.057	83.63
355.268	38.57
355.48	65.19
355.692	42.67
355.903	40.62
356.115	67.24
356.326	26.28
356.538	87.72
356.749	54.95
356.961	104.11
357.172	-39.25
357.384	-26.96
357.595	34.47
357.807	34.47
358.018	-12.63
358.23	7.85
358.441	97.96
358.653	93.87
358.864	24.23
359.075	42.67
359.287	59.05
359.498	32.43
359.709	-6.49
359.921	63.15
360.132	134.82
360.344	108.2
360.555	38.57
360.766	34.47
360.977	63.15
361.189	69.29
361.4	50.86
361.611	128.68
361.823	65.19
362.034	44.71
362.245	-55.64
362.456	61.1
362.667	100.01
362.879	100.01
363.09	36.52
363.301	34.47
363.512	59.05
363.723	5.8
363.935	32.43
364.146	63.15
364.357	-12.63
364.568	34.47
364.779	38.57
364.99	83.63
365.201	69.29
365.412	48.81
365.623	1.71
365.834	24.23
366.045	-14.68
366.256	28.33
366.467	100.01
366.678	77.48
366.889	50.86
367.1	65.19
367.311	104.11
367.522	9.9
367.733	100.01
367.944	93.87
368.155	38.57
368.366	1.71
368.577	112.3
368.788	24.23
368.999	63.15
369.209	46.76
369.42	108.2
369.631	54.95
369.842	106.15
370.053	69.29
370.264	85.67
370.474	1.71
370.685	67.24
370.896	48.81
371.107	42.67
371.317	52.91
371.528	59.05
371.739	44.71
371.95	112.3
372.16	73.39
372.371	16.04
372.582	18.09
372.792	63.15
373.003	22.19
373.214	63.15
373.424	81.58
373.635	50.86
373.846	116.39
374.056	71.34
374.267	22.19
374.477	44.71
374.688	-0.34
374.898	57
375.109	122.54
375.319	38.57
375.53	124.58
375.74	36.52
375.951	30.38
376.161	85.67
376.372	63.15
376.582	3.75
376.793	83.63
377.003	67.24
377.214	-39.25
377.424	50.86
377.635	97.96
377.845	63.15
378.055	11.95
378.266	22.19
378.476	71.34
378.686	59.05
378.897	28.33
379.107	81.58
379.317	34.47
379.528	34.47
379.738	93.87
379.948	3.75
380.158	81.58
380.369	54.95
380.579	128.68
380.789	-35.16
380.999	52.91
381.21	11.95
381.42	165.54
381.63	-31.06
381.84	114.34
382.05	97.96
382.261	118.44
382.471	157.35
382.681	5.8
382.891	124.58
383.101	18.09
383.311	13.99
383.521	65.19
383.731	54.95
383.941	83.63
384.151	69.29
384.361	116.39
384.571	32.43
384.781	75.43
384.991	104.11
385.201	132.78
385.411	67.24
385.621	30.38
385.831	26.28
386.041	50.86
386.251	67.24
386.461	59.05
386.671	26.28
386.881	95.91
387.091	50.86
387.301	34.47
387.511	75.43
387.72	24.23
387.93	34.47
388.14	-2.39
388.35	75.43
388.56	91.82
388.769	140.97
388.979	46.76
389.189	42.67
389.399	73.39
389.609	122.54
389.818	7.85
390.028	67.24
390.238	73.39
390.447	81.58
390.657	138.92
390.867	-26.96
391.076	18.09
391.286	91.82
391.496	46.76
391.705	75.43
391.915	30.38
392.125	106.15
392.334	40.62
392.544	151.21
392.753	97.96
392.963	18.09
393.172	69.29
393.382	42.67
393.591	91.82
393.801	81.58
394.01	132.78
394.22	73.39
394.429	26.28
394.639	1.71
394.848	112.3
395.058	130.73
395.267	65.19
395.477	75.43
395.686	75.43
395.895	104.11
396.105	71.34
396.314	134.82
396.524	114.34
396.733	-4.44
396.942	91.82
397.152	108.2
397.361	91.82
397.57	42.67
397.78	126.63
397.989	108.2
398.198	118.44
398.407	116.39
398.617	132.78
398.826	26.28
399.035	65.19
399.244	116.39
399.453	100.01
399.663	102.06
399.872	165.54
400.081	85.67
400.29	106.15
400.499	26.28
400.708	67.24
400.917	79.53
401.127	153.26
401.336	108.2
401.545	200.36
401.754	116.39
401.963	89.77
402.172	120.49
402.381	89.77
402.59	114.34
402.799	83.63
403.008	188.07
403.217	165.54
403.426	143.02
403.635	132.78
403.844	130.73
404.053	130.73
404.262	147.11
404.471	188.07
404.68	83.63
404.888	136.87
405.097	124.58
405.306	130.73
405.515	163.5
405.724	155.3
405.933	198.31
406.142	153.26
406.35	149.16
406.559	153.26
406.768	126.63
406.977	247.46
407.185	186.02
407.394	206.5
407.603	124.58
407.812	163.5
408.02	181.93
408.229	280.23
408.438	208.55
408.646	196.26
408.855	190.12
409.064	210.6
409.272	245.41
409.481	278.18
409.69	231.08
409.898	204.46
410.107	251.56
410.315	222.89
410.524	202.41
410.733	288.42
410.941	282.28
411.15	323.24
411.358	300.71
411.567	345.77
411.775	380.58
411.984	304.81
412.192	368.29
412.401	313
412.609	358.05
412.818	480.93
413.026	399.01
413.234	343.72
413.443	399.01
413.651	423.59
413.86	464.55
414.068	460.45
414.276	589.47
414.485	425.64
414.693	581.28
414.901	503.46
415.11	505.51
415.318	511.65
415.526	591.52
415.734	620.19
415.943	655.01
416.151	702.11
416.359	644.77
416.567	673.44
416.776	743.07
416.984	714.4
417.192	730.78
417.4	843.42
417.608	714.4
417.817	853.66
418.025	908.96
418.233	939.68
418.441	796.32
418.649	986.78
418.857	992.92
419.065	917.15
419.273	992.92
419.481	1097.37
419.689	1136.28
419.897	1232.54
420.105	1132.19
420.313	1181.34
420.521	1220.25
420.729	1189.53
420.937	1257.11
421.145	1359.51
421.353	1390.23
421.561	1433.24
421.769	1539.73
421.977	1648.27
422.185	1574.55
422.393	1619.6
422.601	1646.23
422.809	1670.8
423.017	1754.77
423.224	1801.87
423.432	1980.04
423.64	2012.81
423.848	2049.68
424.056	2023.05
424.263	2236.04
424.471	2221.7
424.679	2317.96
424.887	2277
425.094	2371.21
425.302	2487.94
425.51	2496.13
425.718	2612.87
425.925	2647.68
426.133	2713.22
426.341	2875.01
426.548	3012.22
426.756	2897.53
426.964	3024.51
427.171	3223.16
427.379	3298.94
427.586	3333.75
427.794	3550.84
428.001	3571.32
428.209	3683.95
428.417	3673.71
428.624	3925.61
428.832	3937.9
429.039	3909.23
429.247	3812.98
429.454	4261.48
429.662	4671.08
429.869	4202.09
430.076	4695.65
430.284	4361.83
430.491	4580.96
430.699	4832.86
430.906	4882.02
431.114	5047.9
431.321	5277.27
431.528	5275.23
431.736	5559.89
431.943	5873.23
432.15	5457.5
432.358	5889.62
432.565	6184.52
432.772	6045.26
432.979	6325.83
433.187	6483.53
433.394	6383.18
433.601	6966.85
433.808	6891.07
434.016	6938.18
434.223	7274.04
434.43	7495.22
434.637	7593.53
434.844	7853.62
435.052	7956.02
435.259	7886.39
435.466	7999.02
435.673	7992.88
435.88	8545.83
436.087	8982.05
436.294	9121.31
436.501	8713.77
436.708	9010.72
436.915	9274.91
437.122	9590.3
437.329	9719.32
437.537	9858.58
437.743	10247.69
437.95	10069.52
438.157	10536.46
438.364	10884.61
438.571	10870.28
438.778	10952.2
438.985	11935.22
439.192	11515.39
439.399	11871.73
439.606	11599.35
439.813	12520.94
440.02	13010.4
440.227	12619.24
440.433	12760.55
440.64	13022.69
440.847	13129.19
441.054	13129.19
441.261	14179.79
441.467	13999.57
441.674	14280.14
441.881	14732.75
442.088	14779.85
442.294	14654.92
442.501	15193.54
442.708	15175.11
442.914	16065.97
443.121	16547.25
443.328	16166.32
443.534	17321.38
443.741	16737.71
443.948	16635.31
444.154	18023.83
444.361	17573.28
444.568	17978.78
444.774	18048.41
444.981	17956.25
445.187	18705.81
445.394	19250.56
445.6	18992.52
445.807	20899.18
446.013	19754.37
446.22	20493.68
446.426	21290.34
446.633	21437.8
446.839	21941.6
447.046	21343.59
447.252	22316.37
447.459	22461.78
447.665	22314.33
447.871	23266.63
448.078	24194.36
448.284	23348.55
448.491	23655.75
448.697	24692.02
448.903	25224.49
449.11	25292.07
449.316	25058.6
449.522	25244.97
449.728	26178.84
449.935	26383.64
450.141	26045.73
450.347	26869.01
450.553	25515.3
450.76	26354.97
450.966	26944.78
451.172	26729.75
451.378	27370.76
451.584	26844.43
451.791	27553.03
451.997	27426.06
452.203	27647.24
452.409	27837.7
452.615	27733.25
452.821	26653.97
453.027	26246.43
453.233	27849.99
453.44	26813.71
453.646	26723.6
453.852	27325.71
454.058	27362.57
454.264	26629.4
454.47	27491.59
454.676	26408.22
454.882	27438.34
455.088	25064.75
455.294	25367.85
455.5	25767.2
455.705	25986.33
455.911	24839.47
456.117	24583.48
456.323	24057.15
456.529	22758.74
456.735	23940.41
456.941	23217.48
457.147	22709.58
457.352	22066.52
457.558	21767.52
457.764	21851.49
457.97	21476.71
458.176	21065.07
458.381	20841.84
458.587	19840.38
458.793	19836.28
458.999	18670.99
459.204	20153.72
459.41	19529.09
459.616	18480.53
459.821	18566.54
460.027	18412.95
460.233	17630.62
460.438	17153.44
460.644	17210.79
460.85	16598.45
461.055	16289.2
461.261	16309.68
461.466	14779.85
461.672	14632.4
461.878	15398.34
462.083	14548.43
462.289	14147.03
462.494	13960.66
462.7	13514.2
462.905	13020.64
463.111	13544.92
463.316	13731.29
463.522	13307.36
463.727	13364.7
463.932	13192.67
464.138	13018.6
464.343	13315.55
464.549	12707.3
464.754	12994.02
464.959	13268.45
465.165	12983.78
465.37	12471.79
465.575	12125.68
465.781	12697.06
465.986	12707.3
466.191	12203.5
466.397	12039.67
466.602	11472.38
466.807	11904.5
467.012	11822.58
467.218	11707.9
467.423	11562.49
467.628	11585.02
467.833	12271.09
468.038	11658.74
468.244	11486.72
468.449	11742.71
468.654	11468.28
468.859	11347.45
469.064	11257.34
469.269	10778.12
469.474	10962.44
469.679	11392.51
469.885	10888.71
470.09	10946.05
470.295	10880.52
470.5	10700.3
470.705	10620.42
470.91	10438.16
471.115	10366.48
471.32	10749.45
471.525	10462.73
471.73	10171.92
471.935	9971.22
472.139	9770.52
472.344	9838.1
472.549	10003.99
472.754	9614.87
472.959	9453.08
473.164	9334.3
473.369	9352.73
473.574	9410.08
473.778	9678.36
473.983	9420.31
474.188	9201.18
474.393	9147.94
474.598	8930.85
474.802	8955.43
475.007	8902.18
475.212	8713.77
475.417	8547.88
475.621	8412.71
475.826	8451.63
476.031	8539.69
476.235	8046.13
476.44	8390.19
476.645	8236.59
476.849	8191.53
477.054	8134.19
477.259	7837.24
477.463	8025.65
477.668	7753.27
477.872	7804.47
478.077	7564.86
478.282	7589.43
478.486	7507.51
478.691	7484.98
478.895	7251.52
479.1	7306.81
479.304	7439.93
479.509	7245.37
479.713	7226.94
479.918	7063.1
480.122	7169.6
480.326	7149.12
480.531	6927.94
480.735	7040.58
480.94	6895.17
481.144	7018.05
481.348	6954.56
481.553	7005.76
481.757	6684.23
481.961	6800.96
482.166	6917.7
482.37	6798.91
482.574	6688.32
482.778	6968.9
482.983	6942.27
483.187	6901.31
483.391	6911.55
483.595	6813.25
483.8	6749.76
484.004	6809.15
484.208	6997.57
484.412	6774.34
484.616	6940.22
484.821	6700.61
485.025	6639.17
485.229	6995.52
485.433	6661.7
485.637	6792.77
485.841	6757.96
486.045	6659.65
486.249	6774.34
486.453	6780.48
486.657	6747.72
486.861	6970.94
487.065	6641.22
487.269	6798.91
487.473	6604.36
487.677	6921.79
487.881	6915.65
488.085	6827.59
488.289	7042.62
488.493	6782.53
488.697	6893.12
488.901	6901.31
489.105	7050.82
489.309	6762.05
489.512	7022.14
489.716	6903.36
489.92	6868.55
490.124	6921.79
490.328	6981.18
490.531	6927.94
490.735	7194.17
490.939	7087.68
491.143	7050.82
491.346	7003.71
491.55	7063.1
491.754	7093.82
491.958	7087.68
492.161	7145.02
492.365	7071.29
492.569	7190.08
492.772	7235.13
492.976	7349.82
493.18	7329.34
493.383	7427.64
493.587	7390.78
493.79	7409.21
493.994	7411.26
494.197	7511.61
494.401	7595.57
494.605	7521.85
494.808	7714.36
495.012	7470.65
495.215	7624.25
495.419	7992.88
495.622	7849.52
495.825	7906.87
496.029	7734.84
496.232	8138.29
496.436	8062.51
496.639	8193.58
496.843	8234.54
497.046	8345.13
497.249	8345.13
497.453	8660.52
497.656	8592.94
497.859	8691.24
498.063	8787.49
498.266	9055.78
498.469	8865.32
498.673	9098.78
498.876	9180.7
499.079	9061.92
499.282	9149.98
499.485	9436.7
499.689	9555.48
499.892	9485.85
500.095	9772.57
500.298	9989.65
500.501	9627.16
500.705	10044.95
500.908	10120.72
501.111	10221.07
501.314	10468.87
501.517	10337.8
501.72	10606.09
501.923	10653.19
502.126	10888.71
502.329	10872.32
502.532	10937.86
502.735	11222.53
502.938	11294.21
503.141	11310.59
503.344	11515.39
503.547	11632.12
503.75	11838.97
503.953	11935.22
504.156	12039.67
504.359	12094.96
504.562	12346.86
504.765	12580.33
504.968	12598.76
505.17	12938.73
505.373	12951.01
505.576	13143.52
505.779	13161.95
505.982	13075.94
506.185	13678.04
506.387	13428.19
506.59	13661.66
506.793	14009.81
506.996	13878.74
507.198	14400.97
507.401	14304.72
507.604	14544.33
507.807	14865.86
508.009	15238.59
508.212	14951.88
508.415	15066.56
508.617	15283.65
508.82	15275.46
509.022	15517.12
509.225	16082.36
509.428	15969.72
509.63	16205.24
509.833	16278.96
510.035	16668.08
510.238	16618.93
510.44	16678.32
510.643	16895.4
510.845	17317.28
511.048	17114.53
511.25	17610.14
511.453	17780.12
511.655	18064.79
511.858	18072.98
512.06	18253.2
512.262	18519.44
512.465	18544.02
512.667	18826.64
512.87	18916.75
513.072	19365.25
513.274	19563.9
513.477	19654.01
513.679	20039.03
513.881	20063.61
514.084	20514.16
514.286	20569.46
514.488	20708.72
514.69	21026.15
514.893	21167.46
515.095	21497.19
515.297	21597.54
515.499	21751.13
515.701	22205.78
515.904	22664.53
516.106	22533.46
516.308	23010.64
516.51	23078.22
516.712	23219.53
516.914	23301.45
517.116	23954.75
517.318	24001.85
517.52	24452.41
517.722	24196.41
517.925	24747.31
518.127	24988.97
518.329	25494.82
518.531	25161
518.733	25634.08
518.935	26101.02
519.136	26150.17
519.338	26858.77
519.54	26883.34
519.742	26977.55
519.944	27344.14
520.146	27704.58
520.348	28349.69
520.55	28417.27
520.752	28388.6
520.954	29035.76
521.155	28654.84
521.357	29437.16
521.559	29981.92
521.761	30543.06
521.963	29922.53
522.164	30485.72
522.366	31050.96
522.568	30852.31
522.77	31530.19
522.971	31749.32
523.173	31677.64
523.375	32292.03
523.576	32132.29
523.778	32181.44
523.98	33412.27
524.181	33270.96
524.383	33158.32
524.584	33864.87
524.786	34086.05
524.988	34079.91
525.189	34303.14
525.391	34778.26
525.592	34417.82
525.794	35404.94
525.995	35478.67
526.197	35499.15
526.398	35910.79
526.6	36074.63
526.801	36099.2
527.003	36273.28
527.204	36596.86
527.406	37397.62
527.607	37170.29
527.808	37383.28
528.01	36834.42
528.211	37393.52
528.412	37934.18
528.614	38157.41
528.815	38136.93
529.016	38528.09
529.218	38302.82
529.419	38607.97
529.62	38708.32
529.822	38644.83
530.023	39160.92
530.224	39097.43
530.425	39132.25
530.626	38906.97
530.828	39259.22
531.029	40031.3
531.23	39875.66
531.431	40109.13
531.632	39791.69
531.833	40381.51
532.035	40047.69
532.236	40352.83
532.437	40553.54
532.638	40315.97
532.839	40795.2
533.04	41143.35
533.241	40789.05
533.442	41495.6
533.643	41004.09
533.844	41057.34
534.045	41210.93
534.246	41036.86
534.447	41344.05
534.648	41212.98
534.849	41372.72
535.05	41270.32
535.251	41188.41
535.451	41522.23
535.652	42052.65
535.853	41598
536.054	41684.01
536.255	42099.75
536.456	41401.39
536.657	42226.73
536.857	41452.59
537.058	41448.5
537.259	41956.39
537.46	42331.17
537.66	41806.89
537.861	42603.55
538.062	42095.66
538.263	42394.66
538.463	42191.91
538.664	42230.82
538.865	42175.53
539.065	42587.17
539.266	42079.27
539.466	42638.37
539.667	42169.38
539.868	42697.76
540.068	42019.88
540.269	42052.65
540.469	42421.28
540.67	42214.44
540.87	42044.46
541.071	42161.19
541.271	42654.75
541.472	42544.16
541.672	42155.05
541.873	42144.81
542.073	41634.86
542.274	42421.28
542.474	42576.93
542.675	41884.72
542.875	42300.45
543.075	41972.78
543.276	41843.76
543.476	42634.27
543.676	42081.32
543.877	42615.84
544.077	42265.64
544.277	42095.66
544.478	42363.94
544.678	42882.08
544.878	42259.49
545.078	42464.29
545.279	42269.73
545.479	42103.85
545.679	42460.19
545.879	42456.1
546.079	42251.3
546.28	42484.77
546.48	41782.32
546.68	42257.45
546.88	42609.7
547.08	42275.88
547.28	42146.86
547.48	42058.79
547.68	42531.87
547.88	41530.42
548.081	42511.39
548.281	42359.84
548.481	41849.9
548.681	42675.23
548.881	42320.93
549.081	42234.92
549.28	42021.93
549.48	42626.08
549.68	42163.24
549.88	42871.84
550.08	42200.1
550.28	41825.32
550.48	42345.51
550.68	42611.74
550.88	42142.76
551.08	42357.8
551.279	42331.17
551.479	42005.55
551.679	42517.54
551.879	42347.56
552.079	42339.36
552.278	41757.74
552.478	41880.62
552.678	42181.67
552.878	42216.49
553.077	41978.92
553.277	41464.88
553.477	42071.08
553.676	41657.39
553.876	41810.99
554.076	41624.62
554.275	41823.28
554.475	41165.88
554.674	41903.15
554.874	41520.18
555.074	41493.55
555.273	41966.63
555.473	41630.77
555.672	41368.63
555.872	41307.19
556.071	41270.32
556.271	41440.31
556.47	40954.94
556.67	40979.51
556.869	40975.42
557.068	41004.09
557.268	40610.88
557.467	41045.05
557.667	40760.38
557.866	41002.04
558.065	40463.43
558.265	40459.33
558.464	40297.54
558.663	40619.07
558.863	39902.28
559.062	40481.86
559.261	39869.51
559.461	40645.69
559.66	39382.1
559.859	39726.16
560.058	39498.83
560.258	39738.44
560.457	39119.96
560.656	39375.95
560.855	39418.96
561.054	39410.77
561.253	38884.44
561.453	38995.03
561.652	39058.52
561.851	39369.81
562.05	38669.4
562.249	38476.9
562.448	38861.91
562.647	38679.64
562.846	38569.05
563.045	38491.23
563.244	38112.36
563.443	38327.39
563.642	37809.26
563.841	37571.69
564.04	37500.01
564.239	37899.37
564.438	37457.01
564.637	37887.08
564.836	37583.98
565.035	36981.88
565.234	36920.44
565.432	36736.12
565.631	36768.89
565.83	36746.36
566.029	36627.58
566.228	36260.99
566.427	36414.59
566.625	35619.98
566.824	35769.48
567.023	35832.97
567.222	35556.49
567.42	35859.59
567.619	35406.99
567.818	35243.15
568.016	35132.56
568.215	35171.47
568.414	34997.4
568.612	34641.05
568.811	34667.67
569.01	34469.02
569.208	34438.3
569.407	34450.59
569.605	33780.9
569.804	34163.87
570.002	33815.72
570.201	33954.98
570.4	33496.24
570.598	33180.85
570.797	33057.97
570.995	33062.07
571.193	32588.99
571.392	33324.21
571.59	32615.61
571.789	32578.75
571.987	32271.55
572.186	32470.2
572.384	31823.05
572.582	31718.6
572.781	32097.47
572.979	31335.63
573.177	31370.44
573.376	31898.82
573.574	31380.68
573.772	31638.73
573.971	30772.44
574.169	30833.88
574.367	30768.34
574.565	30954.71
574.763	30717.14
574.962	30739.67
575.16	29912.29
575.358	30022.88
575.556	29938.91
575.754	30301.4
575.952	29603.05
576.151	30252.25
576.349	29547.75
576.547	29576.42
576.745	29537.51
576.943	29132.01
577.141	29037.81
577.339	29269.23
577.537	28919.03
577.735	29029.62
577.933	28515.58
578.131	28640.5
578.329	28339.45
578.527	28275.96
578.725	28544.25
578.923	28335.35
579.121	28232.96
579.319	27673.86
579.516	27987.2
579.714	27921.66
579.912	27813.12
580.11	27616.52
580.308	27802.88
580.506	27544.84
580.704	26815.76
580.901	27168.01
581.099	27387.14
581.297	26938.64
581.495	26903.82
581.692	26733.84
581.89	26756.37
582.088	26914.06
582.285	26801.43
582.483	26703.12
582.681	26594.58
582.878	25961.76
583.076	25998.62
583.274	26438.94
583.471	25937.18
583.669	25885.98
583.866	25695.52
584.064	25685.28
584.262	25240.87
584.459	25740.58
584.657	25464.1
584.854	25603.36
585.052	24986.93
585.249	25457.96
585.447	25505.06
585.644	24964.4
585.841	24857.9
586.039	25220.39
586.236	24702.26
586.434	24634.67
586.631	24608.05
586.828	24399.16
587.026	24487.22
587.223	24425.78
587.42	23917.89
587.618	24141.11
587.815	24161.59
588.012	23874.88
588.21	23694.66
588.407	23932.22
588.604	23784.77
588.801	23817.54
588.999	23512.39
589.196	23694.66
589.393	23573.83
589.59	23348.55
589.787	22975.82
589.984	23270.73
590.182	23203.14
590.379	23278.92
590.576	22738.26
590.773	22959.44
590.97	22795.6
591.167	22865.23
591.364	22482.26
591.561	22607.19
591.758	22312.28
591.955	22377.81
592.152	22603.09
592.349	22037.85
592.546	22304.09
592.743	22197.59
592.94	21957.98
593.137	22218.07
593.334	21974.36
593.531	21728.61
593.727	21794.14
593.924	21796.19
594.121	21460.32
594.318	21685.6
594.515	21368.16
594.712	21542.24
594.908	21222.76
595.105	21001.58
595.302	21056.87
595.499	21020.01
595.696	21017.96
595.892	20884.84
596.089	20960.62
596.286	21048.68
596.482	21052.78
596.679	20667.76
596.876	20669.81
597.072	20698.48
597.269	20491.63
597.466	20514.16
597.662	20309.36
597.859	20288.89
598.055	20319.6
598.252	20229.49
598.448	20286.84
598.645	19993.98
598.841	19877.24
599.038	20051.32
599.234	20059.51
599.431	19512.7
599.627	19729.79
599.824	19764.61
600.02	19492.23
600.217	19594.62
600.413	19363.2
600.609	19215.75
600.806	19305.86
601.002	19348.87
601.198	19191.17
601.395	18949.51
601.591	19139.97
601.787	18869.64
601.984	18806.16
602.18	19062.15
602.376	18795.92
602.572	18660.75
602.769	18537.87
602.965	18384.27
603.161	18726.28
603.357	18546.06
603.553	18277.78
603.75	18345.36
603.946	18304.4
604.142	18400.66
604.338	18173.33
604.534	18079.13
604.73	17698.2
604.926	17874.33
605.122	18099.61
605.318	17851.8
605.514	17786.27
605.71	17753.5
605.906	17677.72
606.102	17522.08
606.298	17626.53
606.494	17339.81
606.69	17534.37
606.886	17517.98
607.082	17337.76
607.278	17348
607.474	17061.29
607.67	17241.51
607.866	16924.07
608.062	16971.18
608.257	17128.87
608.453	17132.97
608.649	16688.56
608.845	16907.69
609.041	16780.71
609.236	16858.54
609.432	16575.92
609.628	16512.43
609.824	16616.88
610.019	16475.57
610.215	16565.68
610.411	16606.64
610.606	16321.97
610.802	16434.61
610.998	16461.23
611.193	16407.98
611.389	16057.78
611.584	16158.13
611.78	16068.02
611.976	16158.13
612.171	16137.65
612.367	15967.67
612.562	15861.18
612.758	15527.36
612.953	15799.74
613.149	15490.49
613.344	15676.86
613.539	15865.27
613.735	15785.4
613.93	15730.11
614.126	15715.77
614.321	15699.39
614.517	15490.49
614.712	15502.78
614.907	15347.14
615.103	15484.35
615.298	15230.4
615.493	15510.97
615.688	15041.99
615.884	15693.24
616.079	15269.31
616.274	15279.55
616.47	15072.71
616.665	14939.59
616.86	15054.28
617.055	14966.21
617.25	15003.08
617.445	14972.36
617.641	14861.77
617.836	15050.18
618.031	14587.34
618.226	14636.49
618.421	14362.06
618.616	14648.78
618.811	14329.3
619.006	14589.39
619.201	14151.12
619.396	14335.44
619.591	14147.03
619.786	14274
619.981	13993.43
620.176	14140.88
620.371	14026.2
620.566	14058.96
620.761	13923.8
620.956	14044.63
621.151	13852.12
621.346	13661.66
621.541	13555.16
621.735	13854.17
621.93	13436.38
622.125	13778.39
622.32	13293.02
622.515	13538.78
622.709	13245.92
622.904	13178.34
623.099	13239.78
623.294	12969.44
623.488	12883.43
623.683	13059.56
623.878	12772.84
624.072	12727.78
624.267	12686.83
624.462	12793.32
624.656	12461.55
624.851	12629.48
625.046	12434.92
625.24	12420.59
625.435	12166.64
625.629	12383.73
625.824	12342.77
626.018	12166.64
626.213	11877.88
626.407	12180.98
626.602	12062.19
626.796	11742.71
626.991	11595.26
627.185	11664.89
627.38	11623.93
627.574	11587.07
627.768	11527.67
627.963	11527.67
628.157	11294.21
628.352	11277.82
628.546	11075.07
628.74	11101.7
628.935	11144.7
629.129	10952.2
629.323	10956.29
629.517	10970.63
629.712	10950.15
629.906	10948.1
630.1	10771.97
630.294	10769.93
630.489	10581.51
630.683	10518.03
630.877	10534.41
631.071	10245.65
631.265	10575.37
631.459	10343.95
631.653	10323.47
631.848	10302.99
632.042	10171.92
632.236	10389
632.43	10038.8
632.624	10176.02
632.818	10276.37
633.012	9807.38
633.206	9866.77
633.4	9872.92
633.594	9870.87
633.788	9672.22
633.982	9793.05
634.176	9725.46
634.369	9422.36
634.563	9389.6
634.757	9506.33
634.951	9532.95
635.145	9575.96
635.339	9471.51
635.533	9348.64
635.726	9113.12
635.92	8953.38
636.114	9149.98
636.308	9055.78
636.501	9072.16
636.695	8992.29
636.889	8752.68
637.083	8891.94
637.276	8754.73
637.47	8533.54
637.664	8969.76
637.857	8654.37
638.051	8715.81
638.244	8390.19
638.438	8676.9
638.632	8635.94
638.825	8398.38
639.019	8359.47
639.212	8156.72
639.406	8197.68
639.599	8300.08
639.793	8234.54
639.986	8107.57
640.18	8160.81
640.373	7992.88
640.567	8117.81
640.76	8021.55
640.954	7841.33
641.147	7890.48
641.34	7732.79
641.534	7837.24
641.727	7652.92
641.92	7654.97
642.114	7749.17
642.307	7743.03
642.5	7530.04
642.694	7398.97
642.887	7530.04
643.08	7503.42
643.273	7566.9
643.467	7190.08
643.66	7249.47
643.853	7259.71
644.046	7120.45
644.239	7210.56
644.432	7071.29
644.626	7095.87
644.819	7087.68
645.012	7065.15
645.205	7044.67
645.398	7013.95
645.591	6962.75
645.784	6823.49
645.977	6676.04
646.17	6708.8
646.363	6706.76
646.556	6647.37
646.749	6551.11
646.942	6645.32
647.135	6630.98
647.328	6579.78
647.521	6600.26
647.714	6461
647.907	6452.81
648.099	6432.33
648.292	6473.29
648.485	6219.34
648.678	6121.04
648.871	6205
649.064	6209.1
649.256	6129.23
649.449	6215.24
649.642	6225.48
649.835	5856.85
650.027	6092.37
650.22	6071.89
650.413	6096.46
650.605	5889.62
650.798	5875.28
650.991	5899.86
651.183	5977.68
651.376	5797.46
651.568	5895.76
651.761	5774.93
651.954	5809.75
652.146	5709.4
652.339	5709.4
652.531	5738.07
652.724	5684.82
652.916	5576.28
653.109	5576.28
653.301	5629.52
653.494	5518.93
653.686	5545.56
653.879	5555.8
654.071	5340.76
654.263	5563.99
654.456	5316.19
654.648	5490.26
654.84	5359.19
655.033	5305.95
655.225	5504.6
655.417	5219.93
655.61	5185.12
655.802	5336.67
655.994	5291.61
656.186	5183.07
656.379	5008.99
656.571	5111.39
656.763	4998.75
656.955	5072.48
657.148	4986.46
657.34	5052
657.532	5000.8
657.724	4941.41
657.916	4931.17
658.108	4933.22
658.3	4867.68
658.492	4894.3
658.684	4867.68
658.876	4791.91
659.068	4867.68
659.26	4814.43
659.452	4851.3
659.644	4808.29
659.836	4712.03
660.028	4761.19
660.22	4562.53
660.412	4601.44
660.604	4619.88
660.796	4560.49
660.988	4650.6
661.18	4597.35
661.372	4611.68
661.563	4638.31
661.755	4497
661.947	4525.67
662.139	4449.89
662.331	4441.7
662.522	4417.13
662.714	4435.56
662.906	4318.82
663.097	4503.14
663.289	4456.04
663.481	4415.08
663.673	4431.46
663.864	4425.32
664.056	4200.04
664.247	4224.62
664.439	4304.49
664.631	4419.18
664.822	4337.26
665.014	4253.29
665.205	4216.43
665.397	4193.9
665.588	4468.33
665.78	4314.73
665.971	4136.56
666.163	4267.63
666.354	4249.19
666.546	4259.43
666.737	4216.43
666.929	4302.44
667.12	4171.37
667.311	4200.04
667.503	4208.23
667.694	4202.09
667.885	4128.36
668.077	4077.16
668.268	4034.16
668.459	4134.51
668.651	4042.35
668.842	4028.01
669.033	4066.92
669.224	4064.88
669.416	4302.44
669.607	4048.49
669.798	4028.01
669.989	4245.1
670.18	4032.11
670.371	4081.26
670.563	4185.71
670.754	4095.6
670.945	4075.12
671.136	4103.79
671.327	3987.05
671.518	4025.97
671.709	3995.25
671.9	4034.16
672.091	4077.16
672.282	4015.73
672.473	4101.74
672.664	4038.25
672.855	4126.32
673.046	4261.48
673.237	4238.95
673.428	4066.92
673.619	4202.09
673.809	4089.45
674	4339.3
674.191	3985.01
674.382	4097.64
674.573	4081.26
674.764	4228.71
674.954	4058.73
675.145	4081.26
675.336	4013.68
675.527	4015.73
675.717	4271.72
675.908	4087.4
676.099	4179.56
676.289	4179.56
676.48	4169.32
676.671	4195.95
676.861	4159.08
677.052	4179.56
677.243	4206.19
677.433	4308.58
677.624	4294.25
677.814	4312.68
678.005	4259.43
678.195	4341.35
678.386	4322.92
678.576	4337.26
678.767	4341.35
678.957	4286.06
679.148	4441.7
679.338	4482.66
679.529	4415.08
679.719	4435.56
679.909	4533.86
680.1	4453.99
680.29	4617.83
680.481	4421.22
680.671	4531.81
680.861	4669.03
681.052	4417.13
681.242	4445.8
681.432	4615.78
681.622	4589.16
681.813	4603.49
682.003	4576.87
682.193	4679.27
682.383	4564.58
682.573	4689.51
682.764	4740.71
682.954	4628.07
683.144	4632.16
683.334	4669.03
683.524	4716.13
683.714	4759.14
683.904	4785.76
684.094	4777.57
684.284	4662.88
684.474	4806.24
684.664	4695.65
684.854	4802.15
685.044	4793.95
685.234	4511.33
685.424	4771.43
685.614	4759.14
685.804	4746.85
685.994	4687.46
686.184	4671.08
686.374	4677.22
686.564	4609.64
686.753	4683.36
686.943	4523.62
687.133	4589.16
687.323	4497
687.513	4720.23
687.702	4521.57
687.892	4603.49
688.082	4531.81
688.272	4425.32
688.461	4480.61
688.651	4507.24
688.841	4470.37
689.03	4281.96
689.22	4470.37
689.41	4537.96
689.599	4310.63
689.789	4478.57
689.979	4228.71
690.168	4257.39
690.358	4265.58
690.547	4316.78
690.737	4253.29
690.926	4175.47
691.116	4128.36
691.305	4357.74
691.495	4183.66
691.684	4144.75
691.874	4103.79
692.063	4281.96
692.252	3952.24
692.442	4159.08
692.631	3964.53
692.82	3933.81
693.01	3950.19
693.199	4003.44
693.388	3915.37
693.578	4005.49
693.767	3962.48
693.956	3901.04
694.146	3923.57
694.335	3866.22
694.524	3898.99
694.713	3882.61
694.902	3942
695.092	3851.89
695.281	3917.42
695.47	3827.31
695.659	3841.65
695.848	3935.85
696.037	3778.16
696.226	3927.66
696.415	3823.22
696.604	3950.19
696.793	3810.93
696.982	3782.26
697.171	3931.76
697.36	3747.44
697.549	3860.08
697.738	3884.66
697.927	3731.06
698.116	3909.23
698.305	3753.59
698.494	3882.61
698.683	3776.11
698.872	3790.45
699.061	3862.13
699.25	3769.97
699.438	3769.97
699.627	3942
699.816	3792.5
700.005	3858.03
700.193	3810.93
700.382	3858.03
700.571	3815.02
700.76	3778.16
700.948	3718.77
701.137	3905.14
701.326	3939.95
701.514	4015.73
701.703	3933.81
701.892	3835.5
702.08	4011.63
702.269	3884.66
702.457	4023.92
702.646	4011.63
702.834	3956.33
703.023	3808.88
703.212	3950.19
703.4	3950.19
703.589	3956.33
703.777	4060.78
703.965	3880.56
704.154	4046.44
704.342	3962.48
704.531	3985.01
704.719	4007.53
704.907	4073.07
705.096	3987.05
705.284	4097.64
705.472	3964.53
705.661	4197.99
705.849	4208.23
706.037	4202.09
706.226	4140.65
706.414	4089.45
706.602	4075.12
706.79	4173.42
706.979	4150.89
707.167	4142.7
707.355	4232.81
707.543	4236.91
707.731	4179.56
707.919	4267.63
708.107	4263.53
708.296	4195.95
708.484	4095.6
708.672	4398.7
708.86	4150.89
709.048	4322.92
709.236	4335.21
709.424	4163.18
709.612	4460.13
709.8	4318.82
709.988	4341.35
710.176	4288.11
710.364	4439.65
710.551	4425.32
710.739	4320.87
710.927	4515.43
711.115	4341.35
711.303	4490.85
711.491	4353.64
711.679	4556.39
711.866	4417.13
712.054	4611.68
712.242	4314.73
712.43	4531.81
712.617	4499.05
712.805	4503.14
712.993	4617.83
713.181	4453.99
713.368	4666.98
713.556	4742.75
713.744	4634.21
713.931	4769.38
714.119	4603.49
714.306	4685.41
714.494	4572.77
714.682	4564.58
714.869	4554.34
715.057	4814.43
715.244	4810.34
715.432	4701.79
715.619	4759.14
715.807	4912.74
715.994	4879.97
716.182	4789.86
716.369	4855.39
716.556	4843.1
716.744	4755.04
716.931	4904.54
717.119	4900.45
717.306	4798.05
717.493	4941.41
717.681	5006.94
717.868	4918.88
718.055	5045.85
718.242	4861.54
718.43	5121.63
718.617	4986.46
718.804	5103.2
718.991	5174.88
719.179	5095
719.366	5138.01
719.553	5060.19
719.74	5166.68
719.927	5123.68
720.114	5074.53
720.301	5097.05
720.488	5006.94
720.676	5039.71
720.863	5170.78
721.05	5226.07
721.237	5310.04
721.424	5240.41
721.611	5203.55
721.798	5166.68
721.985	5275.23
722.172	5146.2
722.358	5316.19
722.545	5277.27
722.732	5240.41
722.919	5332.57
723.106	5144.16
723.293	5283.42
723.48	5305.95
723.667	5373.53
723.853	5262.94
724.04	5291.61
724.227	5281.37
724.414	5449.3
724.6	5332.57
724.787	5443.16
724.974	5361.24
725.161	5500.5
725.347	5371.48
725.534	5582.42
725.72	5301.85
725.907	5459.54
726.094	5531.22
726.28	5457.5
726.467	5326.43
726.653	5508.69
726.84	5365.34
727.027	5756.5
727.213	5625.43
727.4	5418.58
727.586	5486.17
727.773	5520.98
727.959	5613.14
728.145	5580.37
728.332	5572.18
728.518	5555.8
728.705	5516.89
728.891	5412.44
729.077	5678.68
729.264	5635.67
729.45	5592.66
729.636	5729.88
729.823	5627.48
730.009	5631.57
730.195	5641.81
730.382	5738.07
730.568	5594.71
730.754	5725.78
730.94	5607
731.126	5772.88
731.313	5711.44
731.499	5774.93
731.685	5787.22
731.871	5549.65
732.057	5621.33
732.243	5668.44
732.429	5598.81
732.615	5731.92
732.801	5914.19
732.987	5803.6
733.173	5736.02
733.359	5834.32
733.545	5652.05
733.731	5658.2
733.917	5854.8
734.103	5817.94
734.289	5744.21
734.475	5568.09
734.661	5758.55
734.847	5811.79
735.033	5850.71
735.219	5862.99
735.404	5824.08
735.59	5662.29
735.776	5707.35
735.962	5891.66
736.148	5744.21
736.333	5752.4
736.519	5697.11
736.705	5822.03
736.89	5772.88
737.076	5744.21
737.262	5621.33
737.447	5621.33
737.633	5670.48
737.819	5901.9
738.004	5713.49
738.19	5742.16
738.375	5490.26
738.561	5811.79
738.747	5688.92
738.932	5688.92
739.118	5594.71
739.303	5688.92
739.489	5615.19
739.674	5463.64
739.859	5578.33
740.045	5430.87
740.23	5568.09
740.416	5627.48
740.601	5512.79
740.786	5607
740.972	5348.95
741.157	5531.22
741.342	5520.98
741.528	5377.62
741.713	5520.98
741.898	5617.24
742.084	5330.52
742.269	5545.56
742.454	5541.46
742.639	5457.5
742.824	5342.81
743.01	5455.45
743.195	5459.54
743.38	5365.34
743.565	5174.88
743.75	5359.19
743.935	5236.31
744.12	5408.34
744.305	5056.09
744.49	5248.6
744.675	5004.89
744.86	5252.7
745.045	5088.86
745.23	5174.88
745.415	5015.13
745.6	5269.08
745.785	5056.09
745.97	5129.82
746.155	4998.75
746.34	4982.37
746.525	4763.23
746.71	5027.42
746.895	4652.64
747.079	4865.63
747.264	4738.66
747.449	4834.91
747.634	4830.82
747.819	4724.32
748.003	4697.7
748.188	4744.8
748.373	4677.22
748.557	4630.12
748.742	4626.02
748.927	4558.44
749.111	4587.11
749.296	4511.33
749.481	4507.24
749.665	4503.14
749.85	4359.78
750.034	4494.95
750.219	4400.74
750.404	4394.6
750.588	4314.73
750.773	4138.6
750.957	4216.43
751.141	4208.23
751.326	4185.71
751.51	4101.74
751.695	4071.02
751.879	4154.99
752.064	4105.84
752.248	4040.3
752.432	4028.01
752.617	4126.32
752.801	4023.92
752.985	3999.34
753.17	3835.5
753.354	3845.74
753.538	3851.89
753.722	3800.69
753.907	3710.58
754.091	3839.6
754.275	3706.48
754.459	3655.28
754.643	3606.13
754.828	3698.29
755.012	3563.12
755.196	3581.56
755.38	3571.32
755.564	3571.32
755.748	3661.43
755.932	3511.93
756.116	3399.29
756.3	3548.79
756.484	3343.99
756.668	3384.95
756.852	3266.17
757.036	3280.5
757.22	3255.93
757.404	3313.27
757.588	3174.01
757.772	3188.35
757.956	3317.37
758.14	3292.79
758.323	3073.66
758.507	3217.02
758.691	3102.33
758.875	3188.35
759.059	3098.24
759.242	2981.5
759.426	3040.89
759.61	3038.84
759.794	2936.45
759.977	3053.18
760.161	3149.43
760.345	2942.59
760.528	2954.88
760.712	2926.21
760.895	3014.27
761.079	2979.45
761.263	2721.41
761.446	2907.77
761.63	2780.8
761.813	2864.77
761.997	2743.94
762.18	2909.82
762.364	2842.24
762.547	2610.82
762.731	2647.68
762.914	2606.72
763.098	2743.94
763.281	2729.6
763.464	2705.03
763.648	2709.12
763.831	2639.49
764.015	2604.67
764.198	2629.25
764.381	2578.05
764.564	2594.44
764.748	2502.28
764.931	2535.04
765.114	2526.85
765.297	2508.42
765.481	2426.5
765.664	2481.8
765.847	2426.5
766.03	2449.03
766.213	2418.31
766.397	2375.3
766.58	2418.31
766.763	2375.3
766.946	2438.79
767.129	2367.11
767.312	2309.77
767.495	2352.77
767.678	2354.82
767.861	2328.2
768.044	2342.53
768.227	2279.05
768.41	2213.51
768.593	2289.29
768.776	2332.3
768.959	2352.77
769.142	2375.3
769.324	2215.56
769.507	2334.34
769.69	2229.9
769.873	2162.31
770.056	2205.32
770.239	2123.4
770.421	2145.93
770.604	2107.02
770.787	2066.06
770.97	2115.21
771.152	2119.31
771.335	2162.31
771.518	2057.87
771.7	2102.92
771.883	2029.2
772.066	1877.65
772.248	2201.23
772.431	2053.77
772.613	1980.04
772.796	1971.85
772.978	1980.04
773.161	1957.52
773.343	1861.26
773.526	1918.61
773.708	1779.34
773.891	1707.66
774.073	1928.85
774.256	1851.02
774.438	1836.69
774.621	1787.54
774.803	1873.55
774.985	1832.59
775.168	1869.45
775.35	1826.45
775.532	1744.53
775.715	1771.15
775.897	1726.1
776.079	1771.15
776.261	1742.48
776.444	1681.04
776.626	1574.55
776.808	1738.38
776.99	1633.94
777.173	1650.32
777.355	1615.51
777.537	1664.66
777.719	1578.64
777.901	1629.84
778.083	1592.98
778.265	1556.11
778.447	1588.88
778.629	1629.84
778.811	1611.41
778.993	1549.97
779.175	1451.67
779.357	1504.92
779.539	1359.51
779.721	1451.67
779.903	1361.56
780.085	1304.21
780.267	1451.67
780.449	1408.66
780.631	1345.17
780.812	1355.41
780.994	1341.08
781.176	1402.52
781.358	1236.63
781.54	1253.02
781.721	1351.32
781.903	1298.07
782.085	1328.79
782.267	1324.69
782.448	1320.6
782.63	1287.83
782.812	1296.02
782.993	1296.02
783.175	1250.97
783.357	1152.67
783.538	1193.62
783.72	1160.86
783.901	1273.5
784.083	1126.04
784.264	1144.47
784.446	1130.14
784.627	1173.14
784.809	1162.9
784.99	1083.03
785.172	1156.76
785.353	1054.36
785.535	1005.21
785.716	1097.37
785.897	1031.83
786.079	1070.75
786.26	1013.4
786.441	1074.84
786.623	1058.46
786.804	880.29
786.985	1013.4
787.167	992.92
787.348	974.49
787.529	992.92
787.71	1015.45
787.891	935.58
788.073	949.92
788.254	908.96
788.435	1015.45
788.616	943.77
788.797	861.85
788.978	951.96
789.159	841.37
789.34	941.72
789.522	861.85
789.703	878.24
789.884	943.77
790.065	874.14
790.246	896.67
790.427	843.42
790.607	888.48
790.788	927.39
790.969	800.41
791.15	923.29
791.331	777.89
791.512	884.38
791.693	710.3
791.874	818.85
792.054	882.33
792.235	720.54
792.416	718.5
792.597	837.28
792.778	714.4
792.958	671.39
793.139	814.75
793.32	775.84
793.5	648.86
793.681	806.56
793.862	738.98
794.042	743.07
794.223	700.06
794.404	642.72
794.584	603.81
794.765	736.93
794.945	673.44
795.126	726.69
795.306	718.5
795.487	683.68
795.667	773.79
795.848	773.79
796.028	644.77
796.209	738.98
796.389	665.25
796.57	587.43
796.75	689.82
796.93	661.15
797.111	583.33
797.291	659.1
797.471	663.2
797.652	644.77
797.832	622.24
798.012	741.02
798.192	491.17
798.373	620.19
798.553	657.06
798.733	630.43
798.913	607.91
799.093	642.72
799.274	618.15
799.454	738.98
799.634	622.24
799.814	614.05
799.994	644.77
800.174	523.94
800.354	568.99
800.534	556.71
800.714	616.1
800.894	532.13
801.074	607.91
801.254	577.19
801.434	657.06
801.614	521.89
801.794	573.09
801.974	1269.4
802.154	542.37
802.334	616.1
802.514	509.6
802.693	523.94
802.873	546.47
803.053	564.9
803.233	583.33
803.413	548.51
803.592	460.45
803.772	534.18
803.952	470.69
804.131	523.94
804.311	614.05
804.491	550.56
804.67	452.26
804.85	485.03
805.03	575.14
805.209	497.32
805.389	472.74
805.568	476.84
805.748	444.07
805.928	530.08
806.107	482.98
806.287	433.83
806.466	521.89
806.646	431.78
806.825	353.96
807.004	517.79
807.184	456.36
807.363	482.98
807.543	409.25
807.722	419.49
807.901	415.4
808.081	476.84
808.26	403.11
808.439	345.77
808.619	478.88
808.798	433.83
808.977	444.07
809.156	493.22
809.336	427.68
809.515	396.96
809.694	401.06
809.873	394.92
810.052	378.53
810.231	442.02
810.411	411.3
810.59	435.88
810.769	472.74
810.948	351.91
811.127	384.68
811.306	319.14
811.485	339.62
811.664	399.01
811.843	403.11
812.022	419.49
812.201	405.16
812.38	401.06
812.559	317.09
812.737	423.59
812.916	331.43
813.095	321.19
813.274	370.34
813.453	364.2
813.632	304.81
813.811	392.87
813.989	317.09
814.168	403.11
814.347	337.57
814.526	327.33
814.704	376.48
814.883	323.24
815.062	292.52
815.24	405.16
815.419	347.81
815.598	288.42
815.776	255.65
815.955	388.77
816.133	218.79
816.312	286.37
816.49	284.33
816.669	304.81
816.847	222.89
817.026	321.19
817.204	327.33
817.383	335.53
817.561	259.75
817.74	321.19
817.918	378.53
818.097	343.72
818.275	362.15
818.453	321.19
818.632	304.81
818.81	255.65
818.988	331.43
819.167	253.61
819.345	321.19
819.523	265.89
819.701	345.77
819.879	288.42
820.058	345.77
820.236	337.57
820.414	351.91
820.592	231.08
820.77	265.89
820.948	272.04
821.127	292.52
821.305	263.85
821.483	257.7
821.661	329.38
821.839	296.61
822.017	255.65
822.195	216.74
822.373	276.13
822.551	261.8
822.729	317.09
822.907	247.46
823.085	208.55
823.262	321.19
823.44	304.81
823.618	231.08
823.796	255.65
823.974	259.75
824.152	241.32
824.329	171.69
824.507	269.99
824.685	241.32
824.863	181.93
825.04	231.08
825.218	198.31
825.396	300.71
825.574	237.22
825.751	214.7
825.929	218.79
826.107	253.61
826.284	231.08
826.462	222.89
826.639	186.02
826.817	208.55
826.994	198.31
827.172	147.11
827.349	239.27
827.527	247.46
827.704	224.94
827.882	255.65
828.059	235.18
828.237	192.17
828.414	253.61
828.591	157.35
828.769	183.98
828.946	222.89
829.124	140.97
829.301	198.31
829.478	237.22
829.655	247.46
829.833	218.79
830.01	169.64
830.187	163.5
830.364	169.64
830.542	226.98
830.719	229.03
830.896	218.79
831.073	169.64
831.25	175.78
831.427	231.08
831.604	255.65
831.782	186.02
831.959	233.13
832.136	177.83
832.313	251.56
832.49	192.17
832.667	157.35
832.844	177.83
833.021	233.13
833.198	108.2
833.374	190.12
833.551	177.83
833.728	179.88
833.905	208.55
834.082	79.53
834.259	198.31
834.436	190.12
834.612	153.26
834.789	159.4
834.966	46.76
835.143	196.26
835.319	108.2
835.496	138.92
835.673	114.34
835.85	222.89
836.026	210.6
836.203	171.69
836.38	194.22
836.556	151.21
836.733	181.93
836.909	183.98
837.086	194.22
837.262	104.11
837.439	198.31
837.616	183.98
837.792	140.97
837.968	140.97
838.145	63.15
838.321	165.54
838.498	128.68
838.674	204.46
838.851	208.55
839.027	147.11
839.203	130.73
839.38	153.26
839.556	188.07
839.732	91.82
839.909	38.57
840.085	108.2
840.261	91.82
840.437	110.25
840.614	159.4
840.79	206.5
840.966	149.16
841.142	110.25
841.318	140.97
841.494	140.97
841.671	95.91
841.847	106.15
842.023	71.34
842.199	136.87
842.375	161.45
842.551	112.3
842.727	30.38
842.903	132.78
843.079	30.38
843.255	181.93
843.431	145.06
843.607	198.31
843.783	63.15
843.959	161.45
844.134	100.01
844.31	157.35
844.486	79.53
844.662	34.47
844.838	155.3
845.013	116.39
845.189	106.15
845.365	100.01
845.541	147.11
845.716	140.97
845.892	202.41
846.068	85.67
846.244	73.39
846.419	87.72
846.595	126.63
846.77	63.15
846.946	147.11
847.122	73.39
847.297	75.43
847.473	24.23
847.648	130.73
847.824	138.92
847.999	77.48
848.175	132.78
848.35	157.35
848.526	153.26
848.701	155.3
848.876	130.73
849.052	132.78
849.227	89.77
849.403	87.72
849.578	147.11
849.753	140.97
849.929	116.39
850.104	-16.73
850.279	89.77
850.454	100.01
850.63	122.54
850.805	30.38
850.98	100.01
851.155	38.57
851.33	136.87
851.505	46.76
851.681	210.6
851.856	112.3
852.031	104.11
852.206	134.82
852.381	48.81
852.556	93.87
852.731	112.3
852.906	50.86
853.081	71.34
853.256	143.02
853.431	65.19
853.606	77.48
853.781	67.24
853.956	-22.87
854.131	128.68
854.305	153.26
854.48	85.67
854.655	54.95
854.83	108.2
855.005	67.24
855.18	50.86
855.354	77.48
855.529	75.43
855.704	48.81
855.879	48.81
856.053	18.09
856.228	71.34
856.403	26.28
856.577	65.19
856.752	32.43
856.926	40.62
857.101	85.67
857.276	50.86
857.45	11.95
857.625	83.63
857.799	30.38
857.974	102.06
858.148	30.38
858.323	87.72
858.497	75.43
858.672	50.86
858.846	83.63
859.02	89.77
859.195	97.96
859.369	91.82
859.543	81.58
859.718	116.39
859.892	-35.16
860.066	91.82
860.241	81.58
860.415	32.43
860.589	34.47
860.763	122.54
860.938	38.57
861.112	106.15
861.286	-53.59
861.46	112.3
861.634	67.24
861.808	100.01
861.982	5.8
862.157	28.33
862.331	-6.49
862.505	59.05
862.679	-31.06
862.853	77.48
863.027	93.87
863.201	163.5
863.375	24.23
863.549	54.95
863.722	28.33
863.896	95.91
864.07	38.57
864.244	59.05
864.418	67.24
864.592	112.3
864.766	59.05
864.939	54.95
865.113	34.47
865.287	85.67
865.461	81.58
865.634	48.81
865.808	-2.39
865.982	46.76
866.156	65.19
866.329	-12.63
866.503	52.91
866.676	42.67
866.85	30.38
867.024	42.67
867.197	104.11
867.371	42.67
867.544	85.67
867.718	18.09
867.891	75.43
868.065	-6.49
868.238	89.77
868.412	85.67
868.585	130.73
868.759	1.71
868.932	48.81
869.105	63.15
869.279	-22.87
869.452	46.76
869.625	13.99
869.799	79.53
869.972	-51.54
870.145	65.19
870.319	59.05
870.492	9.9
870.665	20.14
870.838	1.71
871.011	-29.01
871.185	16.04
871.358	-55.64
871.531	-31.06
871.704	-2.39
871.877	77.48
872.05	5.8
872.223	44.71
872.396	69.29
872.569	104.11
872.742	-80.21
872.915	34.47
873.088	-0.34
873.261	22.19
873.434	30.38
873.607	145.06
873.78	69.29
873.953	32.43
874.126	42.67
874.299	42.67
874.471	22.19
874.644	48.81
874.817	83.63
874.99	73.39
875.163	34.47
875.335	63.15
875.508	22.19
875.681	61.1
875.853	-49.49
876.026	91.82
876.199	122.54
876.371	71.34
876.544	-18.77
876.717	34.47
876.889	18.09
877.062	46.76
877.234	32.43
877.407	-12.63
877.579	65.19
877.752	-18.77
877.924	75.43
878.097	54.95
878.269	16.04
878.442	30.38
878.614	-22.87
878.786	38.57
878.959	9.9
879.131	3.75
879.303	-22.87
879.476	18.09
879.648	89.77
879.82	-39.25
879.993	-6.49
880.165	54.95
880.337	30.38
880.509	83.63
880.681	1.71
880.854	-33.11
881.026	-14.68
881.198	112.3
881.37	20.14
881.542	18.09
881.714	59.05
881.886	-0.34
882.058	-47.44
882.23	65.19
882.402	-0.34
882.574	-16.73
882.746	9.9
882.918	48.81
883.09	28.33
883.262	-16.73
883.434	97.96
883.606	-47.44
883.778	57
883.95	50.86
884.122	42.67
884.293	46.76
884.465	40.62
884.637	-16.73
884.809	-26.96
884.98	32.43
885.152	65.19
885.324	97.96
885.496	42.67
885.667	48.81
885.839	-39.25
886.011	40.62
886.182	75.43
886.354	108.2
886.525	7.85
886.697	50.86
886.869	40.62
887.04	-2.39
887.212	116.39
887.383	42.67
887.555	91.82
887.726	-4.44
887.897	1.71
888.069	22.19
888.24	9.9
888.412	24.23
888.583	18.09
888.754	-22.87
888.926	75.43
889.097	42.67
889.268	-98.64
889.44	-10.58
889.611	13.99
889.782	73.39
889.953	-24.92
890.125	32.43
890.296	1.71
890.467	-12.63
890.638	32.43
890.809	11.95
890.98	40.62
891.151	75.43
891.323	3.75
891.494	5.8
891.665	32.43
891.836	7.85
892.007	48.81
892.178	9.9
892.349	71.34
892.52	-6.49
892.691	26.28
892.862	7.85
893.032	1.71
893.203	13.99
893.374	1.71
893.545	34.47
893.716	-24.92
893.887	34.47
894.057	5.8
894.228	26.28
894.399	9.9
894.57	112.3
894.74	34.47
894.911	132.78
895.082	-26.96
895.253	59.05
895.423	22.19
895.594	42.67
895.764	63.15
895.935	-10.58
896.106	42.67
896.276	-26.96
896.447	9.9
896.617	-55.64
896.788	-51.54
896.958	20.14
897.129	61.1
897.299	-59.73
897.47	110.25
897.64	87.72
897.81	-0.34
897.981	63.15
898.151	44.71
898.322	59.05
898.492	24.23
898.662	11.95
898.832	-16.73
899.003	16.04
899.173	91.82
899.343	48.81
899.513	61.1
